7496.76250	0.00112
7494.83382	0.00113
7492.90514	0.00114
7490.97647	0.00115
7489.04779	0.00114
7487.11912	0.00114
7485.19044	0.00116
7483.26177	0.00116
7481.33309	0.00116
7479.40441	0.00115
7477.47574	0.00115
7475.54706	0.00116
7473.61839	0.00118
7471.68971	0.00120
7469.76104	0.00120
7467.83236	0.00118
7465.90368	0.00116
7463.97501	0.00115
7462.04633	0.00117
7460.11766	0.00119
7458.18898	0.00119
7456.26031	0.00119
7454.33163	0.00120
7452.40295	0.00119
7450.47428	0.00116
7448.54560	0.00115
7446.61693	0.00116
7444.68825	0.00118
7442.75958	0.00121
7440.83090	0.00123
7438.90222	0.00124
7436.97355	0.00124
7435.04487	0.00122
7433.11620	0.00121
7431.18752	0.00122
7429.25885	0.00122
7427.33017	0.00123
7425.40149	0.00123
7423.47282	0.00124
7421.54414	0.00125
7419.61547	0.00124
7417.68679	0.00122
7415.75812	0.00121
7413.82944	0.00122
7411.90076	0.00123
7409.97209	0.00123
7408.04341	0.00123
7406.11474	0.00124
7404.18606	0.00125
7402.25739	0.00127
7400.32871	0.00129
7398.40003	0.00129
7396.47136	0.00128
7394.54268	0.00127
7392.61401	0.00125
7390.68533	0.00124
7388.75666	0.00126
7386.82798	0.00128
7384.89930	0.00129
7382.97063	0.00130
7381.04195	0.00130
7379.11328	0.00132
7377.18460	0.00134
7375.25593	0.00133
7373.32725	0.00131
7371.39857	0.00130
7369.46990	0.00130
7367.54122	0.00134
7365.61255	0.00135
7363.68387	0.00135
7361.75520	0.00134
7359.82652	0.00133
7357.89784	0.00134
7355.96917	0.00134
7354.04049	0.00133
7352.11182	0.00133
7350.18314	0.00135
7348.25447	0.00136
7346.32579	0.00136
7344.39711	0.00137
7342.46844	0.00139
7340.53976	0.00138
7338.61109	0.00136
7336.68241	0.00135
7334.75374	0.00135
7332.82506	0.00136
7330.89638	0.00137
7328.96771	0.00137
7327.03903	0.00137
7325.11036	0.00139
7323.18168	0.00141
7321.25301	0.00142
7319.32433	0.00142
7317.39565	0.00142
7315.46698	0.00142
7313.53830	0.00142
7311.60963	0.00142
7309.68095	0.00144
7307.75228	0.00146
7305.82360	0.00147
7303.89492	0.00147
7301.96625	0.00146
7300.03757	0.00144
7298.10890	0.00143
7296.18022	0.00145
7294.25155	0.00146
7292.32287	0.00146
7290.39419	0.00147
7288.46552	0.00150
7286.53684	0.00151
7284.60817	0.00151
7282.67949	0.00149
7280.75082	0.00147
7278.82214	0.00146
7276.89346	0.00147
7274.96479	0.00147
7273.03611	0.00148
7271.10744	0.00148
7269.17876	0.00147
7267.25009	0.00148
7265.32141	0.00149
7263.39273	0.00151
7261.46406	0.00153
7259.53538	0.00154
7257.60671	0.00154
7255.67803	0.00154
7253.74936	0.00154
7251.82068	0.00154
7249.89200	0.00153
7247.96333	0.00151
7246.03465	0.00150
7244.10598	0.00151
7242.17730	0.00154
7240.24863	0.00157
7238.31995	0.00157
7236.39127	0.00157
7234.46260	0.00157
7232.53392	0.00158
7230.60525	0.00159
7228.67657	0.00158
7226.74790	0.00158
7224.81922	0.00158
7222.89054	0.00158
7220.96187	0.00159
7219.03319	0.00160
7217.10452	0.00163
7215.17584	0.00165
7213.24717	0.00165
7211.31849	0.00164
7209.38981	0.00165
7207.46114	0.00165
7205.53246	0.00161
7203.60379	0.00158
7201.67511	0.00158
7199.74644	0.00159
7197.81776	0.00161
7195.88908	0.00163
7193.96041	0.00163
7192.03173	0.00161
7190.10306	0.00161
7188.17438	0.00163
7186.24571	0.00165
7184.31703	0.00165
7182.38835	0.00165
7180.45968	0.00166
7178.53100	0.00165
7176.60233	0.00164
7174.67365	0.00165
7172.74498	0.00167
7170.81630	0.00170
7168.88762	0.00172
7166.95895	0.00173
7165.03027	0.00172
7163.10160	0.00168
7161.17292	0.00167
7159.24425	0.00168
7157.31557	0.00168
7155.38689	0.00168
7153.45822	0.00167
7151.52954	0.00168
7149.60087	0.00169
7147.67219	0.00169
7145.74352	0.00170
7143.81484	0.00172
7141.88616	0.00174
7139.95749	0.00176
7138.02881	0.00176
7136.10014	0.00176
7134.17146	0.00177
7132.24279	0.00181
7130.31411	0.00183
7128.38543	0.00181
7126.45676	0.00178
7124.52808	0.00177
7122.59941	0.00179
7120.67073	0.00182
7118.74206	0.00184
7116.81338	0.00182
7114.88470	0.00180
7112.95603	0.00179
7111.02735	0.00179
7109.09868	0.00179
7107.17000	0.00178
7105.24133	0.00180
7103.31265	0.00182
7101.38397	0.00184
7099.45530	0.00184
7097.52662	0.00183
7095.59795	0.00183
7093.66927	0.00183
7091.74060	0.00184
7089.81192	0.00185
7087.88324	0.00185
7085.95457	0.00185
7084.02589	0.00185
7082.09722	0.00186
7080.16854	0.00187
7078.23987	0.00187
7076.31119	0.00188
7074.38251	0.00189
7072.45384	0.00188
7070.52516	0.00188
7068.59649	0.00189
7066.66781	0.00190
7064.73914	0.00189
7062.81046	0.00189
7060.88178	0.00190
7058.95311	0.00190
7057.02443	0.00190
7055.09576	0.00190
7053.16708	0.00192
7051.23841	0.00192
7049.30973	0.00192
7047.38105	0.00192
7045.45238	0.00193
7043.52370	0.00194
7041.59503	0.00197
7039.66635	0.00199
7037.73768	0.00200
7035.80900	0.00199
7033.88032	0.00198
7031.95165	0.00198
7030.02297	0.00199
7028.09430	0.00199
7026.16562	0.00200
7024.23695	0.00201
7022.30827	0.00202
7020.37959	0.00204
7018.45092	0.00204
7016.52224	0.00204
7014.59357	0.00203
7012.66489	0.00202
7010.73622	0.00201
7008.80754	0.00200
7006.87886	0.00199
7004.95019	0.00199
7003.02151	0.00201
7001.09284	0.00203
6999.16416	0.00204
6997.23549	0.00204
6995.30681	0.00206
6993.37813	0.00209
6991.44946	0.00210
6989.52078	0.00210
6987.59211	0.00208
6985.66343	0.00205
6983.73476	0.00204
6981.80608	0.00206
6979.87740	0.00210
6977.94873	0.00214
6976.02005	0.00215
6974.09138	0.00214
6972.16270	0.00213
6970.23403	0.00212
6968.30535	0.00212
6966.37667	0.00214
6964.44800	0.00216
6962.51932	0.00216
6960.59065	0.00214
6958.66197	0.00212
6956.73330	0.00212
6954.80462	0.00212
6952.87594	0.00212
6950.94727	0.00214
6949.01859	0.00217
6947.08992	0.00219
6945.16124	0.00220
6943.23257	0.00220
6941.30389	0.00221
6939.37521	0.00221
6937.44654	0.00220
6935.51786	0.00221
6933.58919	0.00223
6931.66051	0.00225
6929.73184	0.00225
6927.80316	0.00223
6925.87448	0.00222
6923.94581	0.00222
6922.01713	0.00224
6920.08846	0.00226
6918.15978	0.00227
6916.23111	0.00226
6914.30243	0.00223
6912.37375	0.00223
6910.44508	0.00225
6908.51640	0.00225
6906.58773	0.00225
6904.65905	0.00225
6902.73038	0.00226
6900.80170	0.00227
6898.87302	0.00227
6896.94435	0.00228
6895.01567	0.00231
6893.08700	0.00234
6891.15832	0.00234
6889.22965	0.00233
6887.30097	0.00233
6885.37229	0.00235
6883.44362	0.00234
6881.51494	0.00233
6879.58627	0.00231
6877.65759	0.00232
6875.72892	0.00235
6873.80024	0.00238
6871.87156	0.00239
6869.94289	0.00240
6868.01421	0.00240
6866.08554	0.00239
6864.15686	0.00236
6862.22819	0.00235
6860.29951	0.00238
6858.37083	0.00243
6856.44216	0.00245
6854.51348	0.00244
6852.58481	0.00243
6850.65613	0.00243
6848.72746	0.00243
6846.79878	0.00244
6844.87010	0.00244
6842.94143	0.00244
6841.01275	0.00244
6839.08408	0.00244
6837.15540	0.00246
6835.22673	0.00247
6833.29805	0.00247
6831.36937	0.00247
6829.44070	0.00248
6827.51202	0.00249
6825.58335	0.00250
6823.65467	0.00250
6821.72600	0.00249
6819.79732	0.00248
6817.86864	0.00248
6815.93997	0.00250
6814.01129	0.00253
6812.08262	0.00254
6810.15394	0.00253
6808.22527	0.00254
6806.29659	0.00255
6804.36791	0.00258
6802.43924	0.00261
6800.51056	0.00261
6798.58189	0.00260
6796.65321	0.00259
6794.72454	0.00259
6792.79586	0.00257
6790.86718	0.00255
6788.93851	0.00255
6787.00983	0.00258
6785.08116	0.00260
6783.15248	0.00260
6781.22381	0.00259
6779.29513	0.00259
6777.36645	0.00261
6775.43778	0.00262
6773.50910	0.00262
6771.58043	0.00263
6769.65175	0.00266
6767.72308	0.00268
6765.79440	0.00268
6763.86572	0.00267
6761.93705	0.00267
6760.00837	0.00265
6758.07970	0.00264
6756.15102	0.00265
6754.22235	0.00267
6752.29367	0.00270
6750.36499	0.00270
6748.43632	0.00267
6746.50764	0.00265
6744.57897	0.00264
6742.65029	0.00265
6740.72162	0.00269
6738.79294	0.00273
6736.86426	0.00274
6734.93559	0.00273
6733.00691	0.00273
6731.07824	0.00275
6729.14956	0.00275
6727.22089	0.00275
6725.29221	0.00277
6723.36353	0.00278
6721.43486	0.00279
6719.50618	0.00280
6717.57751	0.00280
6715.64883	0.00281
6713.72016	0.00282
6711.79148	0.00280
6709.86280	0.00278
6707.93413	0.00278
6706.00545	0.00279
6704.07678	0.00281
6702.14810	0.00282
6700.21943	0.00285
6698.29075	0.00288
6696.36207	0.00289
6694.43340	0.00288
6692.50472	0.00288
6690.57605	0.00288
6688.64737	0.00289
6686.71870	0.00290
6684.79002	0.00290
6682.86134	0.00291
6680.93267	0.00291
6679.00399	0.00291
6677.07532	0.00291
6675.14664	0.00292
6673.21797	0.00293
6671.28929	0.00294
6669.36061	0.00293
6667.43194	0.00292
6665.50326	0.00293
6663.57459	0.00294
6661.64591	0.00295
6659.71724	0.00297
6657.78856	0.00300
6655.85988	0.00301
6653.93121	0.00302
6652.00253	0.00304
6650.07386	0.00304
6648.14518	0.00301
6646.21651	0.00298
6644.28783	0.00297
6642.35915	0.00299
6640.43048	0.00303
6638.50180	0.00307
6636.57313	0.00306
6634.64445	0.00303
6632.71578	0.00305
6630.78710	0.00308
6628.85842	0.00309
6626.92975	0.00309
6625.00107	0.00311
6623.07240	0.00311
6621.14372	0.00310
6619.21505	0.00311
6617.28637	0.00314
6615.35769	0.00315
6613.42902	0.00315
6611.50034	0.00314
6609.57167	0.00311
6607.64299	0.00309
6605.71432	0.00310
6603.78564	0.00313
6601.85696	0.00317
6599.92829	0.00318
6597.99961	0.00316
6596.07094	0.00315
6594.14226	0.00318
6592.21359	0.00321
6590.28491	0.00320
6588.35623	0.00319
6586.42756	0.00319
6584.49888	0.00322
6582.57021	0.00324
6580.64153	0.00324
6578.71286	0.00323
6576.78418	0.00324
6574.85550	0.00325
6572.92683	0.00325
6570.99815	0.00325
6569.06948	0.00326
6567.14080	0.00327
6565.21213	0.00328
6563.28345	0.00328
6561.35477	0.00328
6559.42610	0.00330
6557.49742	0.00332
6555.56875	0.00332
6553.64007	0.00332
6551.71140	0.00333
6549.78272	0.00336
6547.85404	0.00339
6545.92537	0.00340
6543.99669	0.00341
6542.06802	0.00339
6540.13934	0.00338
6538.21067	0.00338
6536.28199	0.00341
6534.35331	0.00342
6532.42464	0.00342
6530.49596	0.00341
6528.56729	0.00341
6526.63861	0.00342
6524.70994	0.00344
6522.78126	0.00346
6520.85258	0.00347
6518.92391	0.00348
6516.99523	0.00350
6515.06656	0.00352
6513.13788	0.00353
6511.20921	0.00352
6509.28053	0.00350
6507.35185	0.00349
6505.42318	0.00349
6503.49450	0.00352
6501.56583	0.00355
6499.63715	0.00355
6497.70848	0.00355
6495.77980	0.00356
6493.85112	0.00357
6491.92245	0.00357
6489.99377	0.00357
6488.06510	0.00358
6486.13642	0.00359
6484.20775	0.00360
6482.27907	0.00362
6480.35039	0.00364
6478.42172	0.00362
6476.49304	0.00359
6474.56437	0.00359
6472.63569	0.00363
6470.70702	0.00369
6468.77834	0.00371
6466.84966	0.00370
6464.92099	0.00370
6462.99231	0.00370
6461.06364	0.00370
6459.13496	0.00371
6457.20629	0.00372
6455.27761	0.00372
6453.34893	0.00371
6451.42026	0.00372
6449.49158	0.00373
6447.56291	0.00374
6445.63423	0.00375
6443.70556	0.00376
6441.77688	0.00377
6439.84820	0.00379
6437.91953	0.00381
6435.99085	0.00381
6434.06218	0.00382
6432.13350	0.00385
6430.20483	0.00387
6428.27615	0.00388
6426.34747	0.00387
6424.41880	0.00385
6422.49012	0.00383
6420.56145	0.00384
6418.63277	0.00387
6416.70410	0.00388
6414.77542	0.00387
6412.84674	0.00387
6410.91807	0.00389
6408.98939	0.00391
6407.06072	0.00391
6405.13204	0.00392
6403.20337	0.00394
6401.27469	0.00397
6399.34601	0.00397
6397.41734	0.00397
6395.48866	0.00398
6393.55999	0.00398
6391.63131	0.00397
6389.70264	0.00397
6387.77396	0.00399
6385.84528	0.00402
6383.91661	0.00404
6381.98793	0.00405
6380.05926	0.00405
6378.13058	0.00406
6376.20191	0.00407
6374.27323	0.00406
6372.34455	0.00406
6370.41588	0.00409
6368.48720	0.00412
6366.55853	0.00411
6364.62985	0.00408
6362.70118	0.00405
6360.77250	0.00406
6358.84382	0.00410
6356.91515	0.00414
6354.98647	0.00418
6353.05780	0.00421
6351.12912	0.00421
6349.20045	0.00420
6347.27177	0.00418
6345.34309	0.00417
6343.41442	0.00419
6341.48574	0.00421
6339.55707	0.00423
6337.62839	0.00423
6335.69972	0.00423
6333.77104	0.00422
6331.84236	0.00422
6329.91369	0.00424
6327.98501	0.00428
6326.05634	0.00431
6324.12766	0.00432
6322.19899	0.00433
6320.27031	0.00433
6318.34163	0.00432
6316.41296	0.00431
6314.48428	0.00432
6312.55561	0.00436
6310.62693	0.00437
6308.69826	0.00437
6306.76958	0.00436
6304.84090	0.00437
6302.91223	0.00439
6300.98355	0.00442
6299.05488	0.00442
6297.12620	0.00442
6295.19753	0.00440
6293.26885	0.00439
6291.34017	0.00442
6289.41150	0.00446
6287.48282	0.00448
6285.55415	0.00448
6283.62547	0.00449
6281.69680	0.00451
6279.76812	0.00451
6277.83944	0.00449
6275.91077	0.00450
6273.98209	0.00455
6272.05342	0.00457
6270.12474	0.00459
6268.19607	0.00460
6266.26739	0.00460
6264.33871	0.00460
6262.41004	0.00460
6260.48136	0.00460
6258.55269	0.00462
6256.62401	0.00464
6254.69534	0.00466
6252.76666	0.00469
6250.83798	0.00471
6248.90931	0.00469
6246.98063	0.00468
6245.05196	0.00471
6243.12328	0.00475
6241.19461	0.00475
6239.26593	0.00474
6237.33725	0.00475
6235.40858	0.00477
6233.47990	0.00478
6231.55123	0.00480
6229.62255	0.00482
6227.69388	0.00482
6225.76520	0.00482
6223.83652	0.00482
6221.90785	0.00482
6219.97917	0.00484
6218.05050	0.00487
6216.12182	0.00488
6214.19315	0.00488
6212.26447	0.00487
6210.33579	0.00486
6208.40712	0.00485
6206.47844	0.00486
6204.54977	0.00488
6202.62109	0.00488
6200.69242	0.00489
6198.76374	0.00492
6196.83506	0.00496
6194.90639	0.00499
6192.97771	0.00499
6191.04904	0.00499
6189.12036	0.00500
6187.19169	0.00499
6185.26301	0.00499
6183.33433	0.00502
6181.40566	0.00504
6179.47698	0.00506
6177.54831	0.00508
6175.61963	0.00509
6173.69096	0.00509
6171.76228	0.00510
6169.83360	0.00512
6167.90493	0.00515
6165.97625	0.00516
6164.04758	0.00516
6162.11890	0.00514
6160.19023	0.00514
6158.26155	0.00515
6156.33287	0.00516
6154.40420	0.00518
6152.47552	0.00518
6150.54685	0.00516
6148.61817	0.00515
6146.68950	0.00518
6144.76082	0.00522
6142.83214	0.00524
6140.90347	0.00525
6138.97479	0.00527
6137.04612	0.00530
6135.11744	0.00531
6133.18877	0.00532
6131.26009	0.00533
6129.33141	0.00533
6127.40274	0.00532
6125.47406	0.00532
6123.54539	0.00535
6121.61671	0.00537
6119.68804	0.00538
6117.75936	0.00537
6115.83068	0.00538
6113.90201	0.00541
6111.97333	0.00544
6110.04466	0.00545
6108.11598	0.00545
6106.18731	0.00544
6104.25863	0.00544
6102.32995	0.00546
6100.40128	0.00546
6098.47260	0.00546
6096.54393	0.00549
6094.61525	0.00553
6092.68658	0.00555
6090.75790	0.00557
6088.82922	0.00559
6086.90055	0.00559
6084.97187	0.00558
6083.04320	0.00558
6081.11452	0.00559
6079.18585	0.00561
6077.25717	0.00561
6075.32849	0.00563
6073.39982	0.00564
6071.47114	0.00564
6069.54247	0.00564
6067.61379	0.00566
6065.68512	0.00568
6063.75644	0.00568
6061.82776	0.00567
6059.89909	0.00567
6057.97041	0.00570
6056.04174	0.00574
6054.11306	0.00579
6052.18439	0.00584
6050.25571	0.00587
6048.32703	0.00585
6046.39836	0.00583
6044.46968	0.00584
6042.54101	0.00588
6040.61233	0.00590
6038.68366	0.00589
6036.75498	0.00589
6034.82630	0.00590
6032.89763	0.00590
6030.96895	0.00589
6029.04028	0.00590
6027.11160	0.00593
6025.18293	0.00595
6023.25425	0.00599
6021.32557	0.00601
6019.39690	0.00601
6017.46822	0.00601
6015.53955	0.00602
6013.61087	0.00605
6011.68220	0.00606
6009.75352	0.00607
6007.82484	0.00608
6005.89617	0.00609
6003.96749	0.00611
6002.03882	0.00613
6000.11014	0.00615
5998.18147	0.00619
5996.25279	0.00622
5994.32411	0.00620
5992.39544	0.00619
5990.46676	0.00619
5988.53809	0.00620
5986.60941	0.00622
5984.68074	0.00623
5982.75206	0.00626
5980.82338	0.00629
5978.89471	0.00629
5976.96603	0.00628
5975.03736	0.00628
5973.10868	0.00628
5971.18001	0.00630
5969.25133	0.00633
5967.32265	0.00635
5965.39398	0.00637
5963.46530	0.00638
5961.53663	0.00638
5959.60795	0.00639
5957.67928	0.00641
5955.75060	0.00642
5953.82192	0.00645
5951.89325	0.00646
5949.96457	0.00648
5948.03590	0.00649
5946.10722	0.00651
5944.17855	0.00655
5942.24987	0.00658
5940.32119	0.00659
5938.39252	0.00658
5936.46384	0.00658
5934.53517	0.00656
5932.60649	0.00656
5930.67782	0.00658
5928.74914	0.00663
5926.82046	0.00666
5924.89179	0.00668
5922.96311	0.00669
5921.03444	0.00668
5919.10576	0.00668
5917.17709	0.00670
5915.24841	0.00672
5913.31973	0.00675
5911.39106	0.00676
5909.46238	0.00678
5907.53371	0.00680
5905.60503	0.00680
5903.67636	0.00680
5901.74768	0.00679
5899.81900	0.00679
5897.89033	0.00681
5895.96165	0.00687
5894.03298	0.00692
5892.10430	0.00695
5890.17563	0.00695
5888.24695	0.00695
5886.31827	0.00695
5884.38960	0.00695
5882.46092	0.00695
5880.53225	0.00695
5878.60357	0.00694
5876.67490	0.00696
5874.74622	0.00701
5872.81755	0.00706
5870.88887	0.00709
5868.96019	0.00709
5867.03152	0.00710
5865.10284	0.00712
5863.17417	0.00712
5861.24549	0.00713
5859.31682	0.00716
5857.38814	0.00718
5855.45946	0.00720
5853.53079	0.00722
5851.60211	0.00723
5849.67344	0.00723
5847.74476	0.00723
5845.81609	0.00724
5843.88741	0.00728
5841.95873	0.00732
5840.03006	0.00735
5838.10138	0.00734
5836.17271	0.00733
5834.24403	0.00736
5832.31536	0.00739
5830.38668	0.00741
5828.45800	0.00740
5826.52933	0.00740
5824.60065	0.00743
5822.67198	0.00746
5820.74330	0.00748
5818.81463	0.00749
5816.88595	0.00750
5814.95727	0.00750
5813.02860	0.00752
5811.09992	0.00757
5809.17125	0.00758
5807.24257	0.00756
5805.31390	0.00755
5803.38522	0.00756
5801.45654	0.00758
5799.52787	0.00761
5797.59919	0.00763
5795.67052	0.00766
5793.74184	0.00767
5791.81317	0.00767
5789.88449	0.00768
5787.95581	0.00772
5786.02714	0.00776
5784.09846	0.00779
5782.16979	0.00779
5780.24111	0.00778
5778.31244	0.00778
5776.38376	0.00779
5774.45508	0.00781
5772.52641	0.00782
5770.59773	0.00781
5768.66906	0.00782
5766.74038	0.00785
5764.81171	0.00788
5762.88303	0.00789
5760.95435	0.00791
5759.02568	0.00796
5757.09700	0.00800
5755.16833	0.00802
5753.23965	0.00803
5751.31098	0.00806
5749.38230	0.00808
5747.45362	0.00808
5745.52495	0.00808
5743.59627	0.00808
5741.66760	0.00809
5739.73892	0.00811
5737.81025	0.00815
5735.88157	0.00819
5733.95289	0.00823
5732.02422	0.00825
5730.09554	0.00826
5728.16687	0.00827
5726.23819	0.00829
5724.30952	0.00830
5722.38084	0.00831
5720.45216	0.00832
5718.52349	0.00832
5716.59481	0.00832
5714.66614	0.00832
5712.73746	0.00834
5710.80879	0.00837
5708.88011	0.00839
5706.95143	0.00840
5705.02276	0.00843
5703.09408	0.00844
5701.16541	0.00844
5699.23673	0.00845
5697.30806	0.00847
5695.37938	0.00849
5693.45070	0.00851
5691.52203	0.00854
5689.59335	0.00856
5687.66468	0.00856
5685.73600	0.00857
5683.80733	0.00860
5681.87865	0.00864
5679.94997	0.00865
5678.02130	0.00865
5676.09262	0.00867
5674.16395	0.00873
5672.23527	0.00877
5670.30660	0.00879
5668.37792	0.00881
5666.44924	0.00883
5664.52057	0.00883
5662.59189	0.00881
5660.66322	0.00882
5658.73454	0.00887
5656.80587	0.00892
5654.87719	0.00892
5652.94851	0.00891
5651.01984	0.00892
5649.09116	0.00895
5647.16249	0.00897
5645.23381	0.00899
5643.30514	0.00902
5641.37646	0.00903
5639.44778	0.00904
5637.51911	0.00906
5635.59043	0.00907
5633.66176	0.00909
5631.73308	0.00910
5629.80441	0.00910
5627.87573	0.00909
5625.94705	0.00910
5624.01838	0.00914
5622.08970	0.00918
5620.16103	0.00922
5618.23235	0.00924
5616.30368	0.00925
5614.37500	0.00928
5612.44632	0.00931
5610.51765	0.00934
5608.58897	0.00937
5606.66030	0.00937
5604.73162	0.00935
5602.80295	0.00936
5600.87427	0.00939
5598.94559	0.00942
5597.01692	0.00944
5595.08824	0.00946
5593.15957	0.00949
5591.23089	0.00951
5589.30222	0.00951
5587.37354	0.00952
5585.44486	0.00955
5583.51619	0.00958
5581.58751	0.00961
5579.65884	0.00963
5577.73016	0.00966
5575.80149	0.00968
5573.87281	0.00969
5571.94413	0.00970
5570.01546	0.00971
5568.08678	0.00972
5566.15811	0.00973
5564.22943	0.00973
5562.30076	0.00975
5560.37208	0.00978
5558.44340	0.00981
5556.51473	0.00981
5554.58605	0.00983
5552.65738	0.00986
5550.72870	0.00990
5548.80003	0.00992
5546.87135	0.00994
5544.94267	0.00994
5543.01400	0.00996
5541.08532	0.00998
5539.15665	0.00999
5537.22797	0.00999
5535.29930	0.01000
5533.37062	0.01005
5531.44194	0.01011
5529.51327	0.01014
5527.58459	0.01016
5525.65592	0.01019
5523.72724	0.01022
5521.79857	0.01020
5519.86989	0.01019
5517.94121	0.01021
5516.01254	0.01025
5514.08386	0.01026
5512.15519	0.01027
5510.22651	0.01030
5508.29784	0.01035
5506.36916	0.01039
5504.44048	0.01038
5502.51181	0.01036
5500.58313	0.01038
5498.65446	0.01043
5496.72578	0.01046
5494.79711	0.01047
5492.86843	0.01047
5490.93975	0.01048
5489.01108	0.01049
5487.08240	0.01051
5485.15373	0.01053
5483.22505	0.01055
5481.29638	0.01056
5479.36770	0.01059
5477.43902	0.01062
5475.51035	0.01067
5473.58167	0.01070
5471.65300	0.01070
5469.72432	0.01071
5467.79565	0.01076
5465.86697	0.01079
5463.93829	0.01079
5462.00962	0.01080
5460.08094	0.01082
5458.15227	0.01085
5456.22359	0.01088
5454.29492	0.01091
5452.36624	0.01091
5450.43756	0.01091
5448.50889	0.01091
5446.58021	0.01093
5444.65154	0.01097
5442.72286	0.01100
5440.79419	0.01101
5438.86551	0.01100
5436.93683	0.01101
5435.00816	0.01104
5433.07948	0.01108
5431.15081	0.01112
5429.22213	0.01114
5427.29346	0.01116
5425.36478	0.01118
5423.43610	0.01120
5421.50743	0.01122
5419.57875	0.01126
5417.65008	0.01128
5415.72140	0.01128
5413.79273	0.01130
5411.86405	0.01136
5409.93537	0.01141
5408.00670	0.01143
5406.07802	0.01144
5404.14935	0.01144
5402.22067	0.01145
5400.29200	0.01147
5398.36332	0.01149
5396.43464	0.01154
5394.50597	0.01159
5392.57729	0.01160
5390.64862	0.01159
5388.71994	0.01159
5386.79127	0.01159
5384.86259	0.01162
5382.93391	0.01166
5381.00524	0.01170
5379.07656	0.01175
5377.14789	0.01179
5375.21921	0.01181
5373.29054	0.01183
5371.36186	0.01185
5369.43318	0.01187
5367.50451	0.01187
5365.57583	0.01190
5363.64716	0.01192
5361.71848	0.01195
5359.78981	0.01197
5357.86113	0.01196
5355.93245	0.01197
5354.00378	0.01201
5352.07510	0.01205
5350.14643	0.01205
5348.21775	0.01204
5346.28908	0.01206
5344.36040	0.01212
5342.43172	0.01219
5340.50305	0.01221
5338.57437	0.01219
5336.64570	0.01220
5334.71702	0.01224
5332.78835	0.01229
5330.85967	0.01231
5328.93099	0.01232
5327.00232	0.01234
5325.07364	0.01238
5323.14497	0.01241
5321.21629	0.01243
5319.28762	0.01245
5317.35894	0.01246
5315.43026	0.01249
5313.50159	0.01251
5311.57291	0.01251
5309.64424	0.01250
5307.71556	0.01253
5305.78689	0.01256
5303.85821	0.01257
5301.92953	0.01258
5300.00086	0.01260
5298.07218	0.01263
5296.14351	0.01266
5294.21483	0.01268
5292.28616	0.01270
5290.35748	0.01273
5288.42880	0.01277
5286.50013	0.01280
5284.57145	0.01281
5282.64278	0.01284
5280.71410	0.01288
5278.78543	0.01290
5276.85675	0.01291
5274.92807	0.01291
5272.99940	0.01292
5271.07072	0.01295
5269.14205	0.01299
5267.21337	0.01301
5265.28470	0.01304
5263.35602	0.01306
5261.42734	0.01311
5259.49867	0.01317
5257.56999	0.01321
5255.64132	0.01322
5253.71264	0.01323
5251.78397	0.01325
5249.85529	0.01328
5247.92661	0.01332
5245.99794	0.01336
5244.06926	0.01337
5242.14059	0.01338
5240.21191	0.01338
5238.28324	0.01338
5236.35456	0.01338
5234.42588	0.01340
5232.49721	0.01344
5230.56853	0.01350
5228.63986	0.01353
5226.71118	0.01353
5224.78251	0.01352
5222.85383	0.01354
5220.92515	0.01356
5218.99648	0.01359
5217.06780	0.01362
5215.13913	0.01366
5213.21045	0.01371
5211.28178	0.01375
5209.35310	0.01376
5207.42442	0.01376
5205.49575	0.01378
5203.56707	0.01382
5201.63840	0.01385
5199.70972	0.01387
5197.78105	0.01390
5195.85237	0.01392
5193.92369	0.01392
5191.99502	0.01393
5190.06634	0.01396
5188.13767	0.01400
5186.20899	0.01404
5184.28032	0.01408
5182.35164	0.01412
5180.42296	0.01414
5178.49429	0.01415
5176.56561	0.01416
5174.63694	0.01419
5172.70826	0.01422
5170.77959	0.01423
5168.85091	0.01424
5166.92223	0.01426
5164.99356	0.01429
5163.06488	0.01433
5161.13621	0.01439
5159.20753	0.01444
5157.27886	0.01447
5155.35018	0.01449
5153.42150	0.01450
5151.49283	0.01449
5149.56415	0.01450
5147.63548	0.01454
5145.70680	0.01456
5143.77813	0.01458
5141.84945	0.01461
5139.92077	0.01463
5137.99210	0.01464
5136.06342	0.01466
5134.13475	0.01468
5132.20607	0.01470
5130.27740	0.01474
5128.34872	0.01482
5126.42004	0.01489
5124.49137	0.01491
5122.56269	0.01489
5120.63402	0.01490
5118.70534	0.01496
5116.77667	0.01500
5114.84799	0.01500
5112.91931	0.01500
5110.99064	0.01502
5109.06196	0.01505
5107.13329	0.01507
5105.20461	0.01508
5103.27594	0.01511
5101.34726	0.01515
5099.41858	0.01518
5097.48991	0.01520
5095.56123	0.01522
5093.63256	0.01525
5091.70388	0.01528
5089.77521	0.01531
5087.84653	0.01534
5085.91785	0.01536
5083.98918	0.01538
5082.06050	0.01542
5080.13183	0.01547
5078.20315	0.01551
5076.27448	0.01552
5074.34580	0.01550
5072.41712	0.01548
5070.48845	0.01551
5068.55977	0.01556
5066.63110	0.01562
5064.70242	0.01565
5062.77375	0.01566
5060.84507	0.01569
5058.91639	0.01572
5056.98772	0.01576
5055.05904	0.01580
5053.13037	0.01582
5051.20169	0.01581
5049.27302	0.01582
5047.34434	0.01588
5045.41566	0.01595
5043.48699	0.01600
5041.55831	0.01604
5039.62964	0.01605
5037.70096	0.01606
5035.77229	0.01607
5033.84361	0.01609
5031.91493	0.01611
5029.98626	0.01609
5028.05758	0.01608
5026.12891	0.01610
5024.20023	0.01616
5022.27156	0.01622
5020.34288	0.01627
5018.41420	0.01629
5016.48553	0.01631
5014.55685	0.01634
5012.62818	0.01637
5010.69950	0.01638
5008.77083	0.01639
5006.84215	0.01643
5004.91347	0.01649
5002.98480	0.01655
5001.05612	0.01657
4999.12745	0.01657
4997.19877	0.01659
4995.27010	0.01665
4993.34142	0.01670
4991.41274	0.01672
4989.48407	0.01672
4987.55539	0.01676
4985.62672	0.01680
4983.69804	0.01682
4981.76937	0.01683
4979.84069	0.01686
4977.91201	0.01690
4975.98334	0.01695
4974.05466	0.01696
4972.12599	0.01695
4970.19731	0.01695
4968.26864	0.01699
4966.33996	0.01704
4964.41128	0.01707
4962.48261	0.01711
4960.55393	0.01714
4958.62526	0.01715
4956.69658	0.01716
4954.76791	0.01720
4952.83923	0.01722
4950.91055	0.01723
4948.98188	0.01726
4947.05320	0.01731
4945.12453	0.01735
4943.19585	0.01738
4941.26718	0.01742
4939.33850	0.01746
4937.40982	0.01749
4935.48115	0.01751
4933.55247	0.01755
4931.62380	0.01760
4929.69512	0.01762
4927.76645	0.01760
4925.83777	0.01760
4923.90909	0.01761
4921.98042	0.01765
4920.05174	0.01769
4918.12307	0.01773
4916.19439	0.01777
4914.26572	0.01780
4912.33704	0.01782
4910.40836	0.01784
4908.47969	0.01787
4906.55101	0.01791
4904.62234	0.01794
4902.69366	0.01796
4900.76499	0.01800
4898.83631	0.01803
4896.90763	0.01804
4894.97896	0.01806
4893.05028	0.01810
4891.12161	0.01816
4889.19293	0.01821
4887.26426	0.01823
4885.33558	0.01824
4883.40690	0.01826
4881.47823	0.01829
4879.54955	0.01834
4877.62088	0.01839
4875.69220	0.01842
4873.76353	0.01843
4871.83485	0.01844
4869.90617	0.01847
4867.97750	0.01849
4866.04882	0.01849
4864.12015	0.01850
4862.19147	0.01855
4860.26280	0.01859
4858.33412	0.01862
4856.40544	0.01866
4854.47677	0.01872
4852.54809	0.01876
4850.61942	0.01879
4848.69074	0.01881
4846.76207	0.01884
4844.83339	0.01887
4842.90471	0.01891
4840.97604	0.01896
4839.04736	0.01901
4837.11869	0.01904
4835.19001	0.01906
4833.26134	0.01907
4831.33266	0.01908
4829.40398	0.01909
4827.47531	0.01910
4825.54663	0.01911
4823.61796	0.01915
4821.68928	0.01920
4819.76061	0.01923
4817.83193	0.01925
4815.90325	0.01926
4813.97458	0.01929
4812.04590	0.01935
4810.11723	0.01941
4808.18855	0.01945
4806.25988	0.01948
4804.33120	0.01950
4802.40252	0.01953
4800.47385	0.01956
4798.54517	0.01961
4796.61650	0.01963
4794.68782	0.01964
4792.75915	0.01967
4790.83047	0.01972
4788.90179	0.01979
4786.97312	0.01984
4785.04444	0.01987
4783.11577	0.01987
4781.18709	0.01989
4779.25842	0.01993
4777.32974	0.01998
4775.40106	0.02002
4773.47239	0.02003
4771.54371	0.02005
4769.61504	0.02007
4767.68636	0.02010
4765.75769	0.02012
4763.82901	0.02015
4761.90033	0.02022
4759.97166	0.02029
4758.04298	0.02033
4756.11431	0.02034
4754.18563	0.02037
4752.25696	0.02041
4750.32828	0.02042
4748.39960	0.02044
4746.47093	0.02047
4744.54225	0.02052
4742.61358	0.02054
4740.68490	0.02059
4738.75623	0.02065
4736.82755	0.02070
4734.89887	0.02074
4732.97020	0.02077
4731.04152	0.02080
4729.11285	0.02079
4727.18417	0.02077
4725.25550	0.02079
4723.32682	0.02086
4721.39814	0.02093
4719.46947	0.02098
4717.54079	0.02100
4715.61212	0.02103
4713.68344	0.02107
4711.75477	0.02110
4709.82609	0.02112
4707.89741	0.02117
4705.96874	0.02121
4704.04006	0.02123
4702.11139	0.02124
4700.18271	0.02129
4698.25404	0.02135
4696.32536	0.02139
4694.39668	0.02141
4692.46801	0.02145
4690.53933	0.02151
4688.61066	0.02151
4686.68198	0.02149
4684.75331	0.02154
4682.82463	0.02163
4680.89595	0.02170
4678.96728	0.02174
4677.03860	0.02177
4675.10993	0.02178
4673.18125	0.02181
4671.25258	0.02186
4669.32390	0.02189
4667.39522	0.02190
4665.46655	0.02191
4663.53787	0.02194
4661.60920	0.02198
4659.68052	0.02203
4657.75185	0.02206
4655.82317	0.02209
4653.89449	0.02215
4651.96582	0.02221
4650.03714	0.02226
4648.10847	0.02227
4646.17979	0.02228
4644.25112	0.02232
4642.32244	0.02237
4640.39376	0.02240
4638.46509	0.02244
4636.53641	0.02248
4634.60774	0.02250
4632.67906	0.02255
4630.75039	0.02260
4628.82171	0.02263
4626.89303	0.02266
4624.96436	0.02270
4623.03568	0.02272
4621.10701	0.02275
4619.17833	0.02280
4617.24966	0.02286
4615.32098	0.02288
4613.39230	0.02290
4611.46363	0.02297
4609.53495	0.02305
4607.60628	0.02310
4605.67760	0.02311
4603.74893	0.02314
4601.82025	0.02319
4599.89157	0.02323
4597.96290	0.02324
4596.03422	0.02326
4594.10555	0.02328
4592.17687	0.02331
4590.24820	0.02334
4588.31952	0.02337
4586.39084	0.02341
4584.46217	0.02347
4582.53349	0.02352
4580.60482	0.02359
4578.67614	0.02363
4576.74747	0.02365
4574.81879	0.02369
4572.89011	0.02373
4570.96144	0.02378
4569.03276	0.02385
4567.10409	0.02392
4565.17541	0.02398
4563.24674	0.02401
4561.31806	0.02400
4559.38938	0.02397
4557.46071	0.02400
4555.53203	0.02408
4553.60336	0.02414
4551.67468	0.02418
4549.74601	0.02422
4547.81733	0.02426
4545.88865	0.02428
4543.95998	0.02430
4542.03130	0.02435
4540.10263	0.02439
4538.17395	0.02442
4536.24528	0.02444
4534.31660	0.02449
4532.38792	0.02456
4530.45925	0.02463
4528.53057	0.02468
4526.60190	0.02472
4524.67322	0.02477
4522.74455	0.02480
4520.81587	0.02486
4518.88719	0.02493
4516.95852	0.02497
4515.02984	0.02497
4513.10117	0.02498
4511.17249	0.02503
4509.24382	0.02511
4507.31514	0.02516
4505.38646	0.02519
4503.45779	0.02526
4501.52911	0.02535
4499.60044	0.02538
4497.67176	0.02537
4495.74309	0.02537
4493.81441	0.02539
4491.88573	0.02541
4489.95706	0.02544
4488.02838	0.02549
4486.09971	0.02552
4484.17103	0.02555
4482.24236	0.02562
4480.31368	0.02570
4478.38500	0.02574
4476.45633	0.02576
4474.52765	0.02581
4472.59898	0.02590
4470.67030	0.02599
4468.74163	0.02603
4466.81295	0.02603
4464.88427	0.02605
4462.95560	0.02611
4461.02692	0.02617
4459.09825	0.02621
4457.16957	0.02624
4455.24090	0.02629
4453.31222	0.02635
4451.38354	0.02642
4449.45487	0.02649
4447.52619	0.02653
4445.59752	0.02656
4443.66884	0.02658
4441.74017	0.02659
4439.81149	0.02660
4437.88281	0.02664
4435.95414	0.02670
4434.02546	0.02678
4432.09679	0.02685
4430.16811	0.02690
4428.23944	0.02694
4426.31076	0.02698
4424.38208	0.02700
4422.45341	0.02704
4420.52473	0.02713
4418.59606	0.02722
4416.66738	0.02728
4414.73871	0.02731
4412.81003	0.02735
4410.88135	0.02738
4408.95268	0.02742
4407.02400	0.02749
4405.09533	0.02757
4403.16665	0.02759
4401.23798	0.02761
4399.30930	0.02766
4397.38062	0.02774
4395.45195	0.02782
4393.52327	0.02789
4391.59460	0.02791
4389.66592	0.02791
4387.73725	0.02791
4385.80857	0.02794
4383.87989	0.02800
4381.95122	0.02809
4380.02254	0.02818
4378.09387	0.02826
4376.16519	0.02828
4374.23652	0.02829
4372.30784	0.02834
4370.37916	0.02843
4368.45049	0.02849
4366.52181	0.02850
4364.59314	0.02853
4362.66446	0.02859
4360.73579	0.02864
4358.80711	0.02870
4356.87843	0.02877
4354.94976	0.02882
4353.02108	0.02885
4351.09241	0.02887
4349.16373	0.02893
4347.23506	0.02897
4345.30638	0.02899
4343.37770	0.02903
4341.44903	0.02911
4339.52035	0.02919
4337.59168	0.02924
4335.66300	0.02927
4333.73433	0.02933
4331.80565	0.02941
4329.87697	0.02948
4327.94830	0.02954
4326.01962	0.02961
4324.09095	0.02967
4322.16227	0.02970
4320.23360	0.02974
4318.30492	0.02980
4316.37624	0.02984
4314.44757	0.02988
4312.51889	0.02993
4310.59022	0.02999
4308.66154	0.03005
4306.73287	0.03009
4304.80419	0.03014
4302.87551	0.03021
4300.94684	0.03030
4299.01816	0.03038
4297.08949	0.03042
4295.16081	0.03044
4293.23214	0.03048
4291.30346	0.03056
4289.37478	0.03063
4287.44611	0.03069
4285.51743	0.03073
4283.58876	0.03079
4281.66008	0.03085
4279.73141	0.03092
4277.80273	0.03098
4275.87405	0.03103
4273.94538	0.03107
4272.01670	0.03110
4270.08803	0.03114
4268.15935	0.03119
4266.23068	0.03124
4264.30200	0.03131
4262.37332	0.03139
4260.44465	0.03147
4258.51597	0.03151
4256.58730	0.03154
4254.65862	0.03159
4252.72995	0.03165
4250.80127	0.03174
4248.87259	0.03184
4246.94392	0.03190
4245.01524	0.03194
4243.08657	0.03199
4241.15789	0.03207
4239.22922	0.03214
4237.30054	0.03218
4235.37186	0.03223
4233.44319	0.03230
4231.51451	0.03236
4229.58584	0.03240
4227.65716	0.03244
4225.72849	0.03247
4223.79981	0.03251
4221.87113	0.03260
4219.94246	0.03271
4218.01378	0.03279
4216.08511	0.03283
4214.15643	0.03285
4212.22776	0.03291
4210.29908	0.03299
4208.37040	0.03304
4206.44173	0.03307
4204.51305	0.03312
4202.58438	0.03319
4200.65570	0.03329
4198.72703	0.03338
4196.79835	0.03342
4194.86968	0.03344
4192.94100	0.03350
4191.01232	0.03358
4189.08365	0.03364
4187.15497	0.03367
4185.22630	0.03372
4183.29762	0.03381
4181.36895	0.03391
4179.44027	0.03399
4177.51159	0.03405
4175.58292	0.03410
4173.65424	0.03416
4171.72557	0.03424
4169.79689	0.03430
4167.86822	0.03437
4165.93954	0.03444
4164.01086	0.03451
4162.08219	0.03456
4160.15351	0.03461
4158.22484	0.03467
4156.29616	0.03475
4154.36749	0.03480
4152.43881	0.03483
4150.51013	0.03490
4148.58146	0.03502
4146.65278	0.03511
4144.72411	0.03517
4142.79543	0.03524
4140.86676	0.03530
4138.93808	0.03535
4137.00940	0.03541
4135.08073	0.03548
4133.15205	0.03553
4131.22338	0.03561
4129.29470	0.03571
4127.36603	0.03578
4125.43735	0.03581
4123.50867	0.03585
4121.58000	0.03591
4119.65132	0.03599
4117.72265	0.03607
4115.79397	0.03615
4113.86530	0.03620
4111.93662	0.03626
4110.00794	0.03635
4108.07927	0.03642
4106.15059	0.03648
4104.22192	0.03654
4102.29324	0.03662
4100.36457	0.03668
4098.43589	0.03672
4096.50721	0.03677
4094.57854	0.03686
4092.64986	0.03694
4090.72119	0.03703
4088.79251	0.03714
4086.86384	0.03724
4084.93516	0.03730
4083.00648	0.03733
4081.07781	0.03740
4079.14913	0.03750
4077.22046	0.03760
4075.29178	0.03764
4073.36311	0.03769
4071.43443	0.03777
4069.50575	0.03784
4067.57708	0.03788
4065.64840	0.03795
4063.71973	0.03802
4061.79105	0.03809
4059.86238	0.03817
4057.93370	0.03827
4056.00502	0.03834
4054.07635	0.03837
4052.14767	0.03842
4050.21900	0.03852
4048.29032	0.03862
4046.36165	0.03870
4044.43297	0.03876
4042.50429	0.03883
4040.57562	0.03887
4038.64694	0.03893
4036.71827	0.03902
4034.78959	0.03912
4032.86092	0.03921
4030.93224	0.03928
4029.00356	0.03932
4027.07489	0.03935
4025.14621	0.03940
4023.21754	0.03949
4021.28886	0.03956
4019.36019	0.03961
4017.43151	0.03970
4015.50283	0.03981
4013.57416	0.03990
4011.64548	0.03996
4009.71681	0.04003
4007.78813	0.04010
4005.85946	0.04019
4003.93078	0.04027
4002.00210	0.04036
4000.07343	0.04045
3998.14475	0.04052
3996.21608	0.04060
3994.28740	0.04067
3992.35873	0.04072
3990.43005	0.04078
3988.50137	0.04085
3986.57270	0.04091
3984.64402	0.04097
3982.71535	0.04107
3980.78667	0.04118
3978.85800	0.04129
3976.92932	0.04138
3975.00064	0.04143
3973.07197	0.04148
3971.14329	0.04158
3969.21462	0.04167
3967.28594	0.04175
3965.35727	0.04184
3963.42859	0.04193
3961.49991	0.04201
3959.57124	0.04210
3957.64256	0.04219
3955.71389	0.04226
3953.78521	0.04230
3951.85654	0.04234
3949.92786	0.04240
3947.99918	0.04249
3946.07051	0.04258
3944.14183	0.04263
3942.21316	0.04270
3940.28448	0.04283
3938.35581	0.04296
3936.42713	0.04302
3934.49845	0.04301
3932.56978	0.04301
3930.64110	0.04314
3928.71243	0.04331
3926.78375	0.04337
3924.85508	0.04340
3922.92640	0.04348
3920.99772	0.04352
3919.06905	0.04351
3917.14037	0.04358
3915.21170	0.04375
3913.28302	0.04390
3911.35435	0.04401
3909.42567	0.04410
3907.49699	0.04413
3905.56832	0.04410
3903.63964	0.04408
3901.71097	0.04411
3899.78229	0.04422
3897.85362	0.04443
3895.92494	0.04463
3893.99626	0.04470
3892.06759	0.04472
3890.13891	0.04483
3888.21024	0.04495
3886.28156	0.04498
3884.35289	0.04502
3882.42421	0.04506
3880.49553	0.04513
3878.56686	0.04530
3876.63818	0.04546
3874.70951	0.04553
3872.78083	0.04557
3870.85216	0.04561
3868.92348	0.04569
3866.99480	0.04576
3865.06613	0.04579
3863.13745	0.04590
3861.20878	0.04610
3859.28010	0.04622
3857.35143	0.04612
3855.42275	0.04583
3853.49407	0.04576
3851.56540	0.04613
3849.63672	0.04656
3847.70805	0.04678
3845.77937	0.04685
3843.85070	0.04690
3841.92202	0.04696
3839.99334	0.04696
3838.06467	0.04695
3836.13599	0.04703
3834.20732	0.04719
3832.27864	0.04736
3830.34997	0.04753
3828.42129	0.04766
3826.49261	0.04775
3824.56394	0.04783
3822.63526	0.04783
3820.70659	0.04787
3818.77791	0.04796
3816.84924	0.04803
3814.92056	0.04817
3812.99188	0.04841
3811.06321	0.04855
3809.13453	0.04858
3807.20586	0.04861
3805.27718	0.04867
3803.34851	0.04865
3801.41983	0.04862
3799.49115	0.04876
3797.56248	0.04900
3795.63380	0.04921
3793.70513	0.04940
3791.77645	0.04953
3789.84778	0.04963
3787.91910	0.04970
3785.99042	0.04975
3784.06175	0.04980
3782.13307	0.04983
3780.20440	0.04988
3778.27572	0.05001
3776.34705	0.05018
3774.41837	0.05030
3772.48969	0.05035
3770.56102	0.05036
3768.63234	0.05039
3766.70367	0.05049
3764.77499	0.05060
3762.84632	0.05070
3760.91764	0.05074
3758.98896	0.05081
3757.06029	0.05092
3755.13161	0.05090
3753.20294	0.05076
3751.27426	0.05078
3749.34559	0.05096
3747.41691	0.05093
3745.48823	0.05069
3743.55956	0.05084
3741.63088	0.05134
3739.70221	0.05160
3737.77353	0.05156
3735.84486	0.05157
3733.91618	0.05177
3731.98750	0.05202
3730.05883	0.05220
3728.13015	0.05228
3726.20148	0.05231
3724.27280	0.05237
3722.34413	0.05251
3720.41545	0.05272
3718.48677	0.05290
3716.55810	0.05301
3714.62942	0.05304
3712.70075	0.05304
3710.77207	0.05310
3708.84340	0.05326
3706.91472	0.05343
3704.98604	0.05354
3703.05737	0.05357
3701.12869	0.05364
3699.20002	0.05379
3697.27134	0.05396
3695.34267	0.05407
3693.41399	0.05405
3691.48531	0.05394
3689.55664	0.05392
3687.62796	0.05409
3685.69929	0.05436
3683.77061	0.05455
3681.84194	0.05465
3679.91326	0.05467
3677.98458	0.05460
3676.05591	0.05457
3674.12723	0.05472
3672.19856	0.05486
3670.26988	0.05493
3668.34121	0.05508
3666.41253	0.05532
3664.48385	0.05550
3662.55518	0.05559
3660.62650	0.05564
3658.69783	0.05569
3656.76915	0.05576
3654.84048	0.05582
3652.91180	0.05575
3650.98312	0.05553
3649.05445	0.05541
3647.12577	0.05553
3645.19710	0.05584
3643.26842	0.05615
3641.33975	0.05638
3639.41107	0.05653
3637.48239	0.05663
3635.55372	0.05667
3633.62504	0.05666
3631.69637	0.05655
3629.76769	0.05648
3627.83902	0.05663
3625.91034	0.05691
3623.98166	0.05708
3622.05299	0.05707
3620.12431	0.05704
3618.19564	0.05713
3616.26696	0.05723
3614.33829	0.05723
3612.40961	0.05720
3610.48093	0.05724
3608.55226	0.05739
3606.62358	0.05764
3604.69491	0.05783
3602.76623	0.05790
3600.83756	0.05792
3598.90888	0.05798
3596.98020	0.05806
3595.05153	0.05811
3593.12285	0.05814
3591.19418	0.05818
3589.26550	0.05819
3587.33683	0.05824
3585.40815	0.05840
3583.47947	0.05858
3581.55080	0.05872
3579.62212	0.05883
3577.69345	0.05890
3575.76477	0.05893
3573.83610	0.05897
3571.90742	0.05901
3569.97874	0.05898
3568.05007	0.05892
3566.12139	0.05900
3564.19272	0.05922
3562.26404	0.05939
3560.33537	0.05948
3558.40669	0.05955
3556.47801	0.05963
3554.54934	0.05968
3552.62066	0.05974
3550.69199	0.05986
3548.76331	0.05995
3546.83464	0.06000
3544.90596	0.06004
3542.97728	0.06010
3541.04861	0.06017
3539.11993	0.06025
3537.19126	0.06033
3535.26258	0.06042
3533.33391	0.06048
3531.40523	0.06050
3529.47655	0.06050
3527.54788	0.06050
3525.61920	0.06054
3523.69053	0.06060
3521.76185	0.06067
3519.83318	0.06072
3517.90450	0.06074
3515.97582	0.06079
3514.04715	0.06088
3512.11847	0.06097
3510.18980	0.06103
3508.26112	0.06104
3506.33245	0.06102
3504.40377	0.06104
3502.47509	0.06110
3500.54642	0.06115
3498.61774	0.06112
3496.68907	0.06108
3494.76039	0.06111
3492.83172	0.06119
3490.90304	0.06123
3488.97436	0.06124
3487.04569	0.06125
3485.11701	0.06129
3483.18834	0.06135
3481.25966	0.06140
3479.33099	0.06147
3477.40231	0.06156
3475.47363	0.06165
3473.54496	0.06173
3471.61628	0.06180
3469.68761	0.06185
3467.75893	0.06193
3465.83026	0.06203
3463.90158	0.06212
3461.97290	0.06222
3460.04423	0.06234
3458.11555	0.06246
3456.18688	0.06255
3454.25820	0.06264
3452.32953	0.06276
3450.40085	0.06288
3448.47217	0.06295
3446.54350	0.06303
3444.61482	0.06313
3442.68615	0.06323
3440.75747	0.06334
3438.82880	0.06350
3436.90012	0.06369
3434.97144	0.06389
3433.04277	0.06409
3431.11409	0.06430
3429.18542	0.06447
3427.25674	0.06463
3425.32807	0.06481
3423.39939	0.06500
3421.47071	0.06519
3419.54204	0.06539
3417.61336	0.06558
3415.68469	0.06571
3413.75601	0.06583
3411.82734	0.06602
3409.89866	0.06623
3407.96998	0.06641
3406.04131	0.06656
3404.11263	0.06667
3402.18396	0.06680
3400.25528	0.06694
3398.32661	0.06709
3396.39793	0.06718
3394.46925	0.06727
3392.54058	0.06739
3390.61190	0.06756
3388.68323	0.06773
3386.75455	0.06791
3384.82588	0.06807
3382.89720	0.06818
3380.96852	0.06828
3379.03985	0.06840
3377.11117	0.06855
3375.18250	0.06868
3373.25382	0.06879
3371.32515	0.06891
3369.39647	0.06907
3367.46779	0.06926
3365.53912	0.06942
3363.61044	0.06949
3361.68177	0.06952
3359.75309	0.06959
3357.82442	0.06974
3355.89574	0.06990
3353.96706	0.07004
3352.03839	0.07016
3350.10971	0.07027
3348.18104	0.07040
3346.25236	0.07056
3344.32369	0.07070
3342.39501	0.07080
3340.46633	0.07091
3338.53766	0.07104
3336.60898	0.07118
3334.68031	0.07136
3332.75163	0.07151
3330.82296	0.07162
3328.89428	0.07171
3326.96560	0.07182
3325.03693	0.07194
3323.10825	0.07209
3321.17958	0.07225
3319.25090	0.07236
3317.32223	0.07247
3315.39355	0.07261
3313.46487	0.07275
3311.53620	0.07289
3309.60752	0.07304
3307.67885	0.07321
3305.75017	0.07336
3303.82150	0.07347
3301.89282	0.07358
3299.96414	0.07369
3298.03547	0.07380
3296.10679	0.07396
3294.17812	0.07414
3292.24944	0.07428
3290.32077	0.07441
3288.39209	0.07456
3286.46341	0.07470
3284.53474	0.07481
3282.60606	0.07488
3280.67739	0.07495
3278.74871	0.07509
3276.82004	0.07530
3274.89136	0.07551
3272.96268	0.07567
3271.03401	0.07580
3269.10533	0.07592
3267.17666	0.07601
3265.24798	0.07611
3263.31931	0.07625
3261.39063	0.07641
3259.46195	0.07655
3257.53328	0.07668
3255.60460	0.07686
3253.67593	0.07704
3251.74725	0.07715
3249.81858	0.07723
3247.88990	0.07735
3245.96122	0.07748
3244.03255	0.07761
3242.10387	0.07775
3240.17520	0.07792
3238.24652	0.07808
3236.31785	0.07821
3234.38917	0.07834
3232.46049	0.07850
3230.53182	0.07866
3228.60314	0.07882
3226.67447	0.07898
3224.74579	0.07913
3222.81712	0.07922
3220.88844	0.07930
3218.95976	0.07943
3217.03109	0.07958
3215.10241	0.07971
3213.17374	0.07987
3211.24506	0.08008
3209.31639	0.08023
3207.38771	0.08028
3205.45903	0.08034
3203.53036	0.08048
3201.60168	0.08064
3199.67301	0.08079
3197.74433	0.08097
3195.81566	0.08119
3193.88698	0.08141
3191.95830	0.08157
3190.02963	0.08170
3188.10095	0.08180
3186.17228	0.08190
3184.24360	0.08205
3182.31493	0.08222
3180.38625	0.08237
3178.45757	0.08250
3176.52890	0.08263
3174.60022	0.08278
3172.67155	0.08294
3170.74287	0.08313
3168.81420	0.08334
3166.88552	0.08349
3164.95684	0.08358
3163.02817	0.08370
3161.09949	0.08385
3159.17082	0.08398
3157.24214	0.08410
3155.31347	0.08424
3153.38479	0.08440
3151.45611	0.08456
3149.52744	0.08469
3147.59876	0.08482
3145.67009	0.08496
3143.74141	0.08511
3141.81274	0.08525
3139.88406	0.08543
3137.95538	0.08564
3136.02671	0.08581
3134.09803	0.08591
3132.16936	0.08598
3130.24068	0.08606
3128.31201	0.08616
3126.38333	0.08630
3124.45465	0.08651
3122.52598	0.08673
3120.59730	0.08691
3118.66863	0.08704
3116.73995	0.08719
3114.81128	0.08733
3112.88260	0.08746
3110.95392	0.08757
3109.02525	0.08770
3107.09657	0.08786
3105.16790	0.08800
3103.23922	0.08813
3101.31055	0.08830
3099.38187	0.08845
3097.45319	0.08856
3095.52452	0.08869
3093.59584	0.08886
3091.66717	0.08901
3089.73849	0.08916
3087.80982	0.08931
3085.88114	0.08943
3083.95246	0.08955
3082.02379	0.08969
3080.09511	0.08985
3078.16644	0.09001
3076.23776	0.09016
3074.30909	0.09032
3072.38041	0.09046
3070.45173	0.09058
3068.52306	0.09068
3066.59438	0.09078
3064.66571	0.09091
3062.73703	0.09109
3060.80836	0.09129
3058.87968	0.09145
3056.95100	0.09158
3055.02233	0.09166
3053.09365	0.09177
3051.16498	0.09194
3049.23630	0.09214
3047.30763	0.09231
3045.37895	0.09245
3043.45027	0.09259
3041.52160	0.09275
3039.59292	0.09290
3037.66425	0.09304
3035.73557	0.09318
3033.80690	0.09330
3031.87822	0.09342
3029.94954	0.09356
3028.02087	0.09373
3026.09219	0.09391
3024.16352	0.09405
3022.23484	0.09417
3020.30617	0.09429
3018.37749	0.09436
3016.44881	0.09446
3014.52014	0.09464
3012.59146	0.09485
3010.66279	0.09502
3008.73411	0.09517
3006.80544	0.09534
3004.87676	0.09549
3002.94808	0.09564
3001.01941	0.09574
2999.09073	0.09581
2997.16206	0.09589
2995.23338	0.09603
2993.30471	0.09622
2991.37603	0.09639
2989.44735	0.09653
2987.51868	0.09663
2985.59000	0.09675
2983.66133	0.09686
2981.73265	0.09694
2979.80398	0.09698
2977.87530	0.09699
2975.94662	0.09700
2974.01795	0.09701
2972.08927	0.09702
2970.16060	0.09698
2968.23192	0.09694
2966.30325	0.09698
2964.37457	0.09707
2962.44589	0.09716
2960.51722	0.09726
2958.58854	0.09742
2956.65987	0.09762
2954.73119	0.09782
2952.80252	0.09801
2950.87384	0.09818
2948.94516	0.09837
2947.01649	0.09853
2945.08781	0.09858
2943.15914	0.09857
2941.23046	0.09860
2939.30179	0.09864
2937.37311	0.09864
2935.44443	0.09863
2933.51576	0.09862
2931.58708	0.09860
2929.65841	0.09859
2927.72973	0.09859
2925.80106	0.09860
2923.87238	0.09867
2921.94370	0.09872
2920.01503	0.09878
2918.08635	0.09892
2916.15768	0.09919
2914.22900	0.09961
2912.30033	0.10009
2910.37165	0.10059
2908.44297	0.10101
2906.51430	0.10128
2904.58562	0.10149
2902.65695	0.10172
2900.72827	0.10197
2898.79960	0.10221
2896.87092	0.10245
2894.94224	0.10264
2893.01357	0.10277
2891.08489	0.10291
2889.15622	0.10312
2887.22754	0.10338
2885.29887	0.10360
2883.37019	0.10375
2881.44151	0.10385
2879.51284	0.10395
2877.58416	0.10407
2875.65549	0.10421
2873.72681	0.10437
2871.79814	0.10456
2869.86946	0.10475
2867.94078	0.10488
2866.01211	0.10496
2864.08343	0.10502
2862.15476	0.10508
2860.22608	0.10516
2858.29741	0.10520
2856.36873	0.10518
2854.44005	0.10514
2852.51138	0.10514
2850.58270	0.10527
2848.65403	0.10556
2846.72535	0.10597
2844.79668	0.10641
2842.86800	0.10679
2840.93932	0.10712
2839.01065	0.10743
2837.08197	0.10769
2835.15330	0.10790
2833.22462	0.10808
2831.29595	0.10828
2829.36727	0.10852
2827.43859	0.10874
2825.50992	0.10889
2823.58124	0.10904
2821.65257	0.10923
2819.72389	0.10942
2817.79522	0.10957
2815.86654	0.10972
2813.93786	0.10987
2812.00919	0.11005
2810.08051	0.11027
2808.15184	0.11047
2806.22316	0.11058
2804.29449	0.11068
2802.36581	0.11086
2800.43713	0.11106
2798.50846	0.11123
2796.57978	0.11141
2794.65111	0.11162
2792.72243	0.11182
2790.79376	0.11197
2788.86508	0.11208
2786.93640	0.11222
2785.00773	0.11238
2783.07905	0.11252
2781.15038	0.11268
2779.22170	0.11287
2777.29303	0.11306
2775.36435	0.11319
2773.43567	0.11329
2771.50700	0.11343
2769.57832	0.11358
2767.64965	0.11369
2765.72097	0.11382
2763.79230	0.11402
2761.86362	0.11422
2759.93494	0.11435
2758.00627	0.11446
2756.07759	0.11459
2754.14892	0.11475
2752.22024	0.11493
2750.29157	0.11515
2748.36289	0.11536
2746.43421	0.11549
2744.50554	0.11559
2742.57686	0.11572
2740.64819	0.11588
2738.71951	0.11601
2736.79084	0.11614
2734.86216	0.11628
2732.93348	0.11643
2731.00481	0.11659
2729.07613	0.11675
2727.14746	0.11692
2725.21878	0.11707
2723.29011	0.11720
2721.36143	0.11733
2719.43275	0.11748
2717.50408	0.11767
2715.57540	0.11785
2713.64673	0.11800
2711.71805	0.11813
2709.78938	0.11826
2707.86070	0.11838
2705.93202	0.11853
2704.00335	0.11870
2702.07467	0.11888
2700.14600	0.11905
2698.21732	0.11920
2696.28865	0.11936
2694.35997	0.11951
2692.43129	0.11965
2690.50262	0.11977
2688.57394	0.11988
2686.64527	0.12001
2684.71659	0.12016
2682.78792	0.12032
2680.85924	0.12049
2678.93056	0.12065
2677.00189	0.12076
2675.07321	0.12087
2673.14454	0.12103
2671.21586	0.12123
2669.28719	0.12138
2667.35851	0.12149
2665.42983	0.12163
2663.50116	0.12182
2661.57248	0.12203
2659.64381	0.12217
2657.71513	0.12227
2655.78646	0.12240
2653.85778	0.12264
2651.92910	0.12289
2650.00043	0.12304
2648.07175	0.12313
2646.14308	0.12323
2644.21440	0.12339
2642.28573	0.12357
2640.35705	0.12374
2638.42837	0.12390
2636.49970	0.12406
2634.57102	0.12423
2632.64235	0.12439
2630.71367	0.12457
2628.78500	0.12476
2626.85632	0.12498
2624.92764	0.12518
2622.99897	0.12529
2621.07029	0.12536
2619.14162	0.12546
2617.21294	0.12562
2615.28427	0.12579
2613.35559	0.12600
2611.42691	0.12624
2609.49824	0.12643
2607.56956	0.12653
2605.64089	0.12661
2603.71221	0.12674
2601.78354	0.12693
2599.85486	0.12713
2597.92618	0.12731
2595.99751	0.12746
2594.06883	0.12763
2592.14016	0.12780
2590.21148	0.12795
2588.28281	0.12809
2586.35413	0.12827
2584.42545	0.12846
2582.49678	0.12864
2580.56810	0.12878
2578.63943	0.12891
2576.71075	0.12902
2574.78208	0.12913
2572.85340	0.12928
2570.92472	0.12943
2568.99605	0.12961
2567.06737	0.12979
2565.13870	0.12996
2563.21002	0.13015
2561.28135	0.13034
2559.35267	0.13047
2557.42399	0.13059
2555.49532	0.13073
2553.56664	0.13088
2551.63797	0.13105
2549.70929	0.13124
2547.78062	0.13141
2545.85194	0.13158
2543.92326	0.13173
2541.99459	0.13184
2540.06591	0.13195
2538.13724	0.13209
2536.20856	0.13225
2534.27989	0.13241
2532.35121	0.13254
2530.42253	0.13268
2528.49386	0.13284
2526.56518	0.13300
2524.63651	0.13317
2522.70783	0.13337
2520.77916	0.13356
2518.85048	0.13369
2516.92181	0.13386
2514.99313	0.13407
2513.06445	0.13427
2511.13578	0.13446
2509.20710	0.13462
2507.27843	0.13474
2505.34975	0.13485
2503.42108	0.13501
2501.49240	0.13520
2499.56372	0.13538
2497.63505	0.13557
2495.70637	0.13577
2493.77770	0.13596
2491.84902	0.13611
2489.92035	0.13625
2487.99167	0.13643
2486.06299	0.13662
2484.13432	0.13680
2482.20564	0.13699
2480.27697	0.13719
2478.34829	0.13736
2476.41962	0.13749
2474.49094	0.13763
2472.56226	0.13776
2470.63359	0.13788
2468.70491	0.13804
2466.77624	0.13826
2464.84756	0.13848
2462.91889	0.13868
2460.99021	0.13882
2459.06153	0.13894
2457.13286	0.13910
2455.20418	0.13926
2453.27551	0.13947
2451.34683	0.13972
2449.41816	0.13991
2447.48948	0.14000
2445.56080	0.14014
2443.63213	0.14037
2441.70345	0.14056
2439.77478	0.14069
2437.84610	0.14085
2435.91743	0.14101
2433.98875	0.14118
2432.06007	0.14135
2430.13140	0.14151
2428.20272	0.14168
2426.27405	0.14190
2424.34537	0.14212
2422.41670	0.14229
2420.48802	0.14242
2418.55934	0.14256
2416.63067	0.14272
2414.70199	0.14286
2412.77332	0.14298
2410.84464	0.14312
2408.91597	0.14328
2406.98729	0.14345
2405.05861	0.14361
2403.12994	0.14376
2401.20126	0.14393
2399.27259	0.14413
2397.34391	0.14431
2395.41524	0.14447
2393.48656	0.14463
2391.55788	0.14478
2389.62921	0.14492
2387.70053	0.14504
2385.77186	0.14520
2383.84318	0.14543
2381.91451	0.14563
2379.98583	0.14572
2378.05715	0.14574
2376.12848	0.14575
2374.19980	0.14576
2372.27113	0.14573
2370.34245	0.14574
2368.41378	0.14580
2366.48510	0.14590
2364.55642	0.14601
2362.62775	0.14611
2360.69907	0.14622
2358.77040	0.14639
2356.84172	0.14666
2354.91305	0.14698
2352.98437	0.14734
2351.05569	0.14774
2349.12702	0.14803
2347.19834	0.14809
2345.26967	0.14804
2343.34099	0.14807
2341.41232	0.14821
2339.48364	0.14838
2337.55496	0.14855
2335.62629	0.14869
2333.69761	0.14877
2331.76894	0.14887
2329.84026	0.14906
2327.91159	0.14931
2325.98291	0.14955
2324.05423	0.14979
2322.12556	0.14999
2320.19688	0.15019
2318.26821	0.15044
2316.33953	0.15072
2314.41086	0.15095
2312.48218	0.15115
2310.55350	0.15135
2308.62483	0.15154
2306.69615	0.15176
2304.76748	0.15201
2302.83880	0.15224
2300.91013	0.15241
2298.98145	0.15256
2297.05277	0.15277
2295.12410	0.15301
2293.19542	0.15323
2291.26675	0.15338
2289.33807	0.15349
2287.40940	0.15362
2285.48072	0.15377
2283.55204	0.15395
2281.62337	0.15417
2279.69469	0.15438
2277.76602	0.15452
2275.83734	0.15460
2273.90867	0.15471
2271.97999	0.15490
2270.05131	0.15507
2268.12264	0.15520
2266.19396	0.15534
2264.26529	0.15553
2262.33661	0.15571
2260.40794	0.15582
2258.47926	0.15595
2256.55058	0.15620
2254.62191	0.15650
2252.69323	0.15673
2250.76456	0.15684
2248.83588	0.15690
2246.90721	0.15702
2244.97853	0.15722
2243.04985	0.15745
2241.12118	0.15765
2239.19250	0.15783
2237.26383	0.15795
2235.33515	0.15805
2233.40648	0.15820
2231.47780	0.15840
2229.54912	0.15860
2227.62045	0.15879
2225.69177	0.15894
2223.76310	0.15910
2221.83442	0.15930
2219.90575	0.15949
2217.97707	0.15964
2216.04839	0.15976
2214.11972	0.15991
2212.19104	0.16008
2210.26237	0.16025
2208.33369	0.16041
2206.40502	0.16060
2204.47634	0.16085
2202.54766	0.16106
2200.61899	0.16117
2198.69031	0.16120
2196.76164	0.16124
2194.83296	0.16133
2192.90429	0.16150
2190.97561	0.16173
2189.04693	0.16195
2187.11826	0.16214
2185.18958	0.16228
2183.26091	0.16241
2181.33223	0.16255
2179.40356	0.16276
2177.47488	0.16303
2175.54620	0.16326
2173.61753	0.16342
2171.68885	0.16352
2169.76018	0.16364
2167.83150	0.16382
2165.90283	0.16402
2163.97415	0.16422
2162.04547	0.16439
2160.11680	0.16451
2158.18812	0.16465
2156.25945	0.16482
2154.33077	0.16501
2152.40210	0.16520
2150.47342	0.16537
2148.54474	0.16553
2146.61607	0.16569
2144.68739	0.16586
2142.75872	0.16603
2140.83004	0.16619
2138.90137	0.16634
2136.97269	0.16652
2135.04401	0.16673
2133.11534	0.16692
2131.18666	0.16709
2129.25799	0.16725
2127.32931	0.16740
2125.40064	0.16756
2123.47196	0.16772
2121.54328	0.16782
2119.61461	0.16792
2117.68593	0.16807
2115.75726	0.16827
2113.82858	0.16846
2111.89991	0.16864
2109.97123	0.16886
2108.04255	0.16907
2106.11388	0.16921
2104.18520	0.16932
2102.25653	0.16949
2100.32785	0.16973
2098.39918	0.17000
2096.47050	0.17021
2094.54182	0.17034
2092.61315	0.17044
2090.68447	0.17057
2088.75580	0.17074
2086.82712	0.17095
2084.89845	0.17118
2082.96977	0.17133
2081.04109	0.17145
2079.11242	0.17157
2077.18374	0.17171
2075.25507	0.17187
2073.32639	0.17202
2071.39772	0.17220
2069.46904	0.17240
2067.54036	0.17258
2065.61169	0.17274
2063.68301	0.17290
2061.75434	0.17305
2059.82566	0.17323
2057.89699	0.17343
2055.96831	0.17362
2054.03963	0.17376
2052.11096	0.17391
2050.18228	0.17408
2048.25361	0.17420
2046.32493	0.17430
2044.39626	0.17444
2042.46758	0.17463
2040.53890	0.17487
2038.61023	0.17515
2036.68155	0.17540
2034.75288	0.17555
2032.82420	0.17568
2030.89553	0.17583
2028.96685	0.17598
2027.03817	0.17613
2025.10950	0.17622
2023.18082	0.17628
2021.25215	0.17639
2019.32347	0.17657
2017.39480	0.17680
2015.46612	0.17706
2013.53744	0.17730
2011.60877	0.17749
2009.68009	0.17763
2007.75142	0.17774
2005.82274	0.17790
2003.89407	0.17812
2001.96539	0.17830
2000.03671	0.17845
1998.10804	0.17865
1996.17936	0.17886
1994.25069	0.17899
1992.32201	0.17911
1990.39334	0.17928
1988.46466	0.17942
1986.53598	0.17951
1984.60731	0.17964
1982.67863	0.17982
1980.74996	0.18001
1978.82128	0.18016
1976.89261	0.18027
1974.96393	0.18038
1973.03525	0.18057
1971.10658	0.18075
1969.17790	0.18086
1967.24923	0.18098
1965.32055	0.18118
1963.39188	0.18139
1961.46320	0.18154
1959.53452	0.18168
1957.60585	0.18185
1955.67717	0.18203
1953.74850	0.18222
1951.81982	0.18241
1949.89115	0.18253
1947.96247	0.18259
1946.03379	0.18268
1944.10512	0.18283
1942.17644	0.18301
1940.24777	0.18322
1938.31909	0.18343
1936.39042	0.18363
1934.46174	0.18387
1932.53306	0.18407
1930.60439	0.18420
1928.67571	0.18435
1926.74704	0.18449
1924.81836	0.18453
1922.88969	0.18462
1920.96101	0.18480
1919.03233	0.18491
1917.10366	0.18503
1915.17498	0.18528
1913.24631	0.18553
1911.31763	0.18567
1909.38896	0.18579
1907.46028	0.18599
1905.53160	0.18625
1903.60293	0.18645
1901.67425	0.18658
1899.74558	0.18671
1897.81690	0.18683
1895.88823	0.18694
1893.95955	0.18707
1892.03087	0.18720
1890.10220	0.18734
1888.17352	0.18755
1886.24485	0.18777
1884.31617	0.18798
1882.38750	0.18816
1880.45882	0.18831
1878.53014	0.18845
1876.60147	0.18862
1874.67279	0.18883
1872.74412	0.18887
1870.81544	0.18866
1868.88677	0.18859
1866.95809	0.18892
1865.02941	0.18931
1863.10074	0.18953
1861.17206	0.18975
1859.24339	0.19001
1857.31471	0.19025
1855.38604	0.19047
1853.45736	0.19067
1851.52868	0.19078
1849.60001	0.19090
1847.67133	0.19103
1845.74266	0.19104
1843.81398	0.19107
1841.88531	0.19133
1839.95663	0.19166
1838.02795	0.19189
1836.09928	0.19211
1834.17060	0.19231
1832.24193	0.19235
1830.31325	0.19233
1828.38458	0.19246
1826.45590	0.19265
1824.52722	0.19281
1822.59855	0.19303
1820.66987	0.19330
1818.74120	0.19356
1816.81252	0.19377
1814.88385	0.19390
1812.95517	0.19398
1811.02649	0.19405
1809.09782	0.19422
1807.16914	0.19446
1805.24047	0.19468
1803.31179	0.19475
1801.38312	0.19468
1799.45444	0.19472
1797.52576	0.19489
1795.59709	0.19487
1793.66841	0.19468
1791.73974	0.19484
1789.81106	0.19536
1787.88239	0.19565
1785.95371	0.19559
1784.02503	0.19557
1782.09636	0.19570
1780.16768	0.19590
1778.23901	0.19621
1776.31033	0.19646
1774.38166	0.19646
1772.45298	0.19638
1770.52430	0.19649
1768.59563	0.19672
1766.66695	0.19694
1764.73828	0.19699
1762.80960	0.19687
1760.88093	0.19691
1758.95225	0.19718
1757.02357	0.19737
1755.09490	0.19734
1753.16622	0.19699
1751.23755	0.19663
1749.30887	0.19670
1747.38020	0.19692
1745.45152	0.19699
1743.52284	0.19702
1741.59417	0.19706
1739.66549	0.19710
1737.73682	0.19711
1735.80814	0.19695
1733.87947	0.19697
1731.95079	0.19745
1730.02211	0.19798
1728.09344	0.19826
1726.16476	0.19834
1724.23609	0.19834
1722.30741	0.19838
1720.37874	0.19833
1718.45006	0.19818
1716.52138	0.19824
1714.59271	0.19864
1712.66403	0.19914
1710.73536	0.19944
1708.80668	0.19943
1706.87801	0.19923
1704.94933	0.19901
1703.02065	0.19859
1701.09198	0.19819
1699.16330	0.19850
1697.23463	0.19911
1695.30595	0.19949
1693.37728	0.19979
1691.44860	0.19994
1689.51992	0.19992
1687.59125	0.19980
1685.66257	0.19952
1683.73390	0.19949
1681.80522	0.19992
1679.87655	0.20031
1677.94787	0.20029
1676.01919	0.20006
1674.09052	0.20001
1672.16184	0.20003
1670.23317	0.19997
1668.30449	0.20010
1666.37582	0.20030
1664.44714	0.20023
1662.51846	0.20023
1660.58979	0.20060
1658.66111	0.20089
1656.73244	0.20065
1654.80376	0.20007
1652.87509	0.19989
1650.94641	0.20017
1649.01773	0.20020
1647.08906	0.20020
1645.16038	0.20070
1643.23171	0.20129
1641.30303	0.20157
1639.37436	0.20149
1637.44568	0.20101
1635.51700	0.20070
1633.58833	0.20107
1631.65965	0.20153
1629.73098	0.20156
1627.80230	0.20140
1625.87363	0.20125
1623.94495	0.20097
1622.01627	0.20063
1620.08760	0.20035
1618.15892	0.20028
1616.23025	0.20081
1614.30157	0.20184
1612.37290	0.20262
1610.44422	0.20299
1608.51554	0.20332
1606.58687	0.20366
1604.65819	0.20388
1602.72952	0.20406
1600.80084	0.20428
1598.87217	0.20455
1596.94349	0.20479
1595.01481	0.20496
1593.08614	0.20509
1591.15746	0.20520
1589.22879	0.20533
1587.30011	0.20555
1585.37144	0.20578
1583.44276	0.20597
1581.51408	0.20612
1579.58541	0.20617
1577.65673	0.20610
1575.72806	0.20614
1573.79938	0.20639
1571.87071	0.20656
1569.94203	0.20661
1568.01335	0.20675
1566.08468	0.20696
1564.15600	0.20698
1562.22733	0.20648
1560.29865	0.20575
1558.36998	0.20586
1556.44130	0.20682
1554.51262	0.20761
1552.58395	0.20792
1550.65527	0.20805
1548.72660	0.20812
1546.79792	0.20804
1544.86925	0.20776
1542.94057	0.20736
1541.01189	0.20708
1539.08322	0.20741
1537.15454	0.20814
1535.22587	0.20843
1533.29719	0.20844
1531.36852	0.20868
1529.43984	0.20880
1527.51116	0.20855
1525.58249	0.20827
1523.65381	0.20793
1521.72514	0.20758
1519.79646	0.20774
1517.86779	0.20830
1515.93911	0.20889
1514.01043	0.20928
1512.08176	0.20920
1510.15308	0.20879
1508.22441	0.20844
1506.29573	0.20851
1504.36706	0.20914
1502.43838	0.20970
1500.50970	0.20968
1498.58103	0.20953
1496.65235	0.20969
1494.72368	0.20987
1492.79500	0.20967
1490.86633	0.20928
1488.93765	0.20916
1487.00897	0.20937
1485.08030	0.20962
1483.15162	0.20966
1481.22295	0.20946
1479.29427	0.20910
1477.36560	0.20861
1475.43692	0.20807
1473.50824	0.20754
1471.57957	0.20731
1469.65089	0.20746
1467.72222	0.20746
1465.79354	0.20715
1463.86487	0.20692
1461.93619	0.20673
1460.00751	0.20605
1458.07884	0.20512
1456.15016	0.20497
1454.22149	0.20562
1452.29281	0.20609
1450.36414	0.20612
1448.43546	0.20616
1446.50678	0.20638
1444.57811	0.20663
1442.64943	0.20683
1440.72076	0.20680
1438.79208	0.20636
1436.86341	0.20605
1434.93473	0.20650
1433.00605	0.20717
1431.07738	0.20745
1429.14870	0.20762
1427.22003	0.20786
1425.29135	0.20802
1423.36268	0.20804
1421.43400	0.20784
1419.50532	0.20759
1417.57665	0.20768
1415.64797	0.20798
1413.71930	0.20812
1411.79062	0.20813
1409.86195	0.20819
1407.93327	0.20825
1406.00459	0.20824
1404.07592	0.20819
1402.14724	0.20802
1400.21857	0.20774
1398.28989	0.20756
1396.36122	0.20750
1394.43254	0.20756
1392.50386	0.20778
1390.57519	0.20768
1388.64651	0.20710
1386.71784	0.20671
1384.78916	0.20678
1382.86049	0.20699
1380.93181	0.20709
1379.00313	0.20707
1377.07446	0.20704
1375.14578	0.20703
1373.21711	0.20704
1371.28843	0.20702
1369.35976	0.20694
1367.43108	0.20688
1365.50240	0.20684
1363.57373	0.20675
1361.64505	0.20677
1359.71638	0.20693
1357.78770	0.20709
1355.85903	0.20715
1353.93035	0.20718
1352.00167	0.20726
1350.07300	0.20738
1348.14432	0.20753
1346.21565	0.20762
1344.28697	0.20763
1342.35830	0.20758
1340.42962	0.20743
1338.50094	0.20728
1336.57227	0.20725
1334.64359	0.20730
1332.71492	0.20727
1330.78624	0.20712
1328.85757	0.20692
1326.92889	0.20677
1325.00021	0.20662
1323.07154	0.20646
1321.14286	0.20630
1319.21419	0.20611
1317.28551	0.20588
1315.35684	0.20565
1313.42816	0.20545
1311.49948	0.20528
1309.57081	0.20510
1307.64213	0.20487
1305.71346	0.20462
1303.78478	0.20445
1301.85611	0.20439
1299.92743	0.20431
1297.99875	0.20412
1296.07008	0.20386
1294.14140	0.20362
1292.21273	0.20339
1290.28405	0.20310
1288.35538	0.20282
1286.42670	0.20264
1284.49802	0.20251
1282.56935	0.20229
1280.64067	0.20198
1278.71200	0.20168
1276.78332	0.20137
1274.85465	0.20100
1272.92597	0.20053
1270.99729	0.19986
1269.06862	0.19898
1267.13994	0.19798
1265.21127	0.19712
1263.28259	0.19656
1261.35392	0.19629
1259.42524	0.19633
1257.49656	0.19660
1255.56789	0.19682
1253.63921	0.19677
1251.71054	0.19653
1249.78186	0.19627
1247.85319	0.19596
1245.92451	0.19553
1243.99583	0.19506
1242.06716	0.19461
1240.13848	0.19416
1238.20981	0.19371
1236.28113	0.19323
1234.35246	0.19268
1232.42378	0.19205
1230.49510	0.19140
1228.56643	0.19082
1226.63775	0.19031
1224.70908	0.18978
1222.78040	0.18924
1220.85173	0.18871
1218.92305	0.18819
1216.99437	0.18770
1215.06570	0.18718
1213.13702	0.18663
1211.20835	0.18612
1209.27967	0.18562
1207.35100	0.18501
1205.42232	0.18429
1203.49364	0.18359
1201.56497	0.18300
1199.63629	0.18246
1197.70762	0.18190
1195.77894	0.18134
1193.85027	0.18071
1191.92159	0.18001
1189.99291	0.17925
1188.06424	0.17843
1186.13556	0.17759
1184.20689	0.17673
1182.27821	0.17588
1180.34954	0.17504
1178.42086	0.17419
1176.49218	0.17326
1174.56351	0.17234
1172.63483	0.17149
1170.70616	0.17067
1168.77748	0.16984
1166.84881	0.16892
1164.92013	0.16795
1162.99145	0.16704
1161.06278	0.16620
1159.13410	0.16537
1157.20543	0.16456
1155.27675	0.16375
1153.34808	0.16295
1151.41940	0.16218
1149.49072	0.16141
1147.56205	0.16059
1145.63337	0.15974
1143.70470	0.15881
1141.77602	0.15779
1139.84735	0.15673
1137.91867	0.15563
1135.98999	0.15443
1134.06132	0.15301
1132.13264	0.15128
1130.20397	0.14923
1128.27529	0.14699
1126.34662	0.14468
1124.41794	0.14238
1122.48926	0.14006
1120.56059	0.13771
1118.63191	0.13540
1116.70324	0.13323
1114.77456	0.13135
1112.84589	0.12985
1110.91721	0.12865
1108.98853	0.12762
1107.05986	0.12684
1105.13118	0.12646
1103.20251	0.12644
1101.27383	0.12667
1099.34516	0.12707
1097.41648	0.12761
1095.48780	0.12840
1093.55913	0.12935
1091.63045	0.13022
1089.70178	0.13099
1087.77310	0.13175
1085.84443	0.13243
1083.91575	0.13293
1081.98707	0.13327
1080.05840	0.13351
1078.12972	0.13367
1076.20105	0.13381
1074.27237	0.13396
1072.34370	0.13411
1070.41502	0.13421
1068.48634	0.13431
1066.55767	0.13450
1064.62899	0.13470
1062.70032	0.13479
1060.77164	0.13489
1058.84297	0.13514
1056.91429	0.13552
1054.98561	0.13594
1053.05694	0.13632
1051.12826	0.13665
1049.19959	0.13698
1047.27091	0.13737
1045.34224	0.13777
1043.41356	0.13819
1041.48488	0.13864
1039.55621	0.13910
1037.62753	0.13950
1035.69886	0.13987
1033.77018	0.14025
1031.84151	0.14062
1029.91283	0.14093
1027.98415	0.14129
1026.05548	0.14171
1024.12680	0.14206
1022.19813	0.14235
1020.26945	0.14276
1018.34078	0.14328
1016.41210	0.14382
1014.48342	0.14435
1012.55475	0.14497
1010.62607	0.14573
1008.69740	0.14648
1006.76872	0.14706
1004.84005	0.14748
1002.91137	0.14786
1000.98269	0.14827
999.05402	0.14861
997.12534	0.14878
995.19667	0.14885
993.26799	0.14900
991.33932	0.14919
989.41064	0.14924
987.48196	0.14922
985.55329	0.14924
983.62461	0.14922
981.69594	0.14917
979.76726	0.14917
977.83859	0.14917
975.90991	0.14906
973.98123	0.14879
972.05256	0.14840
970.12388	0.14810
968.19521	0.14801
966.26653	0.14797
964.33786	0.14783
962.40918	0.14761
960.48050	0.14740
958.55183	0.14729
956.62315	0.14719
954.69448	0.14703
952.76580	0.14680
950.83713	0.14654
948.90845	0.14633
946.97977	0.14619
945.05110	0.14605
943.12242	0.14576
941.19375	0.14534
939.26507	0.14487
937.33640	0.14436
935.40772	0.14384
933.47904	0.14337
931.55037	0.14290
929.62169	0.14236
927.69302	0.14178
925.76434	0.14128
923.83567	0.14079
921.90699	0.14016
919.97831	0.13944
918.04964	0.13875
916.12096	0.13803
914.19229	0.13722
912.26361	0.13636
910.33494	0.13562
908.40626	0.13504
906.47758	0.13446
904.54891	0.13372
902.62023	0.13290
900.69156	0.13225
898.76288	0.13174
896.83421	0.13118
894.90553	0.13055
892.97685	0.12998
891.04818	0.12953
889.11950	0.12920
887.19083	0.12886
885.26215	0.12844
883.33348	0.12806
881.40480	0.12776
879.47612	0.12746
877.54745	0.12716
875.61877	0.12687
873.69010	0.12653
871.76142	0.12616
869.83275	0.12591
867.90407	0.12575
865.97539	0.12559
864.04672	0.12543
862.11804	0.12529
860.18937	0.12524
858.26069	0.12530
856.33202	0.12526
854.40334	0.12495
852.47466	0.12458
850.54599	0.12438
848.61731	0.12423
846.68864	0.12398
844.75996	0.12362
842.83129	0.12329
840.90261	0.12310
838.97394	0.12291
837.04526	0.12243
835.11658	0.12167
833.18791	0.12082
831.25923	0.11991
829.33056	0.11889
827.40188	0.11780
825.47321	0.11674
823.54453	0.11585
821.61585	0.11512
819.68718	0.11444
817.75850	0.11387
815.82983	0.11350
813.90115	0.11320
811.97248	0.11290
810.04380	0.11264
808.11512	0.11239
806.18645	0.11217
804.25777	0.11207
802.32910	0.11194
800.40042	0.11161
798.47175	0.11111
796.54307	0.11061
794.61439	0.11014
792.68572	0.10973
790.75704	0.10939
788.82837	0.10915
786.89969	0.10903
784.97102	0.10894
783.04234	0.10876
781.11366	0.10846
779.18499	0.10807
777.25631	0.10764
775.32764	0.10720
773.39896	0.10685
771.47029	0.10661
769.54161	0.10640
767.61293	0.10616
765.68426	0.10584
763.75558	0.10534
761.82691	0.10470
759.89823	0.10411
757.96956	0.10360
756.04088	0.10311
754.11220	0.10257
752.18353	0.10190
750.25485	0.10115
748.32618	0.10037
746.39750	0.09945
744.46883	0.09840
742.54015	0.09738
740.61147	0.09658
738.68280	0.09617
736.75412	0.09618
734.82545	0.09633
732.89677	0.09633
730.96810	0.09624
729.03942	0.09627
727.11074	0.09643
725.18207	0.09657
723.25339	0.09669
721.32472	0.09686
719.39604	0.09711
717.46737	0.09733
715.53869	0.09754
713.61001	0.09780
711.68134	0.09818
709.75266	0.09859
707.82399	0.09884
705.89531	0.09890
703.96664	0.09882
702.03796	0.09850
700.10928	0.09795
698.18061	0.09739
696.25193	0.09691
694.32326	0.09635
692.39458	0.09577
690.46591	0.09524
688.53723	0.09464
686.60855	0.09399
684.67988	0.09341
682.75120	0.09293
680.82253	0.09244
678.89385	0.09186
676.96518	0.09117
675.03650	0.09046
673.10782	0.08970
671.17915	0.08883
669.25047	0.08790
667.32180	0.08711
665.39312	0.08648
663.46445	0.08583
661.53577	0.08513
659.60709	0.08423
657.67842	0.08316
655.74974	0.08224
653.82107	0.08154
651.89239	0.08083
649.96372	0.08003
648.03504	0.07915
646.10636	0.07824
644.17769	0.07726
642.24901	0.07623
640.32034	0.07525
638.39166	0.07427
636.46299	0.07317
634.53431	0.07201
632.60563	0.07052
630.67696	0.06815
628.74828	0.06450
626.81961	0.05978
624.89093	0.05507
622.96226	0.05140
621.03358	0.04909
619.10490	0.04791
617.17623	0.04712
615.24755	0.04624
613.31888	0.04516
611.39020	0.04406
609.46153	0.04343
607.53285	0.04356
605.60417	0.04409
603.67550	0.04466
601.74682	0.04541
599.81815	0.04638
597.88947	0.04726
595.96080	0.04783
594.03212	0.04817
592.10344	0.04849
590.17477	0.04883
588.24609	0.04901
586.31742	0.04887
584.38874	0.04841
582.46007	0.04789
580.53139	0.04752
578.60271	0.04719
576.67404	0.04676
574.74536	0.04629
572.81669	0.04574
570.88801	0.04501
568.95934	0.04421
567.03066	0.04358
565.10198	0.04319
563.17331	0.04292
561.24463	0.04275
559.31596	0.04260
557.38728	0.04240
555.45861	0.04217
553.52993	0.04185
551.60125	0.04149
549.67258	0.04118
547.74390	0.04101
545.81523	0.04091
543.88655	0.04077
541.95788	0.04064
540.02920	0.04057
538.10052	0.04048
536.17185	0.04028
534.24317	0.04004
532.31450	0.03977
530.38582	0.03946
528.45715	0.03915
526.52847	0.03888
524.59979	0.03851
522.67112	0.03799
520.74244	0.03743
518.81377	0.03687
516.88509	0.03625
514.95642	0.03569
513.02774	0.03540
511.09906	0.03533
509.17039	0.03529
507.24171	0.03513
505.31304	0.03470
503.38436	0.03413
501.45569	0.03364
499.52701	0.03322
497.59833	0.03283
495.66966	0.03239
493.74098	0.03176
491.81231	0.03107
489.88363	0.03047
487.95496	0.02988
486.02628	0.02927
484.09760	0.02869
482.16893	0.02802
480.24025	0.02732
478.31158	0.02673
476.38290	0.02613
474.45423	0.02555
472.52555	0.02517
470.59687	0.02492
468.66820	0.02459
466.73952	0.02420
464.81085	0.02390
462.88217	0.02375
460.95350	0.02365
459.02482	0.02360
457.09614	0.02364
455.16747	0.02360
453.23879	0.02349
451.31012	0.02345
449.38144	0.02343
447.45277	0.02338
445.52409	0.02326
443.59541	0.02303
441.66674	0.02278
439.73806	0.02242
437.80939	0.02182
435.88071	0.02122
433.95204	0.02083
432.02336	0.02050
430.09468	0.02001
428.16601	0.01931
426.23733	0.01852
424.30866	0.01779
422.37998	0.01704
420.45131	0.01618
418.52263	0.01533
416.59395	0.01479
414.66528	0.01450
412.73660	0.01404
410.80793	0.01321
408.87925	0.01230
406.95058	0.01151
405.02190	0.01092
403.09322	0.01046
401.16455	0.00988
399.23587	0.00914
397.30720	0.00851
395.37852	0.00806
393.44985	0.00753
391.52117	0.00700
389.59249	0.00670
387.66382	0.00655
385.73514	0.00624
383.80647	0.00569
381.87779	0.00513
379.94912	0.00473
378.02044	0.00447
376.09176	0.00420
374.16309	0.00384
372.23441	0.00345
370.30574	0.00298
368.37706	0.00258
