7496.76250	0.00110
7494.83382	0.00110
7492.90514	0.00112
7490.97647	0.00115
7489.04779	0.00116
7487.11912	0.00116
7485.19044	0.00115
7483.26177	0.00115
7481.33309	0.00114
7479.40441	0.00115
7477.47574	0.00115
7475.54706	0.00116
7473.61839	0.00117
7471.68971	0.00118
7469.76104	0.00119
7467.83236	0.00119
7465.90368	0.00118
7463.97501	0.00118
7462.04633	0.00117
7460.11766	0.00115
7458.18898	0.00115
7456.26031	0.00116
7454.33163	0.00120
7452.40295	0.00121
7450.47428	0.00121
7448.54560	0.00121
7446.61693	0.00122
7444.68825	0.00123
7442.75958	0.00123
7440.83090	0.00124
7438.90222	0.00123
7436.97355	0.00121
7435.04487	0.00121
7433.11620	0.00120
7431.18752	0.00120
7429.25885	0.00121
7427.33017	0.00121
7425.40149	0.00122
7423.47282	0.00124
7421.54414	0.00127
7419.61547	0.00128
7417.68679	0.00129
7415.75812	0.00128
7413.82944	0.00127
7411.90076	0.00127
7409.97209	0.00127
7408.04341	0.00128
7406.11474	0.00130
7404.18606	0.00130
7402.25739	0.00129
7400.32871	0.00128
7398.40003	0.00129
7396.47136	0.00130
7394.54268	0.00130
7392.61401	0.00127
7390.68533	0.00127
7388.75666	0.00128
7386.82798	0.00129
7384.89930	0.00130
7382.97063	0.00130
7381.04195	0.00130
7379.11328	0.00129
7377.18460	0.00130
7375.25593	0.00131
7373.32725	0.00131
7371.39857	0.00129
7369.46990	0.00127
7367.54122	0.00127
7365.61255	0.00129
7363.68387	0.00132
7361.75520	0.00133
7359.82652	0.00134
7357.89784	0.00136
7355.96917	0.00136
7354.04049	0.00135
7352.11182	0.00133
7350.18314	0.00133
7348.25447	0.00135
7346.32579	0.00137
7344.39711	0.00137
7342.46844	0.00135
7340.53976	0.00133
7338.61109	0.00135
7336.68241	0.00138
7334.75374	0.00140
7332.82506	0.00138
7330.89638	0.00138
7328.96771	0.00138
7327.03903	0.00139
7325.11036	0.00140
7323.18168	0.00141
7321.25301	0.00142
7319.32433	0.00141
7317.39565	0.00141
7315.46698	0.00140
7313.53830	0.00141
7311.60963	0.00143
7309.68095	0.00143
7307.75228	0.00143
7305.82360	0.00143
7303.89492	0.00143
7301.96625	0.00144
7300.03757	0.00145
7298.10890	0.00143
7296.18022	0.00143
7294.25155	0.00144
7292.32287	0.00145
7290.39419	0.00146
7288.46552	0.00145
7286.53684	0.00144
7284.60817	0.00144
7282.67949	0.00146
7280.75082	0.00148
7278.82214	0.00148
7276.89346	0.00147
7274.96479	0.00147
7273.03611	0.00147
7271.10744	0.00148
7269.17876	0.00150
7267.25009	0.00150
7265.32141	0.00150
7263.39273	0.00150
7261.46406	0.00150
7259.53538	0.00149
7257.60671	0.00150
7255.67803	0.00152
7253.74936	0.00154
7251.82068	0.00155
7249.89200	0.00157
7247.96333	0.00160
7246.03465	0.00159
7244.10598	0.00156
7242.17730	0.00154
7240.24863	0.00154
7238.31995	0.00155
7236.39127	0.00155
7234.46260	0.00154
7232.53392	0.00155
7230.60525	0.00157
7228.67657	0.00158
7226.74790	0.00159
7224.81922	0.00160
7222.89054	0.00159
7220.96187	0.00158
7219.03319	0.00158
7217.10452	0.00160
7215.17584	0.00164
7213.24717	0.00165
7211.31849	0.00165
7209.38981	0.00164
7207.46114	0.00165
7205.53246	0.00164
7203.60379	0.00164
7201.67511	0.00164
7199.74644	0.00164
7197.81776	0.00164
7195.88908	0.00164
7193.96041	0.00165
7192.03173	0.00166
7190.10306	0.00166
7188.17438	0.00167
7186.24571	0.00166
7184.31703	0.00165
7182.38835	0.00164
7180.45968	0.00164
7178.53100	0.00165
7176.60233	0.00166
7174.67365	0.00168
7172.74498	0.00170
7170.81630	0.00173
7168.88762	0.00173
7166.95895	0.00170
7165.03027	0.00165
7163.10160	0.00165
7161.17292	0.00168
7159.24425	0.00170
7157.31557	0.00171
7155.38689	0.00172
7153.45822	0.00172
7151.52954	0.00172
7149.60087	0.00173
7147.67219	0.00175
7145.74352	0.00176
7143.81484	0.00174
7141.88616	0.00172
7139.95749	0.00173
7138.02881	0.00175
7136.10014	0.00175
7134.17146	0.00175
7132.24279	0.00177
7130.31411	0.00176
7128.38543	0.00174
7126.45676	0.00173
7124.52808	0.00176
7122.59941	0.00179
7120.67073	0.00180
7118.74206	0.00180
7116.81338	0.00179
7114.88470	0.00178
7112.95603	0.00177
7111.02735	0.00179
7109.09868	0.00183
7107.17000	0.00185
7105.24133	0.00184
7103.31265	0.00182
7101.38397	0.00181
7099.45530	0.00181
7097.52662	0.00182
7095.59795	0.00183
7093.66927	0.00185
7091.74060	0.00186
7089.81192	0.00187
7087.88324	0.00187
7085.95457	0.00186
7084.02589	0.00187
7082.09722	0.00188
7080.16854	0.00187
7078.23987	0.00187
7076.31119	0.00189
7074.38251	0.00190
7072.45384	0.00188
7070.52516	0.00186
7068.59649	0.00185
7066.66781	0.00186
7064.73914	0.00189
7062.81046	0.00191
7060.88178	0.00191
7058.95311	0.00191
7057.02443	0.00190
7055.09576	0.00192
7053.16708	0.00195
7051.23841	0.00196
7049.30973	0.00196
7047.38105	0.00196
7045.45238	0.00197
7043.52370	0.00197
7041.59503	0.00196
7039.66635	0.00194
7037.73768	0.00193
7035.80900	0.00195
7033.88032	0.00197
7031.95165	0.00198
7030.02297	0.00198
7028.09430	0.00199
7026.16562	0.00200
7024.23695	0.00200
7022.30827	0.00202
7020.37959	0.00205
7018.45092	0.00207
7016.52224	0.00206
7014.59357	0.00205
7012.66489	0.00204
7010.73622	0.00204
7008.80754	0.00204
7006.87886	0.00203
7004.95019	0.00202
7003.02151	0.00202
7001.09284	0.00203
6999.16416	0.00205
6997.23549	0.00206
6995.30681	0.00206
6993.37813	0.00205
6991.44946	0.00205
6989.52078	0.00206
6987.59211	0.00206
6985.66343	0.00206
6983.73476	0.00208
6981.80608	0.00208
6979.87740	0.00207
6977.94873	0.00206
6976.02005	0.00208
6974.09138	0.00210
6972.16270	0.00210
6970.23403	0.00210
6968.30535	0.00212
6966.37667	0.00213
6964.44800	0.00214
6962.51932	0.00216
6960.59065	0.00217
6958.66197	0.00214
6956.73330	0.00214
6954.80462	0.00217
6952.87594	0.00218
6950.94727	0.00218
6949.01859	0.00218
6947.08992	0.00219
6945.16124	0.00221
6943.23257	0.00221
6941.30389	0.00220
6939.37521	0.00221
6937.44654	0.00221
6935.51786	0.00220
6933.58919	0.00220
6931.66051	0.00221
6929.73184	0.00221
6927.80316	0.00223
6925.87448	0.00224
6923.94581	0.00224
6922.01713	0.00223
6920.08846	0.00223
6918.15978	0.00222
6916.23111	0.00223
6914.30243	0.00224
6912.37375	0.00226
6910.44508	0.00226
6908.51640	0.00225
6906.58773	0.00225
6904.65905	0.00227
6902.73038	0.00230
6900.80170	0.00231
6898.87302	0.00231
6896.94435	0.00230
6895.01567	0.00230
6893.08700	0.00231
6891.15832	0.00231
6889.22965	0.00230
6887.30097	0.00228
6885.37229	0.00229
6883.44362	0.00231
6881.51494	0.00235
6879.58627	0.00237
6877.65759	0.00237
6875.72892	0.00236
6873.80024	0.00235
6871.87156	0.00236
6869.94289	0.00238
6868.01421	0.00239
6866.08554	0.00239
6864.15686	0.00238
6862.22819	0.00237
6860.29951	0.00237
6858.37083	0.00237
6856.44216	0.00237
6854.51348	0.00238
6852.58481	0.00240
6850.65613	0.00241
6848.72746	0.00241
6846.79878	0.00241
6844.87010	0.00243
6842.94143	0.00244
6841.01275	0.00244
6839.08408	0.00243
6837.15540	0.00242
6835.22673	0.00243
6833.29805	0.00243
6831.36937	0.00244
6829.44070	0.00246
6827.51202	0.00248
6825.58335	0.00250
6823.65467	0.00249
6821.72600	0.00248
6819.79732	0.00246
6817.86864	0.00245
6815.93997	0.00247
6814.01129	0.00250
6812.08262	0.00254
6810.15394	0.00257
6808.22527	0.00255
6806.29659	0.00252
6804.36791	0.00251
6802.43924	0.00253
6800.51056	0.00256
6798.58189	0.00258
6796.65321	0.00258
6794.72454	0.00257
6792.79586	0.00257
6790.86718	0.00259
6788.93851	0.00261
6787.00983	0.00262
6785.08116	0.00261
6783.15248	0.00261
6781.22381	0.00261
6779.29513	0.00261
6777.36645	0.00262
6775.43778	0.00263
6773.50910	0.00263
6771.58043	0.00263
6769.65175	0.00263
6767.72308	0.00263
6765.79440	0.00263
6763.86572	0.00264
6761.93705	0.00265
6760.00837	0.00265
6758.07970	0.00267
6756.15102	0.00270
6754.22235	0.00271
6752.29367	0.00271
6750.36499	0.00270
6748.43632	0.00271
6746.50764	0.00271
6744.57897	0.00270
6742.65029	0.00269
6740.72162	0.00268
6738.79294	0.00269
6736.86426	0.00272
6734.93559	0.00275
6733.00691	0.00275
6731.07824	0.00275
6729.14956	0.00276
6727.22089	0.00277
6725.29221	0.00279
6723.36353	0.00280
6721.43486	0.00280
6719.50618	0.00279
6717.57751	0.00278
6715.64883	0.00277
6713.72016	0.00278
6711.79148	0.00281
6709.86280	0.00284
6707.93413	0.00284
6706.00545	0.00282
6704.07678	0.00282
6702.14810	0.00284
6700.21943	0.00284
6698.29075	0.00284
6696.36207	0.00284
6694.43340	0.00284
6692.50472	0.00285
6690.57605	0.00286
6688.64737	0.00287
6686.71870	0.00288
6684.79002	0.00290
6682.86134	0.00293
6680.93267	0.00296
6679.00399	0.00297
6677.07532	0.00296
6675.14664	0.00295
6673.21797	0.00293
6671.28929	0.00293
6669.36061	0.00292
6667.43194	0.00293
6665.50326	0.00293
6663.57459	0.00293
6661.64591	0.00294
6659.71724	0.00296
6657.78856	0.00299
6655.85988	0.00300
6653.93121	0.00300
6652.00253	0.00300
6650.07386	0.00300
6648.14518	0.00300
6646.21651	0.00300
6644.28783	0.00300
6642.35915	0.00302
6640.43048	0.00303
6638.50180	0.00305
6636.57313	0.00305
6634.64445	0.00306
6632.71578	0.00308
6630.78710	0.00309
6628.85842	0.00309
6626.92975	0.00308
6625.00107	0.00309
6623.07240	0.00310
6621.14372	0.00311
6619.21505	0.00310
6617.28637	0.00309
6615.35769	0.00311
6613.42902	0.00314
6611.50034	0.00317
6609.57167	0.00319
6607.64299	0.00318
6605.71432	0.00318
6603.78564	0.00319
6601.85696	0.00318
6599.92829	0.00316
6597.99961	0.00317
6596.07094	0.00319
6594.14226	0.00321
6592.21359	0.00321
6590.28491	0.00321
6588.35623	0.00322
6586.42756	0.00322
6584.49888	0.00321
6582.57021	0.00322
6580.64153	0.00324
6578.71286	0.00326
6576.78418	0.00328
6574.85550	0.00329
6572.92683	0.00327
6570.99815	0.00326
6569.06948	0.00327
6567.14080	0.00328
6565.21213	0.00328
6563.28345	0.00328
6561.35477	0.00329
6559.42610	0.00330
6557.49742	0.00332
6555.56875	0.00334
6553.64007	0.00335
6551.71140	0.00335
6549.78272	0.00336
6547.85404	0.00336
6545.92537	0.00334
6543.99669	0.00335
6542.06802	0.00336
6540.13934	0.00338
6538.21067	0.00340
6536.28199	0.00342
6534.35331	0.00343
6532.42464	0.00342
6530.49596	0.00342
6528.56729	0.00342
6526.63861	0.00343
6524.70994	0.00346
6522.78126	0.00349
6520.85258	0.00348
6518.92391	0.00346
6516.99523	0.00345
6515.06656	0.00347
6513.13788	0.00350
6511.20921	0.00351
6509.28053	0.00352
6507.35185	0.00354
6505.42318	0.00354
6503.49450	0.00354
6501.56583	0.00355
6499.63715	0.00355
6497.70848	0.00354
6495.77980	0.00354
6493.85112	0.00355
6491.92245	0.00357
6489.99377	0.00359
6488.06510	0.00361
6486.13642	0.00363
6484.20775	0.00364
6482.27907	0.00363
6480.35039	0.00362
6478.42172	0.00361
6476.49304	0.00361
6474.56437	0.00364
6472.63569	0.00365
6470.70702	0.00364
6468.77834	0.00362
6466.84966	0.00363
6464.92099	0.00366
6462.99231	0.00370
6461.06364	0.00374
6459.13496	0.00373
6457.20629	0.00371
6455.27761	0.00370
6453.34893	0.00373
6451.42026	0.00375
6449.49158	0.00374
6447.56291	0.00372
6445.63423	0.00372
6443.70556	0.00375
6441.77688	0.00377
6439.84820	0.00377
6437.91953	0.00379
6435.99085	0.00382
6434.06218	0.00384
6432.13350	0.00384
6430.20483	0.00382
6428.27615	0.00381
6426.34747	0.00382
6424.41880	0.00384
6422.49012	0.00386
6420.56145	0.00386
6418.63277	0.00386
6416.70410	0.00388
6414.77542	0.00391
6412.84674	0.00393
6410.91807	0.00393
6408.98939	0.00392
6407.06072	0.00390
6405.13204	0.00389
6403.20337	0.00389
6401.27469	0.00390
6399.34601	0.00393
6397.41734	0.00395
6395.48866	0.00395
6393.55999	0.00396
6391.63131	0.00398
6389.70264	0.00400
6387.77396	0.00401
6385.84528	0.00404
6383.91661	0.00405
6381.98793	0.00405
6380.05926	0.00402
6378.13058	0.00401
6376.20191	0.00402
6374.27323	0.00404
6372.34455	0.00407
6370.41588	0.00409
6368.48720	0.00409
6366.55853	0.00409
6364.62985	0.00408
6362.70118	0.00408
6360.77250	0.00409
6358.84382	0.00411
6356.91515	0.00412
6354.98647	0.00414
6353.05780	0.00416
6351.12912	0.00418
6349.20045	0.00418
6347.27177	0.00418
6345.34309	0.00420
6343.41442	0.00422
6341.48574	0.00423
6339.55707	0.00423
6337.62839	0.00423
6335.69972	0.00423
6333.77104	0.00423
6331.84236	0.00425
6329.91369	0.00424
6327.98501	0.00425
6326.05634	0.00427
6324.12766	0.00429
6322.19899	0.00431
6320.27031	0.00431
6318.34163	0.00431
6316.41296	0.00432
6314.48428	0.00436
6312.55561	0.00439
6310.62693	0.00438
6308.69826	0.00435
6306.76958	0.00436
6304.84090	0.00440
6302.91223	0.00442
6300.98355	0.00441
6299.05488	0.00441
6297.12620	0.00441
6295.19753	0.00442
6293.26885	0.00444
6291.34017	0.00446
6289.41150	0.00447
6287.48282	0.00447
6285.55415	0.00447
6283.62547	0.00447
6281.69680	0.00449
6279.76812	0.00452
6277.83944	0.00454
6275.91077	0.00453
6273.98209	0.00452
6272.05342	0.00452
6270.12474	0.00452
6268.19607	0.00452
6266.26739	0.00453
6264.33871	0.00455
6262.41004	0.00455
6260.48136	0.00456
6258.55269	0.00458
6256.62401	0.00461
6254.69534	0.00464
6252.76666	0.00467
6250.83798	0.00469
6248.90931	0.00469
6246.98063	0.00469
6245.05196	0.00470
6243.12328	0.00471
6241.19461	0.00472
6239.26593	0.00473
6237.33725	0.00475
6235.40858	0.00475
6233.47990	0.00474
6231.55123	0.00475
6229.62255	0.00474
6227.69388	0.00474
6225.76520	0.00476
6223.83652	0.00480
6221.90785	0.00482
6219.97917	0.00483
6218.05050	0.00482
6216.12182	0.00481
6214.19315	0.00481
6212.26447	0.00484
6210.33579	0.00488
6208.40712	0.00491
6206.47844	0.00491
6204.54977	0.00490
6202.62109	0.00490
6200.69242	0.00490
6198.76374	0.00491
6196.83506	0.00491
6194.90639	0.00492
6192.97771	0.00495
6191.04904	0.00497
6189.12036	0.00499
6187.19169	0.00499
6185.26301	0.00499
6183.33433	0.00499
6181.40566	0.00499
6179.47698	0.00500
6177.54831	0.00501
6175.61963	0.00501
6173.69096	0.00502
6171.76228	0.00505
6169.83360	0.00507
6167.90493	0.00508
6165.97625	0.00509
6164.04758	0.00510
6162.11890	0.00511
6160.19023	0.00513
6158.26155	0.00516
6156.33287	0.00519
6154.40420	0.00520
6152.47552	0.00522
6150.54685	0.00525
6148.61817	0.00528
6146.68950	0.00529
6144.76082	0.00529
6142.83214	0.00527
6140.90347	0.00527
6138.97479	0.00528
6137.04612	0.00530
6135.11744	0.00530
6133.18877	0.00530
6131.26009	0.00530
6129.33141	0.00530
6127.40274	0.00531
6125.47406	0.00532
6123.54539	0.00533
6121.61671	0.00533
6119.68804	0.00535
6117.75936	0.00538
6115.83068	0.00542
6113.90201	0.00545
6111.97333	0.00545
6110.04466	0.00545
6108.11598	0.00547
6106.18731	0.00548
6104.25863	0.00550
6102.32995	0.00552
6100.40128	0.00553
6098.47260	0.00552
6096.54393	0.00552
6094.61525	0.00553
6092.68658	0.00554
6090.75790	0.00555
6088.82922	0.00557
6086.90055	0.00560
6084.97187	0.00560
6083.04320	0.00559
6081.11452	0.00561
6079.18585	0.00564
6077.25717	0.00565
6075.32849	0.00565
6073.39982	0.00566
6071.47114	0.00567
6069.54247	0.00568
6067.61379	0.00570
6065.68512	0.00573
6063.75644	0.00575
6061.82776	0.00576
6059.89909	0.00573
6057.97041	0.00572
6056.04174	0.00574
6054.11306	0.00579
6052.18439	0.00581
6050.25571	0.00581
6048.32703	0.00581
6046.39836	0.00583
6044.46968	0.00584
6042.54101	0.00584
6040.61233	0.00587
6038.68366	0.00591
6036.75498	0.00593
6034.82630	0.00594
6032.89763	0.00594
6030.96895	0.00593
6029.04028	0.00591
6027.11160	0.00591
6025.18293	0.00594
6023.25425	0.00598
6021.32557	0.00600
6019.39690	0.00599
6017.46822	0.00598
6015.53955	0.00600
6013.61087	0.00603
6011.68220	0.00606
6009.75352	0.00608
6007.82484	0.00610
6005.89617	0.00612
6003.96749	0.00615
6002.03882	0.00617
6000.11014	0.00618
5998.18147	0.00617
5996.25279	0.00615
5994.32411	0.00613
5992.39544	0.00614
5990.46676	0.00618
5988.53809	0.00623
5986.60941	0.00624
5984.68074	0.00625
5982.75206	0.00624
5980.82338	0.00623
5978.89471	0.00626
5976.96603	0.00631
5975.03736	0.00632
5973.10868	0.00631
5971.18001	0.00632
5969.25133	0.00636
5967.32265	0.00637
5965.39398	0.00636
5963.46530	0.00636
5961.53663	0.00637
5959.60795	0.00641
5957.67928	0.00643
5955.75060	0.00644
5953.82192	0.00644
5951.89325	0.00645
5949.96457	0.00646
5948.03590	0.00648
5946.10722	0.00651
5944.17855	0.00653
5942.24987	0.00654
5940.32119	0.00655
5938.39252	0.00654
5936.46384	0.00655
5934.53517	0.00657
5932.60649	0.00661
5930.67782	0.00665
5928.74914	0.00669
5926.82046	0.00669
5924.89179	0.00668
5922.96311	0.00669
5921.03444	0.00671
5919.10576	0.00671
5917.17709	0.00673
5915.24841	0.00674
5913.31973	0.00674
5911.39106	0.00676
5909.46238	0.00678
5907.53371	0.00679
5905.60503	0.00681
5903.67636	0.00685
5901.74768	0.00687
5899.81900	0.00686
5897.89033	0.00685
5895.96165	0.00685
5894.03298	0.00684
5892.10430	0.00685
5890.17563	0.00687
5888.24695	0.00690
5886.31827	0.00694
5884.38960	0.00697
5882.46092	0.00696
5880.53225	0.00695
5878.60357	0.00695
5876.67490	0.00697
5874.74622	0.00700
5872.81755	0.00702
5870.88887	0.00704
5868.96019	0.00705
5867.03152	0.00706
5865.10284	0.00708
5863.17417	0.00712
5861.24549	0.00714
5859.31682	0.00715
5857.38814	0.00717
5855.45946	0.00720
5853.53079	0.00722
5851.60211	0.00722
5849.67344	0.00722
5847.74476	0.00724
5845.81609	0.00725
5843.88741	0.00727
5841.95873	0.00729
5840.03006	0.00730
5838.10138	0.00730
5836.17271	0.00731
5834.24403	0.00732
5832.31536	0.00733
5830.38668	0.00734
5828.45800	0.00736
5826.52933	0.00739
5824.60065	0.00742
5822.67198	0.00744
5820.74330	0.00745
5818.81463	0.00747
5816.88595	0.00748
5814.95727	0.00749
5813.02860	0.00751
5811.09992	0.00754
5809.17125	0.00755
5807.24257	0.00755
5805.31390	0.00757
5803.38522	0.00759
5801.45654	0.00760
5799.52787	0.00762
5797.59919	0.00764
5795.67052	0.00767
5793.74184	0.00768
5791.81317	0.00766
5789.88449	0.00766
5787.95581	0.00768
5786.02714	0.00771
5784.09846	0.00773
5782.16979	0.00775
5780.24111	0.00778
5778.31244	0.00781
5776.38376	0.00782
5774.45508	0.00782
5772.52641	0.00782
5770.59773	0.00784
5768.66906	0.00788
5766.74038	0.00790
5764.81171	0.00791
5762.88303	0.00792
5760.95435	0.00794
5759.02568	0.00797
5757.09700	0.00798
5755.16833	0.00799
5753.23965	0.00801
5751.31098	0.00802
5749.38230	0.00803
5747.45362	0.00804
5745.52495	0.00808
5743.59627	0.00810
5741.66760	0.00810
5739.73892	0.00812
5737.81025	0.00814
5735.88157	0.00815
5733.95289	0.00816
5732.02422	0.00818
5730.09554	0.00820
5728.16687	0.00822
5726.23819	0.00823
5724.30952	0.00826
5722.38084	0.00831
5720.45216	0.00832
5718.52349	0.00832
5716.59481	0.00835
5714.66614	0.00837
5712.73746	0.00836
5710.80879	0.00835
5708.88011	0.00838
5706.95143	0.00840
5705.02276	0.00841
5703.09408	0.00843
5701.16541	0.00845
5699.23673	0.00847
5697.30806	0.00849
5695.37938	0.00850
5693.45070	0.00850
5691.52203	0.00853
5689.59335	0.00857
5687.66468	0.00858
5685.73600	0.00859
5683.80733	0.00864
5681.87865	0.00867
5679.94997	0.00868
5678.02130	0.00866
5676.09262	0.00864
5674.16395	0.00866
5672.23527	0.00870
5670.30660	0.00874
5668.37792	0.00878
5666.44924	0.00881
5664.52057	0.00883
5662.59189	0.00886
5660.66322	0.00888
5658.73454	0.00890
5656.80587	0.00890
5654.87719	0.00890
5652.94851	0.00892
5651.01984	0.00893
5649.09116	0.00895
5647.16249	0.00895
5645.23381	0.00895
5643.30514	0.00896
5641.37646	0.00899
5639.44778	0.00902
5637.51911	0.00904
5635.59043	0.00908
5633.66176	0.00911
5631.73308	0.00913
5629.80441	0.00914
5627.87573	0.00916
5625.94705	0.00918
5624.01838	0.00918
5622.08970	0.00917
5620.16103	0.00916
5618.23235	0.00917
5616.30368	0.00921
5614.37500	0.00926
5612.44632	0.00928
5610.51765	0.00929
5608.58897	0.00930
5606.66030	0.00933
5604.73162	0.00934
5602.80295	0.00935
5600.87427	0.00937
5598.94559	0.00939
5597.01692	0.00939
5595.08824	0.00942
5593.15957	0.00948
5591.23089	0.00954
5589.30222	0.00957
5587.37354	0.00956
5585.44486	0.00956
5583.51619	0.00957
5581.58751	0.00958
5579.65884	0.00958
5577.73016	0.00960
5575.80149	0.00964
5573.87281	0.00965
5571.94413	0.00963
5570.01546	0.00966
5568.08678	0.00971
5566.15811	0.00974
5564.22943	0.00976
5562.30076	0.00977
5560.37208	0.00978
5558.44340	0.00977
5556.51473	0.00978
5554.58605	0.00980
5552.65738	0.00983
5550.72870	0.00987
5548.80003	0.00988
5546.87135	0.00991
5544.94267	0.00995
5543.01400	0.00998
5541.08532	0.00999
5539.15665	0.01000
5537.22797	0.01001
5535.29930	0.01003
5533.37062	0.01006
5531.44194	0.01009
5529.51327	0.01011
5527.58459	0.01012
5525.65592	0.01011
5523.72724	0.01013
5521.79857	0.01017
5519.86989	0.01019
5517.94121	0.01020
5516.01254	0.01022
5514.08386	0.01026
5512.15519	0.01029
5510.22651	0.01031
5508.29784	0.01031
5506.36916	0.01032
5504.44048	0.01034
5502.51181	0.01036
5500.58313	0.01039
5498.65446	0.01044
5496.72578	0.01048
5494.79711	0.01049
5492.86843	0.01050
5490.93975	0.01054
5489.01108	0.01057
5487.08240	0.01057
5485.15373	0.01055
5483.22505	0.01056
5481.29638	0.01058
5479.36770	0.01059
5477.43902	0.01060
5475.51035	0.01061
5473.58167	0.01066
5471.65300	0.01071
5469.72432	0.01074
5467.79565	0.01074
5465.86697	0.01074
5463.93829	0.01076
5462.00962	0.01078
5460.08094	0.01080
5458.15227	0.01081
5456.22359	0.01082
5454.29492	0.01084
5452.36624	0.01091
5450.43756	0.01097
5448.50889	0.01099
5446.58021	0.01098
5444.65154	0.01096
5442.72286	0.01095
5440.79419	0.01097
5438.86551	0.01102
5436.93683	0.01107
5435.00816	0.01109
5433.07948	0.01109
5431.15081	0.01109
5429.22213	0.01111
5427.29346	0.01114
5425.36478	0.01119
5423.43610	0.01124
5421.50743	0.01127
5419.57875	0.01127
5417.65008	0.01126
5415.72140	0.01128
5413.79273	0.01131
5411.86405	0.01134
5409.93537	0.01139
5408.00670	0.01142
5406.07802	0.01143
5404.14935	0.01143
5402.22067	0.01144
5400.29200	0.01147
5398.36332	0.01149
5396.43464	0.01150
5394.50597	0.01150
5392.57729	0.01152
5390.64862	0.01157
5388.71994	0.01161
5386.79127	0.01164
5384.86259	0.01168
5382.93391	0.01171
5381.00524	0.01173
5379.07656	0.01173
5377.14789	0.01173
5375.21921	0.01174
5373.29054	0.01175
5371.36186	0.01176
5369.43318	0.01180
5367.50451	0.01183
5365.57583	0.01185
5363.64716	0.01188
5361.71848	0.01192
5359.78981	0.01195
5357.86113	0.01197
5355.93245	0.01198
5354.00378	0.01198
5352.07510	0.01200
5350.14643	0.01205
5348.21775	0.01208
5346.28908	0.01209
5344.36040	0.01210
5342.43172	0.01213
5340.50305	0.01216
5338.57437	0.01219
5336.64570	0.01222
5334.71702	0.01225
5332.78835	0.01225
5330.85967	0.01223
5328.93099	0.01225
5327.00232	0.01229
5325.07364	0.01232
5323.14497	0.01234
5321.21629	0.01236
5319.28762	0.01240
5317.35894	0.01245
5315.43026	0.01246
5313.50159	0.01248
5311.57291	0.01252
5309.64424	0.01255
5307.71556	0.01256
5305.78689	0.01257
5303.85821	0.01259
5301.92953	0.01262
5300.00086	0.01264
5298.07218	0.01267
5296.14351	0.01270
5294.21483	0.01271
5292.28616	0.01270
5290.35748	0.01270
5288.42880	0.01274
5286.50013	0.01279
5284.57145	0.01284
5282.64278	0.01289
5280.71410	0.01292
5278.78543	0.01292
5276.85675	0.01289
5274.92807	0.01290
5272.99940	0.01295
5271.07072	0.01298
5269.14205	0.01299
5267.21337	0.01299
5265.28470	0.01300
5263.35602	0.01303
5261.42734	0.01306
5259.49867	0.01310
5257.56999	0.01314
5255.64132	0.01316
5253.71264	0.01315
5251.78397	0.01313
5249.85529	0.01314
5247.92661	0.01319
5245.99794	0.01326
5244.06926	0.01332
5242.14059	0.01335
5240.21191	0.01336
5238.28324	0.01336
5236.35456	0.01336
5234.42588	0.01339
5232.49721	0.01343
5230.56853	0.01346
5228.63986	0.01347
5226.71118	0.01346
5224.78251	0.01344
5222.85383	0.01347
5220.92515	0.01351
5218.99648	0.01357
5217.06780	0.01364
5215.13913	0.01370
5213.21045	0.01374
5211.28178	0.01376
5209.35310	0.01373
5207.42442	0.01370
5205.49575	0.01371
5203.56707	0.01378
5201.63840	0.01385
5199.70972	0.01388
5197.78105	0.01388
5195.85237	0.01388
5193.92369	0.01392
5191.99502	0.01399
5190.06634	0.01406
5188.13767	0.01409
5186.20899	0.01409
5184.28032	0.01408
5182.35164	0.01411
5180.42296	0.01414
5178.49429	0.01413
5176.56561	0.01413
5174.63694	0.01417
5172.70826	0.01422
5170.77959	0.01425
5168.85091	0.01424
5166.92223	0.01425
5164.99356	0.01429
5163.06488	0.01434
5161.13621	0.01438
5159.20753	0.01441
5157.27886	0.01445
5155.35018	0.01449
5153.42150	0.01452
5151.49283	0.01456
5149.56415	0.01460
5147.63548	0.01460
5145.70680	0.01458
5143.77813	0.01460
5141.84945	0.01464
5139.92077	0.01467
5137.99210	0.01468
5136.06342	0.01471
5134.13475	0.01474
5132.20607	0.01475
5130.27740	0.01476
5128.34872	0.01481
5126.42004	0.01484
5124.49137	0.01485
5122.56269	0.01487
5120.63402	0.01490
5118.70534	0.01493
5116.77667	0.01497
5114.84799	0.01500
5112.91931	0.01501
5110.99064	0.01501
5109.06196	0.01501
5107.13329	0.01506
5105.20461	0.01512
5103.27594	0.01515
5101.34726	0.01514
5099.41858	0.01513
5097.48991	0.01516
5095.56123	0.01521
5093.63256	0.01525
5091.70388	0.01527
5089.77521	0.01529
5087.84653	0.01531
5085.91785	0.01533
5083.98918	0.01538
5082.06050	0.01543
5080.13183	0.01546
5078.20315	0.01546
5076.27448	0.01548
5074.34580	0.01548
5072.41712	0.01549
5070.48845	0.01556
5068.55977	0.01561
5066.63110	0.01561
5064.70242	0.01561
5062.77375	0.01566
5060.84507	0.01572
5058.91639	0.01575
5056.98772	0.01576
5055.05904	0.01581
5053.13037	0.01586
5051.20169	0.01589
5049.27302	0.01591
5047.34434	0.01591
5045.41566	0.01591
5043.48699	0.01593
5041.55831	0.01597
5039.62964	0.01600
5037.70096	0.01603
5035.77229	0.01603
5033.84361	0.01605
5031.91493	0.01609
5029.98626	0.01613
5028.05758	0.01615
5026.12891	0.01616
5024.20023	0.01618
5022.27156	0.01621
5020.34288	0.01624
5018.41420	0.01626
5016.48553	0.01628
5014.55685	0.01632
5012.62818	0.01635
5010.69950	0.01637
5008.77083	0.01641
5006.84215	0.01648
5004.91347	0.01653
5002.98480	0.01653
5001.05612	0.01651
4999.12745	0.01651
4997.19877	0.01654
4995.27010	0.01659
4993.34142	0.01662
4991.41274	0.01664
4989.48407	0.01667
4987.55539	0.01674
4985.62672	0.01680
4983.69804	0.01684
4981.76937	0.01687
4979.84069	0.01689
4977.91201	0.01689
4975.98334	0.01689
4974.05466	0.01692
4972.12599	0.01696
4970.19731	0.01698
4968.26864	0.01699
4966.33996	0.01702
4964.41128	0.01706
4962.48261	0.01710
4960.55393	0.01714
4958.62526	0.01718
4956.69658	0.01719
4954.76791	0.01718
4952.83923	0.01720
4950.91055	0.01724
4948.98188	0.01728
4947.05320	0.01730
4945.12453	0.01732
4943.19585	0.01735
4941.26718	0.01739
4939.33850	0.01743
4937.40982	0.01744
4935.48115	0.01745
4933.55247	0.01750
4931.62380	0.01755
4929.69512	0.01757
4927.76645	0.01759
4925.83777	0.01762
4923.90909	0.01766
4921.98042	0.01768
4920.05174	0.01769
4918.12307	0.01770
4916.19439	0.01773
4914.26572	0.01776
4912.33704	0.01781
4910.40836	0.01785
4908.47969	0.01787
4906.55101	0.01790
4904.62234	0.01795
4902.69366	0.01801
4900.76499	0.01805
4898.83631	0.01808
4896.90763	0.01808
4894.97896	0.01810
4893.05028	0.01815
4891.12161	0.01820
4889.19293	0.01822
4887.26426	0.01822
4885.33558	0.01821
4883.40690	0.01823
4881.47823	0.01827
4879.54955	0.01832
4877.62088	0.01837
4875.69220	0.01840
4873.76353	0.01840
4871.83485	0.01839
4869.90617	0.01840
4867.97750	0.01844
4866.04882	0.01848
4864.12015	0.01852
4862.19147	0.01857
4860.26280	0.01862
4858.33412	0.01864
4856.40544	0.01866
4854.47677	0.01870
4852.54809	0.01875
4850.61942	0.01881
4848.69074	0.01884
4846.76207	0.01886
4844.83339	0.01887
4842.90471	0.01888
4840.97604	0.01890
4839.04736	0.01893
4837.11869	0.01896
4835.19001	0.01898
4833.26134	0.01902
4831.33266	0.01909
4829.40398	0.01915
4827.47531	0.01919
4825.54663	0.01922
4823.61796	0.01923
4821.68928	0.01923
4819.76061	0.01926
4817.83193	0.01931
4815.90325	0.01933
4813.97458	0.01935
4812.04590	0.01938
4810.11723	0.01940
4808.18855	0.01945
4806.25988	0.01951
4804.33120	0.01957
4802.40252	0.01958
4800.47385	0.01958
4798.54517	0.01959
4796.61650	0.01962
4794.68782	0.01965
4792.75915	0.01967
4790.83047	0.01970
4788.90179	0.01975
4786.97312	0.01980
4785.04444	0.01986
4783.11577	0.01989
4781.18709	0.01990
4779.25842	0.01992
4777.32974	0.01995
4775.40106	0.01999
4773.47239	0.02003
4771.54371	0.02007
4769.61504	0.02012
4767.68636	0.02017
4765.75769	0.02019
4763.82901	0.02020
4761.90033	0.02023
4759.97166	0.02026
4758.04298	0.02029
4756.11431	0.02034
4754.18563	0.02039
4752.25696	0.02042
4750.32828	0.02044
4748.39960	0.02047
4746.47093	0.02049
4744.54225	0.02048
4742.61358	0.02051
4740.68490	0.02057
4738.75623	0.02062
4736.82755	0.02066
4734.89887	0.02070
4732.97020	0.02075
4731.04152	0.02077
4729.11285	0.02078
4727.18417	0.02080
4725.25550	0.02084
4723.32682	0.02089
4721.39814	0.02094
4719.46947	0.02097
4717.54079	0.02100
4715.61212	0.02102
4713.68344	0.02104
4711.75477	0.02107
4709.82609	0.02111
4707.89741	0.02116
4705.96874	0.02119
4704.04006	0.02124
4702.11139	0.02129
4700.18271	0.02133
4698.25404	0.02137
4696.32536	0.02140
4694.39668	0.02141
4692.46801	0.02144
4690.53933	0.02148
4688.61066	0.02151
4686.68198	0.02152
4684.75331	0.02155
4682.82463	0.02158
4680.89595	0.02160
4678.96728	0.02163
4677.03860	0.02167
4675.10993	0.02171
4673.18125	0.02174
4671.25258	0.02177
4669.32390	0.02179
4667.39522	0.02181
4665.46655	0.02184
4663.53787	0.02191
4661.60920	0.02199
4659.68052	0.02205
4657.75185	0.02212
4655.82317	0.02219
4653.89449	0.02220
4651.96582	0.02218
4650.03714	0.02219
4648.10847	0.02225
4646.17979	0.02232
4644.25112	0.02236
4642.32244	0.02238
4640.39376	0.02238
4638.46509	0.02239
4636.53641	0.02242
4634.60774	0.02248
4632.67906	0.02253
4630.75039	0.02257
4628.82171	0.02261
4626.89303	0.02269
4624.96436	0.02274
4623.03568	0.02275
4621.10701	0.02276
4619.17833	0.02281
4617.24966	0.02286
4615.32098	0.02292
4613.39230	0.02296
4611.46363	0.02299
4609.53495	0.02302
4607.60628	0.02305
4605.67760	0.02307
4603.74893	0.02311
4601.82025	0.02317
4599.89157	0.02323
4597.96290	0.02325
4596.03422	0.02327
4594.10555	0.02330
4592.17687	0.02333
4590.24820	0.02336
4588.31952	0.02340
4586.39084	0.02345
4584.46217	0.02348
4582.53349	0.02351
4580.60482	0.02354
4578.67614	0.02357
4576.74747	0.02362
4574.81879	0.02369
4572.89011	0.02379
4570.96144	0.02385
4569.03276	0.02386
4567.10409	0.02387
4565.17541	0.02391
4563.24674	0.02395
4561.31806	0.02399
4559.38938	0.02401
4557.46071	0.02402
4555.53203	0.02405
4553.60336	0.02410
4551.67468	0.02415
4549.74601	0.02418
4547.81733	0.02421
4545.88865	0.02426
4543.95998	0.02432
4542.03130	0.02438
4540.10263	0.02442
4538.17395	0.02445
4536.24528	0.02449
4534.31660	0.02453
4532.38792	0.02457
4530.45925	0.02461
4528.53057	0.02467
4526.60190	0.02473
4524.67322	0.02478
4522.74455	0.02482
4520.81587	0.02487
4518.88719	0.02492
4516.95852	0.02495
4515.02984	0.02497
4513.10117	0.02498
4511.17249	0.02499
4509.24382	0.02504
4507.31514	0.02512
4505.38646	0.02516
4503.45779	0.02519
4501.52911	0.02524
4499.60044	0.02529
4497.67176	0.02534
4495.74309	0.02539
4493.81441	0.02542
4491.88573	0.02544
4489.95706	0.02547
4488.02838	0.02553
4486.09971	0.02558
4484.17103	0.02564
4482.24236	0.02572
4480.31368	0.02577
4478.38500	0.02579
4476.45633	0.02581
4474.52765	0.02584
4472.59898	0.02587
4470.67030	0.02591
4468.74163	0.02595
4466.81295	0.02601
4464.88427	0.02609
4462.95560	0.02614
4461.02692	0.02617
4459.09825	0.02618
4457.16957	0.02622
4455.24090	0.02626
4453.31222	0.02630
4451.38354	0.02632
4449.45487	0.02636
4447.52619	0.02642
4445.59752	0.02649
4443.66884	0.02657
4441.74017	0.02663
4439.81149	0.02666
4437.88281	0.02668
4435.95414	0.02674
4434.02546	0.02680
4432.09679	0.02685
4430.16811	0.02689
4428.23944	0.02692
4426.31076	0.02695
4424.38208	0.02699
4422.45341	0.02705
4420.52473	0.02712
4418.59606	0.02718
4416.66738	0.02725
4414.73871	0.02730
4412.81003	0.02733
4410.88135	0.02737
4408.95268	0.02743
4407.02400	0.02749
4405.09533	0.02753
4403.16665	0.02757
4401.23798	0.02761
4399.30930	0.02765
4397.38062	0.02769
4395.45195	0.02771
4393.52327	0.02773
4391.59460	0.02779
4389.66592	0.02788
4387.73725	0.02798
4385.80857	0.02805
4383.87989	0.02809
4381.95122	0.02812
4380.02254	0.02817
4378.09387	0.02822
4376.16519	0.02827
4374.23652	0.02830
4372.30784	0.02832
4370.37916	0.02837
4368.45049	0.02843
4366.52181	0.02848
4364.59314	0.02851
4362.66446	0.02855
4360.73579	0.02859
4358.80711	0.02864
4356.87843	0.02868
4354.94976	0.02871
4353.02108	0.02876
4351.09241	0.02885
4349.16373	0.02891
4347.23506	0.02895
4345.30638	0.02899
4343.37770	0.02905
4341.44903	0.02912
4339.52035	0.02921
4337.59168	0.02926
4335.66300	0.02926
4333.73433	0.02929
4331.80565	0.02938
4329.87697	0.02948
4327.94830	0.02955
4326.01962	0.02961
4324.09095	0.02965
4322.16227	0.02969
4320.23360	0.02974
4318.30492	0.02978
4316.37624	0.02982
4314.44757	0.02986
4312.51889	0.02993
4310.59022	0.03001
4308.66154	0.03008
4306.73287	0.03013
4304.80419	0.03018
4302.87551	0.03023
4300.94684	0.03030
4299.01816	0.03038
4297.08949	0.03044
4295.16081	0.03047
4293.23214	0.03050
4291.30346	0.03052
4289.37478	0.03059
4287.44611	0.03069
4285.51743	0.03077
4283.58876	0.03082
4281.66008	0.03086
4279.73141	0.03090
4277.80273	0.03096
4275.87405	0.03104
4273.94538	0.03110
4272.01670	0.03112
4270.08803	0.03116
4268.15935	0.03121
4266.23068	0.03125
4264.30200	0.03130
4262.37332	0.03139
4260.44465	0.03148
4258.51597	0.03155
4256.58730	0.03162
4254.65862	0.03172
4252.72995	0.03180
4250.80127	0.03183
4248.87259	0.03183
4246.94392	0.03185
4245.01524	0.03189
4243.08657	0.03195
4241.15789	0.03203
4239.22922	0.03209
4237.30054	0.03214
4235.37186	0.03221
4233.44319	0.03227
4231.51451	0.03232
4229.58584	0.03237
4227.65716	0.03244
4225.72849	0.03251
4223.79981	0.03259
4221.87113	0.03265
4219.94246	0.03272
4218.01378	0.03275
4216.08511	0.03275
4214.15643	0.03279
4212.22776	0.03292
4210.29908	0.03303
4208.37040	0.03308
4206.44173	0.03313
4204.51305	0.03321
4202.58438	0.03329
4200.65570	0.03334
4198.72703	0.03336
4196.79835	0.03342
4194.86968	0.03350
4192.94100	0.03357
4191.01232	0.03361
4189.08365	0.03365
4187.15497	0.03371
4185.22630	0.03378
4183.29762	0.03386
4181.36895	0.03396
4179.44027	0.03404
4177.51159	0.03409
4175.58292	0.03412
4173.65424	0.03416
4171.72557	0.03420
4169.79689	0.03425
4167.86822	0.03432
4165.93954	0.03438
4164.01086	0.03445
4162.08219	0.03453
4160.15351	0.03461
4158.22484	0.03466
4156.29616	0.03473
4154.36749	0.03480
4152.43881	0.03488
4150.51013	0.03499
4148.58146	0.03509
4146.65278	0.03513
4144.72411	0.03515
4142.79543	0.03523
4140.86676	0.03533
4138.93808	0.03543
4137.00940	0.03550
4135.08073	0.03554
4133.15205	0.03554
4131.22338	0.03558
4129.29470	0.03568
4127.36603	0.03579
4125.43735	0.03586
4123.50867	0.03591
4121.58000	0.03598
4119.65132	0.03604
4117.72265	0.03609
4115.79397	0.03614
4113.86530	0.03621
4111.93662	0.03628
4110.00794	0.03636
4108.07927	0.03645
4106.15059	0.03652
4104.22192	0.03656
4102.29324	0.03659
4100.36457	0.03666
4098.43589	0.03676
4096.50721	0.03684
4094.57854	0.03691
4092.64986	0.03700
4090.72119	0.03709
4088.79251	0.03716
4086.86384	0.03724
4084.93516	0.03729
4083.00648	0.03729
4081.07781	0.03732
4079.14913	0.03742
4077.22046	0.03756
4075.29178	0.03767
4073.36311	0.03773
4071.43443	0.03777
4069.50575	0.03781
4067.57708	0.03788
4065.64840	0.03797
4063.71973	0.03807
4061.79105	0.03816
4059.86238	0.03824
4057.93370	0.03831
4056.00502	0.03835
4054.07635	0.03839
4052.14767	0.03844
4050.21900	0.03853
4048.29032	0.03862
4046.36165	0.03867
4044.43297	0.03872
4042.50429	0.03880
4040.57562	0.03890
4038.64694	0.03899
4036.71827	0.03904
4034.78959	0.03911
4032.86092	0.03920
4030.93224	0.03930
4029.00356	0.03939
4027.07489	0.03944
4025.14621	0.03949
4023.21754	0.03957
4021.28886	0.03965
4019.36019	0.03972
4017.43151	0.03979
4015.50283	0.03986
4013.57416	0.03996
4011.64548	0.04005
4009.71681	0.04012
4007.78813	0.04017
4005.85946	0.04024
4003.93078	0.04034
4002.00210	0.04042
4000.07343	0.04048
3998.14475	0.04055
3996.21608	0.04062
3994.28740	0.04070
3992.35873	0.04076
3990.43005	0.04083
3988.50137	0.04091
3986.57270	0.04098
3984.64402	0.04105
3982.71535	0.04114
3980.78667	0.04125
3978.85800	0.04134
3976.92932	0.04141
3975.00064	0.04148
3973.07197	0.04155
3971.14329	0.04162
3969.21462	0.04168
3967.28594	0.04173
3965.35727	0.04177
3963.42859	0.04182
3961.49991	0.04188
3959.57124	0.04196
3957.64256	0.04206
3955.71389	0.04218
3953.78521	0.04229
3951.85654	0.04236
3949.92786	0.04237
3947.99918	0.04243
3946.07051	0.04258
3944.14183	0.04271
3942.21316	0.04278
3940.28448	0.04284
3938.35581	0.04293
3936.42713	0.04302
3934.49845	0.04307
3932.56978	0.04309
3930.64110	0.04318
3928.71243	0.04329
3926.78375	0.04336
3924.85508	0.04342
3922.92640	0.04351
3920.99772	0.04358
3919.06905	0.04359
3917.14037	0.04364
3915.21170	0.04380
3913.28302	0.04399
3911.35435	0.04412
3909.42567	0.04419
3907.49699	0.04417
3905.56832	0.04410
3903.63964	0.04405
3901.71097	0.04408
3899.78229	0.04424
3897.85362	0.04451
3895.92494	0.04473
3893.99626	0.04473
3892.06759	0.04467
3890.13891	0.04478
3888.21024	0.04494
3886.28156	0.04501
3884.35289	0.04503
3882.42421	0.04505
3880.49553	0.04513
3878.56686	0.04536
3876.63818	0.04557
3874.70951	0.04563
3872.78083	0.04563
3870.85216	0.04564
3868.92348	0.04569
3866.99480	0.04573
3865.06613	0.04576
3863.13745	0.04588
3861.20878	0.04609
3859.28010	0.04622
3857.35143	0.04609
3855.42275	0.04579
3853.49407	0.04577
3851.56540	0.04619
3849.63672	0.04664
3847.70805	0.04687
3845.77937	0.04696
3843.85070	0.04702
3841.92202	0.04705
3839.99334	0.04702
3838.06467	0.04700
3836.13599	0.04709
3834.20732	0.04724
3832.27864	0.04737
3830.34997	0.04748
3828.42129	0.04758
3826.49261	0.04767
3824.56394	0.04773
3822.63526	0.04775
3820.70659	0.04781
3818.77791	0.04787
3816.84924	0.04791
3814.92056	0.04810
3812.99188	0.04841
3811.06321	0.04859
3809.13453	0.04862
3807.20586	0.04866
3805.27718	0.04871
3803.34851	0.04869
3801.41983	0.04868
3799.49115	0.04883
3797.56248	0.04901
3795.63380	0.04917
3793.70513	0.04936
3791.77645	0.04952
3789.84778	0.04964
3787.91910	0.04971
3785.99042	0.04976
3784.06175	0.04982
3782.13307	0.04988
3780.20440	0.04994
3778.27572	0.05005
3776.34705	0.05021
3774.41837	0.05031
3772.48969	0.05030
3770.56102	0.05030
3768.63234	0.05040
3766.70367	0.05056
3764.77499	0.05069
3762.84632	0.05075
3760.91764	0.05074
3758.98896	0.05077
3757.06029	0.05089
3755.13161	0.05093
3753.20294	0.05082
3751.27426	0.05080
3749.34559	0.05097
3747.41691	0.05094
3745.48823	0.05068
3743.55956	0.05079
3741.63088	0.05128
3739.70221	0.05152
3737.77353	0.05145
3735.84486	0.05148
3733.91618	0.05172
3731.98750	0.05197
3730.05883	0.05216
3728.13015	0.05227
3726.20148	0.05234
3724.27280	0.05241
3722.34413	0.05252
3720.41545	0.05270
3718.48677	0.05290
3716.55810	0.05302
3714.62942	0.05303
3712.70075	0.05301
3710.77207	0.05306
3708.84340	0.05323
3706.91472	0.05345
3704.98604	0.05359
3703.05737	0.05362
3701.12869	0.05368
3699.20002	0.05385
3697.27134	0.05403
3695.34267	0.05410
3693.41399	0.05404
3691.48531	0.05393
3689.55664	0.05396
3687.62796	0.05417
3685.69929	0.05445
3683.77061	0.05460
3681.84194	0.05464
3679.91326	0.05462
3677.98458	0.05455
3676.05591	0.05453
3674.12723	0.05470
3672.19856	0.05489
3670.26988	0.05494
3668.34121	0.05507
3666.41253	0.05535
3664.48385	0.05557
3662.55518	0.05565
3660.62650	0.05569
3658.69783	0.05571
3656.76915	0.05572
3654.84048	0.05575
3652.91180	0.05569
3650.98312	0.05548
3649.05445	0.05537
3647.12577	0.05555
3645.19710	0.05592
3643.26842	0.05623
3641.33975	0.05640
3639.41107	0.05650
3637.48239	0.05659
3635.55372	0.05668
3633.62504	0.05672
3631.69637	0.05669
3629.76769	0.05667
3627.83902	0.05678
3625.91034	0.05701
3623.98166	0.05713
3622.05299	0.05706
3620.12431	0.05695
3618.19564	0.05703
3616.26696	0.05720
3614.33829	0.05726
3612.40961	0.05724
3610.48093	0.05722
3608.55226	0.05733
3606.62358	0.05759
3604.69491	0.05781
3602.76623	0.05786
3600.83756	0.05789
3598.90888	0.05799
3596.98020	0.05808
3595.05153	0.05811
3593.12285	0.05814
3591.19418	0.05818
3589.26550	0.05815
3587.33683	0.05817
3585.40815	0.05835
3583.47947	0.05858
3581.55080	0.05873
3579.62212	0.05884
3577.69345	0.05893
3575.76477	0.05899
3573.83610	0.05903
3571.90742	0.05904
3569.97874	0.05896
3568.05007	0.05888
3566.12139	0.05899
3564.19272	0.05923
3562.26404	0.05944
3560.33537	0.05956
3558.40669	0.05965
3556.47801	0.05970
3554.54934	0.05973
3552.62066	0.05976
3550.69199	0.05984
3548.76331	0.05991
3546.83464	0.05997
3544.90596	0.06003
3542.97728	0.06011
3541.04861	0.06020
3539.11993	0.06027
3537.19126	0.06031
3535.26258	0.06038
3533.33391	0.06046
3531.40523	0.06050
3529.47655	0.06052
3527.54788	0.06055
3525.61920	0.06058
3523.69053	0.06061
3521.76185	0.06066
3519.83318	0.06074
3517.90450	0.06080
3515.97582	0.06084
3514.04715	0.06090
3512.11847	0.06094
3510.18980	0.06097
3508.26112	0.06100
3506.33245	0.06100
3504.40377	0.06096
3502.47509	0.06096
3500.54642	0.06102
3498.61774	0.06111
3496.68907	0.06117
3494.76039	0.06117
3492.83172	0.06117
3490.90304	0.06121
3488.97436	0.06125
3487.04569	0.06127
3485.11701	0.06128
3483.18834	0.06130
3481.25966	0.06135
3479.33099	0.06145
3477.40231	0.06156
3475.47363	0.06163
3473.54496	0.06168
3471.61628	0.06174
3469.68761	0.06186
3467.75893	0.06198
3465.83026	0.06208
3463.90158	0.06218
3461.97290	0.06227
3460.04423	0.06235
3458.11555	0.06243
3456.18688	0.06257
3454.25820	0.06272
3452.32953	0.06283
3450.40085	0.06288
3448.47217	0.06291
3446.54350	0.06298
3444.61482	0.06310
3442.68615	0.06321
3440.75747	0.06333
3438.82880	0.06350
3436.90012	0.06370
3434.97144	0.06390
3433.04277	0.06407
3431.11409	0.06425
3429.18542	0.06444
3427.25674	0.06464
3425.32807	0.06483
3423.39939	0.06502
3421.47071	0.06521
3419.54204	0.06544
3417.61336	0.06566
3415.68469	0.06583
3413.75601	0.06596
3411.82734	0.06610
3409.89866	0.06626
3407.96998	0.06638
3406.04131	0.06647
3404.11263	0.06659
3402.18396	0.06674
3400.25528	0.06691
3398.32661	0.06706
3396.39793	0.06721
3394.46925	0.06732
3392.54058	0.06742
3390.61190	0.06757
3388.68323	0.06776
3386.75455	0.06792
3384.82588	0.06803
3382.89720	0.06816
3380.96852	0.06830
3379.03985	0.06845
3377.11117	0.06861
3375.18250	0.06877
3373.25382	0.06888
3371.32515	0.06899
3369.39647	0.06913
3367.46779	0.06926
3365.53912	0.06939
3363.61044	0.06953
3361.68177	0.06967
3359.75309	0.06980
3357.82442	0.06990
3355.89574	0.07001
3353.96706	0.07013
3352.03839	0.07025
3350.10971	0.07039
3348.18104	0.07051
3346.25236	0.07061
3344.32369	0.07071
3342.39501	0.07087
3340.46633	0.07101
3338.53766	0.07110
3336.60898	0.07119
3334.68031	0.07129
3332.75163	0.07141
3330.82296	0.07156
3328.89428	0.07172
3326.96560	0.07186
3325.03693	0.07199
3323.10825	0.07211
3321.17958	0.07226
3319.25090	0.07241
3317.32223	0.07252
3315.39355	0.07265
3313.46487	0.07282
3311.53620	0.07297
3309.60752	0.07307
3307.67885	0.07316
3305.75017	0.07328
3303.82150	0.07342
3301.89282	0.07357
3299.96414	0.07375
3298.03547	0.07391
3296.10679	0.07406
3294.17812	0.07417
3292.24944	0.07427
3290.32077	0.07440
3288.39209	0.07454
3286.46341	0.07467
3284.53474	0.07480
3282.60606	0.07496
3280.67739	0.07510
3278.74871	0.07520
3276.82004	0.07528
3274.89136	0.07541
3272.96268	0.07558
3271.03401	0.07574
3269.10533	0.07587
3267.17666	0.07599
3265.24798	0.07610
3263.31931	0.07624
3261.39063	0.07640
3259.46195	0.07655
3257.53328	0.07670
3255.60460	0.07686
3253.67593	0.07701
3251.74725	0.07716
3249.81858	0.07732
3247.88990	0.07747
3245.96122	0.07762
3244.03255	0.07779
3242.10387	0.07794
3240.17520	0.07804
3238.24652	0.07812
3236.31785	0.07825
3234.38917	0.07839
3232.46049	0.07854
3230.53182	0.07868
3228.60314	0.07881
3226.67447	0.07896
3224.74579	0.07911
3222.81712	0.07925
3220.88844	0.07937
3218.95976	0.07951
3217.03109	0.07968
3215.10241	0.07983
3213.17374	0.07995
3211.24506	0.08006
3209.31639	0.08019
3207.38771	0.08036
3205.45903	0.08052
3203.53036	0.08064
3201.60168	0.08073
3199.67301	0.08084
3197.74433	0.08102
3195.81566	0.08123
3193.88698	0.08142
3191.95830	0.08158
3190.02963	0.08172
3188.10095	0.08187
3186.17228	0.08203
3184.24360	0.08219
3182.31493	0.08233
3180.38625	0.08245
3178.45757	0.08258
3176.52890	0.08275
3174.60022	0.08292
3172.67155	0.08306
3170.74287	0.08316
3168.81420	0.08327
3166.88552	0.08340
3164.95684	0.08360
3163.02817	0.08382
3161.09949	0.08399
3159.17082	0.08409
3157.24214	0.08422
3155.31347	0.08437
3153.38479	0.08455
3151.45611	0.08471
3149.52744	0.08485
3147.59876	0.08495
3145.67009	0.08506
3143.74141	0.08522
3141.81274	0.08538
3139.88406	0.08552
3137.95538	0.08564
3136.02671	0.08578
3134.09803	0.08591
3132.16936	0.08602
3130.24068	0.08615
3128.31201	0.08631
3126.38333	0.08646
3124.45465	0.08660
3122.52598	0.08674
3120.59730	0.08689
3118.66863	0.08703
3116.73995	0.08717
3114.81128	0.08731
3112.88260	0.08744
3110.95392	0.08759
3109.02525	0.08776
3107.09657	0.08794
3105.16790	0.08809
3103.23922	0.08824
3101.31055	0.08841
3099.38187	0.08856
3097.45319	0.08869
3095.52452	0.08883
3093.59584	0.08899
3091.66717	0.08913
3089.73849	0.08924
3087.80982	0.08935
3085.88114	0.08949
3083.95246	0.08963
3082.02379	0.08975
3080.09511	0.08991
3078.16644	0.09010
3076.23776	0.09025
3074.30909	0.09037
3072.38041	0.09052
3070.45173	0.09070
3068.52306	0.09085
3066.59438	0.09096
3064.66571	0.09110
3062.73703	0.09128
3060.80836	0.09143
3058.87968	0.09155
3056.95100	0.09171
3055.02233	0.09188
3053.09365	0.09200
3051.16498	0.09209
3049.23630	0.09222
3047.30763	0.09242
3045.37895	0.09259
3043.45027	0.09270
3041.52160	0.09280
3039.59292	0.09296
3037.66425	0.09314
3035.73557	0.09331
3033.80690	0.09350
3031.87822	0.09366
3029.94954	0.09373
3028.02087	0.09380
3026.09219	0.09392
3024.16352	0.09409
3022.23484	0.09426
3020.30617	0.09441
3018.37749	0.09455
3016.44881	0.09468
3014.52014	0.09484
3012.59146	0.09504
3010.66279	0.09523
3008.73411	0.09538
3006.80544	0.09549
3004.87676	0.09560
3002.94808	0.09573
3001.01941	0.09587
2999.09073	0.09599
2997.16206	0.09612
2995.23338	0.09626
2993.30471	0.09643
2991.37603	0.09660
2989.44735	0.09672
2987.51868	0.09681
2985.59000	0.09690
2983.66133	0.09698
2981.73265	0.09704
2979.80398	0.09709
2977.87530	0.09713
2975.94662	0.09716
2974.01795	0.09715
2972.08927	0.09715
2970.16060	0.09716
2968.23192	0.09717
2966.30325	0.09717
2964.37457	0.09720
2962.44589	0.09729
2960.51722	0.09743
2958.58854	0.09758
2956.65987	0.09777
2954.73119	0.09798
2952.80252	0.09815
2950.87384	0.09829
2948.94516	0.09846
2947.01649	0.09862
2945.08781	0.09875
2943.15914	0.09880
2941.23046	0.09880
2939.30179	0.09882
2937.37311	0.09883
2935.44443	0.09881
2933.51576	0.09877
2931.58708	0.09874
2929.65841	0.09873
2927.72973	0.09872
2925.80106	0.09869
2923.87238	0.09868
2921.94370	0.09873
2920.01503	0.09886
2918.08635	0.09907
2916.15768	0.09938
2914.22900	0.09981
2912.30033	0.10030
2910.37165	0.10072
2908.44297	0.10104
2906.51430	0.10132
2904.58562	0.10163
2902.65695	0.10192
2900.72827	0.10213
2898.79960	0.10227
2896.87092	0.10245
2894.94224	0.10272
2893.01357	0.10300
2891.08489	0.10321
2889.15622	0.10337
2887.22754	0.10352
2885.29887	0.10367
2883.37019	0.10382
2881.44151	0.10396
2879.51284	0.10409
2877.58416	0.10424
2875.65549	0.10440
2873.72681	0.10453
2871.79814	0.10467
2869.86946	0.10484
2867.94078	0.10500
2866.01211	0.10508
2864.08343	0.10511
2862.15476	0.10515
2860.22608	0.10522
2858.29741	0.10531
2856.36873	0.10535
2854.44005	0.10532
2852.51138	0.10526
2850.58270	0.10531
2848.65403	0.10558
2846.72535	0.10606
2844.79668	0.10657
2842.86800	0.10696
2840.93932	0.10727
2839.01065	0.10757
2837.08197	0.10787
2835.15330	0.10812
2833.22462	0.10833
2831.29595	0.10849
2829.36727	0.10866
2827.43859	0.10885
2825.50992	0.10905
2823.58124	0.10921
2821.65257	0.10934
2819.72389	0.10948
2817.79522	0.10967
2815.86654	0.10987
2813.93786	0.11005
2812.00919	0.11020
2810.08051	0.11037
2808.15184	0.11058
2806.22316	0.11078
2804.29449	0.11093
2802.36581	0.11104
2800.43713	0.11117
2798.50846	0.11135
2796.57978	0.11151
2794.65111	0.11165
2792.72243	0.11177
2790.79376	0.11192
2788.86508	0.11210
2786.93640	0.11231
2785.00773	0.11250
2783.07905	0.11267
2781.15038	0.11280
2779.22170	0.11293
2777.29303	0.11308
2775.36435	0.11326
2773.43567	0.11344
2771.50700	0.11359
2769.57832	0.11374
2767.64965	0.11391
2765.72097	0.11406
2763.79230	0.11418
2761.86362	0.11434
2759.93494	0.11452
2758.00627	0.11467
2756.07759	0.11481
2754.14892	0.11495
2752.22024	0.11512
2750.29157	0.11529
2748.36289	0.11546
2746.43421	0.11563
2744.50554	0.11577
2742.57686	0.11587
2740.64819	0.11596
2738.71951	0.11609
2736.79084	0.11625
2734.86216	0.11642
2732.93348	0.11660
2731.00481	0.11679
2729.07613	0.11695
2727.14746	0.11709
2725.21878	0.11723
2723.29011	0.11739
2721.36143	0.11758
2719.43275	0.11775
2717.50408	0.11788
2715.57540	0.11797
2713.64673	0.11809
2711.71805	0.11825
2709.78938	0.11842
2707.86070	0.11858
2705.93202	0.11872
2704.00335	0.11886
2702.07467	0.11903
2700.14600	0.11917
2698.21732	0.11930
2696.28865	0.11949
2694.35997	0.11973
2692.43129	0.11989
2690.50262	0.11997
2688.57394	0.12005
2686.64527	0.12021
2684.71659	0.12039
2682.78792	0.12054
2680.85924	0.12069
2678.93056	0.12083
2677.00189	0.12099
2675.07321	0.12113
2673.14454	0.12122
2671.21586	0.12130
2669.28719	0.12143
2667.35851	0.12161
2665.42983	0.12180
2663.50116	0.12199
2661.57248	0.12217
2659.64381	0.12234
2657.71513	0.12252
2655.78646	0.12269
2653.85778	0.12283
2651.92910	0.12296
2650.00043	0.12312
2648.07175	0.12328
2646.14308	0.12347
2644.21440	0.12367
2642.28573	0.12388
2640.35705	0.12404
2638.42837	0.12416
2636.49970	0.12425
2634.57102	0.12437
2632.64235	0.12450
2630.71367	0.12465
2628.78500	0.12483
2626.85632	0.12499
2624.92764	0.12513
2622.99897	0.12528
2621.07029	0.12549
2619.14162	0.12568
2617.21294	0.12584
2615.28427	0.12599
2613.35559	0.12615
2611.42691	0.12631
2609.49824	0.12645
2607.56956	0.12663
2605.64089	0.12688
2603.71221	0.12710
2601.78354	0.12723
2599.85486	0.12734
2597.92618	0.12751
2595.99751	0.12771
2594.06883	0.12790
2592.14016	0.12807
2590.21148	0.12817
2588.28281	0.12824
2586.35413	0.12838
2584.42545	0.12859
2582.49678	0.12877
2580.56810	0.12891
2578.63943	0.12907
2576.71075	0.12924
2574.78208	0.12939
2572.85340	0.12952
2570.92472	0.12964
2568.99605	0.12979
2567.06737	0.12996
2565.13870	0.13014
2563.21002	0.13033
2561.28135	0.13051
2559.35267	0.13067
2557.42399	0.13086
2555.49532	0.13100
2553.56664	0.13109
2551.63797	0.13123
2549.70929	0.13145
2547.78062	0.13163
2545.85194	0.13174
2543.92326	0.13187
2541.99459	0.13202
2540.06591	0.13218
2538.13724	0.13236
2536.20856	0.13251
2534.27989	0.13262
2532.35121	0.13275
2530.42253	0.13292
2528.49386	0.13308
2526.56518	0.13326
2524.63651	0.13347
2522.70783	0.13367
2520.77916	0.13384
2518.85048	0.13396
2516.92181	0.13412
2514.99313	0.13434
2513.06445	0.13452
2511.13578	0.13464
2509.20710	0.13473
2507.27843	0.13485
2505.34975	0.13502
2503.42108	0.13524
2501.49240	0.13550
2499.56372	0.13575
2497.63505	0.13594
2495.70637	0.13607
2493.77770	0.13620
2491.84902	0.13638
2489.92035	0.13660
2487.99167	0.13678
2486.06299	0.13691
2484.13432	0.13701
2482.20564	0.13714
2480.27697	0.13727
2478.34829	0.13743
2476.41962	0.13761
2474.49094	0.13780
2472.56226	0.13801
2470.63359	0.13824
2468.70491	0.13843
2466.77624	0.13858
2464.84756	0.13871
2462.91889	0.13883
2460.99021	0.13895
2459.06153	0.13910
2457.13286	0.13931
2455.20418	0.13954
2453.27551	0.13973
2451.34683	0.13988
2449.41816	0.14004
2447.48948	0.14023
2445.56080	0.14045
2443.63213	0.14067
2441.70345	0.14083
2439.77478	0.14093
2437.84610	0.14102
2435.91743	0.14117
2433.98875	0.14136
2432.06007	0.14157
2430.13140	0.14179
2428.20272	0.14199
2426.27405	0.14214
2424.34537	0.14227
2422.41670	0.14237
2420.48802	0.14248
2418.55934	0.14267
2416.63067	0.14294
2414.70199	0.14320
2412.77332	0.14337
2410.84464	0.14354
2408.91597	0.14370
2406.98729	0.14381
2405.05861	0.14390
2403.12994	0.14404
2401.20126	0.14424
2399.27259	0.14444
2397.34391	0.14460
2395.41524	0.14475
2393.48656	0.14493
2391.55788	0.14510
2389.62921	0.14522
2387.70053	0.14535
2385.77186	0.14549
2383.84318	0.14563
2381.91451	0.14574
2379.98583	0.14583
2378.05715	0.14594
2376.12848	0.14601
2374.19980	0.14600
2372.27113	0.14597
2370.34245	0.14600
2368.41378	0.14607
2366.48510	0.14613
2364.55642	0.14621
2362.62775	0.14636
2360.69907	0.14656
2358.77040	0.14676
2356.84172	0.14701
2354.91305	0.14732
2352.98437	0.14764
2351.05569	0.14796
2349.12702	0.14822
2347.19834	0.14833
2345.26967	0.14836
2343.34099	0.14843
2341.41232	0.14855
2339.48364	0.14870
2337.55496	0.14884
2335.62629	0.14896
2333.69761	0.14907
2331.76894	0.14920
2329.84026	0.14935
2327.91159	0.14955
2325.98291	0.14977
2324.05423	0.15001
2322.12556	0.15025
2320.19688	0.15049
2318.26821	0.15073
2316.33953	0.15099
2314.41086	0.15125
2312.48218	0.15148
2310.55350	0.15168
2308.62483	0.15188
2306.69615	0.15210
2304.76748	0.15232
2302.83880	0.15252
2300.91013	0.15266
2298.98145	0.15281
2297.05277	0.15301
2295.12410	0.15322
2293.19542	0.15343
2291.26675	0.15363
2289.33807	0.15380
2287.40940	0.15391
2285.48072	0.15398
2283.55204	0.15414
2281.62337	0.15438
2279.69469	0.15462
2277.76602	0.15477
2275.83734	0.15490
2273.90867	0.15505
2271.97999	0.15525
2270.05131	0.15548
2268.12264	0.15570
2266.19396	0.15589
2264.26529	0.15605
2262.33661	0.15616
2260.40794	0.15627
2258.47926	0.15640
2256.55058	0.15657
2254.62191	0.15675
2252.69323	0.15690
2250.76456	0.15705
2248.83588	0.15722
2246.90721	0.15740
2244.97853	0.15757
2243.04985	0.15771
2241.12118	0.15783
2239.19250	0.15799
2237.26383	0.15818
2235.33515	0.15835
2233.40648	0.15849
2231.47780	0.15867
2229.54912	0.15885
2227.62045	0.15899
2225.69177	0.15912
2223.76310	0.15930
2221.83442	0.15951
2219.90575	0.15969
2217.97707	0.15985
2216.04839	0.16004
2214.11972	0.16028
2212.19104	0.16048
2210.26237	0.16061
2208.33369	0.16072
2206.40502	0.16088
2204.47634	0.16106
2202.54766	0.16118
2200.61899	0.16128
2198.69031	0.16145
2196.76164	0.16162
2194.83296	0.16175
2192.90429	0.16189
2190.97561	0.16209
2189.04693	0.16229
2187.11826	0.16246
2185.18958	0.16265
2183.26091	0.16283
2181.33223	0.16296
2179.40356	0.16305
2177.47488	0.16316
2175.54620	0.16331
2173.61753	0.16349
2171.68885	0.16369
2169.76018	0.16390
2167.83150	0.16415
2165.90283	0.16437
2163.97415	0.16451
2162.04547	0.16459
2160.11680	0.16473
2158.18812	0.16495
2156.25945	0.16520
2154.33077	0.16539
2152.40210	0.16555
2150.47342	0.16572
2148.54474	0.16591
2146.61607	0.16608
2144.68739	0.16620
2142.75872	0.16631
2140.83004	0.16644
2138.90137	0.16659
2136.97269	0.16679
2135.04401	0.16700
2133.11534	0.16719
2131.18666	0.16737
2129.25799	0.16755
2127.32931	0.16772
2125.40064	0.16788
2123.47196	0.16802
2121.54328	0.16822
2119.61461	0.16844
2117.68593	0.16864
2115.75726	0.16880
2113.82858	0.16895
2111.89991	0.16906
2109.97123	0.16916
2108.04255	0.16930
2106.11388	0.16949
2104.18520	0.16965
2102.25653	0.16982
2100.32785	0.17001
2098.39918	0.17018
2096.47050	0.17035
2094.54182	0.17055
2092.61315	0.17077
2090.68447	0.17097
2088.75580	0.17115
2086.82712	0.17132
2084.89845	0.17147
2082.96977	0.17162
2081.04109	0.17178
2079.11242	0.17189
2077.18374	0.17198
2075.25507	0.17211
2073.32639	0.17226
2071.39772	0.17244
2069.46904	0.17265
2067.54036	0.17286
2065.61169	0.17303
2063.68301	0.17319
2061.75434	0.17334
2059.82566	0.17345
2057.89699	0.17361
2055.96831	0.17386
2054.03963	0.17410
2052.11096	0.17427
2050.18228	0.17443
2048.25361	0.17460
2046.32493	0.17474
2044.39626	0.17483
2042.46758	0.17495
2040.53890	0.17515
2038.61023	0.17540
2036.68155	0.17563
2034.75288	0.17580
2032.82420	0.17594
2030.89553	0.17607
2028.96685	0.17622
2027.03817	0.17640
2025.10950	0.17659
2023.18082	0.17674
2021.25215	0.17685
2019.32347	0.17697
2017.39480	0.17718
2015.46612	0.17744
2013.53744	0.17764
2011.60877	0.17776
2009.68009	0.17789
2007.75142	0.17805
2005.82274	0.17823
2003.89407	0.17841
2001.96539	0.17857
2000.03671	0.17875
1998.10804	0.17892
1996.17936	0.17910
1994.25069	0.17926
1992.32201	0.17937
1990.39334	0.17953
1988.46466	0.17976
1986.53598	0.17998
1984.60731	0.18016
1982.67863	0.18033
1980.74996	0.18047
1978.82128	0.18058
1976.89261	0.18066
1974.96393	0.18076
1973.03525	0.18088
1971.10658	0.18102
1969.17790	0.18115
1967.24923	0.18133
1965.32055	0.18157
1963.39188	0.18175
1961.46320	0.18182
1959.53452	0.18191
1957.60585	0.18206
1955.67717	0.18225
1953.74850	0.18247
1951.81982	0.18269
1949.89115	0.18283
1947.96247	0.18295
1946.03379	0.18305
1944.10512	0.18309
1942.17644	0.18321
1940.24777	0.18346
1938.31909	0.18370
1936.39042	0.18389
1934.46174	0.18412
1932.53306	0.18440
1930.60439	0.18466
1928.67571	0.18479
1926.74704	0.18482
1924.81836	0.18481
1922.88969	0.18484
1920.96101	0.18491
1919.03233	0.18500
1917.10366	0.18526
1915.17498	0.18565
1913.24631	0.18587
1911.31763	0.18593
1909.38896	0.18602
1907.46028	0.18622
1905.53160	0.18645
1903.60293	0.18664
1901.67425	0.18679
1899.74558	0.18696
1897.81690	0.18716
1895.88823	0.18735
1893.95955	0.18750
1892.03087	0.18760
1890.10220	0.18769
1888.17352	0.18785
1886.24485	0.18805
1884.31617	0.18823
1882.38750	0.18838
1880.45882	0.18855
1878.53014	0.18877
1876.60147	0.18900
1874.67279	0.18918
1872.74412	0.18916
1870.81544	0.18888
1868.88677	0.18880
1866.95809	0.18923
1865.02941	0.18979
1863.10074	0.19009
1861.17206	0.19022
1859.24339	0.19037
1857.31471	0.19061
1855.38604	0.19088
1853.45736	0.19114
1851.52868	0.19131
1849.60001	0.19139
1847.67133	0.19136
1845.74266	0.19130
1843.81398	0.19143
1841.88531	0.19177
1839.95663	0.19211
1838.02795	0.19232
1836.09928	0.19250
1834.17060	0.19266
1832.24193	0.19265
1830.31325	0.19259
1828.38458	0.19277
1826.45590	0.19303
1824.52722	0.19326
1822.59855	0.19358
1820.66987	0.19390
1818.74120	0.19413
1816.81252	0.19430
1814.88385	0.19437
1812.95517	0.19434
1811.02649	0.19435
1809.09782	0.19452
1807.16914	0.19476
1805.24047	0.19493
1803.31179	0.19496
1801.38312	0.19492
1799.45444	0.19498
1797.52576	0.19510
1795.59709	0.19501
1793.66841	0.19481
1791.73974	0.19503
1789.81106	0.19563
1787.88239	0.19590
1785.95371	0.19579
1784.02503	0.19579
1782.09636	0.19593
1780.16768	0.19617
1778.23901	0.19657
1776.31033	0.19682
1774.38166	0.19669
1772.45298	0.19654
1770.52430	0.19669
1768.59563	0.19698
1766.66695	0.19721
1764.73828	0.19722
1762.80960	0.19704
1760.88093	0.19711
1758.95225	0.19741
1757.02357	0.19763
1755.09490	0.19762
1753.16622	0.19726
1751.23755	0.19686
1749.30887	0.19689
1747.38020	0.19713
1745.45152	0.19720
1743.52284	0.19718
1741.59417	0.19723
1739.66549	0.19740
1737.73682	0.19748
1735.80814	0.19725
1733.87947	0.19716
1731.95079	0.19757
1730.02211	0.19811
1728.09344	0.19848
1726.16476	0.19867
1724.23609	0.19874
1722.30741	0.19880
1720.37874	0.19872
1718.45006	0.19853
1716.52138	0.19862
1714.59271	0.19907
1712.66403	0.19956
1710.73536	0.19983
1708.80668	0.19985
1706.87801	0.19966
1704.94933	0.19934
1703.02065	0.19870
1701.09198	0.19815
1699.16330	0.19846
1697.23463	0.19928
1695.30595	0.19991
1693.37728	0.20033
1691.44860	0.20044
1689.51992	0.20032
1687.59125	0.20010
1685.66257	0.19982
1683.73390	0.19988
1681.80522	0.20034
1679.87655	0.20068
1677.94787	0.20064
1676.01919	0.20044
1674.09052	0.20039
1672.16184	0.20041
1670.23317	0.20041
1668.30449	0.20063
1666.37582	0.20089
1664.44714	0.20076
1662.51846	0.20068
1660.58979	0.20104
1658.66111	0.20131
1656.73244	0.20095
1654.80376	0.20024
1652.87509	0.20004
1650.94641	0.20040
1649.01773	0.20053
1647.08906	0.20056
1645.16038	0.20102
1643.23171	0.20154
1641.30303	0.20165
1639.37436	0.20145
1637.44568	0.20103
1635.51700	0.20091
1633.58833	0.20146
1631.65965	0.20203
1629.73098	0.20203
1627.80230	0.20179
1625.87363	0.20156
1623.94495	0.20128
1622.01627	0.20099
1620.08760	0.20076
1618.15892	0.20069
1616.23025	0.20122
1614.30157	0.20231
1612.37290	0.20311
1610.44422	0.20343
1608.51554	0.20377
1606.58687	0.20417
1604.65819	0.20442
1602.72952	0.20454
1600.80084	0.20472
1598.87217	0.20499
1596.94349	0.20518
1595.01481	0.20528
1593.08614	0.20540
1591.15746	0.20563
1589.22879	0.20588
1587.30011	0.20607
1585.37144	0.20627
1583.44276	0.20650
1581.51408	0.20664
1579.58541	0.20662
1577.65673	0.20654
1575.72806	0.20664
1573.79938	0.20686
1571.87071	0.20688
1569.94203	0.20686
1568.01335	0.20712
1566.08468	0.20750
1564.15600	0.20760
1562.22733	0.20708
1560.29865	0.20629
1558.36998	0.20635
1556.44130	0.20729
1554.51262	0.20805
1552.58395	0.20833
1550.65527	0.20846
1548.72660	0.20862
1546.79792	0.20865
1544.86925	0.20838
1542.94057	0.20791
1541.01189	0.20759
1539.08322	0.20795
1537.15454	0.20865
1535.22587	0.20888
1533.29719	0.20883
1531.36852	0.20903
1529.43984	0.20921
1527.51116	0.20912
1525.58249	0.20886
1523.65381	0.20831
1521.72514	0.20777
1519.79646	0.20788
1517.86779	0.20848
1515.93911	0.20921
1514.01043	0.20979
1512.08176	0.20978
1510.15308	0.20925
1508.22441	0.20874
1506.29573	0.20879
1504.36706	0.20952
1502.43838	0.21017
1500.50970	0.21015
1498.58103	0.20995
1496.65235	0.21008
1494.72368	0.21028
1492.79500	0.21004
1490.86633	0.20954
1488.93765	0.20936
1487.00897	0.20962
1485.08030	0.20999
1483.15162	0.21013
1481.22295	0.21002
1479.29427	0.20974
1477.36560	0.20923
1475.43692	0.20854
1473.50824	0.20790
1471.57957	0.20769
1469.65089	0.20786
1467.72222	0.20780
1465.79354	0.20748
1463.86487	0.20731
1461.93619	0.20715
1460.00751	0.20645
1458.07884	0.20549
1456.15016	0.20535
1454.22149	0.20605
1452.29281	0.20658
1450.36414	0.20665
1448.43546	0.20671
1446.50678	0.20693
1444.57811	0.20726
1442.64943	0.20756
1440.72076	0.20750
1438.79208	0.20688
1436.86341	0.20643
1434.93473	0.20692
1433.00605	0.20767
1431.07738	0.20798
1429.14870	0.20816
1427.22003	0.20839
1425.29135	0.20849
1423.36268	0.20842
1421.43400	0.20816
1419.50532	0.20789
1417.57665	0.20809
1415.64797	0.20860
1413.71930	0.20887
1411.79062	0.20886
1409.86195	0.20877
1407.93327	0.20866
1406.00459	0.20859
1404.07592	0.20866
1402.14724	0.20858
1400.21857	0.20813
1398.28989	0.20772
1396.36122	0.20760
1394.43254	0.20773
1392.50386	0.20800
1390.57519	0.20790
1388.64651	0.20731
1386.71784	0.20692
1384.78916	0.20707
1382.86049	0.20737
1380.93181	0.20749
1379.00313	0.20745
1377.07446	0.20735
1375.14578	0.20731
1373.21711	0.20735
1371.28843	0.20737
1369.35976	0.20734
1367.43108	0.20730
1365.50240	0.20716
1363.57373	0.20691
1361.64505	0.20689
1359.71638	0.20721
1357.78770	0.20753
1355.85903	0.20758
1353.93035	0.20752
1352.00167	0.20756
1350.07300	0.20770
1348.14432	0.20783
1346.21565	0.20796
1344.28697	0.20807
1342.35830	0.20806
1340.42962	0.20792
1338.50094	0.20779
1336.57227	0.20781
1334.64359	0.20787
1332.71492	0.20783
1330.78624	0.20770
1328.85757	0.20751
1326.92889	0.20731
1325.00021	0.20715
1323.07154	0.20696
1321.14286	0.20667
1319.21419	0.20642
1317.28551	0.20629
1315.35684	0.20615
1313.42816	0.20598
1311.49948	0.20581
1309.57081	0.20565
1307.64213	0.20545
1305.71346	0.20512
1303.78478	0.20474
1301.85611	0.20448
1299.92743	0.20438
1297.99875	0.20425
1296.07008	0.20402
1294.14140	0.20383
1292.21273	0.20373
1290.28405	0.20353
1288.35538	0.20326
1286.42670	0.20310
1284.49802	0.20300
1282.56935	0.20286
1280.64067	0.20261
1278.71200	0.20225
1276.78332	0.20183
1274.85465	0.20143
1272.92597	0.20100
1270.99729	0.20035
1269.06862	0.19947
1267.13994	0.19853
1265.21127	0.19762
1263.28259	0.19690
1261.35392	0.19655
1259.42524	0.19658
1257.49656	0.19681
1255.56789	0.19703
1253.63921	0.19714
1251.71054	0.19704
1249.78186	0.19673
1247.85319	0.19639
1245.92451	0.19603
1243.99583	0.19554
1242.06716	0.19500
1240.13848	0.19454
1238.20981	0.19408
1236.28113	0.19357
1234.35246	0.19304
1232.42378	0.19242
1230.49510	0.19172
1228.56643	0.19103
1226.63775	0.19047
1224.70908	0.19003
1222.78040	0.18958
1220.85173	0.18915
1218.92305	0.18876
1216.99437	0.18828
1215.06570	0.18772
1213.13702	0.18715
1211.20835	0.18655
1209.27967	0.18590
1207.35100	0.18522
1205.42232	0.18456
1203.49364	0.18392
1201.56497	0.18332
1199.63629	0.18276
1197.70762	0.18215
1195.77894	0.18147
1193.85027	0.18079
1191.92159	0.18013
1189.99291	0.17940
1188.06424	0.17856
1186.13556	0.17775
1184.20689	0.17701
1182.27821	0.17624
1180.34954	0.17539
1178.42086	0.17449
1176.49218	0.17360
1174.56351	0.17275
1172.63483	0.17192
1170.70616	0.17104
1168.77748	0.17015
1166.84881	0.16928
1164.92013	0.16838
1162.99145	0.16744
1161.06278	0.16658
1159.13410	0.16584
1157.20543	0.16511
1155.27675	0.16424
1153.34808	0.16331
1151.41940	0.16246
1149.49072	0.16169
1147.56205	0.16091
1145.63337	0.16004
1143.70470	0.15909
1141.77602	0.15808
1139.84735	0.15703
1137.91867	0.15593
1135.98999	0.15472
1134.06132	0.15335
1132.13264	0.15176
1130.20397	0.14988
1128.27529	0.14772
1126.34662	0.14533
1124.41794	0.14281
1122.48926	0.14031
1120.56059	0.13790
1118.63191	0.13560
1116.70324	0.13349
1114.77456	0.13166
1112.84589	0.13010
1110.91721	0.12880
1108.98853	0.12778
1107.05986	0.12708
1105.13118	0.12665
1103.20251	0.12653
1101.27383	0.12679
1099.34516	0.12735
1097.41648	0.12802
1095.48780	0.12877
1093.55913	0.12961
1091.63045	0.13050
1089.70178	0.13136
1087.77310	0.13206
1085.84443	0.13259
1083.91575	0.13304
1081.98707	0.13347
1080.05840	0.13384
1078.12972	0.13413
1076.20105	0.13429
1074.27237	0.13435
1072.34370	0.13441
1070.41502	0.13448
1068.48634	0.13457
1066.55767	0.13473
1064.62899	0.13491
1062.70032	0.13507
1060.77164	0.13530
1058.84297	0.13565
1056.91429	0.13599
1054.98561	0.13625
1053.05694	0.13650
1051.12826	0.13681
1049.19959	0.13711
1047.27091	0.13743
1045.34224	0.13789
1043.41356	0.13847
1041.48488	0.13895
1039.55621	0.13936
1037.62753	0.13985
1035.69886	0.14034
1033.77018	0.14071
1031.84151	0.14100
1029.91283	0.14134
1027.98415	0.14175
1026.05548	0.14215
1024.12680	0.14247
1022.19813	0.14280
1020.26945	0.14323
1018.34078	0.14368
1016.41210	0.14419
1014.48342	0.14482
1012.55475	0.14546
1010.62607	0.14596
1008.69740	0.14647
1006.76872	0.14711
1004.84005	0.14775
1002.91137	0.14822
1000.98269	0.14855
999.05402	0.14885
997.12534	0.14912
995.19667	0.14934
993.26799	0.14950
991.33932	0.14956
989.41064	0.14956
987.48196	0.14960
985.55329	0.14960
983.62461	0.14954
981.69594	0.14952
979.76726	0.14956
977.83859	0.14951
975.90991	0.14934
973.98123	0.14912
972.05256	0.14896
970.12388	0.14877
968.19521	0.14845
966.26653	0.14816
964.33786	0.14806
962.40918	0.14798
960.48050	0.14783
958.55183	0.14767
956.62315	0.14750
954.69448	0.14732
952.76580	0.14716
950.83713	0.14700
948.90845	0.14679
946.97977	0.14647
945.05110	0.14610
943.12242	0.14579
941.19375	0.14551
939.26507	0.14518
937.33640	0.14480
935.40772	0.14433
933.47904	0.14375
931.55037	0.14318
929.62169	0.14269
927.69302	0.14222
925.76434	0.14168
923.83567	0.14105
921.90699	0.14038
919.97831	0.13972
918.04964	0.13899
916.12096	0.13824
914.19229	0.13754
912.26361	0.13676
910.33494	0.13586
908.40626	0.13496
906.47758	0.13425
904.54891	0.13370
902.62023	0.13317
900.69156	0.13259
898.76288	0.13195
896.83421	0.13130
894.90553	0.13076
892.97685	0.13030
891.04818	0.12989
889.11950	0.12960
887.19083	0.12937
885.26215	0.12905
883.33348	0.12858
881.40480	0.12808
879.47612	0.12764
877.54745	0.12732
875.61877	0.12714
873.69010	0.12698
871.76142	0.12667
869.83275	0.12630
867.90407	0.12598
865.97539	0.12574
864.04672	0.12559
862.11804	0.12557
860.18937	0.12557
858.26069	0.12549
856.33202	0.12536
854.40334	0.12518
852.47466	0.12494
850.54599	0.12461
848.61731	0.12428
846.68864	0.12401
844.75996	0.12378
842.83129	0.12357
840.90261	0.12331
838.97394	0.12296
837.04526	0.12253
835.11658	0.12197
833.18791	0.12120
831.25923	0.12027
829.33056	0.11926
827.40188	0.11815
825.47321	0.11697
823.54453	0.11597
821.61585	0.11518
819.68718	0.11447
817.75850	0.11388
815.82983	0.11347
813.90115	0.11314
811.97248	0.11293
810.04380	0.11281
808.11512	0.11262
806.18645	0.11244
804.25777	0.11235
802.32910	0.11230
800.40042	0.11209
798.47175	0.11158
796.54307	0.11094
794.61439	0.11045
792.68572	0.11016
790.75704	0.10993
788.82837	0.10970
786.89969	0.10940
784.97102	0.10903
783.04234	0.10876
781.11366	0.10860
779.18499	0.10832
777.25631	0.10787
775.32764	0.10747
773.39896	0.10720
771.47029	0.10695
769.54161	0.10669
767.61293	0.10638
765.68426	0.10596
763.75558	0.10550
761.82691	0.10503
759.89823	0.10447
757.96956	0.10386
756.04088	0.10331
754.11220	0.10277
752.18353	0.10212
750.25485	0.10132
748.32618	0.10046
746.39750	0.09968
744.46883	0.09889
742.54015	0.09797
740.61147	0.09706
738.68280	0.09645
736.75412	0.09625
734.82545	0.09634
732.89677	0.09645
730.96810	0.09645
729.03942	0.09647
727.11074	0.09658
725.18207	0.09670
723.25339	0.09682
721.32472	0.09694
719.39604	0.09703
717.46737	0.09727
715.53869	0.09775
713.61001	0.09826
711.68134	0.09863
709.75266	0.09886
707.82399	0.09895
705.89531	0.09884
703.96664	0.09863
702.03796	0.09843
700.10928	0.09812
698.18061	0.09759
696.25193	0.09693
694.32326	0.09622
692.39458	0.09552
690.46591	0.09494
688.53723	0.09459
686.60855	0.09433
684.67988	0.09393
682.75120	0.09337
680.82253	0.09276
678.89385	0.09210
676.96518	0.09137
675.03650	0.09069
673.10782	0.08998
671.17915	0.08909
669.25047	0.08813
667.32180	0.08735
665.39312	0.08667
663.46445	0.08580
661.53577	0.08486
659.60709	0.08405
657.67842	0.08326
655.74974	0.08244
653.82107	0.08163
651.89239	0.08086
649.96372	0.08005
648.03504	0.07912
646.10636	0.07817
644.17769	0.07729
642.24901	0.07641
640.32034	0.07547
638.39166	0.07445
636.46299	0.07334
634.53431	0.07204
632.60563	0.07033
630.67696	0.06792
628.74828	0.06451
626.81961	0.06014
624.89093	0.05566
622.96226	0.05197
621.03358	0.04953
619.10490	0.04824
617.17623	0.04744
615.24755	0.04656
613.31888	0.04547
611.39020	0.04439
609.46153	0.04388
607.53285	0.04401
605.60417	0.04439
603.67550	0.04483
601.74682	0.04553
599.81815	0.04647
597.88947	0.04733
595.96080	0.04799
594.03212	0.04849
592.10344	0.04882
590.17477	0.04890
588.24609	0.04884
586.31742	0.04875
584.38874	0.04846
582.46007	0.04799
580.53139	0.04755
578.60271	0.04718
576.67404	0.04681
574.74536	0.04635
572.81669	0.04574
570.88801	0.04500
568.95934	0.04423
567.03066	0.04354
565.10198	0.04313
563.17331	0.04296
561.24463	0.04277
559.31596	0.04251
557.38728	0.04226
555.45861	0.04197
553.52993	0.04171
551.60125	0.04159
549.67258	0.04149
547.74390	0.04136
545.81523	0.04129
543.88655	0.04126
541.95788	0.04112
540.02920	0.04092
538.10052	0.04069
536.17185	0.04035
534.24317	0.03999
532.31450	0.03974
530.38582	0.03953
528.45715	0.03925
526.52847	0.03893
524.59979	0.03867
522.67112	0.03843
520.74244	0.03803
518.81377	0.03731
516.88509	0.03649
514.95642	0.03592
513.02774	0.03567
511.09906	0.03557
509.17039	0.03546
507.24171	0.03519
505.31304	0.03475
503.38436	0.03426
501.45569	0.03379
499.52701	0.03318
497.59833	0.03255
495.66966	0.03214
493.74098	0.03178
491.81231	0.03119
489.88363	0.03052
487.95496	0.02991
486.02628	0.02924
484.09760	0.02859
482.16893	0.02812
480.24025	0.02771
478.31158	0.02708
476.38290	0.02622
474.45423	0.02545
472.52555	0.02500
470.59687	0.02479
468.66820	0.02458
466.73952	0.02425
464.81085	0.02388
462.88217	0.02367
460.95350	0.02362
459.02482	0.02359
457.09614	0.02357
455.16747	0.02357
453.23879	0.02356
451.31012	0.02356
449.38144	0.02354
447.45277	0.02342
445.52409	0.02312
443.59541	0.02271
441.66674	0.02238
439.73806	0.02209
437.80939	0.02169
435.88071	0.02123
433.95204	0.02086
432.02336	0.02041
430.09468	0.01973
428.16601	0.01897
426.23733	0.01833
424.30866	0.01775
422.37998	0.01706
420.45131	0.01627
418.52263	0.01554
416.59395	0.01488
414.66528	0.01420
412.73660	0.01346
410.80793	0.01271
408.87925	0.01206
406.95058	0.01172
405.02190	0.01151
403.09322	0.01101
401.16455	0.01020
399.23587	0.00929
397.30720	0.00856
395.37852	0.00814
393.44985	0.00784
391.52117	0.00751
389.59249	0.00702
387.66382	0.00638
385.73514	0.00575
383.80647	0.00529
381.87779	0.00506
379.94912	0.00485
378.02044	0.00441
376.09176	0.00383
374.16309	0.00342
372.23441	0.00307
370.30574	0.00263
368.37706	0.00234
