7496.76250	0.00111
7494.83382	0.00112
7492.90514	0.00113
7490.97647	0.00111
7489.04779	0.00111
7487.11912	0.00112
7485.19044	0.00113
7483.26177	0.00113
7481.33309	0.00112
7479.40441	0.00113
7477.47574	0.00114
7475.54706	0.00116
7473.61839	0.00117
7471.68971	0.00118
7469.76104	0.00118
7467.83236	0.00119
7465.90368	0.00120
7463.97501	0.00121
7462.04633	0.00120
7460.11766	0.00118
7458.18898	0.00118
7456.26031	0.00118
7454.33163	0.00118
7452.40295	0.00117
7450.47428	0.00118
7448.54560	0.00119
7446.61693	0.00122
7444.68825	0.00123
7442.75958	0.00123
7440.83090	0.00123
7438.90222	0.00124
7436.97355	0.00124
7435.04487	0.00124
7433.11620	0.00123
7431.18752	0.00123
7429.25885	0.00123
7427.33017	0.00124
7425.40149	0.00124
7423.47282	0.00125
7421.54414	0.00126
7419.61547	0.00125
7417.68679	0.00123
7415.75812	0.00123
7413.82944	0.00123
7411.90076	0.00123
7409.97209	0.00125
7408.04341	0.00127
7406.11474	0.00127
7404.18606	0.00127
7402.25739	0.00127
7400.32871	0.00126
7398.40003	0.00124
7396.47136	0.00123
7394.54268	0.00125
7392.61401	0.00128
7390.68533	0.00132
7388.75666	0.00134
7386.82798	0.00132
7384.89930	0.00129
7382.97063	0.00127
7381.04195	0.00126
7379.11328	0.00127
7377.18460	0.00129
7375.25593	0.00131
7373.32725	0.00132
7371.39857	0.00134
7369.46990	0.00134
7367.54122	0.00134
7365.61255	0.00135
7363.68387	0.00134
7361.75520	0.00132
7359.82652	0.00132
7357.89784	0.00132
7355.96917	0.00133
7354.04049	0.00133
7352.11182	0.00133
7350.18314	0.00135
7348.25447	0.00136
7346.32579	0.00135
7344.39711	0.00135
7342.46844	0.00136
7340.53976	0.00137
7338.61109	0.00136
7336.68241	0.00134
7334.75374	0.00134
7332.82506	0.00135
7330.89638	0.00135
7328.96771	0.00136
7327.03903	0.00137
7325.11036	0.00138
7323.18168	0.00137
7321.25301	0.00139
7319.32433	0.00142
7317.39565	0.00142
7315.46698	0.00141
7313.53830	0.00140
7311.60963	0.00141
7309.68095	0.00141
7307.75228	0.00140
7305.82360	0.00142
7303.89492	0.00145
7301.96625	0.00144
7300.03757	0.00143
7298.10890	0.00144
7296.18022	0.00146
7294.25155	0.00148
7292.32287	0.00148
7290.39419	0.00148
7288.46552	0.00150
7286.53684	0.00151
7284.60817	0.00150
7282.67949	0.00149
7280.75082	0.00148
7278.82214	0.00147
7276.89346	0.00147
7274.96479	0.00147
7273.03611	0.00147
7271.10744	0.00147
7269.17876	0.00148
7267.25009	0.00149
7265.32141	0.00150
7263.39273	0.00149
7261.46406	0.00150
7259.53538	0.00151
7257.60671	0.00152
7255.67803	0.00153
7253.74936	0.00153
7251.82068	0.00153
7249.89200	0.00152
7247.96333	0.00151
7246.03465	0.00151
7244.10598	0.00153
7242.17730	0.00154
7240.24863	0.00154
7238.31995	0.00154
7236.39127	0.00155
7234.46260	0.00157
7232.53392	0.00159
7230.60525	0.00159
7228.67657	0.00159
7226.74790	0.00160
7224.81922	0.00160
7222.89054	0.00160
7220.96187	0.00160
7219.03319	0.00161
7217.10452	0.00161
7215.17584	0.00159
7213.24717	0.00158
7211.31849	0.00159
7209.38981	0.00160
7207.46114	0.00162
7205.53246	0.00164
7203.60379	0.00164
7201.67511	0.00163
7199.74644	0.00163
7197.81776	0.00163
7195.88908	0.00163
7193.96041	0.00163
7192.03173	0.00164
7190.10306	0.00166
7188.17438	0.00164
7186.24571	0.00163
7184.31703	0.00163
7182.38835	0.00165
7180.45968	0.00166
7178.53100	0.00165
7176.60233	0.00163
7174.67365	0.00163
7172.74498	0.00165
7170.81630	0.00167
7168.88762	0.00169
7166.95895	0.00170
7165.03027	0.00170
7163.10160	0.00170
7161.17292	0.00171
7159.24425	0.00171
7157.31557	0.00171
7155.38689	0.00170
7153.45822	0.00170
7151.52954	0.00172
7149.60087	0.00173
7147.67219	0.00173
7145.74352	0.00174
7143.81484	0.00175
7141.88616	0.00175
7139.95749	0.00176
7138.02881	0.00175
7136.10014	0.00173
7134.17146	0.00171
7132.24279	0.00171
7130.31411	0.00173
7128.38543	0.00174
7126.45676	0.00175
7124.52808	0.00176
7122.59941	0.00177
7120.67073	0.00178
7118.74206	0.00178
7116.81338	0.00179
7114.88470	0.00180
7112.95603	0.00181
7111.02735	0.00181
7109.09868	0.00181
7107.17000	0.00181
7105.24133	0.00181
7103.31265	0.00181
7101.38397	0.00181
7099.45530	0.00181
7097.52662	0.00182
7095.59795	0.00183
7093.66927	0.00183
7091.74060	0.00184
7089.81192	0.00185
7087.88324	0.00186
7085.95457	0.00184
7084.02589	0.00183
7082.09722	0.00185
7080.16854	0.00187
7078.23987	0.00187
7076.31119	0.00187
7074.38251	0.00189
7072.45384	0.00191
7070.52516	0.00190
7068.59649	0.00191
7066.66781	0.00192
7064.73914	0.00191
7062.81046	0.00188
7060.88178	0.00186
7058.95311	0.00188
7057.02443	0.00191
7055.09576	0.00191
7053.16708	0.00191
7051.23841	0.00191
7049.30973	0.00192
7047.38105	0.00194
7045.45238	0.00196
7043.52370	0.00198
7041.59503	0.00196
7039.66635	0.00192
7037.73768	0.00189
7035.80900	0.00188
7033.88032	0.00191
7031.95165	0.00195
7030.02297	0.00197
7028.09430	0.00197
7026.16562	0.00199
7024.23695	0.00200
7022.30827	0.00200
7020.37959	0.00202
7018.45092	0.00204
7016.52224	0.00205
7014.59357	0.00204
7012.66489	0.00203
7010.73622	0.00202
7008.80754	0.00201
7006.87886	0.00200
7004.95019	0.00199
7003.02151	0.00200
7001.09284	0.00202
6999.16416	0.00204
6997.23549	0.00204
6995.30681	0.00204
6993.37813	0.00206
6991.44946	0.00210
6989.52078	0.00211
6987.59211	0.00209
6985.66343	0.00207
6983.73476	0.00207
6981.80608	0.00207
6979.87740	0.00208
6977.94873	0.00210
6976.02005	0.00212
6974.09138	0.00213
6972.16270	0.00213
6970.23403	0.00213
6968.30535	0.00213
6966.37667	0.00214
6964.44800	0.00215
6962.51932	0.00214
6960.59065	0.00210
6958.66197	0.00210
6956.73330	0.00213
6954.80462	0.00215
6952.87594	0.00217
6950.94727	0.00217
6949.01859	0.00216
6947.08992	0.00214
6945.16124	0.00216
6943.23257	0.00219
6941.30389	0.00220
6939.37521	0.00220
6937.44654	0.00221
6935.51786	0.00220
6933.58919	0.00220
6931.66051	0.00219
6929.73184	0.00219
6927.80316	0.00219
6925.87448	0.00219
6923.94581	0.00220
6922.01713	0.00222
6920.08846	0.00224
6918.15978	0.00225
6916.23111	0.00225
6914.30243	0.00225
6912.37375	0.00226
6910.44508	0.00228
6908.51640	0.00230
6906.58773	0.00230
6904.65905	0.00228
6902.73038	0.00226
6900.80170	0.00228
6898.87302	0.00230
6896.94435	0.00230
6895.01567	0.00230
6893.08700	0.00231
6891.15832	0.00232
6889.22965	0.00234
6887.30097	0.00236
6885.37229	0.00235
6883.44362	0.00234
6881.51494	0.00235
6879.58627	0.00235
6877.65759	0.00234
6875.72892	0.00235
6873.80024	0.00237
6871.87156	0.00237
6869.94289	0.00238
6868.01421	0.00238
6866.08554	0.00237
6864.15686	0.00235
6862.22819	0.00234
6860.29951	0.00234
6858.37083	0.00236
6856.44216	0.00236
6854.51348	0.00237
6852.58481	0.00237
6850.65613	0.00238
6848.72746	0.00240
6846.79878	0.00244
6844.87010	0.00245
6842.94143	0.00245
6841.01275	0.00242
6839.08408	0.00240
6837.15540	0.00242
6835.22673	0.00244
6833.29805	0.00245
6831.36937	0.00244
6829.44070	0.00245
6827.51202	0.00246
6825.58335	0.00247
6823.65467	0.00247
6821.72600	0.00246
6819.79732	0.00246
6817.86864	0.00249
6815.93997	0.00253
6814.01129	0.00255
6812.08262	0.00256
6810.15394	0.00256
6808.22527	0.00254
6806.29659	0.00252
6804.36791	0.00251
6802.43924	0.00252
6800.51056	0.00254
6798.58189	0.00255
6796.65321	0.00256
6794.72454	0.00256
6792.79586	0.00256
6790.86718	0.00257
6788.93851	0.00260
6787.00983	0.00262
6785.08116	0.00263
6783.15248	0.00264
6781.22381	0.00263
6779.29513	0.00261
6777.36645	0.00262
6775.43778	0.00265
6773.50910	0.00267
6771.58043	0.00267
6769.65175	0.00265
6767.72308	0.00264
6765.79440	0.00263
6763.86572	0.00263
6761.93705	0.00262
6760.00837	0.00263
6758.07970	0.00266
6756.15102	0.00266
6754.22235	0.00267
6752.29367	0.00269
6750.36499	0.00271
6748.43632	0.00271
6746.50764	0.00270
6744.57897	0.00269
6742.65029	0.00268
6740.72162	0.00269
6738.79294	0.00271
6736.86426	0.00272
6734.93559	0.00272
6733.00691	0.00275
6731.07824	0.00277
6729.14956	0.00278
6727.22089	0.00278
6725.29221	0.00279
6723.36353	0.00279
6721.43486	0.00280
6719.50618	0.00283
6717.57751	0.00284
6715.64883	0.00282
6713.72016	0.00280
6711.79148	0.00280
6709.86280	0.00280
6707.93413	0.00279
6706.00545	0.00280
6704.07678	0.00282
6702.14810	0.00284
6700.21943	0.00285
6698.29075	0.00286
6696.36207	0.00285
6694.43340	0.00284
6692.50472	0.00285
6690.57605	0.00287
6688.64737	0.00287
6686.71870	0.00287
6684.79002	0.00289
6682.86134	0.00291
6680.93267	0.00293
6679.00399	0.00293
6677.07532	0.00291
6675.14664	0.00289
6673.21797	0.00288
6671.28929	0.00291
6669.36061	0.00294
6667.43194	0.00295
6665.50326	0.00296
6663.57459	0.00297
6661.64591	0.00299
6659.71724	0.00300
6657.78856	0.00299
6655.85988	0.00297
6653.93121	0.00295
6652.00253	0.00296
6650.07386	0.00298
6648.14518	0.00299
6646.21651	0.00301
6644.28783	0.00305
6642.35915	0.00307
6640.43048	0.00306
6638.50180	0.00306
6636.57313	0.00307
6634.64445	0.00307
6632.71578	0.00307
6630.78710	0.00308
6628.85842	0.00308
6626.92975	0.00307
6625.00107	0.00307
6623.07240	0.00308
6621.14372	0.00309
6619.21505	0.00308
6617.28637	0.00307
6615.35769	0.00307
6613.42902	0.00309
6611.50034	0.00311
6609.57167	0.00312
6607.64299	0.00311
6605.71432	0.00313
6603.78564	0.00316
6601.85696	0.00319
6599.92829	0.00320
6597.99961	0.00320
6596.07094	0.00319
6594.14226	0.00320
6592.21359	0.00321
6590.28491	0.00321
6588.35623	0.00321
6586.42756	0.00321
6584.49888	0.00323
6582.57021	0.00324
6580.64153	0.00324
6578.71286	0.00325
6576.78418	0.00325
6574.85550	0.00326
6572.92683	0.00326
6570.99815	0.00328
6569.06948	0.00331
6567.14080	0.00331
6565.21213	0.00329
6563.28345	0.00328
6561.35477	0.00330
6559.42610	0.00332
6557.49742	0.00334
6555.56875	0.00335
6553.64007	0.00337
6551.71140	0.00339
6549.78272	0.00338
6547.85404	0.00337
6545.92537	0.00338
6543.99669	0.00338
6542.06802	0.00337
6540.13934	0.00337
6538.21067	0.00339
6536.28199	0.00341
6534.35331	0.00340
6532.42464	0.00340
6530.49596	0.00341
6528.56729	0.00343
6526.63861	0.00344
6524.70994	0.00343
6522.78126	0.00343
6520.85258	0.00342
6518.92391	0.00341
6516.99523	0.00342
6515.06656	0.00344
6513.13788	0.00347
6511.20921	0.00347
6509.28053	0.00348
6507.35185	0.00350
6505.42318	0.00354
6503.49450	0.00356
6501.56583	0.00356
6499.63715	0.00355
6497.70848	0.00353
6495.77980	0.00351
6493.85112	0.00352
6491.92245	0.00354
6489.99377	0.00356
6488.06510	0.00358
6486.13642	0.00359
6484.20775	0.00360
6482.27907	0.00361
6480.35039	0.00365
6478.42172	0.00368
6476.49304	0.00368
6474.56437	0.00365
6472.63569	0.00364
6470.70702	0.00363
6468.77834	0.00364
6466.84966	0.00365
6464.92099	0.00367
6462.99231	0.00368
6461.06364	0.00368
6459.13496	0.00369
6457.20629	0.00370
6455.27761	0.00369
6453.34893	0.00369
6451.42026	0.00371
6449.49158	0.00373
6447.56291	0.00374
6445.63423	0.00376
6443.70556	0.00378
6441.77688	0.00379
6439.84820	0.00381
6437.91953	0.00383
6435.99085	0.00385
6434.06218	0.00384
6432.13350	0.00382
6430.20483	0.00379
6428.27615	0.00377
6426.34747	0.00379
6424.41880	0.00383
6422.49012	0.00385
6420.56145	0.00385
6418.63277	0.00385
6416.70410	0.00386
6414.77542	0.00387
6412.84674	0.00388
6410.91807	0.00388
6408.98939	0.00388
6407.06072	0.00391
6405.13204	0.00395
6403.20337	0.00397
6401.27469	0.00395
6399.34601	0.00394
6397.41734	0.00394
6395.48866	0.00397
6393.55999	0.00400
6391.63131	0.00400
6389.70264	0.00397
6387.77396	0.00396
6385.84528	0.00399
6383.91661	0.00402
6381.98793	0.00405
6380.05926	0.00409
6378.13058	0.00409
6376.20191	0.00408
6374.27323	0.00407
6372.34455	0.00407
6370.41588	0.00409
6368.48720	0.00409
6366.55853	0.00410
6364.62985	0.00412
6362.70118	0.00415
6360.77250	0.00415
6358.84382	0.00416
6356.91515	0.00418
6354.98647	0.00420
6353.05780	0.00417
6351.12912	0.00415
6349.20045	0.00417
6347.27177	0.00420
6345.34309	0.00421
6343.41442	0.00421
6341.48574	0.00423
6339.55707	0.00425
6337.62839	0.00427
6335.69972	0.00425
6333.77104	0.00423
6331.84236	0.00423
6329.91369	0.00424
6327.98501	0.00425
6326.05634	0.00425
6324.12766	0.00425
6322.19899	0.00426
6320.27031	0.00428
6318.34163	0.00432
6316.41296	0.00434
6314.48428	0.00433
6312.55561	0.00432
6310.62693	0.00433
6308.69826	0.00435
6306.76958	0.00437
6304.84090	0.00440
6302.91223	0.00441
6300.98355	0.00441
6299.05488	0.00442
6297.12620	0.00443
6295.19753	0.00443
6293.26885	0.00443
6291.34017	0.00443
6289.41150	0.00444
6287.48282	0.00445
6285.55415	0.00448
6283.62547	0.00451
6281.69680	0.00453
6279.76812	0.00454
6277.83944	0.00453
6275.91077	0.00453
6273.98209	0.00452
6272.05342	0.00454
6270.12474	0.00456
6268.19607	0.00456
6266.26739	0.00455
6264.33871	0.00456
6262.41004	0.00458
6260.48136	0.00459
6258.55269	0.00461
6256.62401	0.00462
6254.69534	0.00464
6252.76666	0.00464
6250.83798	0.00464
6248.90931	0.00465
6246.98063	0.00466
6245.05196	0.00464
6243.12328	0.00464
6241.19461	0.00467
6239.26593	0.00471
6237.33725	0.00473
6235.40858	0.00473
6233.47990	0.00473
6231.55123	0.00475
6229.62255	0.00477
6227.69388	0.00476
6225.76520	0.00476
6223.83652	0.00479
6221.90785	0.00482
6219.97917	0.00483
6218.05050	0.00481
6216.12182	0.00481
6214.19315	0.00482
6212.26447	0.00484
6210.33579	0.00485
6208.40712	0.00485
6206.47844	0.00486
6204.54977	0.00488
6202.62109	0.00489
6200.69242	0.00489
6198.76374	0.00490
6196.83506	0.00491
6194.90639	0.00493
6192.97771	0.00494
6191.04904	0.00495
6189.12036	0.00498
6187.19169	0.00501
6185.26301	0.00501
6183.33433	0.00499
6181.40566	0.00498
6179.47698	0.00499
6177.54831	0.00501
6175.61963	0.00502
6173.69096	0.00505
6171.76228	0.00507
6169.83360	0.00509
6167.90493	0.00512
6165.97625	0.00513
6164.04758	0.00512
6162.11890	0.00513
6160.19023	0.00514
6158.26155	0.00515
6156.33287	0.00515
6154.40420	0.00516
6152.47552	0.00518
6150.54685	0.00520
6148.61817	0.00522
6146.68950	0.00523
6144.76082	0.00524
6142.83214	0.00524
6140.90347	0.00523
6138.97479	0.00522
6137.04612	0.00521
6135.11744	0.00521
6133.18877	0.00523
6131.26009	0.00527
6129.33141	0.00533
6127.40274	0.00536
6125.47406	0.00535
6123.54539	0.00535
6121.61671	0.00537
6119.68804	0.00539
6117.75936	0.00540
6115.83068	0.00542
6113.90201	0.00543
6111.97333	0.00543
6110.04466	0.00542
6108.11598	0.00541
6106.18731	0.00541
6104.25863	0.00542
6102.32995	0.00543
6100.40128	0.00546
6098.47260	0.00548
6096.54393	0.00550
6094.61525	0.00553
6092.68658	0.00557
6090.75790	0.00558
6088.82922	0.00559
6086.90055	0.00559
6084.97187	0.00560
6083.04320	0.00563
6081.11452	0.00565
6079.18585	0.00564
6077.25717	0.00564
6075.32849	0.00564
6073.39982	0.00565
6071.47114	0.00566
6069.54247	0.00567
6067.61379	0.00569
6065.68512	0.00570
6063.75644	0.00570
6061.82776	0.00572
6059.89909	0.00575
6057.97041	0.00576
6056.04174	0.00574
6054.11306	0.00574
6052.18439	0.00576
6050.25571	0.00580
6048.32703	0.00585
6046.39836	0.00586
6044.46968	0.00584
6042.54101	0.00583
6040.61233	0.00583
6038.68366	0.00583
6036.75498	0.00583
6034.82630	0.00586
6032.89763	0.00588
6030.96895	0.00591
6029.04028	0.00594
6027.11160	0.00598
6025.18293	0.00599
6023.25425	0.00599
6021.32557	0.00600
6019.39690	0.00601
6017.46822	0.00602
6015.53955	0.00601
6013.61087	0.00601
6011.68220	0.00604
6009.75352	0.00607
6007.82484	0.00608
6005.89617	0.00610
6003.96749	0.00610
6002.03882	0.00611
6000.11014	0.00611
5998.18147	0.00612
5996.25279	0.00615
5994.32411	0.00618
5992.39544	0.00618
5990.46676	0.00617
5988.53809	0.00617
5986.60941	0.00620
5984.68074	0.00621
5982.75206	0.00619
5980.82338	0.00619
5978.89471	0.00621
5976.96603	0.00625
5975.03736	0.00628
5973.10868	0.00629
5971.18001	0.00632
5969.25133	0.00636
5967.32265	0.00638
5965.39398	0.00638
5963.46530	0.00637
5961.53663	0.00636
5959.60795	0.00638
5957.67928	0.00641
5955.75060	0.00641
5953.82192	0.00640
5951.89325	0.00642
5949.96457	0.00644
5948.03590	0.00647
5946.10722	0.00651
5944.17855	0.00652
5942.24987	0.00652
5940.32119	0.00654
5938.39252	0.00657
5936.46384	0.00660
5934.53517	0.00659
5932.60649	0.00654
5930.67782	0.00652
5928.74914	0.00653
5926.82046	0.00658
5924.89179	0.00662
5922.96311	0.00665
5921.03444	0.00666
5919.10576	0.00668
5917.17709	0.00672
5915.24841	0.00674
5913.31973	0.00674
5911.39106	0.00673
5909.46238	0.00672
5907.53371	0.00672
5905.60503	0.00673
5903.67636	0.00676
5901.74768	0.00678
5899.81900	0.00680
5897.89033	0.00683
5895.96165	0.00687
5894.03298	0.00689
5892.10430	0.00689
5890.17563	0.00691
5888.24695	0.00693
5886.31827	0.00695
5884.38960	0.00695
5882.46092	0.00695
5880.53225	0.00694
5878.60357	0.00695
5876.67490	0.00699
5874.74622	0.00704
5872.81755	0.00706
5870.88887	0.00705
5868.96019	0.00706
5867.03152	0.00708
5865.10284	0.00709
5863.17417	0.00710
5861.24549	0.00710
5859.31682	0.00710
5857.38814	0.00710
5855.45946	0.00712
5853.53079	0.00713
5851.60211	0.00715
5849.67344	0.00719
5847.74476	0.00723
5845.81609	0.00725
5843.88741	0.00724
5841.95873	0.00724
5840.03006	0.00724
5838.10138	0.00725
5836.17271	0.00728
5834.24403	0.00732
5832.31536	0.00736
5830.38668	0.00737
5828.45800	0.00736
5826.52933	0.00734
5824.60065	0.00732
5822.67198	0.00734
5820.74330	0.00738
5818.81463	0.00744
5816.88595	0.00749
5814.95727	0.00751
5813.02860	0.00751
5811.09992	0.00749
5809.17125	0.00748
5807.24257	0.00748
5805.31390	0.00750
5803.38522	0.00752
5801.45654	0.00756
5799.52787	0.00760
5797.59919	0.00762
5795.67052	0.00763
5793.74184	0.00762
5791.81317	0.00763
5789.88449	0.00766
5787.95581	0.00768
5786.02714	0.00769
5784.09846	0.00771
5782.16979	0.00775
5780.24111	0.00778
5778.31244	0.00780
5776.38376	0.00781
5774.45508	0.00782
5772.52641	0.00785
5770.59773	0.00788
5768.66906	0.00791
5766.74038	0.00792
5764.81171	0.00791
5762.88303	0.00790
5760.95435	0.00790
5759.02568	0.00791
5757.09700	0.00791
5755.16833	0.00791
5753.23965	0.00792
5751.31098	0.00795
5749.38230	0.00801
5747.45362	0.00806
5745.52495	0.00807
5743.59627	0.00806
5741.66760	0.00805
5739.73892	0.00806
5737.81025	0.00810
5735.88157	0.00813
5733.95289	0.00815
5732.02422	0.00815
5730.09554	0.00816
5728.16687	0.00816
5726.23819	0.00817
5724.30952	0.00821
5722.38084	0.00825
5720.45216	0.00826
5718.52349	0.00827
5716.59481	0.00828
5714.66614	0.00830
5712.73746	0.00831
5710.80879	0.00833
5708.88011	0.00835
5706.95143	0.00836
5705.02276	0.00838
5703.09408	0.00840
5701.16541	0.00843
5699.23673	0.00844
5697.30806	0.00845
5695.37938	0.00847
5693.45070	0.00850
5691.52203	0.00851
5689.59335	0.00852
5687.66468	0.00856
5685.73600	0.00860
5683.80733	0.00860
5681.87865	0.00860
5679.94997	0.00862
5678.02130	0.00865
5676.09262	0.00867
5674.16395	0.00867
5672.23527	0.00870
5670.30660	0.00874
5668.37792	0.00877
5666.44924	0.00878
5664.52057	0.00878
5662.59189	0.00879
5660.66322	0.00882
5658.73454	0.00884
5656.80587	0.00884
5654.87719	0.00884
5652.94851	0.00887
5651.01984	0.00891
5649.09116	0.00892
5647.16249	0.00893
5645.23381	0.00895
5643.30514	0.00897
5641.37646	0.00896
5639.44778	0.00897
5637.51911	0.00899
5635.59043	0.00901
5633.66176	0.00903
5631.73308	0.00906
5629.80441	0.00910
5627.87573	0.00914
5625.94705	0.00914
5624.01838	0.00913
5622.08970	0.00912
5620.16103	0.00912
5618.23235	0.00915
5616.30368	0.00919
5614.37500	0.00922
5612.44632	0.00924
5610.51765	0.00927
5608.58897	0.00929
5606.66030	0.00931
5604.73162	0.00931
5602.80295	0.00931
5600.87427	0.00933
5598.94559	0.00938
5597.01692	0.00940
5595.08824	0.00941
5593.15957	0.00942
5591.23089	0.00946
5589.30222	0.00950
5587.37354	0.00952
5585.44486	0.00953
5583.51619	0.00953
5581.58751	0.00953
5579.65884	0.00957
5577.73016	0.00961
5575.80149	0.00963
5573.87281	0.00963
5571.94413	0.00964
5570.01546	0.00966
5568.08678	0.00968
5566.15811	0.00971
5564.22943	0.00974
5562.30076	0.00976
5560.37208	0.00977
5558.44340	0.00976
5556.51473	0.00975
5554.58605	0.00976
5552.65738	0.00977
5550.72870	0.00979
5548.80003	0.00984
5546.87135	0.00990
5544.94267	0.00992
5543.01400	0.00993
5541.08532	0.00995
5539.15665	0.00998
5537.22797	0.01000
5535.29930	0.01001
5533.37062	0.01002
5531.44194	0.01003
5529.51327	0.01005
5527.58459	0.01010
5525.65592	0.01015
5523.72724	0.01015
5521.79857	0.01012
5519.86989	0.01012
5517.94121	0.01016
5516.01254	0.01018
5514.08386	0.01020
5512.15519	0.01024
5510.22651	0.01031
5508.29784	0.01036
5506.36916	0.01036
5504.44048	0.01033
5502.51181	0.01036
5500.58313	0.01040
5498.65446	0.01040
5496.72578	0.01038
5494.79711	0.01040
5492.86843	0.01044
5490.93975	0.01048
5489.01108	0.01049
5487.08240	0.01050
5485.15373	0.01051
5483.22505	0.01055
5481.29638	0.01056
5479.36770	0.01056
5477.43902	0.01056
5475.51035	0.01058
5473.58167	0.01061
5471.65300	0.01066
5469.72432	0.01069
5467.79565	0.01072
5465.86697	0.01074
5463.93829	0.01075
5462.00962	0.01078
5460.08094	0.01080
5458.15227	0.01083
5456.22359	0.01086
5454.29492	0.01087
5452.36624	0.01088
5450.43756	0.01088
5448.50889	0.01089
5446.58021	0.01088
5444.65154	0.01089
5442.72286	0.01092
5440.79419	0.01096
5438.86551	0.01101
5436.93683	0.01103
5435.00816	0.01103
5433.07948	0.01104
5431.15081	0.01106
5429.22213	0.01109
5427.29346	0.01112
5425.36478	0.01115
5423.43610	0.01118
5421.50743	0.01122
5419.57875	0.01125
5417.65008	0.01127
5415.72140	0.01127
5413.79273	0.01127
5411.86405	0.01127
5409.93537	0.01129
5408.00670	0.01132
5406.07802	0.01137
5404.14935	0.01141
5402.22067	0.01143
5400.29200	0.01145
5398.36332	0.01147
5396.43464	0.01148
5394.50597	0.01148
5392.57729	0.01149
5390.64862	0.01149
5388.71994	0.01153
5386.79127	0.01159
5384.86259	0.01164
5382.93391	0.01167
5381.00524	0.01169
5379.07656	0.01170
5377.14789	0.01172
5375.21921	0.01174
5373.29054	0.01175
5371.36186	0.01176
5369.43318	0.01177
5367.50451	0.01180
5365.57583	0.01183
5363.64716	0.01185
5361.71848	0.01187
5359.78981	0.01190
5357.86113	0.01193
5355.93245	0.01197
5354.00378	0.01200
5352.07510	0.01201
5350.14643	0.01201
5348.21775	0.01203
5346.28908	0.01204
5344.36040	0.01205
5342.43172	0.01206
5340.50305	0.01209
5338.57437	0.01213
5336.64570	0.01216
5334.71702	0.01217
5332.78835	0.01217
5330.85967	0.01219
5328.93099	0.01222
5327.00232	0.01225
5325.07364	0.01229
5323.14497	0.01231
5321.21629	0.01233
5319.28762	0.01236
5317.35894	0.01240
5315.43026	0.01243
5313.50159	0.01247
5311.57291	0.01250
5309.64424	0.01252
5307.71556	0.01253
5305.78689	0.01252
5303.85821	0.01251
5301.92953	0.01252
5300.00086	0.01257
5298.07218	0.01261
5296.14351	0.01261
5294.21483	0.01260
5292.28616	0.01261
5290.35748	0.01266
5288.42880	0.01271
5286.50013	0.01274
5284.57145	0.01279
5282.64278	0.01284
5280.71410	0.01289
5278.78543	0.01291
5276.85675	0.01291
5274.92807	0.01291
5272.99940	0.01292
5271.07072	0.01294
5269.14205	0.01297
5267.21337	0.01299
5265.28470	0.01298
5263.35602	0.01298
5261.42734	0.01303
5259.49867	0.01307
5257.56999	0.01310
5255.64132	0.01314
5253.71264	0.01318
5251.78397	0.01318
5249.85529	0.01316
5247.92661	0.01316
5245.99794	0.01320
5244.06926	0.01323
5242.14059	0.01326
5240.21191	0.01327
5238.28324	0.01329
5236.35456	0.01332
5234.42588	0.01335
5232.49721	0.01339
5230.56853	0.01343
5228.63986	0.01347
5226.71118	0.01349
5224.78251	0.01352
5222.85383	0.01354
5220.92515	0.01355
5218.99648	0.01356
5217.06780	0.01359
5215.13913	0.01364
5213.21045	0.01366
5211.28178	0.01368
5209.35310	0.01370
5207.42442	0.01371
5205.49575	0.01374
5203.56707	0.01380
5201.63840	0.01384
5199.70972	0.01385
5197.78105	0.01387
5195.85237	0.01392
5193.92369	0.01395
5191.99502	0.01395
5190.06634	0.01396
5188.13767	0.01398
5186.20899	0.01400
5184.28032	0.01402
5182.35164	0.01406
5180.42296	0.01409
5178.49429	0.01410
5176.56561	0.01411
5174.63694	0.01414
5172.70826	0.01415
5170.77959	0.01415
5168.85091	0.01416
5166.92223	0.01418
5164.99356	0.01421
5163.06488	0.01425
5161.13621	0.01430
5159.20753	0.01435
5157.27886	0.01438
5155.35018	0.01439
5153.42150	0.01442
5151.49283	0.01445
5149.56415	0.01446
5147.63548	0.01447
5145.70680	0.01450
5143.77813	0.01455
5141.84945	0.01457
5139.92077	0.01457
5137.99210	0.01456
5136.06342	0.01457
5134.13475	0.01462
5132.20607	0.01466
5130.27740	0.01470
5128.34872	0.01472
5126.42004	0.01471
5124.49137	0.01471
5122.56269	0.01475
5120.63402	0.01481
5118.70534	0.01485
5116.77667	0.01489
5114.84799	0.01494
5112.91931	0.01498
5110.99064	0.01499
5109.06196	0.01498
5107.13329	0.01499
5105.20461	0.01502
5103.27594	0.01506
5101.34726	0.01508
5099.41858	0.01511
5097.48991	0.01514
5095.56123	0.01518
5093.63256	0.01519
5091.70388	0.01519
5089.77521	0.01521
5087.84653	0.01525
5085.91785	0.01529
5083.98918	0.01532
5082.06050	0.01535
5080.13183	0.01539
5078.20315	0.01543
5076.27448	0.01548
5074.34580	0.01550
5072.41712	0.01550
5070.48845	0.01549
5068.55977	0.01552
5066.63110	0.01555
5064.70242	0.01557
5062.77375	0.01559
5060.84507	0.01563
5058.91639	0.01566
5056.98772	0.01570
5055.05904	0.01574
5053.13037	0.01577
5051.20169	0.01578
5049.27302	0.01580
5047.34434	0.01583
5045.41566	0.01587
5043.48699	0.01591
5041.55831	0.01593
5039.62964	0.01593
5037.70096	0.01592
5035.77229	0.01593
5033.84361	0.01597
5031.91493	0.01605
5029.98626	0.01612
5028.05758	0.01614
5026.12891	0.01615
5024.20023	0.01616
5022.27156	0.01617
5020.34288	0.01619
5018.41420	0.01620
5016.48553	0.01622
5014.55685	0.01625
5012.62818	0.01630
5010.69950	0.01634
5008.77083	0.01637
5006.84215	0.01640
5004.91347	0.01642
5002.98480	0.01645
5001.05612	0.01646
4999.12745	0.01646
4997.19877	0.01646
4995.27010	0.01647
4993.34142	0.01651
4991.41274	0.01657
4989.48407	0.01661
4987.55539	0.01665
4985.62672	0.01669
4983.69804	0.01674
4981.76937	0.01678
4979.84069	0.01679
4977.91201	0.01681
4975.98334	0.01685
4974.05466	0.01688
4972.12599	0.01690
4970.19731	0.01690
4968.26864	0.01691
4966.33996	0.01694
4964.41128	0.01695
4962.48261	0.01696
4960.55393	0.01700
4958.62526	0.01705
4956.69658	0.01708
4954.76791	0.01711
4952.83923	0.01717
4950.91055	0.01722
4948.98188	0.01724
4947.05320	0.01727
4945.12453	0.01730
4943.19585	0.01735
4941.26718	0.01738
4939.33850	0.01739
4937.40982	0.01740
4935.48115	0.01742
4933.55247	0.01746
4931.62380	0.01750
4929.69512	0.01753
4927.76645	0.01754
4925.83777	0.01756
4923.90909	0.01761
4921.98042	0.01764
4920.05174	0.01763
4918.12307	0.01763
4916.19439	0.01768
4914.26572	0.01772
4912.33704	0.01772
4910.40836	0.01774
4908.47969	0.01779
4906.55101	0.01783
4904.62234	0.01786
4902.69366	0.01790
4900.76499	0.01794
4898.83631	0.01797
4896.90763	0.01799
4894.97896	0.01801
4893.05028	0.01804
4891.12161	0.01806
4889.19293	0.01807
4887.26426	0.01812
4885.33558	0.01821
4883.40690	0.01825
4881.47823	0.01824
4879.54955	0.01821
4877.62088	0.01823
4875.69220	0.01829
4873.76353	0.01836
4871.83485	0.01840
4869.90617	0.01840
4867.97750	0.01841
4866.04882	0.01844
4864.12015	0.01848
4862.19147	0.01850
4860.26280	0.01852
4858.33412	0.01855
4856.40544	0.01861
4854.47677	0.01865
4852.54809	0.01867
4850.61942	0.01871
4848.69074	0.01874
4846.76207	0.01874
4844.83339	0.01873
4842.90471	0.01877
4840.97604	0.01884
4839.04736	0.01890
4837.11869	0.01893
4835.19001	0.01895
4833.26134	0.01895
4831.33266	0.01896
4829.40398	0.01899
4827.47531	0.01904
4825.54663	0.01908
4823.61796	0.01910
4821.68928	0.01913
4819.76061	0.01919
4817.83193	0.01926
4815.90325	0.01929
4813.97458	0.01931
4812.04590	0.01932
4810.11723	0.01934
4808.18855	0.01938
4806.25988	0.01944
4804.33120	0.01949
4802.40252	0.01951
4800.47385	0.01950
4798.54517	0.01950
4796.61650	0.01951
4794.68782	0.01953
4792.75915	0.01959
4790.83047	0.01965
4788.90179	0.01969
4786.97312	0.01971
4785.04444	0.01974
4783.11577	0.01978
4781.18709	0.01982
4779.25842	0.01987
4777.32974	0.01992
4775.40106	0.01994
4773.47239	0.01993
4771.54371	0.01994
4769.61504	0.01996
4767.68636	0.01998
4765.75769	0.02003
4763.82901	0.02010
4761.90033	0.02017
4759.97166	0.02018
4758.04298	0.02017
4756.11431	0.02018
4754.18563	0.02023
4752.25696	0.02027
4750.32828	0.02032
4748.39960	0.02038
4746.47093	0.02043
4744.54225	0.02047
4742.61358	0.02051
4740.68490	0.02054
4738.75623	0.02053
4736.82755	0.02054
4734.89887	0.02056
4732.97020	0.02060
4731.04152	0.02066
4729.11285	0.02074
4727.18417	0.02078
4725.25550	0.02077
4723.32682	0.02077
4721.39814	0.02080
4719.46947	0.02085
4717.54079	0.02090
4715.61212	0.02094
4713.68344	0.02097
4711.75477	0.02101
4709.82609	0.02104
4707.89741	0.02106
4705.96874	0.02108
4704.04006	0.02111
4702.11139	0.02116
4700.18271	0.02119
4698.25404	0.02120
4696.32536	0.02123
4694.39668	0.02128
4692.46801	0.02134
4690.53933	0.02139
4688.61066	0.02144
4686.68198	0.02149
4684.75331	0.02152
4682.82463	0.02153
4680.89595	0.02155
4678.96728	0.02159
4677.03860	0.02163
4675.10993	0.02167
4673.18125	0.02168
4671.25258	0.02167
4669.32390	0.02170
4667.39522	0.02178
4665.46655	0.02188
4663.53787	0.02192
4661.60920	0.02192
4659.68052	0.02192
4657.75185	0.02196
4655.82317	0.02202
4653.89449	0.02206
4651.96582	0.02208
4650.03714	0.02211
4648.10847	0.02217
4646.17979	0.02223
4644.25112	0.02228
4642.32244	0.02230
4640.39376	0.02233
4638.46509	0.02236
4636.53641	0.02241
4634.60774	0.02246
4632.67906	0.02249
4630.75039	0.02249
4628.82171	0.02250
4626.89303	0.02253
4624.96436	0.02256
4623.03568	0.02259
4621.10701	0.02260
4619.17833	0.02263
4617.24966	0.02272
4615.32098	0.02279
4613.39230	0.02283
4611.46363	0.02286
4609.53495	0.02290
4607.60628	0.02293
4605.67760	0.02297
4603.74893	0.02300
4601.82025	0.02303
4599.89157	0.02305
4597.96290	0.02308
4596.03422	0.02313
4594.10555	0.02320
4592.17687	0.02325
4590.24820	0.02326
4588.31952	0.02327
4586.39084	0.02331
4584.46217	0.02336
4582.53349	0.02342
4580.60482	0.02346
4578.67614	0.02349
4576.74747	0.02353
4574.81879	0.02354
4572.89011	0.02356
4570.96144	0.02360
4569.03276	0.02367
4567.10409	0.02374
4565.17541	0.02379
4563.24674	0.02382
4561.31806	0.02385
4559.38938	0.02389
4557.46071	0.02394
4555.53203	0.02399
4553.60336	0.02402
4551.67468	0.02405
4549.74601	0.02409
4547.81733	0.02413
4545.88865	0.02416
4543.95998	0.02423
4542.03130	0.02434
4540.10263	0.02442
4538.17395	0.02444
4536.24528	0.02443
4534.31660	0.02443
4532.38792	0.02446
4530.45925	0.02449
4528.53057	0.02454
4526.60190	0.02461
4524.67322	0.02464
4522.74455	0.02466
4520.81587	0.02470
4518.88719	0.02475
4516.95852	0.02480
4515.02984	0.02484
4513.10117	0.02489
4511.17249	0.02495
4509.24382	0.02499
4507.31514	0.02502
4505.38646	0.02505
4503.45779	0.02508
4501.52911	0.02512
4499.60044	0.02515
4497.67176	0.02520
4495.74309	0.02524
4493.81441	0.02528
4491.88573	0.02530
4489.95706	0.02532
4488.02838	0.02538
4486.09971	0.02545
4484.17103	0.02551
4482.24236	0.02555
4480.31368	0.02558
4478.38500	0.02562
4476.45633	0.02566
4474.52765	0.02569
4472.59898	0.02573
4470.67030	0.02578
4468.74163	0.02584
4466.81295	0.02592
4464.88427	0.02598
4462.95560	0.02600
4461.02692	0.02600
4459.09825	0.02603
4457.16957	0.02610
4455.24090	0.02619
4453.31222	0.02625
4451.38354	0.02631
4449.45487	0.02635
4447.52619	0.02635
4445.59752	0.02636
4443.66884	0.02641
4441.74017	0.02647
4439.81149	0.02655
4437.88281	0.02661
4435.95414	0.02664
4434.02546	0.02666
4432.09679	0.02669
4430.16811	0.02673
4428.23944	0.02679
4426.31076	0.02686
4424.38208	0.02694
4422.45341	0.02701
4420.52473	0.02706
4418.59606	0.02708
4416.66738	0.02709
4414.73871	0.02713
4412.81003	0.02718
4410.88135	0.02722
4408.95268	0.02726
4407.02400	0.02732
4405.09533	0.02738
4403.16665	0.02742
4401.23798	0.02747
4399.30930	0.02754
4397.38062	0.02761
4395.45195	0.02763
4393.52327	0.02766
4391.59460	0.02770
4389.66592	0.02775
4387.73725	0.02778
4385.80857	0.02782
4383.87989	0.02784
4381.95122	0.02787
4380.02254	0.02794
4378.09387	0.02802
4376.16519	0.02810
4374.23652	0.02817
4372.30784	0.02824
4370.37916	0.02830
4368.45049	0.02832
4366.52181	0.02832
4364.59314	0.02836
4362.66446	0.02843
4360.73579	0.02848
4358.80711	0.02852
4356.87843	0.02857
4354.94976	0.02861
4353.02108	0.02865
4351.09241	0.02870
4349.16373	0.02878
4347.23506	0.02887
4345.30638	0.02894
4343.37770	0.02899
4341.44903	0.02904
4339.52035	0.02911
4337.59168	0.02913
4335.66300	0.02914
4333.73433	0.02917
4331.80565	0.02922
4329.87697	0.02928
4327.94830	0.02933
4326.01962	0.02937
4324.09095	0.02941
4322.16227	0.02947
4320.23360	0.02954
4318.30492	0.02961
4316.37624	0.02967
4314.44757	0.02971
4312.51889	0.02975
4310.59022	0.02978
4308.66154	0.02983
4306.73287	0.02989
4304.80419	0.02995
4302.87551	0.03001
4300.94684	0.03007
4299.01816	0.03012
4297.08949	0.03018
4295.16081	0.03025
4293.23214	0.03030
4291.30346	0.03034
4289.37478	0.03038
4287.44611	0.03043
4285.51743	0.03050
4283.58876	0.03059
4281.66008	0.03067
4279.73141	0.03072
4277.80273	0.03078
4275.87405	0.03087
4273.94538	0.03095
4272.01670	0.03099
4270.08803	0.03100
4268.15935	0.03103
4266.23068	0.03110
4264.30200	0.03118
4262.37332	0.03125
4260.44465	0.03129
4258.51597	0.03135
4256.58730	0.03142
4254.65862	0.03148
4252.72995	0.03151
4250.80127	0.03154
4248.87259	0.03158
4246.94392	0.03164
4245.01524	0.03170
4243.08657	0.03174
4241.15789	0.03179
4239.22922	0.03184
4237.30054	0.03191
4235.37186	0.03199
4233.44319	0.03205
4231.51451	0.03208
4229.58584	0.03212
4227.65716	0.03220
4225.72849	0.03235
4223.79981	0.03249
4221.87113	0.03256
4219.94246	0.03258
4218.01378	0.03262
4216.08511	0.03266
4214.15643	0.03269
4212.22776	0.03270
4210.29908	0.03274
4208.37040	0.03281
4206.44173	0.03288
4204.51305	0.03294
4202.58438	0.03300
4200.65570	0.03307
4198.72703	0.03317
4196.79835	0.03327
4194.86968	0.03333
4192.94100	0.03336
4191.01232	0.03340
4189.08365	0.03346
4187.15497	0.03355
4185.22630	0.03363
4183.29762	0.03369
4181.36895	0.03374
4179.44027	0.03379
4177.51159	0.03386
4175.58292	0.03392
4173.65424	0.03396
4171.72557	0.03401
4169.79689	0.03409
4167.86822	0.03419
4165.93954	0.03427
4164.01086	0.03433
4162.08219	0.03438
4160.15351	0.03443
4158.22484	0.03448
4156.29616	0.03452
4154.36749	0.03457
4152.43881	0.03463
4150.51013	0.03471
4148.58146	0.03479
4146.65278	0.03487
4144.72411	0.03496
4142.79543	0.03505
4140.86676	0.03510
4138.93808	0.03511
4137.00940	0.03513
4135.08073	0.03521
4133.15205	0.03533
4131.22338	0.03542
4129.29470	0.03546
4127.36603	0.03547
4125.43735	0.03552
4123.50867	0.03561
4121.58000	0.03570
4119.65132	0.03578
4117.72265	0.03585
4115.79397	0.03590
4113.86530	0.03597
4111.93662	0.03605
4110.00794	0.03614
4108.07927	0.03622
4106.15059	0.03628
4104.22192	0.03636
4102.29324	0.03644
4100.36457	0.03651
4098.43589	0.03657
4096.50721	0.03664
4094.57854	0.03671
4092.64986	0.03679
4090.72119	0.03686
4088.79251	0.03691
4086.86384	0.03697
4084.93516	0.03705
4083.00648	0.03712
4081.07781	0.03717
4079.14913	0.03721
4077.22046	0.03728
4075.29178	0.03738
4073.36311	0.03747
4071.43443	0.03752
4069.50575	0.03756
4067.57708	0.03762
4065.64840	0.03771
4063.71973	0.03780
4061.79105	0.03788
4059.86238	0.03796
4057.93370	0.03803
4056.00502	0.03810
4054.07635	0.03819
4052.14767	0.03827
4050.21900	0.03832
4048.29032	0.03836
4046.36165	0.03842
4044.43297	0.03852
4042.50429	0.03861
4040.57562	0.03866
4038.64694	0.03869
4036.71827	0.03880
4034.78959	0.03891
4032.86092	0.03896
4030.93224	0.03900
4029.00356	0.03905
4027.07489	0.03913
4025.14621	0.03924
4023.21754	0.03933
4021.28886	0.03938
4019.36019	0.03943
4017.43151	0.03951
4015.50283	0.03961
4013.57416	0.03972
4011.64548	0.03980
4009.71681	0.03986
4007.78813	0.03991
4005.85946	0.03996
4003.93078	0.04004
4002.00210	0.04014
4000.07343	0.04024
3998.14475	0.04033
3996.21608	0.04040
3994.28740	0.04047
3992.35873	0.04053
3990.43005	0.04061
3988.50137	0.04070
3986.57270	0.04078
3984.64402	0.04084
3982.71535	0.04090
3980.78667	0.04096
3978.85800	0.04103
3976.92932	0.04110
3975.00064	0.04118
3973.07197	0.04125
3971.14329	0.04132
3969.21462	0.04142
3967.28594	0.04152
3965.35727	0.04160
3963.42859	0.04165
3961.49991	0.04170
3959.57124	0.04177
3957.64256	0.04188
3955.71389	0.04200
3953.78521	0.04208
3951.85654	0.04211
3949.92786	0.04215
3947.99918	0.04223
3946.07051	0.04233
3944.14183	0.04241
3942.21316	0.04248
3940.28448	0.04257
3938.35581	0.04265
3936.42713	0.04272
3934.49845	0.04280
3932.56978	0.04285
3930.64110	0.04292
3928.71243	0.04302
3926.78375	0.04310
3924.85508	0.04316
3922.92640	0.04324
3920.99772	0.04335
3919.06905	0.04344
3917.14037	0.04354
3915.21170	0.04365
3913.28302	0.04377
3911.35435	0.04385
3909.42567	0.04389
3907.49699	0.04388
3905.56832	0.04384
3903.63964	0.04384
3901.71097	0.04393
3899.78229	0.04410
3897.85362	0.04431
3895.92494	0.04445
3893.99626	0.04448
3892.06759	0.04450
3890.13891	0.04460
3888.21024	0.04466
3886.28156	0.04467
3884.35289	0.04476
3882.42421	0.04486
3880.49553	0.04495
3878.56686	0.04510
3876.63818	0.04521
3874.70951	0.04523
3872.78083	0.04524
3870.85216	0.04530
3868.92348	0.04542
3866.99480	0.04557
3865.06613	0.04568
3863.13745	0.04576
3861.20878	0.04588
3859.28010	0.04599
3857.35143	0.04597
3855.42275	0.04580
3853.49407	0.04574
3851.56540	0.04599
3849.63672	0.04634
3847.70805	0.04654
3845.77937	0.04657
3843.85070	0.04655
3841.92202	0.04658
3839.99334	0.04664
3838.06467	0.04674
3836.13599	0.04690
3834.20732	0.04705
3832.27864	0.04717
3830.34997	0.04729
3828.42129	0.04741
3826.49261	0.04749
3824.56394	0.04751
3822.63526	0.04744
3820.70659	0.04744
3818.77791	0.04758
3816.84924	0.04771
3814.92056	0.04789
3812.99188	0.04812
3811.06321	0.04826
3809.13453	0.04825
3807.20586	0.04823
3805.27718	0.04828
3803.34851	0.04834
3801.41983	0.04845
3799.49115	0.04863
3797.56248	0.04878
3795.63380	0.04890
3793.70513	0.04905
3791.77645	0.04918
3789.84778	0.04930
3787.91910	0.04939
3785.99042	0.04945
3784.06175	0.04951
3782.13307	0.04956
3780.20440	0.04962
3778.27572	0.04975
3776.34705	0.04990
3774.41837	0.04998
3772.48969	0.04998
3770.56102	0.05000
3768.63234	0.05008
3766.70367	0.05019
3764.77499	0.05031
3762.84632	0.05043
3760.91764	0.05048
3758.98896	0.05053
3757.06029	0.05062
3755.13161	0.05067
3753.20294	0.05062
3751.27426	0.05060
3749.34559	0.05070
3747.41691	0.05077
3745.48823	0.05074
3743.55956	0.05090
3741.63088	0.05125
3739.70221	0.05141
3737.77353	0.05132
3735.84486	0.05125
3733.91618	0.05139
3731.98750	0.05167
3730.05883	0.05192
3728.13015	0.05205
3726.20148	0.05212
3724.27280	0.05220
3722.34413	0.05231
3720.41545	0.05243
3718.48677	0.05255
3716.55810	0.05263
3714.62942	0.05262
3712.70075	0.05257
3710.77207	0.05264
3708.84340	0.05288
3706.91472	0.05312
3704.98604	0.05322
3703.05737	0.05323
3701.12869	0.05332
3699.20002	0.05350
3697.27134	0.05366
3695.34267	0.05372
3693.41399	0.05368
3691.48531	0.05360
3689.55664	0.05361
3687.62796	0.05379
3685.69929	0.05406
3683.77061	0.05426
3681.84194	0.05435
3679.91326	0.05435
3677.98458	0.05427
3676.05591	0.05424
3674.12723	0.05435
3672.19856	0.05449
3670.26988	0.05458
3668.34121	0.05477
3666.41253	0.05501
3664.48385	0.05517
3662.55518	0.05526
3660.62650	0.05532
3658.69783	0.05533
3656.76915	0.05532
3654.84048	0.05535
3652.91180	0.05533
3650.98312	0.05518
3649.05445	0.05510
3647.12577	0.05527
3645.19710	0.05561
3643.26842	0.05590
3641.33975	0.05605
3639.41107	0.05612
3637.48239	0.05620
3635.55372	0.05627
3633.62504	0.05630
3631.69637	0.05621
3629.76769	0.05615
3627.83902	0.05631
3625.91034	0.05659
3623.98166	0.05675
3622.05299	0.05673
3620.12431	0.05666
3618.19564	0.05671
3616.26696	0.05684
3614.33829	0.05691
3612.40961	0.05697
3610.48093	0.05702
3608.55226	0.05711
3606.62358	0.05727
3604.69491	0.05742
3602.76623	0.05749
3600.83756	0.05753
3598.90888	0.05760
3596.98020	0.05765
3595.05153	0.05770
3593.12285	0.05780
3591.19418	0.05786
3589.26550	0.05781
3587.33683	0.05781
3585.40815	0.05798
3583.47947	0.05821
3581.55080	0.05835
3579.62212	0.05843
3577.69345	0.05850
3575.76477	0.05857
3573.83610	0.05865
3571.90742	0.05873
3569.97874	0.05871
3568.05007	0.05865
3566.12139	0.05872
3564.19272	0.05891
3562.26404	0.05909
3560.33537	0.05923
3558.40669	0.05935
3556.47801	0.05942
3554.54934	0.05944
3552.62066	0.05948
3550.69199	0.05953
3548.76331	0.05958
3546.83464	0.05963
3544.90596	0.05971
3542.97728	0.05983
3541.04861	0.05994
3539.11993	0.05999
3537.19126	0.05999
3535.26258	0.06001
3533.33391	0.06005
3531.40523	0.06010
3529.47655	0.06015
3527.54788	0.06020
3525.61920	0.06024
3523.69053	0.06029
3521.76185	0.06036
3519.83318	0.06044
3517.90450	0.06048
3515.97582	0.06054
3514.04715	0.06059
3512.11847	0.06058
3510.18980	0.06053
3508.26112	0.06053
3506.33245	0.06059
3504.40377	0.06063
3502.47509	0.06066
3500.54642	0.06071
3498.61774	0.06076
3496.68907	0.06080
3494.76039	0.06083
3492.83172	0.06084
3490.90304	0.06086
3488.97436	0.06086
3487.04569	0.06089
3485.11701	0.06095
3483.18834	0.06101
3481.25966	0.06103
3479.33099	0.06107
3477.40231	0.06115
3475.47363	0.06125
3473.54496	0.06133
3471.61628	0.06140
3469.68761	0.06149
3467.75893	0.06159
3465.83026	0.06169
3463.90158	0.06180
3461.97290	0.06191
3460.04423	0.06201
3458.11555	0.06213
3456.18688	0.06225
3454.25820	0.06235
3452.32953	0.06244
3450.40085	0.06255
3448.47217	0.06268
3446.54350	0.06279
3444.61482	0.06284
3442.68615	0.06286
3440.75747	0.06293
3438.82880	0.06307
3436.90012	0.06325
3434.97144	0.06348
3433.04277	0.06374
3431.11409	0.06396
3429.18542	0.06413
3427.25674	0.06430
3425.32807	0.06446
3423.39939	0.06462
3421.47071	0.06483
3419.54204	0.06509
3417.61336	0.06531
3415.68469	0.06547
3413.75601	0.06561
3411.82734	0.06573
3409.89866	0.06585
3407.96998	0.06598
3406.04131	0.06612
3404.11263	0.06626
3402.18396	0.06638
3400.25528	0.06649
3398.32661	0.06662
3396.39793	0.06680
3394.46925	0.06696
3392.54058	0.06708
3390.61190	0.06718
3388.68323	0.06728
3386.75455	0.06742
3384.82588	0.06756
3382.89720	0.06769
3380.96852	0.06781
3379.03985	0.06794
3377.11117	0.06809
3375.18250	0.06825
3373.25382	0.06840
3371.32515	0.06856
3369.39647	0.06870
3367.46779	0.06880
3365.53912	0.06891
3363.61044	0.06904
3361.68177	0.06916
3359.75309	0.06929
3357.82442	0.06942
3355.89574	0.06953
3353.96706	0.06964
3352.03839	0.06977
3350.10971	0.06991
3348.18104	0.07005
3346.25236	0.07018
3344.32369	0.07032
3342.39501	0.07044
3340.46633	0.07054
3338.53766	0.07068
3336.60898	0.07084
3334.68031	0.07098
3332.75163	0.07108
3330.82296	0.07117
3328.89428	0.07123
3326.96560	0.07133
3325.03693	0.07149
3323.10825	0.07165
3321.17958	0.07177
3319.25090	0.07190
3317.32223	0.07204
3315.39355	0.07220
3313.46487	0.07235
3311.53620	0.07246
3309.60752	0.07257
3307.67885	0.07274
3305.75017	0.07294
3303.82150	0.07307
3301.89282	0.07314
3299.96414	0.07323
3298.03547	0.07337
3296.10679	0.07350
3294.17812	0.07363
3292.24944	0.07376
3290.32077	0.07389
3288.39209	0.07403
3286.46341	0.07416
3284.53474	0.07426
3282.60606	0.07437
3280.67739	0.07454
3278.74871	0.07471
3276.82004	0.07483
3274.89136	0.07494
3272.96268	0.07509
3271.03401	0.07525
3269.10533	0.07538
3267.17666	0.07552
3265.24798	0.07568
3263.31931	0.07582
3261.39063	0.07593
3259.46195	0.07607
3257.53328	0.07624
3255.60460	0.07638
3253.67593	0.07647
3251.74725	0.07658
3249.81858	0.07675
3247.88990	0.07691
3245.96122	0.07707
3244.03255	0.07724
3242.10387	0.07739
3240.17520	0.07752
3238.24652	0.07764
3236.31785	0.07778
3234.38917	0.07794
3232.46049	0.07807
3230.53182	0.07819
3228.60314	0.07833
3226.67447	0.07850
3224.74579	0.07861
3222.81712	0.07868
3220.88844	0.07877
3218.95976	0.07894
3217.03109	0.07911
3215.10241	0.07923
3213.17374	0.07936
3211.24506	0.07950
3209.31639	0.07963
3207.38771	0.07976
3205.45903	0.07990
3203.53036	0.08007
3201.60168	0.08026
3199.67301	0.08046
3197.74433	0.08062
3195.81566	0.08074
3193.88698	0.08087
3191.95830	0.08102
3190.02963	0.08114
3188.10095	0.08124
3186.17228	0.08135
3184.24360	0.08151
3182.31493	0.08171
3180.38625	0.08187
3178.45757	0.08199
3176.52890	0.08213
3174.60022	0.08231
3172.67155	0.08246
3170.74287	0.08258
3168.81420	0.08274
3166.88552	0.08295
3164.95684	0.08311
3163.02817	0.08320
3161.09949	0.08330
3159.17082	0.08344
3157.24214	0.08362
3155.31347	0.08380
3153.38479	0.08393
3151.45611	0.08402
3149.52744	0.08414
3147.59876	0.08430
3145.67009	0.08448
3143.74141	0.08464
3141.81274	0.08480
3139.88406	0.08497
3137.95538	0.08511
3136.02671	0.08521
3134.09803	0.08531
3132.16936	0.08546
3130.24068	0.08563
3128.31201	0.08576
3126.38333	0.08586
3124.45465	0.08597
3122.52598	0.08614
3120.59730	0.08632
3118.66863	0.08645
3116.73995	0.08655
3114.81128	0.08671
3112.88260	0.08689
3110.95392	0.08706
3109.02525	0.08721
3107.09657	0.08735
3105.16790	0.08745
3103.23922	0.08754
3101.31055	0.08769
3099.38187	0.08790
3097.45319	0.08806
3095.52452	0.08818
3093.59584	0.08832
3091.66717	0.08851
3089.73849	0.08867
3087.80982	0.08878
3085.88114	0.08888
3083.95246	0.08901
3082.02379	0.08916
3080.09511	0.08933
3078.16644	0.08948
3076.23776	0.08959
3074.30909	0.08971
3072.38041	0.08988
3070.45173	0.09006
3068.52306	0.09023
3066.59438	0.09039
3064.66571	0.09054
3062.73703	0.09068
3060.80836	0.09081
3058.87968	0.09092
3056.95100	0.09104
3055.02233	0.09120
3053.09365	0.09137
3051.16498	0.09149
3049.23630	0.09160
3047.30763	0.09173
3045.37895	0.09185
3043.45027	0.09193
3041.52160	0.09203
3039.59292	0.09220
3037.66425	0.09238
3035.73557	0.09257
3033.80690	0.09274
3031.87822	0.09292
3029.94954	0.09312
3028.02087	0.09330
3026.09219	0.09345
3024.16352	0.09356
3022.23484	0.09365
3020.30617	0.09372
3018.37749	0.09379
3016.44881	0.09390
3014.52014	0.09408
3012.59146	0.09430
3010.66279	0.09452
3008.73411	0.09467
3006.80544	0.09475
3004.87676	0.09484
3002.94808	0.09499
3001.01941	0.09516
2999.09073	0.09531
2997.16206	0.09543
2995.23338	0.09552
2993.30471	0.09562
2991.37603	0.09578
2989.44735	0.09598
2987.51868	0.09611
2985.59000	0.09619
2983.66133	0.09629
2981.73265	0.09638
2979.80398	0.09641
2977.87530	0.09642
2975.94662	0.09648
2974.01795	0.09649
2972.08927	0.09646
2970.16060	0.09641
2968.23192	0.09637
2966.30325	0.09638
2964.37457	0.09646
2962.44589	0.09656
2960.51722	0.09669
2958.58854	0.09684
2956.65987	0.09702
2954.73119	0.09720
2952.80252	0.09738
2950.87384	0.09754
2948.94516	0.09769
2947.01649	0.09784
2945.08781	0.09798
2943.15914	0.09810
2941.23046	0.09816
2939.30179	0.09812
2937.37311	0.09805
2935.44443	0.09802
2933.51576	0.09803
2931.58708	0.09805
2929.65841	0.09804
2927.72973	0.09800
2925.80106	0.09794
2923.87238	0.09792
2921.94370	0.09797
2920.01503	0.09805
2918.08635	0.09823
2916.15768	0.09854
2914.22900	0.09899
2912.30033	0.09951
2910.37165	0.09998
2908.44297	0.10033
2906.51430	0.10062
2904.58562	0.10086
2902.65695	0.10106
2900.72827	0.10129
2898.79960	0.10154
2896.87092	0.10180
2894.94224	0.10203
2893.01357	0.10222
2891.08489	0.10236
2889.15622	0.10250
2887.22754	0.10267
2885.29887	0.10287
2883.37019	0.10308
2881.44151	0.10327
2879.51284	0.10342
2877.58416	0.10351
2875.65549	0.10362
2873.72681	0.10375
2871.79814	0.10390
2869.86946	0.10403
2867.94078	0.10416
2866.01211	0.10427
2864.08343	0.10438
2862.15476	0.10447
2860.22608	0.10451
2858.29741	0.10451
2856.36873	0.10451
2854.44005	0.10450
2852.51138	0.10449
2850.58270	0.10456
2848.65403	0.10485
2846.72535	0.10532
2844.79668	0.10582
2842.86800	0.10623
2840.93932	0.10655
2839.01065	0.10682
2837.08197	0.10709
2835.15330	0.10736
2833.22462	0.10760
2831.29595	0.10783
2829.36727	0.10806
2827.43859	0.10825
2825.50992	0.10836
2823.58124	0.10842
2821.65257	0.10851
2819.72389	0.10864
2817.79522	0.10883
2815.86654	0.10904
2813.93786	0.10928
2812.00919	0.10949
2810.08051	0.10964
2808.15184	0.10975
2806.22316	0.10988
2804.29449	0.11003
2802.36581	0.11021
2800.43713	0.11039
2798.50846	0.11053
2796.57978	0.11066
2794.65111	0.11081
2792.72243	0.11096
2790.79376	0.11114
2788.86508	0.11134
2786.93640	0.11153
2785.00773	0.11166
2783.07905	0.11178
2781.15038	0.11196
2779.22170	0.11217
2777.29303	0.11236
2775.36435	0.11252
2773.43567	0.11266
2771.50700	0.11278
2769.57832	0.11289
2767.64965	0.11301
2765.72097	0.11316
2763.79230	0.11334
2761.86362	0.11349
2759.93494	0.11364
2758.00627	0.11383
2756.07759	0.11398
2754.14892	0.11409
2752.22024	0.11423
2750.29157	0.11441
2748.36289	0.11458
2746.43421	0.11471
2744.50554	0.11483
2742.57686	0.11495
2740.64819	0.11510
2738.71951	0.11528
2736.79084	0.11543
2734.86216	0.11558
2732.93348	0.11574
2731.00481	0.11589
2729.07613	0.11607
2727.14746	0.11629
2725.21878	0.11647
2723.29011	0.11659
2721.36143	0.11668
2719.43275	0.11675
2717.50408	0.11686
2715.57540	0.11704
2713.64673	0.11727
2711.71805	0.11748
2709.78938	0.11761
2707.86070	0.11772
2705.93202	0.11784
2704.00335	0.11793
2702.07467	0.11800
2700.14600	0.11814
2698.21732	0.11833
2696.28865	0.11853
2694.35997	0.11870
2692.43129	0.11885
2690.50262	0.11903
2688.57394	0.11920
2686.64527	0.11933
2684.71659	0.11945
2682.78792	0.11961
2680.85924	0.11975
2678.93056	0.11986
2677.00189	0.11997
2675.07321	0.12013
2673.14454	0.12033
2671.21586	0.12052
2669.28719	0.12070
2667.35851	0.12088
2665.42983	0.12101
2663.50116	0.12111
2661.57248	0.12124
2659.64381	0.12139
2657.71513	0.12153
2655.78646	0.12167
2653.85778	0.12185
2651.92910	0.12204
2650.00043	0.12223
2648.07175	0.12239
2646.14308	0.12251
2644.21440	0.12264
2642.28573	0.12282
2640.35705	0.12303
2638.42837	0.12319
2636.49970	0.12333
2634.57102	0.12346
2632.64235	0.12361
2630.71367	0.12376
2628.78500	0.12390
2626.85632	0.12407
2624.92764	0.12427
2622.99897	0.12445
2621.07029	0.12459
2619.14162	0.12471
2617.21294	0.12483
2615.28427	0.12494
2613.35559	0.12510
2611.42691	0.12530
2609.49824	0.12550
2607.56956	0.12567
2605.64089	0.12585
2603.71221	0.12604
2601.78354	0.12623
2599.85486	0.12642
2597.92618	0.12657
2595.99751	0.12666
2594.06883	0.12672
2592.14016	0.12684
2590.21148	0.12702
2588.28281	0.12720
2586.35413	0.12735
2584.42545	0.12748
2582.49678	0.12770
2580.56810	0.12795
2578.63943	0.12815
2576.71075	0.12828
2574.78208	0.12840
2572.85340	0.12852
2570.92472	0.12866
2568.99605	0.12877
2567.06737	0.12888
2565.13870	0.12905
2563.21002	0.12925
2561.28135	0.12939
2559.35267	0.12953
2557.42399	0.12971
2555.49532	0.12989
2553.56664	0.13006
2551.63797	0.13025
2549.70929	0.13040
2547.78062	0.13051
2545.85194	0.13067
2543.92326	0.13087
2541.99459	0.13105
2540.06591	0.13119
2538.13724	0.13134
2536.20856	0.13148
2534.27989	0.13159
2532.35121	0.13175
2530.42253	0.13193
2528.49386	0.13208
2526.56518	0.13219
2524.63651	0.13230
2522.70783	0.13245
2520.77916	0.13267
2518.85048	0.13289
2516.92181	0.13306
2514.99313	0.13317
2513.06445	0.13329
2511.13578	0.13345
2509.20710	0.13362
2507.27843	0.13383
2505.34975	0.13404
2503.42108	0.13423
2501.49240	0.13440
2499.56372	0.13458
2497.63505	0.13476
2495.70637	0.13495
2493.77770	0.13514
2491.84902	0.13532
2489.92035	0.13549
2487.99167	0.13567
2486.06299	0.13587
2484.13432	0.13609
2482.20564	0.13629
2480.27697	0.13643
2478.34829	0.13656
2476.41962	0.13670
2474.49094	0.13685
2472.56226	0.13702
2470.63359	0.13723
2468.70491	0.13744
2466.77624	0.13759
2464.84756	0.13770
2462.91889	0.13780
2460.99021	0.13795
2459.06153	0.13812
2457.13286	0.13831
2455.20418	0.13851
2453.27551	0.13870
2451.34683	0.13884
2449.41816	0.13898
2447.48948	0.13917
2445.56080	0.13937
2443.63213	0.13955
2441.70345	0.13969
2439.77478	0.13981
2437.84610	0.13996
2435.91743	0.14011
2433.98875	0.14025
2432.06007	0.14043
2430.13140	0.14064
2428.20272	0.14083
2426.27405	0.14098
2424.34537	0.14109
2422.41670	0.14122
2420.48802	0.14138
2418.55934	0.14157
2416.63067	0.14175
2414.70199	0.14194
2412.77332	0.14214
2410.84464	0.14234
2408.91597	0.14248
2406.98729	0.14260
2405.05861	0.14278
2403.12994	0.14299
2401.20126	0.14316
2399.27259	0.14329
2397.34391	0.14340
2395.41524	0.14351
2393.48656	0.14366
2391.55788	0.14386
2389.62921	0.14407
2387.70053	0.14423
2385.77186	0.14440
2383.84318	0.14455
2381.91451	0.14464
2379.98583	0.14472
2378.05715	0.14481
2376.12848	0.14487
2374.19980	0.14485
2372.27113	0.14481
2370.34245	0.14484
2368.41378	0.14496
2366.48510	0.14503
2364.55642	0.14506
2362.62775	0.14513
2360.69907	0.14526
2358.77040	0.14543
2356.84172	0.14570
2354.91305	0.14601
2352.98437	0.14635
2351.05569	0.14673
2349.12702	0.14701
2347.19834	0.14707
2345.26967	0.14705
2343.34099	0.14711
2341.41232	0.14728
2339.48364	0.14748
2337.55496	0.14760
2335.62629	0.14771
2333.69761	0.14787
2331.76894	0.14804
2329.84026	0.14821
2327.91159	0.14843
2325.98291	0.14872
2324.05423	0.14900
2322.12556	0.14922
2320.19688	0.14942
2318.26821	0.14960
2316.33953	0.14978
2314.41086	0.15000
2312.48218	0.15028
2310.55350	0.15058
2308.62483	0.15082
2306.69615	0.15098
2304.76748	0.15115
2302.83880	0.15138
2300.91013	0.15157
2298.98145	0.15168
2297.05277	0.15180
2295.12410	0.15200
2293.19542	0.15225
2291.26675	0.15243
2289.33807	0.15256
2287.40940	0.15269
2285.48072	0.15282
2283.55204	0.15296
2281.62337	0.15314
2279.69469	0.15327
2277.76602	0.15339
2275.83734	0.15357
2273.90867	0.15377
2271.97999	0.15396
2270.05131	0.15415
2268.12264	0.15435
2266.19396	0.15451
2264.26529	0.15465
2262.33661	0.15479
2260.40794	0.15495
2258.47926	0.15511
2256.55058	0.15528
2254.62191	0.15548
2252.69323	0.15568
2250.76456	0.15582
2248.83588	0.15593
2246.90721	0.15611
2244.97853	0.15633
2243.04985	0.15653
2241.12118	0.15668
2239.19250	0.15684
2237.26383	0.15699
2235.33515	0.15711
2233.40648	0.15724
2231.47780	0.15744
2229.54912	0.15766
2227.62045	0.15785
2225.69177	0.15800
2223.76310	0.15812
2221.83442	0.15824
2219.90575	0.15838
2217.97707	0.15853
2216.04839	0.15870
2214.11972	0.15889
2212.19104	0.15910
2210.26237	0.15932
2208.33369	0.15952
2206.40502	0.15966
2204.47634	0.15980
2202.54766	0.15994
2200.61899	0.16007
2198.69031	0.16021
2196.76164	0.16035
2194.83296	0.16048
2192.90429	0.16061
2190.97561	0.16077
2189.04693	0.16096
2187.11826	0.16116
2185.18958	0.16128
2183.26091	0.16134
2181.33223	0.16150
2179.40356	0.16174
2177.47488	0.16193
2175.54620	0.16206
2173.61753	0.16224
2171.68885	0.16245
2169.76018	0.16262
2167.83150	0.16275
2165.90283	0.16290
2163.97415	0.16309
2162.04547	0.16328
2160.11680	0.16351
2158.18812	0.16374
2156.25945	0.16392
2154.33077	0.16405
2152.40210	0.16418
2150.47342	0.16433
2148.54474	0.16451
2146.61607	0.16468
2144.68739	0.16487
2142.75872	0.16505
2140.83004	0.16517
2138.90137	0.16525
2136.97269	0.16536
2135.04401	0.16554
2133.11534	0.16575
2131.18666	0.16593
2129.25799	0.16607
2127.32931	0.16622
2125.40064	0.16642
2123.47196	0.16664
2121.54328	0.16684
2119.61461	0.16702
2117.68593	0.16720
2115.75726	0.16737
2113.82858	0.16750
2111.89991	0.16760
2109.97123	0.16772
2108.04255	0.16790
2106.11388	0.16811
2104.18520	0.16832
2102.25653	0.16852
2100.32785	0.16874
2098.39918	0.16892
2096.47050	0.16903
2094.54182	0.16914
2092.61315	0.16931
2090.68447	0.16949
2088.75580	0.16967
2086.82712	0.16984
2084.89845	0.16997
2082.96977	0.17010
2081.04109	0.17030
2079.11242	0.17054
2077.18374	0.17074
2075.25507	0.17090
2073.32639	0.17102
2071.39772	0.17114
2069.46904	0.17127
2067.54036	0.17141
2065.61169	0.17156
2063.68301	0.17174
2061.75434	0.17196
2059.82566	0.17219
2057.89699	0.17244
2055.96831	0.17265
2054.03963	0.17280
2052.11096	0.17292
2050.18228	0.17304
2048.25361	0.17319
2046.32493	0.17337
2044.39626	0.17355
2042.46758	0.17368
2040.53890	0.17378
2038.61023	0.17395
2036.68155	0.17419
2034.75288	0.17441
2032.82420	0.17455
2030.89553	0.17465
2028.96685	0.17480
2027.03817	0.17501
2025.10950	0.17521
2023.18082	0.17541
2021.25215	0.17555
2019.32347	0.17560
2017.39480	0.17572
2015.46612	0.17598
2013.53744	0.17624
2011.60877	0.17640
2009.68009	0.17653
2007.75142	0.17669
2005.82274	0.17686
2003.89407	0.17702
2001.96539	0.17721
2000.03671	0.17738
1998.10804	0.17752
1996.17936	0.17765
1994.25069	0.17776
1992.32201	0.17787
1990.39334	0.17803
1988.46466	0.17825
1986.53598	0.17844
1984.60731	0.17858
1982.67863	0.17873
1980.74996	0.17890
1978.82128	0.17902
1976.89261	0.17915
1974.96393	0.17926
1973.03525	0.17935
1971.10658	0.17947
1969.17790	0.17959
1967.24923	0.17970
1965.32055	0.17989
1963.39188	0.18015
1961.46320	0.18038
1959.53452	0.18057
1957.60585	0.18071
1955.67717	0.18084
1953.74850	0.18099
1951.81982	0.18120
1949.89115	0.18141
1947.96247	0.18149
1946.03379	0.18146
1944.10512	0.18148
1942.17644	0.18165
1940.24777	0.18195
1938.31909	0.18226
1936.39042	0.18256
1934.46174	0.18280
1932.53306	0.18294
1930.60439	0.18300
1928.67571	0.18307
1926.74704	0.18319
1924.81836	0.18330
1922.88969	0.18343
1920.96101	0.18357
1919.03233	0.18367
1917.10366	0.18387
1915.17498	0.18417
1913.24631	0.18438
1911.31763	0.18452
1909.38896	0.18471
1907.46028	0.18494
1905.53160	0.18515
1903.60293	0.18529
1901.67425	0.18540
1899.74558	0.18552
1897.81690	0.18566
1895.88823	0.18577
1893.95955	0.18585
1892.03087	0.18587
1890.10220	0.18594
1888.17352	0.18621
1886.24485	0.18653
1884.31617	0.18674
1882.38750	0.18685
1880.45882	0.18699
1878.53014	0.18716
1876.60147	0.18735
1874.67279	0.18752
1872.74412	0.18759
1870.81544	0.18754
1868.88677	0.18757
1866.95809	0.18784
1865.02941	0.18822
1863.10074	0.18853
1861.17206	0.18878
1859.24339	0.18900
1857.31471	0.18921
1855.38604	0.18934
1853.45736	0.18941
1851.52868	0.18954
1849.60001	0.18968
1847.67133	0.18968
1845.74266	0.18955
1843.81398	0.18965
1841.88531	0.19013
1839.95663	0.19062
1838.02795	0.19087
1836.09928	0.19106
1834.17060	0.19122
1832.24193	0.19122
1830.31325	0.19117
1828.38458	0.19130
1826.45590	0.19148
1824.52722	0.19165
1822.59855	0.19193
1820.66987	0.19222
1818.74120	0.19242
1816.81252	0.19255
1814.88385	0.19263
1812.95517	0.19268
1811.02649	0.19280
1809.09782	0.19299
1807.16914	0.19317
1805.24047	0.19329
1803.31179	0.19332
1801.38312	0.19336
1799.45444	0.19358
1797.52576	0.19386
1795.59709	0.19392
1793.66841	0.19377
1791.73974	0.19377
1789.81106	0.19405
1787.88239	0.19436
1785.95371	0.19455
1784.02503	0.19471
1782.09636	0.19482
1780.16768	0.19488
1778.23901	0.19498
1776.31033	0.19506
1774.38166	0.19498
1772.45298	0.19486
1770.52430	0.19491
1768.59563	0.19515
1766.66695	0.19547
1764.73828	0.19566
1762.80960	0.19571
1760.88093	0.19586
1758.95225	0.19605
1757.02357	0.19617
1755.09490	0.19623
1753.16622	0.19599
1751.23755	0.19557
1749.30887	0.19548
1747.38020	0.19572
1745.45152	0.19592
1743.52284	0.19598
1741.59417	0.19591
1739.66549	0.19587
1737.73682	0.19584
1735.80814	0.19560
1733.87947	0.19543
1731.95079	0.19579
1730.02211	0.19635
1728.09344	0.19682
1726.16476	0.19717
1724.23609	0.19736
1722.30741	0.19733
1720.37874	0.19702
1718.45006	0.19670
1716.52138	0.19681
1714.59271	0.19727
1712.66403	0.19775
1710.73536	0.19806
1708.80668	0.19810
1706.87801	0.19798
1704.94933	0.19795
1703.02065	0.19782
1701.09198	0.19752
1699.16330	0.19753
1697.23463	0.19778
1695.30595	0.19805
1693.37728	0.19846
1691.44860	0.19873
1689.51992	0.19873
1687.59125	0.19855
1685.66257	0.19812
1683.73390	0.19791
1681.80522	0.19826
1679.87655	0.19866
1677.94787	0.19865
1676.01919	0.19846
1674.09052	0.19848
1672.16184	0.19851
1670.23317	0.19846
1668.30449	0.19875
1666.37582	0.19925
1664.44714	0.19941
1662.51846	0.19937
1660.58979	0.19945
1658.66111	0.19952
1656.73244	0.19916
1654.80376	0.19830
1652.87509	0.19791
1650.94641	0.19844
1649.01773	0.19894
1647.08906	0.19908
1645.16038	0.19944
1643.23171	0.19989
1641.30303	0.20003
1639.37436	0.19988
1637.44568	0.19968
1635.51700	0.19977
1633.58833	0.20022
1631.65965	0.20054
1629.73098	0.20046
1627.80230	0.20025
1625.87363	0.20004
1623.94495	0.19968
1622.01627	0.19936
1620.08760	0.19932
1618.15892	0.19954
1616.23025	0.20012
1614.30157	0.20095
1612.37290	0.20161
1610.44422	0.20197
1608.51554	0.20220
1606.58687	0.20242
1604.65819	0.20265
1602.72952	0.20291
1600.80084	0.20319
1598.87217	0.20342
1596.94349	0.20351
1595.01481	0.20355
1593.08614	0.20369
1591.15746	0.20390
1589.22879	0.20409
1587.30011	0.20425
1585.37144	0.20440
1583.44276	0.20461
1581.51408	0.20478
1579.58541	0.20468
1577.65673	0.20439
1575.72806	0.20443
1573.79938	0.20486
1571.87071	0.20505
1569.94203	0.20498
1568.01335	0.20513
1566.08468	0.20545
1564.15600	0.20565
1562.22733	0.20540
1560.29865	0.20474
1558.36998	0.20450
1556.44130	0.20512
1554.51262	0.20594
1552.58395	0.20640
1550.65527	0.20658
1548.72660	0.20667
1546.79792	0.20656
1544.86925	0.20617
1542.94057	0.20575
1541.01189	0.20566
1539.08322	0.20615
1537.15454	0.20684
1535.22587	0.20707
1533.29719	0.20710
1531.36852	0.20741
1529.43984	0.20765
1527.51116	0.20758
1525.58249	0.20744
1523.65381	0.20722
1521.72514	0.20703
1519.79646	0.20720
1517.86779	0.20754
1515.93911	0.20781
1514.01043	0.20805
1512.08176	0.20811
1510.15308	0.20776
1508.22441	0.20726
1506.29573	0.20735
1504.36706	0.20809
1502.43838	0.20862
1500.50970	0.20856
1498.58103	0.20831
1496.65235	0.20831
1494.72368	0.20853
1492.79500	0.20854
1490.86633	0.20822
1488.93765	0.20803
1487.00897	0.20827
1485.08030	0.20861
1483.15162	0.20867
1481.22295	0.20845
1479.29427	0.20806
1477.36560	0.20746
1475.43692	0.20679
1473.50824	0.20631
1471.57957	0.20620
1469.65089	0.20627
1467.72222	0.20606
1465.79354	0.20564
1463.86487	0.20551
1461.93619	0.20550
1460.00751	0.20498
1458.07884	0.20413
1456.15016	0.20397
1454.22149	0.20455
1452.29281	0.20505
1450.36414	0.20519
1448.43546	0.20527
1446.50678	0.20542
1444.57811	0.20562
1442.64943	0.20576
1440.72076	0.20577
1438.79208	0.20556
1436.86341	0.20543
1434.93473	0.20580
1433.00605	0.20627
1431.07738	0.20645
1429.14870	0.20657
1427.22003	0.20673
1425.29135	0.20677
1423.36268	0.20669
1421.43400	0.20636
1419.50532	0.20597
1417.57665	0.20613
1415.64797	0.20672
1413.71930	0.20713
1411.79062	0.20723
1409.86195	0.20715
1407.93327	0.20696
1406.00459	0.20681
1404.07592	0.20687
1402.14724	0.20696
1400.21857	0.20679
1398.28989	0.20653
1396.36122	0.20641
1394.43254	0.20649
1392.50386	0.20668
1390.57519	0.20663
1388.64651	0.20624
1386.71784	0.20584
1384.78916	0.20569
1382.86049	0.20571
1380.93181	0.20578
1379.00313	0.20580
1377.07446	0.20566
1375.14578	0.20544
1373.21711	0.20542
1371.28843	0.20557
1369.35976	0.20565
1367.43108	0.20569
1365.50240	0.20564
1363.57373	0.20549
1361.64505	0.20546
1359.71638	0.20558
1357.78770	0.20571
1355.85903	0.20587
1353.93035	0.20608
1352.00167	0.20623
1350.07300	0.20635
1348.14432	0.20647
1346.21565	0.20650
1344.28697	0.20646
1342.35830	0.20629
1340.42962	0.20598
1338.50094	0.20579
1336.57227	0.20592
1334.64359	0.20613
1332.71492	0.20618
1330.78624	0.20606
1328.85757	0.20582
1326.92889	0.20554
1325.00021	0.20534
1323.07154	0.20520
1321.14286	0.20510
1319.21419	0.20496
1317.28551	0.20479
1315.35684	0.20462
1313.42816	0.20442
1311.49948	0.20415
1309.57081	0.20387
1307.64213	0.20367
1305.71346	0.20355
1303.78478	0.20338
1301.85611	0.20312
1299.92743	0.20287
1297.99875	0.20270
1296.07008	0.20255
1294.14140	0.20233
1292.21273	0.20206
1290.28405	0.20185
1288.35538	0.20167
1286.42670	0.20148
1284.49802	0.20132
1282.56935	0.20115
1280.64067	0.20094
1278.71200	0.20063
1276.78332	0.20027
1274.85465	0.19988
1272.92597	0.19936
1270.99729	0.19866
1269.06862	0.19781
1267.13994	0.19689
1265.21127	0.19603
1263.28259	0.19534
1261.35392	0.19490
1259.42524	0.19486
1257.49656	0.19517
1255.56789	0.19544
1253.63921	0.19541
1251.71054	0.19519
1249.78186	0.19498
1247.85319	0.19471
1245.92451	0.19433
1243.99583	0.19391
1242.06716	0.19348
1240.13848	0.19301
1238.20981	0.19246
1236.28113	0.19187
1234.35246	0.19133
1232.42378	0.19083
1230.49510	0.19026
1228.56643	0.18961
1226.63775	0.18897
1224.70908	0.18839
1222.78040	0.18785
1220.85173	0.18739
1218.92305	0.18696
1216.99437	0.18646
1215.06570	0.18591
1213.13702	0.18532
1211.20835	0.18472
1209.27967	0.18411
1207.35100	0.18352
1205.42232	0.18295
1203.49364	0.18238
1201.56497	0.18173
1199.63629	0.18105
1197.70762	0.18045
1195.77894	0.17987
1193.85027	0.17919
1191.92159	0.17846
1189.99291	0.17774
1188.06424	0.17699
1186.13556	0.17621
1184.20689	0.17538
1182.27821	0.17451
1180.34954	0.17365
1178.42086	0.17285
1176.49218	0.17202
1174.56351	0.17112
1172.63483	0.17025
1170.70616	0.16940
1168.77748	0.16852
1166.84881	0.16762
1164.92013	0.16675
1162.99145	0.16589
1161.06278	0.16507
1159.13410	0.16430
1157.20543	0.16347
1155.27675	0.16262
1153.34808	0.16184
1151.41940	0.16110
1149.49072	0.16034
1147.56205	0.15952
1145.63337	0.15860
1143.70470	0.15765
1141.77602	0.15671
1139.84735	0.15567
1137.91867	0.15451
1135.98999	0.15330
1134.06132	0.15199
1132.13264	0.15039
1130.20397	0.14845
1128.27529	0.14628
1126.34662	0.14396
1124.41794	0.14155
1122.48926	0.13911
1120.56059	0.13674
1118.63191	0.13452
1116.70324	0.13247
1114.77456	0.13061
1112.84589	0.12895
1110.91721	0.12759
1108.98853	0.12670
1107.05986	0.12618
1105.13118	0.12582
1103.20251	0.12562
1101.27383	0.12575
1099.34516	0.12624
1097.41648	0.12691
1095.48780	0.12762
1093.55913	0.12842
1091.63045	0.12935
1089.70178	0.13027
1087.77310	0.13097
1085.84443	0.13148
1083.91575	0.13193
1081.98707	0.13234
1080.05840	0.13263
1078.12972	0.13282
1076.20105	0.13301
1074.27237	0.13321
1072.34370	0.13333
1070.41502	0.13343
1068.48634	0.13350
1066.55767	0.13356
1064.62899	0.13371
1062.70032	0.13394
1060.77164	0.13417
1058.84297	0.13441
1056.91429	0.13470
1054.98561	0.13497
1053.05694	0.13525
1051.12826	0.13560
1049.19959	0.13602
1047.27091	0.13651
1045.34224	0.13699
1043.41356	0.13743
1041.48488	0.13782
1039.55621	0.13823
1037.62753	0.13868
1035.69886	0.13906
1033.77018	0.13930
1031.84151	0.13955
1029.91283	0.13992
1027.98415	0.14031
1026.05548	0.14067
1024.12680	0.14102
1022.19813	0.14137
1020.26945	0.14174
1018.34078	0.14221
1016.41210	0.14284
1014.48342	0.14350
1012.55475	0.14406
1010.62607	0.14459
1008.69740	0.14522
1006.76872	0.14593
1004.84005	0.14653
1002.91137	0.14696
1000.98269	0.14727
999.05402	0.14752
997.12534	0.14769
995.19667	0.14779
993.26799	0.14792
991.33932	0.14807
989.41064	0.14819
987.48196	0.14829
985.55329	0.14838
983.62461	0.14842
981.69594	0.14843
979.76726	0.14841
977.83859	0.14827
975.90991	0.14798
973.98123	0.14773
972.05256	0.14756
970.12388	0.14746
968.19521	0.14739
966.26653	0.14730
964.33786	0.14710
962.40918	0.14688
960.48050	0.14670
958.55183	0.14649
956.62315	0.14625
954.69448	0.14605
952.76580	0.14589
950.83713	0.14571
948.90845	0.14549
946.97977	0.14528
945.05110	0.14506
943.12242	0.14476
941.19375	0.14436
939.26507	0.14393
937.33640	0.14354
935.40772	0.14311
933.47904	0.14263
931.55037	0.14217
929.62169	0.14166
927.69302	0.14108
925.76434	0.14046
923.83567	0.13976
921.90699	0.13911
919.97831	0.13853
918.04964	0.13788
916.12096	0.13711
914.19229	0.13627
912.26361	0.13543
910.33494	0.13465
908.40626	0.13396
906.47758	0.13330
904.54891	0.13266
902.62023	0.13201
900.69156	0.13138
898.76288	0.13084
896.83421	0.13037
894.90553	0.12996
892.97685	0.12958
891.04818	0.12913
889.11950	0.12861
887.19083	0.12811
885.26215	0.12767
883.33348	0.12724
881.40480	0.12688
879.47612	0.12656
877.54745	0.12629
875.61877	0.12611
873.69010	0.12591
871.76142	0.12565
869.83275	0.12540
867.90407	0.12516
865.97539	0.12490
864.04672	0.12467
862.11804	0.12454
860.18937	0.12449
858.26069	0.12441
856.33202	0.12423
854.40334	0.12398
852.47466	0.12372
850.54599	0.12348
848.61731	0.12325
846.68864	0.12304
844.75996	0.12284
842.83129	0.12264
840.90261	0.12237
838.97394	0.12200
837.04526	0.12150
835.11658	0.12084
833.18791	0.12002
831.25923	0.11911
829.33056	0.11813
827.40188	0.11710
825.47321	0.11611
823.54453	0.11522
821.61585	0.11445
819.68718	0.11377
817.75850	0.11318
815.82983	0.11272
813.90115	0.11237
811.97248	0.11206
810.04380	0.11180
808.11512	0.11163
806.18645	0.11153
804.25777	0.11142
802.32910	0.11121
800.40042	0.11088
798.47175	0.11043
796.54307	0.10994
794.61439	0.10962
792.68572	0.10937
790.75704	0.10898
788.82837	0.10858
786.89969	0.10837
784.97102	0.10823
783.04234	0.10794
781.11366	0.10755
779.18499	0.10722
777.25631	0.10693
775.32764	0.10657
773.39896	0.10625
771.47029	0.10600
769.54161	0.10571
767.61293	0.10536
765.68426	0.10500
763.75558	0.10462
761.82691	0.10416
759.89823	0.10358
757.96956	0.10284
756.04088	0.10213
754.11220	0.10151
752.18353	0.10086
750.25485	0.10009
748.32618	0.09930
746.39750	0.09856
744.46883	0.09780
742.54015	0.09697
740.61147	0.09625
738.68280	0.09585
736.75412	0.09571
734.82545	0.09575
732.89677	0.09583
730.96810	0.09582
729.03942	0.09575
727.11074	0.09574
725.18207	0.09590
723.25339	0.09620
721.32472	0.09648
719.39604	0.09666
717.46737	0.09681
715.53869	0.09704
713.61001	0.09735
711.68134	0.09772
709.75266	0.09806
707.82399	0.09824
705.89531	0.09825
703.96664	0.09805
702.03796	0.09766
700.10928	0.09728
698.18061	0.09687
696.25193	0.09638
694.32326	0.09593
692.39458	0.09542
690.46591	0.09469
688.53723	0.09388
686.60855	0.09320
684.67988	0.09271
682.75120	0.09229
680.82253	0.09173
678.89385	0.09110
676.96518	0.09054
675.03650	0.08998
673.10782	0.08923
671.17915	0.08818
669.25047	0.08708
667.32180	0.08640
665.39312	0.08599
663.46445	0.08530
661.53577	0.08439
659.60709	0.08355
657.67842	0.08276
655.74974	0.08196
653.82107	0.08111
651.89239	0.08015
649.96372	0.07925
648.03504	0.07843
646.10636	0.07756
644.17769	0.07666
642.24901	0.07576
640.32034	0.07478
638.39166	0.07371
636.46299	0.07262
634.53431	0.07141
632.60563	0.06980
630.67696	0.06730
628.74828	0.06343
626.81961	0.05869
624.89093	0.05429
622.96226	0.05099
621.03358	0.04901
619.10490	0.04793
617.17623	0.04703
615.24755	0.04608
613.31888	0.04500
611.39020	0.04398
609.46153	0.04340
607.53285	0.04330
605.60417	0.04359
603.67550	0.04422
601.74682	0.04513
599.81815	0.04618
597.88947	0.04717
595.96080	0.04786
594.03212	0.04818
592.10344	0.04832
590.17477	0.04844
588.24609	0.04840
586.31742	0.04820
584.38874	0.04797
582.46007	0.04767
580.53139	0.04725
578.60271	0.04680
576.67404	0.04634
574.74536	0.04579
572.81669	0.04518
570.88801	0.04448
568.95934	0.04378
567.03066	0.04336
565.10198	0.04315
563.17331	0.04290
561.24463	0.04262
559.31596	0.04234
557.38728	0.04196
555.45861	0.04159
553.52993	0.04141
551.60125	0.04134
549.67258	0.04114
547.74390	0.04081
545.81523	0.04061
543.88655	0.04058
541.95788	0.04054
540.02920	0.04039
538.10052	0.04018
536.17185	0.03997
534.24317	0.03980
532.31450	0.03962
530.38582	0.03931
528.45715	0.03893
526.52847	0.03853
524.59979	0.03818
522.67112	0.03783
520.74244	0.03733
518.81377	0.03665
516.88509	0.03598
514.95642	0.03547
513.02774	0.03522
511.09906	0.03512
509.17039	0.03495
507.24171	0.03467
505.31304	0.03433
503.38436	0.03393
501.45569	0.03355
499.52701	0.03319
497.59833	0.03274
495.66966	0.03217
493.74098	0.03157
491.81231	0.03095
489.88363	0.03028
487.95496	0.02963
486.02628	0.02903
484.09760	0.02846
482.16893	0.02798
480.24025	0.02762
478.31158	0.02719
476.38290	0.02653
474.45423	0.02577
472.52555	0.02514
470.59687	0.02474
468.66820	0.02443
466.73952	0.02404
464.81085	0.02371
462.88217	0.02356
460.95350	0.02346
459.02482	0.02335
457.09614	0.02334
455.16747	0.02337
453.23879	0.02332
451.31012	0.02327
449.38144	0.02324
447.45277	0.02311
445.52409	0.02293
443.59541	0.02271
441.66674	0.02244
439.73806	0.02213
437.80939	0.02173
435.88071	0.02128
433.95204	0.02086
432.02336	0.02039
430.09468	0.01981
428.16601	0.01911
426.23733	0.01830
424.30866	0.01752
422.37998	0.01682
420.45131	0.01615
418.52263	0.01546
416.59395	0.01468
414.66528	0.01392
412.73660	0.01333
410.80793	0.01280
408.87925	0.01225
406.95058	0.01166
405.02190	0.01106
403.09322	0.01053
401.16455	0.01000
399.23587	0.00937
397.30720	0.00872
395.37852	0.00821
393.44985	0.00780
391.52117	0.00728
389.59249	0.00666
387.66382	0.00613
385.73514	0.00574
383.80647	0.00543
381.87779	0.00514
379.94912	0.00488
378.02044	0.00463
376.09176	0.00427
374.16309	0.00369
372.23441	0.00311
370.30574	0.00275
368.37706	0.00250
