7496.76250	0.00114
7494.83382	0.00115
7492.90514	0.00115
7490.97647	0.00115
7489.04779	0.00116
7487.11912	0.00116
7485.19044	0.00117
7483.26177	0.00117
7481.33309	0.00116
7479.40441	0.00115
7477.47574	0.00115
7475.54706	0.00116
7473.61839	0.00117
7471.68971	0.00118
7469.76104	0.00119
7467.83236	0.00120
7465.90368	0.00121
7463.97501	0.00121
7462.04633	0.00118
7460.11766	0.00116
7458.18898	0.00118
7456.26031	0.00122
7454.33163	0.00124
7452.40295	0.00122
7450.47428	0.00120
7448.54560	0.00121
7446.61693	0.00123
7444.68825	0.00125
7442.75958	0.00126
7440.83090	0.00126
7438.90222	0.00125
7436.97355	0.00123
7435.04487	0.00122
7433.11620	0.00119
7431.18752	0.00118
7429.25885	0.00121
7427.33017	0.00124
7425.40149	0.00124
7423.47282	0.00124
7421.54414	0.00125
7419.61547	0.00125
7417.68679	0.00126
7415.75812	0.00128
7413.82944	0.00129
7411.90076	0.00128
7409.97209	0.00128
7408.04341	0.00129
7406.11474	0.00128
7404.18606	0.00126
7402.25739	0.00125
7400.32871	0.00127
7398.40003	0.00130
7396.47136	0.00132
7394.54268	0.00131
7392.61401	0.00132
7390.68533	0.00132
7388.75666	0.00130
7386.82798	0.00129
7384.89930	0.00129
7382.97063	0.00131
7381.04195	0.00133
7379.11328	0.00134
7377.18460	0.00135
7375.25593	0.00136
7373.32725	0.00136
7371.39857	0.00136
7369.46990	0.00137
7367.54122	0.00136
7365.61255	0.00136
7363.68387	0.00136
7361.75520	0.00137
7359.82652	0.00137
7357.89784	0.00137
7355.96917	0.00137
7354.04049	0.00138
7352.11182	0.00140
7350.18314	0.00142
7348.25447	0.00144
7346.32579	0.00145
7344.39711	0.00143
7342.46844	0.00140
7340.53976	0.00141
7338.61109	0.00142
7336.68241	0.00143
7334.75374	0.00142
7332.82506	0.00140
7330.89638	0.00138
7328.96771	0.00139
7327.03903	0.00140
7325.11036	0.00141
7323.18168	0.00142
7321.25301	0.00144
7319.32433	0.00145
7317.39565	0.00144
7315.46698	0.00144
7313.53830	0.00146
7311.60963	0.00146
7309.68095	0.00146
7307.75228	0.00145
7305.82360	0.00146
7303.89492	0.00147
7301.96625	0.00148
7300.03757	0.00148
7298.10890	0.00148
7296.18022	0.00147
7294.25155	0.00146
7292.32287	0.00148
7290.39419	0.00150
7288.46552	0.00151
7286.53684	0.00149
7284.60817	0.00149
7282.67949	0.00150
7280.75082	0.00152
7278.82214	0.00154
7276.89346	0.00153
7274.96479	0.00151
7273.03611	0.00150
7271.10744	0.00152
7269.17876	0.00155
7267.25009	0.00155
7265.32141	0.00154
7263.39273	0.00154
7261.46406	0.00155
7259.53538	0.00154
7257.60671	0.00154
7255.67803	0.00153
7253.74936	0.00155
7251.82068	0.00157
7249.89200	0.00158
7247.96333	0.00161
7246.03465	0.00163
7244.10598	0.00161
7242.17730	0.00158
7240.24863	0.00158
7238.31995	0.00160
7236.39127	0.00161
7234.46260	0.00162
7232.53392	0.00162
7230.60525	0.00161
7228.67657	0.00161
7226.74790	0.00163
7224.81922	0.00164
7222.89054	0.00162
7220.96187	0.00162
7219.03319	0.00163
7217.10452	0.00164
7215.17584	0.00165
7213.24717	0.00163
7211.31849	0.00162
7209.38981	0.00164
7207.46114	0.00166
7205.53246	0.00167
7203.60379	0.00168
7201.67511	0.00169
7199.74644	0.00168
7197.81776	0.00168
7195.88908	0.00167
7193.96041	0.00167
7192.03173	0.00168
7190.10306	0.00168
7188.17438	0.00167
7186.24571	0.00167
7184.31703	0.00168
7182.38835	0.00171
7180.45968	0.00171
7178.53100	0.00170
7176.60233	0.00170
7174.67365	0.00172
7172.74498	0.00174
7170.81630	0.00175
7168.88762	0.00173
7166.95895	0.00171
7165.03027	0.00169
7163.10160	0.00169
7161.17292	0.00170
7159.24425	0.00171
7157.31557	0.00173
7155.38689	0.00174
7153.45822	0.00174
7151.52954	0.00173
7149.60087	0.00172
7147.67219	0.00172
7145.74352	0.00175
7143.81484	0.00178
7141.88616	0.00179
7139.95749	0.00179
7138.02881	0.00180
7136.10014	0.00179
7134.17146	0.00179
7132.24279	0.00179
7130.31411	0.00180
7128.38543	0.00181
7126.45676	0.00182
7124.52808	0.00182
7122.59941	0.00183
7120.67073	0.00184
7118.74206	0.00184
7116.81338	0.00184
7114.88470	0.00182
7112.95603	0.00181
7111.02735	0.00182
7109.09868	0.00183
7107.17000	0.00183
7105.24133	0.00181
7103.31265	0.00180
7101.38397	0.00180
7099.45530	0.00180
7097.52662	0.00181
7095.59795	0.00185
7093.66927	0.00188
7091.74060	0.00190
7089.81192	0.00189
7087.88324	0.00189
7085.95457	0.00191
7084.02589	0.00192
7082.09722	0.00191
7080.16854	0.00190
7078.23987	0.00190
7076.31119	0.00190
7074.38251	0.00190
7072.45384	0.00192
7070.52516	0.00194
7068.59649	0.00195
7066.66781	0.00196
7064.73914	0.00197
7062.81046	0.00198
7060.88178	0.00197
7058.95311	0.00196
7057.02443	0.00195
7055.09576	0.00195
7053.16708	0.00197
7051.23841	0.00198
7049.30973	0.00198
7047.38105	0.00199
7045.45238	0.00199
7043.52370	0.00199
7041.59503	0.00200
7039.66635	0.00200
7037.73768	0.00199
7035.80900	0.00199
7033.88032	0.00201
7031.95165	0.00204
7030.02297	0.00206
7028.09430	0.00206
7026.16562	0.00206
7024.23695	0.00205
7022.30827	0.00204
7020.37959	0.00205
7018.45092	0.00205
7016.52224	0.00204
7014.59357	0.00204
7012.66489	0.00205
7010.73622	0.00208
7008.80754	0.00210
7006.87886	0.00210
7004.95019	0.00210
7003.02151	0.00212
7001.09284	0.00211
6999.16416	0.00209
6997.23549	0.00207
6995.30681	0.00208
6993.37813	0.00211
6991.44946	0.00213
6989.52078	0.00214
6987.59211	0.00212
6985.66343	0.00213
6983.73476	0.00215
6981.80608	0.00215
6979.87740	0.00214
6977.94873	0.00213
6976.02005	0.00215
6974.09138	0.00217
6972.16270	0.00217
6970.23403	0.00215
6968.30535	0.00214
6966.37667	0.00216
6964.44800	0.00219
6962.51932	0.00220
6960.59065	0.00221
6958.66197	0.00222
6956.73330	0.00223
6954.80462	0.00223
6952.87594	0.00223
6950.94727	0.00224
6949.01859	0.00225
6947.08992	0.00224
6945.16124	0.00222
6943.23257	0.00221
6941.30389	0.00222
6939.37521	0.00222
6937.44654	0.00222
6935.51786	0.00223
6933.58919	0.00226
6931.66051	0.00227
6929.73184	0.00226
6927.80316	0.00224
6925.87448	0.00224
6923.94581	0.00225
6922.01713	0.00225
6920.08846	0.00223
6918.15978	0.00223
6916.23111	0.00225
6914.30243	0.00229
6912.37375	0.00230
6910.44508	0.00231
6908.51640	0.00230
6906.58773	0.00231
6904.65905	0.00232
6902.73038	0.00231
6900.80170	0.00231
6898.87302	0.00231
6896.94435	0.00231
6895.01567	0.00231
6893.08700	0.00233
6891.15832	0.00237
6889.22965	0.00238
6887.30097	0.00240
6885.37229	0.00239
6883.44362	0.00238
6881.51494	0.00238
6879.58627	0.00239
6877.65759	0.00241
6875.72892	0.00243
6873.80024	0.00243
6871.87156	0.00243
6869.94289	0.00242
6868.01421	0.00243
6866.08554	0.00245
6864.15686	0.00246
6862.22819	0.00244
6860.29951	0.00243
6858.37083	0.00244
6856.44216	0.00245
6854.51348	0.00245
6852.58481	0.00245
6850.65613	0.00245
6848.72746	0.00245
6846.79878	0.00247
6844.87010	0.00248
6842.94143	0.00248
6841.01275	0.00246
6839.08408	0.00245
6837.15540	0.00246
6835.22673	0.00249
6833.29805	0.00251
6831.36937	0.00252
6829.44070	0.00251
6827.51202	0.00250
6825.58335	0.00249
6823.65467	0.00251
6821.72600	0.00254
6819.79732	0.00256
6817.86864	0.00256
6815.93997	0.00255
6814.01129	0.00255
6812.08262	0.00255
6810.15394	0.00256
6808.22527	0.00257
6806.29659	0.00259
6804.36791	0.00259
6802.43924	0.00258
6800.51056	0.00260
6798.58189	0.00264
6796.65321	0.00265
6794.72454	0.00264
6792.79586	0.00264
6790.86718	0.00266
6788.93851	0.00266
6787.00983	0.00265
6785.08116	0.00265
6783.15248	0.00265
6781.22381	0.00264
6779.29513	0.00264
6777.36645	0.00266
6775.43778	0.00268
6773.50910	0.00270
6771.58043	0.00269
6769.65175	0.00268
6767.72308	0.00269
6765.79440	0.00270
6763.86572	0.00270
6761.93705	0.00269
6760.00837	0.00270
6758.07970	0.00272
6756.15102	0.00273
6754.22235	0.00273
6752.29367	0.00273
6750.36499	0.00272
6748.43632	0.00275
6746.50764	0.00278
6744.57897	0.00279
6742.65029	0.00280
6740.72162	0.00279
6738.79294	0.00276
6736.86426	0.00275
6734.93559	0.00276
6733.00691	0.00279
6731.07824	0.00281
6729.14956	0.00282
6727.22089	0.00281
6725.29221	0.00281
6723.36353	0.00283
6721.43486	0.00284
6719.50618	0.00282
6717.57751	0.00282
6715.64883	0.00284
6713.72016	0.00287
6711.79148	0.00289
6709.86280	0.00291
6707.93413	0.00290
6706.00545	0.00289
6704.07678	0.00288
6702.14810	0.00288
6700.21943	0.00290
6698.29075	0.00291
6696.36207	0.00293
6694.43340	0.00293
6692.50472	0.00291
6690.57605	0.00291
6688.64737	0.00292
6686.71870	0.00293
6684.79002	0.00292
6682.86134	0.00292
6680.93267	0.00294
6679.00399	0.00295
6677.07532	0.00294
6675.14664	0.00295
6673.21797	0.00296
6671.28929	0.00297
6669.36061	0.00297
6667.43194	0.00298
6665.50326	0.00300
6663.57459	0.00301
6661.64591	0.00303
6659.71724	0.00303
6657.78856	0.00302
6655.85988	0.00301
6653.93121	0.00301
6652.00253	0.00303
6650.07386	0.00305
6648.14518	0.00306
6646.21651	0.00308
6644.28783	0.00310
6642.35915	0.00311
6640.43048	0.00310
6638.50180	0.00311
6636.57313	0.00313
6634.64445	0.00315
6632.71578	0.00317
6630.78710	0.00318
6628.85842	0.00318
6626.92975	0.00316
6625.00107	0.00315
6623.07240	0.00315
6621.14372	0.00317
6619.21505	0.00317
6617.28637	0.00316
6615.35769	0.00316
6613.42902	0.00317
6611.50034	0.00320
6609.57167	0.00323
6607.64299	0.00324
6605.71432	0.00324
6603.78564	0.00324
6601.85696	0.00323
6599.92829	0.00323
6597.99961	0.00323
6596.07094	0.00324
6594.14226	0.00327
6592.21359	0.00328
6590.28491	0.00327
6588.35623	0.00328
6586.42756	0.00330
6584.49888	0.00332
6582.57021	0.00331
6580.64153	0.00330
6578.71286	0.00333
6576.78418	0.00335
6574.85550	0.00335
6572.92683	0.00334
6570.99815	0.00334
6569.06948	0.00333
6567.14080	0.00333
6565.21213	0.00336
6563.28345	0.00339
6561.35477	0.00340
6559.42610	0.00340
6557.49742	0.00340
6555.56875	0.00340
6553.64007	0.00340
6551.71140	0.00341
6549.78272	0.00343
6547.85404	0.00343
6545.92537	0.00342
6543.99669	0.00343
6542.06802	0.00344
6540.13934	0.00344
6538.21067	0.00345
6536.28199	0.00346
6534.35331	0.00348
6532.42464	0.00351
6530.49596	0.00352
6528.56729	0.00352
6526.63861	0.00353
6524.70994	0.00353
6522.78126	0.00353
6520.85258	0.00354
6518.92391	0.00356
6516.99523	0.00356
6515.06656	0.00354
6513.13788	0.00353
6511.20921	0.00354
6509.28053	0.00355
6507.35185	0.00355
6505.42318	0.00356
6503.49450	0.00358
6501.56583	0.00360
6499.63715	0.00360
6497.70848	0.00359
6495.77980	0.00360
6493.85112	0.00362
6491.92245	0.00363
6489.99377	0.00363
6488.06510	0.00363
6486.13642	0.00363
6484.20775	0.00365
6482.27907	0.00368
6480.35039	0.00370
6478.42172	0.00371
6476.49304	0.00374
6474.56437	0.00376
6472.63569	0.00375
6470.70702	0.00374
6468.77834	0.00373
6466.84966	0.00373
6464.92099	0.00374
6462.99231	0.00376
6461.06364	0.00378
6459.13496	0.00380
6457.20629	0.00381
6455.27761	0.00382
6453.34893	0.00380
6451.42026	0.00377
6449.49158	0.00377
6447.56291	0.00381
6445.63423	0.00385
6443.70556	0.00386
6441.77688	0.00385
6439.84820	0.00385
6437.91953	0.00385
6435.99085	0.00386
6434.06218	0.00387
6432.13350	0.00389
6430.20483	0.00390
6428.27615	0.00391
6426.34747	0.00393
6424.41880	0.00393
6422.49012	0.00391
6420.56145	0.00389
6418.63277	0.00389
6416.70410	0.00391
6414.77542	0.00394
6412.84674	0.00394
6410.91807	0.00393
6408.98939	0.00393
6407.06072	0.00395
6405.13204	0.00397
6403.20337	0.00398
6401.27469	0.00400
6399.34601	0.00401
6397.41734	0.00403
6395.48866	0.00405
6393.55999	0.00408
6391.63131	0.00408
6389.70264	0.00408
6387.77396	0.00408
6385.84528	0.00409
6383.91661	0.00410
6381.98793	0.00410
6380.05926	0.00410
6378.13058	0.00410
6376.20191	0.00411
6374.27323	0.00413
6372.34455	0.00415
6370.41588	0.00417
6368.48720	0.00417
6366.55853	0.00418
6364.62985	0.00420
6362.70118	0.00422
6360.77250	0.00424
6358.84382	0.00424
6356.91515	0.00422
6354.98647	0.00421
6353.05780	0.00423
6351.12912	0.00426
6349.20045	0.00428
6347.27177	0.00429
6345.34309	0.00429
6343.41442	0.00429
6341.48574	0.00430
6339.55707	0.00432
6337.62839	0.00435
6335.69972	0.00437
6333.77104	0.00436
6331.84236	0.00435
6329.91369	0.00437
6327.98501	0.00439
6326.05634	0.00439
6324.12766	0.00438
6322.19899	0.00437
6320.27031	0.00436
6318.34163	0.00438
6316.41296	0.00441
6314.48428	0.00444
6312.55561	0.00446
6310.62693	0.00447
6308.69826	0.00449
6306.76958	0.00451
6304.84090	0.00452
6302.91223	0.00452
6300.98355	0.00451
6299.05488	0.00450
6297.12620	0.00451
6295.19753	0.00452
6293.26885	0.00453
6291.34017	0.00454
6289.41150	0.00455
6287.48282	0.00456
6285.55415	0.00456
6283.62547	0.00457
6281.69680	0.00458
6279.76812	0.00460
6277.83944	0.00465
6275.91077	0.00468
6273.98209	0.00468
6272.05342	0.00467
6270.12474	0.00468
6268.19607	0.00469
6266.26739	0.00468
6264.33871	0.00467
6262.41004	0.00466
6260.48136	0.00467
6258.55269	0.00468
6256.62401	0.00469
6254.69534	0.00471
6252.76666	0.00473
6250.83798	0.00472
6248.90931	0.00472
6246.98063	0.00475
6245.05196	0.00479
6243.12328	0.00480
6241.19461	0.00481
6239.26593	0.00482
6237.33725	0.00484
6235.40858	0.00483
6233.47990	0.00480
6231.55123	0.00479
6229.62255	0.00482
6227.69388	0.00485
6225.76520	0.00487
6223.83652	0.00490
6221.90785	0.00492
6219.97917	0.00492
6218.05050	0.00491
6216.12182	0.00491
6214.19315	0.00491
6212.26447	0.00488
6210.33579	0.00488
6208.40712	0.00491
6206.47844	0.00496
6204.54977	0.00499
6202.62109	0.00499
6200.69242	0.00499
6198.76374	0.00501
6196.83506	0.00504
6194.90639	0.00505
6192.97771	0.00507
6191.04904	0.00509
6189.12036	0.00509
6187.19169	0.00510
6185.26301	0.00511
6183.33433	0.00511
6181.40566	0.00512
6179.47698	0.00515
6177.54831	0.00516
6175.61963	0.00517
6173.69096	0.00517
6171.76228	0.00516
6169.83360	0.00516
6167.90493	0.00515
6165.97625	0.00516
6164.04758	0.00517
6162.11890	0.00517
6160.19023	0.00519
6158.26155	0.00522
6156.33287	0.00526
6154.40420	0.00529
6152.47552	0.00529
6150.54685	0.00528
6148.61817	0.00528
6146.68950	0.00529
6144.76082	0.00530
6142.83214	0.00531
6140.90347	0.00534
6138.97479	0.00535
6137.04612	0.00535
6135.11744	0.00534
6133.18877	0.00534
6131.26009	0.00535
6129.33141	0.00538
6127.40274	0.00542
6125.47406	0.00546
6123.54539	0.00547
6121.61671	0.00547
6119.68804	0.00547
6117.75936	0.00549
6115.83068	0.00551
6113.90201	0.00551
6111.97333	0.00550
6110.04466	0.00550
6108.11598	0.00553
6106.18731	0.00555
6104.25863	0.00555
6102.32995	0.00554
6100.40128	0.00555
6098.47260	0.00557
6096.54393	0.00560
6094.61525	0.00562
6092.68658	0.00563
6090.75790	0.00564
6088.82922	0.00565
6086.90055	0.00564
6084.97187	0.00563
6083.04320	0.00567
6081.11452	0.00573
6079.18585	0.00577
6077.25717	0.00577
6075.32849	0.00575
6073.39982	0.00574
6071.47114	0.00576
6069.54247	0.00579
6067.61379	0.00581
6065.68512	0.00581
6063.75644	0.00581
6061.82776	0.00581
6059.89909	0.00582
6057.97041	0.00584
6056.04174	0.00586
6054.11306	0.00586
6052.18439	0.00586
6050.25571	0.00588
6048.32703	0.00592
6046.39836	0.00595
6044.46968	0.00594
6042.54101	0.00593
6040.61233	0.00593
6038.68366	0.00595
6036.75498	0.00600
6034.82630	0.00605
6032.89763	0.00607
6030.96895	0.00606
6029.04028	0.00605
6027.11160	0.00605
6025.18293	0.00607
6023.25425	0.00609
6021.32557	0.00612
6019.39690	0.00614
6017.46822	0.00615
6015.53955	0.00615
6013.61087	0.00615
6011.68220	0.00615
6009.75352	0.00613
6007.82484	0.00613
6005.89617	0.00615
6003.96749	0.00619
6002.03882	0.00622
6000.11014	0.00623
5998.18147	0.00624
5996.25279	0.00626
5994.32411	0.00628
5992.39544	0.00629
5990.46676	0.00628
5988.53809	0.00627
5986.60941	0.00628
5984.68074	0.00630
5982.75206	0.00632
5980.82338	0.00637
5978.89471	0.00642
5976.96603	0.00644
5975.03736	0.00643
5973.10868	0.00641
5971.18001	0.00639
5969.25133	0.00641
5967.32265	0.00644
5965.39398	0.00647
5963.46530	0.00649
5961.53663	0.00650
5959.60795	0.00650
5957.67928	0.00652
5955.75060	0.00656
5953.82192	0.00659
5951.89325	0.00663
5949.96457	0.00664
5948.03590	0.00663
5946.10722	0.00661
5944.17855	0.00660
5942.24987	0.00661
5940.32119	0.00665
5938.39252	0.00668
5936.46384	0.00668
5934.53517	0.00668
5932.60649	0.00669
5930.67782	0.00672
5928.74914	0.00675
5926.82046	0.00677
5924.89179	0.00678
5922.96311	0.00678
5921.03444	0.00679
5919.10576	0.00679
5917.17709	0.00678
5915.24841	0.00679
5913.31973	0.00680
5911.39106	0.00683
5909.46238	0.00686
5907.53371	0.00687
5905.60503	0.00688
5903.67636	0.00691
5901.74768	0.00693
5899.81900	0.00692
5897.89033	0.00692
5895.96165	0.00694
5894.03298	0.00698
5892.10430	0.00703
5890.17563	0.00705
5888.24695	0.00707
5886.31827	0.00710
5884.38960	0.00712
5882.46092	0.00713
5880.53225	0.00714
5878.60357	0.00716
5876.67490	0.00719
5874.74622	0.00719
5872.81755	0.00718
5870.88887	0.00717
5868.96019	0.00718
5867.03152	0.00718
5865.10284	0.00719
5863.17417	0.00722
5861.24549	0.00725
5859.31682	0.00726
5857.38814	0.00726
5855.45946	0.00726
5853.53079	0.00727
5851.60211	0.00730
5849.67344	0.00733
5847.74476	0.00735
5845.81609	0.00738
5843.88741	0.00743
5841.95873	0.00745
5840.03006	0.00743
5838.10138	0.00740
5836.17271	0.00740
5834.24403	0.00744
5832.31536	0.00750
5830.38668	0.00753
5828.45800	0.00754
5826.52933	0.00755
5824.60065	0.00755
5822.67198	0.00756
5820.74330	0.00756
5818.81463	0.00756
5816.88595	0.00755
5814.95727	0.00754
5813.02860	0.00756
5811.09992	0.00762
5809.17125	0.00767
5807.24257	0.00771
5805.31390	0.00774
5803.38522	0.00776
5801.45654	0.00778
5799.52787	0.00778
5797.59919	0.00778
5795.67052	0.00779
5793.74184	0.00780
5791.81317	0.00780
5789.88449	0.00781
5787.95581	0.00782
5786.02714	0.00785
5784.09846	0.00787
5782.16979	0.00789
5780.24111	0.00791
5778.31244	0.00791
5776.38376	0.00790
5774.45508	0.00793
5772.52641	0.00796
5770.59773	0.00797
5768.66906	0.00798
5766.74038	0.00803
5764.81171	0.00806
5762.88303	0.00805
5760.95435	0.00805
5759.02568	0.00807
5757.09700	0.00810
5755.16833	0.00814
5753.23965	0.00817
5751.31098	0.00820
5749.38230	0.00819
5747.45362	0.00816
5745.52495	0.00817
5743.59627	0.00819
5741.66760	0.00821
5739.73892	0.00824
5737.81025	0.00827
5735.88157	0.00829
5733.95289	0.00830
5732.02422	0.00831
5730.09554	0.00832
5728.16687	0.00834
5726.23819	0.00837
5724.30952	0.00839
5722.38084	0.00841
5720.45216	0.00842
5718.52349	0.00843
5716.59481	0.00843
5714.66614	0.00845
5712.73746	0.00847
5710.80879	0.00848
5708.88011	0.00851
5706.95143	0.00855
5705.02276	0.00857
5703.09408	0.00857
5701.16541	0.00858
5699.23673	0.00860
5697.30806	0.00861
5695.37938	0.00862
5693.45070	0.00863
5691.52203	0.00866
5689.59335	0.00869
5687.66468	0.00870
5685.73600	0.00870
5683.80733	0.00872
5681.87865	0.00875
5679.94997	0.00876
5678.02130	0.00877
5676.09262	0.00882
5674.16395	0.00887
5672.23527	0.00889
5670.30660	0.00888
5668.37792	0.00888
5666.44924	0.00890
5664.52057	0.00891
5662.59189	0.00893
5660.66322	0.00896
5658.73454	0.00897
5656.80587	0.00896
5654.87719	0.00898
5652.94851	0.00901
5651.01984	0.00904
5649.09116	0.00907
5647.16249	0.00909
5645.23381	0.00910
5643.30514	0.00911
5641.37646	0.00914
5639.44778	0.00917
5637.51911	0.00920
5635.59043	0.00922
5633.66176	0.00924
5631.73308	0.00926
5629.80441	0.00928
5627.87573	0.00929
5625.94705	0.00930
5624.01838	0.00931
5622.08970	0.00930
5620.16103	0.00931
5618.23235	0.00933
5616.30368	0.00938
5614.37500	0.00943
5612.44632	0.00946
5610.51765	0.00946
5608.58897	0.00946
5606.66030	0.00946
5604.73162	0.00946
5602.80295	0.00950
5600.87427	0.00956
5598.94559	0.00959
5597.01692	0.00959
5595.08824	0.00957
5593.15957	0.00957
5591.23089	0.00961
5589.30222	0.00965
5587.37354	0.00967
5585.44486	0.00968
5583.51619	0.00970
5581.58751	0.00975
5579.65884	0.00977
5577.73016	0.00977
5575.80149	0.00978
5573.87281	0.00978
5571.94413	0.00979
5570.01546	0.00983
5568.08678	0.00989
5566.15811	0.00992
5564.22943	0.00993
5562.30076	0.00993
5560.37208	0.00993
5558.44340	0.00994
5556.51473	0.00996
5554.58605	0.00998
5552.65738	0.01001
5550.72870	0.01003
5548.80003	0.01007
5546.87135	0.01010
5544.94267	0.01012
5543.01400	0.01014
5541.08532	0.01016
5539.15665	0.01018
5537.22797	0.01020
5535.29930	0.01020
5533.37062	0.01021
5531.44194	0.01024
5529.51327	0.01028
5527.58459	0.01031
5525.65592	0.01033
5523.72724	0.01034
5521.79857	0.01037
5519.86989	0.01040
5517.94121	0.01042
5516.01254	0.01043
5514.08386	0.01046
5512.15519	0.01047
5510.22651	0.01047
5508.29784	0.01047
5506.36916	0.01047
5504.44048	0.01047
5502.51181	0.01050
5500.58313	0.01056
5498.65446	0.01060
5496.72578	0.01061
5494.79711	0.01059
5492.86843	0.01059
5490.93975	0.01060
5489.01108	0.01063
5487.08240	0.01068
5485.15373	0.01072
5483.22505	0.01074
5481.29638	0.01076
5479.36770	0.01077
5477.43902	0.01079
5475.51035	0.01082
5473.58167	0.01085
5471.65300	0.01084
5469.72432	0.01083
5467.79565	0.01086
5465.86697	0.01090
5463.93829	0.01092
5462.00962	0.01094
5460.08094	0.01096
5458.15227	0.01097
5456.22359	0.01098
5454.29492	0.01100
5452.36624	0.01104
5450.43756	0.01106
5448.50889	0.01106
5446.58021	0.01108
5444.65154	0.01111
5442.72286	0.01113
5440.79419	0.01118
5438.86551	0.01123
5436.93683	0.01123
5435.00816	0.01122
5433.07948	0.01125
5431.15081	0.01130
5429.22213	0.01132
5427.29346	0.01135
5425.36478	0.01139
5423.43610	0.01142
5421.50743	0.01145
5419.57875	0.01148
5417.65008	0.01149
5415.72140	0.01149
5413.79273	0.01149
5411.86405	0.01150
5409.93537	0.01151
5408.00670	0.01154
5406.07802	0.01159
5404.14935	0.01164
5402.22067	0.01166
5400.29200	0.01165
5398.36332	0.01166
5396.43464	0.01168
5394.50597	0.01172
5392.57729	0.01175
5390.64862	0.01178
5388.71994	0.01180
5386.79127	0.01182
5384.86259	0.01182
5382.93391	0.01183
5381.00524	0.01188
5379.07656	0.01194
5377.14789	0.01196
5375.21921	0.01196
5373.29054	0.01197
5371.36186	0.01198
5369.43318	0.01201
5367.50451	0.01204
5365.57583	0.01206
5363.64716	0.01205
5361.71848	0.01207
5359.78981	0.01211
5357.86113	0.01215
5355.93245	0.01216
5354.00378	0.01217
5352.07510	0.01219
5350.14643	0.01222
5348.21775	0.01225
5346.28908	0.01227
5344.36040	0.01229
5342.43172	0.01231
5340.50305	0.01234
5338.57437	0.01239
5336.64570	0.01242
5334.71702	0.01244
5332.78835	0.01245
5330.85967	0.01244
5328.93099	0.01243
5327.00232	0.01245
5325.07364	0.01251
5323.14497	0.01256
5321.21629	0.01257
5319.28762	0.01257
5317.35894	0.01258
5315.43026	0.01263
5313.50159	0.01267
5311.57291	0.01270
5309.64424	0.01272
5307.71556	0.01273
5305.78689	0.01274
5303.85821	0.01275
5301.92953	0.01278
5300.00086	0.01281
5298.07218	0.01284
5296.14351	0.01287
5294.21483	0.01288
5292.28616	0.01288
5290.35748	0.01289
5288.42880	0.01293
5286.50013	0.01298
5284.57145	0.01301
5282.64278	0.01302
5280.71410	0.01304
5278.78543	0.01308
5276.85675	0.01313
5274.92807	0.01315
5272.99940	0.01316
5271.07072	0.01316
5269.14205	0.01316
5267.21337	0.01318
5265.28470	0.01320
5263.35602	0.01322
5261.42734	0.01323
5259.49867	0.01325
5257.56999	0.01330
5255.64132	0.01335
5253.71264	0.01338
5251.78397	0.01341
5249.85529	0.01343
5247.92661	0.01343
5245.99794	0.01345
5244.06926	0.01350
5242.14059	0.01356
5240.21191	0.01361
5238.28324	0.01363
5236.35456	0.01364
5234.42588	0.01364
5232.49721	0.01364
5230.56853	0.01365
5228.63986	0.01369
5226.71118	0.01372
5224.78251	0.01375
5222.85383	0.01377
5220.92515	0.01378
5218.99648	0.01378
5217.06780	0.01382
5215.13913	0.01388
5213.21045	0.01392
5211.28178	0.01397
5209.35310	0.01400
5207.42442	0.01401
5205.49575	0.01401
5203.56707	0.01402
5201.63840	0.01404
5199.70972	0.01406
5197.78105	0.01407
5195.85237	0.01409
5193.92369	0.01412
5191.99502	0.01415
5190.06634	0.01417
5188.13767	0.01419
5186.20899	0.01426
5184.28032	0.01433
5182.35164	0.01436
5180.42296	0.01436
5178.49429	0.01437
5176.56561	0.01441
5174.63694	0.01443
5172.70826	0.01443
5170.77959	0.01445
5168.85091	0.01447
5166.92223	0.01448
5164.99356	0.01448
5163.06488	0.01450
5161.13621	0.01455
5159.20753	0.01460
5157.27886	0.01463
5155.35018	0.01464
5153.42150	0.01468
5151.49283	0.01471
5149.56415	0.01474
5147.63548	0.01476
5145.70680	0.01480
5143.77813	0.01483
5141.84945	0.01485
5139.92077	0.01486
5137.99210	0.01487
5136.06342	0.01489
5134.13475	0.01491
5132.20607	0.01492
5130.27740	0.01495
5128.34872	0.01500
5126.42004	0.01502
5124.49137	0.01503
5122.56269	0.01506
5120.63402	0.01509
5118.70534	0.01512
5116.77667	0.01515
5114.84799	0.01518
5112.91931	0.01520
5110.99064	0.01520
5109.06196	0.01521
5107.13329	0.01524
5105.20461	0.01527
5103.27594	0.01528
5101.34726	0.01529
5099.41858	0.01533
5097.48991	0.01538
5095.56123	0.01543
5093.63256	0.01546
5091.70388	0.01551
5089.77521	0.01554
5087.84653	0.01554
5085.91785	0.01554
5083.98918	0.01556
5082.06050	0.01561
5080.13183	0.01566
5078.20315	0.01571
5076.27448	0.01576
5074.34580	0.01576
5072.41712	0.01577
5070.48845	0.01579
5068.55977	0.01584
5066.63110	0.01589
5064.70242	0.01590
5062.77375	0.01590
5060.84507	0.01590
5058.91639	0.01591
5056.98772	0.01594
5055.05904	0.01597
5053.13037	0.01600
5051.20169	0.01603
5049.27302	0.01607
5047.34434	0.01612
5045.41566	0.01615
5043.48699	0.01615
5041.55831	0.01615
5039.62964	0.01616
5037.70096	0.01617
5035.77229	0.01620
5033.84361	0.01624
5031.91493	0.01627
5029.98626	0.01631
5028.05758	0.01636
5026.12891	0.01640
5024.20023	0.01642
5022.27156	0.01643
5020.34288	0.01645
5018.41420	0.01652
5016.48553	0.01658
5014.55685	0.01660
5012.62818	0.01660
5010.69950	0.01664
5008.77083	0.01667
5006.84215	0.01668
5004.91347	0.01666
5002.98480	0.01665
5001.05612	0.01667
4999.12745	0.01671
4997.19877	0.01677
4995.27010	0.01681
4993.34142	0.01686
4991.41274	0.01690
4989.48407	0.01693
4987.55539	0.01694
4985.62672	0.01695
4983.69804	0.01697
4981.76937	0.01701
4979.84069	0.01705
4977.91201	0.01709
4975.98334	0.01711
4974.05466	0.01712
4972.12599	0.01714
4970.19731	0.01716
4968.26864	0.01720
4966.33996	0.01725
4964.41128	0.01730
4962.48261	0.01734
4960.55393	0.01735
4958.62526	0.01736
4956.69658	0.01738
4954.76791	0.01741
4952.83923	0.01744
4950.91055	0.01747
4948.98188	0.01748
4947.05320	0.01749
4945.12453	0.01753
4943.19585	0.01757
4941.26718	0.01759
4939.33850	0.01761
4937.40982	0.01766
4935.48115	0.01770
4933.55247	0.01771
4931.62380	0.01772
4929.69512	0.01775
4927.76645	0.01780
4925.83777	0.01781
4923.90909	0.01783
4921.98042	0.01788
4920.05174	0.01795
4918.12307	0.01801
4916.19439	0.01806
4914.26572	0.01809
4912.33704	0.01812
4910.40836	0.01813
4908.47969	0.01815
4906.55101	0.01816
4904.62234	0.01817
4902.69366	0.01817
4900.76499	0.01818
4898.83631	0.01821
4896.90763	0.01825
4894.97896	0.01828
4893.05028	0.01831
4891.12161	0.01834
4889.19293	0.01840
4887.26426	0.01845
4885.33558	0.01849
4883.40690	0.01851
4881.47823	0.01852
4879.54955	0.01855
4877.62088	0.01860
4875.69220	0.01867
4873.76353	0.01871
4871.83485	0.01872
4869.90617	0.01873
4867.97750	0.01876
4866.04882	0.01881
4864.12015	0.01886
4862.19147	0.01887
4860.26280	0.01887
4858.33412	0.01888
4856.40544	0.01891
4854.47677	0.01895
4852.54809	0.01897
4850.61942	0.01899
4848.69074	0.01900
4846.76207	0.01903
4844.83339	0.01906
4842.90471	0.01909
4840.97604	0.01914
4839.04736	0.01921
4837.11869	0.01927
4835.19001	0.01932
4833.26134	0.01934
4831.33266	0.01933
4829.40398	0.01933
4827.47531	0.01935
4825.54663	0.01937
4823.61796	0.01937
4821.68928	0.01938
4819.76061	0.01944
4817.83193	0.01951
4815.90325	0.01956
4813.97458	0.01960
4812.04590	0.01965
4810.11723	0.01970
4808.18855	0.01974
4806.25988	0.01977
4804.33120	0.01979
4802.40252	0.01982
4800.47385	0.01985
4798.54517	0.01987
4796.61650	0.01987
4794.68782	0.01990
4792.75915	0.01994
4790.83047	0.01997
4788.90179	0.02000
4786.97312	0.02005
4785.04444	0.02009
4783.11577	0.02013
4781.18709	0.02017
4779.25842	0.02021
4777.32974	0.02022
4775.40106	0.02023
4773.47239	0.02026
4771.54371	0.02030
4769.61504	0.02032
4767.68636	0.02033
4765.75769	0.02037
4763.82901	0.02044
4761.90033	0.02051
4759.97166	0.02054
4758.04298	0.02054
4756.11431	0.02056
4754.18563	0.02059
4752.25696	0.02063
4750.32828	0.02070
4748.39960	0.02074
4746.47093	0.02075
4744.54225	0.02079
4742.61358	0.02085
4740.68490	0.02087
4738.75623	0.02090
4736.82755	0.02097
4734.89887	0.02102
4732.97020	0.02104
4731.04152	0.02104
4729.11285	0.02105
4727.18417	0.02107
4725.25550	0.02108
4723.32682	0.02111
4721.39814	0.02115
4719.46947	0.02117
4717.54079	0.02120
4715.61212	0.02126
4713.68344	0.02131
4711.75477	0.02135
4709.82609	0.02139
4707.89741	0.02143
4705.96874	0.02147
4704.04006	0.02151
4702.11139	0.02151
4700.18271	0.02152
4698.25404	0.02154
4696.32536	0.02161
4694.39668	0.02169
4692.46801	0.02173
4690.53933	0.02173
4688.61066	0.02175
4686.68198	0.02177
4684.75331	0.02180
4682.82463	0.02185
4680.89595	0.02192
4678.96728	0.02195
4677.03860	0.02198
4675.10993	0.02202
4673.18125	0.02207
4671.25258	0.02210
4669.32390	0.02211
4667.39522	0.02210
4665.46655	0.02210
4663.53787	0.02214
4661.60920	0.02221
4659.68052	0.02228
4657.75185	0.02234
4655.82317	0.02239
4653.89449	0.02244
4651.96582	0.02246
4650.03714	0.02247
4648.10847	0.02250
4646.17979	0.02255
4644.25112	0.02261
4642.32244	0.02265
4640.39376	0.02267
4638.46509	0.02269
4636.53641	0.02271
4634.60774	0.02273
4632.67906	0.02276
4630.75039	0.02280
4628.82171	0.02285
4626.89303	0.02287
4624.96436	0.02290
4623.03568	0.02294
4621.10701	0.02300
4619.17833	0.02305
4617.24966	0.02311
4615.32098	0.02313
4613.39230	0.02313
4611.46363	0.02316
4609.53495	0.02323
4607.60628	0.02331
4605.67760	0.02335
4603.74893	0.02336
4601.82025	0.02340
4599.89157	0.02348
4597.96290	0.02355
4596.03422	0.02357
4594.10555	0.02358
4592.17687	0.02362
4590.24820	0.02369
4588.31952	0.02374
4586.39084	0.02376
4584.46217	0.02377
4582.53349	0.02378
4580.60482	0.02379
4578.67614	0.02382
4576.74747	0.02387
4574.81879	0.02393
4572.89011	0.02397
4570.96144	0.02400
4569.03276	0.02404
4567.10409	0.02409
4565.17541	0.02415
4563.24674	0.02421
4561.31806	0.02427
4559.38938	0.02430
4557.46071	0.02432
4555.53203	0.02434
4553.60336	0.02437
4551.67468	0.02442
4549.74601	0.02446
4547.81733	0.02450
4545.88865	0.02454
4543.95998	0.02459
4542.03130	0.02463
4540.10263	0.02466
4538.17395	0.02470
4536.24528	0.02475
4534.31660	0.02482
4532.38792	0.02488
4530.45925	0.02492
4528.53057	0.02495
4526.60190	0.02498
4524.67322	0.02501
4522.74455	0.02505
4520.81587	0.02508
4518.88719	0.02511
4516.95852	0.02515
4515.02984	0.02519
4513.10117	0.02523
4511.17249	0.02527
4509.24382	0.02531
4507.31514	0.02533
4505.38646	0.02538
4503.45779	0.02545
4501.52911	0.02548
4499.60044	0.02552
4497.67176	0.02558
4495.74309	0.02564
4493.81441	0.02567
4491.88573	0.02571
4489.95706	0.02576
4488.02838	0.02582
4486.09971	0.02586
4484.17103	0.02588
4482.24236	0.02593
4480.31368	0.02600
4478.38500	0.02605
4476.45633	0.02606
4474.52765	0.02608
4472.59898	0.02615
4470.67030	0.02623
4468.74163	0.02629
4466.81295	0.02630
4464.88427	0.02633
4462.95560	0.02639
4461.02692	0.02645
4459.09825	0.02651
4457.16957	0.02655
4455.24090	0.02657
4453.31222	0.02659
4451.38354	0.02663
4449.45487	0.02669
4447.52619	0.02675
4445.59752	0.02679
4443.66884	0.02681
4441.74017	0.02687
4439.81149	0.02697
4437.88281	0.02705
4435.95414	0.02708
4434.02546	0.02709
4432.09679	0.02711
4430.16811	0.02715
4428.23944	0.02721
4426.31076	0.02728
4424.38208	0.02736
4422.45341	0.02742
4420.52473	0.02746
4418.59606	0.02750
4416.66738	0.02752
4414.73871	0.02757
4412.81003	0.02761
4410.88135	0.02765
4408.95268	0.02770
4407.02400	0.02775
4405.09533	0.02779
4403.16665	0.02783
4401.23798	0.02790
4399.30930	0.02796
4397.38062	0.02802
4395.45195	0.02806
4393.52327	0.02807
4391.59460	0.02808
4389.66592	0.02813
4387.73725	0.02821
4385.80857	0.02830
4383.87989	0.02838
4381.95122	0.02844
4380.02254	0.02849
4378.09387	0.02855
4376.16519	0.02860
4374.23652	0.02863
4372.30784	0.02867
4370.37916	0.02873
4368.45049	0.02880
4366.52181	0.02885
4364.59314	0.02890
4362.66446	0.02893
4360.73579	0.02895
4358.80711	0.02897
4356.87843	0.02900
4354.94976	0.02903
4353.02108	0.02911
4351.09241	0.02921
4349.16373	0.02929
4347.23506	0.02933
4345.30638	0.02936
4343.37770	0.02938
4341.44903	0.02946
4339.52035	0.02954
4337.59168	0.02959
4335.66300	0.02960
4333.73433	0.02962
4331.80565	0.02968
4329.87697	0.02974
4327.94830	0.02980
4326.01962	0.02987
4324.09095	0.02996
4322.16227	0.03005
4320.23360	0.03011
4318.30492	0.03013
4316.37624	0.03014
4314.44757	0.03015
4312.51889	0.03021
4310.59022	0.03030
4308.66154	0.03036
4306.73287	0.03040
4304.80419	0.03045
4302.87551	0.03050
4300.94684	0.03055
4299.01816	0.03062
4297.08949	0.03070
4295.16081	0.03079
4293.23214	0.03087
4291.30346	0.03092
4289.37478	0.03096
4287.44611	0.03101
4285.51743	0.03106
4283.58876	0.03110
4281.66008	0.03115
4279.73141	0.03123
4277.80273	0.03129
4275.87405	0.03132
4273.94538	0.03137
4272.01670	0.03143
4270.08803	0.03150
4268.15935	0.03156
4266.23068	0.03162
4264.30200	0.03169
4262.37332	0.03176
4260.44465	0.03180
4258.51597	0.03183
4256.58730	0.03188
4254.65862	0.03195
4252.72995	0.03204
4250.80127	0.03212
4248.87259	0.03216
4246.94392	0.03220
4245.01524	0.03226
4243.08657	0.03233
4241.15789	0.03238
4239.22922	0.03244
4237.30054	0.03251
4235.37186	0.03256
4233.44319	0.03258
4231.51451	0.03262
4229.58584	0.03268
4227.65716	0.03275
4225.72849	0.03282
4223.79981	0.03291
4221.87113	0.03298
4219.94246	0.03302
4218.01378	0.03307
4216.08511	0.03314
4214.15643	0.03320
4212.22776	0.03325
4210.29908	0.03331
4208.37040	0.03337
4206.44173	0.03344
4204.51305	0.03351
4202.58438	0.03357
4200.65570	0.03364
4198.72703	0.03369
4196.79835	0.03374
4194.86968	0.03380
4192.94100	0.03388
4191.01232	0.03394
4189.08365	0.03400
4187.15497	0.03406
4185.22630	0.03413
4183.29762	0.03418
4181.36895	0.03420
4179.44027	0.03426
4177.51159	0.03436
4175.58292	0.03445
4173.65424	0.03453
4171.72557	0.03458
4169.79689	0.03464
4167.86822	0.03470
4165.93954	0.03477
4164.01086	0.03483
4162.08219	0.03489
4160.15351	0.03496
4158.22484	0.03503
4156.29616	0.03509
4154.36749	0.03515
4152.43881	0.03524
4150.51013	0.03531
4148.58146	0.03537
4146.65278	0.03545
4144.72411	0.03554
4142.79543	0.03563
4140.86676	0.03572
4138.93808	0.03579
4137.00940	0.03585
4135.08073	0.03590
4133.15205	0.03594
4131.22338	0.03597
4129.29470	0.03603
4127.36603	0.03610
4125.43735	0.03616
4123.50867	0.03622
4121.58000	0.03629
4119.65132	0.03639
4117.72265	0.03649
4115.79397	0.03656
4113.86530	0.03661
4111.93662	0.03664
4110.00794	0.03669
4108.07927	0.03679
4106.15059	0.03690
4104.22192	0.03697
4102.29324	0.03702
4100.36457	0.03705
4098.43589	0.03709
4096.50721	0.03714
4094.57854	0.03720
4092.64986	0.03729
4090.72119	0.03736
4088.79251	0.03744
4086.86384	0.03754
4084.93516	0.03765
4083.00648	0.03771
4081.07781	0.03776
4079.14913	0.03783
4077.22046	0.03793
4075.29178	0.03799
4073.36311	0.03803
4071.43443	0.03809
4069.50575	0.03816
4067.57708	0.03825
4065.64840	0.03834
4063.71973	0.03841
4061.79105	0.03847
4059.86238	0.03853
4057.93370	0.03861
4056.00502	0.03871
4054.07635	0.03881
4052.14767	0.03888
4050.21900	0.03895
4048.29032	0.03903
4046.36165	0.03912
4044.43297	0.03919
4042.50429	0.03924
4040.57562	0.03929
4038.64694	0.03937
4036.71827	0.03945
4034.78959	0.03953
4032.86092	0.03960
4030.93224	0.03966
4029.00356	0.03972
4027.07489	0.03979
4025.14621	0.03987
4023.21754	0.03996
4021.28886	0.04006
4019.36019	0.04015
4017.43151	0.04019
4015.50283	0.04020
4013.57416	0.04027
4011.64548	0.04038
4009.71681	0.04048
4007.78813	0.04054
4005.85946	0.04060
4003.93078	0.04067
4002.00210	0.04075
4000.07343	0.04084
3998.14475	0.04094
3996.21608	0.04101
3994.28740	0.04107
3992.35873	0.04117
3990.43005	0.04128
3988.50137	0.04137
3986.57270	0.04142
3984.64402	0.04148
3982.71535	0.04157
3980.78667	0.04167
3978.85800	0.04174
3976.92932	0.04180
3975.00064	0.04185
3973.07197	0.04190
3971.14329	0.04195
3969.21462	0.04203
3967.28594	0.04212
3965.35727	0.04222
3963.42859	0.04231
3961.49991	0.04242
3959.57124	0.04249
3957.64256	0.04253
3955.71389	0.04259
3953.78521	0.04268
3951.85654	0.04277
3949.92786	0.04285
3947.99918	0.04292
3946.07051	0.04298
3944.14183	0.04303
3942.21316	0.04310
3940.28448	0.04324
3938.35581	0.04339
3936.42713	0.04347
3934.49845	0.04349
3932.56978	0.04354
3930.64110	0.04365
3928.71243	0.04377
3926.78375	0.04386
3924.85508	0.04393
3922.92640	0.04402
3920.99772	0.04409
3919.06905	0.04409
3917.14037	0.04412
3915.21170	0.04425
3913.28302	0.04443
3911.35435	0.04454
3909.42567	0.04458
3907.49699	0.04456
3905.56832	0.04451
3903.63964	0.04451
3901.71097	0.04458
3899.78229	0.04471
3897.85362	0.04492
3895.92494	0.04511
3893.99626	0.04518
3892.06759	0.04520
3890.13891	0.04528
3888.21024	0.04536
3886.28156	0.04540
3884.35289	0.04550
3882.42421	0.04563
3880.49553	0.04575
3878.56686	0.04589
3876.63818	0.04597
3874.70951	0.04596
3872.78083	0.04598
3870.85216	0.04604
3868.92348	0.04616
3866.99480	0.04630
3865.06613	0.04639
3863.13745	0.04649
3861.20878	0.04661
3859.28010	0.04671
3857.35143	0.04663
3855.42275	0.04640
3853.49407	0.04638
3851.56540	0.04670
3849.63672	0.04707
3847.70805	0.04726
3845.77937	0.04733
3843.85070	0.04736
3841.92202	0.04739
3839.99334	0.04744
3838.06467	0.04754
3836.13599	0.04766
3834.20732	0.04779
3832.27864	0.04792
3830.34997	0.04804
3828.42129	0.04813
3826.49261	0.04821
3824.56394	0.04824
3822.63526	0.04821
3820.70659	0.04827
3818.77791	0.04838
3816.84924	0.04845
3814.92056	0.04859
3812.99188	0.04883
3811.06321	0.04899
3809.13453	0.04902
3807.20586	0.04906
3805.27718	0.04917
3803.34851	0.04923
3801.41983	0.04927
3799.49115	0.04939
3797.56248	0.04953
3795.63380	0.04966
3793.70513	0.04982
3791.77645	0.04995
3789.84778	0.05005
3787.91910	0.05011
3785.99042	0.05016
3784.06175	0.05024
3782.13307	0.05033
3780.20440	0.05038
3778.27572	0.05046
3776.34705	0.05059
3774.41837	0.05073
3772.48969	0.05081
3770.56102	0.05084
3768.63234	0.05091
3766.70367	0.05102
3764.77499	0.05115
3762.84632	0.05126
3760.91764	0.05129
3758.98896	0.05130
3757.06029	0.05138
3755.13161	0.05144
3753.20294	0.05138
3751.27426	0.05132
3749.34559	0.05142
3747.41691	0.05154
3745.48823	0.05156
3743.55956	0.05171
3741.63088	0.05202
3739.70221	0.05219
3737.77353	0.05216
3735.84486	0.05214
3733.91618	0.05226
3731.98750	0.05249
3730.05883	0.05271
3728.13015	0.05285
3726.20148	0.05291
3724.27280	0.05299
3722.34413	0.05311
3720.41545	0.05325
3718.48677	0.05341
3716.55810	0.05349
3714.62942	0.05347
3712.70075	0.05345
3710.77207	0.05356
3708.84340	0.05377
3706.91472	0.05396
3704.98604	0.05408
3703.05737	0.05414
3701.12869	0.05422
3699.20002	0.05435
3697.27134	0.05448
3695.34267	0.05454
3693.41399	0.05450
3691.48531	0.05443
3689.55664	0.05445
3687.62796	0.05464
3685.69929	0.05491
3683.77061	0.05514
3681.84194	0.05524
3679.91326	0.05521
3677.98458	0.05510
3676.05591	0.05504
3674.12723	0.05515
3672.19856	0.05529
3670.26988	0.05539
3668.34121	0.05557
3666.41253	0.05581
3664.48385	0.05599
3662.55518	0.05612
3660.62650	0.05622
3658.69783	0.05624
3656.76915	0.05622
3654.84048	0.05622
3652.91180	0.05619
3650.98312	0.05607
3649.05445	0.05602
3647.12577	0.05619
3645.19710	0.05651
3643.26842	0.05680
3641.33975	0.05700
3639.41107	0.05712
3637.48239	0.05717
3635.55372	0.05719
3633.62504	0.05719
3631.69637	0.05709
3629.76769	0.05697
3627.83902	0.05710
3625.91034	0.05743
3623.98166	0.05765
3622.05299	0.05767
3620.12431	0.05765
3618.19564	0.05771
3616.26696	0.05782
3614.33829	0.05786
3612.40961	0.05788
3610.48093	0.05794
3608.55226	0.05804
3606.62358	0.05822
3604.69491	0.05836
3602.76623	0.05840
3600.83756	0.05844
3598.90888	0.05852
3596.98020	0.05857
3595.05153	0.05861
3593.12285	0.05870
3591.19418	0.05875
3589.26550	0.05872
3587.33683	0.05874
3585.40815	0.05891
3583.47947	0.05910
3581.55080	0.05921
3579.62212	0.05928
3577.69345	0.05935
3575.76477	0.05944
3573.83610	0.05953
3571.90742	0.05957
3569.97874	0.05955
3568.05007	0.05953
3566.12139	0.05963
3564.19272	0.05984
3562.26404	0.06001
3560.33537	0.06008
3558.40669	0.06014
3556.47801	0.06024
3554.54934	0.06033
3552.62066	0.06038
3550.69199	0.06043
3548.76331	0.06048
3546.83464	0.06053
3544.90596	0.06062
3542.97728	0.06075
3541.04861	0.06085
3539.11993	0.06090
3537.19126	0.06092
3535.26258	0.06097
3533.33391	0.06105
3531.40523	0.06111
3529.47655	0.06114
3527.54788	0.06115
3525.61920	0.06115
3523.69053	0.06119
3521.76185	0.06126
3519.83318	0.06132
3517.90450	0.06135
3515.97582	0.06139
3514.04715	0.06147
3512.11847	0.06155
3510.18980	0.06160
3508.26112	0.06162
3506.33245	0.06160
3504.40377	0.06157
3502.47509	0.06158
3500.54642	0.06167
3498.61774	0.06174
3496.68907	0.06178
3494.76039	0.06183
3492.83172	0.06191
3490.90304	0.06195
3488.97436	0.06194
3487.04569	0.06190
3485.11701	0.06185
3483.18834	0.06185
3481.25966	0.06195
3479.33099	0.06210
3477.40231	0.06219
3475.47363	0.06223
3473.54496	0.06229
3471.61628	0.06235
3469.68761	0.06243
3467.75893	0.06252
3465.83026	0.06264
3463.90158	0.06275
3461.97290	0.06285
3460.04423	0.06296
3458.11555	0.06307
3456.18688	0.06315
3454.25820	0.06323
3452.32953	0.06334
3450.40085	0.06348
3448.47217	0.06359
3446.54350	0.06366
3444.61482	0.06373
3442.68615	0.06383
3440.75747	0.06396
3438.82880	0.06412
3436.90012	0.06428
3434.97144	0.06445
3433.04277	0.06464
3431.11409	0.06486
3429.18542	0.06510
3427.25674	0.06532
3425.32807	0.06552
3423.39939	0.06570
3421.47071	0.06588
3419.54204	0.06607
3417.61336	0.06625
3415.68469	0.06645
3413.75601	0.06665
3411.82734	0.06680
3409.89866	0.06690
3407.96998	0.06699
3406.04131	0.06710
3404.11263	0.06722
3402.18396	0.06738
3400.25528	0.06754
3398.32661	0.06767
3396.39793	0.06779
3394.46925	0.06793
3392.54058	0.06809
3390.61190	0.06823
3388.68323	0.06840
3386.75455	0.06860
3384.82588	0.06876
3382.89720	0.06887
3380.96852	0.06898
3379.03985	0.06909
3377.11117	0.06921
3375.18250	0.06933
3373.25382	0.06944
3371.32515	0.06953
3369.39647	0.06964
3367.46779	0.06980
3365.53912	0.06997
3363.61044	0.07011
3361.68177	0.07022
3359.75309	0.07032
3357.82442	0.07045
3355.89574	0.07059
3353.96706	0.07073
3352.03839	0.07086
3350.10971	0.07098
3348.18104	0.07109
3346.25236	0.07121
3344.32369	0.07136
3342.39501	0.07150
3340.46633	0.07162
3338.53766	0.07173
3336.60898	0.07186
3334.68031	0.07200
3332.75163	0.07214
3330.82296	0.07228
3328.89428	0.07242
3326.96560	0.07256
3325.03693	0.07266
3323.10825	0.07276
3321.17958	0.07287
3319.25090	0.07301
3317.32223	0.07315
3315.39355	0.07328
3313.46487	0.07341
3311.53620	0.07356
3309.60752	0.07369
3307.67885	0.07380
3305.75017	0.07391
3303.82150	0.07404
3301.89282	0.07419
3299.96414	0.07431
3298.03547	0.07443
3296.10679	0.07461
3294.17812	0.07477
3292.24944	0.07488
3290.32077	0.07499
3288.39209	0.07515
3286.46341	0.07533
3284.53474	0.07546
3282.60606	0.07556
3280.67739	0.07567
3278.74871	0.07579
3276.82004	0.07591
3274.89136	0.07603
3272.96268	0.07619
3271.03401	0.07633
3269.10533	0.07643
3267.17666	0.07654
3265.24798	0.07671
3263.31931	0.07692
3261.39063	0.07710
3259.46195	0.07723
3257.53328	0.07737
3255.60460	0.07753
3253.67593	0.07765
3251.74725	0.07775
3249.81858	0.07785
3247.88990	0.07799
3245.96122	0.07815
3244.03255	0.07831
3242.10387	0.07846
3240.17520	0.07861
3238.24652	0.07877
3236.31785	0.07893
3234.38917	0.07907
3232.46049	0.07921
3230.53182	0.07938
3228.60314	0.07956
3226.67447	0.07967
3224.74579	0.07977
3222.81712	0.07990
3220.88844	0.08007
3218.95976	0.08022
3217.03109	0.08035
3215.10241	0.08046
3213.17374	0.08059
3211.24506	0.08073
3209.31639	0.08084
3207.38771	0.08094
3205.45903	0.08108
3203.53036	0.08127
3201.60168	0.08144
3199.67301	0.08159
3197.74433	0.08175
3195.81566	0.08192
3193.88698	0.08208
3191.95830	0.08224
3190.02963	0.08240
3188.10095	0.08254
3186.17228	0.08267
3184.24360	0.08281
3182.31493	0.08297
3180.38625	0.08313
3178.45757	0.08324
3176.52890	0.08333
3174.60022	0.08344
3172.67155	0.08360
3170.74287	0.08376
3168.81420	0.08392
3166.88552	0.08409
3164.95684	0.08429
3163.02817	0.08447
3161.09949	0.08460
3159.17082	0.08471
3157.24214	0.08483
3155.31347	0.08496
3153.38479	0.08511
3151.45611	0.08530
3149.52744	0.08547
3147.59876	0.08561
3145.67009	0.08573
3143.74141	0.08584
3141.81274	0.08598
3139.88406	0.08614
3137.95538	0.08627
3136.02671	0.08639
3134.09803	0.08654
3132.16936	0.08669
3130.24068	0.08682
3128.31201	0.08696
3126.38333	0.08711
3124.45465	0.08727
3122.52598	0.08745
3120.59730	0.08763
3118.66863	0.08779
3116.73995	0.08793
3114.81128	0.08804
3112.88260	0.08816
3110.95392	0.08831
3109.02525	0.08845
3107.09657	0.08858
3105.16790	0.08872
3103.23922	0.08887
3101.31055	0.08905
3099.38187	0.08921
3097.45319	0.08936
3095.52452	0.08951
3093.59584	0.08966
3091.66717	0.08982
3089.73849	0.08995
3087.80982	0.09003
3085.88114	0.09012
3083.95246	0.09028
3082.02379	0.09045
3080.09511	0.09060
3078.16644	0.09078
3076.23776	0.09094
3074.30909	0.09107
3072.38041	0.09118
3070.45173	0.09130
3068.52306	0.09143
3066.59438	0.09161
3064.66571	0.09180
3062.73703	0.09196
3060.80836	0.09213
3058.87968	0.09230
3056.95100	0.09243
3055.02233	0.09255
3053.09365	0.09268
3051.16498	0.09279
3049.23630	0.09292
3047.30763	0.09305
3045.37895	0.09317
3043.45027	0.09328
3041.52160	0.09342
3039.59292	0.09361
3037.66425	0.09381
3035.73557	0.09393
3033.80690	0.09403
3031.87822	0.09420
3029.94954	0.09442
3028.02087	0.09460
3026.09219	0.09470
3024.16352	0.09478
3022.23484	0.09491
3020.30617	0.09511
3018.37749	0.09527
3016.44881	0.09537
3014.52014	0.09549
3012.59146	0.09564
3010.66279	0.09580
3008.73411	0.09596
3006.80544	0.09608
3004.87676	0.09619
3002.94808	0.09633
3001.01941	0.09650
2999.09073	0.09667
2997.16206	0.09680
2995.23338	0.09691
2993.30471	0.09705
2991.37603	0.09721
2989.44735	0.09734
2987.51868	0.09747
2985.59000	0.09759
2983.66133	0.09769
2981.73265	0.09778
2979.80398	0.09785
2977.87530	0.09788
2975.94662	0.09787
2974.01795	0.09787
2972.08927	0.09790
2970.16060	0.09790
2968.23192	0.09785
2966.30325	0.09782
2964.37457	0.09785
2962.44589	0.09791
2960.51722	0.09801
2958.58854	0.09820
2956.65987	0.09846
2954.73119	0.09872
2952.80252	0.09895
2950.87384	0.09914
2948.94516	0.09927
2947.01649	0.09936
2945.08781	0.09944
2943.15914	0.09947
2941.23046	0.09948
2939.30179	0.09950
2937.37311	0.09951
2935.44443	0.09952
2933.51576	0.09951
2931.58708	0.09948
2929.65841	0.09944
2927.72973	0.09941
2925.80106	0.09939
2923.87238	0.09941
2921.94370	0.09947
2920.01503	0.09956
2918.08635	0.09971
2916.15768	0.10003
2914.22900	0.10051
2912.30033	0.10100
2910.37165	0.10141
2908.44297	0.10176
2906.51430	0.10208
2904.58562	0.10236
2902.65695	0.10261
2900.72827	0.10285
2898.79960	0.10307
2896.87092	0.10326
2894.94224	0.10344
2893.01357	0.10364
2891.08489	0.10386
2889.15622	0.10406
2887.22754	0.10425
2885.29887	0.10442
2883.37019	0.10457
2881.44151	0.10470
2879.51284	0.10480
2877.58416	0.10491
2875.65549	0.10509
2873.72681	0.10526
2871.79814	0.10540
2869.86946	0.10552
2867.94078	0.10565
2866.01211	0.10577
2864.08343	0.10587
2862.15476	0.10590
2860.22608	0.10590
2858.29741	0.10591
2856.36873	0.10594
2854.44005	0.10595
2852.51138	0.10595
2850.58270	0.10607
2848.65403	0.10638
2846.72535	0.10685
2844.79668	0.10736
2842.86800	0.10780
2840.93932	0.10815
2839.01065	0.10846
2837.08197	0.10870
2835.15330	0.10887
2833.22462	0.10904
2831.29595	0.10928
2829.36727	0.10949
2827.43859	0.10964
2825.50992	0.10979
2823.58124	0.10999
2821.65257	0.11018
2819.72389	0.11035
2817.79522	0.11053
2815.86654	0.11071
2813.93786	0.11088
2812.00919	0.11101
2810.08051	0.11116
2808.15184	0.11133
2806.22316	0.11151
2804.29449	0.11165
2802.36581	0.11178
2800.43713	0.11193
2798.50846	0.11210
2796.57978	0.11223
2794.65111	0.11237
2792.72243	0.11258
2790.79376	0.11278
2788.86508	0.11291
2786.93640	0.11303
2785.00773	0.11319
2783.07905	0.11336
2781.15038	0.11349
2779.22170	0.11362
2777.29303	0.11380
2775.36435	0.11399
2773.43567	0.11416
2771.50700	0.11432
2769.57832	0.11448
2767.64965	0.11463
2765.72097	0.11479
2763.79230	0.11497
2761.86362	0.11515
2759.93494	0.11532
2758.00627	0.11547
2756.07759	0.11560
2754.14892	0.11571
2752.22024	0.11583
2750.29157	0.11600
2748.36289	0.11617
2746.43421	0.11632
2744.50554	0.11644
2742.57686	0.11655
2740.64819	0.11668
2738.71951	0.11689
2736.79084	0.11712
2734.86216	0.11726
2732.93348	0.11737
2731.00481	0.11752
2729.07613	0.11768
2727.14746	0.11782
2725.21878	0.11794
2723.29011	0.11807
2721.36143	0.11822
2719.43275	0.11840
2717.50408	0.11863
2715.57540	0.11884
2713.64673	0.11897
2711.71805	0.11905
2709.78938	0.11914
2707.86070	0.11927
2705.93202	0.11943
2704.00335	0.11959
2702.07467	0.11976
2700.14600	0.11993
2698.21732	0.12008
2696.28865	0.12020
2694.35997	0.12033
2692.43129	0.12048
2690.50262	0.12065
2688.57394	0.12083
2686.64527	0.12100
2684.71659	0.12114
2682.78792	0.12128
2680.85924	0.12143
2678.93056	0.12158
2677.00189	0.12175
2675.07321	0.12196
2673.14454	0.12211
2671.21586	0.12217
2669.28719	0.12223
2667.35851	0.12235
2665.42983	0.12248
2663.50116	0.12262
2661.57248	0.12281
2659.64381	0.12304
2657.71513	0.12326
2655.78646	0.12343
2653.85778	0.12356
2651.92910	0.12371
2650.00043	0.12387
2648.07175	0.12406
2646.14308	0.12427
2644.21440	0.12445
2642.28573	0.12459
2640.35705	0.12471
2638.42837	0.12486
2636.49970	0.12503
2634.57102	0.12519
2632.64235	0.12532
2630.71367	0.12546
2628.78500	0.12563
2626.85632	0.12580
2624.92764	0.12595
2622.99897	0.12609
2621.07029	0.12622
2619.14162	0.12638
2617.21294	0.12656
2615.28427	0.12674
2613.35559	0.12694
2611.42691	0.12714
2609.49824	0.12734
2607.56956	0.12752
2605.64089	0.12767
2603.71221	0.12777
2601.78354	0.12785
2599.85486	0.12804
2597.92618	0.12828
2595.99751	0.12842
2594.06883	0.12853
2592.14016	0.12871
2590.21148	0.12891
2588.28281	0.12906
2586.35413	0.12917
2584.42545	0.12934
2582.49678	0.12957
2580.56810	0.12976
2578.63943	0.12988
2576.71075	0.12999
2574.78208	0.13011
2572.85340	0.13026
2570.92472	0.13045
2568.99605	0.13067
2567.06737	0.13088
2565.13870	0.13105
2563.21002	0.13119
2561.28135	0.13134
2559.35267	0.13148
2557.42399	0.13158
2555.49532	0.13169
2553.56664	0.13183
2551.63797	0.13199
2549.70929	0.13214
2547.78062	0.13228
2545.85194	0.13242
2543.92326	0.13258
2541.99459	0.13274
2540.06591	0.13289
2538.13724	0.13307
2536.20856	0.13326
2534.27989	0.13342
2532.35121	0.13356
2530.42253	0.13371
2528.49386	0.13389
2526.56518	0.13407
2524.63651	0.13423
2522.70783	0.13439
2520.77916	0.13456
2518.85048	0.13470
2516.92181	0.13481
2514.99313	0.13496
2513.06445	0.13515
2511.13578	0.13535
2509.20710	0.13556
2507.27843	0.13578
2505.34975	0.13600
2503.42108	0.13620
2501.49240	0.13633
2499.56372	0.13644
2497.63505	0.13663
2495.70637	0.13687
2493.77770	0.13708
2491.84902	0.13723
2489.92035	0.13736
2487.99167	0.13752
2486.06299	0.13773
2484.13432	0.13791
2482.20564	0.13804
2480.27697	0.13815
2478.34829	0.13828
2476.41962	0.13845
2474.49094	0.13866
2472.56226	0.13887
2470.63359	0.13905
2468.70491	0.13923
2466.77624	0.13939
2464.84756	0.13954
2462.91889	0.13968
2460.99021	0.13985
2459.06153	0.14003
2457.13286	0.14022
2455.20418	0.14040
2453.27551	0.14057
2451.34683	0.14075
2449.41816	0.14094
2447.48948	0.14110
2445.56080	0.14122
2443.63213	0.14140
2441.70345	0.14159
2439.77478	0.14173
2437.84610	0.14186
2435.91743	0.14204
2433.98875	0.14222
2432.06007	0.14239
2430.13140	0.14259
2428.20272	0.14280
2426.27405	0.14293
2424.34537	0.14303
2422.41670	0.14322
2420.48802	0.14344
2418.55934	0.14362
2416.63067	0.14377
2414.70199	0.14393
2412.77332	0.14408
2410.84464	0.14424
2408.91597	0.14441
2406.98729	0.14457
2405.05861	0.14471
2403.12994	0.14486
2401.20126	0.14504
2399.27259	0.14522
2397.34391	0.14538
2395.41524	0.14557
2393.48656	0.14576
2391.55788	0.14590
2389.62921	0.14598
2387.70053	0.14609
2385.77186	0.14625
2383.84318	0.14644
2381.91451	0.14660
2379.98583	0.14669
2378.05715	0.14674
2376.12848	0.14678
2374.19980	0.14681
2372.27113	0.14683
2370.34245	0.14683
2368.41378	0.14684
2366.48510	0.14688
2364.55642	0.14695
2362.62775	0.14706
2360.69907	0.14725
2358.77040	0.14751
2356.84172	0.14779
2354.91305	0.14806
2352.98437	0.14836
2351.05569	0.14872
2349.12702	0.14899
2347.19834	0.14905
2345.26967	0.14903
2343.34099	0.14909
2341.41232	0.14925
2339.48364	0.14938
2337.55496	0.14952
2335.62629	0.14969
2333.69761	0.14986
2331.76894	0.15005
2329.84026	0.15025
2327.91159	0.15047
2325.98291	0.15075
2324.05423	0.15104
2322.12556	0.15129
2320.19688	0.15155
2318.26821	0.15179
2316.33953	0.15200
2314.41086	0.15221
2312.48218	0.15243
2310.55350	0.15259
2308.62483	0.15271
2306.69615	0.15288
2304.76748	0.15308
2302.83880	0.15326
2300.91013	0.15345
2298.98145	0.15366
2297.05277	0.15389
2295.12410	0.15408
2293.19542	0.15423
2291.26675	0.15438
2289.33807	0.15456
2287.40940	0.15475
2285.48072	0.15493
2283.55204	0.15510
2281.62337	0.15523
2279.69469	0.15536
2277.76602	0.15555
2275.83734	0.15572
2273.90867	0.15586
2271.97999	0.15605
2270.05131	0.15629
2268.12264	0.15647
2266.19396	0.15658
2264.26529	0.15669
2262.33661	0.15686
2260.40794	0.15703
2258.47926	0.15717
2256.55058	0.15731
2254.62191	0.15748
2252.69323	0.15768
2250.76456	0.15790
2248.83588	0.15813
2246.90721	0.15831
2244.97853	0.15848
2243.04985	0.15865
2241.12118	0.15878
2239.19250	0.15888
2237.26383	0.15903
2235.33515	0.15922
2233.40648	0.15943
2231.47780	0.15963
2229.54912	0.15982
2227.62045	0.15997
2225.69177	0.16013
2223.76310	0.16032
2221.83442	0.16047
2219.90575	0.16058
2217.97707	0.16067
2216.04839	0.16077
2214.11972	0.16093
2212.19104	0.16116
2210.26237	0.16141
2208.33369	0.16162
2206.40502	0.16177
2204.47634	0.16190
2202.54766	0.16202
2200.61899	0.16214
2198.69031	0.16231
2196.76164	0.16249
2194.83296	0.16266
2192.90429	0.16281
2190.97561	0.16298
2189.04693	0.16317
2187.11826	0.16334
2185.18958	0.16348
2183.26091	0.16363
2181.33223	0.16382
2179.40356	0.16402
2177.47488	0.16422
2175.54620	0.16438
2173.61753	0.16450
2171.68885	0.16467
2169.76018	0.16490
2167.83150	0.16509
2165.90283	0.16521
2163.97415	0.16533
2162.04547	0.16547
2160.11680	0.16565
2158.18812	0.16584
2156.25945	0.16600
2154.33077	0.16612
2152.40210	0.16629
2150.47342	0.16650
2148.54474	0.16673
2146.61607	0.16698
2144.68739	0.16717
2142.75872	0.16732
2140.83004	0.16745
2138.90137	0.16755
2136.97269	0.16766
2135.04401	0.16782
2133.11534	0.16798
2131.18666	0.16813
2129.25799	0.16829
2127.32931	0.16845
2125.40064	0.16861
2123.47196	0.16876
2121.54328	0.16892
2119.61461	0.16916
2117.68593	0.16941
2115.75726	0.16960
2113.82858	0.16972
2111.89991	0.16985
2109.97123	0.17003
2108.04255	0.17024
2106.11388	0.17043
2104.18520	0.17057
2102.25653	0.17072
2100.32785	0.17091
2098.39918	0.17109
2096.47050	0.17128
2094.54182	0.17144
2092.61315	0.17154
2090.68447	0.17164
2088.75580	0.17182
2086.82712	0.17205
2084.89845	0.17227
2082.96977	0.17245
2081.04109	0.17262
2079.11242	0.17282
2077.18374	0.17302
2075.25507	0.17319
2073.32639	0.17333
2071.39772	0.17346
2069.46904	0.17359
2067.54036	0.17371
2065.61169	0.17382
2063.68301	0.17401
2061.75434	0.17422
2059.82566	0.17439
2057.89699	0.17458
2055.96831	0.17481
2054.03963	0.17504
2052.11096	0.17521
2050.18228	0.17532
2048.25361	0.17542
2046.32493	0.17555
2044.39626	0.17573
2042.46758	0.17594
2040.53890	0.17619
2038.61023	0.17642
2036.68155	0.17661
2034.75288	0.17673
2032.82420	0.17683
2030.89553	0.17697
2028.96685	0.17719
2027.03817	0.17741
2025.10950	0.17761
2023.18082	0.17781
2021.25215	0.17795
2019.32347	0.17806
2017.39480	0.17822
2015.46612	0.17847
2013.53744	0.17870
2011.60877	0.17879
2009.68009	0.17885
2007.75142	0.17903
2005.82274	0.17927
2003.89407	0.17944
2001.96539	0.17959
2000.03671	0.17976
1998.10804	0.17993
1996.17936	0.18007
1994.25069	0.18018
1992.32201	0.18030
1990.39334	0.18047
1988.46466	0.18067
1986.53598	0.18082
1984.60731	0.18097
1982.67863	0.18114
1980.74996	0.18128
1978.82128	0.18138
1976.89261	0.18150
1974.96393	0.18163
1973.03525	0.18177
1971.10658	0.18196
1969.17790	0.18216
1967.24923	0.18230
1965.32055	0.18243
1963.39188	0.18263
1961.46320	0.18284
1959.53452	0.18298
1957.60585	0.18304
1955.67717	0.18310
1953.74850	0.18323
1951.81982	0.18343
1949.89115	0.18363
1947.96247	0.18383
1946.03379	0.18402
1944.10512	0.18413
1942.17644	0.18426
1940.24777	0.18451
1938.31909	0.18473
1936.39042	0.18484
1934.46174	0.18495
1932.53306	0.18512
1930.60439	0.18532
1928.67571	0.18551
1926.74704	0.18565
1924.81836	0.18574
1922.88969	0.18587
1920.96101	0.18603
1919.03233	0.18614
1917.10366	0.18634
1915.17498	0.18664
1913.24631	0.18686
1911.31763	0.18698
1909.38896	0.18713
1907.46028	0.18733
1905.53160	0.18751
1903.60293	0.18763
1901.67425	0.18777
1899.74558	0.18796
1897.81690	0.18816
1895.88823	0.18831
1893.95955	0.18845
1892.03087	0.18854
1890.10220	0.18862
1888.17352	0.18878
1886.24485	0.18901
1884.31617	0.18923
1882.38750	0.18941
1880.45882	0.18954
1878.53014	0.18968
1876.60147	0.18983
1874.67279	0.19002
1872.74412	0.19014
1870.81544	0.19012
1868.88677	0.19015
1866.95809	0.19040
1865.02941	0.19076
1863.10074	0.19104
1861.17206	0.19124
1859.24339	0.19138
1857.31471	0.19153
1855.38604	0.19171
1853.45736	0.19190
1851.52868	0.19206
1849.60001	0.19215
1847.67133	0.19211
1845.74266	0.19201
1843.81398	0.19218
1841.88531	0.19268
1839.95663	0.19310
1838.02795	0.19326
1836.09928	0.19337
1834.17060	0.19354
1832.24193	0.19361
1830.31325	0.19362
1828.38458	0.19375
1826.45590	0.19392
1824.52722	0.19412
1822.59855	0.19444
1820.66987	0.19475
1818.74120	0.19488
1816.81252	0.19499
1814.88385	0.19517
1812.95517	0.19531
1811.02649	0.19541
1809.09782	0.19559
1807.16914	0.19579
1805.24047	0.19587
1803.31179	0.19581
1801.38312	0.19582
1799.45444	0.19601
1797.52576	0.19623
1795.59709	0.19621
1793.66841	0.19607
1791.73974	0.19619
1789.81106	0.19660
1787.88239	0.19691
1785.95371	0.19697
1784.02503	0.19701
1782.09636	0.19711
1780.16768	0.19725
1778.23901	0.19744
1776.31033	0.19756
1774.38166	0.19748
1772.45298	0.19736
1770.52430	0.19748
1768.59563	0.19783
1766.66695	0.19822
1764.73828	0.19841
1762.80960	0.19840
1760.88093	0.19843
1758.95225	0.19853
1757.02357	0.19863
1755.09490	0.19867
1753.16622	0.19846
1751.23755	0.19811
1749.30887	0.19808
1747.38020	0.19832
1745.45152	0.19850
1743.52284	0.19854
1741.59417	0.19849
1739.66549	0.19849
1737.73682	0.19851
1735.80814	0.19828
1733.87947	0.19810
1731.95079	0.19841
1730.02211	0.19898
1728.09344	0.19942
1726.16476	0.19963
1724.23609	0.19972
1722.30741	0.19977
1720.37874	0.19953
1718.45006	0.19912
1716.52138	0.19916
1714.59271	0.19974
1712.66403	0.20036
1710.73536	0.20067
1708.80668	0.20064
1706.87801	0.20051
1704.94933	0.20052
1703.02065	0.20041
1701.09198	0.20017
1699.16330	0.20022
1697.23463	0.20048
1695.30595	0.20077
1693.37728	0.20113
1691.44860	0.20128
1689.51992	0.20121
1687.59125	0.20106
1685.66257	0.20072
1683.73390	0.20056
1681.80522	0.20091
1679.87655	0.20133
1677.94787	0.20134
1676.01919	0.20106
1674.09052	0.20103
1672.16184	0.20113
1670.23317	0.20117
1668.30449	0.20148
1666.37582	0.20193
1664.44714	0.20208
1662.51846	0.20209
1660.58979	0.20225
1658.66111	0.20239
1656.73244	0.20207
1654.80376	0.20123
1652.87509	0.20079
1650.94641	0.20125
1649.01773	0.20168
1647.08906	0.20176
1645.16038	0.20205
1643.23171	0.20246
1641.30303	0.20265
1639.37436	0.20256
1637.44568	0.20229
1635.51700	0.20226
1633.58833	0.20261
1631.65965	0.20292
1629.73098	0.20292
1627.80230	0.20282
1625.87363	0.20266
1623.94495	0.20233
1622.01627	0.20200
1620.08760	0.20190
1618.15892	0.20204
1616.23025	0.20258
1614.30157	0.20340
1612.37290	0.20402
1610.44422	0.20431
1608.51554	0.20454
1606.58687	0.20486
1604.65819	0.20519
1602.72952	0.20546
1600.80084	0.20568
1598.87217	0.20585
1596.94349	0.20603
1595.01481	0.20624
1593.08614	0.20644
1591.15746	0.20657
1589.22879	0.20668
1587.30011	0.20686
1585.37144	0.20708
1583.44276	0.20726
1581.51408	0.20739
1579.58541	0.20730
1577.65673	0.20699
1575.72806	0.20700
1573.79938	0.20752
1571.87071	0.20787
1569.94203	0.20783
1568.01335	0.20789
1566.08468	0.20811
1564.15600	0.20823
1562.22733	0.20792
1560.29865	0.20734
1558.36998	0.20728
1556.44130	0.20796
1554.51262	0.20873
1552.58395	0.20914
1550.65527	0.20935
1548.72660	0.20949
1546.79792	0.20942
1544.86925	0.20905
1542.94057	0.20868
1541.01189	0.20862
1539.08322	0.20908
1537.15454	0.20968
1535.22587	0.20978
1533.29719	0.20973
1531.36852	0.21002
1529.43984	0.21025
1527.51116	0.21012
1525.58249	0.20992
1523.65381	0.20974
1521.72514	0.20969
1519.79646	0.20997
1517.86779	0.21032
1515.93911	0.21056
1514.01043	0.21076
1512.08176	0.21074
1510.15308	0.21034
1508.22441	0.20984
1506.29573	0.20997
1504.36706	0.21078
1502.43838	0.21136
1500.50970	0.21122
1498.58103	0.21087
1496.65235	0.21089
1494.72368	0.21122
1492.79500	0.21128
1490.86633	0.21096
1488.93765	0.21079
1487.00897	0.21099
1485.08030	0.21122
1483.15162	0.21115
1481.22295	0.21088
1479.29427	0.21053
1477.36560	0.21007
1475.43692	0.20953
1473.50824	0.20909
1471.57957	0.20895
1469.65089	0.20897
1467.72222	0.20872
1465.79354	0.20831
1463.86487	0.20818
1461.93619	0.20810
1460.00751	0.20750
1458.07884	0.20668
1456.15016	0.20658
1454.22149	0.20720
1452.29281	0.20771
1450.36414	0.20786
1448.43546	0.20789
1446.50678	0.20797
1444.57811	0.20814
1442.64943	0.20835
1440.72076	0.20848
1438.79208	0.20833
1436.86341	0.20817
1434.93473	0.20844
1433.00605	0.20881
1431.07738	0.20895
1429.14870	0.20910
1427.22003	0.20931
1425.29135	0.20940
1423.36268	0.20929
1421.43400	0.20888
1419.50532	0.20851
1417.57665	0.20877
1415.64797	0.20933
1413.71930	0.20962
1411.79062	0.20972
1409.86195	0.20978
1407.93327	0.20974
1406.00459	0.20962
1404.07592	0.20956
1402.14724	0.20949
1400.21857	0.20928
1398.28989	0.20903
1396.36122	0.20890
1394.43254	0.20894
1392.50386	0.20908
1390.57519	0.20903
1388.64651	0.20869
1386.71784	0.20837
1384.78916	0.20833
1382.86049	0.20848
1380.93181	0.20862
1379.00313	0.20861
1377.07446	0.20844
1375.14578	0.20823
1373.21711	0.20819
1371.28843	0.20829
1369.35976	0.20835
1367.43108	0.20835
1365.50240	0.20828
1363.57373	0.20814
1361.64505	0.20818
1359.71638	0.20846
1357.78770	0.20868
1355.85903	0.20868
1353.93035	0.20862
1352.00167	0.20865
1350.07300	0.20878
1348.14432	0.20895
1346.21565	0.20906
1344.28697	0.20904
1342.35830	0.20891
1340.42962	0.20875
1338.50094	0.20874
1336.57227	0.20886
1334.64359	0.20892
1332.71492	0.20885
1330.78624	0.20871
1328.85757	0.20853
1326.92889	0.20832
1325.00021	0.20809
1323.07154	0.20791
1321.14286	0.20778
1319.21419	0.20759
1317.28551	0.20736
1315.35684	0.20717
1313.42816	0.20697
1311.49948	0.20674
1309.57081	0.20651
1307.64213	0.20631
1305.71346	0.20612
1303.78478	0.20589
1301.85611	0.20564
1299.92743	0.20545
1297.99875	0.20526
1296.07008	0.20504
1294.14140	0.20481
1292.21273	0.20461
1290.28405	0.20438
1288.35538	0.20412
1286.42670	0.20393
1284.49802	0.20382
1282.56935	0.20367
1280.64067	0.20345
1278.71200	0.20317
1276.78332	0.20281
1274.85465	0.20233
1272.92597	0.20172
1270.99729	0.20096
1269.06862	0.20010
1267.13994	0.19921
1265.21127	0.19842
1263.28259	0.19785
1261.35392	0.19761
1259.42524	0.19772
1257.49656	0.19796
1255.56789	0.19810
1253.63921	0.19806
1251.71054	0.19779
1249.78186	0.19740
1247.85319	0.19709
1245.92451	0.19687
1243.99583	0.19649
1242.06716	0.19595
1240.13848	0.19544
1238.20981	0.19494
1236.28113	0.19432
1234.35246	0.19368
1232.42378	0.19309
1230.49510	0.19250
1228.56643	0.19192
1226.63775	0.19139
1224.70908	0.19092
1222.78040	0.19049
1220.85173	0.19000
1218.92305	0.18943
1216.99437	0.18887
1215.06570	0.18832
1213.13702	0.18774
1211.20835	0.18715
1209.27967	0.18654
1207.35100	0.18590
1205.42232	0.18528
1203.49364	0.18471
1201.56497	0.18415
1199.63629	0.18354
1197.70762	0.18291
1195.77894	0.18229
1193.85027	0.18165
1191.92159	0.18093
1189.99291	0.18016
1188.06424	0.17941
1186.13556	0.17863
1184.20689	0.17770
1182.27821	0.17673
1180.34954	0.17594
1178.42086	0.17523
1176.49218	0.17445
1174.56351	0.17357
1172.63483	0.17266
1170.70616	0.17172
1168.77748	0.17075
1166.84881	0.16983
1164.92013	0.16895
1162.99145	0.16812
1161.06278	0.16732
1159.13410	0.16653
1157.20543	0.16576
1155.27675	0.16497
1153.34808	0.16412
1151.41940	0.16327
1149.49072	0.16250
1147.56205	0.16170
1145.63337	0.16081
1143.70470	0.15985
1141.77602	0.15880
1139.84735	0.15767
1137.91867	0.15650
1135.98999	0.15524
1134.06132	0.15379
1132.13264	0.15216
1130.20397	0.15027
1128.27529	0.14813
1126.34662	0.14582
1124.41794	0.14338
1122.48926	0.14093
1120.56059	0.13853
1118.63191	0.13622
1116.70324	0.13411
1114.77456	0.13226
1112.84589	0.13059
1110.91721	0.12915
1108.98853	0.12806
1107.05986	0.12735
1105.13118	0.12699
1103.20251	0.12699
1101.27383	0.12731
1099.34516	0.12786
1097.41648	0.12852
1095.48780	0.12927
1093.55913	0.13006
1091.63045	0.13086
1089.70178	0.13167
1087.77310	0.13248
1085.84443	0.13321
1083.91575	0.13372
1081.98707	0.13405
1080.05840	0.13433
1078.12972	0.13455
1076.20105	0.13467
1074.27237	0.13479
1072.34370	0.13492
1070.41502	0.13501
1068.48634	0.13506
1066.55767	0.13509
1064.62899	0.13524
1062.70032	0.13563
1060.77164	0.13606
1058.84297	0.13639
1056.91429	0.13668
1054.98561	0.13693
1053.05694	0.13712
1051.12826	0.13736
1049.19959	0.13773
1047.27091	0.13816
1045.34224	0.13859
1043.41356	0.13896
1041.48488	0.13930
1039.55621	0.13966
1037.62753	0.14010
1035.69886	0.14058
1033.77018	0.14103
1031.84151	0.14143
1029.91283	0.14178
1027.98415	0.14210
1026.05548	0.14244
1024.12680	0.14283
1022.19813	0.14323
1020.26945	0.14363
1018.34078	0.14406
1016.41210	0.14451
1014.48342	0.14505
1012.55475	0.14568
1010.62607	0.14634
1008.69740	0.14701
1006.76872	0.14767
1004.84005	0.14828
1002.91137	0.14879
1000.98269	0.14916
999.05402	0.14942
997.12534	0.14973
995.19667	0.15001
993.26799	0.15011
991.33932	0.15011
989.41064	0.15012
987.48196	0.15010
985.55329	0.15011
983.62461	0.15016
981.69594	0.15020
979.76726	0.15019
977.83859	0.15007
975.90991	0.14986
973.98123	0.14968
972.05256	0.14951
970.12388	0.14931
968.19521	0.14911
966.26653	0.14890
964.33786	0.14868
962.40918	0.14852
960.48050	0.14842
958.55183	0.14825
956.62315	0.14804
954.69448	0.14788
952.76580	0.14779
950.83713	0.14766
948.90845	0.14744
946.97977	0.14714
945.05110	0.14684
943.12242	0.14651
941.19375	0.14608
939.26507	0.14563
937.33640	0.14522
935.40772	0.14478
933.47904	0.14430
931.55037	0.14380
929.62169	0.14329
927.69302	0.14273
925.76434	0.14208
923.83567	0.14148
921.90699	0.14092
919.97831	0.14025
918.04964	0.13949
916.12096	0.13882
914.19229	0.13818
912.26361	0.13745
910.33494	0.13665
908.40626	0.13591
906.47758	0.13524
904.54891	0.13451
902.62023	0.13369
900.69156	0.13294
898.76288	0.13232
896.83421	0.13178
894.90553	0.13123
892.97685	0.13073
891.04818	0.13034
889.11950	0.13001
887.19083	0.12962
885.26215	0.12920
883.33348	0.12878
881.40480	0.12836
879.47612	0.12797
877.54745	0.12767
875.61877	0.12750
873.69010	0.12739
871.76142	0.12723
869.83275	0.12703
867.90407	0.12676
865.97539	0.12644
864.04672	0.12619
862.11804	0.12607
860.18937	0.12604
858.26069	0.12595
856.33202	0.12570
854.40334	0.12543
852.47466	0.12528
850.54599	0.12517
848.61731	0.12497
846.68864	0.12459
844.75996	0.12416
842.83129	0.12390
840.90261	0.12377
838.97394	0.12352
837.04526	0.12303
835.11658	0.12233
833.18791	0.12149
831.25923	0.12057
829.33056	0.11966
827.40188	0.11870
825.47321	0.11774
823.54453	0.11685
821.61585	0.11598
819.68718	0.11515
817.75850	0.11449
815.82983	0.11409
813.90115	0.11397
811.97248	0.11388
810.04380	0.11356
808.11512	0.11306
806.18645	0.11264
804.25777	0.11252
802.32910	0.11255
800.40042	0.11234
798.47175	0.11183
796.54307	0.11131
794.61439	0.11094
792.68572	0.11064
790.75704	0.11035
788.82837	0.11003
786.89969	0.10967
784.97102	0.10941
783.04234	0.10926
781.11366	0.10902
779.18499	0.10859
777.25631	0.10820
775.32764	0.10791
773.39896	0.10761
771.47029	0.10724
769.54161	0.10688
767.61293	0.10658
765.68426	0.10623
763.75558	0.10579
761.82691	0.10531
759.89823	0.10479
757.96956	0.10420
756.04088	0.10362
754.11220	0.10308
752.18353	0.10246
750.25485	0.10169
748.32618	0.10084
746.39750	0.10003
744.46883	0.09918
742.54015	0.09821
740.61147	0.09736
738.68280	0.09694
736.75412	0.09684
734.82545	0.09681
732.89677	0.09688
730.96810	0.09705
729.03942	0.09723
727.11074	0.09738
725.18207	0.09748
723.25339	0.09746
721.32472	0.09751
719.39604	0.09778
717.46737	0.09809
715.53869	0.09834
713.61001	0.09870
711.68134	0.09915
709.75266	0.09944
707.82399	0.09953
705.89531	0.09952
703.96664	0.09940
702.03796	0.09903
700.10928	0.09845
698.18061	0.09780
696.25193	0.09717
694.32326	0.09663
692.39458	0.09614
690.46591	0.09569
688.53723	0.09529
686.60855	0.09485
684.67988	0.09431
682.75120	0.09373
680.82253	0.09324
678.89385	0.09280
676.96518	0.09218
675.03650	0.09130
673.10782	0.09037
671.17915	0.08948
669.25047	0.08854
667.32180	0.08773
665.39312	0.08716
663.46445	0.08651
661.53577	0.08562
659.60709	0.08463
657.67842	0.08372
655.74974	0.08288
653.82107	0.08205
651.89239	0.08120
649.96372	0.08042
648.03504	0.07963
646.10636	0.07870
644.17769	0.07769
642.24901	0.07663
640.32034	0.07555
638.39166	0.07451
636.46299	0.07348
634.53431	0.07226
632.60563	0.07062
630.67696	0.06826
628.74828	0.06470
626.81961	0.06000
624.89093	0.05522
622.96226	0.05143
621.03358	0.04915
619.10490	0.04803
617.17623	0.04731
615.24755	0.04660
613.31888	0.04563
611.39020	0.04448
609.46153	0.04386
607.53285	0.04398
605.60417	0.04443
603.67550	0.04498
601.74682	0.04577
599.81815	0.04681
597.88947	0.04780
595.96080	0.04847
594.03212	0.04882
592.10344	0.04900
590.17477	0.04914
588.24609	0.04914
586.31742	0.04891
584.38874	0.04864
582.46007	0.04841
580.53139	0.04810
578.60271	0.04763
576.67404	0.04708
574.74536	0.04643
572.81669	0.04564
570.88801	0.04484
568.95934	0.04427
567.03066	0.04390
565.10198	0.04358
563.17331	0.04322
561.24463	0.04286
559.31596	0.04258
557.38728	0.04240
555.45861	0.04224
553.52993	0.04207
551.60125	0.04187
549.67258	0.04167
547.74390	0.04151
545.81523	0.04126
543.88655	0.04095
541.95788	0.04081
540.02920	0.04071
538.10052	0.04046
536.17185	0.04016
534.24317	0.03991
532.31450	0.03973
530.38582	0.03950
528.45715	0.03914
526.52847	0.03890
524.59979	0.03882
522.67112	0.03851
520.74244	0.03788
518.81377	0.03719
516.88509	0.03660
514.95642	0.03609
513.02774	0.03572
511.09906	0.03546
509.17039	0.03518
507.24171	0.03489
505.31304	0.03466
503.38436	0.03448
501.45569	0.03422
499.52701	0.03378
497.59833	0.03319
495.66966	0.03257
493.74098	0.03190
491.81231	0.03120
489.88363	0.03054
487.95496	0.02990
486.02628	0.02927
484.09760	0.02874
482.16893	0.02825
480.24025	0.02775
478.31158	0.02719
476.38290	0.02656
474.45423	0.02597
472.52555	0.02553
470.59687	0.02520
468.66820	0.02486
466.73952	0.02451
464.81085	0.02418
462.88217	0.02382
460.95350	0.02355
459.02482	0.02350
457.09614	0.02352
455.16747	0.02348
453.23879	0.02343
451.31012	0.02344
449.38144	0.02342
447.45277	0.02329
445.52409	0.02308
443.59541	0.02291
441.66674	0.02277
439.73806	0.02245
437.80939	0.02190
435.88071	0.02131
433.95204	0.02074
432.02336	0.02011
430.09468	0.01943
428.16601	0.01878
426.23733	0.01819
424.30866	0.01763
422.37998	0.01710
420.45131	0.01658
418.52263	0.01594
416.59395	0.01518
414.66528	0.01439
412.73660	0.01361
410.80793	0.01293
408.87925	0.01232
406.95058	0.01166
405.02190	0.01099
403.09322	0.01040
401.16455	0.00993
399.23587	0.00948
397.30720	0.00893
395.37852	0.00827
393.44985	0.00759
391.52117	0.00706
389.59249	0.00679
387.66382	0.00652
385.73514	0.00607
383.80647	0.00558
381.87779	0.00519
379.94912	0.00484
378.02044	0.00450
376.09176	0.00414
374.16309	0.00364
372.23441	0.00309
370.30574	0.00258
368.37706	0.00221
