7496.76250	0.00144
7494.83382	0.00146
7492.90514	0.00147
7490.97647	0.00147
7489.04779	0.00149
7487.11912	0.00151
7485.19044	0.00153
7483.26177	0.00153
7481.33309	0.00154
7479.40441	0.00155
7477.47574	0.00155
7475.54706	0.00154
7473.61839	0.00153
7471.68971	0.00153
7469.76104	0.00153
7467.83236	0.00153
7465.90368	0.00154
7463.97501	0.00156
7462.04633	0.00156
7460.11766	0.00154
7458.18898	0.00154
7456.26031	0.00156
7454.33163	0.00158
7452.40295	0.00158
7450.47428	0.00159
7448.54560	0.00161
7446.61693	0.00162
7444.68825	0.00161
7442.75958	0.00160
7440.83090	0.00160
7438.90222	0.00161
7436.97355	0.00161
7435.04487	0.00162
7433.11620	0.00162
7431.18752	0.00162
7429.25885	0.00163
7427.33017	0.00164
7425.40149	0.00165
7423.47282	0.00166
7421.54414	0.00166
7419.61547	0.00165
7417.68679	0.00164
7415.75812	0.00164
7413.82944	0.00164
7411.90076	0.00164
7409.97209	0.00166
7408.04341	0.00167
7406.11474	0.00167
7404.18606	0.00168
7402.25739	0.00169
7400.32871	0.00172
7398.40003	0.00173
7396.47136	0.00173
7394.54268	0.00171
7392.61401	0.00171
7390.68533	0.00172
7388.75666	0.00172
7386.82798	0.00173
7384.89930	0.00174
7382.97063	0.00174
7381.04195	0.00174
7379.11328	0.00175
7377.18460	0.00176
7375.25593	0.00176
7373.32725	0.00176
7371.39857	0.00177
7369.46990	0.00177
7367.54122	0.00177
7365.61255	0.00177
7363.68387	0.00177
7361.75520	0.00178
7359.82652	0.00179
7357.89784	0.00180
7355.96917	0.00181
7354.04049	0.00181
7352.11182	0.00180
7350.18314	0.00181
7348.25447	0.00181
7346.32579	0.00181
7344.39711	0.00183
7342.46844	0.00184
7340.53976	0.00185
7338.61109	0.00187
7336.68241	0.00189
7334.75374	0.00189
7332.82506	0.00188
7330.89638	0.00186
7328.96771	0.00186
7327.03903	0.00187
7325.11036	0.00189
7323.18168	0.00191
7321.25301	0.00192
7319.32433	0.00191
7317.39565	0.00191
7315.46698	0.00191
7313.53830	0.00192
7311.60963	0.00193
7309.68095	0.00194
7307.75228	0.00194
7305.82360	0.00193
7303.89492	0.00192
7301.96625	0.00192
7300.03757	0.00194
7298.10890	0.00195
7296.18022	0.00197
7294.25155	0.00197
7292.32287	0.00197
7290.39419	0.00197
7288.46552	0.00198
7286.53684	0.00198
7284.60817	0.00198
7282.67949	0.00198
7280.75082	0.00199
7278.82214	0.00200
7276.89346	0.00199
7274.96479	0.00199
7273.03611	0.00200
7271.10744	0.00202
7269.17876	0.00203
7267.25009	0.00203
7265.32141	0.00204
7263.39273	0.00205
7261.46406	0.00205
7259.53538	0.00205
7257.60671	0.00205
7255.67803	0.00205
7253.74936	0.00206
7251.82068	0.00206
7249.89200	0.00207
7247.96333	0.00207
7246.03465	0.00208
7244.10598	0.00209
7242.17730	0.00209
7240.24863	0.00210
7238.31995	0.00210
7236.39127	0.00210
7234.46260	0.00210
7232.53392	0.00211
7230.60525	0.00211
7228.67657	0.00211
7226.74790	0.00211
7224.81922	0.00212
7222.89054	0.00213
7220.96187	0.00213
7219.03319	0.00214
7217.10452	0.00216
7215.17584	0.00217
7213.24717	0.00218
7211.31849	0.00218
7209.38981	0.00218
7207.46114	0.00218
7205.53246	0.00217
7203.60379	0.00218
7201.67511	0.00219
7199.74644	0.00219
7197.81776	0.00220
7195.88908	0.00222
7193.96041	0.00223
7192.03173	0.00224
7190.10306	0.00225
7188.17438	0.00225
7186.24571	0.00223
7184.31703	0.00221
7182.38835	0.00221
7180.45968	0.00224
7178.53100	0.00227
7176.60233	0.00228
7174.67365	0.00228
7172.74498	0.00228
7170.81630	0.00229
7168.88762	0.00229
7166.95895	0.00228
7165.03027	0.00228
7163.10160	0.00229
7161.17292	0.00230
7159.24425	0.00231
7157.31557	0.00232
7155.38689	0.00233
7153.45822	0.00233
7151.52954	0.00233
7149.60087	0.00234
7147.67219	0.00235
7145.74352	0.00235
7143.81484	0.00235
7141.88616	0.00236
7139.95749	0.00236
7138.02881	0.00236
7136.10014	0.00238
7134.17146	0.00239
7132.24279	0.00238
7130.31411	0.00238
7128.38543	0.00239
7126.45676	0.00240
7124.52808	0.00240
7122.59941	0.00242
7120.67073	0.00242
7118.74206	0.00242
7116.81338	0.00242
7114.88470	0.00244
7112.95603	0.00245
7111.02735	0.00245
7109.09868	0.00244
7107.17000	0.00244
7105.24133	0.00244
7103.31265	0.00244
7101.38397	0.00245
7099.45530	0.00246
7097.52662	0.00248
7095.59795	0.00250
7093.66927	0.00252
7091.74060	0.00253
7089.81192	0.00252
7087.88324	0.00251
7085.95457	0.00252
7084.02589	0.00253
7082.09722	0.00254
7080.16854	0.00254
7078.23987	0.00254
7076.31119	0.00255
7074.38251	0.00255
7072.45384	0.00255
7070.52516	0.00255
7068.59649	0.00256
7066.66781	0.00259
7064.73914	0.00262
7062.81046	0.00262
7060.88178	0.00261
7058.95311	0.00259
7057.02443	0.00259
7055.09576	0.00259
7053.16708	0.00259
7051.23841	0.00259
7049.30973	0.00259
7047.38105	0.00261
7045.45238	0.00263
7043.52370	0.00264
7041.59503	0.00265
7039.66635	0.00266
7037.73768	0.00267
7035.80900	0.00268
7033.88032	0.00267
7031.95165	0.00267
7030.02297	0.00269
7028.09430	0.00270
7026.16562	0.00270
7024.23695	0.00271
7022.30827	0.00272
7020.37959	0.00271
7018.45092	0.00271
7016.52224	0.00272
7014.59357	0.00273
7012.66489	0.00275
7010.73622	0.00276
7008.80754	0.00277
7006.87886	0.00276
7004.95019	0.00276
7003.02151	0.00276
7001.09284	0.00276
6999.16416	0.00276
6997.23549	0.00276
6995.30681	0.00277
6993.37813	0.00279
6991.44946	0.00280
6989.52078	0.00280
6987.59211	0.00280
6985.66343	0.00280
6983.73476	0.00280
6981.80608	0.00280
6979.87740	0.00282
6977.94873	0.00284
6976.02005	0.00285
6974.09138	0.00286
6972.16270	0.00287
6970.23403	0.00288
6968.30535	0.00287
6966.37667	0.00287
6964.44800	0.00287
6962.51932	0.00287
6960.59065	0.00287
6958.66197	0.00289
6956.73330	0.00290
6954.80462	0.00291
6952.87594	0.00292
6950.94727	0.00292
6949.01859	0.00292
6947.08992	0.00292
6945.16124	0.00294
6943.23257	0.00296
6941.30389	0.00298
6939.37521	0.00299
6937.44654	0.00299
6935.51786	0.00299
6933.58919	0.00298
6931.66051	0.00297
6929.73184	0.00298
6927.80316	0.00299
6925.87448	0.00300
6923.94581	0.00300
6922.01713	0.00301
6920.08846	0.00303
6918.15978	0.00303
6916.23111	0.00303
6914.30243	0.00304
6912.37375	0.00305
6910.44508	0.00307
6908.51640	0.00306
6906.58773	0.00306
6904.65905	0.00308
6902.73038	0.00310
6900.80170	0.00310
6898.87302	0.00310
6896.94435	0.00309
6895.01567	0.00308
6893.08700	0.00308
6891.15832	0.00310
6889.22965	0.00313
6887.30097	0.00314
6885.37229	0.00313
6883.44362	0.00312
6881.51494	0.00311
6879.58627	0.00311
6877.65759	0.00313
6875.72892	0.00315
6873.80024	0.00318
6871.87156	0.00319
6869.94289	0.00320
6868.01421	0.00322
6866.08554	0.00323
6864.15686	0.00322
6862.22819	0.00321
6860.29951	0.00322
6858.37083	0.00325
6856.44216	0.00326
6854.51348	0.00325
6852.58481	0.00323
6850.65613	0.00323
6848.72746	0.00324
6846.79878	0.00326
6844.87010	0.00327
6842.94143	0.00327
6841.01275	0.00327
6839.08408	0.00329
6837.15540	0.00331
6835.22673	0.00332
6833.29805	0.00332
6831.36937	0.00332
6829.44070	0.00335
6827.51202	0.00336
6825.58335	0.00335
6823.65467	0.00333
6821.72600	0.00333
6819.79732	0.00335
6817.86864	0.00338
6815.93997	0.00340
6814.01129	0.00340
6812.08262	0.00340
6810.15394	0.00340
6808.22527	0.00340
6806.29659	0.00340
6804.36791	0.00340
6802.43924	0.00341
6800.51056	0.00342
6798.58189	0.00342
6796.65321	0.00343
6794.72454	0.00343
6792.79586	0.00344
6790.86718	0.00344
6788.93851	0.00343
6787.00983	0.00343
6785.08116	0.00344
6783.15248	0.00346
6781.22381	0.00346
6779.29513	0.00346
6777.36645	0.00347
6775.43778	0.00350
6773.50910	0.00351
6771.58043	0.00351
6769.65175	0.00350
6767.72308	0.00353
6765.79440	0.00356
6763.86572	0.00358
6761.93705	0.00359
6760.00837	0.00359
6758.07970	0.00359
6756.15102	0.00360
6754.22235	0.00360
6752.29367	0.00359
6750.36499	0.00358
6748.43632	0.00359
6746.50764	0.00360
6744.57897	0.00361
6742.65029	0.00362
6740.72162	0.00364
6738.79294	0.00364
6736.86426	0.00364
6734.93559	0.00365
6733.00691	0.00366
6731.07824	0.00365
6729.14956	0.00367
6727.22089	0.00368
6725.29221	0.00369
6723.36353	0.00370
6721.43486	0.00371
6719.50618	0.00372
6717.57751	0.00373
6715.64883	0.00373
6713.72016	0.00376
6711.79148	0.00378
6709.86280	0.00378
6707.93413	0.00378
6706.00545	0.00379
6704.07678	0.00379
6702.14810	0.00378
6700.21943	0.00377
6698.29075	0.00378
6696.36207	0.00380
6694.43340	0.00381
6692.50472	0.00382
6690.57605	0.00382
6688.64737	0.00383
6686.71870	0.00384
6684.79002	0.00386
6682.86134	0.00385
6680.93267	0.00384
6679.00399	0.00384
6677.07532	0.00384
6675.14664	0.00386
6673.21797	0.00387
6671.28929	0.00388
6669.36061	0.00388
6667.43194	0.00389
6665.50326	0.00389
6663.57459	0.00390
6661.64591	0.00392
6659.71724	0.00394
6657.78856	0.00394
6655.85988	0.00394
6653.93121	0.00396
6652.00253	0.00397
6650.07386	0.00399
6648.14518	0.00400
6646.21651	0.00400
6644.28783	0.00399
6642.35915	0.00399
6640.43048	0.00399
6638.50180	0.00399
6636.57313	0.00400
6634.64445	0.00402
6632.71578	0.00404
6630.78710	0.00405
6628.85842	0.00405
6626.92975	0.00407
6625.00107	0.00409
6623.07240	0.00409
6621.14372	0.00409
6619.21505	0.00410
6617.28637	0.00410
6615.35769	0.00410
6613.42902	0.00411
6611.50034	0.00413
6609.57167	0.00415
6607.64299	0.00415
6605.71432	0.00415
6603.78564	0.00415
6601.85696	0.00416
6599.92829	0.00416
6597.99961	0.00417
6596.07094	0.00418
6594.14226	0.00420
6592.21359	0.00421
6590.28491	0.00421
6588.35623	0.00421
6586.42756	0.00421
6584.49888	0.00422
6582.57021	0.00423
6580.64153	0.00425
6578.71286	0.00427
6576.78418	0.00429
6574.85550	0.00429
6572.92683	0.00429
6570.99815	0.00429
6569.06948	0.00428
6567.14080	0.00429
6565.21213	0.00430
6563.28345	0.00432
6561.35477	0.00433
6559.42610	0.00434
6557.49742	0.00433
6555.56875	0.00434
6553.64007	0.00436
6551.71140	0.00437
6549.78272	0.00437
6547.85404	0.00438
6545.92537	0.00440
6543.99669	0.00441
6542.06802	0.00441
6540.13934	0.00441
6538.21067	0.00442
6536.28199	0.00444
6534.35331	0.00446
6532.42464	0.00446
6530.49596	0.00445
6528.56729	0.00445
6526.63861	0.00447
6524.70994	0.00450
6522.78126	0.00453
6520.85258	0.00454
6518.92391	0.00453
6516.99523	0.00453
6515.06656	0.00452
6513.13788	0.00452
6511.20921	0.00453
6509.28053	0.00455
6507.35185	0.00458
6505.42318	0.00460
6503.49450	0.00461
6501.56583	0.00460
6499.63715	0.00461
6497.70848	0.00463
6495.77980	0.00464
6493.85112	0.00465
6491.92245	0.00465
6489.99377	0.00465
6488.06510	0.00464
6486.13642	0.00464
6484.20775	0.00465
6482.27907	0.00467
6480.35039	0.00469
6478.42172	0.00471
6476.49304	0.00471
6474.56437	0.00472
6472.63569	0.00472
6470.70702	0.00473
6468.77834	0.00473
6466.84966	0.00473
6464.92099	0.00473
6462.99231	0.00474
6461.06364	0.00476
6459.13496	0.00476
6457.20629	0.00477
6455.27761	0.00478
6453.34893	0.00481
6451.42026	0.00483
6449.49158	0.00485
6447.56291	0.00486
6445.63423	0.00485
6443.70556	0.00483
6441.77688	0.00481
6439.84820	0.00482
6437.91953	0.00484
6435.99085	0.00488
6434.06218	0.00490
6432.13350	0.00490
6430.20483	0.00489
6428.27615	0.00491
6426.34747	0.00495
6424.41880	0.00496
6422.49012	0.00496
6420.56145	0.00497
6418.63277	0.00498
6416.70410	0.00499
6414.77542	0.00499
6412.84674	0.00499
6410.91807	0.00499
6408.98939	0.00501
6407.06072	0.00502
6405.13204	0.00503
6403.20337	0.00504
6401.27469	0.00504
6399.34601	0.00505
6397.41734	0.00507
6395.48866	0.00509
6393.55999	0.00509
6391.63131	0.00510
6389.70264	0.00509
6387.77396	0.00510
6385.84528	0.00511
6383.91661	0.00514
6381.98793	0.00516
6380.05926	0.00516
6378.13058	0.00514
6376.20191	0.00513
6374.27323	0.00513
6372.34455	0.00516
6370.41588	0.00519
6368.48720	0.00519
6366.55853	0.00519
6364.62985	0.00522
6362.70118	0.00525
6360.77250	0.00526
6358.84382	0.00524
6356.91515	0.00523
6354.98647	0.00526
6353.05780	0.00529
6351.12912	0.00530
6349.20045	0.00531
6347.27177	0.00532
6345.34309	0.00532
6343.41442	0.00532
6341.48574	0.00533
6339.55707	0.00534
6337.62839	0.00536
6335.69972	0.00539
6333.77104	0.00541
6331.84236	0.00541
6329.91369	0.00542
6327.98501	0.00542
6326.05634	0.00542
6324.12766	0.00542
6322.19899	0.00542
6320.27031	0.00543
6318.34163	0.00545
6316.41296	0.00548
6314.48428	0.00549
6312.55561	0.00549
6310.62693	0.00549
6308.69826	0.00550
6306.76958	0.00552
6304.84090	0.00552
6302.91223	0.00553
6300.98355	0.00553
6299.05488	0.00555
6297.12620	0.00557
6295.19753	0.00558
6293.26885	0.00559
6291.34017	0.00559
6289.41150	0.00560
6287.48282	0.00561
6285.55415	0.00562
6283.62547	0.00563
6281.69680	0.00566
6279.76812	0.00569
6277.83944	0.00570
6275.91077	0.00570
6273.98209	0.00569
6272.05342	0.00569
6270.12474	0.00570
6268.19607	0.00573
6266.26739	0.00575
6264.33871	0.00575
6262.41004	0.00576
6260.48136	0.00578
6258.55269	0.00578
6256.62401	0.00579
6254.69534	0.00578
6252.76666	0.00578
6250.83798	0.00579
6248.90931	0.00581
6246.98063	0.00583
6245.05196	0.00583
6243.12328	0.00583
6241.19461	0.00585
6239.26593	0.00588
6237.33725	0.00590
6235.40858	0.00590
6233.47990	0.00590
6231.55123	0.00593
6229.62255	0.00597
6227.69388	0.00599
6225.76520	0.00600
6223.83652	0.00600
6221.90785	0.00599
6219.97917	0.00599
6218.05050	0.00599
6216.12182	0.00599
6214.19315	0.00601
6212.26447	0.00604
6210.33579	0.00605
6208.40712	0.00605
6206.47844	0.00605
6204.54977	0.00605
6202.62109	0.00606
6200.69242	0.00606
6198.76374	0.00607
6196.83506	0.00609
6194.90639	0.00611
6192.97771	0.00614
6191.04904	0.00616
6189.12036	0.00617
6187.19169	0.00618
6185.26301	0.00619
6183.33433	0.00620
6181.40566	0.00621
6179.47698	0.00622
6177.54831	0.00623
6175.61963	0.00625
6173.69096	0.00627
6171.76228	0.00628
6169.83360	0.00628
6167.90493	0.00629
6165.97625	0.00631
6164.04758	0.00633
6162.11890	0.00633
6160.19023	0.00632
6158.26155	0.00633
6156.33287	0.00636
6154.40420	0.00637
6152.47552	0.00637
6150.54685	0.00637
6148.61817	0.00639
6146.68950	0.00640
6144.76082	0.00641
6142.83214	0.00642
6140.90347	0.00643
6138.97479	0.00646
6137.04612	0.00648
6135.11744	0.00650
6133.18877	0.00649
6131.26009	0.00649
6129.33141	0.00650
6127.40274	0.00651
6125.47406	0.00652
6123.54539	0.00654
6121.61671	0.00655
6119.68804	0.00657
6117.75936	0.00658
6115.83068	0.00659
6113.90201	0.00660
6111.97333	0.00663
6110.04466	0.00663
6108.11598	0.00663
6106.18731	0.00665
6104.25863	0.00667
6102.32995	0.00668
6100.40128	0.00668
6098.47260	0.00669
6096.54393	0.00671
6094.61525	0.00674
6092.68658	0.00675
6090.75790	0.00675
6088.82922	0.00675
6086.90055	0.00677
6084.97187	0.00678
6083.04320	0.00678
6081.11452	0.00678
6079.18585	0.00680
6077.25717	0.00683
6075.32849	0.00686
6073.39982	0.00687
6071.47114	0.00686
6069.54247	0.00685
6067.61379	0.00686
6065.68512	0.00688
6063.75644	0.00691
6061.82776	0.00693
6059.89909	0.00694
6057.97041	0.00694
6056.04174	0.00692
6054.11306	0.00693
6052.18439	0.00695
6050.25571	0.00698
6048.32703	0.00699
6046.39836	0.00701
6044.46968	0.00703
6042.54101	0.00704
6040.61233	0.00706
6038.68366	0.00707
6036.75498	0.00708
6034.82630	0.00709
6032.89763	0.00710
6030.96895	0.00713
6029.04028	0.00713
6027.11160	0.00713
6025.18293	0.00714
6023.25425	0.00717
6021.32557	0.00719
6019.39690	0.00720
6017.46822	0.00720
6015.53955	0.00721
6013.61087	0.00722
6011.68220	0.00724
6009.75352	0.00725
6007.82484	0.00726
6005.89617	0.00727
6003.96749	0.00728
6002.03882	0.00729
6000.11014	0.00731
5998.18147	0.00733
5996.25279	0.00734
5994.32411	0.00736
5992.39544	0.00737
5990.46676	0.00739
5988.53809	0.00740
5986.60941	0.00740
5984.68074	0.00739
5982.75206	0.00740
5980.82338	0.00741
5978.89471	0.00742
5976.96603	0.00745
5975.03736	0.00748
5973.10868	0.00750
5971.18001	0.00750
5969.25133	0.00750
5967.32265	0.00751
5965.39398	0.00753
5963.46530	0.00754
5961.53663	0.00754
5959.60795	0.00756
5957.67928	0.00758
5955.75060	0.00759
5953.82192	0.00762
5951.89325	0.00765
5949.96457	0.00767
5948.03590	0.00769
5946.10722	0.00770
5944.17855	0.00771
5942.24987	0.00771
5940.32119	0.00772
5938.39252	0.00774
5936.46384	0.00774
5934.53517	0.00775
5932.60649	0.00775
5930.67782	0.00776
5928.74914	0.00779
5926.82046	0.00781
5924.89179	0.00782
5922.96311	0.00783
5921.03444	0.00785
5919.10576	0.00787
5917.17709	0.00789
5915.24841	0.00790
5913.31973	0.00791
5911.39106	0.00792
5909.46238	0.00795
5907.53371	0.00797
5905.60503	0.00797
5903.67636	0.00797
5901.74768	0.00797
5899.81900	0.00798
5897.89033	0.00800
5895.96165	0.00802
5894.03298	0.00803
5892.10430	0.00804
5890.17563	0.00805
5888.24695	0.00806
5886.31827	0.00808
5884.38960	0.00810
5882.46092	0.00812
5880.53225	0.00815
5878.60357	0.00817
5876.67490	0.00818
5874.74622	0.00819
5872.81755	0.00821
5870.88887	0.00823
5868.96019	0.00824
5867.03152	0.00824
5865.10284	0.00825
5863.17417	0.00829
5861.24549	0.00831
5859.31682	0.00831
5857.38814	0.00831
5855.45946	0.00833
5853.53079	0.00835
5851.60211	0.00837
5849.67344	0.00838
5847.74476	0.00839
5845.81609	0.00839
5843.88741	0.00838
5841.95873	0.00840
5840.03006	0.00842
5838.10138	0.00844
5836.17271	0.00846
5834.24403	0.00850
5832.31536	0.00852
5830.38668	0.00853
5828.45800	0.00854
5826.52933	0.00856
5824.60065	0.00858
5822.67198	0.00859
5820.74330	0.00860
5818.81463	0.00860
5816.88595	0.00859
5814.95727	0.00861
5813.02860	0.00864
5811.09992	0.00865
5809.17125	0.00865
5807.24257	0.00867
5805.31390	0.00869
5803.38522	0.00873
5801.45654	0.00875
5799.52787	0.00875
5797.59919	0.00875
5795.67052	0.00876
5793.74184	0.00879
5791.81317	0.00882
5789.88449	0.00884
5787.95581	0.00885
5786.02714	0.00886
5784.09846	0.00888
5782.16979	0.00892
5780.24111	0.00894
5778.31244	0.00895
5776.38376	0.00894
5774.45508	0.00895
5772.52641	0.00896
5770.59773	0.00897
5768.66906	0.00898
5766.74038	0.00901
5764.81171	0.00903
5762.88303	0.00906
5760.95435	0.00908
5759.02568	0.00909
5757.09700	0.00910
5755.16833	0.00911
5753.23965	0.00912
5751.31098	0.00914
5749.38230	0.00914
5747.45362	0.00914
5745.52495	0.00916
5743.59627	0.00918
5741.66760	0.00922
5739.73892	0.00924
5737.81025	0.00926
5735.88157	0.00927
5733.95289	0.00928
5732.02422	0.00929
5730.09554	0.00931
5728.16687	0.00933
5726.23819	0.00935
5724.30952	0.00936
5722.38084	0.00935
5720.45216	0.00937
5718.52349	0.00939
5716.59481	0.00941
5714.66614	0.00943
5712.73746	0.00945
5710.80879	0.00947
5708.88011	0.00947
5706.95143	0.00947
5705.02276	0.00948
5703.09408	0.00950
5701.16541	0.00951
5699.23673	0.00953
5697.30806	0.00955
5695.37938	0.00956
5693.45070	0.00958
5691.52203	0.00961
5689.59335	0.00963
5687.66468	0.00965
5685.73600	0.00966
5683.80733	0.00968
5681.87865	0.00970
5679.94997	0.00971
5678.02130	0.00973
5676.09262	0.00974
5674.16395	0.00974
5672.23527	0.00976
5670.30660	0.00979
5668.37792	0.00982
5666.44924	0.00982
5664.52057	0.00984
5662.59189	0.00986
5660.66322	0.00988
5658.73454	0.00988
5656.80587	0.00990
5654.87719	0.00993
5652.94851	0.00996
5651.01984	0.00998
5649.09116	0.00999
5647.16249	0.01000
5645.23381	0.01002
5643.30514	0.01004
5641.37646	0.01006
5639.44778	0.01007
5637.51911	0.01008
5635.59043	0.01009
5633.66176	0.01011
5631.73308	0.01014
5629.80441	0.01016
5627.87573	0.01016
5625.94705	0.01015
5624.01838	0.01018
5622.08970	0.01021
5620.16103	0.01022
5618.23235	0.01023
5616.30368	0.01024
5614.37500	0.01025
5612.44632	0.01026
5610.51765	0.01030
5608.58897	0.01033
5606.66030	0.01036
5604.73162	0.01038
5602.80295	0.01039
5600.87427	0.01038
5598.94559	0.01041
5597.01692	0.01047
5595.08824	0.01052
5593.15957	0.01053
5591.23089	0.01052
5589.30222	0.01052
5587.37354	0.01054
5585.44486	0.01054
5583.51619	0.01053
5581.58751	0.01055
5579.65884	0.01058
5577.73016	0.01061
5575.80149	0.01061
5573.87281	0.01063
5571.94413	0.01067
5570.01546	0.01071
5568.08678	0.01073
5566.15811	0.01073
5564.22943	0.01074
5562.30076	0.01076
5560.37208	0.01078
5558.44340	0.01081
5556.51473	0.01083
5554.58605	0.01084
5552.65738	0.01083
5550.72870	0.01084
5548.80003	0.01087
5546.87135	0.01090
5544.94267	0.01091
5543.01400	0.01092
5541.08532	0.01093
5539.15665	0.01097
5537.22797	0.01100
5535.29930	0.01102
5533.37062	0.01104
5531.44194	0.01105
5529.51327	0.01105
5527.58459	0.01105
5525.65592	0.01107
5523.72724	0.01110
5521.79857	0.01113
5519.86989	0.01116
5517.94121	0.01118
5516.01254	0.01119
5514.08386	0.01120
5512.15519	0.01123
5510.22651	0.01124
5508.29784	0.01125
5506.36916	0.01126
5504.44048	0.01128
5502.51181	0.01130
5500.58313	0.01131
5498.65446	0.01133
5496.72578	0.01136
5494.79711	0.01138
5492.86843	0.01140
5490.93975	0.01142
5489.01108	0.01143
5487.08240	0.01146
5485.15373	0.01150
5483.22505	0.01152
5481.29638	0.01152
5479.36770	0.01153
5477.43902	0.01155
5475.51035	0.01155
5473.58167	0.01157
5471.65300	0.01160
5469.72432	0.01163
5467.79565	0.01164
5465.86697	0.01164
5463.93829	0.01164
5462.00962	0.01165
5460.08094	0.01168
5458.15227	0.01173
5456.22359	0.01177
5454.29492	0.01178
5452.36624	0.01179
5450.43756	0.01181
5448.50889	0.01182
5446.58021	0.01182
5444.65154	0.01184
5442.72286	0.01187
5440.79419	0.01189
5438.86551	0.01191
5436.93683	0.01194
5435.00816	0.01197
5433.07948	0.01199
5431.15081	0.01199
5429.22213	0.01201
5427.29346	0.01204
5425.36478	0.01207
5423.43610	0.01209
5421.50743	0.01211
5419.57875	0.01212
5417.65008	0.01213
5415.72140	0.01215
5413.79273	0.01217
5411.86405	0.01219
5409.93537	0.01221
5408.00670	0.01224
5406.07802	0.01227
5404.14935	0.01230
5402.22067	0.01231
5400.29200	0.01231
5398.36332	0.01230
5396.43464	0.01230
5394.50597	0.01232
5392.57729	0.01237
5390.64862	0.01241
5388.71994	0.01244
5386.79127	0.01246
5384.86259	0.01248
5382.93391	0.01251
5381.00524	0.01252
5379.07656	0.01252
5377.14789	0.01252
5375.21921	0.01255
5373.29054	0.01257
5371.36186	0.01260
5369.43318	0.01263
5367.50451	0.01265
5365.57583	0.01268
5363.64716	0.01270
5361.71848	0.01270
5359.78981	0.01271
5357.86113	0.01274
5355.93245	0.01277
5354.00378	0.01279
5352.07510	0.01281
5350.14643	0.01284
5348.21775	0.01285
5346.28908	0.01285
5344.36040	0.01285
5342.43172	0.01286
5340.50305	0.01287
5338.57437	0.01289
5336.64570	0.01293
5334.71702	0.01296
5332.78835	0.01298
5330.85967	0.01300
5328.93099	0.01302
5327.00232	0.01305
5325.07364	0.01309
5323.14497	0.01313
5321.21629	0.01314
5319.28762	0.01315
5317.35894	0.01316
5315.43026	0.01318
5313.50159	0.01321
5311.57291	0.01324
5309.64424	0.01326
5307.71556	0.01329
5305.78689	0.01330
5303.85821	0.01330
5301.92953	0.01332
5300.00086	0.01335
5298.07218	0.01338
5296.14351	0.01341
5294.21483	0.01341
5292.28616	0.01341
5290.35748	0.01342
5288.42880	0.01345
5286.50013	0.01347
5284.57145	0.01349
5282.64278	0.01350
5280.71410	0.01354
5278.78543	0.01358
5276.85675	0.01361
5274.92807	0.01362
5272.99940	0.01363
5271.07072	0.01366
5269.14205	0.01367
5267.21337	0.01368
5265.28470	0.01370
5263.35602	0.01373
5261.42734	0.01376
5259.49867	0.01378
5257.56999	0.01381
5255.64132	0.01384
5253.71264	0.01387
5251.78397	0.01388
5249.85529	0.01387
5247.92661	0.01387
5245.99794	0.01391
5244.06926	0.01395
5242.14059	0.01399
5240.21191	0.01401
5238.28324	0.01403
5236.35456	0.01404
5234.42588	0.01405
5232.49721	0.01407
5230.56853	0.01411
5228.63986	0.01415
5226.71118	0.01417
5224.78251	0.01419
5222.85383	0.01421
5220.92515	0.01423
5218.99648	0.01422
5217.06780	0.01421
5215.13913	0.01422
5213.21045	0.01426
5211.28178	0.01431
5209.35310	0.01435
5207.42442	0.01437
5205.49575	0.01439
5203.56707	0.01439
5201.63840	0.01441
5199.70972	0.01443
5197.78105	0.01447
5195.85237	0.01449
5193.92369	0.01451
5191.99502	0.01453
5190.06634	0.01455
5188.13767	0.01458
5186.20899	0.01460
5184.28032	0.01463
5182.35164	0.01467
5180.42296	0.01471
5178.49429	0.01473
5176.56561	0.01473
5174.63694	0.01472
5172.70826	0.01473
5170.77959	0.01475
5168.85091	0.01479
5166.92223	0.01482
5164.99356	0.01485
5163.06488	0.01487
5161.13621	0.01489
5159.20753	0.01491
5157.27886	0.01495
5155.35018	0.01498
5153.42150	0.01501
5151.49283	0.01503
5149.56415	0.01506
5147.63548	0.01508
5145.70680	0.01510
5143.77813	0.01511
5141.84945	0.01512
5139.92077	0.01515
5137.99210	0.01518
5136.06342	0.01521
5134.13475	0.01523
5132.20607	0.01524
5130.27740	0.01526
5128.34872	0.01528
5126.42004	0.01530
5124.49137	0.01532
5122.56269	0.01534
5120.63402	0.01536
5118.70534	0.01538
5116.77667	0.01542
5114.84799	0.01545
5112.91931	0.01544
5110.99064	0.01543
5109.06196	0.01545
5107.13329	0.01549
5105.20461	0.01554
5103.27594	0.01559
5101.34726	0.01562
5099.41858	0.01563
5097.48991	0.01565
5095.56123	0.01568
5093.63256	0.01569
5091.70388	0.01571
5089.77521	0.01575
5087.84653	0.01576
5085.91785	0.01576
5083.98918	0.01578
5082.06050	0.01582
5080.13183	0.01587
5078.20315	0.01589
5076.27448	0.01592
5074.34580	0.01593
5072.41712	0.01594
5070.48845	0.01594
5068.55977	0.01597
5066.63110	0.01601
5064.70242	0.01605
5062.77375	0.01609
5060.84507	0.01612
5058.91639	0.01615
5056.98772	0.01617
5055.05904	0.01620
5053.13037	0.01622
5051.20169	0.01625
5049.27302	0.01627
5047.34434	0.01628
5045.41566	0.01627
5043.48699	0.01627
5041.55831	0.01631
5039.62964	0.01636
5037.70096	0.01640
5035.77229	0.01640
5033.84361	0.01641
5031.91493	0.01643
5029.98626	0.01646
5028.05758	0.01649
5026.12891	0.01651
5024.20023	0.01653
5022.27156	0.01655
5020.34288	0.01660
5018.41420	0.01665
5016.48553	0.01669
5014.55685	0.01672
5012.62818	0.01675
5010.69950	0.01676
5008.77083	0.01678
5006.84215	0.01683
5004.91347	0.01686
5002.98480	0.01686
5001.05612	0.01686
4999.12745	0.01688
4997.19877	0.01692
4995.27010	0.01696
4993.34142	0.01700
4991.41274	0.01702
4989.48407	0.01702
4987.55539	0.01703
4985.62672	0.01707
4983.69804	0.01711
4981.76937	0.01713
4979.84069	0.01714
4977.91201	0.01716
4975.98334	0.01717
4974.05466	0.01719
4972.12599	0.01722
4970.19731	0.01725
4968.26864	0.01729
4966.33996	0.01733
4964.41128	0.01735
4962.48261	0.01737
4960.55393	0.01740
4958.62526	0.01743
4956.69658	0.01744
4954.76791	0.01746
4952.83923	0.01750
4950.91055	0.01756
4948.98188	0.01759
4947.05320	0.01761
4945.12453	0.01762
4943.19585	0.01763
4941.26718	0.01765
4939.33850	0.01767
4937.40982	0.01770
4935.48115	0.01773
4933.55247	0.01777
4931.62380	0.01780
4929.69512	0.01782
4927.76645	0.01784
4925.83777	0.01785
4923.90909	0.01787
4921.98042	0.01790
4920.05174	0.01794
4918.12307	0.01797
4916.19439	0.01801
4914.26572	0.01806
4912.33704	0.01810
4910.40836	0.01810
4908.47969	0.01810
4906.55101	0.01811
4904.62234	0.01815
4902.69366	0.01818
4900.76499	0.01820
4898.83631	0.01825
4896.90763	0.01831
4894.97896	0.01835
4893.05028	0.01834
4891.12161	0.01833
4889.19293	0.01835
4887.26426	0.01839
4885.33558	0.01842
4883.40690	0.01844
4881.47823	0.01847
4879.54955	0.01850
4877.62088	0.01854
4875.69220	0.01857
4873.76353	0.01859
4871.83485	0.01861
4869.90617	0.01867
4867.97750	0.01872
4866.04882	0.01873
4864.12015	0.01873
4862.19147	0.01875
4860.26280	0.01879
4858.33412	0.01883
4856.40544	0.01886
4854.47677	0.01886
4852.54809	0.01888
4850.61942	0.01891
4848.69074	0.01896
4846.76207	0.01901
4844.83339	0.01906
4842.90471	0.01912
4840.97604	0.01915
4839.04736	0.01916
4837.11869	0.01918
4835.19001	0.01921
4833.26134	0.01924
4831.33266	0.01924
4829.40398	0.01926
4827.47531	0.01928
4825.54663	0.01933
4823.61796	0.01938
4821.68928	0.01941
4819.76061	0.01943
4817.83193	0.01947
4815.90325	0.01949
4813.97458	0.01950
4812.04590	0.01951
4810.11723	0.01954
4808.18855	0.01956
4806.25988	0.01959
4804.33120	0.01963
4802.40252	0.01969
4800.47385	0.01975
4798.54517	0.01978
4796.61650	0.01979
4794.68782	0.01979
4792.75915	0.01981
4790.83047	0.01986
4788.90179	0.01991
4786.97312	0.01995
4785.04444	0.01998
4783.11577	0.02000
4781.18709	0.02002
4779.25842	0.02004
4777.32974	0.02006
4775.40106	0.02009
4773.47239	0.02012
4771.54371	0.02016
4769.61504	0.02020
4767.68636	0.02024
4765.75769	0.02027
4763.82901	0.02030
4761.90033	0.02033
4759.97166	0.02034
4758.04298	0.02035
4756.11431	0.02039
4754.18563	0.02043
4752.25696	0.02048
4750.32828	0.02052
4748.39960	0.02054
4746.47093	0.02055
4744.54225	0.02057
4742.61358	0.02060
4740.68490	0.02064
4738.75623	0.02069
4736.82755	0.02074
4734.89887	0.02079
4732.97020	0.02083
4731.04152	0.02086
4729.11285	0.02088
4727.18417	0.02089
4725.25550	0.02091
4723.32682	0.02093
4721.39814	0.02097
4719.46947	0.02102
4717.54079	0.02107
4715.61212	0.02111
4713.68344	0.02113
4711.75477	0.02114
4709.82609	0.02117
4707.89741	0.02121
4705.96874	0.02125
4704.04006	0.02128
4702.11139	0.02132
4700.18271	0.02136
4698.25404	0.02140
4696.32536	0.02144
4694.39668	0.02147
4692.46801	0.02150
4690.53933	0.02153
4688.61066	0.02156
4686.68198	0.02160
4684.75331	0.02165
4682.82463	0.02169
4680.89595	0.02171
4678.96728	0.02174
4677.03860	0.02180
4675.10993	0.02186
4673.18125	0.02189
4671.25258	0.02190
4669.32390	0.02193
4667.39522	0.02195
4665.46655	0.02196
4663.53787	0.02198
4661.60920	0.02203
4659.68052	0.02208
4657.75185	0.02212
4655.82317	0.02215
4653.89449	0.02216
4651.96582	0.02218
4650.03714	0.02222
4648.10847	0.02225
4646.17979	0.02228
4644.25112	0.02231
4642.32244	0.02236
4640.39376	0.02242
4638.46509	0.02248
4636.53641	0.02251
4634.60774	0.02252
4632.67906	0.02255
4630.75039	0.02258
4628.82171	0.02262
4626.89303	0.02267
4624.96436	0.02273
4623.03568	0.02276
4621.10701	0.02278
4619.17833	0.02281
4617.24966	0.02287
4615.32098	0.02292
4613.39230	0.02294
4611.46363	0.02297
4609.53495	0.02303
4607.60628	0.02309
4605.67760	0.02312
4603.74893	0.02315
4601.82025	0.02318
4599.89157	0.02322
4597.96290	0.02327
4596.03422	0.02331
4594.10555	0.02335
4592.17687	0.02338
4590.24820	0.02342
4588.31952	0.02344
4586.39084	0.02347
4584.46217	0.02350
4582.53349	0.02354
4580.60482	0.02359
4578.67614	0.02364
4576.74747	0.02368
4574.81879	0.02374
4572.89011	0.02379
4570.96144	0.02382
4569.03276	0.02386
4567.10409	0.02389
4565.17541	0.02393
4563.24674	0.02397
4561.31806	0.02400
4559.38938	0.02402
4557.46071	0.02407
4555.53203	0.02413
4553.60336	0.02416
4551.67468	0.02419
4549.74601	0.02423
4547.81733	0.02427
4545.88865	0.02431
4543.95998	0.02434
4542.03130	0.02438
4540.10263	0.02441
4538.17395	0.02445
4536.24528	0.02451
4534.31660	0.02458
4532.38792	0.02463
4530.45925	0.02470
4528.53057	0.02476
4526.60190	0.02481
4524.67322	0.02484
4522.74455	0.02485
4520.81587	0.02487
4518.88719	0.02490
4516.95852	0.02496
4515.02984	0.02501
4513.10117	0.02505
4511.17249	0.02509
4509.24382	0.02513
4507.31514	0.02517
4505.38646	0.02520
4503.45779	0.02524
4501.52911	0.02530
4499.60044	0.02535
4497.67176	0.02539
4495.74309	0.02544
4493.81441	0.02547
4491.88573	0.02549
4489.95706	0.02553
4488.02838	0.02559
4486.09971	0.02566
4484.17103	0.02571
4482.24236	0.02575
4480.31368	0.02579
4478.38500	0.02582
4476.45633	0.02587
4474.52765	0.02593
4472.59898	0.02599
4470.67030	0.02603
4468.74163	0.02606
4466.81295	0.02609
4464.88427	0.02612
4462.95560	0.02617
4461.02692	0.02623
4459.09825	0.02628
4457.16957	0.02632
4455.24090	0.02639
4453.31222	0.02646
4451.38354	0.02650
4449.45487	0.02651
4447.52619	0.02653
4445.59752	0.02659
4443.66884	0.02666
4441.74017	0.02674
4439.81149	0.02680
4437.88281	0.02686
4435.95414	0.02690
4434.02546	0.02692
4432.09679	0.02695
4430.16811	0.02698
4428.23944	0.02703
4426.31076	0.02709
4424.38208	0.02716
4422.45341	0.02722
4420.52473	0.02728
4418.59606	0.02733
4416.66738	0.02738
4414.73871	0.02741
4412.81003	0.02745
4410.88135	0.02750
4408.95268	0.02754
4407.02400	0.02758
4405.09533	0.02764
4403.16665	0.02770
4401.23798	0.02776
4399.30930	0.02780
4397.38062	0.02785
4395.45195	0.02791
4393.52327	0.02797
4391.59460	0.02804
4389.66592	0.02810
4387.73725	0.02815
4385.80857	0.02818
4383.87989	0.02821
4381.95122	0.02826
4380.02254	0.02832
4378.09387	0.02839
4376.16519	0.02843
4374.23652	0.02847
4372.30784	0.02852
4370.37916	0.02858
4368.45049	0.02865
4366.52181	0.02873
4364.59314	0.02879
4362.66446	0.02882
4360.73579	0.02888
4358.80711	0.02896
4356.87843	0.02901
4354.94976	0.02903
4353.02108	0.02905
4351.09241	0.02909
4349.16373	0.02915
4347.23506	0.02921
4345.30638	0.02927
4343.37770	0.02935
4341.44903	0.02941
4339.52035	0.02944
4337.59168	0.02948
4335.66300	0.02955
4333.73433	0.02963
4331.80565	0.02970
4329.87697	0.02976
4327.94830	0.02983
4326.01962	0.02988
4324.09095	0.02992
4322.16227	0.02996
4320.23360	0.03000
4318.30492	0.03007
4316.37624	0.03015
4314.44757	0.03022
4312.51889	0.03027
4310.59022	0.03032
4308.66154	0.03037
4306.73287	0.03044
4304.80419	0.03050
4302.87551	0.03056
4300.94684	0.03062
4299.01816	0.03069
4297.08949	0.03076
4295.16081	0.03081
4293.23214	0.03086
4291.30346	0.03093
4289.37478	0.03101
4287.44611	0.03107
4285.51743	0.03113
4283.58876	0.03119
4281.66008	0.03124
4279.73141	0.03130
4277.80273	0.03136
4275.87405	0.03145
4273.94538	0.03153
4272.01670	0.03157
4270.08803	0.03161
4268.15935	0.03167
4266.23068	0.03174
4264.30200	0.03180
4262.37332	0.03188
4260.44465	0.03195
4258.51597	0.03201
4256.58730	0.03205
4254.65862	0.03210
4252.72995	0.03218
4250.80127	0.03225
4248.87259	0.03232
4246.94392	0.03239
4245.01524	0.03246
4243.08657	0.03252
4241.15789	0.03257
4239.22922	0.03261
4237.30054	0.03266
4235.37186	0.03273
4233.44319	0.03281
4231.51451	0.03288
4229.58584	0.03293
4227.65716	0.03297
4225.72849	0.03304
4223.79981	0.03313
4221.87113	0.03320
4219.94246	0.03326
4218.01378	0.03331
4216.08511	0.03338
4214.15643	0.03348
4212.22776	0.03357
4210.29908	0.03362
4208.37040	0.03366
4206.44173	0.03372
4204.51305	0.03380
4202.58438	0.03387
4200.65570	0.03392
4198.72703	0.03399
4196.79835	0.03408
4194.86968	0.03415
4192.94100	0.03419
4191.01232	0.03424
4189.08365	0.03431
4187.15497	0.03440
4185.22630	0.03448
4183.29762	0.03456
4181.36895	0.03462
4179.44027	0.03468
4177.51159	0.03475
4175.58292	0.03482
4173.65424	0.03489
4171.72557	0.03497
4169.79689	0.03507
4167.86822	0.03515
4165.93954	0.03520
4164.01086	0.03526
4162.08219	0.03532
4160.15351	0.03540
4158.22484	0.03548
4156.29616	0.03554
4154.36749	0.03561
4152.43881	0.03569
4150.51013	0.03577
4148.58146	0.03585
4146.65278	0.03591
4144.72411	0.03597
4142.79543	0.03604
4140.86676	0.03614
4138.93808	0.03624
4137.00940	0.03633
4135.08073	0.03641
4133.15205	0.03647
4131.22338	0.03653
4129.29470	0.03661
4127.36603	0.03668
4125.43735	0.03673
4123.50867	0.03680
4121.58000	0.03689
4119.65132	0.03696
4117.72265	0.03702
4115.79397	0.03709
4113.86530	0.03718
4111.93662	0.03725
4110.00794	0.03733
4108.07927	0.03740
4106.15059	0.03749
4104.22192	0.03759
4102.29324	0.03768
4100.36457	0.03776
4098.43589	0.03784
4096.50721	0.03793
4094.57854	0.03799
4092.64986	0.03804
4090.72119	0.03811
4088.79251	0.03820
4086.86384	0.03828
4084.93516	0.03836
4083.00648	0.03845
4081.07781	0.03855
4079.14913	0.03863
4077.22046	0.03870
4075.29178	0.03878
4073.36311	0.03887
4071.43443	0.03896
4069.50575	0.03904
4067.57708	0.03913
4065.64840	0.03922
4063.71973	0.03930
4061.79105	0.03937
4059.86238	0.03944
4057.93370	0.03953
4056.00502	0.03962
4054.07635	0.03970
4052.14767	0.03977
4050.21900	0.03984
4048.29032	0.03993
4046.36165	0.04001
4044.43297	0.04008
4042.50429	0.04018
4040.57562	0.04028
4038.64694	0.04036
4036.71827	0.04041
4034.78959	0.04048
4032.86092	0.04059
4030.93224	0.04071
4029.00356	0.04080
4027.07489	0.04088
4025.14621	0.04094
4023.21754	0.04098
4021.28886	0.04104
4019.36019	0.04113
4017.43151	0.04124
4015.50283	0.04135
4013.57416	0.04146
4011.64548	0.04154
4009.71681	0.04164
4007.78813	0.04175
4005.85946	0.04185
4003.93078	0.04193
4002.00210	0.04201
4000.07343	0.04208
3998.14475	0.04215
3996.21608	0.04226
3994.28740	0.04236
3992.35873	0.04243
3990.43005	0.04249
3988.50137	0.04259
3986.57270	0.04272
3984.64402	0.04282
3982.71535	0.04291
3980.78667	0.04302
3978.85800	0.04313
3976.92932	0.04320
3975.00064	0.04326
3973.07197	0.04334
3971.14329	0.04343
3969.21462	0.04350
3967.28594	0.04358
3965.35727	0.04369
3963.42859	0.04378
3961.49991	0.04387
3959.57124	0.04399
3957.64256	0.04414
3955.71389	0.04424
3953.78521	0.04431
3951.85654	0.04438
3949.92786	0.04444
3947.99918	0.04451
3946.07051	0.04461
3944.14183	0.04472
3942.21316	0.04482
3940.28448	0.04492
3938.35581	0.04500
3936.42713	0.04508
3934.49845	0.04517
3932.56978	0.04526
3930.64110	0.04537
3928.71243	0.04547
3926.78375	0.04555
3924.85508	0.04562
3922.92640	0.04572
3920.99772	0.04583
3919.06905	0.04592
3917.14037	0.04602
3915.21170	0.04616
3913.28302	0.04628
3911.35435	0.04638
3909.42567	0.04647
3907.49699	0.04652
3905.56832	0.04654
3903.63964	0.04659
3901.71097	0.04669
3899.78229	0.04685
3897.85362	0.04701
3895.92494	0.04713
3893.99626	0.04721
3892.06759	0.04728
3890.13891	0.04737
3888.21024	0.04746
3886.28156	0.04753
3884.35289	0.04764
3882.42421	0.04777
3880.49553	0.04789
3878.56686	0.04802
3876.63818	0.04814
3874.70951	0.04824
3872.78083	0.04832
3870.85216	0.04838
3868.92348	0.04847
3866.99480	0.04859
3865.06613	0.04869
3863.13745	0.04879
3861.20878	0.04892
3859.28010	0.04903
3857.35143	0.04905
3855.42275	0.04896
3853.49407	0.04896
3851.56540	0.04918
3849.63672	0.04947
3847.70805	0.04968
3845.77937	0.04980
3843.85070	0.04988
3841.92202	0.04992
3839.99334	0.04993
3838.06467	0.04995
3836.13599	0.05010
3834.20732	0.05031
3832.27864	0.05050
3830.34997	0.05066
3828.42129	0.05079
3826.49261	0.05087
3824.56394	0.05092
3822.63526	0.05096
3820.70659	0.05104
3818.77791	0.05114
3816.84924	0.05122
3814.92056	0.05137
3812.99188	0.05160
3811.06321	0.05175
3809.13453	0.05178
3807.20586	0.05183
3805.27718	0.05197
3803.34851	0.05208
3801.41983	0.05215
3799.49115	0.05226
3797.56248	0.05240
3795.63380	0.05256
3793.70513	0.05272
3791.77645	0.05286
3789.84778	0.05298
3787.91910	0.05310
3785.99042	0.05321
3784.06175	0.05331
3782.13307	0.05341
3780.20440	0.05351
3778.27572	0.05361
3776.34705	0.05375
3774.41837	0.05389
3772.48969	0.05397
3770.56102	0.05402
3768.63234	0.05411
3766.70367	0.05423
3764.77499	0.05437
3762.84632	0.05450
3760.91764	0.05459
3758.98896	0.05467
3757.06029	0.05479
3755.13161	0.05486
3753.20294	0.05484
3751.27426	0.05485
3749.34559	0.05498
3747.41691	0.05510
3745.48823	0.05515
3743.55956	0.05531
3741.63088	0.05562
3739.70221	0.05580
3737.77353	0.05579
3735.84486	0.05580
3733.91618	0.05594
3731.98750	0.05617
3730.05883	0.05641
3728.13015	0.05656
3726.20148	0.05661
3724.27280	0.05669
3722.34413	0.05683
3720.41545	0.05697
3718.48677	0.05708
3716.55810	0.05717
3714.62942	0.05721
3712.70075	0.05722
3710.77207	0.05727
3708.84340	0.05742
3706.91472	0.05760
3704.98604	0.05771
3703.05737	0.05774
3701.12869	0.05780
3699.20002	0.05790
3697.27134	0.05800
3695.34267	0.05806
3693.41399	0.05806
3691.48531	0.05799
3689.55664	0.05797
3687.62796	0.05806
3685.69929	0.05822
3683.77061	0.05834
3681.84194	0.05837
3679.91326	0.05832
3677.98458	0.05820
3676.05591	0.05811
3674.12723	0.05818
3672.19856	0.05830
3670.26988	0.05837
3668.34121	0.05848
3666.41253	0.05863
3664.48385	0.05872
3662.55518	0.05877
3660.62650	0.05879
3658.69783	0.05876
3656.76915	0.05871
3654.84048	0.05872
3652.91180	0.05870
3650.98312	0.05857
3649.05445	0.05849
3647.12577	0.05861
3645.19710	0.05884
3643.26842	0.05904
3641.33975	0.05915
3639.41107	0.05923
3637.48239	0.05933
3635.55372	0.05940
3633.62504	0.05942
3631.69637	0.05936
3629.76769	0.05931
3627.83902	0.05940
3625.91034	0.05961
3623.98166	0.05974
3622.05299	0.05974
3620.12431	0.05973
3618.19564	0.05981
3616.26696	0.05991
3614.33829	0.05998
3612.40961	0.06004
3610.48093	0.06011
3608.55226	0.06018
3606.62358	0.06026
3604.69491	0.06036
3602.76623	0.06043
3600.83756	0.06050
3598.90888	0.06059
3596.98020	0.06068
3595.05153	0.06077
3593.12285	0.06085
3591.19418	0.06086
3589.26550	0.06081
3587.33683	0.06085
3585.40815	0.06100
3583.47947	0.06117
3581.55080	0.06128
3579.62212	0.06138
3577.69345	0.06145
3575.76477	0.06151
3573.83610	0.06156
3571.90742	0.06162
3569.97874	0.06166
3568.05007	0.06167
3566.12139	0.06175
3564.19272	0.06187
3562.26404	0.06198
3560.33537	0.06209
3558.40669	0.06220
3556.47801	0.06228
3554.54934	0.06233
3552.62066	0.06238
3550.69199	0.06245
3548.76331	0.06251
3546.83464	0.06254
3544.90596	0.06260
3542.97728	0.06268
3541.04861	0.06276
3539.11993	0.06281
3537.19126	0.06286
3535.26258	0.06294
3533.33391	0.06301
3531.40523	0.06307
3529.47655	0.06310
3527.54788	0.06313
3525.61920	0.06319
3523.69053	0.06327
3521.76185	0.06332
3519.83318	0.06333
3517.90450	0.06333
3515.97582	0.06337
3514.04715	0.06343
3512.11847	0.06349
3510.18980	0.06352
3508.26112	0.06354
3506.33245	0.06355
3504.40377	0.06357
3502.47509	0.06360
3500.54642	0.06364
3498.61774	0.06368
3496.68907	0.06371
3494.76039	0.06376
3492.83172	0.06381
3490.90304	0.06386
3488.97436	0.06387
3487.04569	0.06390
3485.11701	0.06396
3483.18834	0.06399
3481.25966	0.06401
3479.33099	0.06404
3477.40231	0.06411
3475.47363	0.06420
3473.54496	0.06428
3471.61628	0.06436
3469.68761	0.06448
3467.75893	0.06462
3465.83026	0.06474
3463.90158	0.06484
3461.97290	0.06495
3460.04423	0.06506
3458.11555	0.06518
3456.18688	0.06528
3454.25820	0.06538
3452.32953	0.06548
3450.40085	0.06558
3448.47217	0.06567
3446.54350	0.06578
3444.61482	0.06592
3442.68615	0.06606
3440.75747	0.06619
3438.82880	0.06633
3436.90012	0.06650
3434.97144	0.06671
3433.04277	0.06696
3431.11409	0.06720
3429.18542	0.06742
3427.25674	0.06766
3425.32807	0.06791
3423.39939	0.06813
3421.47071	0.06833
3419.54204	0.06850
3417.61336	0.06867
3415.68469	0.06887
3413.75601	0.06909
3411.82734	0.06930
3409.89866	0.06948
3407.96998	0.06962
3406.04131	0.06972
3404.11263	0.06984
3402.18396	0.07000
3400.25528	0.07019
3398.32661	0.07038
3396.39793	0.07054
3394.46925	0.07070
3392.54058	0.07089
3390.61190	0.07108
3388.68323	0.07125
3386.75455	0.07141
3384.82588	0.07158
3382.89720	0.07175
3380.96852	0.07193
3379.03985	0.07210
3377.11117	0.07226
3375.18250	0.07241
3373.25382	0.07255
3371.32515	0.07269
3369.39647	0.07286
3367.46779	0.07305
3365.53912	0.07321
3363.61044	0.07334
3361.68177	0.07350
3359.75309	0.07367
3357.82442	0.07385
3355.89574	0.07401
3353.96706	0.07418
3352.03839	0.07436
3350.10971	0.07456
3348.18104	0.07472
3346.25236	0.07485
3344.32369	0.07501
3342.39501	0.07520
3340.46633	0.07539
3338.53766	0.07556
3336.60898	0.07572
3334.68031	0.07592
3332.75163	0.07613
3330.82296	0.07633
3328.89428	0.07652
3326.96560	0.07670
3325.03693	0.07683
3323.10825	0.07698
3321.17958	0.07715
3319.25090	0.07733
3317.32223	0.07749
3315.39355	0.07766
3313.46487	0.07785
3311.53620	0.07802
3309.60752	0.07821
3307.67885	0.07840
3305.75017	0.07859
3303.82150	0.07877
3301.89282	0.07895
3299.96414	0.07916
3298.03547	0.07937
3296.10679	0.07956
3294.17812	0.07975
3292.24944	0.07993
3290.32077	0.08009
3288.39209	0.08026
3286.46341	0.08047
3284.53474	0.08067
3282.60606	0.08087
3280.67739	0.08105
3278.74871	0.08123
3276.82004	0.08143
3274.89136	0.08162
3272.96268	0.08180
3271.03401	0.08200
3269.10533	0.08222
3267.17666	0.08245
3265.24798	0.08267
3263.31931	0.08287
3261.39063	0.08307
3259.46195	0.08326
3257.53328	0.08343
3255.60460	0.08361
3253.67593	0.08380
3251.74725	0.08399
3249.81858	0.08419
3247.88990	0.08440
3245.96122	0.08460
3244.03255	0.08481
3242.10387	0.08505
3240.17520	0.08528
3238.24652	0.08547
3236.31785	0.08563
3234.38917	0.08583
3232.46049	0.08606
3230.53182	0.08625
3228.60314	0.08640
3226.67447	0.08659
3224.74579	0.08681
3222.81712	0.08703
3220.88844	0.08725
3218.95976	0.08746
3217.03109	0.08767
3215.10241	0.08784
3213.17374	0.08801
3211.24506	0.08824
3209.31639	0.08848
3207.38771	0.08870
3205.45903	0.08891
3203.53036	0.08910
3201.60168	0.08930
3199.67301	0.08950
3197.74433	0.08974
3195.81566	0.08999
3193.88698	0.09023
3191.95830	0.09043
3190.02963	0.09062
3188.10095	0.09083
3186.17228	0.09105
3184.24360	0.09128
3182.31493	0.09153
3180.38625	0.09179
3178.45757	0.09201
3176.52890	0.09220
3174.60022	0.09239
3172.67155	0.09261
3170.74287	0.09281
3168.81420	0.09301
3166.88552	0.09324
3164.95684	0.09346
3163.02817	0.09365
3161.09949	0.09383
3159.17082	0.09404
3157.24214	0.09428
3155.31347	0.09450
3153.38479	0.09471
3151.45611	0.09491
3149.52744	0.09512
3147.59876	0.09533
3145.67009	0.09555
3143.74141	0.09580
3141.81274	0.09604
3139.88406	0.09623
3137.95538	0.09643
3136.02671	0.09665
3134.09803	0.09688
3132.16936	0.09712
3130.24068	0.09734
3128.31201	0.09754
3126.38333	0.09775
3124.45465	0.09798
3122.52598	0.09820
3120.59730	0.09841
3118.66863	0.09858
3116.73995	0.09874
3114.81128	0.09893
3112.88260	0.09916
3110.95392	0.09939
3109.02525	0.09961
3107.09657	0.09982
3105.16790	0.10004
3103.23922	0.10028
3101.31055	0.10052
3099.38187	0.10072
3097.45319	0.10091
3095.52452	0.10112
3093.59584	0.10137
3091.66717	0.10160
3089.73849	0.10179
3087.80982	0.10196
3085.88114	0.10216
3083.95246	0.10238
3082.02379	0.10259
3080.09511	0.10279
3078.16644	0.10302
3076.23776	0.10327
3074.30909	0.10351
3072.38041	0.10373
3070.45173	0.10394
3068.52306	0.10415
3066.59438	0.10438
3064.66571	0.10459
3062.73703	0.10480
3060.80836	0.10501
3058.87968	0.10520
3056.95100	0.10538
3055.02233	0.10556
3053.09365	0.10578
3051.16498	0.10601
3049.23630	0.10622
3047.30763	0.10642
3045.37895	0.10661
3043.45027	0.10677
3041.52160	0.10693
3039.59292	0.10712
3037.66425	0.10735
3035.73557	0.10762
3033.80690	0.10784
3031.87822	0.10800
3029.94954	0.10815
3028.02087	0.10835
3026.09219	0.10859
3024.16352	0.10880
3022.23484	0.10898
3020.30617	0.10914
3018.37749	0.10931
3016.44881	0.10946
3014.52014	0.10961
3012.59146	0.10977
3010.66279	0.10992
3008.73411	0.11008
3006.80544	0.11025
3004.87676	0.11045
3002.94808	0.11062
3001.01941	0.11074
2999.09073	0.11085
2997.16206	0.11100
2995.23338	0.11116
2993.30471	0.11129
2991.37603	0.11139
2989.44735	0.11149
2987.51868	0.11159
2985.59000	0.11166
2983.66133	0.11171
2981.73265	0.11176
2979.80398	0.11179
2977.87530	0.11180
2975.94662	0.11179
2974.01795	0.11178
2972.08927	0.11178
2970.16060	0.11176
2968.23192	0.11173
2966.30325	0.11177
2964.37457	0.11194
2962.44589	0.11216
2960.51722	0.11238
2958.58854	0.11262
2956.65987	0.11291
2954.73119	0.11324
2952.80252	0.11357
2950.87384	0.11388
2948.94516	0.11410
2947.01649	0.11427
2945.08781	0.11440
2943.15914	0.11451
2941.23046	0.11458
2939.30179	0.11464
2937.37311	0.11470
2935.44443	0.11473
2933.51576	0.11475
2931.58708	0.11476
2929.65841	0.11477
2927.72973	0.11479
2925.80106	0.11482
2923.87238	0.11486
2921.94370	0.11493
2920.01503	0.11507
2918.08635	0.11531
2916.15768	0.11571
2914.22900	0.11627
2912.30033	0.11691
2910.37165	0.11751
2908.44297	0.11802
2906.51430	0.11844
2904.58562	0.11879
2902.65695	0.11912
2900.72827	0.11945
2898.79960	0.11978
2896.87092	0.12009
2894.94224	0.12037
2893.01357	0.12064
2891.08489	0.12092
2889.15622	0.12122
2887.22754	0.12151
2885.29887	0.12178
2883.37019	0.12205
2881.44151	0.12230
2879.51284	0.12254
2877.58416	0.12277
2875.65549	0.12304
2873.72681	0.12332
2871.79814	0.12360
2869.86946	0.12390
2867.94078	0.12417
2866.01211	0.12439
2864.08343	0.12457
2862.15476	0.12476
2860.22608	0.12493
2858.29741	0.12504
2856.36873	0.12510
2854.44005	0.12513
2852.51138	0.12518
2850.58270	0.12536
2848.65403	0.12578
2846.72535	0.12638
2844.79668	0.12703
2842.86800	0.12764
2840.93932	0.12816
2839.01065	0.12857
2837.08197	0.12893
2835.15330	0.12929
2833.22462	0.12965
2831.29595	0.12998
2829.36727	0.13025
2827.43859	0.13050
2825.50992	0.13076
2823.58124	0.13102
2821.65257	0.13128
2819.72389	0.13154
2817.79522	0.13181
2815.86654	0.13205
2813.93786	0.13227
2812.00919	0.13250
2810.08051	0.13271
2808.15184	0.13292
2806.22316	0.13315
2804.29449	0.13342
2802.36581	0.13368
2800.43713	0.13393
2798.50846	0.13416
2796.57978	0.13438
2794.65111	0.13460
2792.72243	0.13483
2790.79376	0.13510
2788.86508	0.13538
2786.93640	0.13562
2785.00773	0.13584
2783.07905	0.13607
2781.15038	0.13628
2779.22170	0.13648
2777.29303	0.13672
2775.36435	0.13698
2773.43567	0.13722
2771.50700	0.13741
2769.57832	0.13759
2767.64965	0.13782
2765.72097	0.13806
2763.79230	0.13828
2761.86362	0.13847
2759.93494	0.13865
2758.00627	0.13885
2756.07759	0.13907
2754.14892	0.13929
2752.22024	0.13950
2750.29157	0.13971
2748.36289	0.13992
2746.43421	0.14016
2744.50554	0.14040
2742.57686	0.14061
2740.64819	0.14078
2738.71951	0.14098
2736.79084	0.14121
2734.86216	0.14145
2732.93348	0.14167
2731.00481	0.14185
2729.07613	0.14203
2727.14746	0.14223
2725.21878	0.14245
2723.29011	0.14266
2721.36143	0.14285
2719.43275	0.14305
2717.50408	0.14326
2715.57540	0.14347
2713.64673	0.14371
2711.71805	0.14395
2709.78938	0.14416
2707.86070	0.14436
2705.93202	0.14455
2704.00335	0.14475
2702.07467	0.14496
2700.14600	0.14518
2698.21732	0.14541
2696.28865	0.14562
2694.35997	0.14576
2692.43129	0.14590
2690.50262	0.14609
2688.57394	0.14633
2686.64527	0.14656
2684.71659	0.14674
2682.78792	0.14692
2680.85924	0.14713
2678.93056	0.14734
2677.00189	0.14754
2675.07321	0.14775
2673.14454	0.14795
2671.21586	0.14815
2669.28719	0.14837
2667.35851	0.14857
2665.42983	0.14875
2663.50116	0.14894
2661.57248	0.14916
2659.64381	0.14941
2657.71513	0.14965
2655.78646	0.14987
2653.85778	0.15005
2651.92910	0.15024
2650.00043	0.15044
2648.07175	0.15064
2646.14308	0.15084
2644.21440	0.15106
2642.28573	0.15131
2640.35705	0.15156
2638.42837	0.15177
2636.49970	0.15198
2634.57102	0.15220
2632.64235	0.15239
2630.71367	0.15259
2628.78500	0.15280
2626.85632	0.15300
2624.92764	0.15322
2622.99897	0.15345
2621.07029	0.15371
2619.14162	0.15394
2617.21294	0.15416
2615.28427	0.15437
2613.35559	0.15458
2611.42691	0.15477
2609.49824	0.15497
2607.56956	0.15517
2605.64089	0.15535
2603.71221	0.15551
2601.78354	0.15572
2599.85486	0.15596
2597.92618	0.15616
2595.99751	0.15634
2594.06883	0.15656
2592.14016	0.15681
2590.21148	0.15709
2588.28281	0.15734
2586.35413	0.15753
2584.42545	0.15770
2582.49678	0.15788
2580.56810	0.15806
2578.63943	0.15826
2576.71075	0.15844
2574.78208	0.15862
2572.85340	0.15882
2570.92472	0.15905
2568.99605	0.15927
2567.06737	0.15947
2565.13870	0.15966
2563.21002	0.15984
2561.28135	0.16001
2559.35267	0.16018
2557.42399	0.16038
2555.49532	0.16058
2553.56664	0.16077
2551.63797	0.16099
2549.70929	0.16122
2547.78062	0.16144
2545.85194	0.16166
2543.92326	0.16186
2541.99459	0.16202
2540.06591	0.16220
2538.13724	0.16243
2536.20856	0.16264
2534.27989	0.16280
2532.35121	0.16293
2530.42253	0.16309
2528.49386	0.16333
2526.56518	0.16360
2524.63651	0.16383
2522.70783	0.16401
2520.77916	0.16421
2518.85048	0.16445
2516.92181	0.16468
2514.99313	0.16488
2513.06445	0.16509
2511.13578	0.16533
2509.20710	0.16557
2507.27843	0.16579
2505.34975	0.16596
2503.42108	0.16612
2501.49240	0.16631
2499.56372	0.16656
2497.63505	0.16684
2495.70637	0.16708
2493.77770	0.16726
2491.84902	0.16742
2489.92035	0.16759
2487.99167	0.16781
2486.06299	0.16805
2484.13432	0.16827
2482.20564	0.16847
2480.27697	0.16867
2478.34829	0.16890
2476.41962	0.16914
2474.49094	0.16938
2472.56226	0.16961
2470.63359	0.16981
2468.70491	0.17000
2466.77624	0.17018
2464.84756	0.17040
2462.91889	0.17062
2460.99021	0.17079
2459.06153	0.17097
2457.13286	0.17120
2455.20418	0.17145
2453.27551	0.17167
2451.34683	0.17186
2449.41816	0.17205
2447.48948	0.17227
2445.56080	0.17253
2443.63213	0.17276
2441.70345	0.17296
2439.77478	0.17313
2437.84610	0.17328
2435.91743	0.17346
2433.98875	0.17369
2432.06007	0.17394
2430.13140	0.17414
2428.20272	0.17429
2426.27405	0.17444
2424.34537	0.17463
2422.41670	0.17483
2420.48802	0.17502
2418.55934	0.17521
2416.63067	0.17543
2414.70199	0.17565
2412.77332	0.17584
2410.84464	0.17603
2408.91597	0.17623
2406.98729	0.17643
2405.05861	0.17663
2403.12994	0.17683
2401.20126	0.17703
2399.27259	0.17723
2397.34391	0.17743
2395.41524	0.17762
2393.48656	0.17780
2391.55788	0.17801
2389.62921	0.17822
2387.70053	0.17842
2385.77186	0.17857
2383.84318	0.17865
2381.91451	0.17869
2379.98583	0.17875
2378.05715	0.17883
2376.12848	0.17890
2374.19980	0.17893
2372.27113	0.17894
2370.34245	0.17896
2368.41378	0.17902
2366.48510	0.17909
2364.55642	0.17917
2362.62775	0.17929
2360.69907	0.17946
2358.77040	0.17968
2356.84172	0.17994
2354.91305	0.18027
2352.98437	0.18067
2351.05569	0.18108
2349.12702	0.18133
2347.19834	0.18137
2345.26967	0.18133
2343.34099	0.18130
2341.41232	0.18129
2339.48364	0.18135
2337.55496	0.18153
2335.62629	0.18179
2333.69761	0.18201
2331.76894	0.18219
2329.84026	0.18239
2327.91159	0.18259
2325.98291	0.18277
2324.05423	0.18298
2322.12556	0.18320
2320.19688	0.18341
2318.26821	0.18362
2316.33953	0.18383
2314.41086	0.18402
2312.48218	0.18417
2310.55350	0.18431
2308.62483	0.18445
2306.69615	0.18462
2304.76748	0.18481
2302.83880	0.18495
2300.91013	0.18505
2298.98145	0.18515
2297.05277	0.18527
2295.12410	0.18540
2293.19542	0.18549
2291.26675	0.18557
2289.33807	0.18567
2287.40940	0.18580
2285.48072	0.18591
2283.55204	0.18597
2281.62337	0.18604
2279.69469	0.18613
2277.76602	0.18625
2275.83734	0.18633
2273.90867	0.18637
2271.97999	0.18643
2270.05131	0.18651
2268.12264	0.18662
2266.19396	0.18672
2264.26529	0.18679
2262.33661	0.18688
2260.40794	0.18702
2258.47926	0.18724
2256.55058	0.18744
2254.62191	0.18756
2252.69323	0.18766
2250.76456	0.18780
2248.83588	0.18801
2246.90721	0.18828
2244.97853	0.18854
2243.04985	0.18875
2241.12118	0.18897
2239.19250	0.18925
2237.26383	0.18956
2235.33515	0.18984
2233.40648	0.19012
2231.47780	0.19043
2229.54912	0.19077
2227.62045	0.19108
2225.69177	0.19135
2223.76310	0.19161
2221.83442	0.19189
2219.90575	0.19220
2217.97707	0.19253
2216.04839	0.19283
2214.11972	0.19303
2212.19104	0.19320
2210.26237	0.19343
2208.33369	0.19373
2206.40502	0.19403
2204.47634	0.19429
2202.54766	0.19450
2200.61899	0.19468
2198.69031	0.19490
2196.76164	0.19514
2194.83296	0.19534
2192.90429	0.19555
2190.97561	0.19577
2189.04693	0.19597
2187.11826	0.19618
2185.18958	0.19641
2183.26091	0.19663
2181.33223	0.19682
2179.40356	0.19700
2177.47488	0.19720
2175.54620	0.19743
2173.61753	0.19766
2171.68885	0.19790
2169.76018	0.19813
2167.83150	0.19834
2165.90283	0.19856
2163.97415	0.19881
2162.04547	0.19905
2160.11680	0.19925
2158.18812	0.19942
2156.25945	0.19958
2154.33077	0.19977
2152.40210	0.20001
2150.47342	0.20026
2148.54474	0.20047
2146.61607	0.20064
2144.68739	0.20082
2142.75872	0.20101
2140.83004	0.20120
2138.90137	0.20135
2136.97269	0.20150
2135.04401	0.20166
2133.11534	0.20182
2131.18666	0.20198
2129.25799	0.20214
2127.32931	0.20231
2125.40064	0.20248
2123.47196	0.20268
2121.54328	0.20287
2119.61461	0.20304
2117.68593	0.20319
2115.75726	0.20336
2113.82858	0.20354
2111.89991	0.20375
2109.97123	0.20397
2108.04255	0.20416
2106.11388	0.20433
2104.18520	0.20451
2102.25653	0.20473
2100.32785	0.20494
2098.39918	0.20510
2096.47050	0.20523
2094.54182	0.20534
2092.61315	0.20551
2090.68447	0.20572
2088.75580	0.20592
2086.82712	0.20608
2084.89845	0.20621
2082.96977	0.20632
2081.04109	0.20642
2079.11242	0.20656
2077.18374	0.20675
2075.25507	0.20693
2073.32639	0.20710
2071.39772	0.20725
2069.46904	0.20739
2067.54036	0.20754
2065.61169	0.20770
2063.68301	0.20790
2061.75434	0.20808
2059.82566	0.20822
2057.89699	0.20835
2055.96831	0.20852
2054.03963	0.20869
2052.11096	0.20886
2050.18228	0.20900
2048.25361	0.20911
2046.32493	0.20925
2044.39626	0.20944
2042.46758	0.20961
2040.53890	0.20975
2038.61023	0.20988
2036.68155	0.21001
2034.75288	0.21019
2032.82420	0.21037
2030.89553	0.21053
2028.96685	0.21066
2027.03817	0.21080
2025.10950	0.21093
2023.18082	0.21104
2021.25215	0.21116
2019.32347	0.21125
2017.39480	0.21136
2015.46612	0.21153
2013.53744	0.21174
2011.60877	0.21193
2009.68009	0.21206
2007.75142	0.21216
2005.82274	0.21230
2003.89407	0.21247
2001.96539	0.21260
2000.03671	0.21272
1998.10804	0.21284
1996.17936	0.21297
1994.25069	0.21309
1992.32201	0.21319
1990.39334	0.21332
1988.46466	0.21347
1986.53598	0.21357
1984.60731	0.21366
1982.67863	0.21382
1980.74996	0.21402
1978.82128	0.21417
1976.89261	0.21423
1974.96393	0.21426
1973.03525	0.21433
1971.10658	0.21445
1969.17790	0.21456
1967.24923	0.21462
1965.32055	0.21468
1963.39188	0.21477
1961.46320	0.21487
1959.53452	0.21497
1957.60585	0.21508
1955.67717	0.21522
1953.74850	0.21538
1951.81982	0.21555
1949.89115	0.21571
1947.96247	0.21583
1946.03379	0.21587
1944.10512	0.21590
1942.17644	0.21604
1940.24777	0.21628
1938.31909	0.21652
1936.39042	0.21670
1934.46174	0.21679
1932.53306	0.21686
1930.60439	0.21696
1928.67571	0.21710
1926.74704	0.21724
1924.81836	0.21734
1922.88969	0.21741
1920.96101	0.21747
1919.03233	0.21754
1917.10366	0.21767
1915.17498	0.21788
1913.24631	0.21806
1911.31763	0.21818
1909.38896	0.21829
1907.46028	0.21840
1905.53160	0.21853
1903.60293	0.21867
1901.67425	0.21880
1899.74558	0.21889
1897.81690	0.21897
1895.88823	0.21904
1893.95955	0.21913
1892.03087	0.21917
1890.10220	0.21918
1888.17352	0.21931
1886.24485	0.21954
1884.31617	0.21976
1882.38750	0.21991
1880.45882	0.22002
1878.53014	0.22014
1876.60147	0.22031
1874.67279	0.22045
1872.74412	0.22049
1870.81544	0.22042
1868.88677	0.22041
1866.95809	0.22059
1865.02941	0.22084
1863.10074	0.22101
1861.17206	0.22111
1859.24339	0.22124
1857.31471	0.22140
1855.38604	0.22156
1853.45736	0.22169
1851.52868	0.22179
1849.60001	0.22185
1847.67133	0.22184
1845.74266	0.22176
1843.81398	0.22185
1841.88531	0.22220
1839.95663	0.22252
1838.02795	0.22267
1836.09928	0.22275
1834.17060	0.22279
1832.24193	0.22276
1830.31325	0.22279
1828.38458	0.22298
1826.45590	0.22316
1824.52722	0.22325
1822.59855	0.22336
1820.66987	0.22350
1818.74120	0.22359
1816.81252	0.22368
1814.88385	0.22379
1812.95517	0.22389
1811.02649	0.22397
1809.09782	0.22406
1807.16914	0.22419
1805.24047	0.22426
1803.31179	0.22424
1801.38312	0.22421
1799.45444	0.22433
1797.52576	0.22453
1795.59709	0.22461
1793.66841	0.22449
1791.73974	0.22438
1789.81106	0.22451
1787.88239	0.22473
1785.95371	0.22489
1784.02503	0.22496
1782.09636	0.22495
1780.16768	0.22496
1778.23901	0.22501
1776.31033	0.22497
1774.38166	0.22474
1772.45298	0.22452
1770.52430	0.22451
1768.59563	0.22467
1766.66695	0.22490
1764.73828	0.22505
1762.80960	0.22503
1760.88093	0.22496
1758.95225	0.22488
1757.02357	0.22481
1755.09490	0.22474
1753.16622	0.22442
1751.23755	0.22395
1749.30887	0.22374
1747.38020	0.22379
1745.45152	0.22379
1743.52284	0.22362
1741.59417	0.22335
1739.66549	0.22318
1737.73682	0.22306
1735.80814	0.22267
1733.87947	0.22230
1731.95079	0.22239
1730.02211	0.22267
1728.09344	0.22281
1726.16476	0.22284
1724.23609	0.22283
1722.30741	0.22271
1720.37874	0.22230
1718.45006	0.22179
1716.52138	0.22170
1714.59271	0.22213
1712.66403	0.22263
1710.73536	0.22293
1708.80668	0.22291
1706.87801	0.22277
1704.94933	0.22275
1703.02065	0.22267
1701.09198	0.22248
1699.16330	0.22250
1697.23463	0.22267
1695.30595	0.22291
1693.37728	0.22328
1691.44860	0.22351
1689.51992	0.22353
1687.59125	0.22337
1685.66257	0.22297
1683.73390	0.22281
1681.80522	0.22319
1679.87655	0.22362
1677.94787	0.22362
1676.01919	0.22341
1674.09052	0.22340
1672.16184	0.22350
1670.23317	0.22346
1668.30449	0.22353
1666.37582	0.22373
1664.44714	0.22377
1662.51846	0.22372
1660.58979	0.22375
1658.66111	0.22376
1656.73244	0.22336
1654.80376	0.22242
1652.87509	0.22182
1650.94641	0.22217
1649.01773	0.22256
1647.08906	0.22250
1645.16038	0.22262
1643.23171	0.22297
1641.30303	0.22310
1639.37436	0.22290
1637.44568	0.22258
1635.51700	0.22246
1633.58833	0.22262
1631.65965	0.22278
1629.73098	0.22275
1627.80230	0.22258
1625.87363	0.22224
1623.94495	0.22180
1622.01627	0.22143
1620.08760	0.22125
1618.15892	0.22142
1616.23025	0.22212
1614.30157	0.22299
1612.37290	0.22357
1610.44422	0.22389
1608.51554	0.22418
1606.58687	0.22452
1604.65819	0.22484
1602.72952	0.22512
1600.80084	0.22537
1598.87217	0.22557
1596.94349	0.22569
1595.01481	0.22585
1593.08614	0.22606
1591.15746	0.22625
1589.22879	0.22638
1587.30011	0.22649
1585.37144	0.22662
1583.44276	0.22677
1581.51408	0.22690
1579.58541	0.22683
1577.65673	0.22653
1575.72806	0.22649
1573.79938	0.22686
1571.87071	0.22710
1569.94203	0.22710
1568.01335	0.22718
1566.08468	0.22732
1564.15600	0.22738
1562.22733	0.22717
1560.29865	0.22666
1558.36998	0.22649
1556.44130	0.22698
1554.51262	0.22760
1552.58395	0.22795
1550.65527	0.22806
1548.72660	0.22804
1546.79792	0.22789
1544.86925	0.22755
1542.94057	0.22714
1541.01189	0.22701
1539.08322	0.22737
1537.15454	0.22790
1535.22587	0.22808
1533.29719	0.22806
1531.36852	0.22818
1529.43984	0.22828
1527.51116	0.22820
1525.58249	0.22802
1523.65381	0.22770
1521.72514	0.22746
1519.79646	0.22754
1517.86779	0.22772
1515.93911	0.22780
1514.01043	0.22782
1512.08176	0.22779
1510.15308	0.22755
1508.22441	0.22717
1506.29573	0.22715
1504.36706	0.22760
1502.43838	0.22790
1500.50970	0.22771
1498.58103	0.22727
1496.65235	0.22698
1494.72368	0.22700
1492.79500	0.22694
1490.86633	0.22657
1488.93765	0.22626
1487.00897	0.22619
1485.08030	0.22612
1483.15162	0.22586
1481.22295	0.22546
1479.29427	0.22495
1477.36560	0.22424
1475.43692	0.22332
1473.50824	0.22252
1471.57957	0.22208
1469.65089	0.22178
1467.72222	0.22126
1465.79354	0.22067
1463.86487	0.22035
1461.93619	0.22013
1460.00751	0.21958
1458.07884	0.21892
1456.15016	0.21879
1454.22149	0.21922
1452.29281	0.21958
1450.36414	0.21958
1448.43546	0.21944
1446.50678	0.21941
1444.57811	0.21951
1442.64943	0.21958
1440.72076	0.21953
1438.79208	0.21931
1436.86341	0.21912
1434.93473	0.21916
1433.00605	0.21926
1431.07738	0.21919
1429.14870	0.21902
1427.22003	0.21881
1425.29135	0.21854
1423.36268	0.21820
1421.43400	0.21772
1419.50532	0.21727
1417.57665	0.21717
1415.64797	0.21719
1413.71930	0.21703
1411.79062	0.21685
1409.86195	0.21680
1407.93327	0.21678
1406.00459	0.21668
1404.07592	0.21664
1402.14724	0.21670
1400.21857	0.21668
1398.28989	0.21658
1396.36122	0.21645
1394.43254	0.21633
1392.50386	0.21622
1390.57519	0.21597
1388.64651	0.21548
1386.71784	0.21495
1384.78916	0.21463
1382.86049	0.21450
1380.93181	0.21443
1379.00313	0.21429
1377.07446	0.21403
1375.14578	0.21366
1373.21711	0.21340
1371.28843	0.21330
1369.35976	0.21317
1367.43108	0.21293
1365.50240	0.21257
1363.57373	0.21219
1361.64505	0.21201
1359.71638	0.21204
1357.78770	0.21209
1355.85903	0.21213
1353.93035	0.21223
1352.00167	0.21236
1350.07300	0.21247
1348.14432	0.21250
1346.21565	0.21247
1344.28697	0.21240
1342.35830	0.21225
1340.42962	0.21194
1338.50094	0.21160
1336.57227	0.21134
1334.64359	0.21114
1332.71492	0.21093
1330.78624	0.21063
1328.85757	0.21017
1326.92889	0.20972
1325.00021	0.20932
1323.07154	0.20890
1321.14286	0.20844
1319.21419	0.20797
1317.28551	0.20749
1315.35684	0.20696
1313.42816	0.20638
1311.49948	0.20578
1309.57081	0.20518
1307.64213	0.20460
1305.71346	0.20405
1303.78478	0.20345
1301.85611	0.20281
1299.92743	0.20219
1297.99875	0.20159
1296.07008	0.20095
1294.14140	0.20024
1292.21273	0.19942
1290.28405	0.19839
1288.35538	0.19710
1286.42670	0.19560
1284.49802	0.19387
1282.56935	0.19194
1280.64067	0.19000
1278.71200	0.18832
1276.78332	0.18714
1274.85465	0.18658
1272.92597	0.18654
1270.99729	0.18672
1269.06862	0.18679
1267.13994	0.18658
1265.21127	0.18623
1263.28259	0.18607
1261.35392	0.18621
1259.42524	0.18649
1257.49656	0.18676
1255.56789	0.18685
1253.63921	0.18659
1251.71054	0.18605
1249.78186	0.18533
1247.85319	0.18449
1245.92451	0.18355
1243.99583	0.18253
1242.06716	0.18142
1240.13848	0.18024
1238.20981	0.17899
1236.28113	0.17764
1234.35246	0.17617
1232.42378	0.17459
1230.49510	0.17299
1228.56643	0.17146
1226.63775	0.16995
1224.70908	0.16834
1222.78040	0.16668
1220.85173	0.16507
1218.92305	0.16350
1216.99437	0.16184
1215.06570	0.16004
1213.13702	0.15820
1211.20835	0.15637
1209.27967	0.15462
1207.35100	0.15290
1205.42232	0.15118
1203.49364	0.14946
1201.56497	0.14773
1199.63629	0.14599
1197.70762	0.14426
1195.77894	0.14259
1193.85027	0.14097
1191.92159	0.13934
1189.99291	0.13766
1188.06424	0.13601
1186.13556	0.13445
1184.20689	0.13292
1182.27821	0.13135
1180.34954	0.12970
1178.42086	0.12802
1176.49218	0.12638
1174.56351	0.12478
1172.63483	0.12323
1170.70616	0.12172
1168.77748	0.12024
1166.84881	0.11876
1164.92013	0.11728
1162.99145	0.11581
1161.06278	0.11438
1159.13410	0.11301
1157.20543	0.11167
1155.27675	0.11034
1153.34808	0.10906
1151.41940	0.10787
1149.49072	0.10665
1147.56205	0.10535
1145.63337	0.10404
1143.70470	0.10273
1141.77602	0.10145
1139.84735	0.10021
1137.91867	0.09896
1135.98999	0.09758
1134.06132	0.09603
1132.13264	0.09440
1130.20397	0.09268
1128.27529	0.09083
1126.34662	0.08884
1124.41794	0.08681
1122.48926	0.08481
1120.56059	0.08285
1118.63191	0.08099
1116.70324	0.07925
1114.77456	0.07758
1112.84589	0.07604
1110.91721	0.07468
1108.98853	0.07351
1107.05986	0.07249
1105.13118	0.07158
1103.20251	0.07081
1101.27383	0.07022
1099.34516	0.06977
1097.41648	0.06941
1095.48780	0.06909
1093.55913	0.06873
1091.63045	0.06832
1089.70178	0.06787
1087.77310	0.06733
1085.84443	0.06667
1083.91575	0.06595
1081.98707	0.06517
1080.05840	0.06430
1078.12972	0.06337
1076.20105	0.06245
1074.27237	0.06152
1072.34370	0.06059
1070.41502	0.05974
1068.48634	0.05898
1066.55767	0.05822
1064.62899	0.05748
1062.70032	0.05675
1060.77164	0.05607
1058.84297	0.05551
1056.91429	0.05510
1054.98561	0.05476
1053.05694	0.05447
1051.12826	0.05423
1049.19959	0.05410
1047.27091	0.05412
1045.34224	0.05429
1043.41356	0.05459
1041.48488	0.05497
1039.55621	0.05537
1037.62753	0.05578
1035.69886	0.05629
1033.77018	0.05697
1031.84151	0.05781
1029.91283	0.05872
1027.98415	0.05968
1026.05548	0.06075
1024.12680	0.06201
1022.19813	0.06347
1020.26945	0.06504
1018.34078	0.06668
1016.41210	0.06843
1014.48342	0.07037
1012.55475	0.07256
1010.62607	0.07490
1008.69740	0.07735
1006.76872	0.07993
1004.84005	0.08259
1002.91137	0.08534
1000.98269	0.08819
999.05402	0.09107
997.12534	0.09396
995.19667	0.09686
993.26799	0.09978
991.33932	0.10268
989.41064	0.10552
987.48196	0.10832
985.55329	0.11104
983.62461	0.11361
981.69594	0.11602
979.76726	0.11833
977.83859	0.12048
975.90991	0.12239
973.98123	0.12403
972.05256	0.12551
970.12388	0.12689
968.19521	0.12812
966.26653	0.12913
964.33786	0.12998
962.40918	0.13077
960.48050	0.13150
958.55183	0.13208
956.62315	0.13248
954.69448	0.13282
952.76580	0.13306
950.83713	0.13311
948.90845	0.13304
946.97977	0.13296
945.05110	0.13281
943.12242	0.13255
941.19375	0.13219
939.26507	0.13180
937.33640	0.13137
935.40772	0.13085
933.47904	0.13024
931.55037	0.12962
929.62169	0.12905
927.69302	0.12851
925.76434	0.12796
923.83567	0.12732
921.90699	0.12660
919.97831	0.12583
918.04964	0.12499
916.12096	0.12407
914.19229	0.12303
912.26361	0.12191
910.33494	0.12079
908.40626	0.11974
906.47758	0.11878
904.54891	0.11774
902.62023	0.11659
900.69156	0.11542
898.76288	0.11427
896.83421	0.11322
894.90553	0.11228
892.97685	0.11137
891.04818	0.11047
889.11950	0.10970
887.19083	0.10909
885.26215	0.10861
883.33348	0.10822
881.40480	0.10798
879.47612	0.10793
877.54745	0.10797
875.61877	0.10813
873.69010	0.10850
871.76142	0.10901
869.83275	0.10952
867.90407	0.10991
865.97539	0.11020
864.04672	0.11043
862.11804	0.11059
860.18937	0.11061
858.26069	0.11049
856.33202	0.11025
854.40334	0.10992
852.47466	0.10952
850.54599	0.10907
848.61731	0.10854
846.68864	0.10796
844.75996	0.10734
842.83129	0.10670
840.90261	0.10603
838.97394	0.10537
837.04526	0.10468
835.11658	0.10386
833.18791	0.10284
831.25923	0.10170
829.33056	0.10056
827.40188	0.09945
825.47321	0.09830
823.54453	0.09715
821.61585	0.09612
819.68718	0.09536
817.75850	0.09483
815.82983	0.09431
813.90115	0.09372
811.97248	0.09325
810.04380	0.09295
808.11512	0.09273
806.18645	0.09252
804.25777	0.09234
802.32910	0.09224
800.40042	0.09209
798.47175	0.09180
796.54307	0.09149
794.61439	0.09132
792.68572	0.09131
790.75704	0.09141
788.82837	0.09155
786.89969	0.09171
784.97102	0.09194
783.04234	0.09219
781.11366	0.09234
779.18499	0.09244
777.25631	0.09257
775.32764	0.09271
773.39896	0.09284
771.47029	0.09297
769.54161	0.09308
767.61293	0.09319
765.68426	0.09332
763.75558	0.09335
761.82691	0.09321
759.89823	0.09304
757.96956	0.09287
756.04088	0.09263
754.11220	0.09234
752.18353	0.09203
750.25485	0.09167
748.32618	0.09124
746.39750	0.09075
744.46883	0.09022
742.54015	0.08965
740.61147	0.08912
738.68280	0.08882
736.75412	0.08879
734.82545	0.08892
732.89677	0.08909
730.96810	0.08927
729.03942	0.08947
727.11074	0.08973
725.18207	0.09001
723.25339	0.09024
721.32472	0.09045
719.39604	0.09068
717.46737	0.09100
715.53869	0.09142
713.61001	0.09192
711.68134	0.09241
709.75266	0.09276
707.82399	0.09291
705.89531	0.09288
703.96664	0.09269
702.03796	0.09243
700.10928	0.09216
698.18061	0.09180
696.25193	0.09133
694.32326	0.09080
692.39458	0.09030
690.46591	0.08978
688.53723	0.08920
686.60855	0.08864
684.67988	0.08813
682.75120	0.08765
680.82253	0.08722
678.89385	0.08679
676.96518	0.08624
675.03650	0.08555
673.10782	0.08477
671.17915	0.08395
669.25047	0.08314
667.32180	0.08242
665.39312	0.08178
663.46445	0.08105
661.53577	0.08017
659.60709	0.07927
657.67842	0.07850
655.74974	0.07778
653.82107	0.07700
651.89239	0.07618
649.96372	0.07538
648.03504	0.07454
646.10636	0.07363
644.17769	0.07269
642.24901	0.07172
640.32034	0.07068
638.39166	0.06961
636.46299	0.06862
634.53431	0.06765
632.60563	0.06630
630.67696	0.06402
628.74828	0.06069
626.81961	0.05653
624.89093	0.05225
622.96226	0.04883
621.03358	0.04671
619.10490	0.04560
617.17623	0.04489
615.24755	0.04402
613.31888	0.04290
611.39020	0.04186
609.46153	0.04136
607.53285	0.04154
605.60417	0.04202
603.67550	0.04244
601.74682	0.04294
599.81815	0.04372
597.88947	0.04452
595.96080	0.04508
594.03212	0.04548
592.10344	0.04580
590.17477	0.04601
588.24609	0.04601
586.31742	0.04578
584.38874	0.04547
582.46007	0.04519
580.53139	0.04486
578.60271	0.04446
576.67404	0.04400
574.74536	0.04348
572.81669	0.04287
570.88801	0.04223
568.95934	0.04158
567.03066	0.04100
565.10198	0.04054
563.17331	0.04027
561.24463	0.04016
559.31596	0.04007
557.38728	0.03986
555.45861	0.03958
553.52993	0.03933
551.60125	0.03914
549.67258	0.03905
547.74390	0.03897
545.81523	0.03875
543.88655	0.03842
541.95788	0.03815
540.02920	0.03803
538.10052	0.03792
536.17185	0.03772
534.24317	0.03742
532.31450	0.03710
530.38582	0.03681
528.45715	0.03653
526.52847	0.03623
524.59979	0.03581
522.67112	0.03529
520.74244	0.03475
518.81377	0.03417
516.88509	0.03357
514.95642	0.03309
513.02774	0.03270
511.09906	0.03232
509.17039	0.03199
507.24171	0.03175
505.31304	0.03156
503.38436	0.03128
501.45569	0.03081
499.52701	0.03012
497.59833	0.02936
495.66966	0.02875
493.74098	0.02831
491.81231	0.02779
489.88363	0.02702
487.95496	0.02616
486.02628	0.02542
484.09760	0.02489
482.16893	0.02442
480.24025	0.02380
478.31158	0.02302
476.38290	0.02228
474.45423	0.02169
472.52555	0.02117
470.59687	0.02063
468.66820	0.02010
466.73952	0.01965
464.81085	0.01934
462.88217	0.01916
460.95350	0.01902
459.02482	0.01884
457.09614	0.01865
455.16747	0.01852
453.23879	0.01844
451.31012	0.01838
449.38144	0.01823
447.45277	0.01798
445.52409	0.01772
443.59541	0.01754
441.66674	0.01740
439.73806	0.01721
437.80939	0.01699
435.88071	0.01670
433.95204	0.01627
432.02336	0.01577
430.09468	0.01531
428.16601	0.01482
426.23733	0.01427
424.30866	0.01375
422.37998	0.01327
420.45131	0.01276
418.52263	0.01229
416.59395	0.01190
414.66528	0.01152
412.73660	0.01110
410.80793	0.01061
408.87925	0.01004
406.95058	0.00949
405.02190	0.00904
403.09322	0.00854
401.16455	0.00797
399.23587	0.00753
397.30720	0.00724
395.37852	0.00693
393.44985	0.00653
391.52117	0.00603
389.59249	0.00555
387.66382	0.00519
385.73514	0.00493
383.80647	0.00464
381.87779	0.00429
379.94912	0.00393
378.02044	0.00363
376.09176	0.00344
374.16309	0.00329
372.23441	0.00304
370.30574	0.00269
368.37706	0.00235
