7496.76250	0.00148
7494.83382	0.00150
7492.90514	0.00150
7490.97647	0.00150
7489.04779	0.00151
7487.11912	0.00153
7485.19044	0.00155
7483.26177	0.00156
7481.33309	0.00156
7479.40441	0.00154
7477.47574	0.00152
7475.54706	0.00152
7473.61839	0.00153
7471.68971	0.00154
7469.76104	0.00156
7467.83236	0.00156
7465.90368	0.00155
7463.97501	0.00154
7462.04633	0.00154
7460.11766	0.00153
7458.18898	0.00153
7456.26031	0.00155
7454.33163	0.00157
7452.40295	0.00158
7450.47428	0.00158
7448.54560	0.00159
7446.61693	0.00158
7444.68825	0.00159
7442.75958	0.00160
7440.83090	0.00162
7438.90222	0.00162
7436.97355	0.00161
7435.04487	0.00161
7433.11620	0.00163
7431.18752	0.00163
7429.25885	0.00162
7427.33017	0.00163
7425.40149	0.00165
7423.47282	0.00166
7421.54414	0.00165
7419.61547	0.00165
7417.68679	0.00166
7415.75812	0.00166
7413.82944	0.00166
7411.90076	0.00166
7409.97209	0.00167
7408.04341	0.00166
7406.11474	0.00166
7404.18606	0.00166
7402.25739	0.00167
7400.32871	0.00168
7398.40003	0.00170
7396.47136	0.00173
7394.54268	0.00174
7392.61401	0.00175
7390.68533	0.00175
7388.75666	0.00176
7386.82798	0.00176
7384.89930	0.00175
7382.97063	0.00175
7381.04195	0.00174
7379.11328	0.00174
7377.18460	0.00175
7375.25593	0.00176
7373.32725	0.00176
7371.39857	0.00176
7369.46990	0.00177
7367.54122	0.00179
7365.61255	0.00179
7363.68387	0.00180
7361.75520	0.00180
7359.82652	0.00180
7357.89784	0.00180
7355.96917	0.00181
7354.04049	0.00182
7352.11182	0.00183
7350.18314	0.00183
7348.25447	0.00182
7346.32579	0.00181
7344.39711	0.00181
7342.46844	0.00182
7340.53976	0.00182
7338.61109	0.00184
7336.68241	0.00185
7334.75374	0.00187
7332.82506	0.00188
7330.89638	0.00187
7328.96771	0.00187
7327.03903	0.00186
7325.11036	0.00186
7323.18168	0.00187
7321.25301	0.00189
7319.32433	0.00191
7317.39565	0.00193
7315.46698	0.00193
7313.53830	0.00192
7311.60963	0.00191
7309.68095	0.00192
7307.75228	0.00193
7305.82360	0.00193
7303.89492	0.00194
7301.96625	0.00195
7300.03757	0.00196
7298.10890	0.00196
7296.18022	0.00196
7294.25155	0.00196
7292.32287	0.00198
7290.39419	0.00200
7288.46552	0.00200
7286.53684	0.00201
7284.60817	0.00202
7282.67949	0.00202
7280.75082	0.00202
7278.82214	0.00200
7276.89346	0.00200
7274.96479	0.00200
7273.03611	0.00200
7271.10744	0.00201
7269.17876	0.00201
7267.25009	0.00201
7265.32141	0.00201
7263.39273	0.00202
7261.46406	0.00205
7259.53538	0.00207
7257.60671	0.00208
7255.67803	0.00206
7253.74936	0.00205
7251.82068	0.00206
7249.89200	0.00208
7247.96333	0.00208
7246.03465	0.00208
7244.10598	0.00208
7242.17730	0.00208
7240.24863	0.00209
7238.31995	0.00210
7236.39127	0.00211
7234.46260	0.00211
7232.53392	0.00210
7230.60525	0.00210
7228.67657	0.00211
7226.74790	0.00212
7224.81922	0.00213
7222.89054	0.00215
7220.96187	0.00217
7219.03319	0.00217
7217.10452	0.00216
7215.17584	0.00215
7213.24717	0.00214
7211.31849	0.00214
7209.38981	0.00215
7207.46114	0.00216
7205.53246	0.00217
7203.60379	0.00217
7201.67511	0.00218
7199.74644	0.00219
7197.81776	0.00219
7195.88908	0.00219
7193.96041	0.00220
7192.03173	0.00221
7190.10306	0.00221
7188.17438	0.00220
7186.24571	0.00221
7184.31703	0.00222
7182.38835	0.00223
7180.45968	0.00224
7178.53100	0.00225
7176.60233	0.00227
7174.67365	0.00229
7172.74498	0.00231
7170.81630	0.00231
7168.88762	0.00231
7166.95895	0.00232
7165.03027	0.00232
7163.10160	0.00231
7161.17292	0.00232
7159.24425	0.00233
7157.31557	0.00233
7155.38689	0.00232
7153.45822	0.00233
7151.52954	0.00234
7149.60087	0.00234
7147.67219	0.00234
7145.74352	0.00234
7143.81484	0.00236
7141.88616	0.00238
7139.95749	0.00238
7138.02881	0.00238
7136.10014	0.00238
7134.17146	0.00236
7132.24279	0.00236
7130.31411	0.00238
7128.38543	0.00239
7126.45676	0.00240
7124.52808	0.00240
7122.59941	0.00241
7120.67073	0.00242
7118.74206	0.00241
7116.81338	0.00240
7114.88470	0.00240
7112.95603	0.00241
7111.02735	0.00242
7109.09868	0.00244
7107.17000	0.00246
7105.24133	0.00248
7103.31265	0.00248
7101.38397	0.00248
7099.45530	0.00249
7097.52662	0.00250
7095.59795	0.00250
7093.66927	0.00251
7091.74060	0.00253
7089.81192	0.00253
7087.88324	0.00252
7085.95457	0.00252
7084.02589	0.00252
7082.09722	0.00252
7080.16854	0.00254
7078.23987	0.00256
7076.31119	0.00257
7074.38251	0.00256
7072.45384	0.00256
7070.52516	0.00256
7068.59649	0.00257
7066.66781	0.00258
7064.73914	0.00259
7062.81046	0.00259
7060.88178	0.00260
7058.95311	0.00260
7057.02443	0.00260
7055.09576	0.00260
7053.16708	0.00260
7051.23841	0.00260
7049.30973	0.00261
7047.38105	0.00263
7045.45238	0.00263
7043.52370	0.00263
7041.59503	0.00264
7039.66635	0.00265
7037.73768	0.00265
7035.80900	0.00265
7033.88032	0.00265
7031.95165	0.00264
7030.02297	0.00265
7028.09430	0.00267
7026.16562	0.00269
7024.23695	0.00271
7022.30827	0.00272
7020.37959	0.00271
7018.45092	0.00271
7016.52224	0.00271
7014.59357	0.00272
7012.66489	0.00271
7010.73622	0.00272
7008.80754	0.00274
7006.87886	0.00276
7004.95019	0.00277
7003.02151	0.00277
7001.09284	0.00277
6999.16416	0.00278
6997.23549	0.00279
6995.30681	0.00280
6993.37813	0.00281
6991.44946	0.00282
6989.52078	0.00282
6987.59211	0.00282
6985.66343	0.00282
6983.73476	0.00283
6981.80608	0.00284
6979.87740	0.00284
6977.94873	0.00285
6976.02005	0.00285
6974.09138	0.00286
6972.16270	0.00287
6970.23403	0.00287
6968.30535	0.00288
6966.37667	0.00288
6964.44800	0.00288
6962.51932	0.00289
6960.59065	0.00289
6958.66197	0.00289
6956.73330	0.00290
6954.80462	0.00293
6952.87594	0.00296
6950.94727	0.00297
6949.01859	0.00296
6947.08992	0.00293
6945.16124	0.00293
6943.23257	0.00295
6941.30389	0.00296
6939.37521	0.00296
6937.44654	0.00298
6935.51786	0.00299
6933.58919	0.00298
6931.66051	0.00297
6929.73184	0.00297
6927.80316	0.00297
6925.87448	0.00298
6923.94581	0.00301
6922.01713	0.00303
6920.08846	0.00304
6918.15978	0.00306
6916.23111	0.00306
6914.30243	0.00304
6912.37375	0.00301
6910.44508	0.00302
6908.51640	0.00304
6906.58773	0.00306
6904.65905	0.00308
6902.73038	0.00310
6900.80170	0.00311
6898.87302	0.00311
6896.94435	0.00310
6895.01567	0.00309
6893.08700	0.00309
6891.15832	0.00310
6889.22965	0.00313
6887.30097	0.00314
6885.37229	0.00315
6883.44362	0.00315
6881.51494	0.00317
6879.58627	0.00320
6877.65759	0.00321
6875.72892	0.00320
6873.80024	0.00319
6871.87156	0.00318
6869.94289	0.00317
6868.01421	0.00318
6866.08554	0.00319
6864.15686	0.00319
6862.22819	0.00319
6860.29951	0.00320
6858.37083	0.00321
6856.44216	0.00322
6854.51348	0.00323
6852.58481	0.00325
6850.65613	0.00325
6848.72746	0.00326
6846.79878	0.00326
6844.87010	0.00326
6842.94143	0.00327
6841.01275	0.00328
6839.08408	0.00328
6837.15540	0.00329
6835.22673	0.00330
6833.29805	0.00330
6831.36937	0.00330
6829.44070	0.00329
6827.51202	0.00330
6825.58335	0.00331
6823.65467	0.00333
6821.72600	0.00334
6819.79732	0.00335
6817.86864	0.00336
6815.93997	0.00337
6814.01129	0.00338
6812.08262	0.00338
6810.15394	0.00337
6808.22527	0.00338
6806.29659	0.00340
6804.36791	0.00342
6802.43924	0.00343
6800.51056	0.00343
6798.58189	0.00342
6796.65321	0.00344
6794.72454	0.00347
6792.79586	0.00349
6790.86718	0.00348
6788.93851	0.00347
6787.00983	0.00349
6785.08116	0.00351
6783.15248	0.00352
6781.22381	0.00351
6779.29513	0.00350
6777.36645	0.00351
6775.43778	0.00352
6773.50910	0.00351
6771.58043	0.00352
6769.65175	0.00355
6767.72308	0.00357
6765.79440	0.00357
6763.86572	0.00357
6761.93705	0.00356
6760.00837	0.00355
6758.07970	0.00356
6756.15102	0.00358
6754.22235	0.00360
6752.29367	0.00360
6750.36499	0.00360
6748.43632	0.00361
6746.50764	0.00361
6744.57897	0.00362
6742.65029	0.00362
6740.72162	0.00363
6738.79294	0.00363
6736.86426	0.00364
6734.93559	0.00365
6733.00691	0.00367
6731.07824	0.00368
6729.14956	0.00369
6727.22089	0.00370
6725.29221	0.00370
6723.36353	0.00371
6721.43486	0.00371
6719.50618	0.00371
6717.57751	0.00371
6715.64883	0.00372
6713.72016	0.00374
6711.79148	0.00375
6709.86280	0.00377
6707.93413	0.00378
6706.00545	0.00378
6704.07678	0.00377
6702.14810	0.00376
6700.21943	0.00378
6698.29075	0.00381
6696.36207	0.00383
6694.43340	0.00383
6692.50472	0.00382
6690.57605	0.00381
6688.64737	0.00382
6686.71870	0.00384
6684.79002	0.00385
6682.86134	0.00386
6680.93267	0.00385
6679.00399	0.00385
6677.07532	0.00387
6675.14664	0.00388
6673.21797	0.00390
6671.28929	0.00392
6669.36061	0.00393
6667.43194	0.00392
6665.50326	0.00391
6663.57459	0.00393
6661.64591	0.00395
6659.71724	0.00396
6657.78856	0.00395
6655.85988	0.00396
6653.93121	0.00397
6652.00253	0.00398
6650.07386	0.00397
6648.14518	0.00398
6646.21651	0.00400
6644.28783	0.00400
6642.35915	0.00401
6640.43048	0.00402
6638.50180	0.00403
6636.57313	0.00404
6634.64445	0.00406
6632.71578	0.00406
6630.78710	0.00404
6628.85842	0.00404
6626.92975	0.00406
6625.00107	0.00409
6623.07240	0.00411
6621.14372	0.00410
6619.21505	0.00409
6617.28637	0.00408
6615.35769	0.00410
6613.42902	0.00412
6611.50034	0.00412
6609.57167	0.00413
6607.64299	0.00415
6605.71432	0.00417
6603.78564	0.00418
6601.85696	0.00418
6599.92829	0.00418
6597.99961	0.00419
6596.07094	0.00419
6594.14226	0.00420
6592.21359	0.00420
6590.28491	0.00420
6588.35623	0.00420
6586.42756	0.00421
6584.49888	0.00424
6582.57021	0.00425
6580.64153	0.00426
6578.71286	0.00426
6576.78418	0.00426
6574.85550	0.00426
6572.92683	0.00427
6570.99815	0.00429
6569.06948	0.00430
6567.14080	0.00432
6565.21213	0.00433
6563.28345	0.00433
6561.35477	0.00433
6559.42610	0.00433
6557.49742	0.00434
6555.56875	0.00435
6553.64007	0.00436
6551.71140	0.00438
6549.78272	0.00440
6547.85404	0.00441
6545.92537	0.00440
6543.99669	0.00440
6542.06802	0.00441
6540.13934	0.00441
6538.21067	0.00441
6536.28199	0.00442
6534.35331	0.00445
6532.42464	0.00447
6530.49596	0.00448
6528.56729	0.00448
6526.63861	0.00448
6524.70994	0.00450
6522.78126	0.00452
6520.85258	0.00454
6518.92391	0.00453
6516.99523	0.00453
6515.06656	0.00454
6513.13788	0.00455
6511.20921	0.00455
6509.28053	0.00456
6507.35185	0.00457
6505.42318	0.00458
6503.49450	0.00460
6501.56583	0.00462
6499.63715	0.00461
6497.70848	0.00460
6495.77980	0.00460
6493.85112	0.00461
6491.92245	0.00462
6489.99377	0.00463
6488.06510	0.00464
6486.13642	0.00465
6484.20775	0.00466
6482.27907	0.00468
6480.35039	0.00470
6478.42172	0.00472
6476.49304	0.00471
6474.56437	0.00470
6472.63569	0.00471
6470.70702	0.00474
6468.77834	0.00477
6466.84966	0.00480
6464.92099	0.00480
6462.99231	0.00478
6461.06364	0.00477
6459.13496	0.00478
6457.20629	0.00480
6455.27761	0.00482
6453.34893	0.00482
6451.42026	0.00482
6449.49158	0.00482
6447.56291	0.00484
6445.63423	0.00485
6443.70556	0.00486
6441.77688	0.00487
6439.84820	0.00488
6437.91953	0.00489
6435.99085	0.00489
6434.06218	0.00490
6432.13350	0.00491
6430.20483	0.00493
6428.27615	0.00493
6426.34747	0.00493
6424.41880	0.00495
6422.49012	0.00497
6420.56145	0.00500
6418.63277	0.00502
6416.70410	0.00502
6414.77542	0.00503
6412.84674	0.00504
6410.91807	0.00504
6408.98939	0.00503
6407.06072	0.00501
6405.13204	0.00502
6403.20337	0.00505
6401.27469	0.00508
6399.34601	0.00509
6397.41734	0.00509
6395.48866	0.00509
6393.55999	0.00510
6391.63131	0.00511
6389.70264	0.00512
6387.77396	0.00514
6385.84528	0.00515
6383.91661	0.00515
6381.98793	0.00517
6380.05926	0.00517
6378.13058	0.00517
6376.20191	0.00516
6374.27323	0.00518
6372.34455	0.00520
6370.41588	0.00519
6368.48720	0.00518
6366.55853	0.00520
6364.62985	0.00522
6362.70118	0.00524
6360.77250	0.00527
6358.84382	0.00528
6356.91515	0.00528
6354.98647	0.00527
6353.05780	0.00527
6351.12912	0.00529
6349.20045	0.00533
6347.27177	0.00536
6345.34309	0.00538
6343.41442	0.00540
6341.48574	0.00539
6339.55707	0.00538
6337.62839	0.00538
6335.69972	0.00538
6333.77104	0.00537
6331.84236	0.00537
6329.91369	0.00539
6327.98501	0.00541
6326.05634	0.00544
6324.12766	0.00546
6322.19899	0.00547
6320.27031	0.00550
6318.34163	0.00551
6316.41296	0.00552
6314.48428	0.00551
6312.55561	0.00551
6310.62693	0.00553
6308.69826	0.00555
6306.76958	0.00555
6304.84090	0.00555
6302.91223	0.00555
6300.98355	0.00556
6299.05488	0.00558
6297.12620	0.00559
6295.19753	0.00559
6293.26885	0.00560
6291.34017	0.00561
6289.41150	0.00563
6287.48282	0.00564
6285.55415	0.00566
6283.62547	0.00567
6281.69680	0.00568
6279.76812	0.00568
6277.83944	0.00568
6275.91077	0.00568
6273.98209	0.00568
6272.05342	0.00571
6270.12474	0.00573
6268.19607	0.00574
6266.26739	0.00575
6264.33871	0.00577
6262.41004	0.00580
6260.48136	0.00581
6258.55269	0.00579
6256.62401	0.00579
6254.69534	0.00580
6252.76666	0.00582
6250.83798	0.00585
6248.90931	0.00587
6246.98063	0.00588
6245.05196	0.00587
6243.12328	0.00585
6241.19461	0.00586
6239.26593	0.00586
6237.33725	0.00588
6235.40858	0.00589
6233.47990	0.00590
6231.55123	0.00591
6229.62255	0.00594
6227.69388	0.00597
6225.76520	0.00598
6223.83652	0.00599
6221.90785	0.00599
6219.97917	0.00600
6218.05050	0.00601
6216.12182	0.00600
6214.19315	0.00599
6212.26447	0.00601
6210.33579	0.00604
6208.40712	0.00607
6206.47844	0.00608
6204.54977	0.00609
6202.62109	0.00609
6200.69242	0.00611
6198.76374	0.00612
6196.83506	0.00613
6194.90639	0.00614
6192.97771	0.00614
6191.04904	0.00613
6189.12036	0.00613
6187.19169	0.00615
6185.26301	0.00616
6183.33433	0.00618
6181.40566	0.00621
6179.47698	0.00623
6177.54831	0.00623
6175.61963	0.00622
6173.69096	0.00623
6171.76228	0.00626
6169.83360	0.00628
6167.90493	0.00628
6165.97625	0.00627
6164.04758	0.00627
6162.11890	0.00629
6160.19023	0.00630
6158.26155	0.00633
6156.33287	0.00636
6154.40420	0.00638
6152.47552	0.00640
6150.54685	0.00641
6148.61817	0.00642
6146.68950	0.00644
6144.76082	0.00646
6142.83214	0.00647
6140.90347	0.00646
6138.97479	0.00645
6137.04612	0.00646
6135.11744	0.00647
6133.18877	0.00648
6131.26009	0.00649
6129.33141	0.00650
6127.40274	0.00652
6125.47406	0.00653
6123.54539	0.00656
6121.61671	0.00659
6119.68804	0.00659
6117.75936	0.00659
6115.83068	0.00660
6113.90201	0.00662
6111.97333	0.00664
6110.04466	0.00665
6108.11598	0.00665
6106.18731	0.00666
6104.25863	0.00668
6102.32995	0.00671
6100.40128	0.00671
6098.47260	0.00670
6096.54393	0.00669
6094.61525	0.00669
6092.68658	0.00671
6090.75790	0.00673
6088.82922	0.00674
6086.90055	0.00676
6084.97187	0.00678
6083.04320	0.00680
6081.11452	0.00683
6079.18585	0.00684
6077.25717	0.00684
6075.32849	0.00685
6073.39982	0.00686
6071.47114	0.00687
6069.54247	0.00687
6067.61379	0.00687
6065.68512	0.00688
6063.75644	0.00691
6061.82776	0.00693
6059.89909	0.00695
6057.97041	0.00695
6056.04174	0.00695
6054.11306	0.00698
6052.18439	0.00702
6050.25571	0.00703
6048.32703	0.00702
6046.39836	0.00703
6044.46968	0.00705
6042.54101	0.00705
6040.61233	0.00705
6038.68366	0.00705
6036.75498	0.00707
6034.82630	0.00710
6032.89763	0.00712
6030.96895	0.00712
6029.04028	0.00714
6027.11160	0.00716
6025.18293	0.00717
6023.25425	0.00719
6021.32557	0.00722
6019.39690	0.00724
6017.46822	0.00724
6015.53955	0.00724
6013.61087	0.00724
6011.68220	0.00725
6009.75352	0.00727
6007.82484	0.00727
6005.89617	0.00727
6003.96749	0.00728
6002.03882	0.00731
6000.11014	0.00734
5998.18147	0.00737
5996.25279	0.00738
5994.32411	0.00737
5992.39544	0.00737
5990.46676	0.00738
5988.53809	0.00741
5986.60941	0.00743
5984.68074	0.00743
5982.75206	0.00744
5980.82338	0.00747
5978.89471	0.00748
5976.96603	0.00747
5975.03736	0.00748
5973.10868	0.00751
5971.18001	0.00754
5969.25133	0.00756
5967.32265	0.00757
5965.39398	0.00759
5963.46530	0.00761
5961.53663	0.00763
5959.60795	0.00763
5957.67928	0.00762
5955.75060	0.00762
5953.82192	0.00762
5951.89325	0.00763
5949.96457	0.00765
5948.03590	0.00766
5946.10722	0.00769
5944.17855	0.00772
5942.24987	0.00774
5940.32119	0.00775
5938.39252	0.00776
5936.46384	0.00778
5934.53517	0.00780
5932.60649	0.00782
5930.67782	0.00784
5928.74914	0.00786
5926.82046	0.00786
5924.89179	0.00786
5922.96311	0.00786
5921.03444	0.00786
5919.10576	0.00787
5917.17709	0.00788
5915.24841	0.00790
5913.31973	0.00792
5911.39106	0.00795
5909.46238	0.00798
5907.53371	0.00800
5905.60503	0.00801
5903.67636	0.00800
5901.74768	0.00800
5899.81900	0.00802
5897.89033	0.00804
5895.96165	0.00805
5894.03298	0.00805
5892.10430	0.00806
5890.17563	0.00809
5888.24695	0.00811
5886.31827	0.00812
5884.38960	0.00813
5882.46092	0.00814
5880.53225	0.00816
5878.60357	0.00818
5876.67490	0.00820
5874.74622	0.00821
5872.81755	0.00822
5870.88887	0.00824
5868.96019	0.00825
5867.03152	0.00827
5865.10284	0.00828
5863.17417	0.00829
5861.24549	0.00830
5859.31682	0.00832
5857.38814	0.00835
5855.45946	0.00837
5853.53079	0.00838
5851.60211	0.00838
5849.67344	0.00839
5847.74476	0.00840
5845.81609	0.00842
5843.88741	0.00845
5841.95873	0.00845
5840.03006	0.00844
5838.10138	0.00845
5836.17271	0.00847
5834.24403	0.00848
5832.31536	0.00849
5830.38668	0.00851
5828.45800	0.00854
5826.52933	0.00858
5824.60065	0.00861
5822.67198	0.00863
5820.74330	0.00864
5818.81463	0.00864
5816.88595	0.00864
5814.95727	0.00864
5813.02860	0.00865
5811.09992	0.00866
5809.17125	0.00867
5807.24257	0.00868
5805.31390	0.00870
5803.38522	0.00871
5801.45654	0.00873
5799.52787	0.00876
5797.59919	0.00878
5795.67052	0.00880
5793.74184	0.00882
5791.81317	0.00884
5789.88449	0.00886
5787.95581	0.00888
5786.02714	0.00889
5784.09846	0.00890
5782.16979	0.00892
5780.24111	0.00895
5778.31244	0.00897
5776.38376	0.00896
5774.45508	0.00895
5772.52641	0.00895
5770.59773	0.00898
5768.66906	0.00901
5766.74038	0.00902
5764.81171	0.00902
5762.88303	0.00903
5760.95435	0.00904
5759.02568	0.00907
5757.09700	0.00909
5755.16833	0.00911
5753.23965	0.00911
5751.31098	0.00913
5749.38230	0.00914
5747.45362	0.00916
5745.52495	0.00918
5743.59627	0.00921
5741.66760	0.00924
5739.73892	0.00925
5737.81025	0.00925
5735.88157	0.00924
5733.95289	0.00925
5732.02422	0.00930
5730.09554	0.00934
5728.16687	0.00935
5726.23819	0.00935
5724.30952	0.00936
5722.38084	0.00938
5720.45216	0.00940
5718.52349	0.00942
5716.59481	0.00944
5714.66614	0.00945
5712.73746	0.00946
5710.80879	0.00947
5708.88011	0.00950
5706.95143	0.00951
5705.02276	0.00952
5703.09408	0.00955
5701.16541	0.00956
5699.23673	0.00956
5697.30806	0.00956
5695.37938	0.00958
5693.45070	0.00962
5691.52203	0.00965
5689.59335	0.00967
5687.66468	0.00970
5685.73600	0.00972
5683.80733	0.00971
5681.87865	0.00971
5679.94997	0.00974
5678.02130	0.00977
5676.09262	0.00979
5674.16395	0.00980
5672.23527	0.00981
5670.30660	0.00983
5668.37792	0.00985
5666.44924	0.00985
5664.52057	0.00984
5662.59189	0.00986
5660.66322	0.00988
5658.73454	0.00991
5656.80587	0.00994
5654.87719	0.00996
5652.94851	0.00996
5651.01984	0.00996
5649.09116	0.00996
5647.16249	0.00997
5645.23381	0.01002
5643.30514	0.01008
5641.37646	0.01010
5639.44778	0.01010
5637.51911	0.01011
5635.59043	0.01014
5633.66176	0.01015
5631.73308	0.01016
5629.80441	0.01018
5627.87573	0.01021
5625.94705	0.01024
5624.01838	0.01024
5622.08970	0.01024
5620.16103	0.01026
5618.23235	0.01027
5616.30368	0.01029
5614.37500	0.01030
5612.44632	0.01031
5610.51765	0.01031
5608.58897	0.01033
5606.66030	0.01035
5604.73162	0.01038
5602.80295	0.01041
5600.87427	0.01044
5598.94559	0.01045
5597.01692	0.01045
5595.08824	0.01047
5593.15957	0.01050
5591.23089	0.01051
5589.30222	0.01052
5587.37354	0.01054
5585.44486	0.01057
5583.51619	0.01058
5581.58751	0.01059
5579.65884	0.01061
5577.73016	0.01062
5575.80149	0.01064
5573.87281	0.01066
5571.94413	0.01068
5570.01546	0.01070
5568.08678	0.01072
5566.15811	0.01075
5564.22943	0.01079
5562.30076	0.01081
5560.37208	0.01084
5558.44340	0.01084
5556.51473	0.01082
5554.58605	0.01082
5552.65738	0.01084
5550.72870	0.01087
5548.80003	0.01090
5546.87135	0.01092
5544.94267	0.01092
5543.01400	0.01091
5541.08532	0.01092
5539.15665	0.01094
5537.22797	0.01098
5535.29930	0.01103
5533.37062	0.01106
5531.44194	0.01106
5529.51327	0.01105
5527.58459	0.01106
5525.65592	0.01108
5523.72724	0.01110
5521.79857	0.01113
5519.86989	0.01116
5517.94121	0.01120
5516.01254	0.01122
5514.08386	0.01122
5512.15519	0.01122
5510.22651	0.01122
5508.29784	0.01124
5506.36916	0.01130
5504.44048	0.01134
5502.51181	0.01135
5500.58313	0.01134
5498.65446	0.01134
5496.72578	0.01135
5494.79711	0.01136
5492.86843	0.01140
5490.93975	0.01143
5489.01108	0.01146
5487.08240	0.01149
5485.15373	0.01151
5483.22505	0.01150
5481.29638	0.01150
5479.36770	0.01153
5477.43902	0.01155
5475.51035	0.01156
5473.58167	0.01158
5471.65300	0.01159
5469.72432	0.01162
5467.79565	0.01164
5465.86697	0.01165
5463.93829	0.01165
5462.00962	0.01167
5460.08094	0.01170
5458.15227	0.01173
5456.22359	0.01176
5454.29492	0.01179
5452.36624	0.01182
5450.43756	0.01182
5448.50889	0.01183
5446.58021	0.01186
5444.65154	0.01191
5442.72286	0.01192
5440.79419	0.01193
5438.86551	0.01195
5436.93683	0.01195
5435.00816	0.01195
5433.07948	0.01196
5431.15081	0.01198
5429.22213	0.01201
5427.29346	0.01204
5425.36478	0.01207
5423.43610	0.01208
5421.50743	0.01210
5419.57875	0.01213
5417.65008	0.01216
5415.72140	0.01216
5413.79273	0.01217
5411.86405	0.01218
5409.93537	0.01220
5408.00670	0.01222
5406.07802	0.01225
5404.14935	0.01228
5402.22067	0.01232
5400.29200	0.01234
5398.36332	0.01235
5396.43464	0.01236
5394.50597	0.01238
5392.57729	0.01242
5390.64862	0.01245
5388.71994	0.01246
5386.79127	0.01245
5384.86259	0.01247
5382.93391	0.01251
5381.00524	0.01254
5379.07656	0.01255
5377.14789	0.01255
5375.21921	0.01257
5373.29054	0.01260
5371.36186	0.01262
5369.43318	0.01263
5367.50451	0.01265
5365.57583	0.01268
5363.64716	0.01271
5361.71848	0.01273
5359.78981	0.01275
5357.86113	0.01277
5355.93245	0.01280
5354.00378	0.01283
5352.07510	0.01286
5350.14643	0.01287
5348.21775	0.01287
5346.28908	0.01287
5344.36040	0.01288
5342.43172	0.01290
5340.50305	0.01292
5338.57437	0.01293
5336.64570	0.01297
5334.71702	0.01300
5332.78835	0.01302
5330.85967	0.01304
5328.93099	0.01306
5327.00232	0.01308
5325.07364	0.01311
5323.14497	0.01314
5321.21629	0.01317
5319.28762	0.01318
5317.35894	0.01320
5315.43026	0.01324
5313.50159	0.01327
5311.57291	0.01330
5309.64424	0.01329
5307.71556	0.01328
5305.78689	0.01328
5303.85821	0.01330
5301.92953	0.01332
5300.00086	0.01332
5298.07218	0.01334
5296.14351	0.01339
5294.21483	0.01344
5292.28616	0.01347
5290.35748	0.01349
5288.42880	0.01349
5286.50013	0.01350
5284.57145	0.01350
5282.64278	0.01353
5280.71410	0.01357
5278.78543	0.01360
5276.85675	0.01363
5274.92807	0.01365
5272.99940	0.01367
5271.07072	0.01367
5269.14205	0.01368
5267.21337	0.01370
5265.28470	0.01372
5263.35602	0.01375
5261.42734	0.01379
5259.49867	0.01383
5257.56999	0.01385
5255.64132	0.01387
5253.71264	0.01388
5251.78397	0.01390
5249.85529	0.01391
5247.92661	0.01391
5245.99794	0.01393
5244.06926	0.01395
5242.14059	0.01398
5240.21191	0.01403
5238.28324	0.01406
5236.35456	0.01408
5234.42588	0.01410
5232.49721	0.01412
5230.56853	0.01413
5228.63986	0.01414
5226.71118	0.01415
5224.78251	0.01417
5222.85383	0.01420
5220.92515	0.01423
5218.99648	0.01427
5217.06780	0.01430
5215.13913	0.01431
5213.21045	0.01433
5211.28178	0.01434
5209.35310	0.01436
5207.42442	0.01440
5205.49575	0.01444
5203.56707	0.01446
5201.63840	0.01447
5199.70972	0.01449
5197.78105	0.01452
5195.85237	0.01454
5193.92369	0.01455
5191.99502	0.01457
5190.06634	0.01460
5188.13767	0.01462
5186.20899	0.01464
5184.28032	0.01466
5182.35164	0.01467
5180.42296	0.01468
5178.49429	0.01469
5176.56561	0.01472
5174.63694	0.01476
5172.70826	0.01478
5170.77959	0.01480
5168.85091	0.01483
5166.92223	0.01487
5164.99356	0.01489
5163.06488	0.01490
5161.13621	0.01490
5159.20753	0.01490
5157.27886	0.01494
5155.35018	0.01498
5153.42150	0.01501
5151.49283	0.01503
5149.56415	0.01504
5147.63548	0.01505
5145.70680	0.01509
5143.77813	0.01513
5141.84945	0.01516
5139.92077	0.01519
5137.99210	0.01522
5136.06342	0.01524
5134.13475	0.01525
5132.20607	0.01527
5130.27740	0.01529
5128.34872	0.01531
5126.42004	0.01534
5124.49137	0.01538
5122.56269	0.01540
5120.63402	0.01541
5118.70534	0.01542
5116.77667	0.01545
5114.84799	0.01549
5112.91931	0.01553
5110.99064	0.01556
5109.06196	0.01558
5107.13329	0.01559
5105.20461	0.01558
5103.27594	0.01560
5101.34726	0.01562
5099.41858	0.01563
5097.48991	0.01565
5095.56123	0.01569
5093.63256	0.01572
5091.70388	0.01576
5089.77521	0.01579
5087.84653	0.01581
5085.91785	0.01582
5083.98918	0.01585
5082.06050	0.01587
5080.13183	0.01589
5078.20315	0.01591
5076.27448	0.01594
5074.34580	0.01595
5072.41712	0.01596
5070.48845	0.01597
5068.55977	0.01601
5066.63110	0.01607
5064.70242	0.01612
5062.77375	0.01616
5060.84507	0.01619
5058.91639	0.01620
5056.98772	0.01621
5055.05904	0.01621
5053.13037	0.01622
5051.20169	0.01623
5049.27302	0.01625
5047.34434	0.01628
5045.41566	0.01633
5043.48699	0.01637
5041.55831	0.01638
5039.62964	0.01639
5037.70096	0.01640
5035.77229	0.01642
5033.84361	0.01644
5031.91493	0.01646
5029.98626	0.01649
5028.05758	0.01653
5026.12891	0.01660
5024.20023	0.01665
5022.27156	0.01666
5020.34288	0.01667
5018.41420	0.01668
5016.48553	0.01669
5014.55685	0.01671
5012.62818	0.01674
5010.69950	0.01677
5008.77083	0.01681
5006.84215	0.01684
5004.91347	0.01686
5002.98480	0.01689
5001.05612	0.01693
4999.12745	0.01696
4997.19877	0.01696
4995.27010	0.01696
4993.34142	0.01696
4991.41274	0.01701
4989.48407	0.01707
4987.55539	0.01710
4985.62672	0.01711
4983.69804	0.01714
4981.76937	0.01717
4979.84069	0.01718
4977.91201	0.01721
4975.98334	0.01724
4974.05466	0.01726
4972.12599	0.01728
4970.19731	0.01731
4968.26864	0.01736
4966.33996	0.01740
4964.41128	0.01742
4962.48261	0.01745
4960.55393	0.01747
4958.62526	0.01748
4956.69658	0.01750
4954.76791	0.01753
4952.83923	0.01755
4950.91055	0.01756
4948.98188	0.01758
4947.05320	0.01762
4945.12453	0.01764
4943.19585	0.01766
4941.26718	0.01770
4939.33850	0.01774
4937.40982	0.01777
4935.48115	0.01778
4933.55247	0.01779
4931.62380	0.01782
4929.69512	0.01785
4927.76645	0.01789
4925.83777	0.01791
4923.90909	0.01793
4921.98042	0.01795
4920.05174	0.01798
4918.12307	0.01802
4916.19439	0.01806
4914.26572	0.01809
4912.33704	0.01812
4910.40836	0.01814
4908.47969	0.01816
4906.55101	0.01817
4904.62234	0.01820
4902.69366	0.01823
4900.76499	0.01826
4898.83631	0.01829
4896.90763	0.01831
4894.97896	0.01834
4893.05028	0.01836
4891.12161	0.01839
4889.19293	0.01842
4887.26426	0.01844
4885.33558	0.01848
4883.40690	0.01851
4881.47823	0.01856
4879.54955	0.01860
4877.62088	0.01865
4875.69220	0.01867
4873.76353	0.01867
4871.83485	0.01866
4869.90617	0.01867
4867.97750	0.01872
4866.04882	0.01877
4864.12015	0.01879
4862.19147	0.01881
4860.26280	0.01883
4858.33412	0.01887
4856.40544	0.01891
4854.47677	0.01895
4852.54809	0.01896
4850.61942	0.01897
4848.69074	0.01901
4846.76207	0.01905
4844.83339	0.01908
4842.90471	0.01909
4840.97604	0.01912
4839.04736	0.01916
4837.11869	0.01919
4835.19001	0.01921
4833.26134	0.01923
4831.33266	0.01927
4829.40398	0.01931
4827.47531	0.01933
4825.54663	0.01934
4823.61796	0.01937
4821.68928	0.01942
4819.76061	0.01946
4817.83193	0.01949
4815.90325	0.01952
4813.97458	0.01956
4812.04590	0.01959
4810.11723	0.01962
4808.18855	0.01964
4806.25988	0.01964
4804.33120	0.01966
4802.40252	0.01970
4800.47385	0.01975
4798.54517	0.01978
4796.61650	0.01983
4794.68782	0.01987
4792.75915	0.01990
4790.83047	0.01992
4788.90179	0.01995
4786.97312	0.01997
4785.04444	0.02000
4783.11577	0.02004
4781.18709	0.02007
4779.25842	0.02009
4777.32974	0.02012
4775.40106	0.02015
4773.47239	0.02019
4771.54371	0.02023
4769.61504	0.02025
4767.68636	0.02027
4765.75769	0.02030
4763.82901	0.02033
4761.90033	0.02035
4759.97166	0.02037
4758.04298	0.02041
4756.11431	0.02046
4754.18563	0.02048
4752.25696	0.02051
4750.32828	0.02056
4748.39960	0.02062
4746.47093	0.02064
4744.54225	0.02064
4742.61358	0.02065
4740.68490	0.02068
4738.75623	0.02072
4736.82755	0.02076
4734.89887	0.02079
4732.97020	0.02082
4731.04152	0.02085
4729.11285	0.02092
4727.18417	0.02098
4725.25550	0.02102
4723.32682	0.02103
4721.39814	0.02105
4719.46947	0.02109
4717.54079	0.02114
4715.61212	0.02117
4713.68344	0.02120
4711.75477	0.02123
4709.82609	0.02126
4707.89741	0.02127
4705.96874	0.02131
4704.04006	0.02135
4702.11139	0.02139
4700.18271	0.02143
4698.25404	0.02146
4696.32536	0.02147
4694.39668	0.02149
4692.46801	0.02153
4690.53933	0.02157
4688.61066	0.02160
4686.68198	0.02164
4684.75331	0.02169
4682.82463	0.02174
4680.89595	0.02179
4678.96728	0.02182
4677.03860	0.02183
4675.10993	0.02184
4673.18125	0.02187
4671.25258	0.02192
4669.32390	0.02195
4667.39522	0.02199
4665.46655	0.02205
4663.53787	0.02210
4661.60920	0.02210
4659.68052	0.02210
4657.75185	0.02213
4655.82317	0.02218
4653.89449	0.02224
4651.96582	0.02230
4650.03714	0.02234
4648.10847	0.02234
4646.17979	0.02234
4644.25112	0.02238
4642.32244	0.02243
4640.39376	0.02246
4638.46509	0.02248
4636.53641	0.02252
4634.60774	0.02259
4632.67906	0.02264
4630.75039	0.02265
4628.82171	0.02268
4626.89303	0.02272
4624.96436	0.02276
4623.03568	0.02281
4621.10701	0.02287
4619.17833	0.02292
4617.24966	0.02295
4615.32098	0.02298
4613.39230	0.02302
4611.46363	0.02307
4609.53495	0.02310
4607.60628	0.02314
4605.67760	0.02318
4603.74893	0.02322
4601.82025	0.02325
4599.89157	0.02329
4597.96290	0.02331
4596.03422	0.02335
4594.10555	0.02341
4592.17687	0.02346
4590.24820	0.02347
4588.31952	0.02348
4586.39084	0.02352
4584.46217	0.02358
4582.53349	0.02364
4580.60482	0.02369
4578.67614	0.02373
4576.74747	0.02375
4574.81879	0.02377
4572.89011	0.02380
4570.96144	0.02382
4569.03276	0.02385
4567.10409	0.02388
4565.17541	0.02392
4563.24674	0.02397
4561.31806	0.02402
4559.38938	0.02407
4557.46071	0.02412
4555.53203	0.02418
4553.60336	0.02422
4551.67468	0.02426
4549.74601	0.02429
4547.81733	0.02433
4545.88865	0.02436
4543.95998	0.02440
4542.03130	0.02445
4540.10263	0.02450
4538.17395	0.02456
4536.24528	0.02461
4534.31660	0.02464
4532.38792	0.02466
4530.45925	0.02470
4528.53057	0.02475
4526.60190	0.02479
4524.67322	0.02482
4522.74455	0.02485
4520.81587	0.02489
4518.88719	0.02494
4516.95852	0.02496
4515.02984	0.02500
4513.10117	0.02506
4511.17249	0.02514
4509.24382	0.02523
4507.31514	0.02529
4505.38646	0.02530
4503.45779	0.02531
4501.52911	0.02534
4499.60044	0.02538
4497.67176	0.02542
4495.74309	0.02548
4493.81441	0.02555
4491.88573	0.02561
4489.95706	0.02564
4488.02838	0.02566
4486.09971	0.02569
4484.17103	0.02572
4482.24236	0.02575
4480.31368	0.02579
4478.38500	0.02586
4476.45633	0.02593
4474.52765	0.02597
4472.59898	0.02599
4470.67030	0.02602
4468.74163	0.02608
4466.81295	0.02616
4464.88427	0.02621
4462.95560	0.02625
4461.02692	0.02629
4459.09825	0.02636
4457.16957	0.02643
4455.24090	0.02647
4453.31222	0.02651
4451.38354	0.02654
4449.45487	0.02657
4447.52619	0.02660
4445.59752	0.02666
4443.66884	0.02671
4441.74017	0.02676
4439.81149	0.02681
4437.88281	0.02686
4435.95414	0.02691
4434.02546	0.02695
4432.09679	0.02698
4430.16811	0.02704
4428.23944	0.02711
4426.31076	0.02717
4424.38208	0.02721
4422.45341	0.02724
4420.52473	0.02729
4418.59606	0.02734
4416.66738	0.02738
4414.73871	0.02743
4412.81003	0.02750
4410.88135	0.02756
4408.95268	0.02760
4407.02400	0.02765
4405.09533	0.02770
4403.16665	0.02775
4401.23798	0.02782
4399.30930	0.02789
4397.38062	0.02794
4395.45195	0.02795
4393.52327	0.02798
4391.59460	0.02804
4389.66592	0.02811
4387.73725	0.02818
4385.80857	0.02823
4383.87989	0.02828
4381.95122	0.02833
4380.02254	0.02838
4378.09387	0.02841
4376.16519	0.02846
4374.23652	0.02852
4372.30784	0.02858
4370.37916	0.02864
4368.45049	0.02868
4366.52181	0.02872
4364.59314	0.02876
4362.66446	0.02882
4360.73579	0.02890
4358.80711	0.02897
4356.87843	0.02901
4354.94976	0.02905
4353.02108	0.02911
4351.09241	0.02918
4349.16373	0.02925
4347.23506	0.02931
4345.30638	0.02935
4343.37770	0.02938
4341.44903	0.02940
4339.52035	0.02943
4337.59168	0.02950
4335.66300	0.02958
4333.73433	0.02967
4331.80565	0.02975
4329.87697	0.02981
4327.94830	0.02985
4326.01962	0.02990
4324.09095	0.02997
4322.16227	0.03005
4320.23360	0.03010
4318.30492	0.03014
4316.37624	0.03018
4314.44757	0.03024
4312.51889	0.03031
4310.59022	0.03036
4308.66154	0.03042
4306.73287	0.03047
4304.80419	0.03053
4302.87551	0.03059
4300.94684	0.03065
4299.01816	0.03072
4297.08949	0.03078
4295.16081	0.03083
4293.23214	0.03091
4291.30346	0.03100
4289.37478	0.03107
4287.44611	0.03112
4285.51743	0.03117
4283.58876	0.03122
4281.66008	0.03128
4279.73141	0.03136
4277.80273	0.03144
4275.87405	0.03149
4273.94538	0.03153
4272.01670	0.03157
4270.08803	0.03163
4268.15935	0.03170
4266.23068	0.03176
4264.30200	0.03184
4262.37332	0.03192
4260.44465	0.03198
4258.51597	0.03202
4256.58730	0.03208
4254.65862	0.03215
4252.72995	0.03221
4250.80127	0.03227
4248.87259	0.03233
4246.94392	0.03240
4245.01524	0.03247
4243.08657	0.03253
4241.15789	0.03257
4239.22922	0.03263
4237.30054	0.03270
4235.37186	0.03276
4233.44319	0.03282
4231.51451	0.03289
4229.58584	0.03297
4227.65716	0.03306
4225.72849	0.03313
4223.79981	0.03320
4221.87113	0.03326
4219.94246	0.03332
4218.01378	0.03339
4216.08511	0.03345
4214.15643	0.03350
4212.22776	0.03355
4210.29908	0.03362
4208.37040	0.03369
4206.44173	0.03376
4204.51305	0.03381
4202.58438	0.03386
4200.65570	0.03392
4198.72703	0.03402
4196.79835	0.03412
4194.86968	0.03422
4192.94100	0.03431
4191.01232	0.03439
4189.08365	0.03444
4187.15497	0.03447
4185.22630	0.03451
4183.29762	0.03458
4181.36895	0.03468
4179.44027	0.03476
4177.51159	0.03482
4175.58292	0.03487
4173.65424	0.03494
4171.72557	0.03502
4169.79689	0.03509
4167.86822	0.03515
4165.93954	0.03522
4164.01086	0.03531
4162.08219	0.03539
4160.15351	0.03546
4158.22484	0.03553
4156.29616	0.03562
4154.36749	0.03569
4152.43881	0.03574
4150.51013	0.03580
4148.58146	0.03588
4146.65278	0.03596
4144.72411	0.03605
4142.79543	0.03615
4140.86676	0.03623
4138.93808	0.03628
4137.00940	0.03634
4135.08073	0.03642
4133.15205	0.03651
4131.22338	0.03659
4129.29470	0.03666
4127.36603	0.03674
4125.43735	0.03680
4123.50867	0.03686
4121.58000	0.03694
4119.65132	0.03703
4117.72265	0.03713
4115.79397	0.03723
4113.86530	0.03731
4111.93662	0.03735
4110.00794	0.03739
4108.07927	0.03746
4106.15059	0.03754
4104.22192	0.03762
4102.29324	0.03770
4100.36457	0.03778
4098.43589	0.03786
4096.50721	0.03795
4094.57854	0.03803
4092.64986	0.03812
4090.72119	0.03819
4088.79251	0.03826
4086.86384	0.03831
4084.93516	0.03840
4083.00648	0.03851
4081.07781	0.03861
4079.14913	0.03867
4077.22046	0.03871
4075.29178	0.03878
4073.36311	0.03888
4071.43443	0.03898
4069.50575	0.03907
4067.57708	0.03917
4065.64840	0.03928
4063.71973	0.03938
4061.79105	0.03945
4059.86238	0.03952
4057.93370	0.03958
4056.00502	0.03965
4054.07635	0.03971
4052.14767	0.03978
4050.21900	0.03988
4048.29032	0.03998
4046.36165	0.04006
4044.43297	0.04014
4042.50429	0.04021
4040.57562	0.04030
4038.64694	0.04038
4036.71827	0.04046
4034.78959	0.04054
4032.86092	0.04063
4030.93224	0.04074
4029.00356	0.04083
4027.07489	0.04092
4025.14621	0.04102
4023.21754	0.04110
4021.28886	0.04118
4019.36019	0.04124
4017.43151	0.04131
4015.50283	0.04139
4013.57416	0.04148
4011.64548	0.04158
4009.71681	0.04168
4007.78813	0.04177
4005.85946	0.04185
4003.93078	0.04194
4002.00210	0.04203
4000.07343	0.04214
3998.14475	0.04225
3996.21608	0.04234
3994.28740	0.04241
3992.35873	0.04249
3990.43005	0.04257
3988.50137	0.04265
3986.57270	0.04273
3984.64402	0.04282
3982.71535	0.04292
3980.78667	0.04302
3978.85800	0.04310
3976.92932	0.04318
3975.00064	0.04329
3973.07197	0.04339
3971.14329	0.04346
3969.21462	0.04351
3967.28594	0.04359
3965.35727	0.04370
3963.42859	0.04381
3961.49991	0.04389
3959.57124	0.04399
3957.64256	0.04409
3955.71389	0.04419
3953.78521	0.04428
3951.85654	0.04437
3949.92786	0.04445
3947.99918	0.04454
3946.07051	0.04464
3944.14183	0.04472
3942.21316	0.04480
3940.28448	0.04492
3938.35581	0.04505
3936.42713	0.04516
3934.49845	0.04524
3932.56978	0.04528
3930.64110	0.04536
3928.71243	0.04548
3926.78375	0.04559
3924.85508	0.04569
3922.92640	0.04578
3920.99772	0.04583
3919.06905	0.04588
3917.14037	0.04600
3915.21170	0.04617
3913.28302	0.04632
3911.35435	0.04642
3909.42567	0.04651
3907.49699	0.04655
3905.56832	0.04651
3903.63964	0.04650
3901.71097	0.04659
3899.78229	0.04677
3897.85362	0.04699
3895.92494	0.04716
3893.99626	0.04721
3892.06759	0.04724
3890.13891	0.04733
3888.21024	0.04744
3886.28156	0.04751
3884.35289	0.04763
3882.42421	0.04778
3880.49553	0.04790
3878.56686	0.04803
3876.63818	0.04814
3874.70951	0.04819
3872.78083	0.04823
3870.85216	0.04829
3868.92348	0.04841
3866.99480	0.04853
3865.06613	0.04865
3863.13745	0.04878
3861.20878	0.04893
3859.28010	0.04905
3857.35143	0.04903
3855.42275	0.04887
3853.49407	0.04885
3851.56540	0.04913
3849.63672	0.04948
3847.70805	0.04971
3845.77937	0.04981
3843.85070	0.04985
3841.92202	0.04987
3839.99334	0.04989
3838.06467	0.04994
3836.13599	0.05009
3834.20732	0.05030
3832.27864	0.05049
3830.34997	0.05065
3828.42129	0.05076
3826.49261	0.05086
3824.56394	0.05092
3822.63526	0.05092
3820.70659	0.05097
3818.77791	0.05111
3816.84924	0.05125
3814.92056	0.05141
3812.99188	0.05162
3811.06321	0.05178
3809.13453	0.05183
3807.20586	0.05186
3805.27718	0.05196
3803.34851	0.05204
3801.41983	0.05212
3799.49115	0.05226
3797.56248	0.05240
3795.63380	0.05255
3793.70513	0.05274
3791.77645	0.05290
3789.84778	0.05302
3787.91910	0.05314
3785.99042	0.05324
3784.06175	0.05332
3782.13307	0.05341
3780.20440	0.05351
3778.27572	0.05365
3776.34705	0.05382
3774.41837	0.05394
3772.48969	0.05396
3770.56102	0.05398
3768.63234	0.05408
3766.70367	0.05423
3764.77499	0.05439
3762.84632	0.05453
3760.91764	0.05461
3758.98896	0.05467
3757.06029	0.05479
3755.13161	0.05485
3753.20294	0.05482
3751.27426	0.05484
3749.34559	0.05496
3747.41691	0.05502
3745.48823	0.05498
3743.55956	0.05515
3741.63088	0.05553
3739.70221	0.05575
3737.77353	0.05573
3735.84486	0.05571
3733.91618	0.05586
3731.98750	0.05613
3730.05883	0.05638
3728.13015	0.05652
3726.20148	0.05658
3724.27280	0.05668
3722.34413	0.05682
3720.41545	0.05698
3718.48677	0.05711
3716.55810	0.05720
3714.62942	0.05725
3712.70075	0.05728
3710.77207	0.05737
3708.84340	0.05754
3706.91472	0.05770
3704.98604	0.05778
3703.05737	0.05780
3701.12869	0.05785
3699.20002	0.05795
3697.27134	0.05804
3695.34267	0.05808
3693.41399	0.05805
3691.48531	0.05798
3689.55664	0.05798
3687.62796	0.05813
3685.69929	0.05831
3683.77061	0.05841
3681.84194	0.05842
3679.91326	0.05836
3677.98458	0.05823
3676.05591	0.05813
3674.12723	0.05820
3672.19856	0.05830
3670.26988	0.05835
3668.34121	0.05848
3666.41253	0.05867
3664.48385	0.05878
3662.55518	0.05881
3660.62650	0.05880
3658.69783	0.05876
3656.76915	0.05872
3654.84048	0.05875
3652.91180	0.05870
3650.98312	0.05850
3649.05445	0.05836
3647.12577	0.05850
3645.19710	0.05880
3643.26842	0.05905
3641.33975	0.05920
3639.41107	0.05932
3637.48239	0.05939
3635.55372	0.05941
3633.62504	0.05943
3631.69637	0.05937
3629.76769	0.05929
3627.83902	0.05938
3625.91034	0.05961
3623.98166	0.05976
3622.05299	0.05977
3620.12431	0.05975
3618.19564	0.05982
3616.26696	0.05995
3614.33829	0.06002
3612.40961	0.06002
3610.48093	0.06004
3608.55226	0.06013
3606.62358	0.06028
3604.69491	0.06042
3602.76623	0.06051
3600.83756	0.06057
3598.90888	0.06064
3596.98020	0.06068
3595.05153	0.06072
3593.12285	0.06082
3591.19418	0.06088
3589.26550	0.06085
3587.33683	0.06086
3585.40815	0.06100
3583.47947	0.06116
3581.55080	0.06126
3579.62212	0.06134
3577.69345	0.06143
3575.76477	0.06152
3573.83610	0.06161
3571.90742	0.06167
3569.97874	0.06166
3568.05007	0.06163
3566.12139	0.06171
3564.19272	0.06188
3562.26404	0.06203
3560.33537	0.06214
3558.40669	0.06224
3556.47801	0.06231
3554.54934	0.06236
3552.62066	0.06239
3550.69199	0.06246
3548.76331	0.06254
3546.83464	0.06260
3544.90596	0.06265
3542.97728	0.06273
3541.04861	0.06280
3539.11993	0.06286
3537.19126	0.06292
3535.26258	0.06299
3533.33391	0.06305
3531.40523	0.06310
3529.47655	0.06314
3527.54788	0.06317
3525.61920	0.06322
3523.69053	0.06329
3521.76185	0.06333
3519.83318	0.06336
3517.90450	0.06343
3515.97582	0.06351
3514.04715	0.06356
3512.11847	0.06355
3510.18980	0.06352
3508.26112	0.06354
3506.33245	0.06359
3504.40377	0.06362
3502.47509	0.06365
3500.54642	0.06367
3498.61774	0.06368
3496.68907	0.06372
3494.76039	0.06377
3492.83172	0.06381
3490.90304	0.06383
3488.97436	0.06384
3487.04569	0.06385
3485.11701	0.06388
3483.18834	0.06394
3481.25966	0.06402
3479.33099	0.06409
3477.40231	0.06413
3475.47363	0.06418
3473.54496	0.06428
3471.61628	0.06440
3469.68761	0.06450
3467.75893	0.06460
3465.83026	0.06472
3463.90158	0.06484
3461.97290	0.06495
3460.04423	0.06507
3458.11555	0.06519
3456.18688	0.06529
3454.25820	0.06538
3452.32953	0.06548
3450.40085	0.06558
3448.47217	0.06570
3446.54350	0.06583
3444.61482	0.06594
3442.68615	0.06603
3440.75747	0.06616
3438.82880	0.06635
3436.90012	0.06658
3434.97144	0.06681
3433.04277	0.06702
3431.11409	0.06722
3429.18542	0.06744
3427.25674	0.06765
3425.32807	0.06786
3423.39939	0.06805
3421.47071	0.06825
3419.54204	0.06848
3417.61336	0.06870
3415.68469	0.06889
3413.75601	0.06904
3411.82734	0.06919
3409.89866	0.06935
3407.96998	0.06953
3406.04131	0.06969
3404.11263	0.06983
3402.18396	0.06997
3400.25528	0.07013
3398.32661	0.07032
3396.39793	0.07053
3394.46925	0.07074
3392.54058	0.07091
3390.61190	0.07106
3388.68323	0.07124
3386.75455	0.07143
3384.82588	0.07157
3382.89720	0.07170
3380.96852	0.07186
3379.03985	0.07203
3377.11117	0.07219
3375.18250	0.07237
3373.25382	0.07256
3371.32515	0.07273
3369.39647	0.07288
3367.46779	0.07303
3365.53912	0.07320
3363.61044	0.07338
3361.68177	0.07355
3359.75309	0.07371
3357.82442	0.07386
3355.89574	0.07401
3353.96706	0.07420
3352.03839	0.07439
3350.10971	0.07456
3348.18104	0.07473
3346.25236	0.07490
3344.32369	0.07507
3342.39501	0.07525
3340.46633	0.07543
3338.53766	0.07560
3336.60898	0.07575
3334.68031	0.07592
3332.75163	0.07606
3330.82296	0.07620
3328.89428	0.07635
3326.96560	0.07653
3325.03693	0.07674
3323.10825	0.07697
3321.17958	0.07719
3319.25090	0.07736
3317.32223	0.07750
3315.39355	0.07766
3313.46487	0.07784
3311.53620	0.07803
3309.60752	0.07821
3307.67885	0.07840
3305.75017	0.07861
3303.82150	0.07882
3301.89282	0.07900
3299.96414	0.07915
3298.03547	0.07932
3296.10679	0.07951
3294.17812	0.07970
3292.24944	0.07986
3290.32077	0.08004
3288.39209	0.08024
3286.46341	0.08046
3284.53474	0.08066
3282.60606	0.08084
3280.67739	0.08103
3278.74871	0.08122
3276.82004	0.08139
3274.89136	0.08159
3272.96268	0.08179
3271.03401	0.08197
3269.10533	0.08217
3267.17666	0.08241
3265.24798	0.08263
3263.31931	0.08283
3261.39063	0.08302
3259.46195	0.08322
3257.53328	0.08342
3255.60460	0.08361
3253.67593	0.08381
3251.74725	0.08400
3249.81858	0.08419
3247.88990	0.08438
3245.96122	0.08459
3244.03255	0.08483
3242.10387	0.08505
3240.17520	0.08522
3238.24652	0.08537
3236.31785	0.08558
3234.38917	0.08582
3232.46049	0.08605
3230.53182	0.08623
3228.60314	0.08641
3226.67447	0.08661
3224.74579	0.08683
3222.81712	0.08703
3220.88844	0.08721
3218.95976	0.08741
3217.03109	0.08763
3215.10241	0.08782
3213.17374	0.08801
3211.24506	0.08821
3209.31639	0.08844
3207.38771	0.08866
3205.45903	0.08887
3203.53036	0.08907
3201.60168	0.08929
3199.67301	0.08952
3197.74433	0.08973
3195.81566	0.08994
3193.88698	0.09017
3191.95830	0.09040
3190.02963	0.09062
3188.10095	0.09083
3186.17228	0.09103
3184.24360	0.09124
3182.31493	0.09145
3180.38625	0.09168
3178.45757	0.09194
3176.52890	0.09220
3174.60022	0.09239
3172.67155	0.09255
3170.74287	0.09276
3168.81420	0.09300
3166.88552	0.09322
3164.95684	0.09344
3163.02817	0.09367
3161.09949	0.09387
3159.17082	0.09406
3157.24214	0.09429
3155.31347	0.09451
3153.38479	0.09470
3151.45611	0.09489
3149.52744	0.09513
3147.59876	0.09536
3145.67009	0.09556
3143.74141	0.09579
3141.81274	0.09603
3139.88406	0.09625
3137.95538	0.09645
3136.02671	0.09666
3134.09803	0.09688
3132.16936	0.09709
3130.24068	0.09730
3128.31201	0.09753
3126.38333	0.09776
3124.45465	0.09797
3122.52598	0.09818
3120.59730	0.09840
3118.66863	0.09862
3116.73995	0.09882
3114.81128	0.09901
3112.88260	0.09921
3110.95392	0.09941
3109.02525	0.09964
3107.09657	0.09988
3105.16790	0.10008
3103.23922	0.10028
3101.31055	0.10051
3099.38187	0.10076
3097.45319	0.10097
3095.52452	0.10117
3093.59584	0.10139
3091.66717	0.10162
3089.73849	0.10182
3087.80982	0.10203
3085.88114	0.10226
3083.95246	0.10251
3082.02379	0.10271
3080.09511	0.10290
3078.16644	0.10308
3076.23776	0.10330
3074.30909	0.10353
3072.38041	0.10377
3070.45173	0.10398
3068.52306	0.10416
3066.59438	0.10436
3064.66571	0.10459
3062.73703	0.10483
3060.80836	0.10504
3058.87968	0.10524
3056.95100	0.10545
3055.02233	0.10564
3053.09365	0.10582
3051.16498	0.10601
3049.23630	0.10620
3047.30763	0.10639
3045.37895	0.10660
3043.45027	0.10681
3041.52160	0.10701
3039.59292	0.10724
3037.66425	0.10747
3035.73557	0.10768
3033.80690	0.10787
3031.87822	0.10803
3029.94954	0.10820
3028.02087	0.10842
3026.09219	0.10865
3024.16352	0.10885
3022.23484	0.10901
3020.30617	0.10916
3018.37749	0.10932
3016.44881	0.10949
3014.52014	0.10967
3012.59146	0.10985
3010.66279	0.11002
3008.73411	0.11019
3006.80544	0.11037
3004.87676	0.11053
3002.94808	0.11068
3001.01941	0.11081
2999.09073	0.11096
2997.16206	0.11112
2995.23338	0.11126
2993.30471	0.11139
2991.37603	0.11148
2989.44735	0.11154
2987.51868	0.11162
2985.59000	0.11173
2983.66133	0.11180
2981.73265	0.11182
2979.80398	0.11182
2977.87530	0.11182
2975.94662	0.11184
2974.01795	0.11186
2972.08927	0.11185
2970.16060	0.11185
2968.23192	0.11186
2966.30325	0.11193
2964.37457	0.11202
2962.44589	0.11217
2960.51722	0.11241
2958.58854	0.11273
2956.65987	0.11307
2954.73119	0.11338
2952.80252	0.11365
2950.87384	0.11389
2948.94516	0.11408
2947.01649	0.11426
2945.08781	0.11441
2943.15914	0.11454
2941.23046	0.11462
2939.30179	0.11469
2937.37311	0.11472
2935.44443	0.11473
2933.51576	0.11474
2931.58708	0.11475
2929.65841	0.11477
2927.72973	0.11481
2925.80106	0.11485
2923.87238	0.11490
2921.94370	0.11500
2920.01503	0.11516
2918.08635	0.11541
2916.15768	0.11580
2914.22900	0.11635
2912.30033	0.11698
2910.37165	0.11758
2908.44297	0.11807
2906.51430	0.11848
2904.58562	0.11885
2902.65695	0.11923
2900.72827	0.11959
2898.79960	0.11992
2896.87092	0.12021
2894.94224	0.12048
2893.01357	0.12078
2891.08489	0.12109
2889.15622	0.12136
2887.22754	0.12160
2885.29887	0.12186
2883.37019	0.12214
2881.44151	0.12240
2879.51284	0.12265
2877.58416	0.12289
2875.65549	0.12314
2873.72681	0.12340
2871.79814	0.12370
2869.86946	0.12399
2867.94078	0.12425
2866.01211	0.12449
2864.08343	0.12470
2862.15476	0.12488
2860.22608	0.12502
2858.29741	0.12511
2856.36873	0.12517
2854.44005	0.12520
2852.51138	0.12525
2850.58270	0.12544
2848.65403	0.12590
2846.72535	0.12657
2844.79668	0.12725
2842.86800	0.12782
2840.93932	0.12831
2839.01065	0.12874
2837.08197	0.12912
2835.15330	0.12944
2833.22462	0.12973
2831.29595	0.13002
2829.36727	0.13033
2827.43859	0.13063
2825.50992	0.13089
2823.58124	0.13112
2821.65257	0.13135
2819.72389	0.13161
2817.79522	0.13188
2815.86654	0.13215
2813.93786	0.13239
2812.00919	0.13261
2810.08051	0.13285
2808.15184	0.13311
2806.22316	0.13338
2804.29449	0.13365
2802.36581	0.13389
2800.43713	0.13411
2798.50846	0.13433
2796.57978	0.13455
2794.65111	0.13478
2792.72243	0.13502
2790.79376	0.13522
2788.86508	0.13542
2786.93640	0.13566
2785.00773	0.13590
2783.07905	0.13615
2781.15038	0.13641
2779.22170	0.13667
2777.29303	0.13691
2775.36435	0.13711
2773.43567	0.13730
2771.50700	0.13750
2769.57832	0.13772
2767.64965	0.13794
2765.72097	0.13815
2763.79230	0.13838
2761.86362	0.13860
2759.93494	0.13881
2758.00627	0.13903
2756.07759	0.13926
2754.14892	0.13949
2752.22024	0.13969
2750.29157	0.13989
2748.36289	0.14010
2746.43421	0.14030
2744.50554	0.14048
2742.57686	0.14065
2740.64819	0.14088
2738.71951	0.14115
2736.79084	0.14140
2734.86216	0.14164
2732.93348	0.14185
2731.00481	0.14204
2729.07613	0.14223
2727.14746	0.14245
2725.21878	0.14265
2723.29011	0.14281
2721.36143	0.14297
2719.43275	0.14317
2717.50408	0.14343
2715.57540	0.14371
2713.64673	0.14393
2711.71805	0.14410
2709.78938	0.14429
2707.86070	0.14450
2705.93202	0.14470
2704.00335	0.14491
2702.07467	0.14516
2700.14600	0.14539
2698.21732	0.14559
2696.28865	0.14577
2694.35997	0.14598
2692.43129	0.14618
2690.50262	0.14638
2688.57394	0.14657
2686.64527	0.14676
2684.71659	0.14693
2682.78792	0.14710
2680.85924	0.14731
2678.93056	0.14756
2677.00189	0.14780
2675.07321	0.14801
2673.14454	0.14822
2671.21586	0.14843
2669.28719	0.14864
2667.35851	0.14883
2665.42983	0.14902
2663.50116	0.14921
2661.57248	0.14942
2659.64381	0.14964
2657.71513	0.14984
2655.78646	0.15005
2653.85778	0.15026
2651.92910	0.15044
2650.00043	0.15065
2648.07175	0.15088
2646.14308	0.15109
2644.21440	0.15130
2642.28573	0.15153
2640.35705	0.15177
2638.42837	0.15199
2636.49970	0.15219
2634.57102	0.15240
2632.64235	0.15264
2630.71367	0.15285
2628.78500	0.15301
2626.85632	0.15321
2624.92764	0.15348
2622.99897	0.15375
2621.07029	0.15398
2619.14162	0.15418
2617.21294	0.15437
2615.28427	0.15457
2613.35559	0.15478
2611.42691	0.15498
2609.49824	0.15521
2607.56956	0.15545
2605.64089	0.15567
2603.71221	0.15587
2601.78354	0.15606
2599.85486	0.15626
2597.92618	0.15647
2595.99751	0.15669
2594.06883	0.15688
2592.14016	0.15708
2590.21148	0.15727
2588.28281	0.15746
2586.35413	0.15767
2584.42545	0.15790
2582.49678	0.15813
2580.56810	0.15835
2578.63943	0.15855
2576.71075	0.15872
2574.78208	0.15889
2572.85340	0.15909
2570.92472	0.15930
2568.99605	0.15952
2567.06737	0.15974
2565.13870	0.15996
2563.21002	0.16018
2561.28135	0.16036
2559.35267	0.16053
2557.42399	0.16073
2555.49532	0.16096
2553.56664	0.16120
2551.63797	0.16139
2549.70929	0.16156
2547.78062	0.16175
2545.85194	0.16197
2543.92326	0.16219
2541.99459	0.16237
2540.06591	0.16255
2538.13724	0.16272
2536.20856	0.16292
2534.27989	0.16316
2532.35121	0.16338
2530.42253	0.16357
2528.49386	0.16375
2526.56518	0.16393
2524.63651	0.16410
2522.70783	0.16428
2520.77916	0.16447
2518.85048	0.16468
2516.92181	0.16489
2514.99313	0.16510
2513.06445	0.16532
2511.13578	0.16555
2509.20710	0.16578
2507.27843	0.16601
2505.34975	0.16622
2503.42108	0.16643
2501.49240	0.16664
2499.56372	0.16687
2497.63505	0.16708
2495.70637	0.16729
2493.77770	0.16752
2491.84902	0.16776
2489.92035	0.16799
2487.99167	0.16822
2486.06299	0.16843
2484.13432	0.16864
2482.20564	0.16885
2480.27697	0.16904
2478.34829	0.16924
2476.41962	0.16946
2474.49094	0.16969
2472.56226	0.16994
2470.63359	0.17015
2468.70491	0.17032
2466.77624	0.17052
2464.84756	0.17074
2462.91889	0.17094
2460.99021	0.17112
2459.06153	0.17130
2457.13286	0.17148
2455.20418	0.17167
2453.27551	0.17187
2451.34683	0.17209
2449.41816	0.17233
2447.48948	0.17256
2445.56080	0.17275
2443.63213	0.17295
2441.70345	0.17316
2439.77478	0.17335
2437.84610	0.17354
2435.91743	0.17374
2433.98875	0.17396
2432.06007	0.17417
2430.13140	0.17437
2428.20272	0.17453
2426.27405	0.17470
2424.34537	0.17489
2422.41670	0.17510
2420.48802	0.17531
2418.55934	0.17550
2416.63067	0.17568
2414.70199	0.17587
2412.77332	0.17609
2410.84464	0.17629
2408.91597	0.17646
2406.98729	0.17663
2405.05861	0.17682
2403.12994	0.17702
2401.20126	0.17722
2399.27259	0.17741
2397.34391	0.17760
2395.41524	0.17778
2393.48656	0.17798
2391.55788	0.17818
2389.62921	0.17840
2387.70053	0.17860
2385.77186	0.17875
2383.84318	0.17887
2381.91451	0.17897
2379.98583	0.17906
2378.05715	0.17916
2376.12848	0.17923
2374.19980	0.17924
2372.27113	0.17924
2370.34245	0.17929
2368.41378	0.17937
2366.48510	0.17943
2364.55642	0.17948
2362.62775	0.17958
2360.69907	0.17975
2358.77040	0.17999
2356.84172	0.18026
2354.91305	0.18057
2352.98437	0.18093
2351.05569	0.18129
2349.12702	0.18149
2347.19834	0.18154
2345.26967	0.18151
2343.34099	0.18150
2341.41232	0.18151
2339.48364	0.18159
2337.55496	0.18180
2335.62629	0.18207
2333.69761	0.18230
2331.76894	0.18250
2329.84026	0.18270
2327.91159	0.18289
2325.98291	0.18308
2324.05423	0.18327
2322.12556	0.18348
2320.19688	0.18372
2318.26821	0.18394
2316.33953	0.18413
2314.41086	0.18432
2312.48218	0.18448
2310.55350	0.18462
2308.62483	0.18479
2306.69615	0.18498
2304.76748	0.18514
2302.83880	0.18525
2300.91013	0.18537
2298.98145	0.18548
2297.05277	0.18557
2295.12410	0.18567
2293.19542	0.18580
2291.26675	0.18592
2289.33807	0.18604
2287.40940	0.18616
2285.48072	0.18626
2283.55204	0.18630
2281.62337	0.18635
2279.69469	0.18642
2277.76602	0.18650
2275.83734	0.18654
2273.90867	0.18658
2271.97999	0.18667
2270.05131	0.18680
2268.12264	0.18693
2266.19396	0.18703
2264.26529	0.18712
2262.33661	0.18722
2260.40794	0.18733
2258.47926	0.18745
2256.55058	0.18759
2254.62191	0.18776
2252.69323	0.18795
2250.76456	0.18813
2248.83588	0.18830
2246.90721	0.18853
2244.97853	0.18879
2243.04985	0.18906
2241.12118	0.18934
2239.19250	0.18961
2237.26383	0.18988
2235.33515	0.19018
2233.40648	0.19046
2231.47780	0.19073
2229.54912	0.19103
2227.62045	0.19137
2225.69177	0.19170
2223.76310	0.19203
2221.83442	0.19235
2219.90575	0.19265
2217.97707	0.19292
2216.04839	0.19318
2214.11972	0.19344
2212.19104	0.19372
2210.26237	0.19398
2208.33369	0.19419
2206.40502	0.19437
2204.47634	0.19458
2202.54766	0.19481
2200.61899	0.19503
2198.69031	0.19527
2196.76164	0.19551
2194.83296	0.19573
2192.90429	0.19594
2190.97561	0.19616
2189.04693	0.19638
2187.11826	0.19657
2185.18958	0.19676
2183.26091	0.19694
2181.33223	0.19711
2179.40356	0.19728
2177.47488	0.19750
2175.54620	0.19777
2173.61753	0.19807
2171.68885	0.19833
2169.76018	0.19852
2167.83150	0.19874
2165.90283	0.19901
2163.97415	0.19927
2162.04547	0.19947
2160.11680	0.19963
2158.18812	0.19979
2156.25945	0.19998
2154.33077	0.20020
2152.40210	0.20040
2150.47342	0.20060
2148.54474	0.20081
2146.61607	0.20101
2144.68739	0.20116
2142.75872	0.20133
2140.83004	0.20153
2138.90137	0.20170
2136.97269	0.20183
2135.04401	0.20198
2133.11534	0.20218
2131.18666	0.20239
2129.25799	0.20257
2127.32931	0.20271
2125.40064	0.20288
2123.47196	0.20308
2121.54328	0.20329
2119.61461	0.20347
2117.68593	0.20364
2115.75726	0.20380
2113.82858	0.20399
2111.89991	0.20419
2109.97123	0.20439
2108.04255	0.20457
2106.11388	0.20475
2104.18520	0.20492
2102.25653	0.20512
2100.32785	0.20531
2098.39918	0.20548
2096.47050	0.20564
2094.54182	0.20579
2092.61315	0.20599
2090.68447	0.20620
2088.75580	0.20640
2086.82712	0.20655
2084.89845	0.20669
2082.96977	0.20684
2081.04109	0.20697
2079.11242	0.20709
2077.18374	0.20722
2075.25507	0.20739
2073.32639	0.20757
2071.39772	0.20772
2069.46904	0.20786
2067.54036	0.20803
2065.61169	0.20818
2063.68301	0.20830
2061.75434	0.20843
2059.82566	0.20859
2057.89699	0.20878
2055.96831	0.20896
2054.03963	0.20913
2052.11096	0.20925
2050.18228	0.20935
2048.25361	0.20951
2046.32493	0.20970
2044.39626	0.20985
2042.46758	0.20997
2040.53890	0.21012
2038.61023	0.21030
2036.68155	0.21045
2034.75288	0.21062
2032.82420	0.21079
2030.89553	0.21093
2028.96685	0.21105
2027.03817	0.21120
2025.10950	0.21136
2023.18082	0.21152
2021.25215	0.21167
2019.32347	0.21180
2017.39480	0.21190
2015.46612	0.21208
2013.53744	0.21231
2011.60877	0.21252
2009.68009	0.21267
2007.75142	0.21279
2005.82274	0.21290
2003.89407	0.21298
2001.96539	0.21307
2000.03671	0.21321
1998.10804	0.21335
1996.17936	0.21346
1994.25069	0.21353
1992.32201	0.21360
1990.39334	0.21372
1988.46466	0.21389
1986.53598	0.21406
1984.60731	0.21418
1982.67863	0.21426
1980.74996	0.21434
1978.82128	0.21446
1976.89261	0.21458
1974.96393	0.21471
1973.03525	0.21480
1971.10658	0.21485
1969.17790	0.21488
1967.24923	0.21496
1965.32055	0.21512
1963.39188	0.21529
1961.46320	0.21541
1959.53452	0.21548
1957.60585	0.21555
1955.67717	0.21569
1953.74850	0.21585
1951.81982	0.21599
1949.89115	0.21609
1947.96247	0.21620
1946.03379	0.21633
1944.10512	0.21642
1942.17644	0.21655
1940.24777	0.21679
1938.31909	0.21701
1936.39042	0.21716
1934.46174	0.21726
1932.53306	0.21734
1930.60439	0.21743
1928.67571	0.21755
1926.74704	0.21767
1924.81836	0.21767
1922.88969	0.21767
1920.96101	0.21778
1919.03233	0.21792
1917.10366	0.21812
1915.17498	0.21836
1913.24631	0.21851
1911.31763	0.21859
1909.38896	0.21871
1907.46028	0.21886
1905.53160	0.21896
1903.60293	0.21906
1901.67425	0.21922
1899.74558	0.21938
1897.81690	0.21946
1895.88823	0.21954
1893.95955	0.21967
1892.03087	0.21972
1890.10220	0.21970
1888.17352	0.21983
1886.24485	0.22007
1884.31617	0.22027
1882.38750	0.22040
1880.45882	0.22050
1878.53014	0.22059
1876.60147	0.22066
1874.67279	0.22071
1872.74412	0.22070
1870.81544	0.22061
1868.88677	0.22063
1866.95809	0.22090
1865.02941	0.22124
1863.10074	0.22145
1861.17206	0.22158
1859.24339	0.22175
1857.31471	0.22194
1855.38604	0.22212
1853.45736	0.22225
1851.52868	0.22234
1849.60001	0.22234
1847.67133	0.22220
1845.74266	0.22197
1843.81398	0.22203
1841.88531	0.22250
1839.95663	0.22293
1838.02795	0.22312
1836.09928	0.22322
1834.17060	0.22330
1832.24193	0.22327
1830.31325	0.22319
1828.38458	0.22325
1826.45590	0.22337
1824.52722	0.22360
1822.59855	0.22396
1820.66987	0.22419
1818.74120	0.22423
1816.81252	0.22429
1814.88385	0.22440
1812.95517	0.22444
1811.02649	0.22444
1809.09782	0.22452
1807.16914	0.22466
1805.24047	0.22472
1803.31179	0.22465
1801.38312	0.22458
1799.45444	0.22466
1797.52576	0.22482
1795.59709	0.22487
1793.66841	0.22473
1791.73974	0.22468
1789.81106	0.22494
1787.88239	0.22524
1785.95371	0.22533
1784.02503	0.22533
1782.09636	0.22534
1780.16768	0.22539
1778.23901	0.22548
1776.31033	0.22544
1774.38166	0.22515
1772.45298	0.22486
1770.52430	0.22482
1768.59563	0.22499
1766.66695	0.22524
1764.73828	0.22539
1762.80960	0.22532
1760.88093	0.22522
1758.95225	0.22519
1757.02357	0.22516
1755.09490	0.22512
1753.16622	0.22481
1751.23755	0.22433
1749.30887	0.22412
1747.38020	0.22420
1745.45152	0.22427
1743.52284	0.22416
1741.59417	0.22392
1739.66549	0.22373
1737.73682	0.22346
1735.80814	0.22286
1733.87947	0.22240
1731.95079	0.22260
1730.02211	0.22307
1728.09344	0.22339
1726.16476	0.22349
1724.23609	0.22341
1722.30741	0.22319
1720.37874	0.22264
1718.45006	0.22204
1716.52138	0.22201
1714.59271	0.22252
1712.66403	0.22306
1710.73536	0.22330
1708.80668	0.22321
1706.87801	0.22305
1704.94933	0.22306
1703.02065	0.22298
1701.09198	0.22267
1699.16330	0.22260
1697.23463	0.22278
1695.30595	0.22310
1693.37728	0.22363
1691.44860	0.22399
1689.51992	0.22401
1687.59125	0.22377
1685.66257	0.22328
1683.73390	0.22309
1681.80522	0.22354
1679.87655	0.22405
1677.94787	0.22408
1676.01919	0.22384
1674.09052	0.22382
1672.16184	0.22386
1670.23317	0.22376
1668.30449	0.22393
1666.37582	0.22429
1664.44714	0.22438
1662.51846	0.22430
1660.58979	0.22433
1658.66111	0.22427
1656.73244	0.22368
1654.80376	0.22258
1652.87509	0.22206
1650.94641	0.22258
1649.01773	0.22300
1647.08906	0.22289
1645.16038	0.22301
1643.23171	0.22339
1641.30303	0.22358
1639.37436	0.22335
1637.44568	0.22288
1635.51700	0.22269
1633.58833	0.22298
1631.65965	0.22325
1629.73098	0.22316
1627.80230	0.22292
1625.87363	0.22258
1623.94495	0.22213
1622.01627	0.22182
1620.08760	0.22176
1618.15892	0.22196
1616.23025	0.22259
1614.30157	0.22349
1612.37290	0.22416
1610.44422	0.22451
1608.51554	0.22475
1606.58687	0.22503
1604.65819	0.22535
1602.72952	0.22565
1600.80084	0.22595
1598.87217	0.22620
1596.94349	0.22637
1595.01481	0.22649
1593.08614	0.22664
1591.15746	0.22680
1589.22879	0.22695
1587.30011	0.22709
1585.37144	0.22722
1583.44276	0.22734
1581.51408	0.22744
1579.58541	0.22735
1577.65673	0.22707
1575.72806	0.22707
1573.79938	0.22745
1571.87071	0.22761
1569.94203	0.22757
1568.01335	0.22774
1566.08468	0.22800
1564.15600	0.22812
1562.22733	0.22788
1560.29865	0.22718
1558.36998	0.22678
1556.44130	0.22723
1554.51262	0.22792
1552.58395	0.22826
1550.65527	0.22837
1548.72660	0.22847
1546.79792	0.22848
1544.86925	0.22814
1542.94057	0.22761
1541.01189	0.22733
1539.08322	0.22763
1537.15454	0.22823
1535.22587	0.22853
1533.29719	0.22858
1531.36852	0.22874
1529.43984	0.22883
1527.51116	0.22873
1525.58249	0.22857
1523.65381	0.22824
1521.72514	0.22790
1519.79646	0.22791
1517.86779	0.22810
1515.93911	0.22823
1514.01043	0.22830
1512.08176	0.22818
1510.15308	0.22778
1508.22441	0.22735
1506.29573	0.22748
1504.36706	0.22809
1502.43838	0.22844
1500.50970	0.22823
1498.58103	0.22771
1496.65235	0.22741
1494.72368	0.22751
1492.79500	0.22747
1490.86633	0.22704
1488.93765	0.22670
1487.00897	0.22665
1485.08030	0.22660
1483.15162	0.22630
1481.22295	0.22583
1479.29427	0.22531
1477.36560	0.22468
1475.43692	0.22383
1473.50824	0.22297
1471.57957	0.22251
1469.65089	0.22229
1467.72222	0.22188
1465.79354	0.22134
1463.86487	0.22097
1461.93619	0.22057
1460.00751	0.21986
1458.07884	0.21920
1456.15016	0.21921
1454.22149	0.21968
1452.29281	0.21997
1450.36414	0.21995
1448.43546	0.21982
1446.50678	0.21981
1444.57811	0.21996
1442.64943	0.22011
1440.72076	0.22002
1438.79208	0.21963
1436.86341	0.21936
1434.93473	0.21955
1433.00605	0.21982
1431.07738	0.21978
1429.14870	0.21963
1427.22003	0.21943
1425.29135	0.21908
1423.36268	0.21865
1421.43400	0.21813
1419.50532	0.21763
1417.57665	0.21747
1415.64797	0.21755
1413.71930	0.21750
1411.79062	0.21735
1409.86195	0.21722
1407.93327	0.21708
1406.00459	0.21691
1404.07592	0.21691
1402.14724	0.21701
1400.21857	0.21700
1398.28989	0.21688
1396.36122	0.21677
1394.43254	0.21675
1392.50386	0.21681
1390.57519	0.21664
1388.64651	0.21611
1386.71784	0.21556
1384.78916	0.21527
1382.86049	0.21513
1380.93181	0.21500
1379.00313	0.21483
1377.07446	0.21459
1375.14578	0.21426
1373.21711	0.21401
1371.28843	0.21388
1369.35976	0.21373
1367.43108	0.21347
1365.50240	0.21306
1363.57373	0.21260
1361.64505	0.21237
1359.71638	0.21240
1357.78770	0.21244
1355.85903	0.21248
1353.93035	0.21264
1352.00167	0.21285
1350.07300	0.21301
1348.14432	0.21304
1346.21565	0.21298
1344.28697	0.21287
1342.35830	0.21268
1340.42962	0.21238
1338.50094	0.21211
1336.57227	0.21195
1334.64359	0.21180
1332.71492	0.21153
1330.78624	0.21119
1328.85757	0.21081
1326.92889	0.21037
1325.00021	0.20988
1323.07154	0.20941
1321.14286	0.20896
1319.21419	0.20847
1317.28551	0.20797
1315.35684	0.20749
1313.42816	0.20699
1311.49948	0.20640
1309.57081	0.20574
1307.64213	0.20510
1305.71346	0.20451
1303.78478	0.20391
1301.85611	0.20332
1299.92743	0.20274
1297.99875	0.20212
1296.07008	0.20144
1294.14140	0.20073
1292.21273	0.19993
1290.28405	0.19893
1288.35538	0.19768
1286.42670	0.19612
1284.49802	0.19429
1282.56935	0.19230
1280.64067	0.19032
1278.71200	0.18864
1276.78332	0.18758
1274.85465	0.18714
1272.92597	0.18713
1270.99729	0.18724
1269.06862	0.18718
1267.13994	0.18694
1265.21127	0.18670
1263.28259	0.18661
1261.35392	0.18667
1259.42524	0.18686
1257.49656	0.18715
1255.56789	0.18731
1253.63921	0.18716
1251.71054	0.18670
1249.78186	0.18600
1247.85319	0.18512
1245.92451	0.18413
1243.99583	0.18307
1242.06716	0.18195
1240.13848	0.18076
1238.20981	0.17951
1236.28113	0.17818
1234.35246	0.17675
1232.42378	0.17524
1230.49510	0.17368
1228.56643	0.17205
1226.63775	0.17037
1224.70908	0.16876
1222.78040	0.16724
1220.85173	0.16568
1218.92305	0.16401
1216.99437	0.16226
1215.06570	0.16047
1213.13702	0.15867
1211.20835	0.15686
1209.27967	0.15504
1207.35100	0.15323
1205.42232	0.15149
1203.49364	0.14979
1201.56497	0.14805
1199.63629	0.14629
1197.70762	0.14460
1195.77894	0.14299
1193.85027	0.14138
1191.92159	0.13973
1189.99291	0.13806
1188.06424	0.13643
1186.13556	0.13485
1184.20689	0.13329
1182.27821	0.13171
1180.34954	0.13004
1178.42086	0.12832
1176.49218	0.12663
1174.56351	0.12501
1172.63483	0.12348
1170.70616	0.12200
1168.77748	0.12050
1166.84881	0.11896
1164.92013	0.11745
1162.99145	0.11600
1161.06278	0.11458
1159.13410	0.11321
1157.20543	0.11191
1155.27675	0.11065
1153.34808	0.10939
1151.41940	0.10806
1149.49072	0.10670
1147.56205	0.10539
1145.63337	0.10414
1143.70470	0.10295
1141.77602	0.10171
1139.84735	0.10037
1137.91867	0.09899
1135.98999	0.09758
1134.06132	0.09608
1132.13264	0.09448
1130.20397	0.09280
1128.27529	0.09098
1126.34662	0.08901
1124.41794	0.08698
1122.48926	0.08496
1120.56059	0.08303
1118.63191	0.08119
1116.70324	0.07939
1114.77456	0.07767
1112.84589	0.07615
1110.91721	0.07482
1108.98853	0.07364
1107.05986	0.07258
1105.13118	0.07164
1103.20251	0.07090
1101.27383	0.07041
1099.34516	0.07003
1097.41648	0.06960
1095.48780	0.06914
1093.55913	0.06869
1091.63045	0.06831
1089.70178	0.06795
1087.77310	0.06749
1085.84443	0.06685
1083.91575	0.06607
1081.98707	0.06523
1080.05840	0.06435
1078.12972	0.06346
1076.20105	0.06254
1074.27237	0.06159
1072.34370	0.06067
1070.41502	0.05981
1068.48634	0.05897
1066.55767	0.05816
1064.62899	0.05737
1062.70032	0.05664
1060.77164	0.05607
1058.84297	0.05557
1056.91429	0.05509
1054.98561	0.05472
1053.05694	0.05452
1051.12826	0.05438
1049.19959	0.05432
1047.27091	0.05435
1045.34224	0.05439
1043.41356	0.05449
1041.48488	0.05477
1039.55621	0.05521
1037.62753	0.05573
1035.69886	0.05633
1033.77018	0.05699
1031.84151	0.05770
1029.91283	0.05856
1027.98415	0.05959
1026.05548	0.06071
1024.12680	0.06193
1022.19813	0.06330
1020.26945	0.06486
1018.34078	0.06660
1016.41210	0.06847
1014.48342	0.07048
1012.55475	0.07263
1010.62607	0.07493
1008.69740	0.07738
1006.76872	0.08000
1004.84005	0.08275
1002.91137	0.08555
1000.98269	0.08836
999.05402	0.09123
997.12534	0.09418
995.19667	0.09717
993.26799	0.10010
991.33932	0.10295
989.41064	0.10578
987.48196	0.10855
985.55329	0.11123
983.62461	0.11380
981.69594	0.11621
979.76726	0.11843
977.83859	0.12051
975.90991	0.12240
973.98123	0.12404
972.05256	0.12551
970.12388	0.12690
968.19521	0.12817
966.26653	0.12925
964.33786	0.13020
962.40918	0.13103
960.48050	0.13168
958.55183	0.13218
956.62315	0.13260
954.69448	0.13294
952.76580	0.13315
950.83713	0.13320
948.90845	0.13319
946.97977	0.13318
945.05110	0.13304
943.12242	0.13271
941.19375	0.13230
939.26507	0.13191
937.33640	0.13150
935.40772	0.13102
933.47904	0.13048
931.55037	0.12988
929.62169	0.12925
927.69302	0.12866
925.76434	0.12804
923.83567	0.12731
921.90699	0.12655
919.97831	0.12580
918.04964	0.12499
916.12096	0.12412
914.19229	0.12315
912.26361	0.12205
910.33494	0.12093
908.40626	0.11992
906.47758	0.11896
904.54891	0.11794
902.62023	0.11682
900.69156	0.11568
898.76288	0.11458
896.83421	0.11350
894.90553	0.11248
892.97685	0.11154
891.04818	0.11067
889.11950	0.10986
887.19083	0.10918
885.26215	0.10867
883.33348	0.10829
881.40480	0.10803
879.47612	0.10792
877.54745	0.10799
875.61877	0.10830
873.69010	0.10880
871.76142	0.10933
869.83275	0.10979
867.90407	0.11015
865.97539	0.11038
864.04672	0.11051
862.11804	0.11065
860.18937	0.11077
858.26069	0.11080
856.33202	0.11063
854.40334	0.11029
852.47466	0.10983
850.54599	0.10927
848.61731	0.10865
846.68864	0.10803
844.75996	0.10746
842.83129	0.10688
840.90261	0.10629
838.97394	0.10569
837.04526	0.10496
835.11658	0.10407
833.18791	0.10308
831.25923	0.10199
829.33056	0.10080
827.40188	0.09963
825.47321	0.09850
823.54453	0.09744
821.61585	0.09647
819.68718	0.09562
817.75850	0.09492
815.82983	0.09439
813.90115	0.09390
811.97248	0.09340
810.04380	0.09295
808.11512	0.09262
806.18645	0.09247
804.25777	0.09244
802.32910	0.09246
800.40042	0.09235
798.47175	0.09201
796.54307	0.09166
794.61439	0.09148
792.68572	0.09141
790.75704	0.09139
788.82837	0.09151
786.89969	0.09180
784.97102	0.09212
783.04234	0.09230
781.11366	0.09240
779.18499	0.09253
777.25631	0.09268
775.32764	0.09278
773.39896	0.09287
771.47029	0.09300
769.54161	0.09311
767.61293	0.09317
765.68426	0.09323
763.75558	0.09326
761.82691	0.09323
759.89823	0.09317
757.96956	0.09305
756.04088	0.09279
754.11220	0.09247
752.18353	0.09219
750.25485	0.09190
748.32618	0.09151
746.39750	0.09105
744.46883	0.09053
742.54015	0.08994
740.61147	0.08936
738.68280	0.08900
736.75412	0.08897
734.82545	0.08911
732.89677	0.08930
730.96810	0.08951
729.03942	0.08974
727.11074	0.09001
725.18207	0.09033
723.25339	0.09065
721.32472	0.09091
719.39604	0.09117
717.46737	0.09147
715.53869	0.09180
713.61001	0.09222
711.68134	0.09265
709.75266	0.09291
707.82399	0.09298
705.89531	0.09300
703.96664	0.09297
702.03796	0.09272
700.10928	0.09223
698.18061	0.09167
696.25193	0.09117
694.32326	0.09071
692.39458	0.09025
690.46591	0.08981
688.53723	0.08933
686.60855	0.08879
684.67988	0.08824
682.75120	0.08772
680.82253	0.08724
678.89385	0.08678
676.96518	0.08626
675.03650	0.08565
673.10782	0.08497
671.17915	0.08421
669.25047	0.08333
667.32180	0.08251
665.39312	0.08181
663.46445	0.08106
661.53577	0.08020
659.60709	0.07929
657.67842	0.07837
655.74974	0.07754
653.82107	0.07682
651.89239	0.07613
649.96372	0.07536
648.03504	0.07448
646.10636	0.07359
644.17769	0.07272
642.24901	0.07180
640.32034	0.07081
638.39166	0.06985
636.46299	0.06890
634.53431	0.06783
632.60563	0.06639
630.67696	0.06410
628.74828	0.06075
626.81961	0.05656
624.89093	0.05226
622.96226	0.04881
621.03358	0.04674
619.10490	0.04570
617.17623	0.04493
615.24755	0.04401
613.31888	0.04304
611.39020	0.04211
609.46153	0.04156
607.53285	0.04158
605.60417	0.04192
603.67550	0.04235
601.74682	0.04301
599.81815	0.04388
597.88947	0.04464
595.96080	0.04516
594.03212	0.04558
592.10344	0.04590
590.17477	0.04608
588.24609	0.04613
586.31742	0.04605
584.38874	0.04583
582.46007	0.04549
580.53139	0.04507
578.60271	0.04459
576.67404	0.04409
574.74536	0.04358
572.81669	0.04303
570.88801	0.04240
568.95934	0.04170
567.03066	0.04104
565.10198	0.04057
563.17331	0.04029
561.24463	0.04013
559.31596	0.03996
557.38728	0.03971
555.45861	0.03945
553.52993	0.03925
551.60125	0.03913
549.67258	0.03899
547.74390	0.03880
545.81523	0.03857
543.88655	0.03835
541.95788	0.03818
540.02920	0.03811
538.10052	0.03808
536.17185	0.03792
534.24317	0.03760
532.31450	0.03722
530.38582	0.03684
528.45715	0.03643
526.52847	0.03606
524.59979	0.03578
522.67112	0.03546
520.74244	0.03498
518.81377	0.03439
516.88509	0.03372
514.95642	0.03309
513.02774	0.03269
511.09906	0.03246
509.17039	0.03225
507.24171	0.03202
505.31304	0.03174
503.38436	0.03128
501.45569	0.03065
499.52701	0.02995
497.59833	0.02930
495.66966	0.02872
493.74098	0.02810
491.81231	0.02741
489.88363	0.02674
487.95496	0.02615
486.02628	0.02558
484.09760	0.02499
482.16893	0.02431
480.24025	0.02361
478.31158	0.02290
476.38290	0.02223
474.45423	0.02168
472.52555	0.02118
470.59687	0.02070
468.66820	0.02026
466.73952	0.01985
464.81085	0.01946
462.88217	0.01919
460.95350	0.01901
459.02482	0.01886
457.09614	0.01871
455.16747	0.01851
453.23879	0.01831
451.31012	0.01821
449.38144	0.01816
447.45277	0.01801
445.52409	0.01779
443.59541	0.01757
441.66674	0.01731
439.73806	0.01698
437.80939	0.01664
435.88071	0.01638
433.95204	0.01610
432.02336	0.01573
430.09468	0.01530
428.16601	0.01483
426.23733	0.01438
424.30866	0.01398
422.37998	0.01350
420.45131	0.01284
418.52263	0.01217
416.59395	0.01167
414.66528	0.01129
412.73660	0.01095
410.80793	0.01055
408.87925	0.01002
406.95058	0.00948
405.02190	0.00903
403.09322	0.00857
401.16455	0.00809
399.23587	0.00760
397.30720	0.00710
395.37852	0.00664
393.44985	0.00636
391.52117	0.00616
389.59249	0.00576
387.66382	0.00523
385.73514	0.00486
383.80647	0.00463
381.87779	0.00432
379.94912	0.00395
378.02044	0.00371
376.09176	0.00355
374.16309	0.00324
372.23441	0.00282
370.30574	0.00251
368.37706	0.00230
