7496.76250	0.00148
7494.83382	0.00150
7492.90514	0.00151
7490.97647	0.00150
7489.04779	0.00149
7487.11912	0.00150
7485.19044	0.00150
7483.26177	0.00150
7481.33309	0.00151
7479.40441	0.00151
7477.47574	0.00150
7475.54706	0.00152
7473.61839	0.00154
7471.68971	0.00156
7469.76104	0.00156
7467.83236	0.00155
7465.90368	0.00155
7463.97501	0.00157
7462.04633	0.00158
7460.11766	0.00157
7458.18898	0.00156
7456.26031	0.00156
7454.33163	0.00158
7452.40295	0.00160
7450.47428	0.00160
7448.54560	0.00160
7446.61693	0.00159
7444.68825	0.00159
7442.75958	0.00161
7440.83090	0.00162
7438.90222	0.00162
7436.97355	0.00163
7435.04487	0.00163
7433.11620	0.00163
7431.18752	0.00163
7429.25885	0.00162
7427.33017	0.00162
7425.40149	0.00164
7423.47282	0.00165
7421.54414	0.00165
7419.61547	0.00165
7417.68679	0.00165
7415.75812	0.00165
7413.82944	0.00165
7411.90076	0.00166
7409.97209	0.00167
7408.04341	0.00168
7406.11474	0.00169
7404.18606	0.00168
7402.25739	0.00167
7400.32871	0.00167
7398.40003	0.00169
7396.47136	0.00170
7394.54268	0.00169
7392.61401	0.00170
7390.68533	0.00173
7388.75666	0.00174
7386.82798	0.00173
7384.89930	0.00173
7382.97063	0.00173
7381.04195	0.00174
7379.11328	0.00175
7377.18460	0.00175
7375.25593	0.00175
7373.32725	0.00176
7371.39857	0.00176
7369.46990	0.00177
7367.54122	0.00177
7365.61255	0.00179
7363.68387	0.00181
7361.75520	0.00182
7359.82652	0.00182
7357.89784	0.00181
7355.96917	0.00180
7354.04049	0.00181
7352.11182	0.00181
7350.18314	0.00180
7348.25447	0.00180
7346.32579	0.00181
7344.39711	0.00183
7342.46844	0.00184
7340.53976	0.00185
7338.61109	0.00185
7336.68241	0.00184
7334.75374	0.00185
7332.82506	0.00187
7330.89638	0.00189
7328.96771	0.00189
7327.03903	0.00189
7325.11036	0.00190
7323.18168	0.00190
7321.25301	0.00190
7319.32433	0.00191
7317.39565	0.00191
7315.46698	0.00191
7313.53830	0.00192
7311.60963	0.00193
7309.68095	0.00192
7307.75228	0.00192
7305.82360	0.00193
7303.89492	0.00195
7301.96625	0.00195
7300.03757	0.00194
7298.10890	0.00194
7296.18022	0.00195
7294.25155	0.00196
7292.32287	0.00197
7290.39419	0.00196
7288.46552	0.00196
7286.53684	0.00197
7284.60817	0.00198
7282.67949	0.00198
7280.75082	0.00199
7278.82214	0.00200
7276.89346	0.00200
7274.96479	0.00201
7273.03611	0.00203
7271.10744	0.00204
7269.17876	0.00204
7267.25009	0.00204
7265.32141	0.00204
7263.39273	0.00204
7261.46406	0.00204
7259.53538	0.00204
7257.60671	0.00205
7255.67803	0.00206
7253.74936	0.00207
7251.82068	0.00208
7249.89200	0.00209
7247.96333	0.00208
7246.03465	0.00209
7244.10598	0.00210
7242.17730	0.00210
7240.24863	0.00211
7238.31995	0.00211
7236.39127	0.00210
7234.46260	0.00210
7232.53392	0.00210
7230.60525	0.00211
7228.67657	0.00212
7226.74790	0.00213
7224.81922	0.00214
7222.89054	0.00215
7220.96187	0.00215
7219.03319	0.00216
7217.10452	0.00215
7215.17584	0.00214
7213.24717	0.00214
7211.31849	0.00215
7209.38981	0.00216
7207.46114	0.00218
7205.53246	0.00219
7203.60379	0.00220
7201.67511	0.00221
7199.74644	0.00221
7197.81776	0.00222
7195.88908	0.00221
7193.96041	0.00222
7192.03173	0.00224
7190.10306	0.00226
7188.17438	0.00226
7186.24571	0.00225
7184.31703	0.00225
7182.38835	0.00227
7180.45968	0.00228
7178.53100	0.00228
7176.60233	0.00229
7174.67365	0.00229
7172.74498	0.00230
7170.81630	0.00230
7168.88762	0.00231
7166.95895	0.00230
7165.03027	0.00230
7163.10160	0.00230
7161.17292	0.00231
7159.24425	0.00231
7157.31557	0.00231
7155.38689	0.00232
7153.45822	0.00234
7151.52954	0.00235
7149.60087	0.00236
7147.67219	0.00237
7145.74352	0.00238
7143.81484	0.00238
7141.88616	0.00238
7139.95749	0.00239
7138.02881	0.00239
7136.10014	0.00239
7134.17146	0.00239
7132.24279	0.00238
7130.31411	0.00238
7128.38543	0.00239
7126.45676	0.00240
7124.52808	0.00240
7122.59941	0.00241
7120.67073	0.00241
7118.74206	0.00242
7116.81338	0.00242
7114.88470	0.00243
7112.95603	0.00244
7111.02735	0.00245
7109.09868	0.00244
7107.17000	0.00244
7105.24133	0.00244
7103.31265	0.00245
7101.38397	0.00247
7099.45530	0.00250
7097.52662	0.00251
7095.59795	0.00250
7093.66927	0.00250
7091.74060	0.00251
7089.81192	0.00252
7087.88324	0.00253
7085.95457	0.00253
7084.02589	0.00253
7082.09722	0.00254
7080.16854	0.00256
7078.23987	0.00258
7076.31119	0.00260
7074.38251	0.00259
7072.45384	0.00258
7070.52516	0.00258
7068.59649	0.00257
7066.66781	0.00256
7064.73914	0.00256
7062.81046	0.00256
7060.88178	0.00259
7058.95311	0.00261
7057.02443	0.00261
7055.09576	0.00261
7053.16708	0.00263
7051.23841	0.00263
7049.30973	0.00261
7047.38105	0.00261
7045.45238	0.00263
7043.52370	0.00266
7041.59503	0.00268
7039.66635	0.00267
7037.73768	0.00267
7035.80900	0.00268
7033.88032	0.00268
7031.95165	0.00268
7030.02297	0.00269
7028.09430	0.00270
7026.16562	0.00269
7024.23695	0.00268
7022.30827	0.00269
7020.37959	0.00272
7018.45092	0.00274
7016.52224	0.00275
7014.59357	0.00275
7012.66489	0.00275
7010.73622	0.00275
7008.80754	0.00274
7006.87886	0.00274
7004.95019	0.00276
7003.02151	0.00277
7001.09284	0.00276
6999.16416	0.00276
6997.23549	0.00277
6995.30681	0.00278
6993.37813	0.00280
6991.44946	0.00280
6989.52078	0.00280
6987.59211	0.00280
6985.66343	0.00281
6983.73476	0.00282
6981.80608	0.00283
6979.87740	0.00284
6977.94873	0.00285
6976.02005	0.00284
6974.09138	0.00284
6972.16270	0.00284
6970.23403	0.00286
6968.30535	0.00288
6966.37667	0.00289
6964.44800	0.00289
6962.51932	0.00289
6960.59065	0.00291
6958.66197	0.00292
6956.73330	0.00291
6954.80462	0.00291
6952.87594	0.00292
6950.94727	0.00292
6949.01859	0.00293
6947.08992	0.00294
6945.16124	0.00295
6943.23257	0.00295
6941.30389	0.00296
6939.37521	0.00298
6937.44654	0.00298
6935.51786	0.00297
6933.58919	0.00297
6931.66051	0.00299
6929.73184	0.00301
6927.80316	0.00303
6925.87448	0.00304
6923.94581	0.00302
6922.01713	0.00301
6920.08846	0.00302
6918.15978	0.00303
6916.23111	0.00304
6914.30243	0.00303
6912.37375	0.00303
6910.44508	0.00304
6908.51640	0.00306
6906.58773	0.00308
6904.65905	0.00309
6902.73038	0.00309
6900.80170	0.00310
6898.87302	0.00310
6896.94435	0.00310
6895.01567	0.00311
6893.08700	0.00311
6891.15832	0.00311
6889.22965	0.00311
6887.30097	0.00312
6885.37229	0.00314
6883.44362	0.00315
6881.51494	0.00316
6879.58627	0.00317
6877.65759	0.00317
6875.72892	0.00316
6873.80024	0.00317
6871.87156	0.00318
6869.94289	0.00320
6868.01421	0.00322
6866.08554	0.00322
6864.15686	0.00322
6862.22819	0.00324
6860.29951	0.00326
6858.37083	0.00327
6856.44216	0.00326
6854.51348	0.00324
6852.58481	0.00323
6850.65613	0.00323
6848.72746	0.00325
6846.79878	0.00326
6844.87010	0.00328
6842.94143	0.00328
6841.01275	0.00327
6839.08408	0.00327
6837.15540	0.00330
6835.22673	0.00332
6833.29805	0.00332
6831.36937	0.00331
6829.44070	0.00331
6827.51202	0.00333
6825.58335	0.00334
6823.65467	0.00335
6821.72600	0.00334
6819.79732	0.00335
6817.86864	0.00337
6815.93997	0.00339
6814.01129	0.00338
6812.08262	0.00337
6810.15394	0.00338
6808.22527	0.00340
6806.29659	0.00340
6804.36791	0.00341
6802.43924	0.00341
6800.51056	0.00341
6798.58189	0.00342
6796.65321	0.00344
6794.72454	0.00345
6792.79586	0.00348
6790.86718	0.00349
6788.93851	0.00350
6787.00983	0.00350
6785.08116	0.00350
6783.15248	0.00351
6781.22381	0.00352
6779.29513	0.00352
6777.36645	0.00352
6775.43778	0.00352
6773.50910	0.00353
6771.58043	0.00354
6769.65175	0.00355
6767.72308	0.00355
6765.79440	0.00356
6763.86572	0.00357
6761.93705	0.00358
6760.00837	0.00359
6758.07970	0.00360
6756.15102	0.00361
6754.22235	0.00362
6752.29367	0.00362
6750.36499	0.00362
6748.43632	0.00363
6746.50764	0.00364
6744.57897	0.00363
6742.65029	0.00363
6740.72162	0.00364
6738.79294	0.00366
6736.86426	0.00368
6734.93559	0.00368
6733.00691	0.00369
6731.07824	0.00369
6729.14956	0.00369
6727.22089	0.00370
6725.29221	0.00371
6723.36353	0.00373
6721.43486	0.00374
6719.50618	0.00374
6717.57751	0.00374
6715.64883	0.00374
6713.72016	0.00374
6711.79148	0.00374
6709.86280	0.00375
6707.93413	0.00377
6706.00545	0.00378
6704.07678	0.00379
6702.14810	0.00380
6700.21943	0.00381
6698.29075	0.00382
6696.36207	0.00382
6694.43340	0.00382
6692.50472	0.00383
6690.57605	0.00383
6688.64737	0.00384
6686.71870	0.00386
6684.79002	0.00387
6682.86134	0.00387
6680.93267	0.00387
6679.00399	0.00388
6677.07532	0.00388
6675.14664	0.00389
6673.21797	0.00391
6671.28929	0.00392
6669.36061	0.00393
6667.43194	0.00393
6665.50326	0.00393
6663.57459	0.00395
6661.64591	0.00396
6659.71724	0.00396
6657.78856	0.00395
6655.85988	0.00396
6653.93121	0.00398
6652.00253	0.00399
6650.07386	0.00399
6648.14518	0.00401
6646.21651	0.00402
6644.28783	0.00404
6642.35915	0.00406
6640.43048	0.00408
6638.50180	0.00408
6636.57313	0.00407
6634.64445	0.00405
6632.71578	0.00406
6630.78710	0.00407
6628.85842	0.00408
6626.92975	0.00409
6625.00107	0.00411
6623.07240	0.00411
6621.14372	0.00412
6619.21505	0.00413
6617.28637	0.00413
6615.35769	0.00414
6613.42902	0.00414
6611.50034	0.00414
6609.57167	0.00415
6607.64299	0.00416
6605.71432	0.00417
6603.78564	0.00418
6601.85696	0.00420
6599.92829	0.00421
6597.99961	0.00422
6596.07094	0.00423
6594.14226	0.00423
6592.21359	0.00423
6590.28491	0.00423
6588.35623	0.00423
6586.42756	0.00424
6584.49888	0.00426
6582.57021	0.00427
6580.64153	0.00427
6578.71286	0.00426
6576.78418	0.00426
6574.85550	0.00427
6572.92683	0.00430
6570.99815	0.00433
6569.06948	0.00436
6567.14080	0.00438
6565.21213	0.00436
6563.28345	0.00435
6561.35477	0.00435
6559.42610	0.00437
6557.49742	0.00437
6555.56875	0.00437
6553.64007	0.00437
6551.71140	0.00438
6549.78272	0.00440
6547.85404	0.00442
6545.92537	0.00444
6543.99669	0.00446
6542.06802	0.00446
6540.13934	0.00445
6538.21067	0.00446
6536.28199	0.00447
6534.35331	0.00447
6532.42464	0.00447
6530.49596	0.00446
6528.56729	0.00447
6526.63861	0.00449
6524.70994	0.00451
6522.78126	0.00454
6520.85258	0.00455
6518.92391	0.00454
6516.99523	0.00454
6515.06656	0.00455
6513.13788	0.00457
6511.20921	0.00457
6509.28053	0.00457
6507.35185	0.00459
6505.42318	0.00462
6503.49450	0.00464
6501.56583	0.00465
6499.63715	0.00465
6497.70848	0.00465
6495.77980	0.00465
6493.85112	0.00466
6491.92245	0.00466
6489.99377	0.00466
6488.06510	0.00467
6486.13642	0.00469
6484.20775	0.00469
6482.27907	0.00470
6480.35039	0.00470
6478.42172	0.00470
6476.49304	0.00470
6474.56437	0.00471
6472.63569	0.00472
6470.70702	0.00473
6468.77834	0.00476
6466.84966	0.00477
6464.92099	0.00478
6462.99231	0.00478
6461.06364	0.00477
6459.13496	0.00478
6457.20629	0.00479
6455.27761	0.00481
6453.34893	0.00482
6451.42026	0.00484
6449.49158	0.00485
6447.56291	0.00486
6445.63423	0.00487
6443.70556	0.00487
6441.77688	0.00488
6439.84820	0.00490
6437.91953	0.00491
6435.99085	0.00491
6434.06218	0.00489
6432.13350	0.00488
6430.20483	0.00489
6428.27615	0.00493
6426.34747	0.00496
6424.41880	0.00496
6422.49012	0.00495
6420.56145	0.00496
6418.63277	0.00497
6416.70410	0.00499
6414.77542	0.00503
6412.84674	0.00505
6410.91807	0.00505
6408.98939	0.00504
6407.06072	0.00505
6405.13204	0.00505
6403.20337	0.00506
6401.27469	0.00507
6399.34601	0.00508
6397.41734	0.00509
6395.48866	0.00511
6393.55999	0.00512
6391.63131	0.00512
6389.70264	0.00512
6387.77396	0.00513
6385.84528	0.00514
6383.91661	0.00516
6381.98793	0.00518
6380.05926	0.00517
6378.13058	0.00516
6376.20191	0.00519
6374.27323	0.00522
6372.34455	0.00525
6370.41588	0.00527
6368.48720	0.00526
6366.55853	0.00525
6364.62985	0.00524
6362.70118	0.00525
6360.77250	0.00526
6358.84382	0.00529
6356.91515	0.00530
6354.98647	0.00530
6353.05780	0.00531
6351.12912	0.00534
6349.20045	0.00537
6347.27177	0.00538
6345.34309	0.00539
6343.41442	0.00539
6341.48574	0.00539
6339.55707	0.00539
6337.62839	0.00540
6335.69972	0.00543
6333.77104	0.00544
6331.84236	0.00544
6329.91369	0.00543
6327.98501	0.00543
6326.05634	0.00544
6324.12766	0.00545
6322.19899	0.00546
6320.27031	0.00547
6318.34163	0.00549
6316.41296	0.00550
6314.48428	0.00551
6312.55561	0.00552
6310.62693	0.00551
6308.69826	0.00551
6306.76958	0.00553
6304.84090	0.00555
6302.91223	0.00556
6300.98355	0.00557
6299.05488	0.00561
6297.12620	0.00564
6295.19753	0.00564
6293.26885	0.00563
6291.34017	0.00565
6289.41150	0.00567
6287.48282	0.00566
6285.55415	0.00565
6283.62547	0.00566
6281.69680	0.00568
6279.76812	0.00570
6277.83944	0.00571
6275.91077	0.00571
6273.98209	0.00570
6272.05342	0.00570
6270.12474	0.00572
6268.19607	0.00574
6266.26739	0.00575
6264.33871	0.00576
6262.41004	0.00577
6260.48136	0.00578
6258.55269	0.00580
6256.62401	0.00581
6254.69534	0.00582
6252.76666	0.00583
6250.83798	0.00584
6248.90931	0.00585
6246.98063	0.00585
6245.05196	0.00586
6243.12328	0.00588
6241.19461	0.00589
6239.26593	0.00590
6237.33725	0.00592
6235.40858	0.00593
6233.47990	0.00593
6231.55123	0.00594
6229.62255	0.00596
6227.69388	0.00598
6225.76520	0.00599
6223.83652	0.00599
6221.90785	0.00598
6219.97917	0.00598
6218.05050	0.00598
6216.12182	0.00601
6214.19315	0.00603
6212.26447	0.00605
6210.33579	0.00605
6208.40712	0.00604
6206.47844	0.00606
6204.54977	0.00609
6202.62109	0.00610
6200.69242	0.00611
6198.76374	0.00614
6196.83506	0.00616
6194.90639	0.00617
6192.97771	0.00617
6191.04904	0.00619
6189.12036	0.00620
6187.19169	0.00622
6185.26301	0.00623
6183.33433	0.00624
6181.40566	0.00624
6179.47698	0.00625
6177.54831	0.00626
6175.61963	0.00627
6173.69096	0.00628
6171.76228	0.00630
6169.83360	0.00632
6167.90493	0.00633
6165.97625	0.00633
6164.04758	0.00633
6162.11890	0.00633
6160.19023	0.00635
6158.26155	0.00637
6156.33287	0.00639
6154.40420	0.00640
6152.47552	0.00641
6150.54685	0.00643
6148.61817	0.00644
6146.68950	0.00645
6144.76082	0.00647
6142.83214	0.00648
6140.90347	0.00649
6138.97479	0.00650
6137.04612	0.00651
6135.11744	0.00654
6133.18877	0.00655
6131.26009	0.00655
6129.33141	0.00657
6127.40274	0.00658
6125.47406	0.00659
6123.54539	0.00659
6121.61671	0.00658
6119.68804	0.00658
6117.75936	0.00659
6115.83068	0.00662
6113.90201	0.00664
6111.97333	0.00665
6110.04466	0.00667
6108.11598	0.00669
6106.18731	0.00670
6104.25863	0.00672
6102.32995	0.00674
6100.40128	0.00674
6098.47260	0.00674
6096.54393	0.00675
6094.61525	0.00676
6092.68658	0.00677
6090.75790	0.00679
6088.82922	0.00680
6086.90055	0.00681
6084.97187	0.00682
6083.04320	0.00683
6081.11452	0.00685
6079.18585	0.00686
6077.25717	0.00688
6075.32849	0.00689
6073.39982	0.00690
6071.47114	0.00692
6069.54247	0.00693
6067.61379	0.00693
6065.68512	0.00693
6063.75644	0.00695
6061.82776	0.00696
6059.89909	0.00698
6057.97041	0.00698
6056.04174	0.00700
6054.11306	0.00701
6052.18439	0.00703
6050.25571	0.00704
6048.32703	0.00705
6046.39836	0.00707
6044.46968	0.00709
6042.54101	0.00709
6040.61233	0.00709
6038.68366	0.00711
6036.75498	0.00713
6034.82630	0.00715
6032.89763	0.00716
6030.96895	0.00718
6029.04028	0.00721
6027.11160	0.00723
6025.18293	0.00723
6023.25425	0.00721
6021.32557	0.00721
6019.39690	0.00722
6017.46822	0.00724
6015.53955	0.00725
6013.61087	0.00726
6011.68220	0.00726
6009.75352	0.00728
6007.82484	0.00730
6005.89617	0.00732
6003.96749	0.00734
6002.03882	0.00735
6000.11014	0.00735
5998.18147	0.00734
5996.25279	0.00737
5994.32411	0.00741
5992.39544	0.00743
5990.46676	0.00743
5988.53809	0.00743
5986.60941	0.00744
5984.68074	0.00745
5982.75206	0.00747
5980.82338	0.00748
5978.89471	0.00749
5976.96603	0.00750
5975.03736	0.00754
5973.10868	0.00757
5971.18001	0.00758
5969.25133	0.00759
5967.32265	0.00759
5965.39398	0.00761
5963.46530	0.00761
5961.53663	0.00761
5959.60795	0.00762
5957.67928	0.00763
5955.75060	0.00765
5953.82192	0.00767
5951.89325	0.00769
5949.96457	0.00772
5948.03590	0.00775
5946.10722	0.00776
5944.17855	0.00775
5942.24987	0.00775
5940.32119	0.00776
5938.39252	0.00777
5936.46384	0.00781
5934.53517	0.00784
5932.60649	0.00785
5930.67782	0.00784
5928.74914	0.00784
5926.82046	0.00786
5924.89179	0.00789
5922.96311	0.00790
5921.03444	0.00791
5919.10576	0.00792
5917.17709	0.00793
5915.24841	0.00794
5913.31973	0.00795
5911.39106	0.00797
5909.46238	0.00797
5907.53371	0.00798
5905.60503	0.00800
5903.67636	0.00800
5901.74768	0.00802
5899.81900	0.00805
5897.89033	0.00806
5895.96165	0.00807
5894.03298	0.00808
5892.10430	0.00810
5890.17563	0.00811
5888.24695	0.00811
5886.31827	0.00812
5884.38960	0.00814
5882.46092	0.00817
5880.53225	0.00820
5878.60357	0.00822
5876.67490	0.00823
5874.74622	0.00824
5872.81755	0.00827
5870.88887	0.00828
5868.96019	0.00829
5867.03152	0.00830
5865.10284	0.00833
5863.17417	0.00835
5861.24549	0.00836
5859.31682	0.00836
5857.38814	0.00837
5855.45946	0.00838
5853.53079	0.00839
5851.60211	0.00838
5849.67344	0.00840
5847.74476	0.00842
5845.81609	0.00845
5843.88741	0.00846
5841.95873	0.00848
5840.03006	0.00851
5838.10138	0.00853
5836.17271	0.00855
5834.24403	0.00855
5832.31536	0.00856
5830.38668	0.00856
5828.45800	0.00856
5826.52933	0.00857
5824.60065	0.00859
5822.67198	0.00862
5820.74330	0.00865
5818.81463	0.00868
5816.88595	0.00869
5814.95727	0.00869
5813.02860	0.00868
5811.09992	0.00869
5809.17125	0.00872
5807.24257	0.00876
5805.31390	0.00878
5803.38522	0.00879
5801.45654	0.00880
5799.52787	0.00881
5797.59919	0.00882
5795.67052	0.00883
5793.74184	0.00884
5791.81317	0.00887
5789.88449	0.00889
5787.95581	0.00891
5786.02714	0.00890
5784.09846	0.00891
5782.16979	0.00892
5780.24111	0.00893
5778.31244	0.00895
5776.38376	0.00899
5774.45508	0.00902
5772.52641	0.00903
5770.59773	0.00904
5768.66906	0.00905
5766.74038	0.00907
5764.81171	0.00908
5762.88303	0.00908
5760.95435	0.00909
5759.02568	0.00912
5757.09700	0.00914
5755.16833	0.00916
5753.23965	0.00918
5751.31098	0.00920
5749.38230	0.00920
5747.45362	0.00921
5745.52495	0.00924
5743.59627	0.00926
5741.66760	0.00928
5739.73892	0.00930
5737.81025	0.00931
5735.88157	0.00932
5733.95289	0.00935
5732.02422	0.00936
5730.09554	0.00937
5728.16687	0.00938
5726.23819	0.00939
5724.30952	0.00940
5722.38084	0.00942
5720.45216	0.00945
5718.52349	0.00948
5716.59481	0.00949
5714.66614	0.00950
5712.73746	0.00950
5710.80879	0.00951
5708.88011	0.00951
5706.95143	0.00952
5705.02276	0.00954
5703.09408	0.00957
5701.16541	0.00958
5699.23673	0.00960
5697.30806	0.00961
5695.37938	0.00964
5693.45070	0.00966
5691.52203	0.00968
5689.59335	0.00970
5687.66468	0.00970
5685.73600	0.00969
5683.80733	0.00970
5681.87865	0.00974
5679.94997	0.00977
5678.02130	0.00980
5676.09262	0.00982
5674.16395	0.00984
5672.23527	0.00986
5670.30660	0.00987
5668.37792	0.00988
5666.44924	0.00989
5664.52057	0.00991
5662.59189	0.00992
5660.66322	0.00994
5658.73454	0.00996
5656.80587	0.00998
5654.87719	0.01000
5652.94851	0.01002
5651.01984	0.01003
5649.09116	0.01005
5647.16249	0.01006
5645.23381	0.01006
5643.30514	0.01007
5641.37646	0.01009
5639.44778	0.01011
5637.51911	0.01013
5635.59043	0.01016
5633.66176	0.01019
5631.73308	0.01021
5629.80441	0.01023
5627.87573	0.01023
5625.94705	0.01024
5624.01838	0.01026
5622.08970	0.01027
5620.16103	0.01027
5618.23235	0.01028
5616.30368	0.01031
5614.37500	0.01033
5612.44632	0.01035
5610.51765	0.01039
5608.58897	0.01042
5606.66030	0.01043
5604.73162	0.01044
5602.80295	0.01046
5600.87427	0.01047
5598.94559	0.01048
5597.01692	0.01050
5595.08824	0.01052
5593.15957	0.01053
5591.23089	0.01055
5589.30222	0.01058
5587.37354	0.01059
5585.44486	0.01060
5583.51619	0.01061
5581.58751	0.01063
5579.65884	0.01064
5577.73016	0.01066
5575.80149	0.01069
5573.87281	0.01073
5571.94413	0.01075
5570.01546	0.01075
5568.08678	0.01075
5566.15811	0.01078
5564.22943	0.01081
5562.30076	0.01083
5560.37208	0.01084
5558.44340	0.01085
5556.51473	0.01086
5554.58605	0.01088
5552.65738	0.01089
5550.72870	0.01090
5548.80003	0.01091
5546.87135	0.01093
5544.94267	0.01096
5543.01400	0.01098
5541.08532	0.01100
5539.15665	0.01104
5537.22797	0.01107
5535.29930	0.01111
5533.37062	0.01113
5531.44194	0.01114
5529.51327	0.01113
5527.58459	0.01112
5525.65592	0.01112
5523.72724	0.01115
5521.79857	0.01120
5519.86989	0.01124
5517.94121	0.01126
5516.01254	0.01126
5514.08386	0.01126
5512.15519	0.01128
5510.22651	0.01129
5508.29784	0.01132
5506.36916	0.01136
5504.44048	0.01139
5502.51181	0.01140
5500.58313	0.01140
5498.65446	0.01141
5496.72578	0.01143
5494.79711	0.01144
5492.86843	0.01144
5490.93975	0.01146
5489.01108	0.01149
5487.08240	0.01150
5485.15373	0.01151
5483.22505	0.01154
5481.29638	0.01158
5479.36770	0.01161
5477.43902	0.01163
5475.51035	0.01164
5473.58167	0.01166
5471.65300	0.01169
5469.72432	0.01171
5467.79565	0.01171
5465.86697	0.01171
5463.93829	0.01173
5462.00962	0.01175
5460.08094	0.01177
5458.15227	0.01179
5456.22359	0.01179
5454.29492	0.01181
5452.36624	0.01184
5450.43756	0.01189
5448.50889	0.01192
5446.58021	0.01194
5444.65154	0.01195
5442.72286	0.01196
5440.79419	0.01198
5438.86551	0.01200
5436.93683	0.01203
5435.00816	0.01205
5433.07948	0.01205
5431.15081	0.01205
5429.22213	0.01208
5427.29346	0.01213
5425.36478	0.01216
5423.43610	0.01216
5421.50743	0.01217
5419.57875	0.01220
5417.65008	0.01221
5415.72140	0.01220
5413.79273	0.01221
5411.86405	0.01224
5409.93537	0.01227
5408.00670	0.01230
5406.07802	0.01232
5404.14935	0.01235
5402.22067	0.01238
5400.29200	0.01239
5398.36332	0.01241
5396.43464	0.01243
5394.50597	0.01244
5392.57729	0.01244
5390.64862	0.01246
5388.71994	0.01248
5386.79127	0.01249
5384.86259	0.01250
5382.93391	0.01252
5381.00524	0.01256
5379.07656	0.01258
5377.14789	0.01261
5375.21921	0.01263
5373.29054	0.01266
5371.36186	0.01268
5369.43318	0.01271
5367.50451	0.01275
5365.57583	0.01278
5363.64716	0.01280
5361.71848	0.01281
5359.78981	0.01281
5357.86113	0.01281
5355.93245	0.01281
5354.00378	0.01283
5352.07510	0.01287
5350.14643	0.01289
5348.21775	0.01290
5346.28908	0.01291
5344.36040	0.01293
5342.43172	0.01295
5340.50305	0.01297
5338.57437	0.01299
5336.64570	0.01302
5334.71702	0.01305
5332.78835	0.01308
5330.85967	0.01311
5328.93099	0.01314
5327.00232	0.01318
5325.07364	0.01320
5323.14497	0.01322
5321.21629	0.01323
5319.28762	0.01324
5317.35894	0.01326
5315.43026	0.01328
5313.50159	0.01330
5311.57291	0.01332
5309.64424	0.01331
5307.71556	0.01332
5305.78689	0.01336
5303.85821	0.01341
5301.92953	0.01343
5300.00086	0.01343
5298.07218	0.01342
5296.14351	0.01343
5294.21483	0.01347
5292.28616	0.01353
5290.35748	0.01356
5288.42880	0.01359
5286.50013	0.01360
5284.57145	0.01361
5282.64278	0.01363
5280.71410	0.01365
5278.78543	0.01367
5276.85675	0.01369
5274.92807	0.01371
5272.99940	0.01373
5271.07072	0.01375
5269.14205	0.01376
5267.21337	0.01377
5265.28470	0.01379
5263.35602	0.01381
5261.42734	0.01383
5259.49867	0.01385
5257.56999	0.01387
5255.64132	0.01390
5253.71264	0.01394
5251.78397	0.01397
5249.85529	0.01398
5247.92661	0.01399
5245.99794	0.01400
5244.06926	0.01403
5242.14059	0.01407
5240.21191	0.01412
5238.28324	0.01412
5236.35456	0.01413
5234.42588	0.01414
5232.49721	0.01416
5230.56853	0.01417
5228.63986	0.01420
5226.71118	0.01421
5224.78251	0.01422
5222.85383	0.01424
5220.92515	0.01427
5218.99648	0.01429
5217.06780	0.01431
5215.13913	0.01434
5213.21045	0.01438
5211.28178	0.01440
5209.35310	0.01442
5207.42442	0.01443
5205.49575	0.01446
5203.56707	0.01450
5201.63840	0.01453
5199.70972	0.01454
5197.78105	0.01455
5195.85237	0.01458
5193.92369	0.01462
5191.99502	0.01464
5190.06634	0.01466
5188.13767	0.01467
5186.20899	0.01468
5184.28032	0.01470
5182.35164	0.01473
5180.42296	0.01477
5178.49429	0.01479
5176.56561	0.01481
5174.63694	0.01482
5172.70826	0.01485
5170.77959	0.01489
5168.85091	0.01493
5166.92223	0.01494
5164.99356	0.01493
5163.06488	0.01495
5161.13621	0.01499
5159.20753	0.01501
5157.27886	0.01503
5155.35018	0.01506
5153.42150	0.01508
5151.49283	0.01508
5149.56415	0.01512
5147.63548	0.01516
5145.70680	0.01518
5143.77813	0.01518
5141.84945	0.01518
5139.92077	0.01521
5137.99210	0.01525
5136.06342	0.01528
5134.13475	0.01529
5132.20607	0.01531
5130.27740	0.01536
5128.34872	0.01540
5126.42004	0.01542
5124.49137	0.01545
5122.56269	0.01547
5120.63402	0.01548
5118.70534	0.01549
5116.77667	0.01551
5114.84799	0.01556
5112.91931	0.01560
5110.99064	0.01561
5109.06196	0.01560
5107.13329	0.01562
5105.20461	0.01565
5103.27594	0.01567
5101.34726	0.01568
5099.41858	0.01569
5097.48991	0.01572
5095.56123	0.01576
5093.63256	0.01580
5091.70388	0.01584
5089.77521	0.01586
5087.84653	0.01588
5085.91785	0.01591
5083.98918	0.01594
5082.06050	0.01596
5080.13183	0.01596
5078.20315	0.01596
5076.27448	0.01596
5074.34580	0.01597
5072.41712	0.01601
5070.48845	0.01605
5068.55977	0.01610
5066.63110	0.01613
5064.70242	0.01614
5062.77375	0.01615
5060.84507	0.01618
5058.91639	0.01621
5056.98772	0.01624
5055.05904	0.01627
5053.13037	0.01630
5051.20169	0.01634
5049.27302	0.01637
5047.34434	0.01638
5045.41566	0.01639
5043.48699	0.01643
5041.55831	0.01646
5039.62964	0.01647
5037.70096	0.01648
5035.77229	0.01649
5033.84361	0.01651
5031.91493	0.01652
5029.98626	0.01655
5028.05758	0.01658
5026.12891	0.01662
5024.20023	0.01665
5022.27156	0.01666
5020.34288	0.01669
5018.41420	0.01673
5016.48553	0.01675
5014.55685	0.01677
5012.62818	0.01680
5010.69950	0.01683
5008.77083	0.01686
5006.84215	0.01688
5004.91347	0.01692
5002.98480	0.01696
5001.05612	0.01699
4999.12745	0.01702
4997.19877	0.01703
4995.27010	0.01703
4993.34142	0.01705
4991.41274	0.01709
4989.48407	0.01711
4987.55539	0.01712
4985.62672	0.01716
4983.69804	0.01721
4981.76937	0.01724
4979.84069	0.01725
4977.91201	0.01726
4975.98334	0.01728
4974.05466	0.01731
4972.12599	0.01734
4970.19731	0.01738
4968.26864	0.01741
4966.33996	0.01741
4964.41128	0.01743
4962.48261	0.01749
4960.55393	0.01755
4958.62526	0.01759
4956.69658	0.01760
4954.76791	0.01761
4952.83923	0.01764
4950.91055	0.01765
4948.98188	0.01766
4947.05320	0.01768
4945.12453	0.01771
4943.19585	0.01773
4941.26718	0.01777
4939.33850	0.01782
4937.40982	0.01786
4935.48115	0.01786
4933.55247	0.01788
4931.62380	0.01790
4929.69512	0.01793
4927.76645	0.01797
4925.83777	0.01799
4923.90909	0.01801
4921.98042	0.01802
4920.05174	0.01802
4918.12307	0.01803
4916.19439	0.01806
4914.26572	0.01812
4912.33704	0.01818
4910.40836	0.01820
4908.47969	0.01821
4906.55101	0.01823
4904.62234	0.01826
4902.69366	0.01829
4900.76499	0.01831
4898.83631	0.01836
4896.90763	0.01840
4894.97896	0.01843
4893.05028	0.01845
4891.12161	0.01846
4889.19293	0.01849
4887.26426	0.01853
4885.33558	0.01856
4883.40690	0.01858
4881.47823	0.01861
4879.54955	0.01866
4877.62088	0.01870
4875.69220	0.01871
4873.76353	0.01873
4871.83485	0.01875
4869.90617	0.01878
4867.97750	0.01881
4866.04882	0.01882
4864.12015	0.01883
4862.19147	0.01886
4860.26280	0.01890
4858.33412	0.01893
4856.40544	0.01896
4854.47677	0.01900
4852.54809	0.01903
4850.61942	0.01903
4848.69074	0.01903
4846.76207	0.01905
4844.83339	0.01909
4842.90471	0.01916
4840.97604	0.01922
4839.04736	0.01926
4837.11869	0.01927
4835.19001	0.01929
4833.26134	0.01933
4831.33266	0.01937
4829.40398	0.01940
4827.47531	0.01943
4825.54663	0.01945
4823.61796	0.01944
4821.68928	0.01946
4819.76061	0.01950
4817.83193	0.01952
4815.90325	0.01951
4813.97458	0.01954
4812.04590	0.01960
4810.11723	0.01964
4808.18855	0.01967
4806.25988	0.01972
4804.33120	0.01978
4802.40252	0.01982
4800.47385	0.01984
4798.54517	0.01985
4796.61650	0.01987
4794.68782	0.01990
4792.75915	0.01993
4790.83047	0.01995
4788.90179	0.01998
4786.97312	0.02002
4785.04444	0.02005
4783.11577	0.02007
4781.18709	0.02011
4779.25842	0.02017
4777.32974	0.02020
4775.40106	0.02021
4773.47239	0.02024
4771.54371	0.02028
4769.61504	0.02031
4767.68636	0.02033
4765.75769	0.02036
4763.82901	0.02039
4761.90033	0.02042
4759.97166	0.02046
4758.04298	0.02049
4756.11431	0.02052
4754.18563	0.02056
4752.25696	0.02059
4750.32828	0.02062
4748.39960	0.02065
4746.47093	0.02068
4744.54225	0.02072
4742.61358	0.02076
4740.68490	0.02078
4738.75623	0.02081
4736.82755	0.02085
4734.89887	0.02090
4732.97020	0.02093
4731.04152	0.02095
4729.11285	0.02098
4727.18417	0.02099
4725.25550	0.02101
4723.32682	0.02104
4721.39814	0.02109
4719.46947	0.02114
4717.54079	0.02118
4715.61212	0.02121
4713.68344	0.02125
4711.75477	0.02130
4709.82609	0.02133
4707.89741	0.02134
4705.96874	0.02134
4704.04006	0.02136
4702.11139	0.02140
4700.18271	0.02144
4698.25404	0.02146
4696.32536	0.02149
4694.39668	0.02153
4692.46801	0.02159
4690.53933	0.02165
4688.61066	0.02170
4686.68198	0.02173
4684.75331	0.02176
4682.82463	0.02179
4680.89595	0.02183
4678.96728	0.02186
4677.03860	0.02186
4675.10993	0.02188
4673.18125	0.02192
4671.25258	0.02196
4669.32390	0.02198
4667.39522	0.02201
4665.46655	0.02206
4663.53787	0.02212
4661.60920	0.02217
4659.68052	0.02221
4657.75185	0.02224
4655.82317	0.02228
4653.89449	0.02231
4651.96582	0.02236
4650.03714	0.02240
4648.10847	0.02243
4646.17979	0.02247
4644.25112	0.02251
4642.32244	0.02253
4640.39376	0.02255
4638.46509	0.02258
4636.53641	0.02262
4634.60774	0.02265
4632.67906	0.02269
4630.75039	0.02273
4628.82171	0.02277
4626.89303	0.02280
4624.96436	0.02284
4623.03568	0.02288
4621.10701	0.02292
4619.17833	0.02296
4617.24966	0.02300
4615.32098	0.02304
4613.39230	0.02307
4611.46363	0.02309
4609.53495	0.02313
4607.60628	0.02319
4605.67760	0.02324
4603.74893	0.02327
4601.82025	0.02328
4599.89157	0.02332
4597.96290	0.02337
4596.03422	0.02342
4594.10555	0.02345
4592.17687	0.02348
4590.24820	0.02351
4588.31952	0.02356
4586.39084	0.02361
4584.46217	0.02366
4582.53349	0.02373
4580.60482	0.02377
4578.67614	0.02379
4576.74747	0.02381
4574.81879	0.02383
4572.89011	0.02386
4570.96144	0.02390
4569.03276	0.02394
4567.10409	0.02398
4565.17541	0.02402
4563.24674	0.02407
4561.31806	0.02411
4559.38938	0.02415
4557.46071	0.02420
4555.53203	0.02424
4553.60336	0.02427
4551.67468	0.02432
4549.74601	0.02436
4547.81733	0.02441
4545.88865	0.02448
4543.95998	0.02453
4542.03130	0.02456
4540.10263	0.02458
4538.17395	0.02463
4536.24528	0.02469
4534.31660	0.02473
4532.38792	0.02476
4530.45925	0.02481
4528.53057	0.02486
4526.60190	0.02489
4524.67322	0.02491
4522.74455	0.02493
4520.81587	0.02499
4518.88719	0.02506
4516.95852	0.02511
4515.02984	0.02514
4513.10117	0.02518
4511.17249	0.02521
4509.24382	0.02525
4507.31514	0.02529
4505.38646	0.02534
4503.45779	0.02538
4501.52911	0.02541
4499.60044	0.02546
4497.67176	0.02551
4495.74309	0.02554
4493.81441	0.02558
4491.88573	0.02565
4489.95706	0.02573
4488.02838	0.02576
4486.09971	0.02577
4484.17103	0.02580
4482.24236	0.02587
4480.31368	0.02594
4478.38500	0.02598
4476.45633	0.02602
4474.52765	0.02606
4472.59898	0.02609
4470.67030	0.02612
4468.74163	0.02615
4466.81295	0.02620
4464.88427	0.02628
4462.95560	0.02636
4461.02692	0.02642
4459.09825	0.02646
4457.16957	0.02650
4455.24090	0.02654
4453.31222	0.02657
4451.38354	0.02661
4449.45487	0.02665
4447.52619	0.02671
4445.59752	0.02678
4443.66884	0.02682
4441.74017	0.02685
4439.81149	0.02688
4437.88281	0.02692
4435.95414	0.02698
4434.02546	0.02705
4432.09679	0.02711
4430.16811	0.02716
4428.23944	0.02723
4426.31076	0.02728
4424.38208	0.02731
4422.45341	0.02734
4420.52473	0.02740
4418.59606	0.02745
4416.66738	0.02747
4414.73871	0.02751
4412.81003	0.02758
4410.88135	0.02765
4408.95268	0.02770
4407.02400	0.02775
4405.09533	0.02781
4403.16665	0.02786
4401.23798	0.02790
4399.30930	0.02794
4397.38062	0.02800
4395.45195	0.02808
4393.52327	0.02813
4391.59460	0.02816
4389.66592	0.02820
4387.73725	0.02825
4385.80857	0.02830
4383.87989	0.02834
4381.95122	0.02837
4380.02254	0.02843
4378.09387	0.02852
4376.16519	0.02861
4374.23652	0.02866
4372.30784	0.02869
4370.37916	0.02873
4368.45049	0.02879
4366.52181	0.02886
4364.59314	0.02891
4362.66446	0.02894
4360.73579	0.02898
4358.80711	0.02904
4356.87843	0.02910
4354.94976	0.02915
4353.02108	0.02922
4351.09241	0.02930
4349.16373	0.02936
4347.23506	0.02937
4345.30638	0.02939
4343.37770	0.02945
4341.44903	0.02953
4339.52035	0.02960
4337.59168	0.02966
4335.66300	0.02972
4333.73433	0.02977
4331.80565	0.02982
4329.87697	0.02989
4327.94830	0.02995
4326.01962	0.03002
4324.09095	0.03007
4322.16227	0.03011
4320.23360	0.03015
4318.30492	0.03021
4316.37624	0.03028
4314.44757	0.03035
4312.51889	0.03042
4310.59022	0.03047
4308.66154	0.03052
4306.73287	0.03057
4304.80419	0.03063
4302.87551	0.03069
4300.94684	0.03075
4299.01816	0.03081
4297.08949	0.03087
4295.16081	0.03094
4293.23214	0.03101
4291.30346	0.03108
4289.37478	0.03115
4287.44611	0.03122
4285.51743	0.03129
4283.58876	0.03136
4281.66008	0.03143
4279.73141	0.03149
4277.80273	0.03156
4275.87405	0.03162
4273.94538	0.03168
4272.01670	0.03174
4270.08803	0.03180
4268.15935	0.03186
4266.23068	0.03192
4264.30200	0.03199
4262.37332	0.03204
4260.44465	0.03208
4258.51597	0.03213
4256.58730	0.03219
4254.65862	0.03224
4252.72995	0.03229
4250.80127	0.03234
4248.87259	0.03240
4246.94392	0.03247
4245.01524	0.03255
4243.08657	0.03262
4241.15789	0.03269
4239.22922	0.03275
4237.30054	0.03280
4235.37186	0.03286
4233.44319	0.03293
4231.51451	0.03301
4229.58584	0.03310
4227.65716	0.03318
4225.72849	0.03325
4223.79981	0.03333
4221.87113	0.03339
4219.94246	0.03343
4218.01378	0.03348
4216.08511	0.03354
4214.15643	0.03360
4212.22776	0.03368
4210.29908	0.03376
4208.37040	0.03382
4206.44173	0.03389
4204.51305	0.03396
4202.58438	0.03405
4200.65570	0.03413
4198.72703	0.03419
4196.79835	0.03424
4194.86968	0.03432
4192.94100	0.03441
4191.01232	0.03448
4189.08365	0.03454
4187.15497	0.03460
4185.22630	0.03467
4183.29762	0.03473
4181.36895	0.03479
4179.44027	0.03486
4177.51159	0.03493
4175.58292	0.03499
4173.65424	0.03507
4171.72557	0.03516
4169.79689	0.03524
4167.86822	0.03530
4165.93954	0.03536
4164.01086	0.03544
4162.08219	0.03552
4160.15351	0.03557
4158.22484	0.03564
4156.29616	0.03573
4154.36749	0.03581
4152.43881	0.03586
4150.51013	0.03594
4148.58146	0.03606
4146.65278	0.03616
4144.72411	0.03623
4142.79543	0.03626
4140.86676	0.03631
4138.93808	0.03639
4137.00940	0.03650
4135.08073	0.03660
4133.15205	0.03667
4131.22338	0.03672
4129.29470	0.03678
4127.36603	0.03684
4125.43735	0.03692
4123.50867	0.03701
4121.58000	0.03709
4119.65132	0.03716
4117.72265	0.03723
4115.79397	0.03730
4113.86530	0.03738
4111.93662	0.03746
4110.00794	0.03753
4108.07927	0.03761
4106.15059	0.03770
4104.22192	0.03780
4102.29324	0.03788
4100.36457	0.03795
4098.43589	0.03803
4096.50721	0.03810
4094.57854	0.03818
4092.64986	0.03826
4090.72119	0.03834
4088.79251	0.03841
4086.86384	0.03847
4084.93516	0.03856
4083.00648	0.03865
4081.07781	0.03874
4079.14913	0.03882
4077.22046	0.03887
4075.29178	0.03891
4073.36311	0.03896
4071.43443	0.03904
4069.50575	0.03915
4067.57708	0.03926
4065.64840	0.03936
4063.71973	0.03945
4061.79105	0.03956
4059.86238	0.03965
4057.93370	0.03972
4056.00502	0.03977
4054.07635	0.03984
4052.14767	0.03994
4050.21900	0.04003
4048.29032	0.04010
4046.36165	0.04017
4044.43297	0.04026
4042.50429	0.04034
4040.57562	0.04041
4038.64694	0.04049
4036.71827	0.04058
4034.78959	0.04068
4032.86092	0.04077
4030.93224	0.04086
4029.00356	0.04096
4027.07489	0.04104
4025.14621	0.04114
4023.21754	0.04125
4021.28886	0.04135
4019.36019	0.04143
4017.43151	0.04151
4015.50283	0.04158
4013.57416	0.04164
4011.64548	0.04171
4009.71681	0.04180
4007.78813	0.04190
4005.85946	0.04201
4003.93078	0.04212
4002.00210	0.04222
4000.07343	0.04230
3998.14475	0.04237
3996.21608	0.04244
3994.28740	0.04252
3992.35873	0.04262
3990.43005	0.04274
3988.50137	0.04284
3986.57270	0.04293
3984.64402	0.04302
3982.71535	0.04310
3980.78667	0.04316
3978.85800	0.04324
3976.92932	0.04333
3975.00064	0.04343
3973.07197	0.04353
3971.14329	0.04364
3969.21462	0.04374
3967.28594	0.04383
3965.35727	0.04392
3963.42859	0.04400
3961.49991	0.04409
3959.57124	0.04419
3957.64256	0.04428
3955.71389	0.04436
3953.78521	0.04444
3951.85654	0.04453
3949.92786	0.04461
3947.99918	0.04469
3946.07051	0.04477
3944.14183	0.04485
3942.21316	0.04496
3940.28448	0.04508
3938.35581	0.04517
3936.42713	0.04525
3934.49845	0.04532
3932.56978	0.04542
3930.64110	0.04555
3928.71243	0.04569
3926.78375	0.04578
3924.85508	0.04585
3922.92640	0.04593
3920.99772	0.04603
3919.06905	0.04612
3917.14037	0.04624
3915.21170	0.04637
3913.28302	0.04649
3911.35435	0.04659
3909.42567	0.04668
3907.49699	0.04674
3905.56832	0.04673
3903.63964	0.04671
3901.71097	0.04677
3899.78229	0.04692
3897.85362	0.04713
3895.92494	0.04730
3893.99626	0.04737
3892.06759	0.04743
3890.13891	0.04758
3888.21024	0.04771
3886.28156	0.04775
3884.35289	0.04783
3882.42421	0.04794
3880.49553	0.04805
3878.56686	0.04819
3876.63818	0.04831
3874.70951	0.04837
3872.78083	0.04841
3870.85216	0.04846
3868.92348	0.04858
3866.99480	0.04873
3865.06613	0.04884
3863.13745	0.04897
3861.20878	0.04915
3859.28010	0.04928
3857.35143	0.04926
3855.42275	0.04910
3853.49407	0.04908
3851.56540	0.04935
3849.63672	0.04969
3847.70805	0.04992
3845.77937	0.05002
3843.85070	0.05006
3841.92202	0.05008
3839.99334	0.05010
3838.06467	0.05016
3836.13599	0.05031
3834.20732	0.05048
3832.27864	0.05064
3830.34997	0.05080
3828.42129	0.05095
3826.49261	0.05105
3824.56394	0.05109
3822.63526	0.05110
3820.70659	0.05117
3818.77791	0.05131
3816.84924	0.05145
3814.92056	0.05164
3812.99188	0.05187
3811.06321	0.05200
3809.13453	0.05201
3807.20586	0.05205
3805.27718	0.05218
3803.34851	0.05229
3801.41983	0.05238
3799.49115	0.05252
3797.56248	0.05266
3795.63380	0.05280
3793.70513	0.05297
3791.77645	0.05312
3789.84778	0.05323
3787.91910	0.05334
3785.99042	0.05344
3784.06175	0.05354
3782.13307	0.05362
3780.20440	0.05368
3778.27572	0.05381
3776.34705	0.05401
3774.41837	0.05415
3772.48969	0.05418
3770.56102	0.05419
3768.63234	0.05428
3766.70367	0.05443
3764.77499	0.05462
3762.84632	0.05478
3760.91764	0.05484
3758.98896	0.05491
3757.06029	0.05505
3755.13161	0.05512
3753.20294	0.05504
3751.27426	0.05501
3749.34559	0.05514
3747.41691	0.05524
3745.48823	0.05522
3743.55956	0.05538
3741.63088	0.05578
3739.70221	0.05602
3737.77353	0.05599
3735.84486	0.05598
3733.91618	0.05613
3731.98750	0.05637
3730.05883	0.05658
3728.13015	0.05670
3726.20148	0.05677
3724.27280	0.05687
3722.34413	0.05700
3720.41545	0.05717
3718.48677	0.05734
3716.55810	0.05742
3714.62942	0.05743
3712.70075	0.05742
3710.77207	0.05751
3708.84340	0.05770
3706.91472	0.05787
3704.98604	0.05795
3703.05737	0.05798
3701.12869	0.05806
3699.20002	0.05818
3697.27134	0.05827
3695.34267	0.05831
3693.41399	0.05829
3691.48531	0.05822
3689.55664	0.05820
3687.62796	0.05833
3685.69929	0.05853
3683.77061	0.05865
3681.84194	0.05865
3679.91326	0.05859
3677.98458	0.05846
3676.05591	0.05837
3674.12723	0.05844
3672.19856	0.05854
3670.26988	0.05860
3668.34121	0.05873
3666.41253	0.05890
3664.48385	0.05899
3662.55518	0.05903
3660.62650	0.05903
3658.69783	0.05899
3656.76915	0.05896
3654.84048	0.05896
3652.91180	0.05888
3650.98312	0.05870
3649.05445	0.05860
3647.12577	0.05873
3645.19710	0.05900
3643.26842	0.05926
3641.33975	0.05940
3639.41107	0.05947
3637.48239	0.05954
3635.55372	0.05959
3633.62504	0.05961
3631.69637	0.05954
3629.76769	0.05946
3627.83902	0.05957
3625.91034	0.05982
3623.98166	0.05996
3622.05299	0.05996
3620.12431	0.05991
3618.19564	0.05996
3616.26696	0.06008
3614.33829	0.06015
3612.40961	0.06017
3610.48093	0.06022
3608.55226	0.06033
3606.62358	0.06048
3604.69491	0.06062
3602.76623	0.06068
3600.83756	0.06073
3598.90888	0.06082
3596.98020	0.06089
3595.05153	0.06094
3593.12285	0.06100
3591.19418	0.06103
3589.26550	0.06102
3587.33683	0.06107
3585.40815	0.06121
3583.47947	0.06138
3581.55080	0.06152
3579.62212	0.06163
3577.69345	0.06173
3575.76477	0.06180
3573.83610	0.06186
3571.90742	0.06190
3569.97874	0.06188
3568.05007	0.06187
3566.12139	0.06197
3564.19272	0.06214
3562.26404	0.06227
3560.33537	0.06236
3558.40669	0.06245
3556.47801	0.06252
3554.54934	0.06256
3552.62066	0.06262
3550.69199	0.06269
3548.76331	0.06275
3546.83464	0.06281
3544.90596	0.06289
3542.97728	0.06298
3541.04861	0.06307
3539.11993	0.06314
3537.19126	0.06320
3535.26258	0.06326
3533.33391	0.06332
3531.40523	0.06337
3529.47655	0.06340
3527.54788	0.06344
3525.61920	0.06349
3523.69053	0.06353
3521.76185	0.06356
3519.83318	0.06358
3517.90450	0.06361
3515.97582	0.06365
3514.04715	0.06368
3512.11847	0.06369
3510.18980	0.06369
3508.26112	0.06373
3506.33245	0.06379
3504.40377	0.06384
3502.47509	0.06388
3500.54642	0.06393
3498.61774	0.06396
3496.68907	0.06398
3494.76039	0.06400
3492.83172	0.06404
3490.90304	0.06408
3488.97436	0.06409
3487.04569	0.06410
3485.11701	0.06415
3483.18834	0.06419
3481.25966	0.06421
3479.33099	0.06426
3477.40231	0.06436
3475.47363	0.06447
3473.54496	0.06458
3471.61628	0.06468
3469.68761	0.06477
3467.75893	0.06489
3465.83026	0.06501
3463.90158	0.06512
3461.97290	0.06522
3460.04423	0.06531
3458.11555	0.06541
3456.18688	0.06554
3454.25820	0.06567
3452.32953	0.06577
3450.40085	0.06585
3448.47217	0.06593
3446.54350	0.06602
3444.61482	0.06613
3442.68615	0.06628
3440.75747	0.06645
3438.82880	0.06662
3436.90012	0.06680
3434.97144	0.06700
3433.04277	0.06720
3431.11409	0.06741
3429.18542	0.06764
3427.25674	0.06789
3425.32807	0.06814
3423.39939	0.06837
3421.47071	0.06856
3419.54204	0.06875
3417.61336	0.06895
3415.68469	0.06915
3413.75601	0.06933
3411.82734	0.06950
3409.89866	0.06967
3407.96998	0.06985
3406.04131	0.07001
3404.11263	0.07016
3402.18396	0.07030
3400.25528	0.07047
3398.32661	0.07064
3396.39793	0.07080
3394.46925	0.07096
3392.54058	0.07112
3390.61190	0.07130
3388.68323	0.07150
3386.75455	0.07168
3384.82588	0.07185
3382.89720	0.07201
3380.96852	0.07215
3379.03985	0.07230
3377.11117	0.07248
3375.18250	0.07266
3373.25382	0.07282
3371.32515	0.07297
3369.39647	0.07313
3367.46779	0.07329
3365.53912	0.07345
3363.61044	0.07362
3361.68177	0.07381
3359.75309	0.07399
3357.82442	0.07415
3355.89574	0.07431
3353.96706	0.07446
3352.03839	0.07461
3350.10971	0.07479
3348.18104	0.07499
3346.25236	0.07518
3344.32369	0.07532
3342.39501	0.07546
3340.46633	0.07562
3338.53766	0.07576
3336.60898	0.07592
3334.68031	0.07612
3332.75163	0.07629
3330.82296	0.07645
3328.89428	0.07663
3326.96560	0.07683
3325.03693	0.07702
3323.10825	0.07721
3321.17958	0.07740
3319.25090	0.07758
3317.32223	0.07776
3315.39355	0.07793
3313.46487	0.07807
3311.53620	0.07822
3309.60752	0.07839
3307.67885	0.07860
3305.75017	0.07880
3303.82150	0.07899
3301.89282	0.07919
3299.96414	0.07940
3298.03547	0.07960
3296.10679	0.07979
3294.17812	0.07997
3292.24944	0.08013
3290.32077	0.08030
3288.39209	0.08050
3286.46341	0.08070
3284.53474	0.08088
3282.60606	0.08105
3280.67739	0.08128
3278.74871	0.08153
3276.82004	0.08174
3274.89136	0.08190
3272.96268	0.08208
3271.03401	0.08229
3269.10533	0.08252
3267.17666	0.08271
3265.24798	0.08288
3263.31931	0.08304
3261.39063	0.08322
3259.46195	0.08342
3257.53328	0.08362
3255.60460	0.08382
3253.67593	0.08401
3251.74725	0.08419
3249.81858	0.08440
3247.88990	0.08463
3245.96122	0.08484
3244.03255	0.08505
3242.10387	0.08525
3240.17520	0.08545
3238.24652	0.08565
3236.31785	0.08584
3234.38917	0.08605
3232.46049	0.08626
3230.53182	0.08646
3228.60314	0.08665
3226.67447	0.08684
3224.74579	0.08704
3222.81712	0.08726
3220.88844	0.08747
3218.95976	0.08765
3217.03109	0.08786
3215.10241	0.08810
3213.17374	0.08834
3211.24506	0.08853
3209.31639	0.08868
3207.38771	0.08885
3205.45903	0.08905
3203.53036	0.08927
3201.60168	0.08950
3199.67301	0.08973
3197.74433	0.08995
3195.81566	0.09019
3193.88698	0.09042
3191.95830	0.09065
3190.02963	0.09087
3188.10095	0.09107
3186.17228	0.09130
3184.24360	0.09155
3182.31493	0.09177
3180.38625	0.09199
3178.45757	0.09220
3176.52890	0.09240
3174.60022	0.09261
3172.67155	0.09281
3170.74287	0.09301
3168.81420	0.09319
3166.88552	0.09339
3164.95684	0.09361
3163.02817	0.09386
3161.09949	0.09414
3159.17082	0.09438
3157.24214	0.09458
3155.31347	0.09478
3153.38479	0.09499
3151.45611	0.09520
3149.52744	0.09541
3147.59876	0.09564
3145.67009	0.09588
3143.74141	0.09610
3141.81274	0.09631
3139.88406	0.09653
3137.95538	0.09672
3136.02671	0.09689
3134.09803	0.09707
3132.16936	0.09731
3130.24068	0.09758
3128.31201	0.09782
3126.38333	0.09804
3124.45465	0.09824
3122.52598	0.09844
3120.59730	0.09867
3118.66863	0.09889
3116.73995	0.09908
3114.81128	0.09927
3112.88260	0.09950
3110.95392	0.09974
3109.02525	0.09996
3107.09657	0.10016
3105.16790	0.10038
3103.23922	0.10059
3101.31055	0.10078
3099.38187	0.10098
3097.45319	0.10121
3095.52452	0.10146
3093.59584	0.10173
3091.66717	0.10196
3089.73849	0.10214
3087.80982	0.10231
3085.88114	0.10250
3083.95246	0.10272
3082.02379	0.10296
3080.09511	0.10320
3078.16644	0.10342
3076.23776	0.10362
3074.30909	0.10384
3072.38041	0.10408
3070.45173	0.10432
3068.52306	0.10451
3066.59438	0.10468
3064.66571	0.10487
3062.73703	0.10506
3060.80836	0.10528
3058.87968	0.10552
3056.95100	0.10574
3055.02233	0.10595
3053.09365	0.10617
3051.16498	0.10637
3049.23630	0.10658
3047.30763	0.10682
3045.37895	0.10703
3043.45027	0.10723
3041.52160	0.10742
3039.59292	0.10760
3037.66425	0.10779
3035.73557	0.10795
3033.80690	0.10812
3031.87822	0.10829
3029.94954	0.10850
3028.02087	0.10872
3026.09219	0.10893
3024.16352	0.10914
3022.23484	0.10933
3020.30617	0.10951
3018.37749	0.10966
3016.44881	0.10985
3014.52014	0.11005
3012.59146	0.11025
3010.66279	0.11042
3008.73411	0.11058
3006.80544	0.11075
3004.87676	0.11092
3002.94808	0.11108
3001.01941	0.11123
2999.09073	0.11136
2997.16206	0.11147
2995.23338	0.11157
2993.30471	0.11168
2991.37603	0.11180
2989.44735	0.11192
2987.51868	0.11201
2985.59000	0.11207
2983.66133	0.11212
2981.73265	0.11217
2979.80398	0.11220
2977.87530	0.11221
2975.94662	0.11222
2974.01795	0.11223
2972.08927	0.11225
2970.16060	0.11225
2968.23192	0.11225
2966.30325	0.11233
2964.37457	0.11247
2962.44589	0.11265
2960.51722	0.11287
2958.58854	0.11312
2956.65987	0.11340
2954.73119	0.11372
2952.80252	0.11403
2950.87384	0.11426
2948.94516	0.11446
2947.01649	0.11466
2945.08781	0.11484
2943.15914	0.11495
2941.23046	0.11502
2939.30179	0.11509
2937.37311	0.11515
2935.44443	0.11518
2933.51576	0.11518
2931.58708	0.11518
2929.65841	0.11520
2927.72973	0.11523
2925.80106	0.11525
2923.87238	0.11527
2921.94370	0.11535
2920.01503	0.11552
2918.08635	0.11583
2916.15768	0.11628
2914.22900	0.11682
2912.30033	0.11742
2910.37165	0.11801
2908.44297	0.11852
2906.51430	0.11895
2904.58562	0.11935
2902.65695	0.11970
2900.72827	0.12000
2898.79960	0.12027
2896.87092	0.12054
2894.94224	0.12084
2893.01357	0.12117
2891.08489	0.12148
2889.15622	0.12176
2887.22754	0.12201
2885.29887	0.12224
2883.37019	0.12250
2881.44151	0.12279
2879.51284	0.12309
2877.58416	0.12338
2875.65549	0.12363
2873.72681	0.12387
2871.79814	0.12414
2869.86946	0.12444
2867.94078	0.12473
2866.01211	0.12501
2864.08343	0.12523
2862.15476	0.12538
2860.22608	0.12549
2858.29741	0.12559
2856.36873	0.12566
2854.44005	0.12571
2852.51138	0.12577
2850.58270	0.12595
2848.65403	0.12637
2846.72535	0.12699
2844.79668	0.12767
2842.86800	0.12829
2840.93932	0.12883
2839.01065	0.12927
2837.08197	0.12963
2835.15330	0.12995
2833.22462	0.13026
2831.29595	0.13055
2829.36727	0.13081
2827.43859	0.13105
2825.50992	0.13132
2823.58124	0.13162
2821.65257	0.13190
2819.72389	0.13215
2817.79522	0.13238
2815.86654	0.13263
2813.93786	0.13290
2812.00919	0.13314
2810.08051	0.13334
2808.15184	0.13354
2806.22316	0.13379
2804.29449	0.13408
2802.36581	0.13436
2800.43713	0.13463
2798.50846	0.13485
2796.57978	0.13503
2794.65111	0.13524
2792.72243	0.13550
2790.79376	0.13577
2788.86508	0.13600
2786.93640	0.13621
2785.00773	0.13645
2783.07905	0.13669
2781.15038	0.13692
2779.22170	0.13713
2777.29303	0.13733
2775.36435	0.13755
2773.43567	0.13780
2771.50700	0.13806
2769.57832	0.13830
2767.64965	0.13850
2765.72097	0.13868
2763.79230	0.13887
2761.86362	0.13909
2759.93494	0.13935
2758.00627	0.13961
2756.07759	0.13983
2754.14892	0.14001
2752.22024	0.14018
2750.29157	0.14038
2748.36289	0.14060
2746.43421	0.14081
2744.50554	0.14103
2742.57686	0.14126
2740.64819	0.14146
2738.71951	0.14164
2736.79084	0.14183
2734.86216	0.14206
2732.93348	0.14227
2731.00481	0.14246
2729.07613	0.14266
2727.14746	0.14290
2725.21878	0.14315
2723.29011	0.14335
2721.36143	0.14354
2719.43275	0.14375
2717.50408	0.14396
2715.57540	0.14415
2713.64673	0.14435
2711.71805	0.14457
2709.78938	0.14479
2707.86070	0.14500
2705.93202	0.14519
2704.00335	0.14537
2702.07467	0.14559
2700.14600	0.14582
2698.21732	0.14604
2696.28865	0.14624
2694.35997	0.14646
2692.43129	0.14666
2690.50262	0.14685
2688.57394	0.14706
2686.64527	0.14726
2684.71659	0.14743
2682.78792	0.14761
2680.85924	0.14783
2678.93056	0.14806
2677.00189	0.14828
2675.07321	0.14848
2673.14454	0.14867
2671.21586	0.14885
2669.28719	0.14906
2667.35851	0.14929
2665.42983	0.14951
2663.50116	0.14972
2661.57248	0.14994
2659.64381	0.15016
2657.71513	0.15036
2655.78646	0.15056
2653.85778	0.15075
2651.92910	0.15095
2650.00043	0.15116
2648.07175	0.15137
2646.14308	0.15158
2644.21440	0.15180
2642.28573	0.15203
2640.35705	0.15227
2638.42837	0.15249
2636.49970	0.15268
2634.57102	0.15285
2632.64235	0.15304
2630.71367	0.15327
2628.78500	0.15351
2626.85632	0.15373
2624.92764	0.15394
2622.99897	0.15419
2621.07029	0.15443
2619.14162	0.15463
2617.21294	0.15481
2615.28427	0.15502
2613.35559	0.15528
2611.42691	0.15552
2609.49824	0.15574
2607.56956	0.15594
2605.64089	0.15615
2603.71221	0.15634
2601.78354	0.15652
2599.85486	0.15670
2597.92618	0.15688
2595.99751	0.15709
2594.06883	0.15732
2592.14016	0.15752
2590.21148	0.15772
2588.28281	0.15794
2586.35413	0.15817
2584.42545	0.15840
2582.49678	0.15861
2580.56810	0.15879
2578.63943	0.15898
2576.71075	0.15920
2574.78208	0.15942
2572.85340	0.15964
2570.92472	0.15985
2568.99605	0.16006
2567.06737	0.16024
2565.13870	0.16042
2563.21002	0.16062
2561.28135	0.16083
2559.35267	0.16103
2557.42399	0.16124
2555.49532	0.16144
2553.56664	0.16163
2551.63797	0.16180
2549.70929	0.16198
2547.78062	0.16216
2545.85194	0.16234
2543.92326	0.16255
2541.99459	0.16277
2540.06591	0.16298
2538.13724	0.16322
2536.20856	0.16347
2534.27989	0.16368
2532.35121	0.16388
2530.42253	0.16413
2528.49386	0.16437
2526.56518	0.16454
2524.63651	0.16466
2522.70783	0.16481
2520.77916	0.16499
2518.85048	0.16521
2516.92181	0.16548
2514.99313	0.16576
2513.06445	0.16599
2511.13578	0.16620
2509.20710	0.16639
2507.27843	0.16660
2505.34975	0.16681
2503.42108	0.16700
2501.49240	0.16720
2499.56372	0.16742
2497.63505	0.16763
2495.70637	0.16788
2493.77770	0.16815
2491.84902	0.16841
2489.92035	0.16863
2487.99167	0.16885
2486.06299	0.16903
2484.13432	0.16921
2482.20564	0.16941
2480.27697	0.16961
2478.34829	0.16979
2476.41962	0.16999
2474.49094	0.17021
2472.56226	0.17043
2470.63359	0.17064
2468.70491	0.17083
2466.77624	0.17103
2464.84756	0.17125
2462.91889	0.17148
2460.99021	0.17172
2459.06153	0.17194
2457.13286	0.17214
2455.20418	0.17234
2453.27551	0.17252
2451.34683	0.17272
2449.41816	0.17293
2447.48948	0.17313
2445.56080	0.17334
2443.63213	0.17356
2441.70345	0.17375
2439.77478	0.17395
2437.84610	0.17418
2435.91743	0.17442
2433.98875	0.17462
2432.06007	0.17478
2430.13140	0.17497
2428.20272	0.17518
2426.27405	0.17536
2424.34537	0.17552
2422.41670	0.17571
2420.48802	0.17594
2418.55934	0.17617
2416.63067	0.17638
2414.70199	0.17659
2412.77332	0.17681
2410.84464	0.17702
2408.91597	0.17721
2406.98729	0.17737
2405.05861	0.17754
2403.12994	0.17772
2401.20126	0.17790
2399.27259	0.17809
2397.34391	0.17828
2395.41524	0.17848
2393.48656	0.17869
2391.55788	0.17889
2389.62921	0.17906
2387.70053	0.17922
2385.77186	0.17937
2383.84318	0.17950
2381.91451	0.17965
2379.98583	0.17978
2378.05715	0.17982
2376.12848	0.17982
2374.19980	0.17981
2372.27113	0.17982
2370.34245	0.17988
2368.41378	0.17996
2366.48510	0.18002
2364.55642	0.18009
2362.62775	0.18023
2360.69907	0.18039
2358.77040	0.18060
2356.84172	0.18088
2354.91305	0.18118
2352.98437	0.18153
2351.05569	0.18192
2349.12702	0.18220
2347.19834	0.18227
2345.26967	0.18219
2343.34099	0.18210
2341.41232	0.18210
2339.48364	0.18221
2337.55496	0.18246
2335.62629	0.18276
2333.69761	0.18302
2331.76894	0.18319
2329.84026	0.18335
2327.91159	0.18355
2325.98291	0.18375
2324.05423	0.18396
2322.12556	0.18419
2320.19688	0.18442
2318.26821	0.18461
2316.33953	0.18476
2314.41086	0.18492
2312.48218	0.18513
2310.55350	0.18535
2308.62483	0.18551
2306.69615	0.18565
2304.76748	0.18578
2302.83880	0.18589
2300.91013	0.18602
2298.98145	0.18617
2297.05277	0.18629
2295.12410	0.18640
2293.19542	0.18650
2291.26675	0.18657
2289.33807	0.18660
2287.40940	0.18667
2285.48072	0.18679
2283.55204	0.18690
2281.62337	0.18700
2279.69469	0.18709
2277.76602	0.18717
2275.83734	0.18725
2273.90867	0.18732
2271.97999	0.18737
2270.05131	0.18743
2268.12264	0.18750
2266.19396	0.18759
2264.26529	0.18772
2262.33661	0.18787
2260.40794	0.18800
2258.47926	0.18813
2256.55058	0.18825
2254.62191	0.18842
2252.69323	0.18861
2250.76456	0.18879
2248.83588	0.18898
2246.90721	0.18922
2244.97853	0.18946
2243.04985	0.18971
2241.12118	0.19000
2239.19250	0.19029
2237.26383	0.19057
2235.33515	0.19084
2233.40648	0.19112
2231.47780	0.19145
2229.54912	0.19180
2227.62045	0.19212
2225.69177	0.19241
2223.76310	0.19267
2221.83442	0.19293
2219.90575	0.19322
2217.97707	0.19353
2216.04839	0.19385
2214.11972	0.19412
2212.19104	0.19438
2210.26237	0.19465
2208.33369	0.19490
2206.40502	0.19513
2204.47634	0.19535
2202.54766	0.19556
2200.61899	0.19577
2198.69031	0.19598
2196.76164	0.19617
2194.83296	0.19637
2192.90429	0.19659
2190.97561	0.19681
2189.04693	0.19704
2187.11826	0.19728
2185.18958	0.19750
2183.26091	0.19770
2181.33223	0.19791
2179.40356	0.19812
2177.47488	0.19834
2175.54620	0.19859
2173.61753	0.19886
2171.68885	0.19908
2169.76018	0.19925
2167.83150	0.19942
2165.90283	0.19963
2163.97415	0.19988
2162.04547	0.20012
2160.11680	0.20032
2158.18812	0.20053
2156.25945	0.20075
2154.33077	0.20094
2152.40210	0.20113
2150.47342	0.20135
2148.54474	0.20158
2146.61607	0.20181
2144.68739	0.20200
2142.75872	0.20213
2140.83004	0.20223
2138.90137	0.20236
2136.97269	0.20254
2135.04401	0.20274
2133.11534	0.20293
2131.18666	0.20314
2129.25799	0.20337
2127.32931	0.20359
2125.40064	0.20376
2123.47196	0.20387
2121.54328	0.20398
2119.61461	0.20415
2117.68593	0.20433
2115.75726	0.20450
2113.82858	0.20470
2111.89991	0.20493
2109.97123	0.20515
2108.04255	0.20533
2106.11388	0.20550
2104.18520	0.20566
2102.25653	0.20580
2100.32785	0.20595
2098.39918	0.20613
2096.47050	0.20636
2094.54182	0.20660
2092.61315	0.20679
2090.68447	0.20696
2088.75580	0.20711
2086.82712	0.20726
2084.89845	0.20741
2082.96977	0.20755
2081.04109	0.20770
2079.11242	0.20790
2077.18374	0.20812
2075.25507	0.20828
2073.32639	0.20839
2071.39772	0.20852
2069.46904	0.20865
2067.54036	0.20878
2065.61169	0.20893
2063.68301	0.20910
2061.75434	0.20927
2059.82566	0.20941
2057.89699	0.20953
2055.96831	0.20966
2054.03963	0.20984
2052.11096	0.21005
2050.18228	0.21024
2048.25361	0.21038
2046.32493	0.21051
2044.39626	0.21065
2042.46758	0.21079
2040.53890	0.21093
2038.61023	0.21109
2036.68155	0.21127
2034.75288	0.21144
2032.82420	0.21159
2030.89553	0.21174
2028.96685	0.21188
2027.03817	0.21201
2025.10950	0.21217
2023.18082	0.21234
2021.25215	0.21249
2019.32347	0.21263
2017.39480	0.21275
2015.46612	0.21290
2013.53744	0.21307
2011.60877	0.21322
2009.68009	0.21332
2007.75142	0.21346
2005.82274	0.21363
2003.89407	0.21375
2001.96539	0.21383
2000.03671	0.21393
1998.10804	0.21407
1996.17936	0.21423
1994.25069	0.21433
1992.32201	0.21445
1990.39334	0.21464
1988.46466	0.21480
1986.53598	0.21487
1984.60731	0.21494
1982.67863	0.21504
1980.74996	0.21515
1978.82128	0.21527
1976.89261	0.21539
1974.96393	0.21548
1973.03525	0.21556
1971.10658	0.21566
1969.17790	0.21577
1967.24923	0.21587
1965.32055	0.21597
1963.39188	0.21609
1961.46320	0.21621
1959.53452	0.21632
1957.60585	0.21642
1955.67717	0.21651
1953.74850	0.21662
1951.81982	0.21676
1949.89115	0.21691
1947.96247	0.21704
1946.03379	0.21710
1944.10512	0.21714
1942.17644	0.21727
1940.24777	0.21753
1938.31909	0.21777
1936.39042	0.21792
1934.46174	0.21802
1932.53306	0.21810
1930.60439	0.21817
1928.67571	0.21826
1926.74704	0.21842
1924.81836	0.21854
1922.88969	0.21862
1920.96101	0.21870
1919.03233	0.21877
1917.10366	0.21890
1915.17498	0.21913
1913.24631	0.21933
1911.31763	0.21945
1909.38896	0.21955
1907.46028	0.21969
1905.53160	0.21985
1903.60293	0.21996
1901.67425	0.22004
1899.74558	0.22013
1897.81690	0.22024
1895.88823	0.22036
1893.95955	0.22045
1892.03087	0.22050
1890.10220	0.22057
1888.17352	0.22073
1886.24485	0.22089
1884.31617	0.22099
1882.38750	0.22109
1880.45882	0.22124
1878.53014	0.22139
1876.60147	0.22152
1874.67279	0.22164
1872.74412	0.22169
1870.81544	0.22158
1868.88677	0.22151
1866.95809	0.22170
1865.02941	0.22202
1863.10074	0.22226
1861.17206	0.22244
1859.24339	0.22260
1857.31471	0.22273
1855.38604	0.22286
1853.45736	0.22300
1851.52868	0.22309
1849.60001	0.22309
1847.67133	0.22296
1845.74266	0.22275
1843.81398	0.22284
1841.88531	0.22333
1839.95663	0.22375
1838.02795	0.22391
1836.09928	0.22398
1834.17060	0.22405
1832.24193	0.22405
1830.31325	0.22401
1828.38458	0.22405
1826.45590	0.22413
1824.52722	0.22429
1822.59855	0.22460
1820.66987	0.22487
1818.74120	0.22498
1816.81252	0.22504
1814.88385	0.22514
1812.95517	0.22524
1811.02649	0.22532
1809.09782	0.22543
1807.16914	0.22556
1805.24047	0.22557
1803.31179	0.22541
1801.38312	0.22530
1799.45444	0.22542
1797.52576	0.22561
1795.59709	0.22565
1793.66841	0.22552
1791.73974	0.22553
1789.81106	0.22583
1787.88239	0.22609
1785.95371	0.22612
1784.02503	0.22612
1782.09636	0.22615
1780.16768	0.22618
1778.23901	0.22624
1776.31033	0.22623
1774.38166	0.22601
1772.45298	0.22571
1770.52430	0.22559
1768.59563	0.22571
1766.66695	0.22600
1764.73828	0.22620
1762.80960	0.22616
1760.88093	0.22607
1758.95225	0.22601
1757.02357	0.22592
1755.09490	0.22582
1753.16622	0.22551
1751.23755	0.22506
1749.30887	0.22487
1747.38020	0.22491
1745.45152	0.22492
1743.52284	0.22479
1741.59417	0.22458
1739.66549	0.22440
1737.73682	0.22418
1735.80814	0.22366
1733.87947	0.22325
1731.95079	0.22345
1730.02211	0.22392
1728.09344	0.22422
1726.16476	0.22428
1724.23609	0.22418
1722.30741	0.22396
1720.37874	0.22346
1718.45006	0.22292
1716.52138	0.22286
1714.59271	0.22331
1712.66403	0.22380
1710.73536	0.22408
1708.80668	0.22407
1706.87801	0.22391
1704.94933	0.22389
1703.02065	0.22379
1701.09198	0.22354
1699.16330	0.22350
1697.23463	0.22364
1695.30595	0.22390
1693.37728	0.22444
1691.44860	0.22483
1689.51992	0.22488
1687.59125	0.22471
1685.66257	0.22426
1683.73390	0.22404
1681.80522	0.22439
1679.87655	0.22484
1677.94787	0.22486
1676.01919	0.22464
1674.09052	0.22458
1672.16184	0.22458
1670.23317	0.22450
1668.30449	0.22465
1666.37582	0.22498
1664.44714	0.22506
1662.51846	0.22502
1660.58979	0.22508
1658.66111	0.22507
1656.73244	0.22456
1654.80376	0.22349
1652.87509	0.22295
1650.94641	0.22347
1649.01773	0.22391
1647.08906	0.22380
1645.16038	0.22392
1643.23171	0.22429
1641.30303	0.22437
1639.37436	0.22403
1637.44568	0.22357
1635.51700	0.22346
1633.58833	0.22379
1631.65965	0.22410
1629.73098	0.22407
1627.80230	0.22386
1625.87363	0.22352
1623.94495	0.22304
1622.01627	0.22269
1620.08760	0.22259
1618.15892	0.22277
1616.23025	0.22340
1614.30157	0.22429
1612.37290	0.22496
1610.44422	0.22532
1608.51554	0.22558
1606.58687	0.22582
1604.65819	0.22609
1602.72952	0.22643
1600.80084	0.22679
1598.87217	0.22703
1596.94349	0.22715
1595.01481	0.22728
1593.08614	0.22749
1591.15746	0.22772
1589.22879	0.22787
1587.30011	0.22794
1585.37144	0.22803
1583.44276	0.22817
1581.51408	0.22833
1579.58541	0.22828
1577.65673	0.22799
1575.72806	0.22794
1573.79938	0.22829
1571.87071	0.22844
1569.94203	0.22833
1568.01335	0.22843
1566.08468	0.22869
1564.15600	0.22887
1562.22733	0.22868
1560.29865	0.22801
1558.36998	0.22762
1556.44130	0.22812
1554.51262	0.22889
1552.58395	0.22929
1550.65527	0.22939
1548.72660	0.22951
1546.79792	0.22950
1544.86925	0.22909
1542.94057	0.22853
1541.01189	0.22832
1539.08322	0.22866
1537.15454	0.22923
1535.22587	0.22946
1533.29719	0.22948
1531.36852	0.22965
1529.43984	0.22976
1527.51116	0.22964
1525.58249	0.22948
1523.65381	0.22916
1521.72514	0.22881
1519.79646	0.22882
1517.86779	0.22903
1515.93911	0.22917
1514.01043	0.22926
1512.08176	0.22922
1510.15308	0.22886
1508.22441	0.22838
1506.29573	0.22838
1504.36706	0.22891
1502.43838	0.22927
1500.50970	0.22915
1498.58103	0.22876
1496.65235	0.22845
1494.72368	0.22843
1492.79500	0.22832
1490.86633	0.22791
1488.93765	0.22765
1487.00897	0.22770
1485.08030	0.22768
1483.15162	0.22737
1481.22295	0.22692
1479.29427	0.22644
1477.36560	0.22575
1475.43692	0.22480
1473.50824	0.22396
1471.57957	0.22352
1469.65089	0.22327
1467.72222	0.22279
1465.79354	0.22217
1463.86487	0.22177
1461.93619	0.22149
1460.00751	0.22088
1458.07884	0.22017
1456.15016	0.22009
1454.22149	0.22055
1452.29281	0.22086
1450.36414	0.22086
1448.43546	0.22080
1446.50678	0.22091
1444.57811	0.22105
1442.64943	0.22105
1440.72076	0.22091
1438.79208	0.22061
1436.86341	0.22032
1434.93473	0.22038
1433.00605	0.22058
1431.07738	0.22060
1429.14870	0.22051
1427.22003	0.22035
1425.29135	0.22001
1423.36268	0.21959
1421.43400	0.21904
1419.50532	0.21851
1417.57665	0.21834
1415.64797	0.21839
1413.71930	0.21835
1411.79062	0.21827
1409.86195	0.21824
1407.93327	0.21816
1406.00459	0.21805
1404.07592	0.21807
1402.14724	0.21815
1400.21857	0.21802
1398.28989	0.21777
1396.36122	0.21760
1394.43254	0.21755
1392.50386	0.21753
1390.57519	0.21730
1388.64651	0.21679
1386.71784	0.21629
1384.78916	0.21601
1382.86049	0.21587
1380.93181	0.21577
1379.00313	0.21562
1377.07446	0.21534
1375.14578	0.21503
1373.21711	0.21487
1371.28843	0.21479
1369.35976	0.21460
1367.43108	0.21429
1365.50240	0.21386
1363.57373	0.21344
1361.64505	0.21329
1359.71638	0.21335
1357.78770	0.21340
1355.85903	0.21341
1353.93035	0.21348
1352.00167	0.21366
1350.07300	0.21383
1348.14432	0.21387
1346.21565	0.21383
1344.28697	0.21371
1342.35830	0.21344
1340.42962	0.21309
1338.50094	0.21286
1336.57227	0.21276
1334.64359	0.21256
1332.71492	0.21226
1330.78624	0.21191
1328.85757	0.21151
1326.92889	0.21102
1325.00021	0.21053
1323.07154	0.21006
1321.14286	0.20955
1319.21419	0.20902
1317.28551	0.20850
1315.35684	0.20801
1313.42816	0.20755
1311.49948	0.20706
1309.57081	0.20650
1307.64213	0.20589
1305.71346	0.20526
1303.78478	0.20463
1301.85611	0.20396
1299.92743	0.20332
1297.99875	0.20270
1296.07008	0.20205
1294.14140	0.20131
1292.21273	0.20048
1290.28405	0.19946
1288.35538	0.19821
1286.42670	0.19672
1284.49802	0.19495
1282.56935	0.19297
1280.64067	0.19100
1278.71200	0.18933
1276.78332	0.18818
1274.85465	0.18767
1272.92597	0.18770
1270.99729	0.18788
1269.06862	0.18787
1267.13994	0.18762
1265.21127	0.18728
1263.28259	0.18710
1261.35392	0.18722
1259.42524	0.18752
1257.49656	0.18783
1255.56789	0.18792
1253.63921	0.18769
1251.71054	0.18718
1249.78186	0.18650
1247.85319	0.18569
1245.92451	0.18476
1243.99583	0.18371
1242.06716	0.18257
1240.13848	0.18139
1238.20981	0.18015
1236.28113	0.17875
1234.35246	0.17722
1232.42378	0.17568
1230.49510	0.17412
1228.56643	0.17256
1226.63775	0.17100
1224.70908	0.16945
1222.78040	0.16787
1220.85173	0.16625
1218.92305	0.16460
1216.99437	0.16290
1215.06570	0.16114
1213.13702	0.15935
1211.20835	0.15753
1209.27967	0.15568
1207.35100	0.15387
1205.42232	0.15212
1203.49364	0.15037
1201.56497	0.14864
1199.63629	0.14693
1197.70762	0.14525
1195.77894	0.14358
1193.85027	0.14191
1191.92159	0.14028
1189.99291	0.13866
1188.06424	0.13701
1186.13556	0.13534
1184.20689	0.13369
1182.27821	0.13205
1180.34954	0.13040
1178.42086	0.12877
1176.49218	0.12716
1174.56351	0.12558
1172.63483	0.12401
1170.70616	0.12247
1168.77748	0.12096
1166.84881	0.11944
1164.92013	0.11794
1162.99145	0.11648
1161.06278	0.11509
1159.13410	0.11374
1157.20543	0.11237
1155.27675	0.11100
1153.34808	0.10971
1151.41940	0.10849
1149.49072	0.10723
1147.56205	0.10591
1145.63337	0.10465
1143.70470	0.10347
1141.77602	0.10223
1139.84735	0.10090
1137.91867	0.09950
1135.98999	0.09799
1134.06132	0.09641
1132.13264	0.09481
1130.20397	0.09315
1128.27529	0.09133
1126.34662	0.08933
1124.41794	0.08726
1122.48926	0.08523
1120.56059	0.08328
1118.63191	0.08142
1116.70324	0.07968
1114.77456	0.07806
1112.84589	0.07654
1110.91721	0.07511
1108.98853	0.07384
1107.05986	0.07283
1105.13118	0.07201
1103.20251	0.07131
1101.27383	0.07072
1099.34516	0.07021
1097.41648	0.06976
1095.48780	0.06938
1093.55913	0.06905
1091.63045	0.06871
1089.70178	0.06827
1087.77310	0.06770
1085.84443	0.06707
1083.91575	0.06638
1081.98707	0.06557
1080.05840	0.06470
1078.12972	0.06383
1076.20105	0.06285
1074.27237	0.06184
1072.34370	0.06096
1070.41502	0.06012
1068.48634	0.05925
1066.55767	0.05842
1064.62899	0.05765
1062.70032	0.05693
1060.77164	0.05630
1058.84297	0.05577
1056.91429	0.05536
1054.98561	0.05507
1053.05694	0.05483
1051.12826	0.05462
1049.19959	0.05450
1047.27091	0.05452
1045.34224	0.05465
1043.41356	0.05482
1041.48488	0.05508
1039.55621	0.05544
1037.62753	0.05593
1035.69886	0.05652
1033.77018	0.05722
1031.84151	0.05804
1029.91283	0.05897
1027.98415	0.06001
1026.05548	0.06111
1024.12680	0.06228
1022.19813	0.06359
1020.26945	0.06511
1018.34078	0.06681
1016.41210	0.06864
1014.48342	0.07058
1012.55475	0.07271
1010.62607	0.07511
1008.69740	0.07769
1006.76872	0.08035
1004.84005	0.08307
1002.91137	0.08587
1000.98269	0.08872
999.05402	0.09161
997.12534	0.09449
995.19667	0.09740
993.26799	0.10039
991.33932	0.10335
989.41064	0.10617
987.48196	0.10887
985.55329	0.11153
983.62461	0.11416
981.69594	0.11664
979.76726	0.11888
977.83859	0.12098
975.90991	0.12299
973.98123	0.12476
972.05256	0.12626
970.12388	0.12758
968.19521	0.12880
966.26653	0.12986
964.33786	0.13078
962.40918	0.13156
960.48050	0.13218
958.55183	0.13269
956.62315	0.13312
954.69448	0.13349
952.76580	0.13375
950.83713	0.13383
948.90845	0.13380
946.97977	0.13374
945.05110	0.13360
943.12242	0.13328
941.19375	0.13285
939.26507	0.13243
937.33640	0.13204
935.40772	0.13167
933.47904	0.13122
931.55037	0.13062
929.62169	0.12994
927.69302	0.12926
925.76434	0.12859
923.83567	0.12790
921.90699	0.12717
919.97831	0.12638
918.04964	0.12552
916.12096	0.12459
914.19229	0.12357
912.26361	0.12255
910.33494	0.12153
908.40626	0.12048
906.47758	0.11942
904.54891	0.11835
902.62023	0.11729
900.69156	0.11620
898.76288	0.11510
896.83421	0.11403
894.90553	0.11306
892.97685	0.11214
891.04818	0.11121
889.11950	0.11031
887.19083	0.10961
885.26215	0.10914
883.33348	0.10885
881.40480	0.10868
879.47612	0.10859
877.54745	0.10862
875.61877	0.10884
873.69010	0.10920
871.76142	0.10966
869.83275	0.11012
867.90407	0.11049
865.97539	0.11079
864.04672	0.11107
862.11804	0.11126
860.18937	0.11131
858.26069	0.11123
856.33202	0.11101
854.40334	0.11064
852.47466	0.11020
850.54599	0.10971
848.61731	0.10921
846.68864	0.10869
844.75996	0.10811
842.83129	0.10749
840.90261	0.10680
838.97394	0.10604
837.04526	0.10528
835.11658	0.10447
833.18791	0.10352
831.25923	0.10245
829.33056	0.10135
827.40188	0.10015
825.47321	0.09887
823.54453	0.09774
821.61585	0.09683
819.68718	0.09604
817.75850	0.09536
815.82983	0.09476
813.90115	0.09418
811.97248	0.09367
810.04380	0.09328
808.11512	0.09300
806.18645	0.09280
804.25777	0.09270
802.32910	0.09267
800.40042	0.09261
798.47175	0.09237
796.54307	0.09199
794.61439	0.09169
792.68572	0.09163
790.75704	0.09172
788.82837	0.09187
786.89969	0.09206
784.97102	0.09229
783.04234	0.09250
781.11366	0.09269
779.18499	0.09286
777.25631	0.09302
775.32764	0.09312
773.39896	0.09317
771.47029	0.09327
769.54161	0.09346
767.61293	0.09360
765.68426	0.09366
763.75558	0.09368
761.82691	0.09361
759.89823	0.09345
757.96956	0.09330
756.04088	0.09316
754.11220	0.09294
752.18353	0.09263
750.25485	0.09225
748.32618	0.09183
746.39750	0.09137
744.46883	0.09085
742.54015	0.09025
740.61147	0.08967
738.68280	0.08931
736.75412	0.08927
734.82545	0.08941
732.89677	0.08954
730.96810	0.08970
729.03942	0.08995
727.11074	0.09026
725.18207	0.09053
723.25339	0.09069
721.32472	0.09078
719.39604	0.09101
717.46737	0.09146
715.53869	0.09196
713.61001	0.09241
711.68134	0.09286
709.75266	0.09324
707.82399	0.09340
705.89531	0.09331
703.96664	0.09313
702.03796	0.09289
700.10928	0.09253
698.18061	0.09208
696.25193	0.09158
694.32326	0.09102
692.39458	0.09041
690.46591	0.08987
688.53723	0.08949
686.60855	0.08918
684.67988	0.08878
682.75120	0.08826
680.82253	0.08770
678.89385	0.08711
676.96518	0.08648
675.03650	0.08581
673.10782	0.08513
671.17915	0.08439
669.25047	0.08361
667.32180	0.08288
665.39312	0.08217
663.46445	0.08131
661.53577	0.08036
659.60709	0.07952
657.67842	0.07878
655.74974	0.07802
653.82107	0.07716
651.89239	0.07629
649.96372	0.07552
648.03504	0.07479
646.10636	0.07400
644.17769	0.07310
642.24901	0.07213
640.32034	0.07112
638.39166	0.07015
636.46299	0.06920
634.53431	0.06815
632.60563	0.06668
630.67696	0.06433
628.74828	0.06095
626.81961	0.05682
624.89093	0.05264
622.96226	0.04928
621.03358	0.04712
619.10490	0.04589
617.17623	0.04507
615.24755	0.04419
613.31888	0.04312
611.39020	0.04213
609.46153	0.04160
607.53285	0.04163
605.60417	0.04199
603.67550	0.04257
601.74682	0.04336
599.81815	0.04427
597.88947	0.04508
595.96080	0.04566
594.03212	0.04600
592.10344	0.04617
590.17477	0.04627
588.24609	0.04635
586.31742	0.04631
584.38874	0.04606
582.46007	0.04570
580.53139	0.04531
578.60271	0.04482
576.67404	0.04422
574.74536	0.04360
572.81669	0.04298
570.88801	0.04233
568.95934	0.04175
567.03066	0.04130
565.10198	0.04096
563.17331	0.04066
561.24463	0.04041
559.31596	0.04017
557.38728	0.03989
555.45861	0.03966
553.52993	0.03951
551.60125	0.03928
549.67258	0.03903
547.74390	0.03883
545.81523	0.03865
543.88655	0.03847
541.95788	0.03834
540.02920	0.03825
538.10052	0.03810
536.17185	0.03786
534.24317	0.03762
532.31450	0.03737
530.38582	0.03706
528.45715	0.03672
526.52847	0.03637
524.59979	0.03599
522.67112	0.03560
520.74244	0.03510
518.81377	0.03445
516.88509	0.03379
514.95642	0.03329
513.02774	0.03297
511.09906	0.03272
509.17039	0.03241
507.24171	0.03212
505.31304	0.03183
503.38436	0.03139
501.45569	0.03079
499.52701	0.03013
497.59833	0.02950
495.66966	0.02893
493.74098	0.02836
491.81231	0.02774
489.88363	0.02705
487.95496	0.02632
486.02628	0.02560
484.09760	0.02498
482.16893	0.02443
480.24025	0.02384
478.31158	0.02319
476.38290	0.02252
474.45423	0.02185
472.52555	0.02113
470.59687	0.02054
468.66820	0.02019
466.73952	0.01988
464.81085	0.01954
462.88217	0.01923
460.95350	0.01890
459.02482	0.01855
457.09614	0.01836
455.16747	0.01836
453.23879	0.01840
451.31012	0.01835
449.38144	0.01826
447.45277	0.01824
445.52409	0.01820
443.59541	0.01797
441.66674	0.01764
439.73806	0.01740
437.80939	0.01717
435.88071	0.01678
433.95204	0.01630
432.02336	0.01580
430.09468	0.01521
428.16601	0.01463
426.23733	0.01418
424.30866	0.01383
422.37998	0.01345
420.45131	0.01298
418.52263	0.01249
416.59395	0.01204
414.66528	0.01157
412.73660	0.01104
410.80793	0.01050
408.87925	0.00998
406.95058	0.00945
405.02190	0.00889
403.09322	0.00839
401.16455	0.00792
399.23587	0.00743
397.30720	0.00701
395.37852	0.00673
393.44985	0.00649
391.52117	0.00614
389.59249	0.00572
387.66382	0.00532
385.73514	0.00499
383.80647	0.00469
381.87779	0.00433
379.94912	0.00401
378.02044	0.00371
376.09176	0.00331
374.16309	0.00291
372.23441	0.00264
370.30574	0.00248
368.37706	0.00227
