7496.76250	0.00146
7494.83382	0.00146
7492.90514	0.00148
7490.97647	0.00151
7489.04779	0.00152
7487.11912	0.00153
7485.19044	0.00153
7483.26177	0.00153
7481.33309	0.00152
7479.40441	0.00149
7477.47574	0.00148
7475.54706	0.00150
7473.61839	0.00152
7471.68971	0.00153
7469.76104	0.00152
7467.83236	0.00153
7465.90368	0.00154
7463.97501	0.00155
7462.04633	0.00157
7460.11766	0.00158
7458.18898	0.00158
7456.26031	0.00157
7454.33163	0.00157
7452.40295	0.00157
7450.47428	0.00157
7448.54560	0.00157
7446.61693	0.00158
7444.68825	0.00160
7442.75958	0.00160
7440.83090	0.00158
7438.90222	0.00158
7436.97355	0.00159
7435.04487	0.00161
7433.11620	0.00162
7431.18752	0.00161
7429.25885	0.00161
7427.33017	0.00162
7425.40149	0.00163
7423.47282	0.00163
7421.54414	0.00162
7419.61547	0.00163
7417.68679	0.00166
7415.75812	0.00167
7413.82944	0.00167
7411.90076	0.00166
7409.97209	0.00166
7408.04341	0.00168
7406.11474	0.00169
7404.18606	0.00169
7402.25739	0.00169
7400.32871	0.00169
7398.40003	0.00170
7396.47136	0.00172
7394.54268	0.00172
7392.61401	0.00171
7390.68533	0.00171
7388.75666	0.00172
7386.82798	0.00172
7384.89930	0.00172
7382.97063	0.00172
7381.04195	0.00173
7379.11328	0.00175
7377.18460	0.00176
7375.25593	0.00177
7373.32725	0.00179
7371.39857	0.00180
7369.46990	0.00178
7367.54122	0.00177
7365.61255	0.00177
7363.68387	0.00178
7361.75520	0.00179
7359.82652	0.00181
7357.89784	0.00180
7355.96917	0.00179
7354.04049	0.00179
7352.11182	0.00179
7350.18314	0.00179
7348.25447	0.00179
7346.32579	0.00182
7344.39711	0.00183
7342.46844	0.00184
7340.53976	0.00184
7338.61109	0.00183
7336.68241	0.00183
7334.75374	0.00183
7332.82506	0.00184
7330.89638	0.00185
7328.96771	0.00187
7327.03903	0.00189
7325.11036	0.00189
7323.18168	0.00188
7321.25301	0.00188
7319.32433	0.00188
7317.39565	0.00189
7315.46698	0.00190
7313.53830	0.00191
7311.60963	0.00192
7309.68095	0.00192
7307.75228	0.00193
7305.82360	0.00195
7303.89492	0.00195
7301.96625	0.00195
7300.03757	0.00194
7298.10890	0.00194
7296.18022	0.00195
7294.25155	0.00197
7292.32287	0.00199
7290.39419	0.00198
7288.46552	0.00196
7286.53684	0.00196
7284.60817	0.00198
7282.67949	0.00200
7280.75082	0.00201
7278.82214	0.00201
7276.89346	0.00200
7274.96479	0.00200
7273.03611	0.00202
7271.10744	0.00203
7269.17876	0.00204
7267.25009	0.00204
7265.32141	0.00204
7263.39273	0.00205
7261.46406	0.00206
7259.53538	0.00205
7257.60671	0.00205
7255.67803	0.00205
7253.74936	0.00205
7251.82068	0.00205
7249.89200	0.00205
7247.96333	0.00206
7246.03465	0.00207
7244.10598	0.00207
7242.17730	0.00208
7240.24863	0.00210
7238.31995	0.00211
7236.39127	0.00211
7234.46260	0.00211
7232.53392	0.00211
7230.60525	0.00211
7228.67657	0.00212
7226.74790	0.00212
7224.81922	0.00213
7222.89054	0.00214
7220.96187	0.00214
7219.03319	0.00214
7217.10452	0.00215
7215.17584	0.00216
7213.24717	0.00216
7211.31849	0.00215
7209.38981	0.00216
7207.46114	0.00218
7205.53246	0.00220
7203.60379	0.00219
7201.67511	0.00218
7199.74644	0.00218
7197.81776	0.00219
7195.88908	0.00220
7193.96041	0.00221
7192.03173	0.00222
7190.10306	0.00221
7188.17438	0.00221
7186.24571	0.00221
7184.31703	0.00221
7182.38835	0.00221
7180.45968	0.00222
7178.53100	0.00224
7176.60233	0.00226
7174.67365	0.00227
7172.74498	0.00229
7170.81630	0.00229
7168.88762	0.00229
7166.95895	0.00230
7165.03027	0.00231
7163.10160	0.00231
7161.17292	0.00230
7159.24425	0.00230
7157.31557	0.00229
7155.38689	0.00230
7153.45822	0.00232
7151.52954	0.00233
7149.60087	0.00234
7147.67219	0.00234
7145.74352	0.00234
7143.81484	0.00235
7141.88616	0.00235
7139.95749	0.00236
7138.02881	0.00237
7136.10014	0.00237
7134.17146	0.00237
7132.24279	0.00237
7130.31411	0.00238
7128.38543	0.00239
7126.45676	0.00239
7124.52808	0.00239
7122.59941	0.00239
7120.67073	0.00240
7118.74206	0.00241
7116.81338	0.00242
7114.88470	0.00243
7112.95603	0.00243
7111.02735	0.00243
7109.09868	0.00243
7107.17000	0.00244
7105.24133	0.00246
7103.31265	0.00247
7101.38397	0.00248
7099.45530	0.00247
7097.52662	0.00246
7095.59795	0.00247
7093.66927	0.00248
7091.74060	0.00249
7089.81192	0.00250
7087.88324	0.00250
7085.95457	0.00251
7084.02589	0.00251
7082.09722	0.00252
7080.16854	0.00253
7078.23987	0.00253
7076.31119	0.00252
7074.38251	0.00253
7072.45384	0.00254
7070.52516	0.00255
7068.59649	0.00254
7066.66781	0.00254
7064.73914	0.00255
7062.81046	0.00258
7060.88178	0.00261
7058.95311	0.00261
7057.02443	0.00260
7055.09576	0.00259
7053.16708	0.00258
7051.23841	0.00258
7049.30973	0.00258
7047.38105	0.00260
7045.45238	0.00262
7043.52370	0.00264
7041.59503	0.00265
7039.66635	0.00265
7037.73768	0.00265
7035.80900	0.00266
7033.88032	0.00267
7031.95165	0.00268
7030.02297	0.00268
7028.09430	0.00269
7026.16562	0.00270
7024.23695	0.00270
7022.30827	0.00271
7020.37959	0.00273
7018.45092	0.00273
7016.52224	0.00271
7014.59357	0.00271
7012.66489	0.00273
7010.73622	0.00275
7008.80754	0.00274
7006.87886	0.00273
7004.95019	0.00274
7003.02151	0.00276
7001.09284	0.00278
6999.16416	0.00278
6997.23549	0.00277
6995.30681	0.00277
6993.37813	0.00277
6991.44946	0.00278
6989.52078	0.00279
6987.59211	0.00281
6985.66343	0.00283
6983.73476	0.00285
6981.80608	0.00286
6979.87740	0.00284
6977.94873	0.00282
6976.02005	0.00282
6974.09138	0.00282
6972.16270	0.00283
6970.23403	0.00284
6968.30535	0.00284
6966.37667	0.00284
6964.44800	0.00285
6962.51932	0.00287
6960.59065	0.00288
6958.66197	0.00288
6956.73330	0.00288
6954.80462	0.00289
6952.87594	0.00291
6950.94727	0.00292
6949.01859	0.00293
6947.08992	0.00293
6945.16124	0.00293
6943.23257	0.00294
6941.30389	0.00295
6939.37521	0.00296
6937.44654	0.00297
6935.51786	0.00298
6933.58919	0.00298
6931.66051	0.00298
6929.73184	0.00300
6927.80316	0.00301
6925.87448	0.00302
6923.94581	0.00302
6922.01713	0.00302
6920.08846	0.00302
6918.15978	0.00302
6916.23111	0.00302
6914.30243	0.00302
6912.37375	0.00303
6910.44508	0.00305
6908.51640	0.00307
6906.58773	0.00307
6904.65905	0.00308
6902.73038	0.00308
6900.80170	0.00307
6898.87302	0.00306
6896.94435	0.00306
6895.01567	0.00306
6893.08700	0.00308
6891.15832	0.00309
6889.22965	0.00309
6887.30097	0.00311
6885.37229	0.00313
6883.44362	0.00314
6881.51494	0.00314
6879.58627	0.00314
6877.65759	0.00314
6875.72892	0.00314
6873.80024	0.00315
6871.87156	0.00316
6869.94289	0.00316
6868.01421	0.00317
6866.08554	0.00317
6864.15686	0.00318
6862.22819	0.00319
6860.29951	0.00320
6858.37083	0.00321
6856.44216	0.00323
6854.51348	0.00324
6852.58481	0.00325
6850.65613	0.00325
6848.72746	0.00325
6846.79878	0.00325
6844.87010	0.00326
6842.94143	0.00325
6841.01275	0.00326
6839.08408	0.00327
6837.15540	0.00326
6835.22673	0.00326
6833.29805	0.00327
6831.36937	0.00328
6829.44070	0.00330
6827.51202	0.00332
6825.58335	0.00333
6823.65467	0.00334
6821.72600	0.00335
6819.79732	0.00335
6817.86864	0.00335
6815.93997	0.00335
6814.01129	0.00336
6812.08262	0.00336
6810.15394	0.00336
6808.22527	0.00337
6806.29659	0.00339
6804.36791	0.00340
6802.43924	0.00341
6800.51056	0.00343
6798.58189	0.00343
6796.65321	0.00343
6794.72454	0.00343
6792.79586	0.00344
6790.86718	0.00344
6788.93851	0.00344
6787.00983	0.00344
6785.08116	0.00345
6783.15248	0.00346
6781.22381	0.00347
6779.29513	0.00348
6777.36645	0.00349
6775.43778	0.00348
6773.50910	0.00349
6771.58043	0.00350
6769.65175	0.00351
6767.72308	0.00352
6765.79440	0.00353
6763.86572	0.00353
6761.93705	0.00354
6760.00837	0.00353
6758.07970	0.00353
6756.15102	0.00354
6754.22235	0.00355
6752.29367	0.00356
6750.36499	0.00358
6748.43632	0.00360
6746.50764	0.00360
6744.57897	0.00362
6742.65029	0.00364
6740.72162	0.00363
6738.79294	0.00361
6736.86426	0.00360
6734.93559	0.00360
6733.00691	0.00362
6731.07824	0.00364
6729.14956	0.00366
6727.22089	0.00366
6725.29221	0.00367
6723.36353	0.00369
6721.43486	0.00370
6719.50618	0.00370
6717.57751	0.00370
6715.64883	0.00373
6713.72016	0.00375
6711.79148	0.00376
6709.86280	0.00376
6707.93413	0.00375
6706.00545	0.00373
6704.07678	0.00373
6702.14810	0.00374
6700.21943	0.00375
6698.29075	0.00376
6696.36207	0.00377
6694.43340	0.00378
6692.50472	0.00380
6690.57605	0.00382
6688.64737	0.00383
6686.71870	0.00385
6684.79002	0.00386
6682.86134	0.00385
6680.93267	0.00384
6679.00399	0.00383
6677.07532	0.00384
6675.14664	0.00386
6673.21797	0.00388
6671.28929	0.00388
6669.36061	0.00388
6667.43194	0.00389
6665.50326	0.00390
6663.57459	0.00391
6661.64591	0.00393
6659.71724	0.00395
6657.78856	0.00396
6655.85988	0.00396
6653.93121	0.00395
6652.00253	0.00394
6650.07386	0.00394
6648.14518	0.00393
6646.21651	0.00395
6644.28783	0.00398
6642.35915	0.00400
6640.43048	0.00401
6638.50180	0.00403
6636.57313	0.00404
6634.64445	0.00405
6632.71578	0.00405
6630.78710	0.00405
6628.85842	0.00406
6626.92975	0.00407
6625.00107	0.00406
6623.07240	0.00405
6621.14372	0.00405
6619.21505	0.00406
6617.28637	0.00408
6615.35769	0.00410
6613.42902	0.00412
6611.50034	0.00413
6609.57167	0.00414
6607.64299	0.00415
6605.71432	0.00415
6603.78564	0.00416
6601.85696	0.00417
6599.92829	0.00418
6597.99961	0.00418
6596.07094	0.00419
6594.14226	0.00422
6592.21359	0.00423
6590.28491	0.00424
6588.35623	0.00423
6586.42756	0.00423
6584.49888	0.00423
6582.57021	0.00424
6580.64153	0.00425
6578.71286	0.00425
6576.78418	0.00426
6574.85550	0.00427
6572.92683	0.00429
6570.99815	0.00429
6569.06948	0.00429
6567.14080	0.00431
6565.21213	0.00432
6563.28345	0.00431
6561.35477	0.00431
6559.42610	0.00432
6557.49742	0.00433
6555.56875	0.00434
6553.64007	0.00435
6551.71140	0.00436
6549.78272	0.00435
6547.85404	0.00436
6545.92537	0.00437
6543.99669	0.00437
6542.06802	0.00439
6540.13934	0.00442
6538.21067	0.00444
6536.28199	0.00444
6534.35331	0.00443
6532.42464	0.00441
6530.49596	0.00441
6528.56729	0.00444
6526.63861	0.00448
6524.70994	0.00449
6522.78126	0.00449
6520.85258	0.00449
6518.92391	0.00450
6516.99523	0.00452
6515.06656	0.00453
6513.13788	0.00454
6511.20921	0.00456
6509.28053	0.00456
6507.35185	0.00455
6505.42318	0.00454
6503.49450	0.00455
6501.56583	0.00457
6499.63715	0.00459
6497.70848	0.00461
6495.77980	0.00462
6493.85112	0.00461
6491.92245	0.00460
6489.99377	0.00460
6488.06510	0.00462
6486.13642	0.00464
6484.20775	0.00466
6482.27907	0.00468
6480.35039	0.00469
6478.42172	0.00469
6476.49304	0.00469
6474.56437	0.00470
6472.63569	0.00472
6470.70702	0.00473
6468.77834	0.00472
6466.84966	0.00472
6464.92099	0.00473
6462.99231	0.00473
6461.06364	0.00472
6459.13496	0.00473
6457.20629	0.00476
6455.27761	0.00478
6453.34893	0.00480
6451.42026	0.00482
6449.49158	0.00484
6447.56291	0.00485
6445.63423	0.00486
6443.70556	0.00484
6441.77688	0.00482
6439.84820	0.00484
6437.91953	0.00487
6435.99085	0.00488
6434.06218	0.00489
6432.13350	0.00490
6430.20483	0.00491
6428.27615	0.00492
6426.34747	0.00494
6424.41880	0.00494
6422.49012	0.00494
6420.56145	0.00493
6418.63277	0.00493
6416.70410	0.00493
6414.77542	0.00494
6412.84674	0.00497
6410.91807	0.00499
6408.98939	0.00500
6407.06072	0.00502
6405.13204	0.00502
6403.20337	0.00503
6401.27469	0.00505
6399.34601	0.00508
6397.41734	0.00509
6395.48866	0.00509
6393.55999	0.00508
6391.63131	0.00507
6389.70264	0.00507
6387.77396	0.00507
6385.84528	0.00509
6383.91661	0.00510
6381.98793	0.00512
6380.05926	0.00513
6378.13058	0.00513
6376.20191	0.00514
6374.27323	0.00515
6372.34455	0.00515
6370.41588	0.00516
6368.48720	0.00518
6366.55853	0.00520
6364.62985	0.00521
6362.70118	0.00522
6360.77250	0.00523
6358.84382	0.00524
6356.91515	0.00524
6354.98647	0.00525
6353.05780	0.00525
6351.12912	0.00526
6349.20045	0.00528
6347.27177	0.00530
6345.34309	0.00531
6343.41442	0.00532
6341.48574	0.00534
6339.55707	0.00536
6337.62839	0.00538
6335.69972	0.00537
6333.77104	0.00537
6331.84236	0.00540
6329.91369	0.00542
6327.98501	0.00542
6326.05634	0.00541
6324.12766	0.00542
6322.19899	0.00543
6320.27031	0.00544
6318.34163	0.00544
6316.41296	0.00543
6314.48428	0.00544
6312.55561	0.00546
6310.62693	0.00549
6308.69826	0.00550
6306.76958	0.00551
6304.84090	0.00552
6302.91223	0.00553
6300.98355	0.00556
6299.05488	0.00557
6297.12620	0.00556
6295.19753	0.00555
6293.26885	0.00557
6291.34017	0.00559
6289.41150	0.00561
6287.48282	0.00561
6285.55415	0.00563
6283.62547	0.00566
6281.69680	0.00566
6279.76812	0.00564
6277.83944	0.00564
6275.91077	0.00565
6273.98209	0.00566
6272.05342	0.00568
6270.12474	0.00570
6268.19607	0.00571
6266.26739	0.00571
6264.33871	0.00571
6262.41004	0.00572
6260.48136	0.00572
6258.55269	0.00572
6256.62401	0.00572
6254.69534	0.00574
6252.76666	0.00575
6250.83798	0.00575
6248.90931	0.00575
6246.98063	0.00577
6245.05196	0.00579
6243.12328	0.00582
6241.19461	0.00585
6239.26593	0.00587
6237.33725	0.00588
6235.40858	0.00589
6233.47990	0.00588
6231.55123	0.00588
6229.62255	0.00590
6227.69388	0.00592
6225.76520	0.00593
6223.83652	0.00594
6221.90785	0.00594
6219.97917	0.00596
6218.05050	0.00599
6216.12182	0.00601
6214.19315	0.00602
6212.26447	0.00603
6210.33579	0.00603
6208.40712	0.00603
6206.47844	0.00604
6204.54977	0.00605
6202.62109	0.00606
6200.69242	0.00607
6198.76374	0.00610
6196.83506	0.00611
6194.90639	0.00612
6192.97771	0.00614
6191.04904	0.00614
6189.12036	0.00613
6187.19169	0.00614
6185.26301	0.00616
6183.33433	0.00618
6181.40566	0.00619
6179.47698	0.00620
6177.54831	0.00621
6175.61963	0.00622
6173.69096	0.00623
6171.76228	0.00623
6169.83360	0.00622
6167.90493	0.00623
6165.97625	0.00626
6164.04758	0.00629
6162.11890	0.00630
6160.19023	0.00631
6158.26155	0.00632
6156.33287	0.00634
6154.40420	0.00635
6152.47552	0.00636
6150.54685	0.00637
6148.61817	0.00638
6146.68950	0.00640
6144.76082	0.00641
6142.83214	0.00640
6140.90347	0.00640
6138.97479	0.00640
6137.04612	0.00640
6135.11744	0.00642
6133.18877	0.00646
6131.26009	0.00648
6129.33141	0.00650
6127.40274	0.00651
6125.47406	0.00652
6123.54539	0.00653
6121.61671	0.00656
6119.68804	0.00658
6117.75936	0.00656
6115.83068	0.00655
6113.90201	0.00656
6111.97333	0.00659
6110.04466	0.00661
6108.11598	0.00662
6106.18731	0.00663
6104.25863	0.00664
6102.32995	0.00665
6100.40128	0.00667
6098.47260	0.00668
6096.54393	0.00668
6094.61525	0.00669
6092.68658	0.00671
6090.75790	0.00672
6088.82922	0.00674
6086.90055	0.00676
6084.97187	0.00676
6083.04320	0.00675
6081.11452	0.00675
6079.18585	0.00676
6077.25717	0.00677
6075.32849	0.00680
6073.39982	0.00682
6071.47114	0.00684
6069.54247	0.00684
6067.61379	0.00684
6065.68512	0.00683
6063.75644	0.00684
6061.82776	0.00687
6059.89909	0.00689
6057.97041	0.00691
6056.04174	0.00693
6054.11306	0.00694
6052.18439	0.00695
6050.25571	0.00697
6048.32703	0.00697
6046.39836	0.00698
6044.46968	0.00701
6042.54101	0.00703
6040.61233	0.00704
6038.68366	0.00705
6036.75498	0.00706
6034.82630	0.00706
6032.89763	0.00706
6030.96895	0.00707
6029.04028	0.00710
6027.11160	0.00713
6025.18293	0.00715
6023.25425	0.00715
6021.32557	0.00714
6019.39690	0.00714
6017.46822	0.00715
6015.53955	0.00718
6013.61087	0.00721
6011.68220	0.00723
6009.75352	0.00726
6007.82484	0.00728
6005.89617	0.00728
6003.96749	0.00729
6002.03882	0.00729
6000.11014	0.00730
5998.18147	0.00730
5996.25279	0.00732
5994.32411	0.00734
5992.39544	0.00736
5990.46676	0.00736
5988.53809	0.00735
5986.60941	0.00736
5984.68074	0.00739
5982.75206	0.00741
5980.82338	0.00741
5978.89471	0.00741
5976.96603	0.00743
5975.03736	0.00745
5973.10868	0.00748
5971.18001	0.00750
5969.25133	0.00749
5967.32265	0.00750
5965.39398	0.00753
5963.46530	0.00756
5961.53663	0.00758
5959.60795	0.00759
5957.67928	0.00759
5955.75060	0.00759
5953.82192	0.00760
5951.89325	0.00762
5949.96457	0.00764
5948.03590	0.00765
5946.10722	0.00767
5944.17855	0.00767
5942.24987	0.00768
5940.32119	0.00768
5938.39252	0.00770
5936.46384	0.00772
5934.53517	0.00774
5932.60649	0.00776
5930.67782	0.00778
5928.74914	0.00780
5926.82046	0.00782
5924.89179	0.00782
5922.96311	0.00782
5921.03444	0.00783
5919.10576	0.00785
5917.17709	0.00785
5915.24841	0.00786
5913.31973	0.00788
5911.39106	0.00791
5909.46238	0.00794
5907.53371	0.00795
5905.60503	0.00795
5903.67636	0.00797
5901.74768	0.00797
5899.81900	0.00798
5897.89033	0.00799
5895.96165	0.00802
5894.03298	0.00806
5892.10430	0.00808
5890.17563	0.00808
5888.24695	0.00808
5886.31827	0.00808
5884.38960	0.00810
5882.46092	0.00812
5880.53225	0.00812
5878.60357	0.00811
5876.67490	0.00812
5874.74622	0.00814
5872.81755	0.00817
5870.88887	0.00819
5868.96019	0.00820
5867.03152	0.00821
5865.10284	0.00822
5863.17417	0.00823
5861.24549	0.00824
5859.31682	0.00826
5857.38814	0.00829
5855.45946	0.00832
5853.53079	0.00835
5851.60211	0.00836
5849.67344	0.00838
5847.74476	0.00839
5845.81609	0.00840
5843.88741	0.00840
5841.95873	0.00837
5840.03006	0.00837
5838.10138	0.00840
5836.17271	0.00842
5834.24403	0.00844
5832.31536	0.00847
5830.38668	0.00850
5828.45800	0.00852
5826.52933	0.00853
5824.60065	0.00854
5822.67198	0.00856
5820.74330	0.00858
5818.81463	0.00860
5816.88595	0.00862
5814.95727	0.00864
5813.02860	0.00865
5811.09992	0.00865
5809.17125	0.00865
5807.24257	0.00866
5805.31390	0.00867
5803.38522	0.00869
5801.45654	0.00871
5799.52787	0.00872
5797.59919	0.00874
5795.67052	0.00876
5793.74184	0.00878
5791.81317	0.00880
5789.88449	0.00881
5787.95581	0.00883
5786.02714	0.00885
5784.09846	0.00885
5782.16979	0.00884
5780.24111	0.00886
5778.31244	0.00889
5776.38376	0.00892
5774.45508	0.00895
5772.52641	0.00897
5770.59773	0.00897
5768.66906	0.00897
5766.74038	0.00897
5764.81171	0.00900
5762.88303	0.00903
5760.95435	0.00903
5759.02568	0.00903
5757.09700	0.00904
5755.16833	0.00907
5753.23965	0.00909
5751.31098	0.00909
5749.38230	0.00910
5747.45362	0.00913
5745.52495	0.00916
5743.59627	0.00918
5741.66760	0.00920
5739.73892	0.00922
5737.81025	0.00922
5735.88157	0.00922
5733.95289	0.00920
5732.02422	0.00920
5730.09554	0.00923
5728.16687	0.00929
5726.23819	0.00934
5724.30952	0.00936
5722.38084	0.00936
5720.45216	0.00935
5718.52349	0.00937
5716.59481	0.00939
5714.66614	0.00941
5712.73746	0.00941
5710.80879	0.00943
5708.88011	0.00944
5706.95143	0.00946
5705.02276	0.00948
5703.09408	0.00952
5701.16541	0.00954
5699.23673	0.00955
5697.30806	0.00955
5695.37938	0.00955
5693.45070	0.00956
5691.52203	0.00956
5689.59335	0.00960
5687.66468	0.00964
5685.73600	0.00965
5683.80733	0.00964
5681.87865	0.00964
5679.94997	0.00966
5678.02130	0.00970
5676.09262	0.00974
5674.16395	0.00975
5672.23527	0.00975
5670.30660	0.00975
5668.37792	0.00979
5666.44924	0.00983
5664.52057	0.00985
5662.59189	0.00986
5660.66322	0.00987
5658.73454	0.00987
5656.80587	0.00987
5654.87719	0.00988
5652.94851	0.00990
5651.01984	0.00992
5649.09116	0.00995
5647.16249	0.00998
5645.23381	0.01000
5643.30514	0.01002
5641.37646	0.01004
5639.44778	0.01005
5637.51911	0.01006
5635.59043	0.01007
5633.66176	0.01008
5631.73308	0.01010
5629.80441	0.01012
5627.87573	0.01016
5625.94705	0.01018
5624.01838	0.01019
5622.08970	0.01020
5620.16103	0.01022
5618.23235	0.01025
5616.30368	0.01028
5614.37500	0.01029
5612.44632	0.01028
5610.51765	0.01029
5608.58897	0.01030
5606.66030	0.01031
5604.73162	0.01033
5602.80295	0.01035
5600.87427	0.01038
5598.94559	0.01039
5597.01692	0.01040
5595.08824	0.01043
5593.15957	0.01046
5591.23089	0.01048
5589.30222	0.01049
5587.37354	0.01049
5585.44486	0.01050
5583.51619	0.01052
5581.58751	0.01054
5579.65884	0.01056
5577.73016	0.01058
5575.80149	0.01061
5573.87281	0.01062
5571.94413	0.01063
5570.01546	0.01064
5568.08678	0.01067
5566.15811	0.01070
5564.22943	0.01073
5562.30076	0.01076
5560.37208	0.01078
5558.44340	0.01079
5556.51473	0.01078
5554.58605	0.01078
5552.65738	0.01079
5550.72870	0.01081
5548.80003	0.01084
5546.87135	0.01088
5544.94267	0.01091
5543.01400	0.01092
5541.08532	0.01093
5539.15665	0.01095
5537.22797	0.01097
5535.29930	0.01099
5533.37062	0.01101
5531.44194	0.01102
5529.51327	0.01103
5527.58459	0.01105
5525.65592	0.01108
5523.72724	0.01112
5521.79857	0.01114
5519.86989	0.01115
5517.94121	0.01116
5516.01254	0.01117
5514.08386	0.01118
5512.15519	0.01119
5510.22651	0.01121
5508.29784	0.01124
5506.36916	0.01126
5504.44048	0.01127
5502.51181	0.01129
5500.58313	0.01131
5498.65446	0.01132
5496.72578	0.01134
5494.79711	0.01134
5492.86843	0.01135
5490.93975	0.01137
5489.01108	0.01139
5487.08240	0.01143
5485.15373	0.01146
5483.22505	0.01149
5481.29638	0.01151
5479.36770	0.01152
5477.43902	0.01153
5475.51035	0.01155
5473.58167	0.01158
5471.65300	0.01159
5469.72432	0.01159
5467.79565	0.01160
5465.86697	0.01162
5463.93829	0.01165
5462.00962	0.01167
5460.08094	0.01167
5458.15227	0.01169
5456.22359	0.01172
5454.29492	0.01175
5452.36624	0.01177
5450.43756	0.01176
5448.50889	0.01176
5446.58021	0.01178
5444.65154	0.01181
5442.72286	0.01184
5440.79419	0.01188
5438.86551	0.01191
5436.93683	0.01193
5435.00816	0.01194
5433.07948	0.01197
5431.15081	0.01201
5429.22213	0.01204
5427.29346	0.01206
5425.36478	0.01206
5423.43610	0.01207
5421.50743	0.01210
5419.57875	0.01212
5417.65008	0.01213
5415.72140	0.01212
5413.79273	0.01212
5411.86405	0.01214
5409.93537	0.01218
5408.00670	0.01222
5406.07802	0.01224
5404.14935	0.01226
5402.22067	0.01227
5400.29200	0.01228
5398.36332	0.01229
5396.43464	0.01229
5394.50597	0.01231
5392.57729	0.01234
5390.64862	0.01237
5388.71994	0.01239
5386.79127	0.01241
5384.86259	0.01244
5382.93391	0.01247
5381.00524	0.01251
5379.07656	0.01252
5377.14789	0.01250
5375.21921	0.01251
5373.29054	0.01253
5371.36186	0.01257
5369.43318	0.01260
5367.50451	0.01261
5365.57583	0.01261
5363.64716	0.01263
5361.71848	0.01265
5359.78981	0.01266
5357.86113	0.01269
5355.93245	0.01271
5354.00378	0.01273
5352.07510	0.01274
5350.14643	0.01277
5348.21775	0.01282
5346.28908	0.01286
5344.36040	0.01286
5342.43172	0.01286
5340.50305	0.01286
5338.57437	0.01287
5336.64570	0.01290
5334.71702	0.01295
5332.78835	0.01297
5330.85967	0.01298
5328.93099	0.01300
5327.00232	0.01303
5325.07364	0.01306
5323.14497	0.01308
5321.21629	0.01310
5319.28762	0.01311
5317.35894	0.01312
5315.43026	0.01314
5313.50159	0.01318
5311.57291	0.01321
5309.64424	0.01323
5307.71556	0.01324
5305.78689	0.01326
5303.85821	0.01329
5301.92953	0.01332
5300.00086	0.01334
5298.07218	0.01335
5296.14351	0.01335
5294.21483	0.01335
5292.28616	0.01339
5290.35748	0.01344
5288.42880	0.01346
5286.50013	0.01346
5284.57145	0.01347
5282.64278	0.01350
5280.71410	0.01352
5278.78543	0.01354
5276.85675	0.01357
5274.92807	0.01362
5272.99940	0.01364
5271.07072	0.01365
5269.14205	0.01366
5267.21337	0.01368
5265.28470	0.01369
5263.35602	0.01370
5261.42734	0.01372
5259.49867	0.01375
5257.56999	0.01377
5255.64132	0.01379
5253.71264	0.01381
5251.78397	0.01384
5249.85529	0.01386
5247.92661	0.01387
5245.99794	0.01390
5244.06926	0.01393
5242.14059	0.01397
5240.21191	0.01400
5238.28324	0.01402
5236.35456	0.01403
5234.42588	0.01405
5232.49721	0.01407
5230.56853	0.01409
5228.63986	0.01411
5226.71118	0.01414
5224.78251	0.01415
5222.85383	0.01416
5220.92515	0.01418
5218.99648	0.01421
5217.06780	0.01424
5215.13913	0.01426
5213.21045	0.01428
5211.28178	0.01429
5209.35310	0.01429
5207.42442	0.01429
5205.49575	0.01432
5203.56707	0.01437
5201.63840	0.01441
5199.70972	0.01444
5197.78105	0.01446
5195.85237	0.01448
5193.92369	0.01450
5191.99502	0.01450
5190.06634	0.01451
5188.13767	0.01455
5186.20899	0.01459
5184.28032	0.01461
5182.35164	0.01463
5180.42296	0.01465
5178.49429	0.01467
5176.56561	0.01468
5174.63694	0.01471
5172.70826	0.01475
5170.77959	0.01478
5168.85091	0.01480
5166.92223	0.01482
5164.99356	0.01482
5163.06488	0.01480
5161.13621	0.01482
5159.20753	0.01487
5157.27886	0.01493
5155.35018	0.01496
5153.42150	0.01499
5151.49283	0.01500
5149.56415	0.01502
5147.63548	0.01504
5145.70680	0.01507
5143.77813	0.01509
5141.84945	0.01511
5139.92077	0.01512
5137.99210	0.01512
5136.06342	0.01515
5134.13475	0.01520
5132.20607	0.01523
5130.27740	0.01525
5128.34872	0.01526
5126.42004	0.01529
5124.49137	0.01531
5122.56269	0.01533
5120.63402	0.01536
5118.70534	0.01538
5116.77667	0.01539
5114.84799	0.01541
5112.91931	0.01543
5110.99064	0.01545
5109.06196	0.01547
5107.13329	0.01549
5105.20461	0.01551
5103.27594	0.01553
5101.34726	0.01554
5099.41858	0.01557
5097.48991	0.01560
5095.56123	0.01564
5093.63256	0.01568
5091.70388	0.01571
5089.77521	0.01573
5087.84653	0.01575
5085.91785	0.01579
5083.98918	0.01581
5082.06050	0.01583
5080.13183	0.01585
5078.20315	0.01588
5076.27448	0.01590
5074.34580	0.01592
5072.41712	0.01593
5070.48845	0.01594
5068.55977	0.01594
5066.63110	0.01597
5064.70242	0.01601
5062.77375	0.01606
5060.84507	0.01608
5058.91639	0.01609
5056.98772	0.01611
5055.05904	0.01613
5053.13037	0.01616
5051.20169	0.01619
5049.27302	0.01622
5047.34434	0.01626
5045.41566	0.01629
5043.48699	0.01630
5041.55831	0.01632
5039.62964	0.01633
5037.70096	0.01636
5035.77229	0.01639
5033.84361	0.01641
5031.91493	0.01643
5029.98626	0.01647
5028.05758	0.01651
5026.12891	0.01654
5024.20023	0.01657
5022.27156	0.01661
5020.34288	0.01662
5018.41420	0.01663
5016.48553	0.01663
5014.55685	0.01665
5012.62818	0.01669
5010.69950	0.01673
5008.77083	0.01677
5006.84215	0.01679
5004.91347	0.01679
5002.98480	0.01680
5001.05612	0.01682
4999.12745	0.01685
4997.19877	0.01688
4995.27010	0.01690
4993.34142	0.01694
4991.41274	0.01697
4989.48407	0.01697
4987.55539	0.01698
4985.62672	0.01700
4983.69804	0.01705
4981.76937	0.01710
4979.84069	0.01713
4977.91201	0.01715
4975.98334	0.01718
4974.05466	0.01721
4972.12599	0.01723
4970.19731	0.01724
4968.26864	0.01727
4966.33996	0.01731
4964.41128	0.01734
4962.48261	0.01737
4960.55393	0.01739
4958.62526	0.01740
4956.69658	0.01742
4954.76791	0.01745
4952.83923	0.01749
4950.91055	0.01752
4948.98188	0.01755
4947.05320	0.01756
4945.12453	0.01759
4943.19585	0.01762
4941.26718	0.01764
4939.33850	0.01766
4937.40982	0.01769
4935.48115	0.01771
4933.55247	0.01771
4931.62380	0.01772
4929.69512	0.01775
4927.76645	0.01780
4925.83777	0.01785
4923.90909	0.01788
4921.98042	0.01791
4920.05174	0.01793
4918.12307	0.01795
4916.19439	0.01797
4914.26572	0.01799
4912.33704	0.01801
4910.40836	0.01804
4908.47969	0.01808
4906.55101	0.01810
4904.62234	0.01813
4902.69366	0.01817
4900.76499	0.01820
4898.83631	0.01821
4896.90763	0.01823
4894.97896	0.01827
4893.05028	0.01833
4891.12161	0.01837
4889.19293	0.01839
4887.26426	0.01840
4885.33558	0.01841
4883.40690	0.01842
4881.47823	0.01843
4879.54955	0.01845
4877.62088	0.01848
4875.69220	0.01851
4873.76353	0.01855
4871.83485	0.01860
4869.90617	0.01866
4867.97750	0.01869
4866.04882	0.01870
4864.12015	0.01872
4862.19147	0.01874
4860.26280	0.01875
4858.33412	0.01877
4856.40544	0.01883
4854.47677	0.01887
4852.54809	0.01890
4850.61942	0.01892
4848.69074	0.01894
4846.76207	0.01896
4844.83339	0.01899
4842.90471	0.01903
4840.97604	0.01906
4839.04736	0.01908
4837.11869	0.01912
4835.19001	0.01915
4833.26134	0.01918
4831.33266	0.01920
4829.40398	0.01925
4827.47531	0.01929
4825.54663	0.01932
4823.61796	0.01933
4821.68928	0.01936
4819.76061	0.01938
4817.83193	0.01940
4815.90325	0.01943
4813.97458	0.01947
4812.04590	0.01953
4810.11723	0.01958
4808.18855	0.01960
4806.25988	0.01961
4804.33120	0.01961
4802.40252	0.01964
4800.47385	0.01969
4798.54517	0.01974
4796.61650	0.01977
4794.68782	0.01978
4792.75915	0.01982
4790.83047	0.01987
4788.90179	0.01990
4786.97312	0.01991
4785.04444	0.01990
4783.11577	0.01992
4781.18709	0.01995
4779.25842	0.01998
4777.32974	0.02002
4775.40106	0.02005
4773.47239	0.02008
4771.54371	0.02012
4769.61504	0.02015
4767.68636	0.02018
4765.75769	0.02020
4763.82901	0.02022
4761.90033	0.02023
4759.97166	0.02026
4758.04298	0.02031
4756.11431	0.02036
4754.18563	0.02041
4752.25696	0.02045
4750.32828	0.02049
4748.39960	0.02052
4746.47093	0.02055
4744.54225	0.02058
4742.61358	0.02062
4740.68490	0.02066
4738.75623	0.02071
4736.82755	0.02075
4734.89887	0.02077
4732.97020	0.02077
4731.04152	0.02080
4729.11285	0.02085
4727.18417	0.02088
4725.25550	0.02090
4723.32682	0.02092
4721.39814	0.02096
4719.46947	0.02102
4717.54079	0.02106
4715.61212	0.02108
4713.68344	0.02108
4711.75477	0.02111
4709.82609	0.02116
4707.89741	0.02121
4705.96874	0.02122
4704.04006	0.02124
4702.11139	0.02128
4700.18271	0.02133
4698.25404	0.02137
4696.32536	0.02138
4694.39668	0.02140
4692.46801	0.02142
4690.53933	0.02144
4688.61066	0.02148
4686.68198	0.02154
4684.75331	0.02160
4682.82463	0.02165
4680.89595	0.02169
4678.96728	0.02173
4677.03860	0.02177
4675.10993	0.02180
4673.18125	0.02181
4671.25258	0.02183
4669.32390	0.02186
4667.39522	0.02190
4665.46655	0.02195
4663.53787	0.02199
4661.60920	0.02202
4659.68052	0.02204
4657.75185	0.02209
4655.82317	0.02213
4653.89449	0.02216
4651.96582	0.02218
4650.03714	0.02221
4648.10847	0.02223
4646.17979	0.02226
4644.25112	0.02230
4642.32244	0.02235
4640.39376	0.02239
4638.46509	0.02245
4636.53641	0.02251
4634.60774	0.02255
4632.67906	0.02258
4630.75039	0.02262
4628.82171	0.02265
4626.89303	0.02267
4624.96436	0.02268
4623.03568	0.02271
4621.10701	0.02275
4619.17833	0.02281
4617.24966	0.02286
4615.32098	0.02288
4613.39230	0.02289
4611.46363	0.02292
4609.53495	0.02297
4607.60628	0.02302
4605.67760	0.02306
4603.74893	0.02309
4601.82025	0.02314
4599.89157	0.02319
4597.96290	0.02322
4596.03422	0.02326
4594.10555	0.02331
4592.17687	0.02336
4590.24820	0.02340
4588.31952	0.02342
4586.39084	0.02346
4584.46217	0.02351
4582.53349	0.02356
4580.60482	0.02360
4578.67614	0.02363
4576.74747	0.02366
4574.81879	0.02370
4572.89011	0.02375
4570.96144	0.02379
4569.03276	0.02382
4567.10409	0.02385
4565.17541	0.02388
4563.24674	0.02393
4561.31806	0.02398
4559.38938	0.02403
4557.46071	0.02406
4555.53203	0.02410
4553.60336	0.02413
4551.67468	0.02416
4549.74601	0.02420
4547.81733	0.02425
4545.88865	0.02431
4543.95998	0.02435
4542.03130	0.02439
4540.10263	0.02444
4538.17395	0.02451
4536.24528	0.02457
4534.31660	0.02462
4532.38792	0.02465
4530.45925	0.02467
4528.53057	0.02468
4526.60190	0.02469
4524.67322	0.02471
4522.74455	0.02475
4520.81587	0.02481
4518.88719	0.02489
4516.95852	0.02496
4515.02984	0.02499
4513.10117	0.02502
4511.17249	0.02507
4509.24382	0.02514
4507.31514	0.02521
4505.38646	0.02524
4503.45779	0.02524
4501.52911	0.02526
4499.60044	0.02530
4497.67176	0.02534
4495.74309	0.02539
4493.81441	0.02545
4491.88573	0.02551
4489.95706	0.02556
4488.02838	0.02558
4486.09971	0.02560
4484.17103	0.02563
4482.24236	0.02571
4480.31368	0.02577
4478.38500	0.02582
4476.45633	0.02587
4474.52765	0.02593
4472.59898	0.02596
4470.67030	0.02600
4468.74163	0.02604
4466.81295	0.02609
4464.88427	0.02614
4462.95560	0.02619
4461.02692	0.02623
4459.09825	0.02628
4457.16957	0.02634
4455.24090	0.02636
4453.31222	0.02637
4451.38354	0.02641
4449.45487	0.02646
4447.52619	0.02652
4445.59752	0.02658
4443.66884	0.02664
4441.74017	0.02668
4439.81149	0.02673
4437.88281	0.02680
4435.95414	0.02688
4434.02546	0.02692
4432.09679	0.02696
4430.16811	0.02700
4428.23944	0.02705
4426.31076	0.02710
4424.38208	0.02715
4422.45341	0.02719
4420.52473	0.02722
4418.59606	0.02728
4416.66738	0.02734
4414.73871	0.02738
4412.81003	0.02742
4410.88135	0.02747
4408.95268	0.02750
4407.02400	0.02753
4405.09533	0.02756
4403.16665	0.02762
4401.23798	0.02769
4399.30930	0.02774
4397.38062	0.02778
4395.45195	0.02784
4393.52327	0.02792
4391.59460	0.02797
4389.66592	0.02800
4387.73725	0.02804
4385.80857	0.02811
4383.87989	0.02816
4381.95122	0.02821
4380.02254	0.02827
4378.09387	0.02835
4376.16519	0.02841
4374.23652	0.02846
4372.30784	0.02851
4370.37916	0.02856
4368.45049	0.02860
4366.52181	0.02865
4364.59314	0.02870
4362.66446	0.02876
4360.73579	0.02880
4358.80711	0.02886
4356.87843	0.02893
4354.94976	0.02899
4353.02108	0.02903
4351.09241	0.02907
4349.16373	0.02911
4347.23506	0.02917
4345.30638	0.02925
4343.37770	0.02932
4341.44903	0.02938
4339.52035	0.02943
4337.59168	0.02949
4335.66300	0.02954
4333.73433	0.02960
4331.80565	0.02967
4329.87697	0.02973
4327.94830	0.02977
4326.01962	0.02981
4324.09095	0.02987
4322.16227	0.02994
4320.23360	0.03000
4318.30492	0.03006
4316.37624	0.03011
4314.44757	0.03016
4312.51889	0.03021
4310.59022	0.03025
4308.66154	0.03032
4306.73287	0.03041
4304.80419	0.03049
4302.87551	0.03056
4300.94684	0.03062
4299.01816	0.03067
4297.08949	0.03072
4295.16081	0.03078
4293.23214	0.03085
4291.30346	0.03092
4289.37478	0.03100
4287.44611	0.03106
4285.51743	0.03110
4283.58876	0.03115
4281.66008	0.03122
4279.73141	0.03129
4277.80273	0.03136
4275.87405	0.03139
4273.94538	0.03144
4272.01670	0.03152
4270.08803	0.03158
4268.15935	0.03163
4266.23068	0.03170
4264.30200	0.03177
4262.37332	0.03184
4260.44465	0.03190
4258.51597	0.03196
4256.58730	0.03200
4254.65862	0.03206
4252.72995	0.03213
4250.80127	0.03220
4248.87259	0.03225
4246.94392	0.03231
4245.01524	0.03238
4243.08657	0.03246
4241.15789	0.03253
4239.22922	0.03261
4237.30054	0.03268
4235.37186	0.03272
4233.44319	0.03275
4231.51451	0.03280
4229.58584	0.03288
4227.65716	0.03297
4225.72849	0.03305
4223.79981	0.03311
4221.87113	0.03316
4219.94246	0.03322
4218.01378	0.03328
4216.08511	0.03333
4214.15643	0.03341
4212.22776	0.03349
4210.29908	0.03355
4208.37040	0.03362
4206.44173	0.03371
4204.51305	0.03381
4202.58438	0.03389
4200.65570	0.03395
4198.72703	0.03400
4196.79835	0.03405
4194.86968	0.03411
4192.94100	0.03416
4191.01232	0.03422
4189.08365	0.03428
4187.15497	0.03434
4185.22630	0.03440
4183.29762	0.03449
4181.36895	0.03459
4179.44027	0.03469
4177.51159	0.03476
4175.58292	0.03481
4173.65424	0.03487
4171.72557	0.03493
4169.79689	0.03500
4167.86822	0.03507
4165.93954	0.03515
4164.01086	0.03523
4162.08219	0.03531
4160.15351	0.03537
4158.22484	0.03542
4156.29616	0.03550
4154.36749	0.03559
4152.43881	0.03567
4150.51013	0.03573
4148.58146	0.03579
4146.65278	0.03586
4144.72411	0.03594
4142.79543	0.03603
4140.86676	0.03611
4138.93808	0.03619
4137.00940	0.03626
4135.08073	0.03632
4133.15205	0.03637
4131.22338	0.03642
4129.29470	0.03649
4127.36603	0.03660
4125.43735	0.03669
4123.50867	0.03676
4121.58000	0.03683
4119.65132	0.03692
4117.72265	0.03702
4115.79397	0.03710
4113.86530	0.03717
4111.93662	0.03724
4110.00794	0.03732
4108.07927	0.03741
4106.15059	0.03750
4104.22192	0.03756
4102.29324	0.03761
4100.36457	0.03769
4098.43589	0.03778
4096.50721	0.03786
4094.57854	0.03792
4092.64986	0.03800
4090.72119	0.03807
4088.79251	0.03816
4086.86384	0.03822
4084.93516	0.03828
4083.00648	0.03836
4081.07781	0.03847
4079.14913	0.03856
4077.22046	0.03865
4075.29178	0.03876
4073.36311	0.03884
4071.43443	0.03890
4069.50575	0.03897
4067.57708	0.03904
4065.64840	0.03911
4063.71973	0.03920
4061.79105	0.03928
4059.86238	0.03935
4057.93370	0.03941
4056.00502	0.03951
4054.07635	0.03963
4052.14767	0.03973
4050.21900	0.03981
4048.29032	0.03989
4046.36165	0.03997
4044.43297	0.04006
4042.50429	0.04015
4040.57562	0.04024
4038.64694	0.04033
4036.71827	0.04041
4034.78959	0.04049
4032.86092	0.04057
4030.93224	0.04066
4029.00356	0.04075
4027.07489	0.04083
4025.14621	0.04091
4023.21754	0.04099
4021.28886	0.04107
4019.36019	0.04115
4017.43151	0.04123
4015.50283	0.04132
4013.57416	0.04141
4011.64548	0.04149
4009.71681	0.04157
4007.78813	0.04168
4005.85946	0.04178
4003.93078	0.04186
4002.00210	0.04193
4000.07343	0.04202
3998.14475	0.04213
3996.21608	0.04222
3994.28740	0.04230
3992.35873	0.04238
3990.43005	0.04248
3988.50137	0.04258
3986.57270	0.04268
3984.64402	0.04278
3982.71535	0.04287
3980.78667	0.04295
3978.85800	0.04303
3976.92932	0.04311
3975.00064	0.04319
3973.07197	0.04328
3971.14329	0.04339
3969.21462	0.04349
3967.28594	0.04357
3965.35727	0.04364
3963.42859	0.04371
3961.49991	0.04379
3959.57124	0.04388
3957.64256	0.04397
3955.71389	0.04406
3953.78521	0.04417
3951.85654	0.04428
3949.92786	0.04437
3947.99918	0.04446
3946.07051	0.04458
3944.14183	0.04469
3942.21316	0.04478
3940.28448	0.04487
3938.35581	0.04496
3936.42713	0.04505
3934.49845	0.04511
3932.56978	0.04518
3930.64110	0.04527
3928.71243	0.04538
3926.78375	0.04548
3924.85508	0.04558
3922.92640	0.04569
3920.99772	0.04574
3919.06905	0.04576
3917.14037	0.04586
3915.21170	0.04603
3913.28302	0.04619
3911.35435	0.04632
3909.42567	0.04641
3907.49699	0.04644
3905.56832	0.04641
3903.63964	0.04639
3901.71097	0.04647
3899.78229	0.04665
3897.85362	0.04687
3895.92494	0.04704
3893.99626	0.04712
3892.06759	0.04718
3890.13891	0.04728
3888.21024	0.04737
3886.28156	0.04741
3884.35289	0.04753
3882.42421	0.04767
3880.49553	0.04779
3878.56686	0.04791
3876.63818	0.04801
3874.70951	0.04809
3872.78083	0.04817
3870.85216	0.04824
3868.92348	0.04837
3866.99480	0.04853
3865.06613	0.04864
3863.13745	0.04876
3861.20878	0.04890
3859.28010	0.04897
3857.35143	0.04890
3855.42275	0.04877
3853.49407	0.04881
3851.56540	0.04910
3849.63672	0.04945
3847.70805	0.04965
3845.77937	0.04972
3843.85070	0.04976
3841.92202	0.04979
3839.99334	0.04981
3838.06467	0.04988
3836.13599	0.05006
3834.20732	0.05027
3832.27864	0.05045
3830.34997	0.05058
3828.42129	0.05068
3826.49261	0.05079
3824.56394	0.05086
3822.63526	0.05085
3820.70659	0.05090
3818.77791	0.05103
3816.84924	0.05114
3814.92056	0.05130
3812.99188	0.05152
3811.06321	0.05168
3809.13453	0.05172
3807.20586	0.05177
3805.27718	0.05190
3803.34851	0.05199
3801.41983	0.05204
3799.49115	0.05217
3797.56248	0.05233
3795.63380	0.05249
3793.70513	0.05267
3791.77645	0.05285
3789.84778	0.05297
3787.91910	0.05306
3785.99042	0.05313
3784.06175	0.05323
3782.13307	0.05335
3780.20440	0.05346
3778.27572	0.05359
3776.34705	0.05373
3774.41837	0.05385
3772.48969	0.05391
3770.56102	0.05395
3768.63234	0.05403
3766.70367	0.05413
3764.77499	0.05427
3762.84632	0.05444
3760.91764	0.05456
3758.98896	0.05463
3757.06029	0.05472
3755.13161	0.05477
3753.20294	0.05474
3751.27426	0.05474
3749.34559	0.05486
3747.41691	0.05496
3745.48823	0.05497
3743.55956	0.05512
3741.63088	0.05545
3739.70221	0.05564
3737.77353	0.05562
3735.84486	0.05563
3733.91618	0.05577
3731.98750	0.05600
3730.05883	0.05622
3728.13015	0.05639
3726.20148	0.05648
3724.27280	0.05658
3722.34413	0.05672
3720.41545	0.05689
3718.48677	0.05703
3716.55810	0.05711
3714.62942	0.05712
3712.70075	0.05707
3710.77207	0.05710
3708.84340	0.05728
3706.91472	0.05750
3704.98604	0.05761
3703.05737	0.05761
3701.12869	0.05766
3699.20002	0.05779
3697.27134	0.05792
3695.34267	0.05795
3693.41399	0.05790
3691.48531	0.05782
3689.55664	0.05784
3687.62796	0.05799
3685.69929	0.05818
3683.77061	0.05829
3681.84194	0.05830
3679.91326	0.05826
3677.98458	0.05812
3676.05591	0.05798
3674.12723	0.05805
3672.19856	0.05818
3670.26988	0.05826
3668.34121	0.05839
3666.41253	0.05857
3664.48385	0.05867
3662.55518	0.05871
3660.62650	0.05873
3658.69783	0.05869
3656.76915	0.05867
3654.84048	0.05872
3652.91180	0.05867
3650.98312	0.05846
3649.05445	0.05830
3647.12577	0.05843
3645.19710	0.05873
3643.26842	0.05895
3641.33975	0.05906
3639.41107	0.05914
3637.48239	0.05921
3635.55372	0.05926
3633.62504	0.05928
3631.69637	0.05923
3629.76769	0.05917
3627.83902	0.05927
3625.91034	0.05951
3623.98166	0.05967
3622.05299	0.05968
3620.12431	0.05964
3618.19564	0.05968
3616.26696	0.05979
3614.33829	0.05986
3612.40961	0.05991
3610.48093	0.05996
3608.55226	0.06004
3606.62358	0.06018
3604.69491	0.06033
3602.76623	0.06040
3600.83756	0.06045
3598.90888	0.06053
3596.98020	0.06061
3595.05153	0.06067
3593.12285	0.06073
3591.19418	0.06075
3589.26550	0.06073
3587.33683	0.06079
3585.40815	0.06097
3583.47947	0.06115
3581.55080	0.06125
3579.62212	0.06131
3577.69345	0.06136
3575.76477	0.06142
3573.83610	0.06151
3571.90742	0.06159
3569.97874	0.06158
3568.05007	0.06153
3566.12139	0.06158
3564.19272	0.06174
3562.26404	0.06188
3560.33537	0.06199
3558.40669	0.06210
3556.47801	0.06221
3554.54934	0.06229
3552.62066	0.06235
3550.69199	0.06240
3548.76331	0.06244
3546.83464	0.06247
3544.90596	0.06254
3542.97728	0.06265
3541.04861	0.06276
3539.11993	0.06284
3537.19126	0.06288
3535.26258	0.06292
3533.33391	0.06296
3531.40523	0.06299
3529.47655	0.06302
3527.54788	0.06306
3525.61920	0.06310
3523.69053	0.06314
3521.76185	0.06318
3519.83318	0.06324
3517.90450	0.06333
3515.97582	0.06339
3514.04715	0.06343
3512.11847	0.06344
3510.18980	0.06346
3508.26112	0.06350
3506.33245	0.06352
3504.40377	0.06351
3502.47509	0.06354
3500.54642	0.06360
3498.61774	0.06365
3496.68907	0.06365
3494.76039	0.06365
3492.83172	0.06368
3490.90304	0.06373
3488.97436	0.06377
3487.04569	0.06380
3485.11701	0.06381
3483.18834	0.06385
3481.25966	0.06394
3479.33099	0.06404
3477.40231	0.06412
3475.47363	0.06419
3473.54496	0.06429
3471.61628	0.06439
3469.68761	0.06447
3467.75893	0.06453
3465.83026	0.06463
3463.90158	0.06475
3461.97290	0.06489
3460.04423	0.06503
3458.11555	0.06516
3456.18688	0.06526
3454.25820	0.06534
3452.32953	0.06544
3450.40085	0.06554
3448.47217	0.06562
3446.54350	0.06571
3444.61482	0.06582
3442.68615	0.06595
3440.75747	0.06611
3438.82880	0.06629
3436.90012	0.06649
3434.97144	0.06671
3433.04277	0.06693
3431.11409	0.06715
3429.18542	0.06736
3427.25674	0.06759
3425.32807	0.06782
3423.39939	0.06804
3421.47071	0.06826
3419.54204	0.06846
3417.61336	0.06864
3415.68469	0.06883
3413.75601	0.06901
3411.82734	0.06919
3409.89866	0.06935
3407.96998	0.06951
3406.04131	0.06967
3404.11263	0.06985
3402.18396	0.07002
3400.25528	0.07018
3398.32661	0.07035
3396.39793	0.07050
3394.46925	0.07065
3392.54058	0.07081
3390.61190	0.07098
3388.68323	0.07115
3386.75455	0.07133
3384.82588	0.07149
3382.89720	0.07165
3380.96852	0.07184
3379.03985	0.07204
3377.11117	0.07219
3375.18250	0.07233
3373.25382	0.07249
3371.32515	0.07265
3369.39647	0.07281
3367.46779	0.07299
3365.53912	0.07316
3363.61044	0.07334
3361.68177	0.07352
3359.75309	0.07366
3357.82442	0.07378
3355.89574	0.07394
3353.96706	0.07413
3352.03839	0.07432
3350.10971	0.07450
3348.18104	0.07466
3346.25236	0.07482
3344.32369	0.07498
3342.39501	0.07515
3340.46633	0.07533
3338.53766	0.07550
3336.60898	0.07566
3334.68031	0.07583
3332.75163	0.07598
3330.82296	0.07615
3328.89428	0.07635
3326.96560	0.07657
3325.03693	0.07676
3323.10825	0.07691
3321.17958	0.07708
3319.25090	0.07727
3317.32223	0.07747
3315.39355	0.07767
3313.46487	0.07784
3311.53620	0.07800
3309.60752	0.07816
3307.67885	0.07835
3305.75017	0.07853
3303.82150	0.07869
3301.89282	0.07887
3299.96414	0.07905
3298.03547	0.07924
3296.10679	0.07945
3294.17812	0.07965
3292.24944	0.07983
3290.32077	0.08000
3288.39209	0.08018
3286.46341	0.08040
3284.53474	0.08061
3282.60606	0.08081
3280.67739	0.08099
3278.74871	0.08118
3276.82004	0.08136
3274.89136	0.08154
3272.96268	0.08173
3271.03401	0.08195
3269.10533	0.08218
3267.17666	0.08239
3265.24798	0.08256
3263.31931	0.08273
3261.39063	0.08292
3259.46195	0.08312
3257.53328	0.08332
3255.60460	0.08352
3253.67593	0.08372
3251.74725	0.08390
3249.81858	0.08408
3247.88990	0.08427
3245.96122	0.08450
3244.03255	0.08474
3242.10387	0.08497
3240.17520	0.08517
3238.24652	0.08535
3236.31785	0.08554
3234.38917	0.08573
3232.46049	0.08592
3230.53182	0.08612
3228.60314	0.08634
3226.67447	0.08655
3224.74579	0.08676
3222.81712	0.08696
3220.88844	0.08713
3218.95976	0.08729
3217.03109	0.08747
3215.10241	0.08769
3213.17374	0.08792
3211.24506	0.08815
3209.31639	0.08837
3207.38771	0.08858
3205.45903	0.08877
3203.53036	0.08896
3201.60168	0.08916
3199.67301	0.08939
3197.74433	0.08961
3195.81566	0.08983
3193.88698	0.09005
3191.95830	0.09026
3190.02963	0.09049
3188.10095	0.09073
3186.17228	0.09096
3184.24360	0.09121
3182.31493	0.09148
3180.38625	0.09171
3178.45757	0.09189
3176.52890	0.09205
3174.60022	0.09225
3172.67155	0.09250
3170.74287	0.09276
3168.81420	0.09298
3166.88552	0.09318
3164.95684	0.09339
3163.02817	0.09361
3161.09949	0.09382
3159.17082	0.09402
3157.24214	0.09421
3155.31347	0.09443
3153.38479	0.09466
3151.45611	0.09489
3149.52744	0.09510
3147.59876	0.09529
3145.67009	0.09547
3143.74141	0.09569
3141.81274	0.09593
3139.88406	0.09618
3137.95538	0.09641
3136.02671	0.09663
3134.09803	0.09684
3132.16936	0.09702
3130.24068	0.09721
3128.31201	0.09743
3126.38333	0.09766
3124.45465	0.09789
3122.52598	0.09810
3120.59730	0.09831
3118.66863	0.09853
3116.73995	0.09873
3114.81128	0.09893
3112.88260	0.09913
3110.95392	0.09937
3109.02525	0.09962
3107.09657	0.09984
3105.16790	0.10004
3103.23922	0.10025
3101.31055	0.10047
3099.38187	0.10069
3097.45319	0.10091
3095.52452	0.10113
3093.59584	0.10135
3091.66717	0.10156
3089.73849	0.10177
3087.80982	0.10197
3085.88114	0.10214
3083.95246	0.10232
3082.02379	0.10253
3080.09511	0.10277
3078.16644	0.10301
3076.23776	0.10322
3074.30909	0.10342
3072.38041	0.10361
3070.45173	0.10383
3068.52306	0.10404
3066.59438	0.10424
3064.66571	0.10446
3062.73703	0.10470
3060.80836	0.10493
3058.87968	0.10512
3056.95100	0.10529
3055.02233	0.10549
3053.09365	0.10569
3051.16498	0.10590
3049.23630	0.10612
3047.30763	0.10634
3045.37895	0.10653
3043.45027	0.10672
3041.52160	0.10692
3039.59292	0.10713
3037.66425	0.10735
3035.73557	0.10757
3033.80690	0.10776
3031.87822	0.10793
3029.94954	0.10811
3028.02087	0.10829
3026.09219	0.10846
3024.16352	0.10864
3022.23484	0.10884
3020.30617	0.10904
3018.37749	0.10923
3016.44881	0.10940
3014.52014	0.10959
3012.59146	0.10977
3010.66279	0.10994
3008.73411	0.11008
3006.80544	0.11021
3004.87676	0.11036
3002.94808	0.11053
3001.01941	0.11068
2999.09073	0.11079
2997.16206	0.11091
2995.23338	0.11104
2993.30471	0.11115
2991.37603	0.11127
2989.44735	0.11139
2987.51868	0.11151
2985.59000	0.11162
2983.66133	0.11169
2981.73265	0.11172
2979.80398	0.11171
2977.87530	0.11172
2975.94662	0.11174
2974.01795	0.11174
2972.08927	0.11175
2970.16060	0.11176
2968.23192	0.11174
2966.30325	0.11177
2964.37457	0.11189
2962.44589	0.11209
2960.51722	0.11232
2958.58854	0.11256
2956.65987	0.11282
2954.73119	0.11313
2952.80252	0.11343
2950.87384	0.11370
2948.94516	0.11392
2947.01649	0.11412
2945.08781	0.11430
2943.15914	0.11443
2941.23046	0.11450
2939.30179	0.11454
2937.37311	0.11459
2935.44443	0.11465
2933.51576	0.11469
2931.58708	0.11471
2929.65841	0.11473
2927.72973	0.11476
2925.80106	0.11482
2923.87238	0.11489
2921.94370	0.11495
2920.01503	0.11507
2918.08635	0.11530
2916.15768	0.11570
2914.22900	0.11628
2912.30033	0.11690
2910.37165	0.11746
2908.44297	0.11792
2906.51430	0.11834
2904.58562	0.11873
2902.65695	0.11907
2900.72827	0.11940
2898.79960	0.11973
2896.87092	0.12004
2894.94224	0.12033
2893.01357	0.12059
2891.08489	0.12085
2889.15622	0.12113
2887.22754	0.12141
2885.29887	0.12169
2883.37019	0.12195
2881.44151	0.12221
2879.51284	0.12248
2877.58416	0.12273
2875.65549	0.12296
2873.72681	0.12323
2871.79814	0.12354
2869.86946	0.12384
2867.94078	0.12410
2866.01211	0.12433
2864.08343	0.12453
2862.15476	0.12468
2860.22608	0.12479
2858.29741	0.12491
2856.36873	0.12501
2854.44005	0.12504
2852.51138	0.12509
2850.58270	0.12527
2848.65403	0.12568
2846.72535	0.12633
2844.79668	0.12708
2842.86800	0.12770
2840.93932	0.12816
2839.01065	0.12854
2837.08197	0.12892
2835.15330	0.12929
2833.22462	0.12959
2831.29595	0.12986
2829.36727	0.13014
2827.43859	0.13042
2825.50992	0.13066
2823.58124	0.13089
2821.65257	0.13113
2819.72389	0.13139
2817.79522	0.13168
2815.86654	0.13194
2813.93786	0.13217
2812.00919	0.13240
2810.08051	0.13265
2808.15184	0.13289
2806.22316	0.13310
2804.29449	0.13334
2802.36581	0.13359
2800.43713	0.13383
2798.50846	0.13408
2796.57978	0.13432
2794.65111	0.13455
2792.72243	0.13478
2790.79376	0.13505
2788.86508	0.13532
2786.93640	0.13554
2785.00773	0.13572
2783.07905	0.13592
2781.15038	0.13615
2779.22170	0.13639
2777.29303	0.13663
2775.36435	0.13686
2773.43567	0.13708
2771.50700	0.13729
2769.57832	0.13749
2767.64965	0.13769
2765.72097	0.13790
2763.79230	0.13811
2761.86362	0.13834
2759.93494	0.13855
2758.00627	0.13876
2756.07759	0.13897
2754.14892	0.13917
2752.22024	0.13938
2750.29157	0.13959
2748.36289	0.13978
2746.43421	0.13999
2744.50554	0.14023
2742.57686	0.14049
2740.64819	0.14072
2738.71951	0.14093
2736.79084	0.14112
2734.86216	0.14128
2732.93348	0.14148
2731.00481	0.14173
2729.07613	0.14196
2727.14746	0.14216
2725.21878	0.14234
2723.29011	0.14254
2721.36143	0.14277
2719.43275	0.14303
2717.50408	0.14329
2715.57540	0.14347
2713.64673	0.14362
2711.71805	0.14381
2709.78938	0.14404
2707.86070	0.14427
2705.93202	0.14447
2704.00335	0.14467
2702.07467	0.14489
2700.14600	0.14513
2698.21732	0.14535
2696.28865	0.14550
2694.35997	0.14562
2692.43129	0.14581
2690.50262	0.14608
2688.57394	0.14632
2686.64527	0.14650
2684.71659	0.14669
2682.78792	0.14690
2680.85924	0.14711
2678.93056	0.14732
2677.00189	0.14754
2675.07321	0.14775
2673.14454	0.14794
2671.21586	0.14816
2669.28719	0.14837
2667.35851	0.14856
2665.42983	0.14874
2663.50116	0.14894
2661.57248	0.14915
2659.64381	0.14935
2657.71513	0.14955
2655.78646	0.14976
2653.85778	0.15000
2651.92910	0.15025
2650.00043	0.15043
2648.07175	0.15058
2646.14308	0.15077
2644.21440	0.15101
2642.28573	0.15126
2640.35705	0.15148
2638.42837	0.15170
2636.49970	0.15190
2634.57102	0.15209
2632.64235	0.15230
2630.71367	0.15251
2628.78500	0.15273
2626.85632	0.15296
2624.92764	0.15319
2622.99897	0.15341
2621.07029	0.15362
2619.14162	0.15384
2617.21294	0.15407
2615.28427	0.15429
2613.35559	0.15446
2611.42691	0.15463
2609.49824	0.15484
2607.56956	0.15506
2605.64089	0.15527
2603.71221	0.15548
2601.78354	0.15572
2599.85486	0.15598
2597.92618	0.15621
2595.99751	0.15636
2594.06883	0.15650
2592.14016	0.15670
2590.21148	0.15695
2588.28281	0.15718
2586.35413	0.15739
2584.42545	0.15761
2582.49678	0.15784
2580.56810	0.15806
2578.63943	0.15827
2576.71075	0.15844
2574.78208	0.15863
2572.85340	0.15886
2570.92472	0.15906
2568.99605	0.15922
2567.06737	0.15940
2565.13870	0.15959
2563.21002	0.15977
2561.28135	0.15996
2559.35267	0.16017
2557.42399	0.16038
2555.49532	0.16060
2553.56664	0.16086
2551.63797	0.16111
2549.70929	0.16130
2547.78062	0.16150
2545.85194	0.16169
2543.92326	0.16186
2541.99459	0.16200
2540.06591	0.16216
2538.13724	0.16236
2536.20856	0.16257
2534.27989	0.16279
2532.35121	0.16299
2530.42253	0.16319
2528.49386	0.16341
2526.56518	0.16364
2524.63651	0.16384
2522.70783	0.16406
2520.77916	0.16428
2518.85048	0.16447
2516.92181	0.16465
2514.99313	0.16485
2513.06445	0.16505
2511.13578	0.16527
2509.20710	0.16549
2507.27843	0.16572
2505.34975	0.16593
2503.42108	0.16614
2501.49240	0.16634
2499.56372	0.16657
2497.63505	0.16680
2495.70637	0.16701
2493.77770	0.16721
2491.84902	0.16744
2489.92035	0.16769
2487.99167	0.16793
2486.06299	0.16815
2484.13432	0.16837
2482.20564	0.16859
2480.27697	0.16881
2478.34829	0.16898
2476.41962	0.16914
2474.49094	0.16932
2472.56226	0.16958
2470.63359	0.16985
2468.70491	0.17006
2466.77624	0.17025
2464.84756	0.17046
2462.91889	0.17066
2460.99021	0.17085
2459.06153	0.17104
2457.13286	0.17124
2455.20418	0.17143
2453.27551	0.17162
2451.34683	0.17181
2449.41816	0.17201
2447.48948	0.17224
2445.56080	0.17246
2443.63213	0.17269
2441.70345	0.17292
2439.77478	0.17314
2437.84610	0.17333
2435.91743	0.17351
2433.98875	0.17369
2432.06007	0.17387
2430.13140	0.17408
2428.20272	0.17431
2426.27405	0.17450
2424.34537	0.17465
2422.41670	0.17480
2420.48802	0.17498
2418.55934	0.17520
2416.63067	0.17544
2414.70199	0.17565
2412.77332	0.17584
2410.84464	0.17603
2408.91597	0.17624
2406.98729	0.17646
2405.05861	0.17666
2403.12994	0.17684
2401.20126	0.17700
2399.27259	0.17713
2397.34391	0.17727
2395.41524	0.17745
2393.48656	0.17764
2391.55788	0.17781
2389.62921	0.17799
2387.70053	0.17817
2385.77186	0.17836
2383.84318	0.17854
2381.91451	0.17865
2379.98583	0.17871
2378.05715	0.17874
2376.12848	0.17875
2374.19980	0.17878
2372.27113	0.17881
2370.34245	0.17883
2368.41378	0.17885
2366.48510	0.17891
2364.55642	0.17903
2362.62775	0.17920
2360.69907	0.17936
2358.77040	0.17954
2356.84172	0.17977
2354.91305	0.18005
2352.98437	0.18042
2351.05569	0.18081
2349.12702	0.18108
2347.19834	0.18115
2345.26967	0.18110
2343.34099	0.18105
2341.41232	0.18106
2339.48364	0.18115
2337.55496	0.18133
2335.62629	0.18157
2333.69761	0.18183
2331.76894	0.18206
2329.84026	0.18225
2327.91159	0.18241
2325.98291	0.18258
2324.05423	0.18280
2322.12556	0.18304
2320.19688	0.18326
2318.26821	0.18346
2316.33953	0.18371
2314.41086	0.18394
2312.48218	0.18412
2310.55350	0.18425
2308.62483	0.18439
2306.69615	0.18454
2304.76748	0.18469
2302.83880	0.18482
2300.91013	0.18496
2298.98145	0.18510
2297.05277	0.18520
2295.12410	0.18529
2293.19542	0.18537
2291.26675	0.18549
2289.33807	0.18562
2287.40940	0.18574
2285.48072	0.18581
2283.55204	0.18584
2281.62337	0.18591
2279.69469	0.18600
2277.76602	0.18610
2275.83734	0.18616
2273.90867	0.18623
2271.97999	0.18630
2270.05131	0.18637
2268.12264	0.18644
2266.19396	0.18652
2264.26529	0.18663
2262.33661	0.18678
2260.40794	0.18694
2258.47926	0.18705
2256.55058	0.18716
2254.62191	0.18733
2252.69323	0.18753
2250.76456	0.18772
2248.83588	0.18792
2246.90721	0.18815
2244.97853	0.18840
2243.04985	0.18862
2241.12118	0.18883
2239.19250	0.18909
2237.26383	0.18943
2235.33515	0.18979
2233.40648	0.19011
2231.47780	0.19038
2229.54912	0.19065
2227.62045	0.19092
2225.69177	0.19121
2223.76310	0.19154
2221.83442	0.19188
2219.90575	0.19218
2217.97707	0.19244
2216.04839	0.19270
2214.11972	0.19297
2212.19104	0.19324
2210.26237	0.19351
2208.33369	0.19377
2206.40502	0.19401
2204.47634	0.19422
2202.54766	0.19445
2200.61899	0.19469
2198.69031	0.19492
2196.76164	0.19512
2194.83296	0.19530
2192.90429	0.19548
2190.97561	0.19566
2189.04693	0.19583
2187.11826	0.19601
2185.18958	0.19625
2183.26091	0.19653
2181.33223	0.19680
2179.40356	0.19701
2177.47488	0.19718
2175.54620	0.19738
2173.61753	0.19761
2171.68885	0.19783
2169.76018	0.19804
2167.83150	0.19825
2165.90283	0.19848
2163.97415	0.19874
2162.04547	0.19901
2160.11680	0.19921
2158.18812	0.19938
2156.25945	0.19957
2154.33077	0.19979
2152.40210	0.20001
2150.47342	0.20021
2148.54474	0.20040
2146.61607	0.20059
2144.68739	0.20077
2142.75872	0.20095
2140.83004	0.20112
2138.90137	0.20126
2136.97269	0.20140
2135.04401	0.20154
2133.11534	0.20166
2131.18666	0.20180
2129.25799	0.20201
2127.32931	0.20225
2125.40064	0.20247
2123.47196	0.20265
2121.54328	0.20280
2119.61461	0.20294
2117.68593	0.20310
2115.75726	0.20328
2113.82858	0.20344
2111.89991	0.20361
2109.97123	0.20382
2108.04255	0.20404
2106.11388	0.20425
2104.18520	0.20442
2102.25653	0.20455
2100.32785	0.20472
2098.39918	0.20492
2096.47050	0.20511
2094.54182	0.20529
2092.61315	0.20550
2090.68447	0.20571
2088.75580	0.20591
2086.82712	0.20607
2084.89845	0.20618
2082.96977	0.20629
2081.04109	0.20645
2079.11242	0.20665
2077.18374	0.20684
2075.25507	0.20696
2073.32639	0.20707
2071.39772	0.20723
2069.46904	0.20740
2067.54036	0.20753
2065.61169	0.20766
2063.68301	0.20781
2061.75434	0.20800
2059.82566	0.20815
2057.89699	0.20829
2055.96831	0.20844
2054.03963	0.20860
2052.11096	0.20874
2050.18228	0.20891
2048.25361	0.20911
2046.32493	0.20933
2044.39626	0.20952
2042.46758	0.20963
2040.53890	0.20971
2038.61023	0.20988
2036.68155	0.21012
2034.75288	0.21034
2032.82420	0.21051
2030.89553	0.21063
2028.96685	0.21073
2027.03817	0.21085
2025.10950	0.21100
2023.18082	0.21114
2021.25215	0.21127
2019.32347	0.21143
2017.39480	0.21161
2015.46612	0.21179
2013.53744	0.21197
2011.60877	0.21211
2009.68009	0.21222
2007.75142	0.21234
2005.82274	0.21248
2003.89407	0.21258
2001.96539	0.21269
2000.03671	0.21283
1998.10804	0.21298
1996.17936	0.21312
1994.25069	0.21321
1992.32201	0.21327
1990.39334	0.21343
1988.46466	0.21363
1986.53598	0.21378
1984.60731	0.21387
1982.67863	0.21394
1980.74996	0.21403
1978.82128	0.21412
1976.89261	0.21418
1974.96393	0.21423
1973.03525	0.21437
1971.10658	0.21456
1969.17790	0.21465
1967.24923	0.21467
1965.32055	0.21475
1963.39188	0.21492
1961.46320	0.21512
1959.53452	0.21526
1957.60585	0.21535
1955.67717	0.21545
1953.74850	0.21557
1951.81982	0.21570
1949.89115	0.21582
1947.96247	0.21593
1946.03379	0.21599
1944.10512	0.21600
1942.17644	0.21610
1940.24777	0.21634
1938.31909	0.21657
1936.39042	0.21671
1934.46174	0.21681
1932.53306	0.21690
1930.60439	0.21700
1928.67571	0.21714
1926.74704	0.21728
1924.81836	0.21737
1922.88969	0.21745
1920.96101	0.21753
1919.03233	0.21758
1917.10366	0.21771
1915.17498	0.21792
1913.24631	0.21810
1911.31763	0.21821
1909.38896	0.21833
1907.46028	0.21848
1905.53160	0.21863
1903.60293	0.21873
1901.67425	0.21882
1899.74558	0.21894
1897.81690	0.21906
1895.88823	0.21915
1893.95955	0.21923
1892.03087	0.21928
1890.10220	0.21931
1888.17352	0.21945
1886.24485	0.21966
1884.31617	0.21982
1882.38750	0.21996
1880.45882	0.22008
1878.53014	0.22018
1876.60147	0.22025
1874.67279	0.22030
1872.74412	0.22030
1870.81544	0.22022
1868.88677	0.22024
1866.95809	0.22050
1865.02941	0.22085
1863.10074	0.22111
1861.17206	0.22125
1859.24339	0.22133
1857.31471	0.22145
1855.38604	0.22161
1853.45736	0.22174
1851.52868	0.22180
1849.60001	0.22181
1847.67133	0.22173
1845.74266	0.22158
1843.81398	0.22169
1841.88531	0.22212
1839.95663	0.22247
1838.02795	0.22264
1836.09928	0.22281
1834.17060	0.22294
1832.24193	0.22288
1830.31325	0.22276
1828.38458	0.22283
1826.45590	0.22299
1824.52722	0.22315
1822.59855	0.22341
1820.66987	0.22363
1818.74120	0.22376
1816.81252	0.22386
1814.88385	0.22394
1812.95517	0.22393
1811.02649	0.22394
1809.09782	0.22406
1807.16914	0.22424
1805.24047	0.22430
1803.31179	0.22422
1801.38312	0.22415
1799.45444	0.22425
1797.52576	0.22440
1795.59709	0.22441
1793.66841	0.22431
1791.73974	0.22437
1789.81106	0.22470
1787.88239	0.22493
1785.95371	0.22492
1784.02503	0.22488
1782.09636	0.22493
1780.16768	0.22502
1778.23901	0.22511
1776.31033	0.22504
1774.38166	0.22475
1772.45298	0.22445
1770.52430	0.22440
1768.59563	0.22458
1766.66695	0.22486
1764.73828	0.22502
1762.80960	0.22498
1760.88093	0.22492
1758.95225	0.22485
1757.02357	0.22473
1755.09490	0.22462
1753.16622	0.22430
1751.23755	0.22383
1749.30887	0.22361
1747.38020	0.22364
1745.45152	0.22371
1743.52284	0.22366
1741.59417	0.22344
1739.66549	0.22323
1737.73682	0.22303
1735.80814	0.22257
1733.87947	0.22217
1731.95079	0.22232
1730.02211	0.22271
1728.09344	0.22295
1726.16476	0.22303
1724.23609	0.22295
1722.30741	0.22272
1720.37874	0.22221
1718.45006	0.22163
1716.52138	0.22157
1714.59271	0.22201
1712.66403	0.22251
1710.73536	0.22279
1708.80668	0.22279
1706.87801	0.22268
1704.94933	0.22266
1703.02065	0.22253
1701.09198	0.22227
1699.16330	0.22230
1697.23463	0.22254
1695.30595	0.22284
1693.37728	0.22329
1691.44860	0.22359
1689.51992	0.22362
1687.59125	0.22341
1685.66257	0.22290
1683.73390	0.22267
1681.80522	0.22310
1679.87655	0.22364
1677.94787	0.22363
1676.01919	0.22330
1674.09052	0.22327
1672.16184	0.22339
1670.23317	0.22339
1668.30449	0.22358
1666.37582	0.22392
1664.44714	0.22398
1662.51846	0.22390
1660.58979	0.22394
1658.66111	0.22395
1656.73244	0.22343
1654.80376	0.22234
1652.87509	0.22177
1650.94641	0.22226
1649.01773	0.22268
1647.08906	0.22264
1645.16038	0.22281
1643.23171	0.22314
1641.30303	0.22319
1639.37436	0.22288
1637.44568	0.22246
1635.51700	0.22237
1633.58833	0.22270
1631.65965	0.22298
1629.73098	0.22291
1627.80230	0.22267
1625.87363	0.22233
1623.94495	0.22186
1622.01627	0.22150
1620.08760	0.22144
1618.15892	0.22170
1616.23025	0.22237
1614.30157	0.22318
1612.37290	0.22376
1610.44422	0.22413
1608.51554	0.22448
1606.58687	0.22482
1604.65819	0.22511
1602.72952	0.22539
1600.80084	0.22567
1598.87217	0.22588
1596.94349	0.22598
1595.01481	0.22606
1593.08614	0.22620
1591.15746	0.22639
1589.22879	0.22657
1587.30011	0.22672
1585.37144	0.22687
1583.44276	0.22705
1581.51408	0.22716
1579.58541	0.22702
1577.65673	0.22667
1575.72806	0.22669
1573.79938	0.22718
1571.87071	0.22743
1569.94203	0.22737
1568.01335	0.22748
1566.08468	0.22771
1564.15600	0.22782
1562.22733	0.22757
1560.29865	0.22683
1558.36998	0.22641
1556.44130	0.22688
1554.51262	0.22765
1552.58395	0.22807
1550.65527	0.22821
1548.72660	0.22830
1546.79792	0.22822
1544.86925	0.22777
1542.94057	0.22722
1541.01189	0.22700
1539.08322	0.22734
1537.15454	0.22793
1535.22587	0.22816
1533.29719	0.22816
1531.36852	0.22833
1529.43984	0.22845
1527.51116	0.22835
1525.58249	0.22817
1523.65381	0.22783
1521.72514	0.22750
1519.79646	0.22756
1517.86779	0.22779
1515.93911	0.22791
1514.01043	0.22798
1512.08176	0.22790
1510.15308	0.22748
1508.22441	0.22695
1506.29573	0.22704
1504.36706	0.22772
1502.43838	0.22809
1500.50970	0.22783
1498.58103	0.22735
1496.65235	0.22706
1494.72368	0.22706
1492.79500	0.22697
1490.86633	0.22660
1488.93765	0.22632
1487.00897	0.22631
1485.08030	0.22629
1483.15162	0.22601
1481.22295	0.22558
1479.29427	0.22508
1477.36560	0.22436
1475.43692	0.22341
1473.50824	0.22259
1471.57957	0.22219
1469.65089	0.22196
1467.72222	0.22145
1465.79354	0.22080
1463.86487	0.22043
1461.93619	0.22017
1460.00751	0.21955
1458.07884	0.21886
1456.15016	0.21883
1454.22149	0.21936
1452.29281	0.21972
1450.36414	0.21964
1448.43546	0.21943
1446.50678	0.21941
1444.57811	0.21955
1442.64943	0.21965
1440.72076	0.21960
1438.79208	0.21936
1436.86341	0.21915
1434.93473	0.21925
1433.00605	0.21940
1431.07738	0.21935
1429.14870	0.21921
1427.22003	0.21902
1425.29135	0.21871
1423.36268	0.21826
1421.43400	0.21758
1419.50532	0.21693
1417.57665	0.21685
1415.64797	0.21711
1413.71930	0.21718
1411.79062	0.21705
1409.86195	0.21691
1407.93327	0.21681
1406.00459	0.21666
1404.07592	0.21657
1402.14724	0.21659
1400.21857	0.21656
1398.28989	0.21645
1396.36122	0.21633
1394.43254	0.21625
1392.50386	0.21624
1390.57519	0.21607
1388.64651	0.21559
1386.71784	0.21502
1384.78916	0.21467
1382.86049	0.21461
1380.93181	0.21460
1379.00313	0.21445
1377.07446	0.21416
1375.14578	0.21385
1373.21711	0.21370
1371.28843	0.21365
1369.35976	0.21342
1367.43108	0.21301
1365.50240	0.21254
1363.57373	0.21215
1361.64505	0.21202
1359.71638	0.21208
1357.78770	0.21212
1355.85903	0.21216
1353.93035	0.21227
1352.00167	0.21239
1350.07300	0.21250
1348.14432	0.21257
1346.21565	0.21261
1344.28697	0.21257
1342.35830	0.21235
1340.42962	0.21199
1338.50094	0.21170
1336.57227	0.21155
1334.64359	0.21142
1332.71492	0.21124
1330.78624	0.21092
1328.85757	0.21048
1326.92889	0.21001
1325.00021	0.20952
1323.07154	0.20901
1321.14286	0.20848
1319.21419	0.20802
1317.28551	0.20762
1315.35684	0.20715
1313.42816	0.20655
1311.49948	0.20595
1309.57081	0.20542
1307.64213	0.20485
1305.71346	0.20422
1303.78478	0.20363
1301.85611	0.20304
1299.92743	0.20242
1297.99875	0.20176
1296.07008	0.20107
1294.14140	0.20034
1292.21273	0.19949
1290.28405	0.19846
1288.35538	0.19722
1286.42670	0.19571
1284.49802	0.19392
1282.56935	0.19196
1280.64067	0.19000
1278.71200	0.18834
1276.78332	0.18721
1274.85465	0.18668
1272.92597	0.18664
1270.99729	0.18680
1269.06862	0.18681
1267.13994	0.18664
1265.21127	0.18641
1263.28259	0.18630
1261.35392	0.18637
1259.42524	0.18653
1257.49656	0.18672
1255.56789	0.18682
1253.63921	0.18665
1251.71054	0.18616
1249.78186	0.18548
1247.85319	0.18470
1245.92451	0.18381
1243.99583	0.18279
1242.06716	0.18161
1240.13848	0.18033
1238.20981	0.17899
1236.28113	0.17761
1234.35246	0.17619
1232.42378	0.17475
1230.49510	0.17326
1228.56643	0.17171
1226.63775	0.17016
1224.70908	0.16860
1222.78040	0.16698
1220.85173	0.16534
1218.92305	0.16370
1216.99437	0.16201
1215.06570	0.16019
1213.13702	0.15831
1211.20835	0.15649
1209.27967	0.15474
1207.35100	0.15296
1205.42232	0.15113
1203.49364	0.14933
1201.56497	0.14761
1199.63629	0.14595
1197.70762	0.14431
1195.77894	0.14267
1193.85027	0.14099
1191.92159	0.13935
1189.99291	0.13779
1188.06424	0.13618
1186.13556	0.13448
1184.20689	0.13279
1182.27821	0.13119
1180.34954	0.12960
1178.42086	0.12801
1176.49218	0.12643
1174.56351	0.12489
1172.63483	0.12333
1170.70616	0.12175
1168.77748	0.12014
1166.84881	0.11861
1164.92013	0.11721
1162.99145	0.11589
1161.06278	0.11453
1159.13410	0.11312
1157.20543	0.11173
1155.27675	0.11040
1153.34808	0.10910
1151.41940	0.10776
1149.49072	0.10647
1147.56205	0.10530
1145.63337	0.10415
1143.70470	0.10290
1141.77602	0.10154
1139.84735	0.10018
1137.91867	0.09888
1135.98999	0.09751
1134.06132	0.09596
1132.13264	0.09426
1130.20397	0.09248
1128.27529	0.09063
1126.34662	0.08872
1124.41794	0.08673
1122.48926	0.08474
1120.56059	0.08285
1118.63191	0.08102
1116.70324	0.07925
1114.77456	0.07757
1112.84589	0.07600
1110.91721	0.07461
1108.98853	0.07340
1107.05986	0.07238
1105.13118	0.07153
1103.20251	0.07082
1101.27383	0.07027
1099.34516	0.06983
1097.41648	0.06944
1095.48780	0.06904
1093.55913	0.06868
1091.63045	0.06830
1089.70178	0.06782
1087.77310	0.06726
1085.84443	0.06663
1083.91575	0.06591
1081.98707	0.06514
1080.05840	0.06430
1078.12972	0.06341
1076.20105	0.06247
1074.27237	0.06153
1072.34370	0.06063
1070.41502	0.05977
1068.48634	0.05890
1066.55767	0.05806
1064.62899	0.05735
1062.70032	0.05673
1060.77164	0.05612
1058.84297	0.05551
1056.91429	0.05500
1054.98561	0.05469
1053.05694	0.05448
1051.12826	0.05423
1049.19959	0.05405
1047.27091	0.05407
1045.34224	0.05427
1043.41356	0.05455
1041.48488	0.05485
1039.55621	0.05522
1037.62753	0.05571
1035.69886	0.05629
1033.77018	0.05692
1031.84151	0.05759
1029.91283	0.05845
1027.98415	0.05954
1026.05548	0.06070
1024.12680	0.06186
1022.19813	0.06319
1020.26945	0.06479
1018.34078	0.06655
1016.41210	0.06840
1014.48342	0.07035
1012.55475	0.07244
1010.62607	0.07475
1008.69740	0.07728
1006.76872	0.07993
1004.84005	0.08261
1002.91137	0.08535
1000.98269	0.08823
999.05402	0.09123
997.12534	0.09419
995.19667	0.09704
993.26799	0.09985
991.33932	0.10268
989.41064	0.10552
987.48196	0.10829
985.55329	0.11094
983.62461	0.11352
981.69594	0.11602
979.76726	0.11829
977.83859	0.12030
975.90991	0.12214
973.98123	0.12389
972.05256	0.12548
970.12388	0.12683
968.19521	0.12796
966.26653	0.12900
964.33786	0.12999
962.40918	0.13085
960.48050	0.13147
958.55183	0.13195
956.62315	0.13237
954.69448	0.13276
952.76580	0.13303
950.83713	0.13311
948.90845	0.13304
946.97977	0.13291
945.05110	0.13276
943.12242	0.13255
941.19375	0.13218
939.26507	0.13172
937.33640	0.13128
935.40772	0.13084
933.47904	0.13034
931.55037	0.12975
929.62169	0.12910
927.69302	0.12851
925.76434	0.12796
923.83567	0.12734
921.90699	0.12655
919.97831	0.12570
918.04964	0.12483
916.12096	0.12389
914.19229	0.12282
912.26361	0.12169
910.33494	0.12061
908.40626	0.11958
906.47758	0.11852
904.54891	0.11745
902.62023	0.11641
900.69156	0.11537
898.76288	0.11431
896.83421	0.11323
894.90553	0.11218
892.97685	0.11122
891.04818	0.11043
889.11950	0.10974
887.19083	0.10906
885.26215	0.10846
883.33348	0.10808
881.40480	0.10795
879.47612	0.10795
877.54745	0.10797
875.61877	0.10811
873.69010	0.10845
871.76142	0.10897
869.83275	0.10944
867.90407	0.10974
865.97539	0.10998
864.04672	0.11028
862.11804	0.11053
860.18937	0.11059
858.26069	0.11049
856.33202	0.11026
854.40334	0.10993
852.47466	0.10950
850.54599	0.10895
848.61731	0.10836
846.68864	0.10781
844.75996	0.10726
842.83129	0.10668
840.90261	0.10604
838.97394	0.10531
837.04526	0.10453
835.11658	0.10373
833.18791	0.10281
831.25923	0.10171
829.33056	0.10051
827.40188	0.09935
825.47321	0.09826
823.54453	0.09720
821.61585	0.09625
819.68718	0.09549
817.75850	0.09486
815.82983	0.09422
813.90115	0.09361
811.97248	0.09310
810.04380	0.09273
808.11512	0.09247
806.18645	0.09230
804.25777	0.09220
802.32910	0.09218
800.40042	0.09215
798.47175	0.09195
796.54307	0.09157
794.61439	0.09119
792.68572	0.09103
790.75704	0.09117
788.82837	0.09144
786.89969	0.09163
784.97102	0.09173
783.04234	0.09187
781.11366	0.09205
779.18499	0.09221
777.25631	0.09231
775.32764	0.09241
773.39896	0.09258
771.47029	0.09281
769.54161	0.09297
767.61293	0.09300
765.68426	0.09299
763.75558	0.09302
761.82691	0.09303
759.89823	0.09287
757.96956	0.09264
756.04088	0.09248
754.11220	0.09236
752.18353	0.09212
750.25485	0.09170
748.32618	0.09119
746.39750	0.09072
744.46883	0.09026
742.54015	0.08964
740.61147	0.08900
738.68280	0.08869
736.75412	0.08873
734.82545	0.08885
732.89677	0.08896
730.96810	0.08916
729.03942	0.08947
727.11074	0.08979
725.18207	0.09002
723.25339	0.09020
721.32472	0.09040
719.39604	0.09068
717.46737	0.09109
715.53869	0.09156
713.61001	0.09197
711.68134	0.09231
709.75266	0.09261
707.82399	0.09281
705.89531	0.09284
703.96664	0.09272
702.03796	0.09249
700.10928	0.09212
698.18061	0.09166
696.25193	0.09114
694.32326	0.09065
692.39458	0.09028
690.46591	0.08992
688.53723	0.08944
686.60855	0.08889
684.67988	0.08837
682.75120	0.08790
680.82253	0.08740
678.89385	0.08677
676.96518	0.08604
675.03650	0.08540
673.10782	0.08486
671.17915	0.08419
669.25047	0.08330
667.32180	0.08244
665.39312	0.08176
663.46445	0.08105
661.53577	0.08016
659.60709	0.07920
657.67842	0.07834
655.74974	0.07767
653.82107	0.07705
651.89239	0.07631
649.96372	0.07546
648.03504	0.07456
646.10636	0.07366
644.17769	0.07277
642.24901	0.07178
640.32034	0.07062
638.39166	0.06948
636.46299	0.06851
634.53431	0.06754
632.60563	0.06616
630.67696	0.06388
628.74828	0.06055
626.81961	0.05640
624.89093	0.05215
622.96226	0.04881
621.03358	0.04675
619.10490	0.04564
617.17623	0.04490
615.24755	0.04403
613.31888	0.04295
611.39020	0.04195
609.46153	0.04144
607.53285	0.04147
605.60417	0.04173
603.67550	0.04217
601.74682	0.04292
599.81815	0.04388
597.88947	0.04478
595.96080	0.04540
594.03212	0.04578
592.10344	0.04601
590.17477	0.04613
588.24609	0.04607
586.31742	0.04582
584.38874	0.04554
582.46007	0.04538
580.53139	0.04516
578.60271	0.04465
576.67404	0.04399
574.74536	0.04344
572.81669	0.04294
570.88801	0.04231
568.95934	0.04156
567.03066	0.04093
565.10198	0.04059
563.17331	0.04041
561.24463	0.04018
559.31596	0.03986
557.38728	0.03955
555.45861	0.03939
553.52993	0.03931
551.60125	0.03908
549.67258	0.03869
547.74390	0.03836
545.81523	0.03822
543.88655	0.03816
541.95788	0.03804
540.02920	0.03792
538.10052	0.03781
536.17185	0.03762
534.24317	0.03731
532.31450	0.03696
530.38582	0.03668
528.45715	0.03647
526.52847	0.03625
524.59979	0.03592
522.67112	0.03549
520.74244	0.03502
518.81377	0.03447
516.88509	0.03379
514.95642	0.03306
513.02774	0.03250
511.09906	0.03216
509.17039	0.03191
507.24171	0.03168
505.31304	0.03144
503.38436	0.03104
501.45569	0.03048
499.52701	0.02989
497.59833	0.02931
495.66966	0.02870
493.74098	0.02804
491.81231	0.02735
489.88363	0.02665
487.95496	0.02592
486.02628	0.02520
484.09760	0.02460
482.16893	0.02408
480.24025	0.02350
478.31158	0.02283
476.38290	0.02220
474.45423	0.02168
472.52555	0.02120
470.59687	0.02068
468.66820	0.02015
466.73952	0.01974
464.81085	0.01944
462.88217	0.01919
460.95350	0.01891
459.02482	0.01859
457.09614	0.01840
455.16747	0.01843
453.23879	0.01845
451.31012	0.01832
449.38144	0.01812
447.45277	0.01798
445.52409	0.01789
443.59541	0.01778
441.66674	0.01756
439.73806	0.01722
437.80939	0.01687
435.88071	0.01656
433.95204	0.01622
432.02336	0.01576
430.09468	0.01526
428.16601	0.01475
426.23733	0.01427
424.30866	0.01383
422.37998	0.01336
420.45131	0.01286
418.52263	0.01242
416.59395	0.01208
414.66528	0.01167
412.73660	0.01110
410.80793	0.01052
408.87925	0.01010
406.95058	0.00976
405.02190	0.00927
403.09322	0.00872
401.16455	0.00833
399.23587	0.00801
397.30720	0.00758
395.37852	0.00702
393.44985	0.00646
391.52117	0.00612
389.59249	0.00599
387.66382	0.00566
385.73514	0.00508
383.80647	0.00462
381.87779	0.00442
379.94912	0.00431
378.02044	0.00408
376.09176	0.00361
374.16309	0.00315
372.23441	0.00294
370.30574	0.00289
368.37706	0.00272
