7496.76250	0.00228
7494.83382	0.00230
7492.90514	0.00231
7490.97647	0.00232
7489.04779	0.00232
7487.11912	0.00231
7485.19044	0.00231
7483.26177	0.00232
7481.33309	0.00232
7479.40441	0.00233
7477.47574	0.00235
7475.54706	0.00237
7473.61839	0.00237
7471.68971	0.00235
7469.76104	0.00234
7467.83236	0.00235
7465.90368	0.00237
7463.97501	0.00238
7462.04633	0.00238
7460.11766	0.00238
7458.18898	0.00239
7456.26031	0.00241
7454.33163	0.00244
7452.40295	0.00245
7450.47428	0.00245
7448.54560	0.00245
7446.61693	0.00246
7444.68825	0.00246
7442.75958	0.00246
7440.83090	0.00246
7438.90222	0.00246
7436.97355	0.00247
7435.04487	0.00247
7433.11620	0.00247
7431.18752	0.00247
7429.25885	0.00248
7427.33017	0.00250
7425.40149	0.00252
7423.47282	0.00254
7421.54414	0.00255
7419.61547	0.00255
7417.68679	0.00255
7415.75812	0.00255
7413.82944	0.00256
7411.90076	0.00257
7409.97209	0.00257
7408.04341	0.00257
7406.11474	0.00258
7404.18606	0.00259
7402.25739	0.00259
7400.32871	0.00260
7398.40003	0.00262
7396.47136	0.00263
7394.54268	0.00263
7392.61401	0.00262
7390.68533	0.00262
7388.75666	0.00264
7386.82798	0.00265
7384.89930	0.00265
7382.97063	0.00265
7381.04195	0.00267
7379.11328	0.00269
7377.18460	0.00269
7375.25593	0.00269
7373.32725	0.00270
7371.39857	0.00272
7369.46990	0.00272
7367.54122	0.00272
7365.61255	0.00272
7363.68387	0.00273
7361.75520	0.00273
7359.82652	0.00274
7357.89784	0.00275
7355.96917	0.00276
7354.04049	0.00277
7352.11182	0.00276
7350.18314	0.00277
7348.25447	0.00278
7346.32579	0.00279
7344.39711	0.00280
7342.46844	0.00280
7340.53976	0.00279
7338.61109	0.00279
7336.68241	0.00280
7334.75374	0.00283
7332.82506	0.00285
7330.89638	0.00286
7328.96771	0.00285
7327.03903	0.00285
7325.11036	0.00286
7323.18168	0.00288
7321.25301	0.00289
7319.32433	0.00289
7317.39565	0.00287
7315.46698	0.00286
7313.53830	0.00289
7311.60963	0.00291
7309.68095	0.00292
7307.75228	0.00292
7305.82360	0.00294
7303.89492	0.00296
7301.96625	0.00296
7300.03757	0.00294
7298.10890	0.00294
7296.18022	0.00295
7294.25155	0.00296
7292.32287	0.00298
7290.39419	0.00300
7288.46552	0.00301
7286.53684	0.00302
7284.60817	0.00302
7282.67949	0.00302
7280.75082	0.00303
7278.82214	0.00304
7276.89346	0.00305
7274.96479	0.00307
7273.03611	0.00307
7271.10744	0.00307
7269.17876	0.00308
7267.25009	0.00308
7265.32141	0.00307
7263.39273	0.00306
7261.46406	0.00306
7259.53538	0.00307
7257.60671	0.00309
7255.67803	0.00311
7253.74936	0.00312
7251.82068	0.00313
7249.89200	0.00314
7247.96333	0.00315
7246.03465	0.00315
7244.10598	0.00315
7242.17730	0.00314
7240.24863	0.00315
7238.31995	0.00316
7236.39127	0.00316
7234.46260	0.00318
7232.53392	0.00320
7230.60525	0.00322
7228.67657	0.00322
7226.74790	0.00320
7224.81922	0.00321
7222.89054	0.00323
7220.96187	0.00325
7219.03319	0.00326
7217.10452	0.00327
7215.17584	0.00327
7213.24717	0.00327
7211.31849	0.00327
7209.38981	0.00328
7207.46114	0.00329
7205.53246	0.00328
7203.60379	0.00329
7201.67511	0.00330
7199.74644	0.00332
7197.81776	0.00333
7195.88908	0.00333
7193.96041	0.00333
7192.03173	0.00334
7190.10306	0.00336
7188.17438	0.00338
7186.24571	0.00339
7184.31703	0.00339
7182.38835	0.00338
7180.45968	0.00338
7178.53100	0.00338
7176.60233	0.00340
7174.67365	0.00342
7172.74498	0.00344
7170.81630	0.00344
7168.88762	0.00344
7166.95895	0.00344
7165.03027	0.00344
7163.10160	0.00346
7161.17292	0.00348
7159.24425	0.00350
7157.31557	0.00351
7155.38689	0.00352
7153.45822	0.00353
7151.52954	0.00353
7149.60087	0.00353
7147.67219	0.00354
7145.74352	0.00354
7143.81484	0.00355
7141.88616	0.00355
7139.95749	0.00356
7138.02881	0.00355
7136.10014	0.00355
7134.17146	0.00357
7132.24279	0.00359
7130.31411	0.00360
7128.38543	0.00361
7126.45676	0.00362
7124.52808	0.00363
7122.59941	0.00364
7120.67073	0.00365
7118.74206	0.00366
7116.81338	0.00366
7114.88470	0.00364
7112.95603	0.00365
7111.02735	0.00367
7109.09868	0.00369
7107.17000	0.00371
7105.24133	0.00372
7103.31265	0.00372
7101.38397	0.00373
7099.45530	0.00373
7097.52662	0.00372
7095.59795	0.00373
7093.66927	0.00375
7091.74060	0.00377
7089.81192	0.00378
7087.88324	0.00379
7085.95457	0.00381
7084.02589	0.00382
7082.09722	0.00382
7080.16854	0.00381
7078.23987	0.00380
7076.31119	0.00380
7074.38251	0.00382
7072.45384	0.00385
7070.52516	0.00387
7068.59649	0.00387
7066.66781	0.00387
7064.73914	0.00386
7062.81046	0.00387
7060.88178	0.00389
7058.95311	0.00391
7057.02443	0.00391
7055.09576	0.00393
7053.16708	0.00394
7051.23841	0.00395
7049.30973	0.00395
7047.38105	0.00395
7045.45238	0.00395
7043.52370	0.00396
7041.59503	0.00397
7039.66635	0.00398
7037.73768	0.00400
7035.80900	0.00401
7033.88032	0.00402
7031.95165	0.00403
7030.02297	0.00404
7028.09430	0.00403
7026.16562	0.00403
7024.23695	0.00404
7022.30827	0.00406
7020.37959	0.00407
7018.45092	0.00408
7016.52224	0.00410
7014.59357	0.00411
7012.66489	0.00410
7010.73622	0.00409
7008.80754	0.00410
7006.87886	0.00413
7004.95019	0.00415
7003.02151	0.00415
7001.09284	0.00415
6999.16416	0.00416
6997.23549	0.00418
6995.30681	0.00419
6993.37813	0.00419
6991.44946	0.00420
6989.52078	0.00421
6987.59211	0.00421
6985.66343	0.00422
6983.73476	0.00423
6981.80608	0.00424
6979.87740	0.00424
6977.94873	0.00424
6976.02005	0.00425
6974.09138	0.00427
6972.16270	0.00427
6970.23403	0.00427
6968.30535	0.00428
6966.37667	0.00431
6964.44800	0.00434
6962.51932	0.00435
6960.59065	0.00435
6958.66197	0.00435
6956.73330	0.00435
6954.80462	0.00437
6952.87594	0.00438
6950.94727	0.00438
6949.01859	0.00438
6947.08992	0.00440
6945.16124	0.00442
6943.23257	0.00442
6941.30389	0.00443
6939.37521	0.00444
6937.44654	0.00444
6935.51786	0.00444
6933.58919	0.00445
6931.66051	0.00446
6929.73184	0.00448
6927.80316	0.00451
6925.87448	0.00453
6923.94581	0.00454
6922.01713	0.00452
6920.08846	0.00451
6918.15978	0.00453
6916.23111	0.00455
6914.30243	0.00457
6912.37375	0.00457
6910.44508	0.00457
6908.51640	0.00457
6906.58773	0.00458
6904.65905	0.00461
6902.73038	0.00463
6900.80170	0.00464
6898.87302	0.00466
6896.94435	0.00468
6895.01567	0.00468
6893.08700	0.00467
6891.15832	0.00468
6889.22965	0.00470
6887.30097	0.00471
6885.37229	0.00470
6883.44362	0.00470
6881.51494	0.00470
6879.58627	0.00472
6877.65759	0.00474
6875.72892	0.00476
6873.80024	0.00478
6871.87156	0.00479
6869.94289	0.00479
6868.01421	0.00480
6866.08554	0.00482
6864.15686	0.00483
6862.22819	0.00483
6860.29951	0.00483
6858.37083	0.00483
6856.44216	0.00485
6854.51348	0.00487
6852.58481	0.00487
6850.65613	0.00487
6848.72746	0.00488
6846.79878	0.00490
6844.87010	0.00492
6842.94143	0.00493
6841.01275	0.00494
6839.08408	0.00495
6837.15540	0.00494
6835.22673	0.00494
6833.29805	0.00497
6831.36937	0.00499
6829.44070	0.00502
6827.51202	0.00503
6825.58335	0.00503
6823.65467	0.00504
6821.72600	0.00506
6819.79732	0.00507
6817.86864	0.00507
6815.93997	0.00506
6814.01129	0.00507
6812.08262	0.00508
6810.15394	0.00510
6808.22527	0.00510
6806.29659	0.00511
6804.36791	0.00513
6802.43924	0.00515
6800.51056	0.00516
6798.58189	0.00517
6796.65321	0.00517
6794.72454	0.00520
6792.79586	0.00523
6790.86718	0.00523
6788.93851	0.00523
6787.00983	0.00524
6785.08116	0.00525
6783.15248	0.00526
6781.22381	0.00526
6779.29513	0.00527
6777.36645	0.00528
6775.43778	0.00531
6773.50910	0.00533
6771.58043	0.00533
6769.65175	0.00534
6767.72308	0.00534
6765.79440	0.00535
6763.86572	0.00536
6761.93705	0.00537
6760.00837	0.00538
6758.07970	0.00539
6756.15102	0.00541
6754.22235	0.00542
6752.29367	0.00542
6750.36499	0.00543
6748.43632	0.00545
6746.50764	0.00547
6744.57897	0.00548
6742.65029	0.00548
6740.72162	0.00549
6738.79294	0.00551
6736.86426	0.00552
6734.93559	0.00553
6733.00691	0.00553
6731.07824	0.00554
6729.14956	0.00556
6727.22089	0.00559
6725.29221	0.00559
6723.36353	0.00560
6721.43486	0.00560
6719.50618	0.00562
6717.57751	0.00565
6715.64883	0.00566
6713.72016	0.00566
6711.79148	0.00566
6709.86280	0.00567
6707.93413	0.00568
6706.00545	0.00570
6704.07678	0.00571
6702.14810	0.00573
6700.21943	0.00575
6698.29075	0.00576
6696.36207	0.00577
6694.43340	0.00579
6692.50472	0.00581
6690.57605	0.00582
6688.64737	0.00581
6686.71870	0.00581
6684.79002	0.00582
6682.86134	0.00582
6680.93267	0.00583
6679.00399	0.00585
6677.07532	0.00587
6675.14664	0.00589
6673.21797	0.00591
6671.28929	0.00593
6669.36061	0.00594
6667.43194	0.00595
6665.50326	0.00596
6663.57459	0.00596
6661.64591	0.00594
6659.71724	0.00595
6657.78856	0.00599
6655.85988	0.00602
6653.93121	0.00604
6652.00253	0.00605
6650.07386	0.00605
6648.14518	0.00607
6646.21651	0.00609
6644.28783	0.00609
6642.35915	0.00609
6640.43048	0.00609
6638.50180	0.00610
6636.57313	0.00612
6634.64445	0.00614
6632.71578	0.00616
6630.78710	0.00619
6628.85842	0.00622
6626.92975	0.00623
6625.00107	0.00624
6623.07240	0.00623
6621.14372	0.00624
6619.21505	0.00626
6617.28637	0.00628
6615.35769	0.00628
6613.42902	0.00628
6611.50034	0.00630
6609.57167	0.00633
6607.64299	0.00636
6605.71432	0.00637
6603.78564	0.00637
6601.85696	0.00638
6599.92829	0.00639
6597.99961	0.00639
6596.07094	0.00641
6594.14226	0.00644
6592.21359	0.00646
6590.28491	0.00647
6588.35623	0.00648
6586.42756	0.00649
6584.49888	0.00650
6582.57021	0.00650
6580.64153	0.00651
6578.71286	0.00654
6576.78418	0.00656
6574.85550	0.00656
6572.92683	0.00657
6570.99815	0.00657
6569.06948	0.00657
6567.14080	0.00658
6565.21213	0.00661
6563.28345	0.00663
6561.35477	0.00665
6559.42610	0.00666
6557.49742	0.00667
6555.56875	0.00668
6553.64007	0.00670
6551.71140	0.00672
6549.78272	0.00674
6547.85404	0.00676
6545.92537	0.00677
6543.99669	0.00678
6542.06802	0.00680
6540.13934	0.00681
6538.21067	0.00680
6536.28199	0.00679
6534.35331	0.00681
6532.42464	0.00684
6530.49596	0.00687
6528.56729	0.00689
6526.63861	0.00691
6524.70994	0.00692
6522.78126	0.00693
6520.85258	0.00696
6518.92391	0.00697
6516.99523	0.00699
6515.06656	0.00700
6513.13788	0.00700
6511.20921	0.00699
6509.28053	0.00702
6507.35185	0.00706
6505.42318	0.00710
6503.49450	0.00711
6501.56583	0.00710
6499.63715	0.00710
6497.70848	0.00710
6495.77980	0.00711
6493.85112	0.00712
6491.92245	0.00714
6489.99377	0.00718
6488.06510	0.00721
6486.13642	0.00723
6484.20775	0.00724
6482.27907	0.00725
6480.35039	0.00726
6478.42172	0.00726
6476.49304	0.00728
6474.56437	0.00731
6472.63569	0.00733
6470.70702	0.00734
6468.77834	0.00735
6466.84966	0.00736
6464.92099	0.00737
6462.99231	0.00739
6461.06364	0.00741
6459.13496	0.00743
6457.20629	0.00744
6455.27761	0.00746
6453.34893	0.00748
6451.42026	0.00749
6449.49158	0.00751
6447.56291	0.00751
6445.63423	0.00751
6443.70556	0.00752
6441.77688	0.00755
6439.84820	0.00758
6437.91953	0.00760
6435.99085	0.00762
6434.06218	0.00763
6432.13350	0.00764
6430.20483	0.00765
6428.27615	0.00767
6426.34747	0.00770
6424.41880	0.00773
6422.49012	0.00773
6420.56145	0.00773
6418.63277	0.00775
6416.70410	0.00778
6414.77542	0.00780
6412.84674	0.00781
6410.91807	0.00782
6408.98939	0.00785
6407.06072	0.00787
6405.13204	0.00789
6403.20337	0.00790
6401.27469	0.00791
6399.34601	0.00791
6397.41734	0.00792
6395.48866	0.00793
6393.55999	0.00796
6391.63131	0.00798
6389.70264	0.00802
6387.77396	0.00805
6385.84528	0.00806
6383.91661	0.00807
6381.98793	0.00808
6380.05926	0.00810
6378.13058	0.00809
6376.20191	0.00809
6374.27323	0.00810
6372.34455	0.00812
6370.41588	0.00814
6368.48720	0.00816
6366.55853	0.00819
6364.62985	0.00820
6362.70118	0.00822
6360.77250	0.00823
6358.84382	0.00824
6356.91515	0.00825
6354.98647	0.00829
6353.05780	0.00832
6351.12912	0.00834
6349.20045	0.00835
6347.27177	0.00836
6345.34309	0.00837
6343.41442	0.00839
6341.48574	0.00840
6339.55707	0.00841
6337.62839	0.00844
6335.69972	0.00846
6333.77104	0.00847
6331.84236	0.00849
6329.91369	0.00852
6327.98501	0.00854
6326.05634	0.00855
6324.12766	0.00856
6322.19899	0.00859
6320.27031	0.00862
6318.34163	0.00864
6316.41296	0.00865
6314.48428	0.00865
6312.55561	0.00867
6310.62693	0.00869
6308.69826	0.00871
6306.76958	0.00873
6304.84090	0.00875
6302.91223	0.00875
6300.98355	0.00876
6299.05488	0.00880
6297.12620	0.00884
6295.19753	0.00887
6293.26885	0.00887
6291.34017	0.00887
6289.41150	0.00888
6287.48282	0.00888
6285.55415	0.00890
6283.62547	0.00894
6281.69680	0.00897
6279.76812	0.00899
6277.83944	0.00899
6275.91077	0.00900
6273.98209	0.00903
6272.05342	0.00907
6270.12474	0.00909
6268.19607	0.00911
6266.26739	0.00913
6264.33871	0.00916
6262.41004	0.00916
6260.48136	0.00916
6258.55269	0.00917
6256.62401	0.00919
6254.69534	0.00922
6252.76666	0.00924
6250.83798	0.00927
6248.90931	0.00929
6246.98063	0.00930
6245.05196	0.00931
6243.12328	0.00934
6241.19461	0.00937
6239.26593	0.00939
6237.33725	0.00941
6235.40858	0.00943
6233.47990	0.00945
6231.55123	0.00947
6229.62255	0.00949
6227.69388	0.00952
6225.76520	0.00953
6223.83652	0.00953
6221.90785	0.00954
6219.97917	0.00955
6218.05050	0.00958
6216.12182	0.00961
6214.19315	0.00963
6212.26447	0.00964
6210.33579	0.00966
6208.40712	0.00969
6206.47844	0.00970
6204.54977	0.00972
6202.62109	0.00975
6200.69242	0.00977
6198.76374	0.00978
6196.83506	0.00980
6194.90639	0.00983
6192.97771	0.00985
6191.04904	0.00988
6189.12036	0.00990
6187.19169	0.00993
6185.26301	0.00996
6183.33433	0.00998
6181.40566	0.01001
6179.47698	0.01004
6177.54831	0.01004
6175.61963	0.01004
6173.69096	0.01005
6171.76228	0.01006
6169.83360	0.01008
6167.90493	0.01012
6165.97625	0.01015
6164.04758	0.01017
6162.11890	0.01018
6160.19023	0.01019
6158.26155	0.01021
6156.33287	0.01024
6154.40420	0.01026
6152.47552	0.01028
6150.54685	0.01030
6148.61817	0.01031
6146.68950	0.01034
6144.76082	0.01035
6142.83214	0.01037
6140.90347	0.01038
6138.97479	0.01039
6137.04612	0.01042
6135.11744	0.01045
6133.18877	0.01048
6131.26009	0.01050
6129.33141	0.01054
6127.40274	0.01058
6125.47406	0.01062
6123.54539	0.01065
6121.61671	0.01066
6119.68804	0.01067
6117.75936	0.01068
6115.83068	0.01069
6113.90201	0.01072
6111.97333	0.01074
6110.04466	0.01077
6108.11598	0.01081
6106.18731	0.01083
6104.25863	0.01085
6102.32995	0.01088
6100.40128	0.01089
6098.47260	0.01090
6096.54393	0.01092
6094.61525	0.01093
6092.68658	0.01095
6090.75790	0.01097
6088.82922	0.01099
6086.90055	0.01102
6084.97187	0.01105
6083.04320	0.01108
6081.11452	0.01110
6079.18585	0.01112
6077.25717	0.01114
6075.32849	0.01118
6073.39982	0.01119
6071.47114	0.01120
6069.54247	0.01122
6067.61379	0.01125
6065.68512	0.01129
6063.75644	0.01131
6061.82776	0.01133
6059.89909	0.01136
6057.97041	0.01140
6056.04174	0.01142
6054.11306	0.01143
6052.18439	0.01145
6050.25571	0.01147
6048.32703	0.01150
6046.39836	0.01153
6044.46968	0.01155
6042.54101	0.01157
6040.61233	0.01159
6038.68366	0.01163
6036.75498	0.01164
6034.82630	0.01166
6032.89763	0.01167
6030.96895	0.01169
6029.04028	0.01172
6027.11160	0.01175
6025.18293	0.01178
6023.25425	0.01179
6021.32557	0.01182
6019.39690	0.01185
6017.46822	0.01189
6015.53955	0.01192
6013.61087	0.01196
6011.68220	0.01200
6009.75352	0.01201
6007.82484	0.01202
6005.89617	0.01205
6003.96749	0.01208
6002.03882	0.01208
6000.11014	0.01209
5998.18147	0.01211
5996.25279	0.01214
5994.32411	0.01217
5992.39544	0.01219
5990.46676	0.01221
5988.53809	0.01224
5986.60941	0.01227
5984.68074	0.01229
5982.75206	0.01232
5980.82338	0.01236
5978.89471	0.01239
5976.96603	0.01241
5975.03736	0.01242
5973.10868	0.01244
5971.18001	0.01246
5969.25133	0.01249
5967.32265	0.01252
5965.39398	0.01255
5963.46530	0.01258
5961.53663	0.01260
5959.60795	0.01263
5957.67928	0.01265
5955.75060	0.01267
5953.82192	0.01269
5951.89325	0.01272
5949.96457	0.01274
5948.03590	0.01278
5946.10722	0.01282
5944.17855	0.01284
5942.24987	0.01286
5940.32119	0.01287
5938.39252	0.01290
5936.46384	0.01293
5934.53517	0.01297
5932.60649	0.01299
5930.67782	0.01301
5928.74914	0.01303
5926.82046	0.01306
5924.89179	0.01309
5922.96311	0.01313
5921.03444	0.01316
5919.10576	0.01319
5917.17709	0.01322
5915.24841	0.01325
5913.31973	0.01327
5911.39106	0.01329
5909.46238	0.01331
5907.53371	0.01333
5905.60503	0.01337
5903.67636	0.01339
5901.74768	0.01341
5899.81900	0.01343
5897.89033	0.01346
5895.96165	0.01350
5894.03298	0.01353
5892.10430	0.01357
5890.17563	0.01360
5888.24695	0.01363
5886.31827	0.01366
5884.38960	0.01368
5882.46092	0.01371
5880.53225	0.01374
5878.60357	0.01376
5876.67490	0.01380
5874.74622	0.01382
5872.81755	0.01383
5870.88887	0.01385
5868.96019	0.01388
5867.03152	0.01392
5865.10284	0.01397
5863.17417	0.01400
5861.24549	0.01402
5859.31682	0.01403
5857.38814	0.01407
5855.45946	0.01410
5853.53079	0.01413
5851.60211	0.01415
5849.67344	0.01417
5847.74476	0.01419
5845.81609	0.01422
5843.88741	0.01425
5841.95873	0.01428
5840.03006	0.01432
5838.10138	0.01436
5836.17271	0.01440
5834.24403	0.01443
5832.31536	0.01445
5830.38668	0.01447
5828.45800	0.01449
5826.52933	0.01452
5824.60065	0.01455
5822.67198	0.01457
5820.74330	0.01460
5818.81463	0.01463
5816.88595	0.01466
5814.95727	0.01470
5813.02860	0.01474
5811.09992	0.01479
5809.17125	0.01482
5807.24257	0.01485
5805.31390	0.01486
5803.38522	0.01488
5801.45654	0.01490
5799.52787	0.01494
5797.59919	0.01498
5795.67052	0.01501
5793.74184	0.01504
5791.81317	0.01507
5789.88449	0.01509
5787.95581	0.01511
5786.02714	0.01514
5784.09846	0.01515
5782.16979	0.01517
5780.24111	0.01520
5778.31244	0.01524
5776.38376	0.01528
5774.45508	0.01533
5772.52641	0.01537
5770.59773	0.01541
5768.66906	0.01545
5766.74038	0.01547
5764.81171	0.01549
5762.88303	0.01552
5760.95435	0.01555
5759.02568	0.01557
5757.09700	0.01559
5755.16833	0.01562
5753.23965	0.01566
5751.31098	0.01570
5749.38230	0.01574
5747.45362	0.01579
5745.52495	0.01582
5743.59627	0.01584
5741.66760	0.01586
5739.73892	0.01588
5737.81025	0.01592
5735.88157	0.01596
5733.95289	0.01598
5732.02422	0.01602
5730.09554	0.01606
5728.16687	0.01609
5726.23819	0.01611
5724.30952	0.01613
5722.38084	0.01617
5720.45216	0.01621
5718.52349	0.01625
5716.59481	0.01629
5714.66614	0.01632
5712.73746	0.01634
5710.80879	0.01637
5708.88011	0.01641
5706.95143	0.01644
5705.02276	0.01647
5703.09408	0.01651
5701.16541	0.01655
5699.23673	0.01658
5697.30806	0.01661
5695.37938	0.01663
5693.45070	0.01666
5691.52203	0.01668
5689.59335	0.01670
5687.66468	0.01674
5685.73600	0.01677
5683.80733	0.01682
5681.87865	0.01686
5679.94997	0.01689
5678.02130	0.01692
5676.09262	0.01696
5674.16395	0.01701
5672.23527	0.01704
5670.30660	0.01708
5668.37792	0.01710
5666.44924	0.01711
5664.52057	0.01713
5662.59189	0.01718
5660.66322	0.01722
5658.73454	0.01726
5656.80587	0.01730
5654.87719	0.01734
5652.94851	0.01737
5651.01984	0.01741
5649.09116	0.01746
5647.16249	0.01748
5645.23381	0.01751
5643.30514	0.01753
5641.37646	0.01756
5639.44778	0.01759
5637.51911	0.01762
5635.59043	0.01765
5633.66176	0.01768
5631.73308	0.01773
5629.80441	0.01777
5627.87573	0.01780
5625.94705	0.01784
5624.01838	0.01788
5622.08970	0.01792
5620.16103	0.01794
5618.23235	0.01798
5616.30368	0.01803
5614.37500	0.01807
5612.44632	0.01810
5610.51765	0.01812
5608.58897	0.01815
5606.66030	0.01817
5604.73162	0.01821
5602.80295	0.01827
5600.87427	0.01832
5598.94559	0.01837
5597.01692	0.01839
5595.08824	0.01842
5593.15957	0.01846
5591.23089	0.01850
5589.30222	0.01852
5587.37354	0.01854
5585.44486	0.01855
5583.51619	0.01858
5581.58751	0.01862
5579.65884	0.01867
5577.73016	0.01871
5575.80149	0.01876
5573.87281	0.01880
5571.94413	0.01883
5570.01546	0.01887
5568.08678	0.01891
5566.15811	0.01893
5564.22943	0.01895
5562.30076	0.01899
5560.37208	0.01903
5558.44340	0.01907
5556.51473	0.01911
5554.58605	0.01915
5552.65738	0.01919
5550.72870	0.01923
5548.80003	0.01926
5546.87135	0.01930
5544.94267	0.01934
5543.01400	0.01939
5541.08532	0.01943
5539.15665	0.01946
5537.22797	0.01949
5535.29930	0.01953
5533.37062	0.01957
5531.44194	0.01961
5529.51327	0.01966
5527.58459	0.01970
5525.65592	0.01973
5523.72724	0.01976
5521.79857	0.01978
5519.86989	0.01980
5517.94121	0.01982
5516.01254	0.01986
5514.08386	0.01990
5512.15519	0.01993
5510.22651	0.01996
5508.29784	0.02000
5506.36916	0.02005
5504.44048	0.02010
5502.51181	0.02016
5500.58313	0.02020
5498.65446	0.02022
5496.72578	0.02024
5494.79711	0.02028
5492.86843	0.02031
5490.93975	0.02034
5489.01108	0.02039
5487.08240	0.02046
5485.15373	0.02052
5483.22505	0.02055
5481.29638	0.02057
5479.36770	0.02059
5477.43902	0.02063
5475.51035	0.02067
5473.58167	0.02072
5471.65300	0.02075
5469.72432	0.02077
5467.79565	0.02080
5465.86697	0.02084
5463.93829	0.02089
5462.00962	0.02093
5460.08094	0.02097
5458.15227	0.02101
5456.22359	0.02106
5454.29492	0.02112
5452.36624	0.02116
5450.43756	0.02119
5448.50889	0.02122
5446.58021	0.02125
5444.65154	0.02127
5442.72286	0.02130
5440.79419	0.02134
5438.86551	0.02139
5436.93683	0.02145
5435.00816	0.02150
5433.07948	0.02156
5431.15081	0.02159
5429.22213	0.02160
5427.29346	0.02165
5425.36478	0.02171
5423.43610	0.02176
5421.50743	0.02179
5419.57875	0.02182
5417.65008	0.02184
5415.72140	0.02187
5413.79273	0.02191
5411.86405	0.02195
5409.93537	0.02199
5408.00670	0.02204
5406.07802	0.02211
5404.14935	0.02216
5402.22067	0.02220
5400.29200	0.02224
5398.36332	0.02226
5396.43464	0.02228
5394.50597	0.02232
5392.57729	0.02236
5390.64862	0.02242
5388.71994	0.02247
5386.79127	0.02252
5384.86259	0.02258
5382.93391	0.02262
5381.00524	0.02265
5379.07656	0.02266
5377.14789	0.02268
5375.21921	0.02272
5373.29054	0.02277
5371.36186	0.02283
5369.43318	0.02286
5367.50451	0.02288
5365.57583	0.02293
5363.64716	0.02299
5361.71848	0.02304
5359.78981	0.02308
5357.86113	0.02312
5355.93245	0.02316
5354.00378	0.02318
5352.07510	0.02323
5350.14643	0.02328
5348.21775	0.02333
5346.28908	0.02336
5344.36040	0.02339
5342.43172	0.02344
5340.50305	0.02347
5338.57437	0.02351
5336.64570	0.02358
5334.71702	0.02363
5332.78835	0.02366
5330.85967	0.02370
5328.93099	0.02374
5327.00232	0.02378
5325.07364	0.02385
5323.14497	0.02391
5321.21629	0.02393
5319.28762	0.02395
5317.35894	0.02398
5315.43026	0.02403
5313.50159	0.02407
5311.57291	0.02412
5309.64424	0.02417
5307.71556	0.02422
5305.78689	0.02425
5303.85821	0.02427
5301.92953	0.02431
5300.00086	0.02436
5298.07218	0.02441
5296.14351	0.02445
5294.21483	0.02447
5292.28616	0.02451
5290.35748	0.02457
5288.42880	0.02464
5286.50013	0.02469
5284.57145	0.02473
5282.64278	0.02477
5280.71410	0.02482
5278.78543	0.02485
5276.85675	0.02489
5274.92807	0.02492
5272.99940	0.02496
5271.07072	0.02500
5269.14205	0.02505
5267.21337	0.02508
5265.28470	0.02511
5263.35602	0.02516
5261.42734	0.02523
5259.49867	0.02529
5257.56999	0.02534
5255.64132	0.02538
5253.71264	0.02542
5251.78397	0.02547
5249.85529	0.02550
5247.92661	0.02551
5245.99794	0.02555
5244.06926	0.02560
5242.14059	0.02566
5240.21191	0.02571
5238.28324	0.02575
5236.35456	0.02580
5234.42588	0.02585
5232.49721	0.02591
5230.56853	0.02596
5228.63986	0.02598
5226.71118	0.02599
5224.78251	0.02603
5222.85383	0.02609
5220.92515	0.02613
5218.99648	0.02618
5217.06780	0.02624
5215.13913	0.02630
5213.21045	0.02635
5211.28178	0.02640
5209.35310	0.02644
5207.42442	0.02646
5205.49575	0.02649
5203.56707	0.02654
5201.63840	0.02660
5199.70972	0.02666
5197.78105	0.02671
5195.85237	0.02674
5193.92369	0.02678
5191.99502	0.02682
5190.06634	0.02686
5188.13767	0.02691
5186.20899	0.02696
5184.28032	0.02702
5182.35164	0.02706
5180.42296	0.02709
5178.49429	0.02712
5176.56561	0.02716
5174.63694	0.02721
5172.70826	0.02727
5170.77959	0.02734
5168.85091	0.02740
5166.92223	0.02745
5164.99356	0.02749
5163.06488	0.02751
5161.13621	0.02754
5159.20753	0.02760
5157.27886	0.02765
5155.35018	0.02769
5153.42150	0.02773
5151.49283	0.02778
5149.56415	0.02784
5147.63548	0.02790
5145.70680	0.02794
5143.77813	0.02796
5141.84945	0.02800
5139.92077	0.02805
5137.99210	0.02808
5136.06342	0.02813
5134.13475	0.02819
5132.20607	0.02827
5130.27740	0.02834
5128.34872	0.02838
5126.42004	0.02842
5124.49137	0.02845
5122.56269	0.02849
5120.63402	0.02855
5118.70534	0.02861
5116.77667	0.02865
5114.84799	0.02867
5112.91931	0.02871
5110.99064	0.02876
5109.06196	0.02882
5107.13329	0.02888
5105.20461	0.02893
5103.27594	0.02897
5101.34726	0.02900
5099.41858	0.02903
5097.48991	0.02909
5095.56123	0.02917
5093.63256	0.02922
5091.70388	0.02927
5089.77521	0.02931
5087.84653	0.02935
5085.91785	0.02940
5083.98918	0.02945
5082.06050	0.02950
5080.13183	0.02955
5078.20315	0.02959
5076.27448	0.02963
5074.34580	0.02968
5072.41712	0.02974
5070.48845	0.02981
5068.55977	0.02985
5066.63110	0.02988
5064.70242	0.02991
5062.77375	0.02995
5060.84507	0.03000
5058.91639	0.03007
5056.98772	0.03015
5055.05904	0.03020
5053.13037	0.03022
5051.20169	0.03025
5049.27302	0.03031
5047.34434	0.03040
5045.41566	0.03047
5043.48699	0.03053
5041.55831	0.03057
5039.62964	0.03059
5037.70096	0.03061
5035.77229	0.03066
5033.84361	0.03072
5031.91493	0.03077
5029.98626	0.03081
5028.05758	0.03086
5026.12891	0.03092
5024.20023	0.03096
5022.27156	0.03099
5020.34288	0.03104
5018.41420	0.03109
5016.48553	0.03113
5014.55685	0.03119
5012.62818	0.03125
5010.69950	0.03130
5008.77083	0.03134
5006.84215	0.03140
5004.91347	0.03145
5002.98480	0.03151
5001.05612	0.03158
4999.12745	0.03164
4997.19877	0.03169
4995.27010	0.03174
4993.34142	0.03178
4991.41274	0.03183
4989.48407	0.03190
4987.55539	0.03198
4985.62672	0.03204
4983.69804	0.03207
4981.76937	0.03209
4979.84069	0.03214
4977.91201	0.03220
4975.98334	0.03225
4974.05466	0.03229
4972.12599	0.03234
4970.19731	0.03240
4968.26864	0.03245
4966.33996	0.03250
4964.41128	0.03257
4962.48261	0.03264
4960.55393	0.03268
4958.62526	0.03269
4956.69658	0.03272
4954.76791	0.03278
4952.83923	0.03284
4950.91055	0.03289
4948.98188	0.03296
4947.05320	0.03303
4945.12453	0.03308
4943.19585	0.03313
4941.26718	0.03317
4939.33850	0.03322
4937.40982	0.03328
4935.48115	0.03334
4933.55247	0.03339
4931.62380	0.03341
4929.69512	0.03344
4927.76645	0.03350
4925.83777	0.03358
4923.90909	0.03364
4921.98042	0.03370
4920.05174	0.03375
4918.12307	0.03379
4916.19439	0.03385
4914.26572	0.03390
4912.33704	0.03397
4910.40836	0.03403
4908.47969	0.03406
4906.55101	0.03411
4904.62234	0.03417
4902.69366	0.03424
4900.76499	0.03430
4898.83631	0.03436
4896.90763	0.03441
4894.97896	0.03446
4893.05028	0.03451
4891.12161	0.03455
4889.19293	0.03459
4887.26426	0.03464
4885.33558	0.03470
4883.40690	0.03475
4881.47823	0.03478
4879.54955	0.03482
4877.62088	0.03487
4875.69220	0.03493
4873.76353	0.03501
4871.83485	0.03507
4869.90617	0.03514
4867.97750	0.03521
4866.04882	0.03525
4864.12015	0.03528
4862.19147	0.03534
4860.26280	0.03541
4858.33412	0.03548
4856.40544	0.03553
4854.47677	0.03558
4852.54809	0.03563
4850.61942	0.03568
4848.69074	0.03574
4846.76207	0.03579
4844.83339	0.03584
4842.90471	0.03588
4840.97604	0.03595
4839.04736	0.03602
4837.11869	0.03609
4835.19001	0.03613
4833.26134	0.03618
4831.33266	0.03623
4829.40398	0.03629
4827.47531	0.03636
4825.54663	0.03643
4823.61796	0.03649
4821.68928	0.03655
4819.76061	0.03660
4817.83193	0.03667
4815.90325	0.03672
4813.97458	0.03677
4812.04590	0.03684
4810.11723	0.03691
4808.18855	0.03696
4806.25988	0.03701
4804.33120	0.03707
4802.40252	0.03712
4800.47385	0.03716
4798.54517	0.03719
4796.61650	0.03723
4794.68782	0.03732
4792.75915	0.03743
4790.83047	0.03751
4788.90179	0.03754
4786.97312	0.03757
4785.04444	0.03763
4783.11577	0.03770
4781.18709	0.03778
4779.25842	0.03784
4777.32974	0.03790
4775.40106	0.03795
4773.47239	0.03799
4771.54371	0.03803
4769.61504	0.03808
4767.68636	0.03814
4765.75769	0.03820
4763.82901	0.03827
4761.90033	0.03835
4759.97166	0.03841
4758.04298	0.03846
4756.11431	0.03852
4754.18563	0.03859
4752.25696	0.03869
4750.32828	0.03875
4748.39960	0.03880
4746.47093	0.03884
4744.54225	0.03888
4742.61358	0.03895
4740.68490	0.03902
4738.75623	0.03909
4736.82755	0.03916
4734.89887	0.03922
4732.97020	0.03928
4731.04152	0.03932
4729.11285	0.03938
4727.18417	0.03944
4725.25550	0.03950
4723.32682	0.03958
4721.39814	0.03964
4719.46947	0.03972
4717.54079	0.03979
4715.61212	0.03985
4713.68344	0.03989
4711.75477	0.03994
4709.82609	0.04002
4707.89741	0.04010
4705.96874	0.04014
4704.04006	0.04017
4702.11139	0.04023
4700.18271	0.04030
4698.25404	0.04036
4696.32536	0.04040
4694.39668	0.04046
4692.46801	0.04055
4690.53933	0.04065
4688.61066	0.04072
4686.68198	0.04079
4684.75331	0.04086
4682.82463	0.04093
4680.89595	0.04098
4678.96728	0.04103
4677.03860	0.04111
4675.10993	0.04118
4673.18125	0.04126
4671.25258	0.04133
4669.32390	0.04139
4667.39522	0.04143
4665.46655	0.04148
4663.53787	0.04155
4661.60920	0.04162
4659.68052	0.04169
4657.75185	0.04176
4655.82317	0.04182
4653.89449	0.04190
4651.96582	0.04197
4650.03714	0.04203
4648.10847	0.04207
4646.17979	0.04214
4644.25112	0.04223
4642.32244	0.04232
4640.39376	0.04240
4638.46509	0.04247
4636.53641	0.04253
4634.60774	0.04260
4632.67906	0.04268
4630.75039	0.04275
4628.82171	0.04280
4626.89303	0.04285
4624.96436	0.04292
4623.03568	0.04298
4621.10701	0.04304
4619.17833	0.04310
4617.24966	0.04316
4615.32098	0.04323
4613.39230	0.04332
4611.46363	0.04341
4609.53495	0.04348
4607.60628	0.04356
4605.67760	0.04363
4603.74893	0.04367
4601.82025	0.04372
4599.89157	0.04376
4597.96290	0.04381
4596.03422	0.04388
4594.10555	0.04396
4592.17687	0.04407
4590.24820	0.04417
4588.31952	0.04425
4586.39084	0.04433
4584.46217	0.04440
4582.53349	0.04447
4580.60482	0.04454
4578.67614	0.04463
4576.74747	0.04469
4574.81879	0.04475
4572.89011	0.04482
4570.96144	0.04489
4569.03276	0.04495
4567.10409	0.04501
4565.17541	0.04509
4563.24674	0.04517
4561.31806	0.04523
4559.38938	0.04529
4557.46071	0.04537
4555.53203	0.04545
4553.60336	0.04554
4551.67468	0.04562
4549.74601	0.04569
4547.81733	0.04576
4545.88865	0.04583
4543.95998	0.04590
4542.03130	0.04598
4540.10263	0.04606
4538.17395	0.04613
4536.24528	0.04623
4534.31660	0.04632
4532.38792	0.04640
4530.45925	0.04647
4528.53057	0.04654
4526.60190	0.04662
4524.67322	0.04672
4522.74455	0.04681
4520.81587	0.04689
4518.88719	0.04696
4516.95852	0.04703
4515.02984	0.04711
4513.10117	0.04717
4511.17249	0.04724
4509.24382	0.04732
4507.31514	0.04739
4505.38646	0.04746
4503.45779	0.04754
4501.52911	0.04762
4499.60044	0.04769
4497.67176	0.04778
4495.74309	0.04788
4493.81441	0.04798
4491.88573	0.04805
4489.95706	0.04810
4488.02838	0.04816
4486.09971	0.04823
4484.17103	0.04831
4482.24236	0.04839
4480.31368	0.04849
4478.38500	0.04859
4476.45633	0.04866
4474.52765	0.04874
4472.59898	0.04884
4470.67030	0.04894
4468.74163	0.04901
4466.81295	0.04909
4464.88427	0.04917
4462.95560	0.04924
4461.02692	0.04932
4459.09825	0.04941
4457.16957	0.04951
4455.24090	0.04962
4453.31222	0.04970
4451.38354	0.04976
4449.45487	0.04983
4447.52619	0.04991
4445.59752	0.04999
4443.66884	0.05007
4441.74017	0.05016
4439.81149	0.05026
4437.88281	0.05033
4435.95414	0.05041
4434.02546	0.05049
4432.09679	0.05059
4430.16811	0.05068
4428.23944	0.05077
4426.31076	0.05088
4424.38208	0.05099
4422.45341	0.05108
4420.52473	0.05115
4418.59606	0.05124
4416.66738	0.05134
4414.73871	0.05142
4412.81003	0.05148
4410.88135	0.05153
4408.95268	0.05161
4407.02400	0.05172
4405.09533	0.05183
4403.16665	0.05193
4401.23798	0.05203
4399.30930	0.05214
4397.38062	0.05223
4395.45195	0.05229
4393.52327	0.05235
4391.59460	0.05246
4389.66592	0.05258
4387.73725	0.05267
4385.80857	0.05277
4383.87989	0.05286
4381.95122	0.05293
4380.02254	0.05300
4378.09387	0.05311
4376.16519	0.05323
4374.23652	0.05332
4372.30784	0.05340
4370.37916	0.05348
4368.45049	0.05355
4366.52181	0.05363
4364.59314	0.05371
4362.66446	0.05381
4360.73579	0.05393
4358.80711	0.05404
4356.87843	0.05414
4354.94976	0.05425
4353.02108	0.05436
4351.09241	0.05446
4349.16373	0.05452
4347.23506	0.05459
4345.30638	0.05469
4343.37770	0.05479
4341.44903	0.05489
4339.52035	0.05500
4337.59168	0.05511
4335.66300	0.05519
4333.73433	0.05527
4331.80565	0.05535
4329.87697	0.05546
4327.94830	0.05556
4326.01962	0.05564
4324.09095	0.05574
4322.16227	0.05585
4320.23360	0.05596
4318.30492	0.05606
4316.37624	0.05617
4314.44757	0.05628
4312.51889	0.05640
4310.59022	0.05650
4308.66154	0.05658
4306.73287	0.05667
4304.80419	0.05677
4302.87551	0.05690
4300.94684	0.05702
4299.01816	0.05713
4297.08949	0.05720
4295.16081	0.05728
4293.23214	0.05738
4291.30346	0.05750
4289.37478	0.05763
4287.44611	0.05776
4285.51743	0.05789
4283.58876	0.05799
4281.66008	0.05809
4279.73141	0.05820
4277.80273	0.05831
4275.87405	0.05841
4273.94538	0.05850
4272.01670	0.05860
4270.08803	0.05869
4268.15935	0.05878
4266.23068	0.05888
4264.30200	0.05901
4262.37332	0.05911
4260.44465	0.05918
4258.51597	0.05928
4256.58730	0.05941
4254.65862	0.05952
4252.72995	0.05961
4250.80127	0.05971
4248.87259	0.05984
4246.94392	0.05995
4245.01524	0.06006
4243.08657	0.06016
4241.15789	0.06028
4239.22922	0.06040
4237.30054	0.06052
4235.37186	0.06065
4233.44319	0.06078
4231.51451	0.06087
4229.58584	0.06093
4227.65716	0.06102
4225.72849	0.06115
4223.79981	0.06126
4221.87113	0.06135
4219.94246	0.06144
4218.01378	0.06158
4216.08511	0.06172
4214.15643	0.06184
4212.22776	0.06194
4210.29908	0.06204
4208.37040	0.06215
4206.44173	0.06228
4204.51305	0.06241
4202.58438	0.06254
4200.65570	0.06264
4198.72703	0.06273
4196.79835	0.06286
4194.86968	0.06300
4192.94100	0.06314
4191.01232	0.06326
4189.08365	0.06336
4187.15497	0.06347
4185.22630	0.06358
4183.29762	0.06370
4181.36895	0.06381
4179.44027	0.06391
4177.51159	0.06400
4175.58292	0.06411
4173.65424	0.06425
4171.72557	0.06438
4169.79689	0.06448
4167.86822	0.06460
4165.93954	0.06474
4164.01086	0.06488
4162.08219	0.06500
4160.15351	0.06512
4158.22484	0.06526
4156.29616	0.06538
4154.36749	0.06549
4152.43881	0.06559
4150.51013	0.06573
4148.58146	0.06588
4146.65278	0.06603
4144.72411	0.06613
4142.79543	0.06622
4140.86676	0.06633
4138.93808	0.06646
4137.00940	0.06660
4135.08073	0.06672
4133.15205	0.06682
4131.22338	0.06693
4129.29470	0.06705
4127.36603	0.06720
4125.43735	0.06735
4123.50867	0.06748
4121.58000	0.06760
4119.65132	0.06771
4117.72265	0.06783
4115.79397	0.06794
4113.86530	0.06808
4111.93662	0.06822
4110.00794	0.06835
4108.07927	0.06847
4106.15059	0.06857
4104.22192	0.06870
4102.29324	0.06883
4100.36457	0.06895
4098.43589	0.06907
4096.50721	0.06920
4094.57854	0.06931
4092.64986	0.06945
4090.72119	0.06959
4088.79251	0.06972
4086.86384	0.06984
4084.93516	0.06998
4083.00648	0.07012
4081.07781	0.07027
4079.14913	0.07041
4077.22046	0.07054
4075.29178	0.07068
4073.36311	0.07083
4071.43443	0.07098
4069.50575	0.07109
4067.57708	0.07120
4065.64840	0.07133
4063.71973	0.07148
4061.79105	0.07163
4059.86238	0.07177
4057.93370	0.07190
4056.00502	0.07201
4054.07635	0.07213
4052.14767	0.07227
4050.21900	0.07241
4048.29032	0.07255
4046.36165	0.07271
4044.43297	0.07285
4042.50429	0.07299
4040.57562	0.07313
4038.64694	0.07326
4036.71827	0.07340
4034.78959	0.07354
4032.86092	0.07366
4030.93224	0.07374
4029.00356	0.07384
4027.07489	0.07399
4025.14621	0.07415
4023.21754	0.07431
4021.28886	0.07447
4019.36019	0.07464
4017.43151	0.07479
4015.50283	0.07491
4013.57416	0.07502
4011.64548	0.07515
4009.71681	0.07529
4007.78813	0.07542
4005.85946	0.07556
4003.93078	0.07574
4002.00210	0.07591
4000.07343	0.07605
3998.14475	0.07615
3996.21608	0.07626
3994.28740	0.07642
3992.35873	0.07658
3990.43005	0.07672
3988.50137	0.07686
3986.57270	0.07699
3984.64402	0.07715
3982.71535	0.07732
3980.78667	0.07747
3978.85800	0.07761
3976.92932	0.07775
3975.00064	0.07790
3973.07197	0.07806
3971.14329	0.07820
3969.21462	0.07833
3967.28594	0.07848
3965.35727	0.07863
3963.42859	0.07876
3961.49991	0.07888
3959.57124	0.07903
3957.64256	0.07921
3955.71389	0.07939
3953.78521	0.07953
3951.85654	0.07964
3949.92786	0.07973
3947.99918	0.07985
3946.07051	0.08000
3944.14183	0.08015
3942.21316	0.08032
3940.28448	0.08051
3938.35581	0.08068
3936.42713	0.08082
3934.49845	0.08095
3932.56978	0.08107
3930.64110	0.08121
3928.71243	0.08138
3926.78375	0.08152
3924.85508	0.08166
3922.92640	0.08183
3920.99772	0.08197
3919.06905	0.08205
3917.14037	0.08218
3915.21170	0.08241
3913.28302	0.08264
3911.35435	0.08283
3909.42567	0.08296
3907.49699	0.08297
3905.56832	0.08291
3903.63964	0.08293
3901.71097	0.08309
3899.78229	0.08335
3897.85362	0.08368
3895.92494	0.08395
3893.99626	0.08407
3892.06759	0.08416
3890.13891	0.08431
3888.21024	0.08441
3886.28156	0.08447
3884.35289	0.08465
3882.42421	0.08487
3880.49553	0.08504
3878.56686	0.08527
3876.63818	0.08548
3874.70951	0.08558
3872.78083	0.08562
3870.85216	0.08566
3868.92348	0.08583
3866.99480	0.08607
3865.06613	0.08625
3863.13745	0.08646
3861.20878	0.08673
3859.28010	0.08692
3857.35143	0.08681
3855.42275	0.08647
3853.49407	0.08645
3851.56540	0.08699
3849.63672	0.08765
3847.70805	0.08801
3845.77937	0.08812
3843.85070	0.08815
3841.92202	0.08821
3839.99334	0.08827
3838.06467	0.08837
3836.13599	0.08861
3834.20732	0.08886
3832.27864	0.08908
3830.34997	0.08933
3828.42129	0.08954
3826.49261	0.08969
3824.56394	0.08976
3822.63526	0.08976
3820.70659	0.08986
3818.77791	0.09010
3816.84924	0.09031
3814.92056	0.09060
3812.99188	0.09098
3811.06321	0.09121
3809.13453	0.09124
3807.20586	0.09128
3805.27718	0.09142
3803.34851	0.09149
3801.41983	0.09157
3799.49115	0.09183
3797.56248	0.09212
3795.63380	0.09238
3793.70513	0.09265
3791.77645	0.09289
3789.84778	0.09307
3787.91910	0.09321
3785.99042	0.09333
3784.06175	0.09348
3782.13307	0.09361
3780.20440	0.09373
3778.27572	0.09393
3776.34705	0.09419
3774.41837	0.09439
3772.48969	0.09448
3770.56102	0.09455
3768.63234	0.09470
3766.70367	0.09492
3764.77499	0.09515
3762.84632	0.09535
3760.91764	0.09543
3758.98896	0.09552
3757.06029	0.09569
3755.13161	0.09579
3753.20294	0.09569
3751.27426	0.09563
3749.34559	0.09580
3747.41691	0.09594
3745.48823	0.09590
3743.55956	0.09616
3741.63088	0.09676
3739.70221	0.09708
3737.77353	0.09702
3735.84486	0.09701
3733.91618	0.09726
3731.98750	0.09767
3730.05883	0.09804
3728.13015	0.09823
3726.20148	0.09834
3724.27280	0.09853
3722.34413	0.09880
3720.41545	0.09909
3718.48677	0.09934
3716.55810	0.09949
3714.62942	0.09950
3712.70075	0.09945
3710.77207	0.09960
3708.84340	0.09996
3706.91472	0.10033
3704.98604	0.10051
3703.05737	0.10058
3701.12869	0.10078
3699.20002	0.10109
3697.27134	0.10131
3695.34267	0.10140
3693.41399	0.10140
3691.48531	0.10137
3689.55664	0.10145
3687.62796	0.10177
3685.69929	0.10220
3683.77061	0.10249
3681.84194	0.10263
3679.91326	0.10267
3677.98458	0.10256
3676.05591	0.10250
3674.12723	0.10272
3672.19856	0.10299
3670.26988	0.10316
3668.34121	0.10349
3666.41253	0.10393
3664.48385	0.10423
3662.55518	0.10442
3660.62650	0.10454
3658.69783	0.10457
3656.76915	0.10461
3654.84048	0.10472
3652.91180	0.10467
3650.98312	0.10438
3649.05445	0.10422
3647.12577	0.10449
3645.19710	0.10504
3643.26842	0.10554
3641.33975	0.10587
3639.41107	0.10611
3637.48239	0.10628
3635.55372	0.10640
3633.62504	0.10644
3631.69637	0.10631
3629.76769	0.10617
3627.83902	0.10639
3625.91034	0.10690
3623.98166	0.10724
3622.05299	0.10725
3620.12431	0.10718
3618.19564	0.10730
3616.26696	0.10753
3614.33829	0.10767
3612.40961	0.10773
3610.48093	0.10779
3608.55226	0.10794
3606.62358	0.10824
3604.69491	0.10855
3602.76623	0.10871
3600.83756	0.10880
3598.90888	0.10890
3596.98020	0.10900
3595.05153	0.10911
3593.12285	0.10928
3591.19418	0.10938
3589.26550	0.10934
3587.33683	0.10940
3585.40815	0.10972
3583.47947	0.11006
3581.55080	0.11027
3579.62212	0.11040
3577.69345	0.11053
3575.76477	0.11068
3573.83610	0.11083
3571.90742	0.11094
3569.97874	0.11094
3568.05007	0.11093
3566.12139	0.11110
3564.19272	0.11141
3562.26404	0.11167
3560.33537	0.11186
3558.40669	0.11202
3556.47801	0.11218
3554.54934	0.11230
3552.62066	0.11240
3550.69199	0.11251
3548.76331	0.11259
3546.83464	0.11265
3544.90596	0.11279
3542.97728	0.11299
3541.04861	0.11316
3539.11993	0.11327
3537.19126	0.11337
3535.26258	0.11347
3533.33391	0.11357
3531.40523	0.11364
3529.47655	0.11369
3527.54788	0.11376
3525.61920	0.11385
3523.69053	0.11395
3521.76185	0.11405
3519.83318	0.11415
3517.90450	0.11427
3515.97582	0.11439
3514.04715	0.11445
3512.11847	0.11445
3510.18980	0.11446
3508.26112	0.11452
3506.33245	0.11460
3504.40377	0.11466
3502.47509	0.11471
3500.54642	0.11479
3498.61774	0.11486
3496.68907	0.11490
3494.76039	0.11496
3492.83172	0.11504
3490.90304	0.11508
3488.97436	0.11509
3487.04569	0.11511
3485.11701	0.11517
3483.18834	0.11526
3481.25966	0.11535
3479.33099	0.11548
3477.40231	0.11562
3475.47363	0.11576
3473.54496	0.11590
3471.61628	0.11604
3469.68761	0.11618
3467.75893	0.11636
3465.83026	0.11657
3463.90158	0.11681
3461.97290	0.11704
3460.04423	0.11725
3458.11555	0.11744
3456.18688	0.11762
3454.25820	0.11779
3452.32953	0.11794
3450.40085	0.11806
3448.47217	0.11818
3446.54350	0.11835
3444.61482	0.11859
3442.68615	0.11884
3440.75747	0.11907
3438.82880	0.11933
3436.90012	0.11965
3434.97144	0.12000
3433.04277	0.12035
3431.11409	0.12073
3429.18542	0.12114
3427.25674	0.12152
3425.32807	0.12187
3423.39939	0.12222
3421.47071	0.12256
3419.54204	0.12289
3417.61336	0.12324
3415.68469	0.12358
3413.75601	0.12387
3411.82734	0.12414
3409.89866	0.12439
3407.96998	0.12462
3406.04131	0.12487
3404.11263	0.12513
3402.18396	0.12538
3400.25528	0.12560
3398.32661	0.12585
3396.39793	0.12611
3394.46925	0.12638
3392.54058	0.12665
3390.61190	0.12693
3388.68323	0.12720
3386.75455	0.12745
3384.82588	0.12771
3382.89720	0.12797
3380.96852	0.12822
3379.03985	0.12843
3377.11117	0.12862
3375.18250	0.12882
3373.25382	0.12906
3371.32515	0.12930
3369.39647	0.12953
3367.46779	0.12976
3365.53912	0.13001
3363.61044	0.13026
3361.68177	0.13050
3359.75309	0.13073
3357.82442	0.13098
3355.89574	0.13123
3353.96706	0.13146
3352.03839	0.13168
3350.10971	0.13192
3348.18104	0.13216
3346.25236	0.13239
3344.32369	0.13261
3342.39501	0.13284
3340.46633	0.13304
3338.53766	0.13326
3336.60898	0.13351
3334.68031	0.13378
3332.75163	0.13402
3330.82296	0.13426
3328.89428	0.13448
3326.96560	0.13472
3325.03693	0.13497
3323.10825	0.13522
3321.17958	0.13545
3319.25090	0.13568
3317.32223	0.13592
3315.39355	0.13618
3313.46487	0.13643
3311.53620	0.13665
3309.60752	0.13687
3307.67885	0.13710
3305.75017	0.13732
3303.82150	0.13757
3301.89282	0.13783
3299.96414	0.13809
3298.03547	0.13835
3296.10679	0.13863
3294.17812	0.13888
3292.24944	0.13909
3290.32077	0.13930
3288.39209	0.13955
3286.46341	0.13982
3284.53474	0.14009
3282.60606	0.14035
3280.67739	0.14059
3278.74871	0.14080
3276.82004	0.14105
3274.89136	0.14132
3272.96268	0.14160
3271.03401	0.14186
3269.10533	0.14211
3267.17666	0.14236
3265.24798	0.14261
3263.31931	0.14287
3261.39063	0.14315
3259.46195	0.14343
3257.53328	0.14369
3255.60460	0.14393
3253.67593	0.14417
3251.74725	0.14444
3249.81858	0.14472
3247.88990	0.14496
3245.96122	0.14520
3244.03255	0.14546
3242.10387	0.14573
3240.17520	0.14601
3238.24652	0.14630
3236.31785	0.14657
3234.38917	0.14680
3232.46049	0.14702
3230.53182	0.14726
3228.60314	0.14752
3226.67447	0.14776
3224.74579	0.14801
3222.81712	0.14827
3220.88844	0.14853
3218.95976	0.14878
3217.03109	0.14901
3215.10241	0.14924
3213.17374	0.14947
3211.24506	0.14971
3209.31639	0.14997
3207.38771	0.15023
3205.45903	0.15050
3203.53036	0.15077
3201.60168	0.15106
3199.67301	0.15134
3197.74433	0.15165
3195.81566	0.15196
3193.88698	0.15224
3191.95830	0.15250
3190.02963	0.15279
3188.10095	0.15308
3186.17228	0.15333
3184.24360	0.15357
3182.31493	0.15384
3180.38625	0.15411
3178.45757	0.15436
3176.52890	0.15463
3174.60022	0.15490
3172.67155	0.15518
3170.74287	0.15547
3168.81420	0.15574
3166.88552	0.15598
3164.95684	0.15622
3163.02817	0.15650
3161.09949	0.15680
3159.17082	0.15710
3157.24214	0.15737
3155.31347	0.15763
3153.38479	0.15787
3151.45611	0.15812
3149.52744	0.15838
3147.59876	0.15863
3145.67009	0.15886
3143.74141	0.15910
3141.81274	0.15940
3139.88406	0.15971
3137.95538	0.15999
3136.02671	0.16028
3134.09803	0.16055
3132.16936	0.16078
3130.24068	0.16101
3128.31201	0.16126
3126.38333	0.16151
3124.45465	0.16177
3122.52598	0.16204
3120.59730	0.16232
3118.66863	0.16260
3116.73995	0.16287
3114.81128	0.16314
3112.88260	0.16342
3110.95392	0.16370
3109.02525	0.16396
3107.09657	0.16421
3105.16790	0.16449
3103.23922	0.16475
3101.31055	0.16499
3099.38187	0.16524
3097.45319	0.16548
3095.52452	0.16573
3093.59584	0.16600
3091.66717	0.16628
3089.73849	0.16655
3087.80982	0.16682
3085.88114	0.16711
3083.95246	0.16737
3082.02379	0.16760
3080.09511	0.16785
3078.16644	0.16812
3076.23776	0.16840
3074.30909	0.16868
3072.38041	0.16895
3070.45173	0.16921
3068.52306	0.16945
3066.59438	0.16971
3064.66571	0.17000
3062.73703	0.17029
3060.80836	0.17058
3058.87968	0.17085
3056.95100	0.17110
3055.02233	0.17137
3053.09365	0.17161
3051.16498	0.17183
3049.23630	0.17206
3047.30763	0.17233
3045.37895	0.17263
3043.45027	0.17294
3041.52160	0.17321
3039.59292	0.17345
3037.66425	0.17368
3035.73557	0.17391
3033.80690	0.17416
3031.87822	0.17444
3029.94954	0.17474
3028.02087	0.17503
3026.09219	0.17530
3024.16352	0.17555
3022.23484	0.17579
3020.30617	0.17601
3018.37749	0.17622
3016.44881	0.17647
3014.52014	0.17678
3012.59146	0.17710
3010.66279	0.17739
3008.73411	0.17764
3006.80544	0.17786
3004.87676	0.17809
3002.94808	0.17834
3001.01941	0.17861
2999.09073	0.17889
2997.16206	0.17914
2995.23338	0.17937
2993.30471	0.17961
2991.37603	0.17987
2989.44735	0.18012
2987.51868	0.18034
2985.59000	0.18053
2983.66133	0.18071
2981.73265	0.18087
2979.80398	0.18097
2977.87530	0.18103
2975.94662	0.18107
2974.01795	0.18108
2972.08927	0.18105
2970.16060	0.18102
2968.23192	0.18101
2966.30325	0.18104
2964.37457	0.18115
2962.44589	0.18132
2960.51722	0.18153
2958.58854	0.18179
2956.65987	0.18210
2954.73119	0.18247
2952.80252	0.18287
2950.87384	0.18323
2948.94516	0.18353
2947.01649	0.18378
2945.08781	0.18396
2943.15914	0.18407
2941.23046	0.18411
2939.30179	0.18410
2937.37311	0.18408
2935.44443	0.18405
2933.51576	0.18400
2931.58708	0.18395
2929.65841	0.18390
2927.72973	0.18388
2925.80106	0.18388
2923.87238	0.18390
2921.94370	0.18395
2920.01503	0.18406
2918.08635	0.18435
2916.15768	0.18491
2914.22900	0.18577
2912.30033	0.18672
2910.37165	0.18754
2908.44297	0.18818
2906.51430	0.18869
2904.58562	0.18912
2902.65695	0.18953
2900.72827	0.18996
2898.79960	0.19040
2896.87092	0.19080
2894.94224	0.19117
2893.01357	0.19155
2891.08489	0.19193
2889.15622	0.19230
2887.22754	0.19264
2885.29887	0.19296
2883.37019	0.19326
2881.44151	0.19352
2879.51284	0.19376
2877.58416	0.19398
2875.65549	0.19421
2873.72681	0.19445
2871.79814	0.19472
2869.86946	0.19500
2867.94078	0.19525
2866.01211	0.19544
2864.08343	0.19560
2862.15476	0.19575
2860.22608	0.19586
2858.29741	0.19593
2856.36873	0.19593
2854.44005	0.19584
2852.51138	0.19576
2850.58270	0.19591
2848.65403	0.19647
2846.72535	0.19734
2844.79668	0.19825
2842.86800	0.19904
2840.93932	0.19969
2839.01065	0.20019
2837.08197	0.20061
2835.15330	0.20099
2833.22462	0.20139
2831.29595	0.20178
2829.36727	0.20214
2827.43859	0.20248
2825.50992	0.20280
2823.58124	0.20310
2821.65257	0.20341
2819.72389	0.20373
2817.79522	0.20406
2815.86654	0.20441
2813.93786	0.20474
2812.00919	0.20501
2810.08051	0.20526
2808.15184	0.20552
2806.22316	0.20579
2804.29449	0.20610
2802.36581	0.20641
2800.43713	0.20669
2798.50846	0.20700
2796.57978	0.20732
2794.65111	0.20761
2792.72243	0.20789
2790.79376	0.20817
2788.86508	0.20846
2786.93640	0.20874
2785.00773	0.20902
2783.07905	0.20932
2781.15038	0.20961
2779.22170	0.20990
2777.29303	0.21019
2775.36435	0.21050
2773.43567	0.21079
2771.50700	0.21105
2769.57832	0.21130
2767.64965	0.21156
2765.72097	0.21187
2763.79230	0.21218
2761.86362	0.21247
2759.93494	0.21273
2758.00627	0.21298
2756.07759	0.21326
2754.14892	0.21356
2752.22024	0.21385
2750.29157	0.21413
2748.36289	0.21440
2746.43421	0.21468
2744.50554	0.21495
2742.57686	0.21520
2740.64819	0.21545
2738.71951	0.21573
2736.79084	0.21599
2734.86216	0.21624
2732.93348	0.21654
2731.00481	0.21686
2729.07613	0.21714
2727.14746	0.21739
2725.21878	0.21766
2723.29011	0.21793
2721.36143	0.21821
2719.43275	0.21848
2717.50408	0.21877
2715.57540	0.21906
2713.64673	0.21934
2711.71805	0.21961
2709.78938	0.21988
2707.86070	0.22016
2705.93202	0.22046
2704.00335	0.22076
2702.07467	0.22101
2700.14600	0.22123
2698.21732	0.22147
2696.28865	0.22173
2694.35997	0.22200
2692.43129	0.22227
2690.50262	0.22254
2688.57394	0.22284
2686.64527	0.22317
2684.71659	0.22348
2682.78792	0.22371
2680.85924	0.22391
2678.93056	0.22417
2677.00189	0.22446
2675.07321	0.22475
2673.14454	0.22503
2671.21586	0.22531
2669.28719	0.22558
2667.35851	0.22586
2665.42983	0.22613
2663.50116	0.22640
2661.57248	0.22668
2659.64381	0.22699
2657.71513	0.22730
2655.78646	0.22759
2653.85778	0.22784
2651.92910	0.22809
2650.00043	0.22836
2648.07175	0.22865
2646.14308	0.22893
2644.21440	0.22923
2642.28573	0.22953
2640.35705	0.22983
2638.42837	0.23013
2636.49970	0.23045
2634.57102	0.23075
2632.64235	0.23104
2630.71367	0.23134
2628.78500	0.23162
2626.85632	0.23190
2624.92764	0.23218
2622.99897	0.23248
2621.07029	0.23282
2619.14162	0.23315
2617.21294	0.23345
2615.28427	0.23373
2613.35559	0.23405
2611.42691	0.23438
2609.49824	0.23469
2607.56956	0.23495
2605.64089	0.23521
2603.71221	0.23550
2601.78354	0.23581
2599.85486	0.23608
2597.92618	0.23634
2595.99751	0.23661
2594.06883	0.23690
2592.14016	0.23723
2590.21148	0.23756
2588.28281	0.23789
2586.35413	0.23818
2584.42545	0.23841
2582.49678	0.23864
2580.56810	0.23893
2578.63943	0.23924
2576.71075	0.23954
2574.78208	0.23982
2572.85340	0.24010
2570.92472	0.24038
2568.99605	0.24066
2567.06737	0.24095
2565.13870	0.24124
2563.21002	0.24152
2561.28135	0.24181
2559.35267	0.24209
2557.42399	0.24236
2555.49532	0.24261
2553.56664	0.24286
2551.63797	0.24311
2549.70929	0.24340
2547.78062	0.24371
2545.85194	0.24405
2543.92326	0.24440
2541.99459	0.24474
2540.06591	0.24503
2538.13724	0.24528
2536.20856	0.24553
2534.27989	0.24578
2532.35121	0.24604
2530.42253	0.24632
2528.49386	0.24661
2526.56518	0.24691
2524.63651	0.24720
2522.70783	0.24748
2520.77916	0.24777
2518.85048	0.24804
2516.92181	0.24834
2514.99313	0.24868
2513.06445	0.24900
2511.13578	0.24930
2509.20710	0.24962
2507.27843	0.24997
2505.34975	0.25032
2503.42108	0.25063
2501.49240	0.25095
2499.56372	0.25128
2497.63505	0.25158
2495.70637	0.25191
2493.77770	0.25225
2491.84902	0.25256
2489.92035	0.25285
2487.99167	0.25315
2486.06299	0.25345
2484.13432	0.25375
2482.20564	0.25407
2480.27697	0.25440
2478.34829	0.25471
2476.41962	0.25500
2474.49094	0.25530
2472.56226	0.25561
2470.63359	0.25591
2468.70491	0.25619
2466.77624	0.25650
2464.84756	0.25683
2462.91889	0.25713
2460.99021	0.25741
2459.06153	0.25772
2457.13286	0.25804
2455.20418	0.25836
2453.27551	0.25866
2451.34683	0.25895
2449.41816	0.25925
2447.48948	0.25955
2445.56080	0.25984
2443.63213	0.26016
2441.70345	0.26048
2439.77478	0.26078
2437.84610	0.26111
2435.91743	0.26144
2433.98875	0.26174
2432.06007	0.26204
2430.13140	0.26235
2428.20272	0.26267
2426.27405	0.26296
2424.34537	0.26324
2422.41670	0.26354
2420.48802	0.26384
2418.55934	0.26413
2416.63067	0.26442
2414.70199	0.26474
2412.77332	0.26506
2410.84464	0.26536
2408.91597	0.26566
2406.98729	0.26597
2405.05861	0.26626
2403.12994	0.26655
2401.20126	0.26685
2399.27259	0.26717
2397.34391	0.26749
2395.41524	0.26780
2393.48656	0.26811
2391.55788	0.26840
2389.62921	0.26866
2387.70053	0.26889
2385.77186	0.26914
2383.84318	0.26940
2381.91451	0.26963
2379.98583	0.26984
2378.05715	0.27001
2376.12848	0.27012
2374.19980	0.27018
2372.27113	0.27023
2370.34245	0.27025
2368.41378	0.27026
2366.48510	0.27037
2364.55642	0.27057
2362.62775	0.27084
2360.69907	0.27115
2358.77040	0.27152
2356.84172	0.27195
2354.91305	0.27244
2352.98437	0.27302
2351.05569	0.27362
2349.12702	0.27407
2347.19834	0.27426
2345.26967	0.27432
2343.34099	0.27442
2341.41232	0.27460
2339.48364	0.27484
2337.55496	0.27511
2335.62629	0.27538
2333.69761	0.27569
2331.76894	0.27606
2329.84026	0.27644
2327.91159	0.27680
2325.98291	0.27717
2324.05423	0.27757
2322.12556	0.27798
2320.19688	0.27842
2318.26821	0.27887
2316.33953	0.27929
2314.41086	0.27965
2312.48218	0.28002
2310.55350	0.28041
2308.62483	0.28082
2306.69615	0.28122
2304.76748	0.28161
2302.83880	0.28196
2300.91013	0.28227
2298.98145	0.28258
2297.05277	0.28290
2295.12410	0.28321
2293.19542	0.28352
2291.26675	0.28385
2289.33807	0.28419
2287.40940	0.28451
2285.48072	0.28480
2283.55204	0.28510
2281.62337	0.28540
2279.69469	0.28569
2277.76602	0.28598
2275.83734	0.28629
2273.90867	0.28658
2271.97999	0.28686
2270.05131	0.28719
2268.12264	0.28754
2266.19396	0.28787
2264.26529	0.28814
2262.33661	0.28840
2260.40794	0.28867
2258.47926	0.28896
2256.55058	0.28928
2254.62191	0.28963
2252.69323	0.28995
2250.76456	0.29024
2248.83588	0.29053
2246.90721	0.29082
2244.97853	0.29109
2243.04985	0.29134
2241.12118	0.29163
2239.19250	0.29197
2237.26383	0.29230
2235.33515	0.29259
2233.40648	0.29286
2231.47780	0.29313
2229.54912	0.29344
2227.62045	0.29379
2225.69177	0.29412
2223.76310	0.29439
2221.83442	0.29465
2219.90575	0.29496
2217.97707	0.29529
2216.04839	0.29560
2214.11972	0.29588
2212.19104	0.29617
2210.26237	0.29646
2208.33369	0.29675
2206.40502	0.29705
2204.47634	0.29737
2202.54766	0.29769
2200.61899	0.29798
2198.69031	0.29825
2196.76164	0.29854
2194.83296	0.29882
2192.90429	0.29906
2190.97561	0.29932
2189.04693	0.29966
2187.11826	0.30002
2185.18958	0.30034
2183.26091	0.30062
2181.33223	0.30088
2179.40356	0.30116
2177.47488	0.30145
2175.54620	0.30172
2173.61753	0.30202
2171.68885	0.30235
2169.76018	0.30270
2167.83150	0.30307
2165.90283	0.30341
2163.97415	0.30368
2162.04547	0.30393
2160.11680	0.30422
2158.18812	0.30455
2156.25945	0.30490
2154.33077	0.30521
2152.40210	0.30550
2150.47342	0.30582
2148.54474	0.30614
2146.61607	0.30643
2144.68739	0.30673
2142.75872	0.30705
2140.83004	0.30737
2138.90137	0.30767
2136.97269	0.30796
2135.04401	0.30826
2133.11534	0.30859
2131.18666	0.30889
2129.25799	0.30916
2127.32931	0.30943
2125.40064	0.30973
2123.47196	0.31005
2121.54328	0.31038
2119.61461	0.31071
2117.68593	0.31104
2115.75726	0.31136
2113.82858	0.31165
2111.89991	0.31190
2109.97123	0.31214
2108.04255	0.31242
2106.11388	0.31275
2104.18520	0.31313
2102.25653	0.31347
2100.32785	0.31375
2098.39918	0.31404
2096.47050	0.31437
2094.54182	0.31467
2092.61315	0.31495
2090.68447	0.31524
2088.75580	0.31557
2086.82712	0.31592
2084.89845	0.31626
2082.96977	0.31656
2081.04109	0.31687
2079.11242	0.31716
2077.18374	0.31744
2075.25507	0.31773
2073.32639	0.31804
2071.39772	0.31837
2069.46904	0.31867
2067.54036	0.31893
2065.61169	0.31917
2063.68301	0.31948
2061.75434	0.31983
2059.82566	0.32015
2057.89699	0.32042
2055.96831	0.32069
2054.03963	0.32103
2052.11096	0.32139
2050.18228	0.32169
2048.25361	0.32196
2046.32493	0.32225
2044.39626	0.32257
2042.46758	0.32288
2040.53890	0.32320
2038.61023	0.32353
2036.68155	0.32383
2034.75288	0.32408
2032.82420	0.32438
2030.89553	0.32476
2028.96685	0.32514
2027.03817	0.32550
2025.10950	0.32583
2023.18082	0.32608
2021.25215	0.32633
2019.32347	0.32662
2017.39480	0.32693
2015.46612	0.32727
2013.53744	0.32762
2011.60877	0.32795
2009.68009	0.32827
2007.75142	0.32858
2005.82274	0.32887
2003.89407	0.32916
2001.96539	0.32945
2000.03671	0.32971
1998.10804	0.32996
1996.17936	0.33024
1994.25069	0.33048
1992.32201	0.33069
1990.39334	0.33098
1988.46466	0.33136
1986.53598	0.33172
1984.60731	0.33204
1982.67863	0.33233
1980.74996	0.33258
1978.82128	0.33280
1976.89261	0.33304
1974.96393	0.33330
1973.03525	0.33358
1971.10658	0.33382
1969.17790	0.33402
1967.24923	0.33425
1965.32055	0.33455
1963.39188	0.33489
1961.46320	0.33521
1959.53452	0.33547
1957.60585	0.33570
1955.67717	0.33597
1953.74850	0.33631
1951.81982	0.33669
1949.89115	0.33704
1947.96247	0.33731
1946.03379	0.33750
1944.10512	0.33764
1942.17644	0.33789
1940.24777	0.33830
1938.31909	0.33869
1936.39042	0.33899
1934.46174	0.33931
1932.53306	0.33963
1930.60439	0.33990
1928.67571	0.34017
1926.74704	0.34047
1924.81836	0.34073
1922.88969	0.34095
1920.96101	0.34116
1919.03233	0.34135
1917.10366	0.34174
1915.17498	0.34233
1913.24631	0.34276
1911.31763	0.34297
1909.38896	0.34318
1907.46028	0.34350
1905.53160	0.34386
1903.60293	0.34419
1901.67425	0.34448
1899.74558	0.34472
1897.81690	0.34494
1895.88823	0.34521
1893.95955	0.34549
1892.03087	0.34567
1890.10220	0.34577
1888.17352	0.34606
1886.24485	0.34651
1884.31617	0.34693
1882.38750	0.34732
1880.45882	0.34767
1878.53014	0.34796
1876.60147	0.34821
1874.67279	0.34846
1872.74412	0.34862
1870.81544	0.34856
1868.88677	0.34860
1866.95809	0.34909
1865.02941	0.34976
1863.10074	0.35025
1861.17206	0.35056
1859.24339	0.35088
1857.31471	0.35123
1855.38604	0.35158
1853.45736	0.35189
1851.52868	0.35214
1849.60001	0.35234
1847.67133	0.35237
1845.74266	0.35222
1843.81398	0.35238
1841.88531	0.35309
1839.95663	0.35381
1838.02795	0.35422
1836.09928	0.35451
1834.17060	0.35476
1832.24193	0.35481
1830.31325	0.35483
1828.38458	0.35514
1826.45590	0.35557
1824.52722	0.35600
1822.59855	0.35648
1820.66987	0.35688
1818.74120	0.35718
1816.81252	0.35749
1814.88385	0.35775
1812.95517	0.35789
1811.02649	0.35803
1809.09782	0.35831
1807.16914	0.35866
1805.24047	0.35886
1803.31179	0.35886
1801.38312	0.35890
1799.45444	0.35922
1797.52576	0.35966
1795.59709	0.35982
1793.66841	0.35964
1791.73974	0.35975
1789.81106	0.36039
1787.88239	0.36094
1785.95371	0.36110
1784.02503	0.36125
1782.09636	0.36154
1780.16768	0.36185
1778.23901	0.36215
1776.31033	0.36225
1774.38166	0.36201
1772.45298	0.36183
1770.52430	0.36208
1768.59563	0.36261
1766.66695	0.36319
1764.73828	0.36354
1762.80960	0.36358
1760.88093	0.36372
1758.95225	0.36394
1757.02357	0.36402
1755.09490	0.36407
1753.16622	0.36379
1751.23755	0.36330
1749.30887	0.36325
1747.38020	0.36368
1745.45152	0.36406
1743.52284	0.36414
1741.59417	0.36405
1739.66549	0.36411
1737.73682	0.36413
1735.80814	0.36365
1733.87947	0.36340
1731.95079	0.36414
1730.02211	0.36521
1728.09344	0.36601
1726.16476	0.36652
1724.23609	0.36678
1722.30741	0.36684
1720.37874	0.36646
1718.45006	0.36594
1716.52138	0.36609
1714.59271	0.36694
1712.66403	0.36780
1710.73536	0.36826
1708.80668	0.36828
1706.87801	0.36811
1704.94933	0.36797
1703.02065	0.36747
1701.09198	0.36670
1699.16330	0.36663
1697.23463	0.36713
1695.30595	0.36772
1693.37728	0.36852
1691.44860	0.36899
1689.51992	0.36893
1687.59125	0.36851
1685.66257	0.36773
1683.73390	0.36748
1681.80522	0.36823
1679.87655	0.36908
1677.94787	0.36924
1676.01919	0.36898
1674.09052	0.36898
1672.16184	0.36905
1670.23317	0.36898
1668.30449	0.36934
1666.37582	0.37002
1664.44714	0.37020
1662.51846	0.37015
1660.58979	0.37041
1658.66111	0.37061
1656.73244	0.36999
1654.80376	0.36867
1652.87509	0.36822
1650.94641	0.36916
1649.01773	0.36981
1647.08906	0.36984
1645.16038	0.37040
1643.23171	0.37130
1641.30303	0.37172
1639.37436	0.37144
1637.44568	0.37073
1635.51700	0.37052
1633.58833	0.37124
1631.65965	0.37198
1629.73098	0.37201
1627.80230	0.37172
1625.87363	0.37131
1623.94495	0.37069
1622.01627	0.37019
1620.08760	0.37005
1618.15892	0.37034
1616.23025	0.37141
1614.30157	0.37297
1612.37290	0.37413
1610.44422	0.37473
1608.51554	0.37519
1606.58687	0.37567
1604.65819	0.37611
1602.72952	0.37650
1600.80084	0.37687
1598.87217	0.37722
1596.94349	0.37750
1595.01481	0.37779
1593.08614	0.37814
1591.15746	0.37851
1589.22879	0.37882
1587.30011	0.37913
1585.37144	0.37942
1583.44276	0.37971
1581.51408	0.37995
1579.58541	0.37992
1577.65673	0.37963
1575.72806	0.37977
1573.79938	0.38042
1571.87071	0.38069
1569.94203	0.38064
1568.01335	0.38101
1566.08468	0.38158
1564.15600	0.38182
1562.22733	0.38131
1560.29865	0.38018
1558.36998	0.37989
1556.44130	0.38099
1554.51262	0.38226
1552.58395	0.38299
1550.65527	0.38339
1548.72660	0.38370
1546.79792	0.38370
1544.86925	0.38316
1542.94057	0.38242
1541.01189	0.38208
1539.08322	0.38273
1537.15454	0.38391
1535.22587	0.38448
1533.29719	0.38463
1531.36852	0.38504
1529.43984	0.38532
1527.51116	0.38521
1525.58249	0.38503
1523.65381	0.38460
1521.72514	0.38415
1519.79646	0.38438
1517.86779	0.38507
1515.93911	0.38571
1514.01043	0.38621
1512.08176	0.38634
1510.15308	0.38592
1508.22441	0.38532
1506.29573	0.38557
1504.36706	0.38684
1502.43838	0.38781
1500.50970	0.38779
1498.58103	0.38747
1496.65235	0.38757
1494.72368	0.38804
1492.79500	0.38815
1490.86633	0.38780
1488.93765	0.38772
1487.00897	0.38820
1485.08030	0.38878
1483.15162	0.38903
1481.22295	0.38901
1479.29427	0.38882
1477.36560	0.38831
1475.43692	0.38754
1473.50824	0.38694
1471.57957	0.38696
1469.65089	0.38735
1467.72222	0.38736
1465.79354	0.38710
1463.86487	0.38727
1461.93619	0.38750
1460.00751	0.38688
1458.07884	0.38586
1456.15016	0.38591
1454.22149	0.38707
1452.29281	0.38807
1450.36414	0.38839
1448.43546	0.38845
1446.50678	0.38869
1444.57811	0.38909
1442.64943	0.38939
1440.72076	0.38932
1438.79208	0.38873
1436.86341	0.38826
1434.93473	0.38866
1433.00605	0.38926
1431.07738	0.38937
1429.14870	0.38939
1427.22003	0.38946
1425.29135	0.38932
1423.36268	0.38899
1421.43400	0.38837
1419.50532	0.38774
1417.57665	0.38783
1415.64797	0.38845
1413.71930	0.38880
1411.79062	0.38884
1409.86195	0.38883
1407.93327	0.38873
1406.00459	0.38855
1404.07592	0.38850
1402.14724	0.38846
1400.21857	0.38815
1398.28989	0.38777
1396.36122	0.38756
1394.43254	0.38765
1392.50386	0.38797
1390.57519	0.38791
1388.64651	0.38723
1386.71784	0.38655
1384.78916	0.38634
1382.86049	0.38646
1380.93181	0.38666
1379.00313	0.38673
1377.07446	0.38658
1375.14578	0.38640
1373.21711	0.38640
1371.28843	0.38648
1369.35976	0.38647
1367.43108	0.38642
1365.50240	0.38623
1363.57373	0.38589
1361.64505	0.38583
1359.71638	0.38611
1357.78770	0.38631
1355.85903	0.38632
1353.93035	0.38635
1352.00167	0.38652
1350.07300	0.38672
1348.14432	0.38688
1346.21565	0.38703
1344.28697	0.38714
1342.35830	0.38707
1340.42962	0.38683
1338.50094	0.38670
1336.57227	0.38681
1334.64359	0.38693
1332.71492	0.38694
1330.78624	0.38690
1328.85757	0.38680
1326.92889	0.38662
1325.00021	0.38644
1323.07154	0.38628
1321.14286	0.38610
1319.21419	0.38592
1317.28551	0.38579
1315.35684	0.38570
1313.42816	0.38556
1311.49948	0.38534
1309.57081	0.38505
1307.64213	0.38474
1305.71346	0.38446
1303.78478	0.38414
1301.85611	0.38374
1299.92743	0.38331
1297.99875	0.38293
1296.07008	0.38261
1294.14140	0.38225
1292.21273	0.38179
1290.28405	0.38128
1288.35538	0.38078
1286.42670	0.38033
1284.49802	0.37987
1282.56935	0.37931
1280.64067	0.37866
1278.71200	0.37791
1276.78332	0.37704
1274.85465	0.37610
1272.92597	0.37502
1270.99729	0.37366
1269.06862	0.37192
1267.13994	0.36999
1265.21127	0.36825
1263.28259	0.36705
1261.35392	0.36646
1259.42524	0.36634
1257.49656	0.36653
1255.56789	0.36676
1253.63921	0.36677
1251.71054	0.36646
1249.78186	0.36595
1247.85319	0.36533
1245.92451	0.36464
1243.99583	0.36384
1242.06716	0.36293
1240.13848	0.36199
1238.20981	0.36107
1236.28113	0.36009
1234.35246	0.35900
1232.42378	0.35790
1230.49510	0.35683
1228.56643	0.35581
1226.63775	0.35481
1224.70908	0.35384
1222.78040	0.35291
1220.85173	0.35202
1218.92305	0.35111
1216.99437	0.35013
1215.06570	0.34910
1213.13702	0.34812
1211.20835	0.34720
1209.27967	0.34631
1207.35100	0.34538
1205.42232	0.34446
1203.49364	0.34360
1201.56497	0.34275
1199.63629	0.34183
1197.70762	0.34090
1195.77894	0.34001
1193.85027	0.33912
1191.92159	0.33811
1189.99291	0.33697
1188.06424	0.33581
1186.13556	0.33459
1184.20689	0.33326
1182.27821	0.33187
1180.34954	0.33046
1178.42086	0.32904
1176.49218	0.32763
1174.56351	0.32626
1172.63483	0.32486
1170.70616	0.32344
1168.77748	0.32198
1166.84881	0.32053
1164.92013	0.31906
1162.99145	0.31760
1161.06278	0.31616
1159.13410	0.31480
1157.20543	0.31352
1155.27675	0.31226
1153.34808	0.31102
1151.41940	0.30978
1149.49072	0.30854
1147.56205	0.30739
1145.63337	0.30630
1143.70470	0.30517
1141.77602	0.30398
1139.84735	0.30278
1137.91867	0.30160
1135.98999	0.30039
1134.06132	0.29914
1132.13264	0.29784
1130.20397	0.29650
1128.27529	0.29509
1126.34662	0.29361
1124.41794	0.29208
1122.48926	0.29058
1120.56059	0.28913
1118.63191	0.28764
1116.70324	0.28608
1114.77456	0.28447
1112.84589	0.28285
1110.91721	0.28120
1108.98853	0.27959
1107.05986	0.27806
1105.13118	0.27664
1103.20251	0.27528
1101.27383	0.27391
1099.34516	0.27251
1097.41648	0.27113
1095.48780	0.26982
1093.55913	0.26864
1091.63045	0.26754
1089.70178	0.26642
1087.77310	0.26529
1085.84443	0.26421
1083.91575	0.26316
1081.98707	0.26213
1080.05840	0.26116
1078.12972	0.26030
1076.20105	0.25949
1074.27237	0.25873
1072.34370	0.25812
1070.41502	0.25772
1068.48634	0.25743
1066.55767	0.25724
1064.62899	0.25717
1062.70032	0.25722
1060.77164	0.25736
1058.84297	0.25758
1056.91429	0.25787
1054.98561	0.25822
1053.05694	0.25864
1051.12826	0.25913
1049.19959	0.25968
1047.27091	0.26026
1045.34224	0.26084
1043.41356	0.26148
1041.48488	0.26221
1039.55621	0.26298
1037.62753	0.26378
1035.69886	0.26463
1033.77018	0.26548
1031.84151	0.26632
1029.91283	0.26716
1027.98415	0.26794
1026.05548	0.26869
1024.12680	0.26950
1022.19813	0.27034
1020.26945	0.27125
1018.34078	0.27229
1016.41210	0.27345
1014.48342	0.27470
1012.55475	0.27599
1010.62607	0.27738
1008.69740	0.27887
1006.76872	0.28034
1004.84005	0.28170
1002.91137	0.28290
1000.98269	0.28388
999.05402	0.28469
997.12534	0.28545
995.19667	0.28621
993.26799	0.28693
991.33932	0.28757
989.41064	0.28821
987.48196	0.28889
985.55329	0.28955
983.62461	0.29007
981.69594	0.29040
979.76726	0.29064
977.83859	0.29085
975.90991	0.29100
973.98123	0.29106
972.05256	0.29103
970.12388	0.29093
968.19521	0.29083
966.26653	0.29077
964.33786	0.29060
962.40918	0.29029
960.48050	0.28994
958.55183	0.28961
956.62315	0.28925
954.69448	0.28884
952.76580	0.28841
950.83713	0.28796
948.90845	0.28746
946.97977	0.28686
945.05110	0.28619
943.12242	0.28557
941.19375	0.28500
939.26507	0.28437
937.33640	0.28369
935.40772	0.28300
933.47904	0.28232
931.55037	0.28163
929.62169	0.28093
927.69302	0.28025
925.76434	0.27964
923.83567	0.27903
921.90699	0.27833
919.97831	0.27756
918.04964	0.27676
916.12096	0.27594
914.19229	0.27511
912.26361	0.27426
910.33494	0.27342
908.40626	0.27265
906.47758	0.27186
904.54891	0.27097
902.62023	0.27003
900.69156	0.26913
898.76288	0.26826
896.83421	0.26738
894.90553	0.26645
892.97685	0.26549
891.04818	0.26455
889.11950	0.26367
887.19083	0.26280
885.26215	0.26188
883.33348	0.26089
881.40480	0.25997
879.47612	0.25919
877.54745	0.25845
875.61877	0.25766
873.69010	0.25691
871.76142	0.25622
869.83275	0.25556
867.90407	0.25485
865.97539	0.25406
864.04672	0.25321
862.11804	0.25233
860.18937	0.25133
858.26069	0.25029
856.33202	0.24935
854.40334	0.24850
852.47466	0.24762
850.54599	0.24672
848.61731	0.24581
846.68864	0.24486
844.75996	0.24389
842.83129	0.24298
840.90261	0.24210
838.97394	0.24121
837.04526	0.24032
835.11658	0.23943
833.18791	0.23854
831.25923	0.23754
829.33056	0.23642
827.40188	0.23524
825.47321	0.23403
823.54453	0.23285
821.61585	0.23174
819.68718	0.23074
817.75850	0.22981
815.82983	0.22886
813.90115	0.22785
811.97248	0.22682
810.04380	0.22582
808.11512	0.22485
806.18645	0.22395
804.25777	0.22314
802.32910	0.22241
800.40042	0.22174
798.47175	0.22116
796.54307	0.22072
794.61439	0.22039
792.68572	0.22008
790.75704	0.21980
788.82837	0.21961
786.89969	0.21943
784.97102	0.21910
783.04234	0.21855
781.11366	0.21792
779.18499	0.21736
777.25631	0.21691
775.32764	0.21649
773.39896	0.21605
771.47029	0.21554
769.54161	0.21501
767.61293	0.21444
765.68426	0.21377
763.75558	0.21304
761.82691	0.21232
759.89823	0.21159
757.96956	0.21082
756.04088	0.20995
754.11220	0.20899
752.18353	0.20801
750.25485	0.20708
748.32618	0.20620
746.39750	0.20527
744.46883	0.20430
742.54015	0.20342
740.61147	0.20262
738.68280	0.20181
736.75412	0.20103
734.82545	0.20032
732.89677	0.19960
730.96810	0.19884
729.03942	0.19806
727.11074	0.19728
725.18207	0.19655
723.25339	0.19588
721.32472	0.19521
719.39604	0.19450
717.46737	0.19372
715.53869	0.19292
713.61001	0.19212
711.68134	0.19133
709.75266	0.19053
707.82399	0.18968
705.89531	0.18884
703.96664	0.18811
702.03796	0.18742
700.10928	0.18657
698.18061	0.18560
696.25193	0.18468
694.32326	0.18387
692.39458	0.18309
690.46591	0.18230
688.53723	0.18153
686.60855	0.18071
684.67988	0.17971
682.75120	0.17862
680.82253	0.17752
678.89385	0.17636
676.96518	0.17514
675.03650	0.17393
673.10782	0.17264
671.17915	0.17109
669.25047	0.16937
667.32180	0.16782
665.39312	0.16656
663.46445	0.16523
661.53577	0.16368
659.60709	0.16208
657.67842	0.16053
655.74974	0.15902
653.82107	0.15754
651.89239	0.15613
649.96372	0.15473
648.03504	0.15322
646.10636	0.15157
644.17769	0.14987
642.24901	0.14810
640.32034	0.14627
638.39166	0.14448
636.46299	0.14274
634.53431	0.14099
632.60563	0.13917
630.67696	0.13734
628.74828	0.13555
626.81961	0.13378
624.89093	0.13197
622.96226	0.13020
621.03358	0.12851
619.10490	0.12682
617.17623	0.12507
615.24755	0.12324
613.31888	0.12138
611.39020	0.11960
609.46153	0.11794
607.53285	0.11630
605.60417	0.11463
603.67550	0.11296
601.74682	0.11135
599.81815	0.10990
597.88947	0.10862
595.96080	0.10739
594.03212	0.10617
592.10344	0.10502
590.17477	0.10395
588.24609	0.10291
586.31742	0.10188
584.38874	0.10079
582.46007	0.09958
580.53139	0.09835
578.60271	0.09723
576.67404	0.09621
574.74536	0.09524
572.81669	0.09428
570.88801	0.09329
568.95934	0.09225
567.03066	0.09125
565.10198	0.09043
563.17331	0.08977
561.24463	0.08911
559.31596	0.08838
557.38728	0.08765
555.45861	0.08695
553.52993	0.08623
551.60125	0.08552
549.67258	0.08491
547.74390	0.08440
545.81523	0.08398
543.88655	0.08358
541.95788	0.08312
540.02920	0.08257
538.10052	0.08200
536.17185	0.08151
534.24317	0.08106
532.31450	0.08056
530.38582	0.07994
528.45715	0.07919
526.52847	0.07839
524.59979	0.07765
522.67112	0.07697
520.74244	0.07620
518.81377	0.07528
516.88509	0.07436
514.95642	0.07354
513.02774	0.07280
511.09906	0.07211
509.17039	0.07138
507.24171	0.07050
505.31304	0.06944
503.38436	0.06829
501.45569	0.06715
499.52701	0.06603
497.59833	0.06491
495.66966	0.06378
493.74098	0.06257
491.81231	0.06131
489.88363	0.06009
487.95496	0.05893
486.02628	0.05775
484.09760	0.05651
482.16893	0.05527
480.24025	0.05405
478.31158	0.05277
476.38290	0.05144
474.45423	0.05015
472.52555	0.04899
470.59687	0.04802
468.66820	0.04723
466.73952	0.04651
464.81085	0.04585
462.88217	0.04529
460.95350	0.04491
459.02482	0.04472
457.09614	0.04468
455.16747	0.04465
453.23879	0.04456
451.31012	0.04441
449.38144	0.04423
447.45277	0.04399
445.52409	0.04374
443.59541	0.04340
441.66674	0.04275
439.73806	0.04185
437.80939	0.04096
435.88071	0.04012
433.95204	0.03911
432.02336	0.03787
430.09468	0.03658
428.16601	0.03535
426.23733	0.03421
424.30866	0.03308
422.37998	0.03180
420.45131	0.03035
418.52263	0.02898
416.59395	0.02781
414.66528	0.02670
412.73660	0.02545
410.80793	0.02412
408.87925	0.02287
406.95058	0.02173
405.02190	0.02061
403.09322	0.01946
401.16455	0.01828
399.23587	0.01713
397.30720	0.01612
395.37852	0.01522
393.44985	0.01431
391.52117	0.01338
389.59249	0.01252
387.66382	0.01176
385.73514	0.01103
383.80647	0.01027
381.87779	0.00957
379.94912	0.00893
378.02044	0.00817
376.09176	0.00728
374.16309	0.00651
372.23441	0.00596
370.30574	0.00549
368.37706	0.00495
