7496.76250	0.001921
7494.83382	0.001928
7492.90514	0.001917
7490.97647	0.001908
7489.04779	0.001914
7487.11912	0.001924
7485.19044	0.001930
7483.26177	0.001935
7481.33309	0.001932
7479.40441	0.001922
7477.47574	0.001927
7475.54706	0.001945
7473.61839	0.001962
7471.68971	0.001969
7469.76104	0.001972
7467.83236	0.001980
7465.90368	0.001985
7463.97501	0.001985
7462.04633	0.001985
7460.11766	0.001977
7458.18898	0.001969
7456.26031	0.001976
7454.33163	0.001998
7452.40295	0.002012
7450.47428	0.001997
7448.54560	0.001976
7446.61693	0.001986
7444.68825	0.002010
7442.75958	0.002013
7440.83090	0.002005
7438.90222	0.002009
7436.97355	0.002022
7435.04487	0.002028
7433.11620	0.002030
7431.18752	0.002044
7429.25885	0.002068
7427.33017	0.002080
7425.40149	0.002071
7423.47282	0.002055
7421.54414	0.002045
7419.61547	0.002049
7417.68679	0.002072
7415.75812	0.002099
7413.82944	0.002108
7411.90076	0.002110
7409.97209	0.002118
7408.04341	0.002126
7406.11474	0.002126
7404.18606	0.002114
7402.25739	0.002104
7400.32871	0.002101
7398.40003	0.002092
7396.47136	0.002080
7394.54268	0.002073
7392.61401	0.002077
7390.68533	0.002105
7388.75666	0.002137
7386.82798	0.002144
7384.89930	0.002139
7382.97063	0.002138
7381.04195	0.002140
7379.11328	0.002145
7377.18460	0.002152
7375.25593	0.002159
7373.32725	0.002164
7371.39857	0.002166
7369.46990	0.002167
7367.54122	0.002173
7365.61255	0.002190
7363.68387	0.002207
7361.75520	0.002202
7359.82652	0.002178
7357.89784	0.002170
7355.96917	0.002196
7354.04049	0.002226
7352.11182	0.002229
7350.18314	0.002220
7348.25447	0.002223
7346.32579	0.002223
7344.39711	0.002215
7342.46844	0.002218
7340.53976	0.002234
7338.61109	0.002249
7336.68241	0.002263
7334.75374	0.002282
7332.82506	0.002300
7330.89638	0.002303
7328.96771	0.002289
7327.03903	0.002276
7325.11036	0.002283
7323.18168	0.002300
7321.25301	0.002312
7319.32433	0.002319
7317.39565	0.002333
7315.46698	0.002352
7313.53830	0.002350
7311.60963	0.002328
7309.68095	0.002320
7307.75228	0.002339
7305.82360	0.002362
7303.89492	0.002365
7301.96625	0.002355
7300.03757	0.002348
7298.10890	0.002343
7296.18022	0.002342
7294.25155	0.002347
7292.32287	0.002346
7290.39419	0.002344
7288.46552	0.002365
7286.53684	0.002389
7284.60817	0.002382
7282.67949	0.002363
7280.75082	0.002368
7278.82214	0.002381
7276.89346	0.002379
7274.96479	0.002383
7273.03611	0.002416
7271.10744	0.002445
7269.17876	0.002437
7267.25009	0.002425
7265.32141	0.002430
7263.39273	0.002441
7261.46406	0.002451
7259.53538	0.002457
7257.60671	0.002461
7255.67803	0.002463
7253.74936	0.002472
7251.82068	0.002492
7249.89200	0.002494
7247.96333	0.002465
7246.03465	0.002430
7244.10598	0.002428
7242.17730	0.002468
7240.24863	0.002507
7238.31995	0.002513
7236.39127	0.002514
7234.46260	0.002523
7232.53392	0.002526
7230.60525	0.002531
7228.67657	0.002543
7226.74790	0.002548
7224.81922	0.002546
7222.89054	0.002543
7220.96187	0.002547
7219.03319	0.002564
7217.10452	0.002575
7215.17584	0.002562
7213.24717	0.002546
7211.31849	0.002553
7209.38981	0.002568
7207.46114	0.002573
7205.53246	0.002576
7203.60379	0.002578
7201.67511	0.002577
7199.74644	0.002585
7197.81776	0.002606
7195.88908	0.002613
7193.96041	0.002600
7192.03173	0.002603
7190.10306	0.002629
7188.17438	0.002652
7186.24571	0.002658
7184.31703	0.002665
7182.38835	0.002679
7180.45968	0.002679
7178.53100	0.002669
7176.60233	0.002683
7174.67365	0.002717
7172.74498	0.002735
7170.81630	0.002735
7168.88762	0.002726
7166.95895	0.002709
7165.03027	0.002696
7163.10160	0.002694
7161.17292	0.002698
7159.24425	0.002697
7157.31557	0.002710
7155.38689	0.002726
7153.45822	0.002717
7151.52954	0.002706
7149.60087	0.002710
7147.67219	0.002712
7145.74352	0.002710
7143.81484	0.002719
7141.88616	0.002742
7139.95749	0.002764
7138.02881	0.002773
7136.10014	0.002777
7134.17146	0.002773
7132.24279	0.002765
7130.31411	0.002786
7128.38543	0.002822
7126.45676	0.002833
7124.52808	0.002834
7122.59941	0.002846
7120.67073	0.002836
7118.74206	0.002806
7116.81338	0.002797
7114.88470	0.002815
7112.95603	0.002840
7111.02735	0.002863
7109.09868	0.002882
7107.17000	0.002891
7105.24133	0.002872
7103.31265	0.002839
7101.38397	0.002828
7099.45530	0.002844
7097.52662	0.002860
7095.59795	0.002870
7093.66927	0.002892
7091.74060	0.002920
7089.81192	0.002937
7087.88324	0.002935
7085.95457	0.002920
7084.02589	0.002907
7082.09722	0.002918
7080.16854	0.002949
7078.23987	0.002979
7076.31119	0.002981
7074.38251	0.002954
7072.45384	0.002939
7070.52516	0.002949
7068.59649	0.002955
7066.66781	0.002964
7064.73914	0.002990
7062.81046	0.003020
7060.88178	0.003036
7058.95311	0.003039
7057.02443	0.003034
7055.09576	0.003031
7053.16708	0.003034
7051.23841	0.003036
7049.30973	0.003053
7047.38105	0.003094
7045.45238	0.003115
7043.52370	0.003083
7041.59503	0.003029
7039.66635	0.003007
7037.73768	0.003030
7035.80900	0.003057
7033.88032	0.003071
7031.95165	0.003083
7030.02297	0.003089
7028.09430	0.003097
7026.16562	0.003108
7024.23695	0.003110
7022.30827	0.003103
7020.37959	0.003100
7018.45092	0.003102
7016.52224	0.003120
7014.59357	0.003151
7012.66489	0.003166
7010.73622	0.003162
7008.80754	0.003157
7006.87886	0.003149
7004.95019	0.003142
7003.02151	0.003156
7001.09284	0.003178
6999.16416	0.003189
6997.23549	0.003184
6995.30681	0.003173
6993.37813	0.003176
6991.44946	0.003181
6989.52078	0.003176
6987.59211	0.003184
6985.66343	0.003217
6983.73476	0.003253
6981.80608	0.003266
6979.87740	0.003253
6977.94873	0.003234
6976.02005	0.003218
6974.09138	0.003212
6972.16270	0.003231
6970.23403	0.003261
6968.30535	0.003277
6966.37667	0.003292
6964.44800	0.003314
6962.51932	0.003324
6960.59065	0.003311
6958.66197	0.003282
6956.73330	0.003259
6954.80462	0.003266
6952.87594	0.003304
6950.94727	0.003356
6949.01859	0.003395
6947.08992	0.003389
6945.16124	0.003358
6943.23257	0.003341
6941.30389	0.003332
6939.37521	0.003335
6937.44654	0.003365
6935.51786	0.003403
6933.58919	0.003424
6931.66051	0.003422
6929.73184	0.003419
6927.80316	0.003428
6925.87448	0.003432
6923.94581	0.003423
6922.01713	0.003431
6920.08846	0.003468
6918.15978	0.003508
6916.23111	0.003515
6914.30243	0.003480
6912.37375	0.003447
6910.44508	0.003454
6908.51640	0.003495
6906.58773	0.003540
6904.65905	0.003575
6902.73038	0.003596
6900.80170	0.003590
6898.87302	0.003581
6896.94435	0.003590
6895.01567	0.003594
6893.08700	0.003572
6891.15832	0.003537
6889.22965	0.003529
6887.30097	0.003557
6885.37229	0.003570
6883.44362	0.003556
6881.51494	0.003557
6879.58627	0.003574
6877.65759	0.003598
6875.72892	0.003625
6873.80024	0.003640
6871.87156	0.003633
6869.94289	0.003625
6868.01421	0.003637
6866.08554	0.003638
6864.15686	0.003614
6862.22819	0.003608
6860.29951	0.003626
6858.37083	0.003651
6856.44216	0.003686
6854.51348	0.003710
6852.58481	0.003710
6850.65613	0.003711
6848.72746	0.003716
6846.79878	0.003708
6844.87010	0.003703
6842.94143	0.003721
6841.01275	0.003743
6839.08408	0.003756
6837.15540	0.003771
6835.22673	0.003771
6833.29805	0.003756
6831.36937	0.003757
6829.44070	0.003783
6827.51202	0.003807
6825.58335	0.003818
6823.65467	0.003838
6821.72600	0.003863
6819.79732	0.003864
6817.86864	0.003844
6815.93997	0.003826
6814.01129	0.003828
6812.08262	0.003852
6810.15394	0.003891
6808.22527	0.003920
6806.29659	0.003922
6804.36791	0.003913
6802.43924	0.003900
6800.51056	0.003887
6798.58189	0.003894
6796.65321	0.003921
6794.72454	0.003952
6792.79586	0.003987
6790.86718	0.004009
6788.93851	0.004004
6787.00983	0.003988
6785.08116	0.003978
6783.15248	0.003979
6781.22381	0.003991
6779.29513	0.004018
6777.36645	0.004058
6775.43778	0.004096
6773.50910	0.004115
6771.58043	0.004108
6769.65175	0.004100
6767.72308	0.004116
6765.79440	0.004122
6763.86572	0.004101
6761.93705	0.004082
6760.00837	0.004075
6758.07970	0.004073
6756.15102	0.004071
6754.22235	0.004070
6752.29367	0.004086
6750.36499	0.004122
6748.43632	0.004166
6746.50764	0.004205
6744.57897	0.004217
6742.65029	0.004212
6740.72162	0.004212
6738.79294	0.004201
6736.86426	0.004181
6734.93559	0.004181
6733.00691	0.004202
6731.07824	0.004229
6729.14956	0.004257
6727.22089	0.004281
6725.29221	0.004280
6723.36353	0.004258
6721.43486	0.004252
6719.50618	0.004270
6717.57751	0.004295
6715.64883	0.004317
6713.72016	0.004333
6711.79148	0.004336
6709.86280	0.004315
6707.93413	0.004285
6706.00545	0.004283
6704.07678	0.004322
6702.14810	0.004376
6700.21943	0.004419
6698.29075	0.004439
6696.36207	0.004442
6694.43340	0.004444
6692.50472	0.004440
6690.57605	0.004418
6688.64737	0.004405
6686.71870	0.004434
6684.79002	0.004473
6682.86134	0.004490
6680.93267	0.004491
6679.00399	0.004476
6677.07532	0.004451
6675.14664	0.004454
6673.21797	0.004496
6671.28929	0.004536
6669.36061	0.004553
6667.43194	0.004562
6665.50326	0.004566
6663.57459	0.004551
6661.64591	0.004525
6659.71724	0.004510
6657.78856	0.004519
6655.85988	0.004542
6653.93121	0.004576
6652.00253	0.004621
6650.07386	0.004658
6648.14518	0.004672
6646.21651	0.004668
6644.28783	0.004653
6642.35915	0.004646
6640.43048	0.004659
6638.50180	0.004687
6636.57313	0.004715
6634.64445	0.004722
6632.71578	0.004714
6630.78710	0.004713
6628.85842	0.004720
6626.92975	0.004731
6625.00107	0.004739
6623.07240	0.004741
6621.14372	0.004753
6619.21505	0.004774
6617.28637	0.004786
6615.35769	0.004786
6613.42902	0.004792
6611.50034	0.004814
6609.57167	0.004841
6607.64299	0.004853
6605.71432	0.004857
6603.78564	0.004867
6601.85696	0.004868
6599.92829	0.004861
6597.99961	0.004875
6596.07094	0.004901
6594.14226	0.004917
6592.21359	0.004931
6590.28491	0.004953
6588.35623	0.004972
6586.42756	0.004997
6584.49888	0.005019
6582.57021	0.005012
6580.64153	0.004993
6578.71286	0.005005
6576.78418	0.005038
6574.85550	0.005050
6572.92683	0.005037
6570.99815	0.005025
6569.06948	0.005029
6567.14080	0.005043
6565.21213	0.005062
6563.28345	0.005087
6561.35477	0.005115
6559.42610	0.005134
6557.49742	0.005143
6555.56875	0.005147
6553.64007	0.005158
6551.71140	0.005176
6549.78272	0.005185
6547.85404	0.005181
6545.92537	0.005170
6543.99669	0.005172
6542.06802	0.005213
6540.13934	0.005261
6538.21067	0.005279
6536.28199	0.005282
6534.35331	0.005282
6532.42464	0.005278
6530.49596	0.005273
6528.56729	0.005280
6526.63861	0.005300
6524.70994	0.005312
6522.78126	0.005313
6520.85258	0.005315
6518.92391	0.005316
6516.99523	0.005321
6515.06656	0.005341
6513.13788	0.005376
6511.20921	0.005419
6509.28053	0.005454
6507.35185	0.005468
6505.42318	0.005450
6503.49450	0.005415
6501.56583	0.005397
6499.63715	0.005414
6497.70848	0.005457
6495.77980	0.005497
6493.85112	0.005516
6491.92245	0.005530
6489.99377	0.005542
6488.06510	0.005540
6486.13642	0.005534
6484.20775	0.005539
6482.27907	0.005550
6480.35039	0.005557
6478.42172	0.005568
6476.49304	0.005590
6474.56437	0.005611
6472.63569	0.005617
6470.70702	0.005612
6468.77834	0.005610
6466.84966	0.005624
6464.92099	0.005657
6462.99231	0.005690
6461.06364	0.005712
6459.13496	0.005731
6457.20629	0.005741
6455.27761	0.005731
6453.34893	0.005725
6451.42026	0.005751
6449.49158	0.005787
6447.56291	0.005811
6445.63423	0.005826
6443.70556	0.005827
6441.77688	0.005815
6439.84820	0.005805
6437.91953	0.005803
6435.99085	0.005811
6434.06218	0.005831
6432.13350	0.005856
6430.20483	0.005879
6428.27615	0.005897
6426.34747	0.005923
6424.41880	0.005965
6422.49012	0.005994
6420.56145	0.005980
6418.63277	0.005954
6416.70410	0.005962
6414.77542	0.006000
6412.84674	0.006039
6410.91807	0.006053
6408.98939	0.006041
6407.06072	0.006027
6405.13204	0.006031
6403.20337	0.006054
6401.27469	0.006091
6399.34601	0.006130
6397.41734	0.006155
6395.48866	0.006163
6393.55999	0.006156
6391.63131	0.006139
6389.70264	0.006123
6387.77396	0.006109
6385.84528	0.006107
6383.91661	0.006133
6381.98793	0.006188
6380.05926	0.006239
6378.13058	0.006272
6376.20191	0.006296
6374.27323	0.006314
6372.34455	0.006319
6370.41588	0.006314
6368.48720	0.006315
6366.55853	0.006313
6364.62985	0.006304
6362.70118	0.006315
6360.77250	0.006356
6358.84382	0.006389
6356.91515	0.006392
6354.98647	0.006396
6353.05780	0.006426
6351.12912	0.006467
6349.20045	0.006501
6347.27177	0.006522
6345.34309	0.006527
6343.41442	0.006513
6341.48574	0.006496
6339.55707	0.006501
6337.62839	0.006525
6335.69972	0.006549
6333.77104	0.006552
6331.84236	0.006543
6329.91369	0.006548
6327.98501	0.006573
6326.05634	0.006609
6324.12766	0.006638
6322.19899	0.006661
6320.27031	0.006686
6318.34163	0.006704
6316.41296	0.006714
6314.48428	0.006726
6312.55561	0.006721
6310.62693	0.006702
6308.69826	0.006706
6306.76958	0.006735
6304.84090	0.006755
6302.91223	0.006766
6300.98355	0.006799
6299.05488	0.006835
6297.12620	0.006849
6295.19753	0.006863
6293.26885	0.006895
6291.34017	0.006914
6289.41150	0.006899
6287.48282	0.006882
6285.55415	0.006897
6283.62547	0.006921
6281.69680	0.006941
6279.76812	0.006976
6277.83944	0.007015
6275.91077	0.007028
6273.98209	0.007016
6272.05342	0.007004
6270.12474	0.007019
6268.19607	0.007056
6266.26739	0.007080
6264.33871	0.007091
6262.41004	0.007098
6260.48136	0.007099
6258.55269	0.007105
6256.62401	0.007118
6254.69534	0.007133
6252.76666	0.007161
6250.83798	0.007198
6248.90931	0.007223
6246.98063	0.007230
6245.05196	0.007233
6243.12328	0.007233
6241.19461	0.007245
6239.26593	0.007279
6237.33725	0.007311
6235.40858	0.007344
6233.47990	0.007387
6231.55123	0.007414
6229.62255	0.007417
6227.69388	0.007404
6225.76520	0.007382
6223.83652	0.007377
6221.90785	0.007406
6219.97917	0.007448
6218.05050	0.007495
6216.12182	0.007540
6214.19315	0.007549
6212.26447	0.007534
6210.33579	0.007547
6208.40712	0.007580
6206.47844	0.007593
6204.54977	0.007586
6202.62109	0.007594
6200.69242	0.007618
6198.76374	0.007626
6196.83506	0.007612
6194.90639	0.007608
6192.97771	0.007628
6191.04904	0.007659
6189.12036	0.007705
6187.19169	0.007771
6185.26301	0.007833
6183.33433	0.007852
6181.40566	0.007829
6179.47698	0.007811
6177.54831	0.007813
6175.61963	0.007815
6173.69096	0.007816
6171.76228	0.007842
6169.83360	0.007897
6167.90493	0.007940
6165.97625	0.007949
6164.04758	0.007953
6162.11890	0.007967
6160.19023	0.007975
6158.26155	0.007982
6156.33287	0.008015
6154.40420	0.008057
6152.47552	0.008078
6150.54685	0.008074
6148.61817	0.008046
6146.68950	0.008016
6144.76082	0.008031
6142.83214	0.008085
6140.90347	0.008142
6138.97479	0.008190
6137.04612	0.008220
6135.11744	0.008237
6133.18877	0.008255
6131.26009	0.008264
6129.33141	0.008265
6127.40274	0.008273
6125.47406	0.008301
6123.54539	0.008349
6121.61671	0.008391
6119.68804	0.008392
6117.75936	0.008363
6115.83068	0.008346
6113.90201	0.008357
6111.97333	0.008394
6110.04466	0.008449
6108.11598	0.008493
6106.18731	0.008527
6104.25863	0.008564
6102.32995	0.008589
6100.40128	0.008589
6098.47260	0.008572
6096.54393	0.008567
6094.61525	0.008584
6092.68658	0.008605
6090.75790	0.008639
6088.82922	0.008687
6086.90055	0.008692
6084.97187	0.008643
6083.04320	0.008605
6081.11452	0.008622
6079.18585	0.008675
6077.25717	0.008724
6075.32849	0.008775
6073.39982	0.008836
6071.47114	0.008864
6069.54247	0.008848
6067.61379	0.008825
6065.68512	0.008824
6063.75644	0.008854
6061.82776	0.008907
6059.89909	0.008969
6057.97041	0.009014
6056.04174	0.009008
6054.11306	0.008973
6052.18439	0.008970
6050.25571	0.009012
6048.32703	0.009059
6046.39836	0.009099
6044.46968	0.009151
6042.54101	0.009189
6040.61233	0.009178
6038.68366	0.009136
6036.75498	0.009120
6034.82630	0.009141
6032.89763	0.009177
6030.96895	0.009211
6029.04028	0.009235
6027.11160	0.009262
6025.18293	0.009296
6023.25425	0.009325
6021.32557	0.009335
6019.39690	0.009319
6017.46822	0.009309
6015.53955	0.009347
6013.61087	0.009414
6011.68220	0.009466
6009.75352	0.009480
6007.82484	0.009460
6005.89617	0.009454
6003.96749	0.009478
6002.03882	0.009503
6000.11014	0.009529
5998.18147	0.009576
5996.25279	0.009642
5994.32411	0.009705
5992.39544	0.009731
5990.46676	0.009722
5988.53809	0.009693
5986.60941	0.009665
5984.68074	0.009666
5982.75206	0.009703
5980.82338	0.009763
5978.89471	0.009815
5976.96603	0.009836
5975.03736	0.009845
5973.10868	0.009854
5971.18001	0.009851
5969.25133	0.009843
5967.32265	0.009852
5965.39398	0.009882
5963.46530	0.009914
5961.53663	0.009945
5959.60795	0.009974
5957.67928	0.010005
5955.75060	0.010031
5953.82192	0.010044
5951.89325	0.010056
5949.96457	0.010080
5948.03590	0.010117
5946.10722	0.010165
5944.17855	0.010203
5942.24987	0.010202
5940.32119	0.010186
5938.39252	0.010203
5936.46384	0.010243
5934.53517	0.010264
5932.60649	0.010278
5930.67782	0.010315
5928.74914	0.010346
5926.82046	0.010351
5924.89179	0.010353
5922.96311	0.010364
5921.03444	0.010373
5919.10576	0.010372
5917.17709	0.010399
5915.24841	0.010477
5913.31973	0.010542
5911.39106	0.010551
5909.46238	0.010539
5907.53371	0.010542
5905.60503	0.010550
5903.67636	0.010551
5901.74768	0.010574
5899.81900	0.010639
5897.89033	0.010707
5895.96165	0.010751
5894.03298	0.010779
5892.10430	0.010792
5890.17563	0.010788
5888.24695	0.010781
5886.31827	0.010804
5884.38960	0.010867
5882.46092	0.010928
5880.53225	0.010943
5878.60357	0.010930
5876.67490	0.010928
5874.74622	0.010939
5872.81755	0.010944
5870.88887	0.010945
5868.96019	0.010979
5867.03152	0.011051
5865.10284	0.011113
5863.17417	0.011153
5861.24549	0.011170
5859.31682	0.011138
5857.38814	0.011105
5855.45946	0.011143
5853.53079	0.011222
5851.60211	0.011272
5849.67344	0.011301
5847.74476	0.011332
5845.81609	0.011343
5843.88741	0.011319
5841.95873	0.011302
5840.03006	0.011323
5838.10138	0.011363
5836.17271	0.011413
5834.24403	0.011469
5832.31536	0.011512
5830.38668	0.011535
5828.45800	0.011539
5826.52933	0.011540
5824.60065	0.011550
5822.67198	0.011566
5820.74330	0.011604
5818.81463	0.011671
5816.88595	0.011743
5814.95727	0.011784
5813.02860	0.011774
5811.09992	0.011744
5809.17125	0.011742
5807.24257	0.011787
5805.31390	0.011864
5803.38522	0.011942
5801.45654	0.011992
5799.52787	0.012004
5797.59919	0.012000
5795.67052	0.011999
5793.74184	0.012006
5791.81317	0.012012
5789.88449	0.012023
5787.95581	0.012067
5786.02714	0.012138
5784.09846	0.012193
5782.16979	0.012205
5780.24111	0.012197
5778.31244	0.012214
5776.38376	0.012246
5774.45508	0.012282
5772.52641	0.012335
5770.59773	0.012385
5768.66906	0.012403
5766.74038	0.012413
5764.81171	0.012438
5762.88303	0.012461
5760.95435	0.012468
5759.02568	0.012495
5757.09700	0.012568
5755.16833	0.012643
5753.23965	0.012660
5751.31098	0.012653
5749.38230	0.012689
5747.45362	0.012732
5745.52495	0.012717
5743.59627	0.012694
5741.66760	0.012726
5739.73892	0.012781
5737.81025	0.012809
5735.88157	0.012823
5733.95289	0.012864
5732.02422	0.012907
5730.09554	0.012903
5728.16687	0.012901
5726.23819	0.012970
5724.30952	0.013061
5722.38084	0.013101
5720.45216	0.013101
5718.52349	0.013113
5716.59481	0.013124
5714.66614	0.013113
5712.73746	0.013113
5710.80879	0.013150
5708.88011	0.013192
5706.95143	0.013224
5705.02276	0.013275
5703.09408	0.013338
5701.16541	0.013367
5699.23673	0.013353
5697.30806	0.013352
5695.37938	0.013397
5693.45070	0.013439
5691.52203	0.013461
5689.59335	0.013517
5687.66468	0.013604
5685.73600	0.013653
5683.80733	0.013655
5681.87865	0.013660
5679.94997	0.013677
5678.02130	0.013687
5676.09262	0.013718
5674.16395	0.013795
5672.23527	0.013876
5670.30660	0.013910
5668.37792	0.013917
5666.44924	0.013940
5664.52057	0.013953
5662.59189	0.013935
5660.66322	0.013956
5658.73454	0.014048
5656.80587	0.014121
5654.87719	0.014131
5652.94851	0.014143
5651.01984	0.014181
5649.09116	0.014191
5647.16249	0.014164
5645.23381	0.014157
5643.30514	0.014205
5641.37646	0.014281
5639.44778	0.014346
5637.51911	0.014388
5635.59043	0.014421
5633.66176	0.014438
5631.73308	0.014429
5629.80441	0.014433
5627.87573	0.014485
5625.94705	0.014559
5624.01838	0.014610
5622.08970	0.014632
5620.16103	0.014647
5618.23235	0.014645
5616.30368	0.014626
5614.37500	0.014644
5612.44632	0.014709
5610.51765	0.014768
5608.58897	0.014805
5606.66030	0.014848
5604.73162	0.014898
5602.80295	0.014920
5600.87427	0.014908
5598.94559	0.014925
5597.01692	0.015003
5595.08824	0.015078
5593.15957	0.015106
5591.23089	0.015128
5589.30222	0.015173
5587.37354	0.015198
5585.44486	0.015209
5583.51619	0.015263
5581.58751	0.015340
5579.65884	0.015377
5577.73016	0.015392
5575.80149	0.015432
5573.87281	0.015461
5571.94413	0.015434
5570.01546	0.015399
5568.08678	0.015415
5566.15811	0.015468
5564.22943	0.015528
5562.30076	0.015597
5560.37208	0.015689
5558.44340	0.015772
5556.51473	0.015791
5554.58605	0.015780
5552.65738	0.015819
5550.72870	0.015870
5548.80003	0.015865
5546.87135	0.015847
5544.94267	0.015881
5543.01400	0.015934
5541.08532	0.015956
5539.15665	0.015978
5537.22797	0.016035
5535.29930	0.016089
5533.37062	0.016114
5531.44194	0.016135
5529.51327	0.016175
5527.58459	0.016220
5525.65592	0.016242
5523.72724	0.016257
5521.79857	0.016285
5519.86989	0.016312
5517.94121	0.016325
5516.01254	0.016354
5514.08386	0.016429
5512.15519	0.016506
5510.22651	0.016541
5508.29784	0.016578
5506.36916	0.016636
5504.44048	0.016663
5502.51181	0.016656
5500.58313	0.016679
5498.65446	0.016751
5496.72578	0.016799
5494.79711	0.016790
5492.86843	0.016792
5490.93975	0.016825
5489.01108	0.016847
5487.08240	0.016864
5485.15373	0.016913
5483.22505	0.016978
5481.29638	0.017016
5479.36770	0.017056
5477.43902	0.017134
5475.51035	0.017203
5473.58167	0.017219
5471.65300	0.017229
5469.72432	0.017288
5467.79565	0.017351
5465.86697	0.017357
5463.93829	0.017345
5462.00962	0.017368
5460.08094	0.017409
5458.15227	0.017432
5456.22359	0.017460
5454.29492	0.017528
5452.36624	0.017587
5450.43756	0.017587
5448.50889	0.017595
5446.58021	0.017664
5444.65154	0.017729
5442.72286	0.017751
5440.79419	0.017787
5438.86551	0.017854
5436.93683	0.017890
5435.00816	0.017883
5433.07948	0.017904
5431.15081	0.017977
5429.22213	0.018039
5427.29346	0.018063
5425.36478	0.018103
5423.43610	0.018184
5421.50743	0.018249
5419.57875	0.018254
5417.65008	0.018240
5415.72140	0.018259
5413.79273	0.018288
5411.86405	0.018308
5409.93537	0.018359
5408.00670	0.018441
5406.07802	0.018480
5404.14935	0.018482
5402.22067	0.018527
5400.29200	0.018601
5398.36332	0.018625
5396.43464	0.018610
5394.50597	0.018645
5392.57729	0.018735
5390.64862	0.018809
5388.71994	0.018851
5386.79127	0.018891
5384.86259	0.018919
5382.93391	0.018920
5381.00524	0.018930
5379.07656	0.018981
5377.14789	0.019036
5375.21921	0.019045
5373.29054	0.019038
5371.36186	0.019085
5369.43318	0.019161
5367.50451	0.019209
5365.57583	0.019257
5363.64716	0.019334
5361.71848	0.019398
5359.78981	0.019414
5357.86113	0.019430
5355.93245	0.019478
5354.00378	0.019500
5352.07510	0.019474
5350.14643	0.019481
5348.21775	0.019562
5346.28908	0.019637
5344.36040	0.019664
5342.43172	0.019717
5340.50305	0.019807
5338.57437	0.019846
5336.64570	0.019827
5334.71702	0.019843
5332.78835	0.019917
5330.85967	0.019980
5328.93099	0.020006
5327.00232	0.020058
5325.07364	0.020148
5323.14497	0.020180
5321.21629	0.020153
5319.28762	0.020176
5317.35894	0.020247
5315.43026	0.020295
5313.50159	0.020320
5311.57291	0.020372
5309.64424	0.020445
5307.71556	0.020481
5305.78689	0.020492
5303.85821	0.020546
5301.92953	0.020618
5300.00086	0.020647
5298.07218	0.020660
5296.14351	0.020719
5294.21483	0.020799
5292.28616	0.020810
5290.35748	0.020770
5288.42880	0.020807
5286.50013	0.020928
5284.57145	0.021025
5282.64278	0.021079
5280.71410	0.021147
5278.78543	0.021202
5276.85675	0.021194
5274.92807	0.021180
5272.99940	0.021237
5271.07072	0.021306
5269.14205	0.021304
5267.21337	0.021280
5265.28470	0.021321
5263.35602	0.021430
5261.42734	0.021525
5259.49867	0.021584
5257.56999	0.021630
5255.64132	0.021636
5253.71264	0.021609
5251.78397	0.021622
5249.85529	0.021693
5247.92661	0.021751
5245.99794	0.021752
5244.06926	0.021766
5242.14059	0.021841
5240.21191	0.021909
5238.28324	0.021932
5236.35456	0.021977
5234.42588	0.022058
5232.49721	0.022111
5230.56853	0.022128
5228.63986	0.022162
5226.71118	0.022213
5224.78251	0.022238
5222.85383	0.022228
5220.92515	0.022251
5218.99648	0.022359
5217.06780	0.022465
5215.13913	0.022503
5213.21045	0.022557
5211.28178	0.022647
5209.35310	0.022680
5207.42442	0.022665
5205.49575	0.022709
5203.56707	0.022818
5201.63840	0.022875
5199.70972	0.022861
5197.78105	0.022899
5195.85237	0.022999
5193.92369	0.023028
5191.99502	0.022992
5190.06634	0.023022
5188.13767	0.023121
5186.20899	0.023167
5184.28032	0.023178
5182.35164	0.023252
5180.42296	0.023356
5178.49429	0.023400
5176.56561	0.023418
5174.63694	0.023490
5172.70826	0.023567
5170.77959	0.023559
5168.85091	0.023551
5166.92223	0.023636
5164.99356	0.023721
5163.06488	0.023729
5161.13621	0.023741
5159.20753	0.023814
5157.27886	0.023888
5155.35018	0.023929
5153.42150	0.023989
5151.49283	0.024072
5149.56415	0.024115
5147.63548	0.024103
5145.70680	0.024100
5143.77813	0.024133
5141.84945	0.024151
5139.92077	0.024161
5137.99210	0.024247
5136.06342	0.024393
5134.13475	0.024483
5132.20607	0.024475
5130.27740	0.024475
5128.34872	0.024531
5126.42004	0.024557
5124.49137	0.024556
5122.56269	0.024626
5120.63402	0.024752
5118.70534	0.024822
5116.77667	0.024817
5114.84799	0.024835
5112.91931	0.024910
5110.99064	0.024936
5109.06196	0.024915
5107.13329	0.024970
5105.20461	0.025099
5103.27594	0.025197
5101.34726	0.025242
5099.41858	0.025309
5097.48991	0.025389
5095.56123	0.025388
5093.63256	0.025363
5091.70388	0.025435
5089.77521	0.025554
5087.84653	0.025594
5085.91785	0.025570
5083.98918	0.025587
5082.06050	0.025655
5080.13183	0.025703
5078.20315	0.025744
5076.27448	0.025832
5074.34580	0.025941
5072.41712	0.026020
5070.48845	0.026086
5068.55977	0.026170
5066.63110	0.026215
5064.70242	0.026167
5062.77375	0.026119
5060.84507	0.026176
5058.91639	0.026277
5056.98772	0.026326
5055.05904	0.026382
5053.13037	0.026509
5051.20169	0.026593
5049.27302	0.026573
5047.34434	0.026572
5045.41566	0.026654
5043.48699	0.026722
5041.55831	0.026728
5039.62964	0.026787
5037.70096	0.026917
5035.77229	0.026959
5033.84361	0.026903
5031.91493	0.026917
5029.98626	0.027028
5028.05758	0.027096
5026.12891	0.027114
5024.20023	0.027230
5022.27156	0.027411
5020.34288	0.027465
5018.41420	0.027411
5016.48553	0.027417
5014.55685	0.027487
5012.62818	0.027506
5010.69950	0.027497
5008.77083	0.027584
5006.84215	0.027731
5004.91347	0.027801
5002.98480	0.027802
5001.05612	0.027821
4999.12745	0.027879
4997.19877	0.027924
4995.27010	0.027947
4993.34142	0.028048
4991.41274	0.028217
4989.48407	0.028300
4987.55539	0.028281
4985.62672	0.028285
4983.69804	0.028311
4981.76937	0.028284
4979.84069	0.028279
4977.91201	0.028388
4975.98334	0.028531
4974.05466	0.028593
4972.12599	0.028612
4970.19731	0.028683
4968.26864	0.028753
4966.33996	0.028745
4964.41128	0.028759
4962.48261	0.028877
4960.55393	0.029020
4958.62526	0.029093
4956.69658	0.029115
4954.76791	0.029150
4952.83923	0.029160
4950.91055	0.029110
4948.98188	0.029130
4947.05320	0.029309
4945.12453	0.029512
4943.19585	0.029585
4941.26718	0.029585
4939.33850	0.029619
4937.40982	0.029625
4935.48115	0.029586
4933.55247	0.029614
4931.62380	0.029715
4929.69512	0.029796
4927.76645	0.029836
4925.83777	0.029885
4923.90909	0.029965
4921.98042	0.030018
4920.05174	0.030036
4918.12307	0.030112
4916.19439	0.030258
4914.26572	0.030368
4912.33704	0.030404
4910.40836	0.030440
4908.47969	0.030487
4906.55101	0.030469
4904.62234	0.030420
4902.69366	0.030472
4900.76499	0.030599
4898.83631	0.030675
4896.90763	0.030726
4894.97896	0.030861
4893.05028	0.031011
4891.12161	0.031018
4889.19293	0.030958
4887.26426	0.031024
4885.33558	0.031179
4883.40690	0.031263
4881.47823	0.031296
4879.54955	0.031389
4877.62088	0.031491
4875.69220	0.031486
4873.76353	0.031439
4871.83485	0.031485
4869.90617	0.031587
4867.97750	0.031646
4866.04882	0.031714
4864.12015	0.031860
4862.19147	0.031987
4860.26280	0.032002
4858.33412	0.031965
4856.40544	0.031972
4854.47677	0.032030
4852.54809	0.032085
4850.61942	0.032159
4848.69074	0.032293
4846.76207	0.032410
4844.83339	0.032442
4842.90471	0.032464
4840.97604	0.032545
4839.04736	0.032616
4837.11869	0.032636
4835.19001	0.032703
4833.26134	0.032843
4831.33266	0.032926
4829.40398	0.032909
4827.47531	0.032907
4825.54663	0.032964
4823.61796	0.033002
4821.68928	0.033024
4819.76061	0.033130
4817.83193	0.033301
4815.90325	0.033396
4813.97458	0.033393
4812.04590	0.033419
4810.11723	0.033510
4808.18855	0.033561
4806.25988	0.033570
4804.33120	0.033644
4802.40252	0.033772
4800.47385	0.033851
4798.54517	0.033889
4796.61650	0.033964
4794.68782	0.034041
4792.75915	0.034025
4790.83047	0.033993
4788.90179	0.034111
4786.97312	0.034316
4785.04444	0.034428
4783.11577	0.034458
4781.18709	0.034529
4779.25842	0.034615
4777.32974	0.034616
4775.40106	0.034602
4773.47239	0.034697
4771.54371	0.034833
4769.61504	0.034888
4767.68636	0.034924
4765.75769	0.035031
4763.82901	0.035121
4761.90033	0.035112
4759.97166	0.035109
4758.04298	0.035217
4756.11431	0.035370
4754.18563	0.035447
4752.25696	0.035486
4750.32828	0.035583
4748.39960	0.035664
4746.47093	0.035647
4744.54225	0.035640
4742.61358	0.035729
4740.68490	0.035828
4738.75623	0.035878
4736.82755	0.035952
4734.89887	0.036078
4732.97020	0.036147
4731.04152	0.036125
4729.11285	0.036137
4727.18417	0.036228
4725.25550	0.036305
4723.32682	0.036358
4721.39814	0.036459
4719.46947	0.036594
4717.54079	0.036657
4715.61212	0.036652
4713.68344	0.036699
4711.75477	0.036818
4709.82609	0.036903
4707.89741	0.036923
4705.96874	0.036972
4704.04006	0.037089
4702.11139	0.037179
4700.18271	0.037212
4698.25404	0.037290
4696.32536	0.037431
4694.39668	0.037537
4692.46801	0.037602
4690.53933	0.037704
4688.61066	0.037808
4686.68198	0.037824
4684.75331	0.037813
4682.82463	0.037890
4680.89595	0.038010
4678.96728	0.038072
4677.03860	0.038112
4675.10993	0.038212
4673.18125	0.038333
4671.25258	0.038391
4669.32390	0.038437
4667.39522	0.038567
4665.46655	0.038703
4663.53787	0.038725
4661.60920	0.038697
4659.68052	0.038747
4657.75185	0.038845
4655.82317	0.038898
4653.89449	0.038952
4651.96582	0.039095
4650.03714	0.039250
4648.10847	0.039323
4646.17979	0.039391
4644.25112	0.039495
4642.32244	0.039545
4640.39376	0.039537
4638.46509	0.039589
4636.53641	0.039728
4634.60774	0.039829
4632.67906	0.039838
4630.75039	0.039859
4628.82171	0.039949
4626.89303	0.040039
4624.96436	0.040102
4623.03568	0.040211
4621.10701	0.040395
4619.17833	0.040531
4617.24966	0.040544
4615.32098	0.040532
4613.39230	0.040573
4611.46363	0.040621
4609.53495	0.040657
4607.60628	0.040770
4605.67760	0.040972
4603.74893	0.041100
4601.82025	0.041098
4599.89157	0.041124
4597.96290	0.041243
4596.03422	0.041347
4594.10555	0.041412
4592.17687	0.041523
4590.24820	0.041652
4588.31952	0.041684
4586.39084	0.041662
4584.46217	0.041737
4582.53349	0.041879
4580.60482	0.041950
4578.67614	0.041977
4576.74747	0.042091
4574.81879	0.042264
4572.89011	0.042363
4570.96144	0.042391
4569.03276	0.042441
4567.10409	0.042512
4565.17541	0.042555
4563.24674	0.042623
4561.31806	0.042780
4559.38938	0.042926
4557.46071	0.042956
4555.53203	0.042974
4553.60336	0.043088
4551.67468	0.043208
4549.74601	0.043262
4547.81733	0.043338
4545.88865	0.043495
4543.95998	0.043655
4542.03130	0.043730
4540.10263	0.043760
4538.17395	0.043829
4536.24528	0.043909
4534.31660	0.043946
4532.38792	0.044016
4530.45925	0.044171
4528.53057	0.044307
4526.60190	0.044366
4524.67322	0.044431
4522.74455	0.044531
4520.81587	0.044592
4518.88719	0.044615
4516.95852	0.044698
4515.02984	0.044850
4513.10117	0.044959
4511.17249	0.045010
4509.24382	0.045101
4507.31514	0.045223
4505.38646	0.045277
4503.45779	0.045289
4501.52911	0.045383
4499.60044	0.045556
4497.67176	0.045703
4495.74309	0.045800
4493.81441	0.045902
4491.88573	0.046004
4489.95706	0.046056
4488.02838	0.046088
4486.09971	0.046193
4484.17103	0.046351
4482.24236	0.046446
4480.31368	0.046488
4478.38500	0.046583
4476.45633	0.046709
4474.52765	0.046750
4472.59898	0.046730
4470.67030	0.046786
4468.74163	0.046937
4466.81295	0.047077
4464.88427	0.047182
4462.95560	0.047295
4461.02692	0.047388
4459.09825	0.047432
4457.16957	0.047486
4455.24090	0.047597
4453.31222	0.047729
4451.38354	0.047820
4449.45487	0.047901
4447.52619	0.048047
4445.59752	0.048204
4443.66884	0.048279
4441.74017	0.048325
4439.81149	0.048429
4437.88281	0.048553
4435.95414	0.048631
4434.02546	0.048707
4432.09679	0.048837
4430.16811	0.048953
4428.23944	0.048999
4426.31076	0.049059
4424.38208	0.049196
4422.45341	0.049333
4420.52473	0.049414
4418.59606	0.049511
4416.66738	0.049648
4414.73871	0.049742
4412.81003	0.049778
4410.88135	0.049857
4408.95268	0.050002
4407.02400	0.050118
4405.09533	0.050166
4403.16665	0.050244
4401.23798	0.050403
4399.30930	0.050544
4397.38062	0.050610
4395.45195	0.050677
4393.52327	0.050804
4391.59460	0.050918
4389.66592	0.050973
4387.73725	0.051068
4385.80857	0.051240
4383.87989	0.051391
4381.95122	0.051490
4380.02254	0.051609
4378.09387	0.051733
4376.16519	0.051773
4374.23652	0.051782
4372.30784	0.051890
4370.37916	0.052056
4368.45049	0.052163
4366.52181	0.052235
4364.59314	0.052360
4362.66446	0.052502
4360.73579	0.052586
4358.80711	0.052669
4356.87843	0.052835
4354.94976	0.053006
4353.02108	0.053070
4351.09241	0.053095
4349.16373	0.053213
4347.23506	0.053370
4345.30638	0.053442
4343.37770	0.053485
4341.44903	0.053616
4339.52035	0.053777
4337.59168	0.053881
4335.66300	0.053976
4333.73433	0.054125
4331.80565	0.054264
4329.87697	0.054342
4327.94830	0.054428
4326.01962	0.054570
4324.09095	0.054692
4322.16227	0.054753
4320.23360	0.054844
4318.30492	0.055015
4316.37624	0.055170
4314.44757	0.055255
4312.51889	0.055344
4310.59022	0.055488
4308.66154	0.055624
4306.73287	0.055719
4304.80419	0.055821
4302.87551	0.055965
4300.94684	0.056088
4299.01816	0.056150
4297.08949	0.056241
4295.16081	0.056402
4293.23214	0.056537
4291.30346	0.056629
4289.37478	0.056763
4287.44611	0.056931
4285.51743	0.057042
4283.58876	0.057117
4281.66008	0.057251
4279.73141	0.057401
4277.80273	0.057479
4275.87405	0.057548
4273.94538	0.057688
4272.01670	0.057850
4270.08803	0.057983
4268.15935	0.058100
4266.23068	0.058226
4264.30200	0.058363
4262.37332	0.058474
4260.44465	0.058567
4258.51597	0.058684
4256.58730	0.058804
4254.65862	0.058906
4252.72995	0.059036
4250.80127	0.059201
4248.87259	0.059343
4246.94392	0.059435
4245.01524	0.059527
4243.08657	0.059674
4241.15789	0.059834
4239.22922	0.059950
4237.30054	0.060071
4235.37186	0.060250
4233.44319	0.060409
4231.51451	0.060468
4229.58584	0.060494
4227.65716	0.060590
4225.72849	0.060742
4223.79981	0.060880
4221.87113	0.061002
4219.94246	0.061138
4218.01378	0.061275
4216.08511	0.061404
4214.15643	0.061565
4212.22776	0.061741
4210.29908	0.061851
4208.37040	0.061910
4206.44173	0.062011
4204.51305	0.062164
4202.58438	0.062288
4200.65570	0.062392
4198.72703	0.062547
4196.79835	0.062717
4194.86968	0.062826
4192.94100	0.062913
4191.01232	0.063059
4189.08365	0.063254
4187.15497	0.063412
4185.22630	0.063506
4183.29762	0.063615
4181.36895	0.063762
4179.44027	0.063865
4177.51159	0.063933
4175.58292	0.064077
4173.65424	0.064282
4171.72557	0.064425
4169.79689	0.064515
4167.86822	0.064654
4165.93954	0.064834
4164.01086	0.064991
4162.08219	0.065138
4160.15351	0.065310
4158.22484	0.065472
4156.29616	0.065555
4154.36749	0.065622
4152.43881	0.065761
4150.51013	0.065893
4148.58146	0.065957
4146.65278	0.066060
4144.72411	0.066278
4142.79543	0.066506
4140.86676	0.066635
4138.93808	0.066730
4137.00940	0.066874
4135.08073	0.067024
4133.15205	0.067136
4131.22338	0.067268
4129.29470	0.067445
4127.36603	0.067588
4125.43735	0.067683
4123.50867	0.067817
4121.58000	0.068004
4119.65132	0.068164
4117.72265	0.068269
4115.79397	0.068389
4113.86530	0.068545
4111.93662	0.068694
4110.00794	0.068844
4108.07927	0.069031
4106.15059	0.069212
4104.22192	0.069324
4102.29324	0.069414
4100.36457	0.069560
4098.43589	0.069737
4096.50721	0.069887
4094.57854	0.070019
4092.64986	0.070177
4090.72119	0.070342
4088.79251	0.070462
4086.86384	0.070567
4084.93516	0.070731
4083.00648	0.070926
4081.07781	0.071089
4079.14913	0.071227
4077.22046	0.071362
4075.29178	0.071487
4073.36311	0.071584
4071.43443	0.071685
4069.50575	0.071865
4067.57708	0.072086
4065.64840	0.072247
4063.71973	0.072363
4061.79105	0.072500
4059.86238	0.072661
4057.93370	0.072819
4056.00502	0.072983
4054.07635	0.073172
4052.14767	0.073354
4050.21900	0.073492
4048.29032	0.073618
4046.36165	0.073775
4044.43297	0.073950
4042.50429	0.074105
4040.57562	0.074259
4038.64694	0.074432
4036.71827	0.074562
4034.78959	0.074649
4032.86092	0.074787
4030.93224	0.074987
4029.00356	0.075159
4027.07489	0.075274
4025.14621	0.075406
4023.21754	0.075586
4021.28886	0.075761
4019.36019	0.075911
4017.43151	0.076088
4015.50283	0.076300
4013.57416	0.076477
4011.64548	0.076608
4009.71681	0.076773
4007.78813	0.076964
4005.85946	0.077088
4003.93078	0.077176
4002.00210	0.077328
4000.07343	0.077524
3998.14475	0.077680
3996.21608	0.077821
3994.28740	0.078016
3992.35873	0.078219
3990.43005	0.078377
3988.50137	0.078536
3986.57270	0.078716
3984.64402	0.078869
3982.71535	0.078995
3980.78667	0.079160
3978.85800	0.079365
3976.92932	0.079529
3975.00064	0.079639
3973.07197	0.079793
3971.14329	0.080001
3969.21462	0.080163
3967.28594	0.080280
3965.35727	0.080439
3963.42859	0.080649
3961.49991	0.080859
3959.57124	0.081030
3957.64256	0.081185
3955.71389	0.081361
3953.78521	0.081484
3951.85654	0.081509
3949.92786	0.081583
3947.99918	0.081818
3946.07051	0.082085
3944.14183	0.082254
3942.21316	0.082410
3940.28448	0.082623
3938.35581	0.082815
3936.42713	0.082935
3934.49845	0.083021
3932.56978	0.083147
3930.64110	0.083337
3928.71243	0.083535
3926.78375	0.083709
3924.85508	0.083883
3922.92640	0.084021
3920.99772	0.084087
3919.06905	0.084177
3917.14037	0.084397
3915.21170	0.084704
3913.28302	0.084982
3911.35435	0.085193
3909.42567	0.085324
3907.49699	0.085298
3905.56832	0.085178
3903.63964	0.085195
3901.71097	0.085404
3899.78229	0.085697
3897.85362	0.086052
3895.92494	0.086386
3893.99626	0.086534
3892.06759	0.086593
3890.13891	0.086767
3888.21024	0.086940
3886.28156	0.087029
3884.35289	0.087194
3882.42421	0.087402
3880.49553	0.087642
3878.56686	0.087942
3876.63818	0.088086
3874.70951	0.088091
3872.78083	0.088151
3870.85216	0.088268
3868.92348	0.088479
3866.99480	0.088751
3865.06613	0.088998
3863.13745	0.089270
3861.20878	0.089547
3859.28010	0.089729
3857.35143	0.089636
3855.42275	0.089265
3853.49407	0.089215
3851.56540	0.089833
3849.63672	0.090575
3847.70805	0.090935
3845.77937	0.090975
3843.85070	0.090981
3841.92202	0.091072
3839.99334	0.091171
3838.06467	0.091322
3836.13599	0.091630
3834.20732	0.091996
3832.27864	0.092288
3830.34997	0.092516
3828.42129	0.092722
3826.49261	0.092916
3824.56394	0.092998
3822.63526	0.092934
3820.70659	0.093036
3818.77791	0.093354
3816.84924	0.093609
3814.92056	0.093895
3812.99188	0.094309
3811.06321	0.094599
3809.13453	0.094596
3807.20586	0.094542
3805.27718	0.094667
3803.34851	0.094813
3801.41983	0.094967
3799.49115	0.095270
3797.56248	0.095614
3795.63380	0.095917
3793.70513	0.096162
3791.77645	0.096356
3789.84778	0.096571
3787.91910	0.096762
3785.99042	0.096884
3784.06175	0.097039
3782.13307	0.097217
3780.20440	0.097358
3778.27572	0.097553
3776.34705	0.097825
3774.41837	0.098080
3772.48969	0.098214
3770.56102	0.098246
3768.63234	0.098360
3766.70367	0.098632
3764.77499	0.098945
3762.84632	0.099127
3760.91764	0.099156
3758.98896	0.099266
3757.06029	0.099491
3755.13161	0.099567
3753.20294	0.099456
3751.27426	0.099436
3749.34559	0.099652
3747.41691	0.099755
3745.48823	0.099691
3743.55956	0.100069
3741.63088	0.100789
3739.70221	0.101079
3737.77353	0.100949
3735.84486	0.100973
3733.91618	0.101307
3731.98750	0.101751
3730.05883	0.102145
3728.13015	0.102409
3726.20148	0.102572
3724.27280	0.102753
3722.34413	0.103024
3720.41545	0.103367
3718.48677	0.103613
3716.55810	0.103669
3714.62942	0.103649
3712.70075	0.103711
3710.77207	0.103952
3708.84340	0.104323
3706.91472	0.104717
3704.98604	0.104987
3703.05737	0.105064
3701.12869	0.105186
3699.20002	0.105500
3697.27134	0.105826
3695.34267	0.105973
3693.41399	0.105938
3691.48531	0.105897
3689.55664	0.106030
3687.62796	0.106361
3685.69929	0.106783
3683.77061	0.107162
3681.84194	0.107393
3679.91326	0.107396
3677.98458	0.107208
3676.05591	0.107176
3674.12723	0.107472
3672.19856	0.107681
3670.26988	0.107781
3668.34121	0.108197
3666.41253	0.108761
3664.48385	0.109084
3662.55518	0.109236
3660.62650	0.109407
3658.69783	0.109517
3656.76915	0.109542
3654.84048	0.109623
3652.91180	0.109602
3650.98312	0.109324
3649.05445	0.109138
3647.12577	0.109457
3645.19710	0.110165
3643.26842	0.110764
3641.33975	0.111041
3639.41107	0.111218
3637.48239	0.111452
3635.55372	0.111629
3633.62504	0.111637
3631.69637	0.111478
3629.76769	0.111417
3627.83902	0.111758
3625.91034	0.112265
3623.98166	0.112554
3622.05299	0.112597
3620.12431	0.112544
3618.19564	0.112623
3616.26696	0.112862
3614.33829	0.113097
3612.40961	0.113225
3610.48093	0.113237
3608.55226	0.113359
3606.62358	0.113749
3604.69491	0.114091
3602.76623	0.114164
3600.83756	0.114224
3598.90888	0.114431
3596.98020	0.114600
3595.05153	0.114703
3593.12285	0.114907
3591.19418	0.115052
3589.26550	0.114937
3587.33683	0.114922
3585.40815	0.115308
3583.47947	0.115794
3581.55080	0.116048
3579.62212	0.116125
3577.69345	0.116255
3575.76477	0.116493
3573.83610	0.116676
3571.90742	0.116706
3569.97874	0.116648
3568.05007	0.116670
3566.12139	0.116888
3564.19272	0.117216
3562.26404	0.117528
3560.33537	0.117754
3558.40669	0.117857
3556.47801	0.117924
3554.54934	0.118081
3552.62066	0.118298
3550.69199	0.118440
3548.76331	0.118473
3546.83464	0.118541
3544.90596	0.118727
3542.97728	0.118924
3541.04861	0.119097
3539.11993	0.119298
3537.19126	0.119442
3535.26258	0.119456
3533.33391	0.119465
3531.40523	0.119571
3529.47655	0.119683
3527.54788	0.119702
3525.61920	0.119717
3523.69053	0.119850
3521.76185	0.120024
3519.83318	0.120104
3517.90450	0.120175
3515.97582	0.120345
3514.04715	0.120479
3512.11847	0.120464
3510.18980	0.120466
3508.26112	0.120616
3506.33245	0.120735
3504.40377	0.120683
3502.47509	0.120652
3500.54642	0.120773
3498.61774	0.120879
3496.68907	0.120873
3494.76039	0.120900
3492.83172	0.121034
3490.90304	0.121110
3488.97436	0.121050
3487.04569	0.121032
3485.11701	0.121173
3483.18834	0.121325
3481.25966	0.121394
3479.33099	0.121507
3477.40231	0.121707
3475.47363	0.121858
3473.54496	0.121941
3471.61628	0.122111
3469.68761	0.122380
3467.75893	0.122579
3465.83026	0.122690
3463.90158	0.122895
3461.97290	0.123224
3460.04423	0.123493
3458.11555	0.123661
3456.18688	0.123897
3454.25820	0.124192
3452.32953	0.124330
3450.40085	0.124328
3448.47217	0.124441
3446.54350	0.124710
3444.61482	0.124932
3442.68615	0.125101
3440.75747	0.125426
3438.82880	0.125869
3436.90012	0.126212
3434.97144	0.126488
3433.04277	0.126902
3431.11409	0.127434
3429.18542	0.127890
3427.25674	0.128257
3425.32807	0.128674
3423.39939	0.129129
3421.47071	0.129505
3419.54204	0.129843
3417.61336	0.130273
3415.68469	0.130721
3413.75601	0.131018
3411.82734	0.131238
3409.89866	0.131574
3407.96998	0.131945
3406.04131	0.132149
3404.11263	0.132295
3402.18396	0.132611
3400.25528	0.132996
3398.32661	0.133255
3396.39793	0.133473
3394.46925	0.133778
3392.54058	0.134075
3390.61190	0.134293
3388.68323	0.134545
3386.75455	0.134895
3384.82588	0.135229
3382.89720	0.135461
3380.96852	0.135704
3379.03985	0.136041
3377.11117	0.136340
3375.18250	0.136519
3373.25382	0.136727
3371.32515	0.137043
3369.39647	0.137325
3367.46779	0.137509
3365.53912	0.137740
3363.61044	0.138071
3361.68177	0.138340
3359.75309	0.138502
3357.82442	0.138747
3355.89574	0.139130
3353.96706	0.139439
3352.03839	0.139578
3350.10971	0.139765
3348.18104	0.140107
3346.25236	0.140412
3344.32369	0.140585
3342.39501	0.140796
3340.46633	0.141131
3338.53766	0.141412
3336.60898	0.141591
3334.68031	0.141874
3332.75163	0.142258
3330.82296	0.142496
3328.89428	0.142608
3326.96560	0.142849
3325.03693	0.143213
3323.10825	0.143471
3321.17958	0.143623
3319.25090	0.143872
3317.32223	0.144192
3315.39355	0.144398
3313.46487	0.144566
3311.53620	0.144905
3309.60752	0.145323
3307.67885	0.145567
3305.75017	0.145710
3303.82150	0.146013
3301.89282	0.146418
3299.96414	0.146680
3298.03547	0.146854
3296.10679	0.147164
3294.17812	0.147551
3292.24944	0.147815
3290.32077	0.148026
3288.39209	0.148359
3286.46341	0.148704
3284.53474	0.148877
3282.60606	0.149035
3280.67739	0.149400
3278.74871	0.149825
3276.82004	0.150069
3274.89136	0.150249
3272.96268	0.150582
3271.03401	0.150958
3269.10533	0.151197
3267.17666	0.151416
3265.24798	0.151776
3263.31931	0.152152
3261.39063	0.152383
3259.46195	0.152588
3257.53328	0.152905
3255.60460	0.153211
3253.67593	0.153394
3251.74725	0.153619
3249.81858	0.154005
3247.88990	0.154372
3245.96122	0.154574
3244.03255	0.154759
3242.10387	0.155075
3240.17520	0.155419
3238.24652	0.155656
3236.31785	0.155885
3234.38917	0.156224
3232.46049	0.156544
3230.53182	0.156750
3228.60314	0.157004
3226.67447	0.157386
3224.74579	0.157694
3222.81712	0.157827
3220.88844	0.158020
3218.95976	0.158402
3217.03109	0.158744
3215.10241	0.158921
3213.17374	0.159134
3211.24506	0.159469
3209.31639	0.159730
3207.38771	0.159877
3205.45903	0.160147
3203.53036	0.160575
3201.60168	0.160895
3199.67301	0.161054
3197.74433	0.161349
3195.81566	0.161842
3193.88698	0.162211
3191.95830	0.162378
3190.02963	0.162612
3188.10095	0.162949
3186.17228	0.163202
3184.24360	0.163389
3182.31493	0.163695
3180.38625	0.164100
3178.45757	0.164378
3176.52890	0.164547
3174.60022	0.164862
3172.67155	0.165302
3170.74287	0.165590
3168.81420	0.165737
3166.88552	0.166004
3164.95684	0.166386
3163.02817	0.166654
3161.09949	0.166838
3159.17082	0.167173
3157.24214	0.167566
3155.31347	0.167767
3153.38479	0.167936
3151.45611	0.168318
3149.52744	0.168725
3147.59876	0.168908
3145.67009	0.169037
3143.74141	0.169359
3141.81274	0.169738
3139.88406	0.169966
3137.95538	0.170137
3136.02671	0.170416
3134.09803	0.170736
3132.16936	0.170971
3130.24068	0.171217
3128.31201	0.171615
3126.38333	0.172005
3124.45465	0.172199
3122.52598	0.172385
3120.59730	0.172749
3118.66863	0.173087
3116.73995	0.173228
3114.81128	0.173364
3112.88260	0.173681
3110.95392	0.174042
3109.02525	0.174275
3107.09657	0.174492
3105.16790	0.174838
3103.23922	0.175161
3101.31055	0.175316
3099.38187	0.175507
3097.45319	0.175903
3095.52452	0.176281
3093.59584	0.176439
3091.66717	0.176600
3089.73849	0.176965
3087.80982	0.177316
3085.88114	0.177462
3083.95246	0.177592
3082.02379	0.177876
3080.09511	0.178159
3078.16644	0.178331
3076.23776	0.178592
3074.30909	0.178980
3072.38041	0.179229
3070.45173	0.179317
3068.52306	0.179537
3066.59438	0.179923
3064.66571	0.180172
3062.73703	0.180241
3060.80836	0.180422
3058.87968	0.180754
3056.95100	0.181002
3055.02233	0.181155
3053.09365	0.181396
3051.16498	0.181695
3049.23630	0.181861
3047.30763	0.181937
3045.37895	0.182144
3043.45027	0.182462
3041.52160	0.182666
3039.59292	0.182761
3037.66425	0.182965
3035.73557	0.183253
3033.80690	0.183413
3031.87822	0.183506
3029.94954	0.183754
3028.02087	0.184083
3026.09219	0.184265
3024.16352	0.184360
3022.23484	0.184587
3020.30617	0.184865
3018.37749	0.184971
3016.44881	0.185021
3014.52014	0.185269
3012.59146	0.185597
3010.66279	0.185730
3008.73411	0.185780
3006.80544	0.186012
3004.87676	0.186291
3002.94808	0.186368
3001.01941	0.186413
2999.09073	0.186665
2997.16206	0.186927
2995.23338	0.186977
2993.30471	0.187018
2991.37603	0.187256
2989.44735	0.187488
2987.51868	0.187505
2985.59000	0.187484
2983.66133	0.187598
2981.73265	0.187664
2979.80398	0.187530
2977.87530	0.187394
2975.94662	0.187426
2974.01795	0.187401
2972.08927	0.187121
2970.16060	0.186831
2968.23192	0.186777
2966.30325	0.186782
2964.37457	0.186669
2962.44589	0.186624
2960.51722	0.186803
2958.58854	0.187022
2956.65987	0.187139
2954.73119	0.187325
2952.80252	0.187690
2950.87384	0.188010
2948.94516	0.188118
2947.01649	0.188207
2945.08781	0.188388
2943.15914	0.188421
2941.23046	0.188230
2939.30179	0.188092
2937.37311	0.188082
2935.44443	0.187938
2933.51576	0.187622
2931.58708	0.187416
2929.65841	0.187375
2927.72973	0.187239
2925.80106	0.186995
2923.87238	0.186920
2921.94370	0.187066
2920.01503	0.187247
2918.08635	0.187505
2916.15768	0.188175
2914.22900	0.189316
2912.30033	0.190502
2910.37165	0.191436
2908.44297	0.192255
2906.51430	0.193069
2904.58562	0.193747
2902.65695	0.194299
2900.72827	0.194935
2898.79960	0.195621
2896.87092	0.196127
2894.94224	0.196505
2893.01357	0.197030
2891.08489	0.197670
2889.15622	0.198175
2887.22754	0.198591
2885.29887	0.199080
2883.37019	0.199538
2881.44151	0.199827
2879.51284	0.200084
2877.58416	0.200486
2875.65549	0.200933
2873.72681	0.201227
2871.79814	0.201459
2869.86946	0.201864
2867.94078	0.202338
2866.01211	0.202615
2864.08343	0.202794
2862.15476	0.203097
2860.22608	0.203381
2858.29741	0.203450
2856.36873	0.203434
2854.44005	0.203521
2852.51138	0.203686
2850.58270	0.203975
2848.65403	0.204687
2846.72535	0.205929
2844.79668	0.207295
2842.86800	0.208357
2840.93932	0.209187
2839.01065	0.210014
2837.08197	0.210747
2835.15330	0.211261
2833.22462	0.211755
2831.29595	0.212402
2829.36727	0.213045
2827.43859	0.213546
2825.50992	0.214023
2823.58124	0.214579
2821.65257	0.215095
2819.72389	0.215452
2817.79522	0.215813
2815.86654	0.216334
2813.93786	0.216837
2812.00919	0.217186
2810.08051	0.217541
2808.15184	0.218036
2806.22316	0.218539
2804.29449	0.218899
2802.36581	0.219240
2800.43713	0.219695
2798.50846	0.220126
2796.57978	0.220451
2794.65111	0.220822
2792.72243	0.221269
2790.79376	0.221612
2788.86508	0.221828
2786.93640	0.222141
2785.00773	0.222608
2783.07905	0.222995
2781.15038	0.223227
2779.22170	0.223536
2777.29303	0.223996
2775.36435	0.224392
2773.43567	0.224654
2771.50700	0.224961
2769.57832	0.225343
2767.64965	0.225603
2765.72097	0.225767
2763.79230	0.226114
2761.86362	0.226619
2759.93494	0.226951
2758.00627	0.227103
2756.07759	0.227376
2754.14892	0.227781
2752.22024	0.228060
2750.29157	0.228227
2748.36289	0.228533
2746.43421	0.228948
2744.50554	0.229214
2742.57686	0.229353
2740.64819	0.229639
2738.71951	0.230069
2736.79084	0.230381
2734.86216	0.230579
2732.93348	0.230883
2731.00481	0.231257
2729.07613	0.231484
2727.14746	0.231629
2725.21878	0.231934
2723.29011	0.232330
2721.36143	0.232589
2719.43275	0.232821
2717.50408	0.233202
2715.57540	0.233561
2713.64673	0.233742
2711.71805	0.233931
2709.78938	0.234285
2707.86070	0.234629
2705.93202	0.234784
2704.00335	0.234906
2702.07467	0.235217
2700.14600	0.235605
2698.21732	0.235872
2696.28865	0.236113
2694.35997	0.236464
2692.43129	0.236804
2690.50262	0.237038
2688.57394	0.237302
2686.64527	0.237675
2684.71659	0.237999
2682.78792	0.238179
2680.85924	0.238385
2678.93056	0.238735
2677.00189	0.239045
2675.07321	0.239181
2673.14454	0.239349
2671.21586	0.239714
2669.28719	0.240074
2667.35851	0.240269
2665.42983	0.240500
2663.50116	0.240908
2661.57248	0.241280
2659.64381	0.241480
2657.71513	0.241728
2655.78646	0.242136
2653.85778	0.242435
2651.92910	0.242515
2650.00043	0.242697
2648.07175	0.243149
2646.14308	0.243597
2644.21440	0.243853
2642.28573	0.244100
2640.35705	0.244451
2638.42837	0.244728
2636.49970	0.244912
2634.57102	0.245239
2632.64235	0.245700
2630.71367	0.246022
2628.78500	0.246184
2626.85632	0.246460
2624.92764	0.246869
2622.99897	0.247150
2621.07029	0.247316
2619.14162	0.247610
2617.21294	0.248031
2615.28427	0.248377
2613.35559	0.248621
2611.42691	0.248949
2609.49824	0.249354
2607.56956	0.249603
2605.64089	0.249759
2603.71221	0.250125
2601.78354	0.250625
2599.85486	0.250950
2597.92618	0.251118
2595.99751	0.251400
2594.06883	0.251815
2592.14016	0.252129
2590.21148	0.252341
2588.28281	0.252657
2586.35413	0.253014
2584.42545	0.253220
2582.49678	0.253408
2580.56810	0.253774
2578.63943	0.254176
2576.71075	0.254403
2574.78208	0.254571
2572.85340	0.254912
2570.92472	0.255294
2568.99605	0.255486
2567.06737	0.255654
2565.13870	0.255981
2563.21002	0.256284
2561.28135	0.256434
2559.35267	0.256624
2557.42399	0.256972
2555.49532	0.257304
2553.56664	0.257493
2551.63797	0.257720
2549.70929	0.258150
2547.78062	0.258542
2545.85194	0.258683
2543.92326	0.258833
2541.99459	0.259220
2540.06591	0.259600
2538.13724	0.259764
2536.20856	0.259927
2534.27989	0.260254
2532.35121	0.260562
2530.42253	0.260724
2528.49386	0.260941
2526.56518	0.261370
2524.63651	0.261777
2522.70783	0.261961
2520.77916	0.262159
2518.85048	0.262548
2516.92181	0.262907
2514.99313	0.263089
2513.06445	0.263262
2511.13578	0.263576
2509.20710	0.263945
2507.27843	0.264257
2505.34975	0.264596
2503.42108	0.265021
2501.49240	0.265344
2499.56372	0.265500
2497.63505	0.265751
2495.70637	0.266188
2493.77770	0.266576
2491.84902	0.266837
2489.92035	0.267155
2487.99167	0.267562
2486.06299	0.267884
2484.13432	0.268152
2482.20564	0.268566
2480.27697	0.269032
2478.34829	0.269311
2476.41962	0.269476
2474.49094	0.269753
2472.56226	0.270134
2470.63359	0.270431
2468.70491	0.270626
2466.77624	0.270912
2464.84756	0.271315
2462.91889	0.271610
2460.99021	0.271759
2459.06153	0.271997
2457.13286	0.272386
2455.20418	0.272733
2453.27551	0.273006
2451.34683	0.273340
2449.41816	0.273684
2447.48948	0.273901
2445.56080	0.274083
2443.63213	0.274425
2441.70345	0.274867
2439.77478	0.275150
2437.84610	0.275300
2435.91743	0.275577
2433.98875	0.275943
2432.06007	0.276192
2430.13140	0.276392
2428.20272	0.276733
2426.27405	0.277118
2424.34537	0.277340
2422.41670	0.277524
2420.48802	0.277899
2418.55934	0.278338
2416.63067	0.278598
2414.70199	0.278765
2412.77332	0.279066
2410.84464	0.279445
2408.91597	0.279687
2406.98729	0.279871
2405.05861	0.280203
2403.12994	0.280561
2401.20126	0.280754
2399.27259	0.280950
2397.34391	0.281331
2395.41524	0.281707
2393.48656	0.281900
2391.55788	0.282100
2389.62921	0.282467
2387.70053	0.282838
2385.77186	0.283024
2383.84318	0.283114
2381.91451	0.283286
2379.98583	0.283437
2378.05715	0.283382
2376.12848	0.283273
2374.19980	0.283302
2372.27113	0.283309
2370.34245	0.283199
2368.41378	0.283229
2366.48510	0.283495
2364.55642	0.283728
2362.62775	0.283792
2360.69907	0.283935
2358.77040	0.284368
2356.84172	0.284892
2354.91305	0.285321
2352.98437	0.285855
2351.05569	0.286549
2349.12702	0.286966
2347.19834	0.286945
2345.26967	0.286935
2343.34099	0.287191
2341.41232	0.287464
2339.48364	0.287621
2337.55496	0.287858
2335.62629	0.288231
2333.69761	0.288535
2331.76894	0.288739
2329.84026	0.289027
2327.91159	0.289422
2325.98291	0.289768
2324.05423	0.290064
2322.12556	0.290465
2320.19688	0.290956
2318.26821	0.291363
2316.33953	0.291685
2314.41086	0.292095
2312.48218	0.292585
2310.55350	0.292998
2308.62483	0.293316
2306.69615	0.293652
2304.76748	0.294033
2302.83880	0.294343
2300.91013	0.294603
2298.98145	0.294976
2297.05277	0.295400
2295.12410	0.295656
2293.19542	0.295836
2291.26675	0.296190
2289.33807	0.296624
2287.40940	0.296886
2285.48072	0.297044
2283.55204	0.297321
2281.62337	0.297667
2279.69469	0.297904
2277.76602	0.298092
2275.83734	0.298372
2273.90867	0.298692
2271.97999	0.298946
2270.05131	0.299188
2268.12264	0.299504
2266.19396	0.299804
2264.26529	0.299985
2262.33661	0.300167
2260.40794	0.300476
2258.47926	0.300797
2256.55058	0.301018
2254.62191	0.301220
2252.69323	0.301510
2250.76456	0.301851
2248.83588	0.302141
2246.90721	0.302400
2244.97853	0.302678
2243.04985	0.302907
2241.12118	0.303060
2239.19250	0.303263
2237.26383	0.303619
2235.33515	0.304009
2233.40648	0.304258
2231.47780	0.304469
2229.54912	0.304799
2227.62045	0.305146
2225.69177	0.305387
2223.76310	0.305582
2221.83442	0.305804
2219.90575	0.306010
2217.97707	0.306165
2216.04839	0.306363
2214.11972	0.306680
2212.19104	0.306983
2210.26237	0.307156
2208.33369	0.307359
2206.40502	0.307722
2204.47634	0.308047
2202.54766	0.308184
2200.61899	0.308316
2198.69031	0.308602
2196.76164	0.308891
2194.83296	0.309063
2192.90429	0.309250
2190.97561	0.309514
2189.04693	0.309721
2187.11826	0.309846
2185.18958	0.310064
2183.26091	0.310440
2181.33223	0.310763
2179.40356	0.310937
2177.47488	0.311146
2175.54620	0.311449
2173.61753	0.311689
2171.68885	0.311858
2169.76018	0.312108
2167.83150	0.312421
2165.90283	0.312649
2163.97415	0.312826
2162.04547	0.313133
2160.11680	0.313527
2158.18812	0.313786
2156.25945	0.313938
2154.33077	0.314178
2152.40210	0.314507
2150.47342	0.314790
2148.54474	0.315000
2146.61607	0.315231
2144.68739	0.315526
2142.75872	0.315803
2140.83004	0.315996
2138.90137	0.316171
2136.97269	0.316372
2135.04401	0.316518
2133.11534	0.316651
2131.18666	0.316912
2129.25799	0.317226
2127.32931	0.317434
2125.40064	0.317573
2123.47196	0.317789
2121.54328	0.318067
2119.61461	0.318253
2117.68593	0.318383
2115.75726	0.318625
2113.82858	0.318918
2111.89991	0.319120
2109.97123	0.319315
2108.04255	0.319603
2106.11388	0.319878
2104.18520	0.320050
2102.25653	0.320182
2100.32785	0.320376
2098.39918	0.320661
2096.47050	0.320940
2094.54182	0.321173
2092.61315	0.321440
2090.68447	0.321707
2088.75580	0.321902
2086.82712	0.322129
2084.89845	0.322464
2082.96977	0.322769
2081.04109	0.322929
2079.11242	0.323098
2077.18374	0.323452
2075.25507	0.323821
2073.32639	0.323966
2071.39772	0.324013
2069.46904	0.324193
2067.54036	0.324461
2065.61169	0.324689
2063.68301	0.324965
2061.75434	0.325335
2059.82566	0.325588
2057.89699	0.325669
2055.96831	0.325819
2054.03963	0.326164
2052.11096	0.326500
2050.18228	0.326649
2048.25361	0.326776
2046.32493	0.327021
2044.39626	0.327271
2042.46758	0.327456
2040.53890	0.327653
2038.61023	0.327892
2036.68155	0.328100
2034.75288	0.328273
2032.82420	0.328536
2030.89553	0.328873
2028.96685	0.329080
2027.03817	0.329172
2025.10950	0.329375
2023.18082	0.329683
2021.25215	0.329916
2019.32347	0.330064
2017.39480	0.330290
2015.46612	0.330628
2013.53744	0.330930
2011.60877	0.331161
2009.68009	0.331383
2007.75142	0.331585
2005.82274	0.331763
2003.89407	0.331942
2001.96539	0.332174
2000.03671	0.332472
1998.10804	0.332701
1996.17936	0.332801
1994.25069	0.332928
1992.32201	0.333179
1990.39334	0.333458
1988.46466	0.333667
1986.53598	0.333856
1984.60731	0.334098
1982.67863	0.334328
1980.74996	0.334485
1978.82128	0.334645
1976.89261	0.334864
1974.96393	0.335048
1973.03525	0.335169
1971.10658	0.335343
1969.17790	0.335540
1967.24923	0.335660
1965.32055	0.335804
1963.39188	0.336061
1961.46320	0.336349
1959.53452	0.336574
1957.60585	0.336734
1955.67717	0.336921
1953.74850	0.337148
1951.81982	0.337323
1949.89115	0.337472
1947.96247	0.337697
1946.03379	0.337894
1944.10512	0.337921
1942.17644	0.338019
1940.24777	0.338411
1938.31909	0.338850
1936.39042	0.339083
1934.46174	0.339205
1932.53306	0.339400
1930.60439	0.339617
1928.67571	0.339784
1926.74704	0.339981
1924.81836	0.340192
1922.88969	0.340328
1920.96101	0.340340
1919.03233	0.340372
1917.10366	0.340733
1915.17498	0.341242
1913.24631	0.341455
1911.31763	0.341469
1909.38896	0.341636
1907.46028	0.341967
1905.53160	0.342249
1903.60293	0.342485
1901.67425	0.342765
1899.74558	0.342950
1897.81690	0.342950
1895.88823	0.343014
1893.95955	0.343291
1892.03087	0.343421
1890.10220	0.343335
1888.17352	0.343511
1886.24485	0.343948
1884.31617	0.344249
1882.38750	0.344386
1880.45882	0.344569
1878.53014	0.344837
1876.60147	0.345087
1874.67279	0.345283
1872.74412	0.345344
1870.81544	0.345197
1868.88677	0.345107
1866.95809	0.345399
1865.02941	0.345938
1863.10074	0.346402
1861.17206	0.346700
1859.24339	0.346900
1857.31471	0.347123
1855.38604	0.347384
1853.45736	0.347577
1851.52868	0.347674
1849.60001	0.347745
1847.67133	0.347662
1845.74266	0.347332
1843.81398	0.347355
1841.88531	0.348057
1839.95663	0.348775
1838.02795	0.349107
1836.09928	0.349277
1834.17060	0.349368
1832.24193	0.349220
1830.31325	0.349056
1828.38458	0.349232
1826.45590	0.349549
1824.52722	0.349906
1822.59855	0.350388
1820.66987	0.350756
1818.74120	0.350947
1816.81252	0.351159
1814.88385	0.351322
1812.95517	0.351279
1811.02649	0.351280
1809.09782	0.351570
1807.16914	0.351916
1805.24047	0.352000
1803.31179	0.351804
1801.38312	0.351604
1799.45444	0.351660
1797.52576	0.351903
1795.59709	0.352008
1793.66841	0.351848
1791.73974	0.351850
1789.81106	0.352327
1787.88239	0.352822
1785.95371	0.352975
1784.02503	0.352997
1782.09636	0.353030
1780.16768	0.353175
1778.23901	0.353425
1776.31033	0.353329
1774.38166	0.352799
1772.45298	0.352485
1770.52430	0.352621
1768.59563	0.352885
1766.66695	0.353294
1764.73828	0.353622
1762.80960	0.353556
1760.88093	0.353496
1758.95225	0.353550
1757.02357	0.353593
1755.09490	0.353621
1753.16622	0.353188
1751.23755	0.352412
1749.30887	0.352067
1747.38020	0.352156
1745.45152	0.352206
1743.52284	0.352152
1741.59417	0.352090
1739.66549	0.352053
1737.73682	0.351716
1735.80814	0.350847
1733.87947	0.350496
1731.95079	0.351259
1730.02211	0.352152
1728.09344	0.352714
1726.16476	0.352987
1724.23609	0.352927
1722.30741	0.352706
1720.37874	0.352222
1718.45006	0.351677
1716.52138	0.351709
1714.59271	0.352366
1712.66403	0.353183
1710.73536	0.353747
1708.80668	0.353777
1706.87801	0.353356
1704.94933	0.352822
1703.02065	0.351909
1701.09198	0.350853
1699.16330	0.350802
1697.23463	0.351498
1695.30595	0.352256
1693.37728	0.353064
1691.44860	0.353349
1689.51992	0.353096
1687.59125	0.352577
1685.66257	0.351712
1683.73390	0.351363
1681.80522	0.352003
1679.87655	0.352719
1677.94787	0.352740
1676.01919	0.352346
1674.09052	0.352152
1672.16184	0.351939
1670.23317	0.351579
1668.30449	0.351787
1666.37582	0.352350
1664.44714	0.352341
1662.51846	0.352108
1660.58979	0.352340
1658.66111	0.352536
1656.73244	0.351753
1654.80376	0.350233
1652.87509	0.349655
1650.94641	0.350323
1649.01773	0.350578
1647.08906	0.350321
1645.16038	0.350723
1643.23171	0.351510
1641.30303	0.351827
1639.37436	0.351400
1637.44568	0.350458
1635.51700	0.350076
1633.58833	0.350827
1631.65965	0.351538
1629.73098	0.351368
1627.80230	0.350921
1625.87363	0.350471
1623.94495	0.349730
1622.01627	0.349009
1620.08760	0.348671
1618.15892	0.348736
1616.23025	0.349604
1614.30157	0.351204
1612.37290	0.352518
1610.44422	0.353126
1608.51554	0.353474
1606.58687	0.353855
1604.65819	0.354242
1602.72952	0.354583
1600.80084	0.354878
1598.87217	0.355099
1596.94349	0.355263
1595.01481	0.355470
1593.08614	0.355732
1591.15746	0.355996
1589.22879	0.356273
1587.30011	0.356519
1585.37144	0.356690
1583.44276	0.356920
1581.51408	0.357245
1579.58541	0.357321
1577.65673	0.357023
1575.72806	0.357014
1573.79938	0.357518
1571.87071	0.357764
1569.94203	0.357729
1568.01335	0.358029
1566.08468	0.358529
1564.15600	0.358700
1562.22733	0.357972
1560.29865	0.356762
1558.36998	0.356721
1556.44130	0.357955
1554.51262	0.359029
1552.58395	0.359544
1550.65527	0.359870
1548.72660	0.360050
1546.79792	0.359814
1544.86925	0.359170
1542.94057	0.358489
1541.01189	0.358198
1539.08322	0.358814
1537.15454	0.359826
1535.22587	0.360084
1533.29719	0.360019
1531.36852	0.360433
1529.43984	0.360693
1527.51116	0.360390
1525.58249	0.359956
1523.65381	0.359341
1521.72514	0.358811
1519.79646	0.359057
1517.86779	0.359726
1515.93911	0.360345
1514.01043	0.360824
1512.08176	0.360757
1510.15308	0.359963
1508.22441	0.359033
1506.29573	0.359160
1504.36706	0.360425
1502.43838	0.361177
1500.50970	0.360703
1498.58103	0.360103
1496.65235	0.360197
1494.72368	0.360477
1492.79500	0.360108
1490.86633	0.359249
1488.93765	0.358703
1487.00897	0.358726
1485.08030	0.358924
1483.15162	0.358850
1481.22295	0.358369
1479.29427	0.357423
1477.36560	0.356063
1475.43692	0.354621
1473.50824	0.353377
1471.57957	0.352626
1469.65089	0.352261
1467.72222	0.351533
1465.79354	0.350485
1463.86487	0.349930
1461.93619	0.349575
1460.00751	0.348271
1458.07884	0.346422
1456.15016	0.345875
1454.22149	0.346780
1452.29281	0.347547
1450.36414	0.347614
1448.43546	0.347534
1446.50678	0.347693
1444.57811	0.348076
1442.64943	0.348526
1440.72076	0.348774
1438.79208	0.348570
1436.86341	0.348480
1434.93473	0.349153
1433.00605	0.350017
1431.07738	0.350536
1429.14870	0.351086
1427.22003	0.351680
1425.29135	0.352007
1423.36268	0.352110
1421.43400	0.351862
1419.50532	0.351584
1417.57665	0.352096
1415.64797	0.353044
1413.71930	0.353627
1411.79062	0.353911
1409.86195	0.354089
1407.93327	0.354093
1406.00459	0.353997
1404.07592	0.353965
1402.14724	0.353795
1400.21857	0.353363
1398.28989	0.353008
1396.36122	0.352831
1394.43254	0.352799
1392.50386	0.352865
1390.57519	0.352534
1388.64651	0.351675
1386.71784	0.350922
1384.78916	0.350592
1382.86049	0.350436
1380.93181	0.350218
1379.00313	0.349919
1377.07446	0.349606
1375.14578	0.349372
1373.21711	0.349391
1371.28843	0.349588
1369.35976	0.349732
1367.43108	0.349882
1365.50240	0.349929
1363.57373	0.349755
1361.64505	0.349726
1359.71638	0.349980
1357.78770	0.350199
1355.85903	0.350299
1353.93035	0.350429
1352.00167	0.350551
1350.07300	0.350606
1348.14432	0.350696
1346.21565	0.350859
1344.28697	0.350934
1342.35830	0.350720
1340.42962	0.350338
1338.50094	0.350142
1336.57227	0.350157
1334.64359	0.350152
1332.71492	0.350036
1330.78624	0.349800
1328.85757	0.349429
1326.92889	0.348961
1325.00021	0.348520
1323.07154	0.348200
1321.14286	0.347881
1319.21419	0.347440
1317.28551	0.346991
1315.35684	0.346639
1313.42816	0.346338
1311.49948	0.346013
1309.57081	0.345559
1307.64213	0.344960
1305.71346	0.344338
1303.78478	0.343777
1301.85611	0.343298
1299.92743	0.342918
1297.99875	0.342545
1296.07008	0.342089
1294.14140	0.341672
1292.21273	0.341355
1290.28405	0.341049
1288.35538	0.340745
1286.42670	0.340407
1284.49802	0.339920
1282.56935	0.339334
1280.64067	0.338780
1278.71200	0.338207
1276.78332	0.337505
1274.85465	0.336625
1272.92597	0.335586
1270.99729	0.334407
1269.06862	0.332936
1267.13994	0.331181
1265.21127	0.329472
1263.28259	0.328147
1261.35392	0.327433
1259.42524	0.327311
1257.49656	0.327472
1255.56789	0.327584
1253.63921	0.327456
1251.71054	0.327011
1249.78186	0.326289
1247.85319	0.325403
1245.92451	0.324407
1243.99583	0.323383
1242.06716	0.322416
1240.13848	0.321422
1238.20981	0.320322
1236.28113	0.319174
1234.35246	0.318046
1232.42378	0.316875
1230.49510	0.315595
1228.56643	0.314384
1226.63775	0.313417
1224.70908	0.312553
1222.78040	0.311621
1220.85173	0.310653
1218.92305	0.309723
1216.99437	0.308833
1215.06570	0.307902
1213.13702	0.306881
1211.20835	0.305793
1209.27967	0.304639
1207.35100	0.303479
1205.42232	0.302410
1203.49364	0.301377
1201.56497	0.300249
1199.63629	0.299042
1197.70762	0.297905
1195.77894	0.296895
1193.85027	0.295888
1191.92159	0.294699
1189.99291	0.293294
1188.06424	0.291831
1186.13556	0.290444
1184.20689	0.289061
1182.27821	0.287564
1180.34954	0.286035
1178.42086	0.284550
1176.49218	0.282976
1174.56351	0.281314
1172.63483	0.279774
1170.70616	0.278351
1168.77748	0.276836
1166.84881	0.275194
1164.92013	0.273524
1162.99145	0.271911
1161.06278	0.270396
1159.13410	0.268920
1157.20543	0.267445
1155.27675	0.266023
1153.34808	0.264660
1151.41940	0.263308
1149.49072	0.261977
1147.56205	0.260650
1145.63337	0.259186
1143.70470	0.257545
1141.77602	0.255893
1139.84735	0.254295
1137.91867	0.252608
1135.98999	0.250668
1134.06132	0.248368
1132.13264	0.245684
1130.20397	0.242649
1128.27529	0.239264
1126.34662	0.235555
1124.41794	0.231630
1122.48926	0.227671
1120.56059	0.223860
1118.63191	0.220215
1116.70324	0.216733
1114.77456	0.213559
1112.84589	0.210841
1110.91721	0.208666
1108.98853	0.207051
1107.05986	0.205933
1105.13118	0.205261
1103.20251	0.204991
1101.27383	0.205093
1099.34516	0.205641
1097.41648	0.206667
1095.48780	0.207983
1093.55913	0.209322
1091.63045	0.210554
1089.70178	0.211747
1087.77310	0.212935
1085.84443	0.213941
1083.91575	0.214671
1081.98707	0.215233
1080.05840	0.215674
1078.12972	0.215981
1076.20105	0.216199
1074.27237	0.216385
1072.34370	0.216581
1070.41502	0.216764
1068.48634	0.216947
1066.55767	0.217246
1064.62899	0.217648
1062.70032	0.217999
1060.77164	0.218288
1058.84297	0.218623
1056.91429	0.219030
1054.98561	0.219518
1053.05694	0.220080
1051.12826	0.220575
1049.19959	0.220966
1047.27091	0.221436
1045.34224	0.222107
1043.41356	0.222907
1041.48488	0.223617
1039.55621	0.224117
1037.62753	0.224595
1035.69886	0.225213
1033.77018	0.225859
1031.84151	0.226463
1029.91283	0.227050
1027.98415	0.227596
1026.05548	0.228125
1024.12680	0.228705
1022.19813	0.229356
1020.26945	0.230052
1018.34078	0.230774
1016.41210	0.231541
1014.48342	0.232388
1012.55475	0.233354
1010.62607	0.234451
1008.69740	0.235566
1006.76872	0.236511
1004.84005	0.237258
1002.91137	0.237935
1000.98269	0.238609
999.05402	0.239295
997.12534	0.239920
995.19667	0.240337
993.26799	0.240606
991.33932	0.240895
989.41064	0.241162
987.48196	0.241304
985.55329	0.241383
983.62461	0.241493
981.69594	0.241566
979.76726	0.241482
977.83859	0.241283
975.90991	0.241066
973.98123	0.240859
972.05256	0.240704
970.12388	0.240629
968.19521	0.240507
966.26653	0.240214
964.33786	0.239832
962.40918	0.239466
960.48050	0.239184
958.55183	0.239043
956.62315	0.238946
954.69448	0.238743
952.76580	0.238387
950.83713	0.237927
948.90845	0.237493
946.97977	0.237151
945.05110	0.236733
943.12242	0.236090
941.19375	0.235278
939.26507	0.234383
937.33640	0.233467
935.40772	0.232554
933.47904	0.231568
931.55037	0.230457
929.62169	0.229256
927.69302	0.228003
925.76434	0.226738
923.83567	0.225508
921.90699	0.224264
919.97831	0.222896
918.04964	0.221447
916.12096	0.220052
914.19229	0.218638
912.26361	0.217027
910.33494	0.215294
908.40626	0.213738
906.47758	0.212513
904.54891	0.211495
902.62023	0.210486
900.69156	0.209373
898.76288	0.208172
896.83421	0.206988
894.90553	0.205912
892.97685	0.204959
891.04818	0.204030
889.11950	0.203051
887.19083	0.202110
885.26215	0.201322
883.33348	0.200708
881.40480	0.200222
879.47612	0.199699
877.54745	0.199019
875.61877	0.198365
873.69010	0.197908
871.76142	0.197505
869.83275	0.197021
867.90407	0.196473
865.97539	0.195939
864.04672	0.195551
862.11804	0.195390
860.18937	0.195364
858.26069	0.195230
856.33202	0.194888
854.40334	0.194541
852.47466	0.194312
850.54599	0.194032
848.61731	0.193611
846.68864	0.193157
844.75996	0.192708
842.83129	0.192261
840.90261	0.191828
838.97394	0.191353
837.04526	0.190781
835.11658	0.189992
833.18791	0.188855
831.25923	0.187432
829.33056	0.185947
827.40188	0.184517
825.47321	0.183050
823.54453	0.181586
821.61585	0.180302
819.68718	0.179279
817.75850	0.178543
815.82983	0.178001
813.90115	0.177482
811.97248	0.176970
810.04380	0.176579
808.11512	0.176388
806.18645	0.176373
804.25777	0.176462
802.32910	0.176471
800.40042	0.176060
798.47175	0.175189
796.54307	0.174294
794.61439	0.173658
792.68572	0.173206
790.75704	0.172836
788.82837	0.172498
786.89969	0.172176
784.97102	0.171912
783.04234	0.171659
781.11366	0.171286
779.18499	0.170807
777.25631	0.170331
775.32764	0.169918
773.39896	0.169568
771.47029	0.169197
769.54161	0.168713
767.61293	0.168207
765.68426	0.167789
763.75558	0.167330
761.82691	0.166716
759.89823	0.165949
757.96956	0.165020
756.04088	0.164048
754.11220	0.163190
752.18353	0.162391
750.25485	0.161438
748.32618	0.160197
746.39750	0.158794
744.46883	0.157441
742.54015	0.156173
740.61147	0.155043
738.68280	0.154246
736.75412	0.153891
734.82545	0.153940
732.89677	0.154186
730.96810	0.154396
729.03942	0.154538
727.11074	0.154710
725.18207	0.154945
723.25339	0.155161
721.32472	0.155407
719.39604	0.155820
717.46737	0.156383
715.53869	0.157086
713.61001	0.157949
711.68134	0.158793
709.75266	0.159347
707.82399	0.159523
705.89531	0.159366
703.96664	0.159054
702.03796	0.158706
700.10928	0.158166
698.18061	0.157369
696.25193	0.156486
694.32326	0.155684
692.39458	0.154908
690.46591	0.154093
688.53723	0.153387
686.60855	0.152797
684.67988	0.152133
682.75120	0.151342
680.82253	0.150566
678.89385	0.149870
676.96518	0.149092
675.03650	0.148113
673.10782	0.146937
671.17915	0.145456
669.25047	0.143811
667.32180	0.142600
665.39312	0.141809
663.46445	0.140807
661.53577	0.139515
659.60709	0.138142
657.67842	0.136821
655.74974	0.135691
653.82107	0.134640
651.89239	0.133413
649.96372	0.131998
648.03504	0.130604
646.10636	0.129276
644.17769	0.127862
642.24901	0.126291
640.32034	0.124610
638.39166	0.122865
636.46299	0.121125
634.53431	0.119292
632.60563	0.116788
630.67696	0.112673
628.74828	0.106390
626.81961	0.098742
624.89093	0.091253
622.96226	0.085194
621.03358	0.081415
619.10490	0.079416
617.17623	0.077946
615.24755	0.076415
613.31888	0.074613
611.39020	0.072865
609.46153	0.071922
607.53285	0.071923
605.60417	0.072458
603.67550	0.073409
601.74682	0.074945
599.81815	0.076761
597.88947	0.078183
595.96080	0.079126
594.03212	0.079887
592.10344	0.080468
590.17477	0.080801
588.24609	0.080798
586.31742	0.080335
584.38874	0.079653
582.46007	0.079095
580.53139	0.078649
578.60271	0.078118
576.67404	0.077316
574.74536	0.076196
572.81669	0.074972
570.88801	0.073852
568.95934	0.072863
567.03066	0.072046
565.10198	0.071424
563.17331	0.070879
561.24463	0.070317
559.31596	0.069811
557.38728	0.069451
555.45861	0.069117
553.52993	0.068675
551.60125	0.068201
549.67258	0.067800
547.74390	0.067476
545.81523	0.067167
543.88655	0.066750
541.95788	0.066223
540.02920	0.065755
538.10052	0.065508
536.17185	0.065422
534.24317	0.065132
532.31450	0.064418
530.38582	0.063630
528.45715	0.063194
526.52847	0.062980
524.59979	0.062537
522.67112	0.061691
520.74244	0.060612
518.81377	0.059440
516.88509	0.058289
514.95642	0.057416
513.02774	0.056827
511.09906	0.056268
509.17039	0.055805
507.24171	0.055567
505.31304	0.055343
503.38436	0.054853
501.45569	0.053937
499.52701	0.052730
497.59833	0.051688
495.66966	0.050995
493.74098	0.050345
491.81231	0.049484
489.88363	0.048451
487.95496	0.047368
486.02628	0.046285
484.09760	0.045357
482.16893	0.044684
480.24025	0.043914
478.31158	0.042821
476.38290	0.041737
474.45423	0.040947
472.52555	0.040353
470.59687	0.039675
468.66820	0.038793
466.73952	0.037966
464.81085	0.037506
462.88217	0.037358
460.95350	0.037248
459.02482	0.037045
457.09614	0.036807
455.16747	0.036617
453.23879	0.036542
451.31012	0.036698
449.38144	0.036845
447.45277	0.036490
445.52409	0.035750
443.59541	0.035152
441.66674	0.034832
439.73806	0.034626
437.80939	0.034383
435.88071	0.033901
433.95204	0.033062
432.02336	0.032061
430.09468	0.031117
428.16601	0.030187
426.23733	0.029191
424.30866	0.028128
422.37998	0.026882
420.45131	0.025592
418.52263	0.024588
416.59395	0.023541
414.66528	0.022152
412.73660	0.020984
410.80793	0.020303
408.87925	0.019699
406.95058	0.018967
405.02190	0.018029
403.09322	0.016759
401.16455	0.015302
399.23587	0.013961
397.30720	0.012933
395.37852	0.012208
393.44985	0.011611
391.52117	0.010997
389.59249	0.010384
387.66382	0.009886
385.73514	0.009444
383.80647	0.008808
381.87779	0.007910
379.94912	0.006945
378.02044	0.006173
376.09176	0.005703
374.16309	0.005312
372.23441	0.004725
370.30574	0.004022
368.37706	0.003517
