7496.76250	0.001851
7494.83382	0.001871
7492.90514	0.001869
7490.97647	0.001851
7489.04779	0.001859
7487.11912	0.001881
7485.19044	0.001876
7483.26177	0.001865
7481.33309	0.001878
7479.40441	0.001888
7477.47574	0.001884
7475.54706	0.001894
7473.61839	0.001916
7471.68971	0.001924
7469.76104	0.001911
7467.83236	0.001906
7465.90368	0.001926
7463.97501	0.001948
7462.04633	0.001949
7460.11766	0.001949
7458.18898	0.001970
7456.26031	0.001981
7454.33163	0.001966
7452.40295	0.001963
7450.47428	0.001988
7448.54560	0.001994
7446.61693	0.001963
7444.68825	0.001942
7442.75958	0.001956
7440.83090	0.001968
7438.90222	0.001961
7436.97355	0.001967
7435.04487	0.001988
7433.11620	0.001988
7431.18752	0.001970
7429.25885	0.001977
7427.33017	0.002012
7425.40149	0.002025
7423.47282	0.002006
7421.54414	0.002008
7419.61547	0.002042
7417.68679	0.002051
7415.75812	0.002033
7413.82944	0.002035
7411.90076	0.002052
7409.97209	0.002049
7408.04341	0.002034
7406.11474	0.002041
7404.18606	0.002066
7402.25739	0.002075
7400.32871	0.002069
7398.40003	0.002084
7396.47136	0.002110
7394.54268	0.002100
7392.61401	0.002078
7390.68533	0.002089
7388.75666	0.002109
7386.82798	0.002104
7384.89930	0.002096
7382.97063	0.002098
7381.04195	0.002096
7379.11328	0.002087
7377.18460	0.002091
7375.25593	0.002109
7373.32725	0.002114
7371.39857	0.002103
7369.46990	0.002109
7367.54122	0.002140
7365.61255	0.002151
7363.68387	0.002138
7361.75520	0.002148
7359.82652	0.002176
7357.89784	0.002190
7355.96917	0.002187
7354.04049	0.002183
7352.11182	0.002184
7350.18314	0.002188
7348.25447	0.002192
7346.32579	0.002202
7344.39711	0.002209
7342.46844	0.002196
7340.53976	0.002186
7338.61109	0.002207
7336.68241	0.002233
7334.75374	0.002224
7332.82506	0.002199
7330.89638	0.002203
7328.96771	0.002217
7327.03903	0.002210
7325.11036	0.002211
7323.18168	0.002234
7321.25301	0.002251
7319.32433	0.002250
7317.39565	0.002248
7315.46698	0.002253
7313.53830	0.002262
7311.60963	0.002269
7309.68095	0.002281
7307.75228	0.002303
7305.82360	0.002317
7303.89492	0.002298
7301.96625	0.002277
7300.03757	0.002286
7298.10890	0.002297
7296.18022	0.002284
7294.25155	0.002284
7292.32287	0.002325
7290.39419	0.002350
7288.46552	0.002322
7286.53684	0.002291
7284.60817	0.002297
7282.67949	0.002322
7280.75082	0.002347
7278.82214	0.002366
7276.89346	0.002367
7274.96479	0.002347
7273.03611	0.002329
7271.10744	0.002339
7269.17876	0.002358
7267.25009	0.002362
7265.32141	0.002369
7263.39273	0.002388
7261.46406	0.002401
7259.53538	0.002397
7257.60671	0.002395
7255.67803	0.002412
7253.74936	0.002427
7251.82068	0.002413
7249.89200	0.002399
7247.96333	0.002419
7246.03465	0.002445
7244.10598	0.002438
7242.17730	0.002426
7240.24863	0.002441
7238.31995	0.002449
7236.39127	0.002449
7234.46260	0.002477
7232.53392	0.002508
7230.60525	0.002496
7228.67657	0.002454
7226.74790	0.002447
7224.81922	0.002480
7222.89054	0.002498
7220.96187	0.002493
7219.03319	0.002504
7217.10452	0.002524
7215.17584	0.002523
7213.24717	0.002526
7211.31849	0.002557
7209.38981	0.002578
7207.46114	0.002553
7205.53246	0.002521
7203.60379	0.002525
7201.67511	0.002533
7199.74644	0.002520
7197.81776	0.002526
7195.88908	0.002567
7193.96041	0.002600
7192.03173	0.002599
7190.10306	0.002590
7188.17438	0.002601
7186.24571	0.002622
7184.31703	0.002627
7182.38835	0.002627
7180.45968	0.002639
7178.53100	0.002645
7176.60233	0.002630
7174.67365	0.002623
7172.74498	0.002639
7170.81630	0.002645
7168.88762	0.002630
7166.95895	0.002636
7165.03027	0.002658
7163.10160	0.002655
7161.17292	0.002645
7159.24425	0.002663
7157.31557	0.002690
7155.38689	0.002685
7153.45822	0.002660
7151.52954	0.002654
7149.60087	0.002665
7147.67219	0.002676
7145.74352	0.002693
7143.81484	0.002718
7141.88616	0.002732
7139.95749	0.002722
7138.02881	0.002710
7136.10014	0.002727
7134.17146	0.002753
7132.24279	0.002753
7130.31411	0.002745
7128.38543	0.002757
7126.45676	0.002775
7124.52808	0.002776
7122.59941	0.002762
7120.67073	0.002757
7118.74206	0.002772
7116.81338	0.002794
7114.88470	0.002813
7112.95603	0.002834
7111.02735	0.002848
7109.09868	0.002837
7107.17000	0.002816
7105.24133	0.002820
7103.31265	0.002846
7101.38397	0.002867
7099.45530	0.002877
7097.52662	0.002882
7095.59795	0.002869
7093.66927	0.002849
7091.74060	0.002861
7089.81192	0.002893
7087.88324	0.002896
7085.95457	0.002879
7084.02589	0.002889
7082.09722	0.002907
7080.16854	0.002899
7078.23987	0.002882
7076.31119	0.002889
7074.38251	0.002913
7072.45384	0.002911
7070.52516	0.002882
7068.59649	0.002875
7066.66781	0.002905
7064.73914	0.002932
7062.81046	0.002939
7060.88178	0.002949
7058.95311	0.002958
7057.02443	0.002948
7055.09576	0.002935
7053.16708	0.002960
7051.23841	0.003009
7049.30973	0.003028
7047.38105	0.003013
7045.45238	0.003000
7043.52370	0.003001
7041.59503	0.003008
7039.66635	0.003019
7037.73768	0.003037
7035.80900	0.003044
7033.88032	0.003034
7031.95165	0.003035
7030.02297	0.003057
7028.09430	0.003073
7026.16562	0.003072
7024.23695	0.003074
7022.30827	0.003087
7020.37959	0.003087
7018.45092	0.003065
7016.52224	0.003050
7014.59357	0.003059
7012.66489	0.003068
7010.73622	0.003069
7008.80754	0.003086
7006.87886	0.003124
7004.95019	0.003146
7003.02151	0.003147
7001.09284	0.003167
6999.16416	0.003191
6997.23549	0.003180
6995.30681	0.003146
6993.37813	0.003134
6991.44946	0.003150
6989.52078	0.003171
6987.59211	0.003183
6985.66343	0.003192
6983.73476	0.003200
6981.80608	0.003200
6979.87740	0.003186
6977.94873	0.003176
6976.02005	0.003186
6974.09138	0.003204
6972.16270	0.003212
6970.23403	0.003217
6968.30535	0.003218
6966.37667	0.003207
6964.44800	0.003202
6962.51932	0.003228
6960.59065	0.003260
6958.66197	0.003264
6956.73330	0.003278
6954.80462	0.003325
6952.87594	0.003358
6950.94727	0.003345
6949.01859	0.003329
6947.08992	0.003333
6945.16124	0.003334
6943.23257	0.003340
6941.30389	0.003362
6939.37521	0.003360
6937.44654	0.003332
6935.51786	0.003326
6933.58919	0.003357
6931.66051	0.003389
6929.73184	0.003390
6927.80316	0.003380
6925.87448	0.003394
6923.94581	0.003420
6922.01713	0.003426
6920.08846	0.003411
6918.15978	0.003407
6916.23111	0.003423
6914.30243	0.003442
6912.37375	0.003448
6910.44508	0.003452
6908.51640	0.003460
6906.58773	0.003461
6904.65905	0.003457
6902.73038	0.003459
6900.80170	0.003468
6898.87302	0.003481
6896.94435	0.003497
6895.01567	0.003500
6893.08700	0.003489
6891.15832	0.003490
6889.22965	0.003525
6887.30097	0.003560
6885.37229	0.003554
6883.44362	0.003537
6881.51494	0.003539
6879.58627	0.003535
6877.65759	0.003524
6875.72892	0.003528
6873.80024	0.003546
6871.87156	0.003566
6869.94289	0.003583
6868.01421	0.003610
6866.08554	0.003655
6864.15686	0.003692
6862.22819	0.003695
6860.29951	0.003674
6858.37083	0.003661
6856.44216	0.003654
6854.51348	0.003638
6852.58481	0.003631
6850.65613	0.003653
6848.72746	0.003689
6846.79878	0.003711
6844.87010	0.003714
6842.94143	0.003707
6841.01275	0.003704
6839.08408	0.003710
6837.15540	0.003724
6835.22673	0.003751
6833.29805	0.003783
6831.36937	0.003793
6829.44070	0.003779
6827.51202	0.003762
6825.58335	0.003758
6823.65467	0.003753
6821.72600	0.003740
6819.79732	0.003739
6817.86864	0.003754
6815.93997	0.003770
6814.01129	0.003792
6812.08262	0.003827
6810.15394	0.003861
6808.22527	0.003886
6806.29659	0.003903
6804.36791	0.003917
6802.43924	0.003918
6800.51056	0.003905
6798.58189	0.003909
6796.65321	0.003933
6794.72454	0.003946
6792.79586	0.003945
6790.86718	0.003947
6788.93851	0.003950
6787.00983	0.003953
6785.08116	0.003957
6783.15248	0.003967
6781.22381	0.003987
6779.29513	0.004001
6777.36645	0.003997
6775.43778	0.003996
6773.50910	0.004004
6771.58043	0.004007
6769.65175	0.004017
6767.72308	0.004039
6765.79440	0.004049
6763.86572	0.004043
6761.93705	0.004048
6760.00837	0.004070
6758.07970	0.004082
6756.15102	0.004066
6754.22235	0.004047
6752.29367	0.004057
6750.36499	0.004085
6748.43632	0.004098
6746.50764	0.004095
6744.57897	0.004102
6742.65029	0.004114
6740.72162	0.004132
6738.79294	0.004165
6736.86426	0.004190
6734.93559	0.004194
6733.00691	0.004197
6731.07824	0.004208
6729.14956	0.004214
6727.22089	0.004208
6725.29221	0.004204
6723.36353	0.004211
6721.43486	0.004234
6719.50618	0.004268
6717.57751	0.004298
6715.64883	0.004315
6713.72016	0.004312
6711.79148	0.004294
6709.86280	0.004286
6707.93413	0.004306
6706.00545	0.004339
6704.07678	0.004357
6702.14810	0.004353
6700.21943	0.004353
6698.29075	0.004374
6696.36207	0.004392
6694.43340	0.004390
6692.50472	0.004386
6690.57605	0.004389
6688.64737	0.004395
6686.71870	0.004404
6684.79002	0.004412
6682.86134	0.004411
6680.93267	0.004405
6679.00399	0.004410
6677.07532	0.004431
6675.14664	0.004449
6673.21797	0.004453
6671.28929	0.004466
6669.36061	0.004502
6667.43194	0.004529
6665.50326	0.004512
6663.57459	0.004483
6661.64591	0.004494
6659.71724	0.004527
6657.78856	0.004545
6655.85988	0.004551
6653.93121	0.004561
6652.00253	0.004569
6650.07386	0.004578
6648.14518	0.004596
6646.21651	0.004609
6644.28783	0.004593
6642.35915	0.004571
6640.43048	0.004585
6638.50180	0.004632
6636.57313	0.004667
6634.64445	0.004662
6632.71578	0.004640
6630.78710	0.004623
6628.85842	0.004619
6626.92975	0.004644
6625.00107	0.004688
6623.07240	0.004715
6621.14372	0.004723
6619.21505	0.004737
6617.28637	0.004753
6615.35769	0.004759
6613.42902	0.004765
6611.50034	0.004780
6609.57167	0.004800
6607.64299	0.004807
6605.71432	0.004795
6603.78564	0.004784
6601.85696	0.004803
6599.92829	0.004854
6597.99961	0.004893
6596.07094	0.004901
6594.14226	0.004903
6592.21359	0.004912
6590.28491	0.004909
6588.35623	0.004901
6586.42756	0.004906
6584.49888	0.004925
6582.57021	0.004938
6580.64153	0.004949
6578.71286	0.004975
6576.78418	0.004991
6574.85550	0.004983
6572.92683	0.004990
6570.99815	0.005021
6569.06948	0.005044
6567.14080	0.005049
6565.21213	0.005047
6563.28345	0.005049
6561.35477	0.005055
6559.42610	0.005053
6557.49742	0.005049
6555.56875	0.005062
6553.64007	0.005093
6551.71140	0.005120
6549.78272	0.005125
6547.85404	0.005134
6545.92537	0.005166
6543.99669	0.005182
6542.06802	0.005170
6540.13934	0.005162
6538.21067	0.005172
6536.28199	0.005192
6534.35331	0.005213
6532.42464	0.005236
6530.49596	0.005246
6528.56729	0.005224
6526.63861	0.005198
6524.70994	0.005212
6522.78126	0.005249
6520.85258	0.005273
6518.92391	0.005292
6516.99523	0.005322
6515.06656	0.005348
6513.13788	0.005352
6511.20921	0.005344
6509.28053	0.005344
6507.35185	0.005351
6505.42318	0.005355
6503.49450	0.005372
6501.56583	0.005408
6499.63715	0.005434
6497.70848	0.005440
6495.77980	0.005439
6493.85112	0.005444
6491.92245	0.005457
6489.99377	0.005478
6488.06510	0.005499
6486.13642	0.005513
6484.20775	0.005524
6482.27907	0.005527
6480.35039	0.005531
6478.42172	0.005540
6476.49304	0.005546
6474.56437	0.005542
6472.63569	0.005547
6470.70702	0.005578
6468.77834	0.005616
6466.84966	0.005636
6464.92099	0.005646
6462.99231	0.005662
6461.06364	0.005679
6459.13496	0.005684
6457.20629	0.005684
6455.27761	0.005694
6453.34893	0.005701
6451.42026	0.005699
6449.49158	0.005711
6447.56291	0.005744
6445.63423	0.005775
6443.70556	0.005779
6441.77688	0.005764
6439.84820	0.005765
6437.91953	0.005784
6435.99085	0.005800
6434.06218	0.005802
6432.13350	0.005801
6430.20483	0.005819
6428.27615	0.005859
6426.34747	0.005907
6424.41880	0.005941
6422.49012	0.005935
6420.56145	0.005910
6418.63277	0.005908
6416.70410	0.005929
6414.77542	0.005950
6412.84674	0.005966
6410.91807	0.005985
6408.98939	0.005999
6407.06072	0.005997
6405.13204	0.005994
6403.20337	0.006009
6401.27469	0.006037
6399.34601	0.006058
6397.41734	0.006069
6395.48866	0.006079
6393.55999	0.006081
6391.63131	0.006077
6389.70264	0.006085
6387.77396	0.006115
6385.84528	0.006149
6383.91661	0.006159
6381.98793	0.006157
6380.05926	0.006162
6378.13058	0.006164
6376.20191	0.006170
6374.27323	0.006185
6372.34455	0.006190
6370.41588	0.006190
6368.48720	0.006209
6366.55853	0.006242
6364.62985	0.006278
6362.70118	0.006306
6360.77250	0.006321
6358.84382	0.006349
6356.91515	0.006392
6354.98647	0.006411
6353.05780	0.006405
6351.12912	0.006403
6349.20045	0.006402
6347.27177	0.006404
6345.34309	0.006420
6343.41442	0.006447
6341.48574	0.006480
6339.55707	0.006507
6337.62839	0.006517
6335.69972	0.006517
6333.77104	0.006519
6331.84236	0.006524
6329.91369	0.006528
6327.98501	0.006549
6326.05634	0.006586
6324.12766	0.006619
6322.19899	0.006641
6320.27031	0.006659
6318.34163	0.006667
6316.41296	0.006673
6314.48428	0.006698
6312.55561	0.006723
6310.62693	0.006717
6308.69826	0.006690
6306.76958	0.006679
6304.84090	0.006706
6302.91223	0.006748
6300.98355	0.006767
6299.05488	0.006767
6297.12620	0.006780
6295.19753	0.006802
6293.26885	0.006816
6291.34017	0.006827
6289.41150	0.006839
6287.48282	0.006850
6285.55415	0.006863
6283.62547	0.006891
6281.69680	0.006930
6279.76812	0.006956
6277.83944	0.006965
6275.91077	0.006969
6273.98209	0.006971
6272.05342	0.006974
6270.12474	0.006975
6268.19607	0.006971
6266.26739	0.006979
6264.33871	0.007008
6262.41004	0.007041
6260.48136	0.007069
6258.55269	0.007089
6256.62401	0.007096
6254.69534	0.007106
6252.76666	0.007153
6250.83798	0.007210
6248.90931	0.007211
6246.98063	0.007176
6245.05196	0.007165
6243.12328	0.007192
6241.19461	0.007226
6239.26593	0.007254
6237.33725	0.007287
6235.40858	0.007324
6233.47990	0.007347
6231.55123	0.007344
6229.62255	0.007340
6227.69388	0.007367
6225.76520	0.007395
6223.83652	0.007407
6221.90785	0.007439
6219.97917	0.007478
6218.05050	0.007474
6216.12182	0.007455
6214.19315	0.007465
6212.26447	0.007479
6210.33579	0.007480
6208.40712	0.007504
6206.47844	0.007558
6204.54977	0.007597
6202.62109	0.007605
6200.69242	0.007604
6198.76374	0.007609
6196.83506	0.007611
6194.90639	0.007610
6192.97771	0.007631
6191.04904	0.007675
6189.12036	0.007692
6187.19169	0.007675
6185.26301	0.007687
6183.33433	0.007732
6181.40566	0.007754
6179.47698	0.007752
6177.54831	0.007773
6175.61963	0.007808
6173.69096	0.007821
6171.76228	0.007812
6169.83360	0.007817
6167.90493	0.007846
6165.97625	0.007882
6164.04758	0.007917
6162.11890	0.007960
6160.19023	0.008005
6158.26155	0.008020
6156.33287	0.008014
6154.40420	0.008031
6152.47552	0.008056
6150.54685	0.008054
6148.61817	0.008056
6146.68950	0.008088
6144.76082	0.008124
6142.83214	0.008139
6140.90347	0.008153
6138.97479	0.008176
6137.04612	0.008183
6135.11744	0.008170
6133.18877	0.008168
6131.26009	0.008179
6129.33141	0.008192
6127.40274	0.008212
6125.47406	0.008242
6123.54539	0.008275
6121.61671	0.008293
6119.68804	0.008284
6117.75936	0.008281
6115.83068	0.008309
6113.90201	0.008338
6111.97333	0.008360
6110.04466	0.008391
6108.11598	0.008419
6106.18731	0.008430
6104.25863	0.008438
6102.32995	0.008455
6100.40128	0.008479
6098.47260	0.008499
6096.54393	0.008505
6094.61525	0.008521
6092.68658	0.008553
6090.75790	0.008566
6088.82922	0.008554
6086.90055	0.008559
6084.97187	0.008601
6083.04320	0.008648
6081.11452	0.008680
6079.18585	0.008714
6077.25717	0.008742
6075.32849	0.008744
6073.39982	0.008750
6071.47114	0.008789
6069.54247	0.008834
6067.61379	0.008844
6065.68512	0.008836
6063.75644	0.008857
6061.82776	0.008895
6059.89909	0.008913
6057.97041	0.008928
6056.04174	0.008961
6054.11306	0.008973
6052.18439	0.008954
6050.25571	0.008959
6048.32703	0.009002
6046.39836	0.009036
6044.46968	0.009047
6042.54101	0.009064
6040.61233	0.009096
6038.68366	0.009130
6036.75498	0.009164
6034.82630	0.009198
6032.89763	0.009222
6030.96895	0.009232
6029.04028	0.009243
6027.11160	0.009274
6025.18293	0.009302
6023.25425	0.009297
6021.32557	0.009286
6019.39690	0.009304
6017.46822	0.009336
6015.53955	0.009345
6013.61087	0.009339
6011.68220	0.009374
6009.75352	0.009443
6007.82484	0.009472
6005.89617	0.009459
6003.96749	0.009471
6002.03882	0.009510
6000.11014	0.009528
5998.18147	0.009529
5996.25279	0.009555
5994.32411	0.009591
5992.39544	0.009601
5990.46676	0.009618
5988.53809	0.009672
5986.60941	0.009714
5984.68074	0.009709
5982.75206	0.009704
5980.82338	0.009725
5978.89471	0.009737
5976.96603	0.009730
5975.03736	0.009743
5973.10868	0.009784
5971.18001	0.009818
5969.25133	0.009838
5967.32265	0.009880
5965.39398	0.009938
5963.46530	0.009959
5961.53663	0.009936
5959.60795	0.009935
5957.67928	0.009985
5955.75060	0.010023
5953.82192	0.010010
5951.89325	0.010011
5949.96457	0.010063
5948.03590	0.010099
5946.10722	0.010092
5944.17855	0.010104
5942.24987	0.010163
5940.32119	0.010211
5938.39252	0.010216
5936.46384	0.010235
5934.53517	0.010291
5932.60649	0.010308
5930.67782	0.010271
5928.74914	0.010260
5926.82046	0.010289
5924.89179	0.010295
5922.96311	0.010282
5921.03444	0.010307
5919.10576	0.010373
5917.17709	0.010426
5915.24841	0.010459
5913.31973	0.010508
5911.39106	0.010565
5909.46238	0.010583
5907.53371	0.010569
5905.60503	0.010568
5903.67636	0.010594
5901.74768	0.010620
5899.81900	0.010637
5897.89033	0.010665
5895.96165	0.010700
5894.03298	0.010719
5892.10430	0.010737
5890.17563	0.010783
5888.24695	0.010829
5886.31827	0.010829
5884.38960	0.010814
5882.46092	0.010836
5880.53225	0.010870
5878.60357	0.010879
5876.67490	0.010888
5874.74622	0.010917
5872.81755	0.010941
5870.88887	0.010946
5868.96019	0.010958
5867.03152	0.010992
5865.10284	0.011019
5863.17417	0.011020
5861.24549	0.011034
5859.31682	0.011080
5857.38814	0.011118
5855.45946	0.011139
5853.53079	0.011173
5851.60211	0.011215
5849.67344	0.011241
5847.74476	0.011256
5845.81609	0.011296
5843.88741	0.011360
5841.95873	0.011384
5840.03006	0.011357
5838.10138	0.011358
5836.17271	0.011411
5834.24403	0.011464
5832.31536	0.011490
5830.38668	0.011522
5828.45800	0.011577
5826.52933	0.011603
5824.60065	0.011592
5822.67198	0.011612
5820.74330	0.011658
5818.81463	0.011674
5816.88595	0.011689
5814.95727	0.011745
5813.02860	0.011790
5811.09992	0.011781
5809.17125	0.011780
5807.24257	0.011828
5805.31390	0.011870
5803.38522	0.011875
5801.45654	0.011894
5799.52787	0.011950
5797.59919	0.011985
5795.67052	0.011967
5793.74184	0.011956
5791.81317	0.012010
5789.88449	0.012081
5787.95581	0.012094
5786.02714	0.012084
5784.09846	0.012120
5782.16979	0.012168
5780.24111	0.012178
5778.31244	0.012197
5776.38376	0.012265
5774.45508	0.012317
5772.52641	0.012312
5770.59773	0.012310
5768.66906	0.012356
5766.74038	0.012404
5764.81171	0.012416
5762.88303	0.012442
5760.95435	0.012508
5759.02568	0.012546
5757.09700	0.012536
5755.16833	0.012555
5753.23965	0.012622
5751.31098	0.012656
5749.38230	0.012643
5747.45362	0.012652
5745.52495	0.012692
5743.59627	0.012710
5741.66760	0.012715
5739.73892	0.012758
5737.81025	0.012821
5735.88157	0.012834
5733.95289	0.012826
5732.02422	0.012869
5730.09554	0.012924
5728.16687	0.012936
5726.23819	0.012951
5724.30952	0.013007
5722.38084	0.013062
5720.45216	0.013066
5718.52349	0.013050
5716.59481	0.013071
5714.66614	0.013118
5712.73746	0.013125
5710.80879	0.013115
5708.88011	0.013168
5706.95143	0.013253
5705.02276	0.013289
5703.09408	0.013304
5701.16541	0.013354
5699.23673	0.013401
5697.30806	0.013399
5695.37938	0.013396
5693.45070	0.013438
5691.52203	0.013490
5689.59335	0.013504
5687.66468	0.013516
5685.73600	0.013567
5683.80733	0.013601
5681.87865	0.013590
5679.94997	0.013612
5678.02130	0.013681
5676.09262	0.013724
5674.16395	0.013726
5672.23527	0.013756
5670.30660	0.013840
5668.37792	0.013904
5666.44924	0.013896
5664.52057	0.013893
5662.59189	0.013963
5660.66322	0.014023
5658.73454	0.014009
5656.80587	0.014013
5654.87719	0.014080
5652.94851	0.014131
5651.01984	0.014143
5649.09116	0.014179
5647.16249	0.014237
5645.23381	0.014250
5643.30514	0.014224
5641.37646	0.014233
5639.44778	0.014282
5637.51911	0.014304
5635.59043	0.014312
5633.66176	0.014376
5631.73308	0.014453
5629.80441	0.014457
5627.87573	0.014452
5625.94705	0.014535
5624.01838	0.014621
5622.08970	0.014602
5620.16103	0.014570
5618.23235	0.014630
5616.30368	0.014704
5614.37500	0.014700
5612.44632	0.014704
5610.51765	0.014791
5608.58897	0.014863
5606.66030	0.014849
5604.73162	0.014838
5602.80295	0.014906
5600.87427	0.014986
5598.94559	0.014994
5597.01692	0.014985
5595.08824	0.015034
5593.15957	0.015089
5591.23089	0.015088
5589.30222	0.015091
5587.37354	0.015156
5585.44486	0.015222
5583.51619	0.015238
5581.58751	0.015261
5579.65884	0.015332
5577.73016	0.015379
5575.80149	0.015369
5573.87281	0.015376
5571.94413	0.015440
5570.01546	0.015496
5568.08678	0.015513
5566.15811	0.015547
5564.22943	0.015599
5562.30076	0.015599
5560.37208	0.015581
5558.44340	0.015637
5556.51473	0.015727
5554.58605	0.015753
5552.65738	0.015739
5550.72870	0.015777
5548.80003	0.015843
5546.87135	0.015850
5544.94267	0.015839
5543.01400	0.015901
5541.08532	0.015988
5539.15665	0.016008
5537.22797	0.016006
5535.29930	0.016056
5533.37062	0.016117
5531.44194	0.016119
5529.51327	0.016118
5527.58459	0.016175
5525.65592	0.016230
5523.72724	0.016235
5521.79857	0.016257
5519.86989	0.016337
5517.94121	0.016400
5516.01254	0.016392
5514.08386	0.016399
5512.15519	0.016480
5510.22651	0.016542
5508.29784	0.016521
5506.36916	0.016509
5504.44048	0.016574
5502.51181	0.016640
5500.58313	0.016652
5498.65446	0.016670
5496.72578	0.016737
5494.79711	0.016783
5492.86843	0.016775
5490.93975	0.016801
5489.01108	0.016888
5487.08240	0.016940
5485.15373	0.016938
5483.22505	0.016976
5481.29638	0.017068
5479.36770	0.017113
5477.43902	0.017091
5475.51035	0.017109
5473.58167	0.017189
5471.65300	0.017229
5469.72432	0.017234
5467.79565	0.017300
5465.86697	0.017383
5463.93829	0.017365
5462.00962	0.017307
5460.08094	0.017362
5458.15227	0.017480
5456.22359	0.017510
5454.29492	0.017506
5452.36624	0.017590
5450.43756	0.017691
5448.50889	0.017690
5446.58021	0.017645
5444.65154	0.017676
5442.72286	0.017755
5440.79419	0.017765
5438.86551	0.017739
5436.93683	0.017784
5435.00816	0.017864
5433.07948	0.017891
5431.15081	0.017905
5429.22213	0.017987
5427.29346	0.018077
5425.36478	0.018085
5423.43610	0.018076
5421.50743	0.018132
5419.57875	0.018190
5417.65008	0.018187
5415.72140	0.018190
5413.79273	0.018255
5411.86405	0.018313
5409.93537	0.018315
5408.00670	0.018341
5406.07802	0.018434
5404.14935	0.018505
5402.22067	0.018509
5400.29200	0.018540
5398.36332	0.018625
5396.43464	0.018652
5394.50597	0.018607
5392.57729	0.018632
5390.64862	0.018756
5388.71994	0.018831
5386.79127	0.018799
5384.86259	0.018809
5382.93391	0.018921
5381.00524	0.018987
5379.07656	0.018963
5377.14789	0.018983
5375.21921	0.019058
5373.29054	0.019073
5371.36186	0.019064
5369.43318	0.019131
5367.50451	0.019228
5365.57583	0.019261
5363.64716	0.019268
5361.71848	0.019330
5359.78981	0.019407
5357.86113	0.019408
5355.93245	0.019384
5354.00378	0.019457
5352.07510	0.019572
5350.14643	0.019575
5348.21775	0.019531
5346.28908	0.019594
5344.36040	0.019705
5342.43172	0.019730
5340.50305	0.019710
5338.57437	0.019769
5336.64570	0.019859
5334.71702	0.019870
5332.78835	0.019877
5330.85967	0.019974
5328.93099	0.020049
5327.00232	0.020013
5325.07364	0.019991
5323.14497	0.020078
5321.21629	0.020173
5319.28762	0.020184
5317.35894	0.020202
5315.43026	0.020301
5313.50159	0.020369
5311.57291	0.020347
5309.64424	0.020360
5307.71556	0.020461
5305.78689	0.020520
5303.85821	0.020489
5301.92953	0.020504
5300.00086	0.020627
5298.07218	0.020723
5296.14351	0.020705
5294.21483	0.020694
5292.28616	0.020768
5290.35748	0.020820
5288.42880	0.020805
5286.50013	0.020837
5284.57145	0.020944
5282.64278	0.020999
5280.71410	0.020980
5278.78543	0.021024
5276.85675	0.021144
5274.92807	0.021195
5272.99940	0.021179
5271.07072	0.021238
5269.14205	0.021326
5267.21337	0.021301
5265.28470	0.021249
5263.35602	0.021330
5261.42734	0.021458
5259.49867	0.021484
5257.56999	0.021475
5255.64132	0.021541
5253.71264	0.021625
5251.78397	0.021638
5249.85529	0.021633
5247.92661	0.021717
5245.99794	0.021826
5244.06926	0.021839
5242.14059	0.021821
5240.21191	0.021879
5238.28324	0.021952
5236.35456	0.021956
5234.42588	0.021964
5232.49721	0.022062
5230.56853	0.022152
5228.63986	0.022146
5226.71118	0.022164
5224.78251	0.022284
5222.85383	0.022373
5220.92515	0.022356
5218.99648	0.022374
5217.06780	0.022488
5215.13913	0.022554
5213.21045	0.022495
5211.28178	0.022461
5209.35310	0.022544
5207.42442	0.022632
5205.49575	0.022653
5203.56707	0.022695
5201.63840	0.022789
5199.70972	0.022826
5197.78105	0.022803
5195.85237	0.022869
5193.92369	0.023020
5191.99502	0.023079
5190.06634	0.023044
5188.13767	0.023070
5186.20899	0.023157
5184.28032	0.023186
5182.35164	0.023177
5180.42296	0.023250
5178.49429	0.023374
5176.56561	0.023414
5174.63694	0.023402
5172.70826	0.023474
5170.77959	0.023591
5168.85091	0.023605
5166.92223	0.023570
5164.99356	0.023630
5163.06488	0.023728
5161.13621	0.023743
5159.20753	0.023739
5157.27886	0.023820
5155.35018	0.023928
5153.42150	0.023943
5151.49283	0.023917
5149.56415	0.023977
5147.63548	0.024084
5145.70680	0.024132
5143.77813	0.024171
5141.84945	0.024269
5139.92077	0.024337
5137.99210	0.024299
5136.06342	0.024291
5134.13475	0.024410
5132.20607	0.024511
5130.27740	0.024479
5128.34872	0.024457
5126.42004	0.024550
5124.49137	0.024630
5122.56269	0.024618
5120.63402	0.024642
5118.70534	0.024760
5116.77667	0.024836
5114.84799	0.024812
5112.91931	0.024834
5110.99064	0.024974
5109.06196	0.025069
5107.13329	0.025045
5105.20461	0.025062
5103.27594	0.025177
5101.34726	0.025247
5099.41858	0.025224
5097.48991	0.025246
5095.56123	0.025349
5093.63256	0.025395
5091.70388	0.025384
5089.77521	0.025470
5087.84653	0.025634
5085.91785	0.025702
5083.98918	0.025669
5082.06050	0.025685
5080.13183	0.025757
5078.20315	0.025780
5076.27448	0.025781
5074.34580	0.025873
5072.41712	0.025996
5070.48845	0.025995
5068.55977	0.025939
5066.63110	0.026016
5064.70242	0.026172
5062.77375	0.026219
5060.84507	0.026206
5058.91639	0.026290
5056.98772	0.026407
5055.05904	0.026407
5053.13037	0.026360
5051.20169	0.026429
5049.27302	0.026559
5047.34434	0.026590
5045.41566	0.026579
5043.48699	0.026662
5041.55831	0.026758
5039.62964	0.026756
5037.70096	0.026775
5035.77229	0.026901
5033.84361	0.026984
5031.91493	0.026941
5029.98626	0.026927
5028.05758	0.027055
5026.12891	0.027168
5024.20023	0.027144
5022.27156	0.027152
5020.34288	0.027301
5018.41420	0.027412
5016.48553	0.027384
5014.55685	0.027402
5012.62818	0.027553
5010.69950	0.027660
5008.77083	0.027644
5006.84215	0.027662
5004.91347	0.027775
5002.98480	0.027828
5001.05612	0.027776
4999.12745	0.027798
4997.19877	0.027941
4995.27010	0.028017
4993.34142	0.027986
4991.41274	0.028013
4989.48407	0.028112
4987.55539	0.028139
4985.62672	0.028113
4983.69804	0.028194
4981.76937	0.028349
4979.84069	0.028402
4977.91201	0.028388
4975.98334	0.028468
4974.05466	0.028589
4972.12599	0.028602
4970.19731	0.028568
4968.26864	0.028639
4966.33996	0.028767
4964.41128	0.028812
4962.48261	0.028817
4960.55393	0.028904
4958.62526	0.029002
4956.69658	0.028991
4954.76791	0.028977
4952.83923	0.029118
4950.91055	0.029294
4948.98188	0.029317
4947.05320	0.029281
4945.12453	0.029357
4943.19585	0.029459
4941.26718	0.029436
4939.33850	0.029402
4937.40982	0.029532
4935.48115	0.029698
4933.55247	0.029714
4931.62380	0.029695
4929.69512	0.029799
4927.76645	0.029907
4925.83777	0.029889
4923.90909	0.029869
4921.98042	0.029980
4920.05174	0.030094
4918.12307	0.030098
4916.19439	0.030134
4914.26572	0.030276
4912.33704	0.030358
4910.40836	0.030324
4908.47969	0.030343
4906.55101	0.030477
4904.62234	0.030577
4902.69366	0.030578
4900.76499	0.030621
4898.83631	0.030754
4896.90763	0.030826
4894.97896	0.030801
4893.05028	0.030833
4891.12161	0.030957
4889.19293	0.031022
4887.26426	0.031010
4885.33558	0.031079
4883.40690	0.031231
4881.47823	0.031293
4879.54955	0.031277
4877.62088	0.031337
4875.69220	0.031449
4873.76353	0.031463
4871.83485	0.031431
4869.90617	0.031531
4867.97750	0.031689
4866.04882	0.031711
4864.12015	0.031675
4862.19147	0.031765
4860.26280	0.031908
4858.33412	0.031942
4856.40544	0.031925
4854.47677	0.032006
4852.54809	0.032131
4850.61942	0.032152
4848.69074	0.032144
4846.76207	0.032258
4844.83339	0.032412
4842.90471	0.032451
4840.97604	0.032446
4839.04736	0.032543
4837.11869	0.032663
4835.19001	0.032656
4833.26134	0.032633
4831.33266	0.032769
4829.40398	0.032935
4827.47531	0.032950
4825.54663	0.032924
4823.61796	0.033010
4821.68928	0.033108
4819.76061	0.033110
4817.83193	0.033136
4815.90325	0.033267
4813.97458	0.033363
4812.04590	0.033357
4810.11723	0.033408
4808.18855	0.033567
4806.25988	0.033640
4804.33120	0.033578
4802.40252	0.033589
4800.47385	0.033742
4798.54517	0.033858
4796.61650	0.033873
4794.68782	0.033949
4792.75915	0.034102
4790.83047	0.034154
4788.90179	0.034109
4786.97312	0.034160
4785.04444	0.034293
4783.11577	0.034328
4781.18709	0.034297
4779.25842	0.034394
4777.32974	0.034576
4775.40106	0.034641
4773.47239	0.034614
4771.54371	0.034682
4769.61504	0.034831
4767.68636	0.034875
4765.75769	0.034835
4763.82901	0.034902
4761.90033	0.035067
4759.97166	0.035146
4758.04298	0.035142
4756.11431	0.035234
4754.18563	0.035395
4752.25696	0.035430
4750.32828	0.035402
4748.39960	0.035508
4746.47093	0.035659
4744.54225	0.035684
4742.61358	0.035684
4740.68490	0.035796
4738.75623	0.035902
4736.82755	0.035892
4734.89887	0.035908
4732.97020	0.036064
4731.04152	0.036208
4729.11285	0.036212
4727.18417	0.036216
4725.25550	0.036339
4723.32682	0.036451
4721.39814	0.036449
4719.46947	0.036464
4717.54079	0.036606
4715.61212	0.036746
4713.68344	0.036765
4711.75477	0.036784
4709.82609	0.036910
4707.89741	0.037018
4705.96874	0.037029
4704.04006	0.037083
4702.11139	0.037243
4700.18271	0.037349
4698.25404	0.037333
4696.32536	0.037363
4694.39668	0.037499
4692.46801	0.037583
4690.53933	0.037580
4688.61066	0.037650
4686.68198	0.037811
4684.75331	0.037889
4682.82463	0.037877
4680.89595	0.037945
4678.96728	0.038085
4677.03860	0.038131
4675.10993	0.038126
4673.18125	0.038256
4671.25258	0.038466
4669.32390	0.038543
4667.39522	0.038505
4665.46655	0.038546
4663.53787	0.038666
4661.60920	0.038712
4659.68052	0.038716
4657.75185	0.038830
4655.82317	0.038998
4653.89449	0.039052
4651.96582	0.039041
4650.03714	0.039121
4648.10847	0.039255
4646.17979	0.039307
4644.25112	0.039342
4642.32244	0.039485
4640.39376	0.039619
4638.46509	0.039601
4636.53641	0.039569
4634.60774	0.039699
4632.67906	0.039880
4630.75039	0.039929
4628.82171	0.039932
4626.89303	0.040057
4624.96436	0.040207
4623.03568	0.040232
4621.10701	0.040237
4619.17833	0.040360
4617.24966	0.040488
4615.32098	0.040492
4613.39230	0.040507
4611.46363	0.040665
4609.53495	0.040814
4607.60628	0.040827
4605.67760	0.040837
4603.74893	0.040954
4601.82025	0.041071
4599.89157	0.041107
4597.96290	0.041182
4596.03422	0.041339
4594.10555	0.041412
4592.17687	0.041384
4590.24820	0.041455
4588.31952	0.041644
4586.39084	0.041762
4584.46217	0.041776
4582.53349	0.041849
4580.60482	0.042003
4578.67614	0.042097
4576.74747	0.042120
4574.81879	0.042202
4572.89011	0.042350
4570.96144	0.042414
4569.03276	0.042399
4567.10409	0.042486
4565.17541	0.042659
4563.24674	0.042713
4561.31806	0.042682
4559.38938	0.042782
4557.46071	0.042981
4555.53203	0.043068
4553.60336	0.043065
4551.67468	0.043161
4549.74601	0.043330
4547.81733	0.043397
4545.88865	0.043389
4543.95998	0.043481
4542.03130	0.043652
4540.10263	0.043733
4538.17395	0.043743
4536.24528	0.043850
4534.31660	0.044016
4532.38792	0.044085
4530.45925	0.044108
4528.53057	0.044217
4526.60190	0.044349
4524.67322	0.044383
4522.74455	0.044409
4520.81587	0.044555
4518.88719	0.044707
4516.95852	0.044736
4515.02984	0.044759
4513.10117	0.044891
4511.17249	0.045023
4509.24382	0.045061
4507.31514	0.045131
4505.38646	0.045320
4503.45779	0.045471
4501.52911	0.045488
4499.60044	0.045518
4497.67176	0.045673
4495.74309	0.045827
4493.81441	0.045859
4491.88573	0.045883
4489.95706	0.046015
4488.02838	0.046144
4486.09971	0.046185
4484.17103	0.046266
4482.24236	0.046436
4480.31368	0.046551
4478.38500	0.046576
4476.45633	0.046658
4474.52765	0.046831
4472.59898	0.046932
4470.67030	0.046924
4468.74163	0.046995
4466.81295	0.047197
4464.88427	0.047328
4462.95560	0.047333
4461.02692	0.047397
4459.09825	0.047572
4457.16957	0.047680
4455.24090	0.047676
4453.31222	0.047732
4451.38354	0.047890
4449.45487	0.047997
4447.52619	0.048023
4445.59752	0.048112
4443.66884	0.048278
4441.74017	0.048368
4439.81149	0.048396
4437.88281	0.048513
4435.95414	0.048690
4434.02546	0.048791
4432.09679	0.048856
4430.16811	0.048984
4428.23944	0.049119
4426.31076	0.049166
4424.38208	0.049196
4422.45341	0.049335
4420.52473	0.049503
4418.59606	0.049560
4416.66738	0.049576
4414.73871	0.049680
4412.81003	0.049817
4410.88135	0.049889
4408.95268	0.049961
4407.02400	0.050115
4405.09533	0.050281
4403.16665	0.050364
4401.23798	0.050420
4399.30930	0.050545
4397.38062	0.050673
4395.45195	0.050725
4393.52327	0.050802
4391.59460	0.050966
4389.66592	0.051098
4387.73725	0.051142
4385.80857	0.051228
4383.87989	0.051405
4381.95122	0.051516
4380.02254	0.051509
4378.09387	0.051561
4376.16519	0.051737
4374.23652	0.051891
4372.30784	0.051980
4370.37916	0.052099
4368.45049	0.052257
4366.52181	0.052355
4364.59314	0.052396
4362.66446	0.052486
4360.73579	0.052636
4358.80711	0.052743
4356.87843	0.052800
4354.94976	0.052930
4353.02108	0.053132
4351.09241	0.053240
4349.16373	0.053253
4347.23506	0.053344
4345.30638	0.053522
4343.37770	0.053627
4341.44903	0.053654
4339.52035	0.053755
4337.59168	0.053946
4335.66300	0.054095
4333.73433	0.054162
4331.80565	0.054244
4329.87697	0.054368
4327.94830	0.054455
4326.01962	0.054537
4324.09095	0.054716
4322.16227	0.054925
4320.23360	0.055018
4318.30492	0.055027
4316.37624	0.055108
4314.44757	0.055262
4312.51889	0.055374
4310.59022	0.055474
4308.66154	0.055649
4306.73287	0.055819
4304.80419	0.055876
4302.87551	0.055915
4300.94684	0.056064
4299.01816	0.056256
4297.08949	0.056352
4295.16081	0.056408
4293.23214	0.056553
4291.30346	0.056737
4289.37478	0.056849
4287.44611	0.056922
4285.51743	0.057045
4283.58876	0.057194
4281.66008	0.057311
4279.73141	0.057442
4277.80273	0.057613
4275.87405	0.057739
4273.94538	0.057787
4272.01670	0.057858
4270.08803	0.058011
4268.15935	0.058165
4266.23068	0.058255
4264.30200	0.058350
4262.37332	0.058511
4260.44465	0.058650
4258.51597	0.058715
4256.58730	0.058817
4254.65862	0.058976
4252.72995	0.059078
4250.80127	0.059142
4248.87259	0.059284
4246.94392	0.059489
4245.01524	0.059645
4243.08657	0.059740
4241.15789	0.059858
4239.22922	0.060001
4237.30054	0.060093
4235.37186	0.060156
4233.44319	0.060292
4231.51451	0.060482
4229.58584	0.060609
4227.65716	0.060681
4225.72849	0.060825
4223.79981	0.061029
4221.87113	0.061163
4219.94246	0.061228
4218.01378	0.061328
4216.08511	0.061459
4214.15643	0.061557
4212.22776	0.061644
4210.29908	0.061778
4208.37040	0.061927
4206.44173	0.062039
4204.51305	0.062166
4202.58438	0.062366
4200.65570	0.062568
4198.72703	0.062693
4196.79835	0.062787
4194.86968	0.062919
4192.94100	0.063060
4191.01232	0.063162
4189.08365	0.063260
4187.15497	0.063403
4185.22630	0.063564
4183.29762	0.063697
4181.36895	0.063817
4179.44027	0.063984
4177.51159	0.064166
4175.58292	0.064285
4173.65424	0.064386
4171.72557	0.064526
4169.79689	0.064661
4167.86822	0.064773
4165.93954	0.064914
4164.01086	0.065106
4162.08219	0.065285
4160.15351	0.065383
4158.22484	0.065454
4156.29616	0.065577
4154.36749	0.065712
4152.43881	0.065811
4150.51013	0.065925
4148.58146	0.066086
4146.65278	0.066252
4144.72411	0.066401
4142.79543	0.066554
4140.86676	0.066716
4138.93808	0.066853
4137.00940	0.066952
4135.08073	0.067061
4133.15205	0.067197
4131.22338	0.067332
4129.29470	0.067479
4127.36603	0.067655
4125.43735	0.067822
4123.50867	0.067949
4121.58000	0.068061
4119.65132	0.068208
4117.72265	0.068373
4115.79397	0.068512
4113.86530	0.068636
4111.93662	0.068786
4110.00794	0.068964
4108.07927	0.069128
4106.15059	0.069262
4104.22192	0.069400
4102.29324	0.069532
4100.36457	0.069630
4098.43589	0.069737
4096.50721	0.069910
4094.57854	0.070113
4092.64986	0.070266
4090.72119	0.070384
4088.79251	0.070535
4086.86384	0.070699
4084.93516	0.070820
4083.00648	0.070933
4081.07781	0.071084
4079.14913	0.071249
4077.22046	0.071403
4075.29178	0.071560
4073.36311	0.071730
4071.43443	0.071907
4069.50575	0.072083
4067.57708	0.072242
4065.64840	0.072381
4063.71973	0.072513
4061.79105	0.072645
4059.86238	0.072788
4057.93370	0.072945
4056.00502	0.073105
4054.07635	0.073258
4052.14767	0.073413
4050.21900	0.073579
4048.29032	0.073746
4046.36165	0.073909
4044.43297	0.074081
4042.50429	0.074276
4040.57562	0.074471
4038.64694	0.074625
4036.71827	0.074731
4034.78959	0.074817
4032.86092	0.074921
4030.93224	0.075080
4029.00356	0.075280
4027.07489	0.075453
4025.14621	0.075593
4023.21754	0.075755
4021.28886	0.075943
4019.36019	0.076108
4017.43151	0.076245
4015.50283	0.076390
4013.57416	0.076557
4011.64548	0.076718
4009.71681	0.076865
4007.78813	0.077043
4005.85946	0.077256
4003.93078	0.077440
4002.00210	0.077551
4000.07343	0.077646
3998.14475	0.077797
3996.21608	0.077984
3994.28740	0.078164
3992.35873	0.078330
3990.43005	0.078504
3988.50137	0.078703
3986.57270	0.078901
3984.64402	0.079064
3982.71535	0.079201
3980.78667	0.079325
3978.85800	0.079456
3976.92932	0.079612
3975.00064	0.079776
3973.07197	0.079942
3971.14329	0.080114
3969.21462	0.080280
3967.28594	0.080455
3965.35727	0.080625
3963.42859	0.080761
3961.49991	0.080897
3959.57124	0.081055
3957.64256	0.081231
3955.71389	0.081420
3953.78521	0.081591
3951.85654	0.081737
3949.92786	0.081885
3947.99918	0.082049
3946.07051	0.082192
3944.14183	0.082314
3942.21316	0.082498
3940.28448	0.082741
3938.35581	0.082940
3936.42713	0.083069
3934.49845	0.083156
3932.56978	0.083261
3930.64110	0.083464
3928.71243	0.083693
3926.78375	0.083846
3924.85508	0.083990
3922.92640	0.084172
3920.99772	0.084302
3919.06905	0.084380
3917.14037	0.084542
3915.21170	0.084828
3913.28302	0.085107
3911.35435	0.085307
3909.42567	0.085450
3907.49699	0.085496
3905.56832	0.085440
3903.63964	0.085418
3901.71097	0.085548
3899.78229	0.085838
3897.85362	0.086246
3895.92494	0.086607
3893.99626	0.086739
3892.06759	0.086773
3890.13891	0.086943
3888.21024	0.087131
3886.28156	0.087224
3884.35289	0.087347
3882.42421	0.087487
3880.49553	0.087683
3878.56686	0.088019
3876.63818	0.088290
3874.70951	0.088403
3872.78083	0.088465
3870.85216	0.088536
3868.92348	0.088694
3866.99480	0.088874
3865.06613	0.089031
3863.13745	0.089306
3861.20878	0.089666
3859.28010	0.089887
3857.35143	0.089732
3855.42275	0.089309
3853.49407	0.089310
3851.56540	0.090003
3849.63672	0.090764
3847.70805	0.091149
3845.77937	0.091238
3843.85070	0.091246
3841.92202	0.091302
3839.99334	0.091378
3838.06467	0.091502
3836.13599	0.091749
3834.20732	0.092069
3832.27864	0.092380
3830.34997	0.092657
3828.42129	0.092868
3826.49261	0.093042
3824.56394	0.093150
3822.63526	0.093135
3820.70659	0.093237
3818.77791	0.093504
3816.84924	0.093715
3814.92056	0.094014
3812.99188	0.094454
3811.06321	0.094758
3809.13453	0.094839
3807.20586	0.094898
3805.27718	0.095031
3803.34851	0.095077
3801.41983	0.095150
3799.49115	0.095439
3797.56248	0.095793
3795.63380	0.096150
3793.70513	0.096489
3791.77645	0.096695
3789.84778	0.096834
3787.91910	0.097003
3785.99042	0.097191
3784.06175	0.097375
3782.13307	0.097516
3780.20440	0.097647
3778.27572	0.097868
3776.34705	0.098146
3774.41837	0.098379
3772.48969	0.098498
3770.56102	0.098546
3768.63234	0.098682
3766.70367	0.098932
3764.77499	0.099192
3762.84632	0.099334
3760.91764	0.099354
3758.98896	0.099485
3757.06029	0.099741
3755.13161	0.099797
3753.20294	0.099588
3751.27426	0.099492
3749.34559	0.099757
3747.41691	0.099951
3745.48823	0.099883
3743.55956	0.100220
3741.63088	0.100979
3739.70221	0.101336
3737.77353	0.101220
3735.84486	0.101240
3733.91618	0.101609
3731.98750	0.102072
3730.05883	0.102401
3728.13015	0.102583
3726.20148	0.102749
3724.27280	0.102962
3722.34413	0.103191
3720.41545	0.103490
3718.48677	0.103812
3716.55810	0.103967
3714.62942	0.103938
3712.70075	0.103971
3710.77207	0.104251
3708.84340	0.104637
3706.91472	0.104957
3704.98604	0.105167
3703.05737	0.105276
3701.12869	0.105430
3699.20002	0.105710
3697.27134	0.106012
3695.34267	0.106185
3693.41399	0.106161
3691.48531	0.106065
3689.55664	0.106160
3687.62796	0.106562
3685.69929	0.107062
3683.77061	0.107415
3681.84194	0.107593
3679.91326	0.107620
3677.98458	0.107470
3676.05591	0.107400
3674.12723	0.107679
3672.19856	0.107980
3670.26988	0.108167
3668.34121	0.108589
3666.41253	0.109131
3664.48385	0.109432
3662.55518	0.109533
3660.62650	0.109648
3658.69783	0.109771
3656.76915	0.109840
3654.84048	0.109896
3652.91180	0.109828
3650.98312	0.109600
3649.05445	0.109498
3647.12577	0.109800
3645.19710	0.110455
3643.26842	0.111088
3641.33975	0.111438
3639.41107	0.111616
3637.48239	0.111790
3635.55372	0.111938
3633.62504	0.111923
3631.69637	0.111681
3629.76769	0.111543
3627.83902	0.111937
3625.91034	0.112562
3623.98166	0.112875
3622.05299	0.112889
3620.12431	0.112868
3618.19564	0.112969
3616.26696	0.113140
3614.33829	0.113292
3612.40961	0.113431
3610.48093	0.113526
3608.55226	0.113672
3606.62358	0.114018
3604.69491	0.114381
3602.76623	0.114528
3600.83756	0.114585
3598.90888	0.114739
3596.98020	0.114927
3595.05153	0.115059
3593.12285	0.115181
3591.19418	0.115257
3589.26550	0.115237
3587.33683	0.115325
3585.40815	0.115676
3583.47947	0.116105
3581.55080	0.116380
3579.62212	0.116484
3577.69345	0.116578
3575.76477	0.116772
3573.83610	0.116964
3571.90742	0.117012
3569.97874	0.116911
3568.05007	0.116863
3566.12139	0.117057
3564.19272	0.117379
3562.26404	0.117661
3560.33537	0.117937
3558.40669	0.118172
3556.47801	0.118288
3554.54934	0.118406
3552.62066	0.118619
3550.69199	0.118767
3548.76331	0.118728
3546.83464	0.118707
3544.90596	0.118894
3542.97728	0.119154
3541.04861	0.119342
3539.11993	0.119494
3537.19126	0.119647
3535.26258	0.119761
3533.33391	0.119820
3531.40523	0.119887
3529.47655	0.119982
3527.54788	0.120037
3525.61920	0.120068
3523.69053	0.120189
3521.76185	0.120391
3519.83318	0.120512
3517.90450	0.120516
3515.97582	0.120579
3514.04715	0.120730
3512.11847	0.120793
3510.18980	0.120761
3508.26112	0.120797
3506.33245	0.120905
3504.40377	0.120946
3502.47509	0.120927
3500.54642	0.120979
3498.61774	0.121101
3496.68907	0.121168
3494.76039	0.121176
3492.83172	0.121249
3490.90304	0.121370
3488.97436	0.121394
3487.04569	0.121367
3485.11701	0.121462
3483.18834	0.121630
3481.25966	0.121738
3479.33099	0.121834
3477.40231	0.122003
3475.47363	0.122191
3473.54496	0.122306
3471.61628	0.122416
3469.68761	0.122645
3467.75893	0.122908
3465.83026	0.123050
3463.90158	0.123189
3461.97290	0.123495
3460.04423	0.123838
3458.11555	0.124031
3456.18688	0.124157
3454.25820	0.124359
3452.32953	0.124570
3450.40085	0.124682
3448.47217	0.124818
3446.54350	0.125101
3444.61482	0.125370
3442.68615	0.125511
3440.75747	0.125702
3438.82880	0.126058
3436.90012	0.126453
3434.97144	0.126781
3433.04277	0.127151
3431.11409	0.127668
3429.18542	0.128180
3427.25674	0.128546
3425.32807	0.128905
3423.39939	0.129372
3421.47071	0.129824
3419.54204	0.130182
3417.61336	0.130553
3415.68469	0.130989
3413.75601	0.131362
3411.82734	0.131601
3409.89866	0.131843
3407.96998	0.132157
3406.04131	0.132415
3404.11263	0.132626
3402.18396	0.132952
3400.25528	0.133338
3398.32661	0.133589
3396.39793	0.133754
3394.46925	0.134049
3392.54058	0.134481
3390.61190	0.134827
3388.68323	0.135028
3386.75455	0.135261
3384.82588	0.135568
3382.89720	0.135825
3380.96852	0.136040
3379.03985	0.136330
3377.11117	0.136663
3375.18250	0.136902
3373.25382	0.137072
3371.32515	0.137326
3369.39647	0.137635
3367.46779	0.137844
3365.53912	0.138008
3363.61044	0.138291
3361.68177	0.138641
3359.75309	0.138901
3357.82442	0.139093
3355.89574	0.139368
3353.96706	0.139692
3352.03839	0.139912
3350.10971	0.140083
3348.18104	0.140363
3346.25236	0.140696
3344.32369	0.140918
3342.39501	0.141098
3340.46633	0.141411
3338.53766	0.141746
3336.60898	0.141922
3334.68031	0.142064
3332.75163	0.142361
3330.82296	0.142709
3328.89428	0.142918
3326.96560	0.143090
3325.03693	0.143400
3323.10825	0.143749
3321.17958	0.143973
3319.25090	0.144159
3317.32223	0.144466
3315.39355	0.144781
3313.46487	0.144948
3311.53620	0.145124
3309.60752	0.145469
3307.67885	0.145833
3305.75017	0.146082
3303.82150	0.146334
3301.89282	0.146677
3299.96414	0.146992
3298.03547	0.147218
3296.10679	0.147477
3294.17812	0.147802
3292.24944	0.148060
3290.32077	0.148231
3288.39209	0.148500
3286.46341	0.148935
3284.53474	0.149310
3282.60606	0.149507
3280.67739	0.149724
3278.74871	0.150078
3276.82004	0.150407
3274.89136	0.150609
3272.96268	0.150854
3271.03401	0.151249
3269.10533	0.151612
3267.17666	0.151839
3265.24798	0.152094
3263.31931	0.152443
3261.39063	0.152705
3259.46195	0.152828
3257.53328	0.153043
3255.60460	0.153420
3253.67593	0.153744
3251.74725	0.153962
3249.81858	0.154265
3247.88990	0.154668
3245.96122	0.154956
3244.03255	0.155144
3242.10387	0.155450
3240.17520	0.155819
3238.24652	0.156036
3236.31785	0.156169
3234.38917	0.156450
3232.46049	0.156841
3230.53182	0.157124
3228.60314	0.157320
3226.67447	0.157618
3224.74579	0.157981
3222.81712	0.158232
3220.88844	0.158426
3218.95976	0.158754
3217.03109	0.159139
3215.10241	0.159350
3213.17374	0.159459
3211.24506	0.159713
3209.31639	0.160065
3207.38771	0.160304
3205.45903	0.160512
3203.53036	0.160889
3201.60168	0.161303
3199.67301	0.161554
3197.74433	0.161755
3195.81566	0.162079
3193.88698	0.162448
3191.95830	0.162720
3190.02963	0.162951
3188.10095	0.163272
3186.17228	0.163627
3184.24360	0.163891
3182.31493	0.164128
3180.38625	0.164468
3178.45757	0.164833
3176.52890	0.165085
3174.60022	0.165305
3172.67155	0.165623
3170.74287	0.165948
3168.81420	0.166178
3166.88552	0.166436
3164.95684	0.166801
3163.02817	0.167119
3161.09949	0.167310
3159.17082	0.167538
3157.24214	0.167886
3155.31347	0.168197
3153.38479	0.168390
3151.45611	0.168631
3149.52744	0.168998
3147.59876	0.169289
3145.67009	0.169423
3143.74141	0.169634
3141.81274	0.170042
3139.88406	0.170422
3137.95538	0.170612
3136.02671	0.170812
3134.09803	0.171154
3132.16936	0.171443
3130.24068	0.171625
3128.31201	0.171897
3126.38333	0.172277
3124.45465	0.172575
3122.52598	0.172770
3120.59730	0.173034
3118.66863	0.173390
3116.73995	0.173681
3114.81128	0.173877
3112.88260	0.174133
3110.95392	0.174469
3109.02525	0.174721
3107.09657	0.174884
3105.16790	0.175145
3103.23922	0.175492
3101.31055	0.175726
3099.38187	0.175878
3097.45319	0.176172
3095.52452	0.176591
3093.59584	0.176889
3091.66717	0.177041
3089.73849	0.177252
3087.80982	0.177534
3085.88114	0.177742
3083.95246	0.177912
3082.02379	0.178176
3080.09511	0.178488
3078.16644	0.178711
3076.23776	0.178907
3074.30909	0.179233
3072.38041	0.179602
3070.45173	0.179807
3068.52306	0.179925
3066.59438	0.180187
3064.66571	0.180533
3062.73703	0.180735
3060.80836	0.180862
3058.87968	0.181141
3056.95100	0.181491
3055.02233	0.181684
3053.09365	0.181824
3051.16498	0.182115
3049.23630	0.182411
3047.30763	0.182532
3045.37895	0.182639
3043.45027	0.182904
3041.52160	0.183186
3039.59292	0.183315
3037.66425	0.183410
3035.73557	0.183637
3033.80690	0.183871
3031.87822	0.183973
3029.94954	0.184105
3028.02087	0.184391
3026.09219	0.184625
3024.16352	0.184673
3022.23484	0.184773
3020.30617	0.185081
3018.37749	0.185351
3016.44881	0.185428
3014.52014	0.185527
3012.59146	0.185796
3010.66279	0.186071
3008.73411	0.186206
3006.80544	0.186339
3004.87676	0.186585
3002.94808	0.186760
3001.01941	0.186753
2999.09073	0.186812
2997.16206	0.187076
2995.23338	0.187312
2993.30471	0.187395
2991.37603	0.187505
2989.44735	0.187697
2987.51868	0.187797
2985.59000	0.187792
2983.66133	0.187868
2981.73265	0.188010
2979.80398	0.187990
2977.87530	0.187804
2975.94662	0.187707
2974.01795	0.187729
2972.08927	0.187597
2970.16060	0.187281
2968.23192	0.187051
2966.30325	0.186973
2964.37457	0.186901
2962.44589	0.186879
2960.51722	0.187075
2958.58854	0.187398
2956.65987	0.187612
2954.73119	0.187763
2952.80252	0.188054
2950.87384	0.188402
2948.94516	0.188567
2947.01649	0.188605
2945.08781	0.188755
2943.15914	0.188936
2941.23046	0.188866
2939.30179	0.188613
2937.37311	0.188454
2935.44443	0.188358
2933.51576	0.188124
2931.58708	0.187829
2929.65841	0.187680
2927.72973	0.187584
2925.80106	0.187382
2923.87238	0.187220
2921.94370	0.187298
2920.01503	0.187566
2918.08635	0.187904
2916.15768	0.188488
2914.22900	0.189526
2912.30033	0.190753
2910.37165	0.191771
2908.44297	0.192611
2906.51430	0.193457
2904.58562	0.194183
2902.65695	0.194683
2900.72827	0.195207
2898.79960	0.195913
2896.87092	0.196587
2894.94224	0.197064
2893.01357	0.197505
2891.08489	0.198079
2889.15622	0.198642
2887.22754	0.199037
2885.29887	0.199416
2883.37019	0.199931
2881.44151	0.200392
2879.51284	0.200611
2877.58416	0.200809
2875.65549	0.201206
2873.72681	0.201596
2871.79814	0.201831
2869.86946	0.202128
2867.94078	0.202589
2866.01211	0.202974
2864.08343	0.203137
2862.15476	0.203293
2860.22608	0.203572
2858.29741	0.203742
2856.36873	0.203709
2854.44005	0.203711
2852.51138	0.203898
2850.58270	0.204285
2848.65403	0.205030
2846.72535	0.206241
2844.79668	0.207616
2842.86800	0.208726
2840.93932	0.209551
2839.01065	0.210354
2837.08197	0.211177
2835.15330	0.211821
2833.22462	0.212267
2831.29595	0.212755
2829.36727	0.213349
2827.43859	0.213863
2825.50992	0.214299
2823.58124	0.214841
2821.65257	0.215436
2819.72389	0.215863
2817.79522	0.216163
2815.86654	0.216591
2813.93786	0.217158
2812.00919	0.217602
2810.08051	0.217911
2808.15184	0.218333
2806.22316	0.218840
2804.29449	0.219194
2802.36581	0.219462
2800.43713	0.219895
2798.50846	0.220419
2796.57978	0.220780
2794.65111	0.221055
2792.72243	0.221471
2790.79376	0.221935
2788.86508	0.222233
2786.93640	0.222475
2785.00773	0.222883
2783.07905	0.223322
2781.15038	0.223543
2779.22170	0.223703
2777.29303	0.224079
2775.36435	0.224552
2773.43567	0.224894
2771.50700	0.225190
2769.57832	0.225602
2767.64965	0.226031
2765.72097	0.226286
2763.79230	0.226477
2761.86362	0.226821
2759.93494	0.227196
2758.00627	0.227414
2756.07759	0.227629
2754.14892	0.228021
2752.22024	0.228415
2750.29157	0.228653
2748.36289	0.228907
2746.43421	0.229286
2744.50554	0.229610
2742.57686	0.229796
2740.64819	0.230042
2738.71951	0.230423
2736.79084	0.230736
2734.86216	0.230913
2732.93348	0.231163
2731.00481	0.231549
2729.07613	0.231862
2727.14746	0.232048
2725.21878	0.232315
2723.29011	0.232706
2721.36143	0.233030
2719.43275	0.233244
2717.50408	0.233521
2715.57540	0.233896
2713.64673	0.234169
2711.71805	0.234299
2709.78938	0.234535
2707.86070	0.234952
2705.93202	0.235300
2704.00335	0.235488
2702.07467	0.235759
2700.14600	0.236158
2698.21732	0.236417
2696.28865	0.236533
2694.35997	0.236790
2692.43129	0.237187
2690.50262	0.237459
2688.57394	0.237609
2686.64527	0.237879
2684.71659	0.238255
2682.78792	0.238518
2680.85924	0.238700
2678.93056	0.239001
2677.00189	0.239379
2675.07321	0.239612
2673.14454	0.239757
2671.21586	0.240075
2669.28719	0.240506
2667.35851	0.240781
2665.42983	0.240937
2663.50116	0.241214
2661.57248	0.241574
2659.64381	0.241807
2657.71513	0.241996
2655.78646	0.242326
2653.85778	0.242692
2651.92910	0.242926
2650.00043	0.243136
2648.07175	0.243491
2646.14308	0.243893
2644.21440	0.244135
2642.28573	0.244318
2640.35705	0.244701
2638.42837	0.245158
2636.49970	0.245411
2634.57102	0.245591
2632.64235	0.245936
2630.71367	0.246310
2628.78500	0.246531
2626.85632	0.246767
2624.92764	0.247180
2622.99897	0.247583
2621.07029	0.247807
2619.14162	0.248037
2617.21294	0.248466
2615.28427	0.248913
2613.35559	0.249150
2611.42691	0.249339
2609.49824	0.249702
2607.56956	0.250079
2605.64089	0.250270
2603.71221	0.250468
2601.78354	0.250875
2599.85486	0.251298
2597.92618	0.251543
2595.99751	0.251785
2594.06883	0.252172
2592.14016	0.252522
2590.21148	0.252690
2588.28281	0.252865
2586.35413	0.253215
2584.42545	0.253595
2582.49678	0.253858
2580.56810	0.254129
2578.63943	0.254502
2576.71075	0.254810
2574.78208	0.254954
2572.85340	0.255142
2570.92472	0.255494
2568.99605	0.255802
2567.06737	0.255995
2565.13870	0.256291
2563.21002	0.256729
2561.28135	0.257068
2559.35267	0.257242
2557.42399	0.257433
2555.49532	0.257710
2553.56664	0.257964
2551.63797	0.258156
2549.70929	0.258413
2547.78062	0.258745
2545.85194	0.258993
2543.92326	0.259197
2541.99459	0.259536
2540.06591	0.259928
2538.13724	0.260161
2536.20856	0.260301
2534.27989	0.260585
2532.35121	0.260976
2530.42253	0.261248
2528.49386	0.261412
2526.56518	0.261665
2524.63651	0.262017
2522.70783	0.262290
2520.77916	0.262497
2518.85048	0.262836
2516.92181	0.263241
2514.99313	0.263483
2513.06445	0.263621
2511.13578	0.263889
2509.20710	0.264272
2507.27843	0.264577
2505.34975	0.264845
2503.42108	0.265261
2501.49240	0.265720
2499.56372	0.266008
2497.63505	0.266215
2495.70637	0.266554
2493.77770	0.266964
2491.84902	0.267222
2489.92035	0.267428
2487.99167	0.267844
2486.06299	0.268312
2484.13432	0.268553
2482.20564	0.268716
2480.27697	0.269054
2478.34829	0.269446
2476.41962	0.269708
2474.49094	0.269970
2472.56226	0.270378
2470.63359	0.270773
2468.70491	0.271000
2466.77624	0.271226
2464.84756	0.271610
2462.91889	0.271974
2460.99021	0.272172
2459.06153	0.272404
2457.13286	0.272804
2455.20418	0.273146
2453.27551	0.273294
2451.34683	0.273497
2449.41816	0.273916
2447.48948	0.274338
2445.56080	0.274588
2443.63213	0.274808
2441.70345	0.275139
2439.77478	0.275465
2437.84610	0.275672
2435.91743	0.275888
2433.98875	0.276240
2432.06007	0.276600
2430.13140	0.276833
2428.20272	0.277066
2426.27405	0.277424
2424.34537	0.277793
2422.41670	0.278072
2420.48802	0.278343
2418.55934	0.278653
2416.63067	0.278918
2414.70199	0.279157
2412.77332	0.279469
2410.84464	0.279781
2408.91597	0.279975
2406.98729	0.280178
2405.05861	0.280557
2403.12994	0.280976
2401.20126	0.281229
2399.27259	0.281409
2397.34391	0.281698
2395.41524	0.282038
2393.48656	0.282274
2391.55788	0.282458
2389.62921	0.282761
2387.70053	0.283136
2385.77186	0.283363
2383.84318	0.283433
2381.91451	0.283558
2379.98583	0.283727
2378.05715	0.283715
2376.12848	0.283563
2374.19980	0.283525
2372.27113	0.283616
2370.34245	0.283660
2368.41378	0.283666
2366.48510	0.283780
2364.55642	0.283987
2362.62775	0.284143
2360.69907	0.284304
2358.77040	0.284656
2356.84172	0.285153
2354.91305	0.285643
2352.98437	0.286216
2351.05569	0.286949
2349.12702	0.287498
2347.19834	0.287541
2345.26967	0.287396
2343.34099	0.287479
2341.41232	0.287743
2339.48364	0.288033
2337.55496	0.288351
2335.62629	0.288743
2333.69761	0.289110
2331.76894	0.289312
2329.84026	0.289501
2327.91159	0.289876
2325.98291	0.290295
2324.05423	0.290595
2322.12556	0.290883
2320.19688	0.291307
2318.26821	0.291784
2316.33953	0.292140
2314.41086	0.292458
2312.48218	0.292911
2310.55350	0.293394
2308.62483	0.293744
2306.69615	0.294077
2304.76748	0.294510
2302.83880	0.294898
2300.91013	0.295154
2298.98145	0.295436
2297.05277	0.295836
2295.12410	0.296182
2293.19542	0.296377
2291.26675	0.296616
2289.33807	0.296972
2287.40940	0.297282
2285.48072	0.297508
2283.55204	0.297736
2281.62337	0.298016
2279.69469	0.298328
2277.76602	0.298626
2275.83734	0.298946
2273.90867	0.299289
2271.97999	0.299536
2270.05131	0.299689
2268.12264	0.299883
2266.19396	0.300138
2264.26529	0.300359
2262.33661	0.300562
2260.40794	0.300849
2258.47926	0.301199
2256.55058	0.301503
2254.62191	0.301726
2252.69323	0.301962
2250.76456	0.302279
2248.83588	0.302572
2246.90721	0.302784
2244.97853	0.303031
2243.04985	0.303310
2241.12118	0.303484
2239.19250	0.303581
2237.26383	0.303776
2235.33515	0.304093
2233.40648	0.304375
2231.47780	0.304587
2229.54912	0.304834
2227.62045	0.305119
2225.69177	0.305387
2223.76310	0.305665
2221.83442	0.305984
2219.90575	0.306275
2217.97707	0.306477
2216.04839	0.306652
2214.11972	0.306899
2212.19104	0.307209
2210.26237	0.307473
2208.33369	0.307676
2206.40502	0.307912
2204.47634	0.308170
2202.54766	0.308344
2200.61899	0.308475
2198.69031	0.308690
2196.76164	0.308945
2194.83296	0.309149
2192.90429	0.309364
2190.97561	0.309652
2189.04693	0.309946
2187.11826	0.310185
2185.18958	0.310402
2183.26091	0.310651
2181.33223	0.310923
2179.40356	0.311159
2177.47488	0.311397
2175.54620	0.311729
2173.61753	0.312043
2171.68885	0.312199
2169.76018	0.312303
2167.83150	0.312528
2165.90283	0.312851
2163.97415	0.313112
2162.04547	0.313305
2160.11680	0.313565
2158.18812	0.313849
2156.25945	0.314053
2154.33077	0.314272
2152.40210	0.314565
2150.47342	0.314833
2148.54474	0.315039
2146.61607	0.315255
2144.68739	0.315541
2142.75872	0.315804
2140.83004	0.315950
2138.90137	0.316086
2136.97269	0.316307
2135.04401	0.316545
2133.11534	0.316727
2131.18666	0.316907
2129.25799	0.317151
2127.32931	0.317416
2125.40064	0.317672
2123.47196	0.317949
2121.54328	0.318251
2119.61461	0.318508
2117.68593	0.318674
2115.75726	0.318840
2113.82858	0.319094
2111.89991	0.319333
2109.97123	0.319468
2108.04255	0.319660
2106.11388	0.319990
2104.18520	0.320254
2102.25653	0.320370
2100.32785	0.320534
2098.39918	0.320848
2096.47050	0.321157
2094.54182	0.321369
2092.61315	0.321613
2090.68447	0.321921
2088.75580	0.322168
2086.82712	0.322351
2084.89845	0.322610
2082.96977	0.322943
2081.04109	0.323183
2079.11242	0.323355
2077.18374	0.323622
2075.25507	0.323945
2073.32639	0.324181
2071.39772	0.324346
2069.46904	0.324582
2067.54036	0.324891
2065.61169	0.325111
2063.68301	0.325246
2061.75434	0.325461
2059.82566	0.325757
2057.89699	0.326007
2055.96831	0.326206
2054.03963	0.326439
2052.11096	0.326704
2050.18228	0.326943
2048.25361	0.327151
2046.32493	0.327387
2044.39626	0.327642
2042.46758	0.327843
2040.53890	0.328023
2038.61023	0.328275
2036.68155	0.328541
2034.75288	0.328741
2032.82420	0.328952
2030.89553	0.329221
2028.96685	0.329477
2027.03817	0.329689
2025.10950	0.329899
2023.18082	0.330166
2021.25215	0.330433
2019.32347	0.330598
2017.39480	0.330789
2015.46612	0.331132
2013.53744	0.331462
2011.60877	0.331667
2009.68009	0.331863
2007.75142	0.332127
2005.82274	0.332392
2003.89407	0.332558
2001.96539	0.332701
2000.03671	0.332947
1998.10804	0.333209
1996.17936	0.333369
1994.25069	0.333462
1992.32201	0.333599
1990.39334	0.333820
1988.46466	0.334052
1986.53598	0.334305
1984.60731	0.334592
1982.67863	0.334802
1980.74996	0.334906
1978.82128	0.335059
1976.89261	0.335312
1974.96393	0.335490
1973.03525	0.335572
1971.10658	0.335733
1969.17790	0.335983
1967.24923	0.336226
1965.32055	0.336443
1963.39188	0.336592
1961.46320	0.336684
1959.53452	0.336829
1957.60585	0.337074
1955.67717	0.337404
1953.74850	0.337754
1951.81982	0.337962
1949.89115	0.337989
1947.96247	0.338028
1946.03379	0.338112
1944.10512	0.338088
1942.17644	0.338198
1940.24777	0.338730
1938.31909	0.339348
1936.39042	0.339657
1934.46174	0.339742
1932.53306	0.339866
1930.60439	0.340061
1928.67571	0.340205
1926.74704	0.340285
1924.81836	0.340360
1922.88969	0.340486
1920.96101	0.340597
1919.03233	0.340677
1917.10366	0.340969
1915.17498	0.341464
1913.24631	0.341799
1911.31763	0.341912
1909.38896	0.342076
1907.46028	0.342355
1905.53160	0.342580
1903.60293	0.342755
1901.67425	0.343002
1899.74558	0.343263
1897.81690	0.343400
1895.88823	0.343472
1893.95955	0.343596
1892.03087	0.343607
1890.10220	0.343515
1888.17352	0.343707
1886.24485	0.344153
1884.31617	0.344485
1882.38750	0.344641
1880.45882	0.344787
1878.53014	0.345039
1876.60147	0.345325
1874.67279	0.345520
1872.74412	0.345533
1870.81544	0.345352
1868.88677	0.345256
1866.95809	0.345524
1865.02941	0.346048
1863.10074	0.346564
1861.17206	0.346928
1859.24339	0.347171
1857.31471	0.347429
1855.38604	0.347717
1853.45736	0.347955
1851.52868	0.348043
1849.60001	0.347947
1847.67133	0.347643
1845.74266	0.347195
1843.81398	0.347263
1841.88531	0.348125
1839.95663	0.348946
1838.02795	0.349298
1836.09928	0.349532
1834.17060	0.349717
1832.24193	0.349615
1830.31325	0.349402
1828.38458	0.349406
1826.45590	0.349554
1824.52722	0.349912
1822.59855	0.350471
1820.66987	0.350838
1818.74120	0.351014
1816.81252	0.351271
1814.88385	0.351493
1812.95517	0.351485
1811.02649	0.351470
1809.09782	0.351707
1807.16914	0.351994
1805.24047	0.352019
1803.31179	0.351834
1801.38312	0.351811
1799.45444	0.352086
1797.52576	0.352391
1795.59709	0.352492
1793.66841	0.352329
1791.73974	0.352210
1789.81106	0.352546
1787.88239	0.353022
1785.95371	0.353194
1784.02503	0.353216
1782.09636	0.353249
1780.16768	0.353339
1778.23901	0.353487
1776.31033	0.353405
1774.38166	0.352948
1772.45298	0.352499
1770.52430	0.352385
1768.59563	0.352636
1766.66695	0.353277
1764.73828	0.353851
1762.80960	0.353938
1760.88093	0.353878
1758.95225	0.353747
1757.02357	0.353599
1755.09490	0.353667
1753.16622	0.353459
1751.23755	0.352802
1749.30887	0.352430
1747.38020	0.352574
1745.45152	0.352733
1743.52284	0.352697
1741.59417	0.352624
1739.66549	0.352573
1737.73682	0.352175
1735.80814	0.351143
1733.87947	0.350516
1731.95079	0.351121
1730.02211	0.352117
1728.09344	0.352851
1726.16476	0.353291
1724.23609	0.353408
1722.30741	0.353135
1720.37874	0.352338
1718.45006	0.351648
1716.52138	0.351856
1714.59271	0.352717
1712.66403	0.353609
1710.73536	0.354113
1708.80668	0.354003
1706.87801	0.353601
1704.94933	0.353383
1703.02065	0.352833
1701.09198	0.351801
1699.16330	0.351329
1697.23463	0.351447
1695.30595	0.352012
1693.37728	0.353184
1691.44860	0.353847
1689.51992	0.353563
1687.59125	0.352793
1685.66257	0.351724
1683.73390	0.351333
1681.80522	0.352079
1679.87655	0.352958
1677.94787	0.353188
1676.01919	0.352980
1674.09052	0.352814
1672.16184	0.352418
1670.23317	0.351821
1668.30449	0.352033
1666.37582	0.352837
1664.44714	0.353102
1662.51846	0.352992
1660.58979	0.353074
1658.66111	0.353031
1656.73244	0.352075
1654.80376	0.350415
1652.87509	0.349864
1650.94641	0.350781
1649.01773	0.351207
1647.08906	0.350861
1645.16038	0.351170
1643.23171	0.352014
1641.30303	0.352386
1639.37436	0.351998
1637.44568	0.351069
1635.51700	0.350581
1633.58833	0.351293
1631.65965	0.352153
1629.73098	0.352094
1627.80230	0.351548
1625.87363	0.350816
1623.94495	0.349876
1622.01627	0.349260
1620.08760	0.349173
1618.15892	0.349476
1616.23025	0.350415
1614.30157	0.351845
1612.37290	0.353015
1610.44422	0.353625
1608.51554	0.353980
1606.58687	0.354322
1604.65819	0.354666
1602.72952	0.355027
1600.80084	0.355381
1598.87217	0.355635
1596.94349	0.355799
1595.01481	0.355967
1593.08614	0.356169
1591.15746	0.356427
1589.22879	0.356770
1587.30011	0.357083
1585.37144	0.357272
1583.44276	0.357471
1581.51408	0.357721
1579.58541	0.357736
1577.65673	0.357491
1575.72806	0.357570
1573.79938	0.358020
1571.87071	0.358061
1569.94203	0.357866
1568.01335	0.358252
1566.08468	0.358939
1564.15600	0.359191
1562.22733	0.358483
1560.29865	0.357064
1558.36998	0.356628
1556.44130	0.357744
1554.51262	0.359013
1552.58395	0.359757
1550.65527	0.360208
1548.72660	0.360429
1546.79792	0.360213
1544.86925	0.359531
1542.94057	0.358737
1541.01189	0.358254
1539.08322	0.358684
1537.15454	0.359749
1535.22587	0.360300
1533.29719	0.360363
1531.36852	0.360550
1529.43984	0.360616
1527.51116	0.360455
1525.58249	0.360304
1523.65381	0.359751
1521.72514	0.358950
1519.79646	0.358858
1517.86779	0.359371
1515.93911	0.360049
1514.01043	0.360693
1512.08176	0.360724
1510.15308	0.360020
1508.22441	0.359180
1506.29573	0.359140
1504.36706	0.360171
1502.43838	0.361057
1500.50970	0.360951
1498.58103	0.360527
1496.65235	0.360539
1494.72368	0.360713
1492.79500	0.360223
1490.86633	0.359216
1488.93765	0.358743
1487.00897	0.358969
1485.08030	0.359160
1483.15162	0.358912
1481.22295	0.358336
1479.29427	0.357508
1477.36560	0.356358
1475.43692	0.354991
1473.50824	0.353654
1471.57957	0.352761
1469.65089	0.352339
1467.72222	0.351703
1465.79354	0.350779
1463.86487	0.350131
1461.93619	0.349530
1460.00751	0.348188
1458.07884	0.346519
1456.15016	0.346072
1454.22149	0.346885
1452.29281	0.347520
1450.36414	0.347526
1448.43546	0.347424
1446.50678	0.347621
1444.57811	0.348080
1442.64943	0.348543
1440.72076	0.348650
1438.79208	0.348102
1436.86341	0.347784
1434.93473	0.348688
1433.00605	0.349956
1431.07738	0.350653
1429.14870	0.351177
1427.22003	0.351780
1425.29135	0.352203
1423.36268	0.352383
1421.43400	0.352277
1419.50532	0.352142
1417.57665	0.352575
1415.64797	0.353360
1413.71930	0.353846
1411.79062	0.354043
1409.86195	0.354185
1407.93327	0.354235
1406.00459	0.354205
1404.07592	0.354209
1402.14724	0.354012
1400.21857	0.353453
1398.28989	0.352955
1396.36122	0.352724
1394.43254	0.352731
1392.50386	0.352886
1390.57519	0.352504
1388.64651	0.351377
1386.71784	0.350441
1384.78916	0.350208
1382.86049	0.350305
1380.93181	0.350372
1379.00313	0.350253
1377.07446	0.349982
1375.14578	0.349763
1373.21711	0.349697
1371.28843	0.349686
1369.35976	0.349743
1367.43108	0.349968
1365.50240	0.350077
1363.57373	0.349875
1361.64505	0.349816
1359.71638	0.350190
1357.78770	0.350591
1355.85903	0.350706
1353.93035	0.350762
1352.00167	0.350910
1350.07300	0.351037
1348.14432	0.351170
1346.21565	0.351362
1344.28697	0.351409
1342.35830	0.351122
1340.42962	0.350699
1338.50094	0.350491
1336.57227	0.350511
1334.64359	0.350528
1332.71492	0.350403
1330.78624	0.350094
1328.85757	0.349665
1326.92889	0.349245
1325.00021	0.348858
1323.07154	0.348439
1321.14286	0.347964
1319.21419	0.347532
1317.28551	0.347240
1315.35684	0.346994
1313.42816	0.346678
1311.49948	0.346252
1309.57081	0.345711
1307.64213	0.345136
1305.71346	0.344568
1303.78478	0.343999
1301.85611	0.343507
1299.92743	0.343098
1297.99875	0.342680
1296.07008	0.342252
1294.14140	0.341882
1292.21273	0.341567
1290.28405	0.341206
1288.35538	0.340782
1286.42670	0.340404
1284.49802	0.340058
1282.56935	0.339621
1280.64067	0.339105
1278.71200	0.338573
1276.78332	0.337921
1274.85465	0.336998
1272.92597	0.335812
1270.99729	0.334446
1269.06862	0.332868
1267.13994	0.331139
1265.21127	0.329577
1263.28259	0.328497
1261.35392	0.328004
1259.42524	0.327879
1257.49656	0.327799
1255.56789	0.327651
1253.63921	0.327379
1251.71054	0.326903
1249.78186	0.326220
1247.85319	0.325420
1245.92451	0.324586
1243.99583	0.323660
1242.06716	0.322585
1240.13848	0.321399
1238.20981	0.320183
1236.28113	0.319008
1234.35246	0.317890
1232.42378	0.316813
1230.49510	0.315750
1228.56643	0.314697
1226.63775	0.313676
1224.70908	0.312704
1222.78040	0.311750
1220.85173	0.310759
1218.92305	0.309745
1216.99437	0.308748
1215.06570	0.307753
1213.13702	0.306710
1211.20835	0.305627
1209.27967	0.304604
1207.35100	0.303631
1205.42232	0.302598
1203.49364	0.301526
1201.56497	0.300479
1199.63629	0.299402
1197.70762	0.298225
1195.77894	0.296955
1193.85027	0.295641
1191.92159	0.294339
1189.99291	0.293023
1188.06424	0.291664
1186.13556	0.290315
1184.20689	0.288940
1182.27821	0.287446
1180.34954	0.285866
1178.42086	0.284344
1176.49218	0.282949
1174.56351	0.281507
1172.63483	0.279873
1170.70616	0.278167
1168.77748	0.276540
1166.84881	0.274990
1164.92013	0.273458
1162.99145	0.271909
1161.06278	0.270349
1159.13410	0.268816
1157.20543	0.267371
1155.27675	0.266004
1153.34808	0.264614
1151.41940	0.263162
1149.49072	0.261745
1147.56205	0.260395
1145.63337	0.258975
1143.70470	0.257426
1141.77602	0.255832
1139.84735	0.254152
1137.91867	0.252307
1135.98999	0.250315
1134.06132	0.248058
1132.13264	0.245424
1130.20397	0.242455
1128.27529	0.239065
1126.34662	0.235214
1124.41794	0.231181
1122.48926	0.227226
1120.56059	0.223380
1118.63191	0.219672
1116.70324	0.216241
1114.77456	0.213185
1112.84589	0.210511
1110.91721	0.208241
1108.98853	0.206450
1107.05986	0.205193
1105.13118	0.204460
1103.20251	0.204238
1101.27383	0.204491
1099.34516	0.205151
1097.41648	0.206172
1095.48780	0.207440
1093.55913	0.208773
1091.63045	0.210081
1089.70178	0.211329
1087.77310	0.212483
1085.84443	0.213491
1083.91575	0.214289
1081.98707	0.214881
1080.05840	0.215322
1078.12972	0.215670
1076.20105	0.215980
1074.27237	0.216220
1072.34370	0.216344
1070.41502	0.216436
1068.48634	0.216597
1066.55767	0.216862
1064.62899	0.217191
1062.70032	0.217538
1060.77164	0.217951
1058.84297	0.218439
1056.91429	0.218930
1054.98561	0.219427
1053.05694	0.219918
1051.12826	0.220368
1049.19959	0.220858
1047.27091	0.221405
1045.34224	0.221981
1043.41356	0.222630
1041.48488	0.223312
1039.55621	0.223956
1037.62753	0.224537
1035.69886	0.225039
1033.77018	0.225545
1031.84151	0.226163
1029.91283	0.226792
1027.98415	0.227278
1026.05548	0.227755
1024.12680	0.228406
1022.19813	0.229129
1020.26945	0.229802
1018.34078	0.230486
1016.41210	0.231222
1014.48342	0.232066
1012.55475	0.233096
1010.62607	0.234230
1008.69740	0.235315
1006.76872	0.236290
1004.84005	0.237163
1002.91137	0.237965
1000.98269	0.238704
999.05402	0.239328
997.12534	0.239768
995.19667	0.240026
993.26799	0.240215
991.33932	0.240449
989.41064	0.240723
987.48196	0.240941
985.55329	0.241030
983.62461	0.241051
981.69594	0.241156
979.76726	0.241264
977.83859	0.241142
975.90991	0.240829
973.98123	0.240505
972.05256	0.240225
970.12388	0.239999
968.19521	0.239819
966.26653	0.239626
964.33786	0.239414
962.40918	0.239233
960.48050	0.239062
958.55183	0.238840
956.62315	0.238558
954.69448	0.238212
952.76580	0.237826
950.83713	0.237457
948.90845	0.237059
946.97977	0.236535
945.05110	0.235885
943.12242	0.235192
941.19375	0.234521
939.26507	0.233799
937.33640	0.232903
935.40772	0.231888
933.47904	0.230870
931.55037	0.229828
929.62169	0.228715
927.69302	0.227549
925.76434	0.226334
923.83567	0.225027
921.90699	0.223655
919.97831	0.222287
918.04964	0.220890
916.12096	0.219436
914.19229	0.217993
912.26361	0.216557
910.33494	0.215029
908.40626	0.213471
906.47758	0.212093
904.54891	0.210888
902.62023	0.209723
900.69156	0.208570
898.76288	0.207399
896.83421	0.206238
894.90553	0.205212
892.97685	0.204343
891.04818	0.203521
889.11950	0.202625
887.19083	0.201674
885.26215	0.200819
883.33348	0.200097
881.40480	0.199470
879.47612	0.198924
877.54745	0.198351
875.61877	0.197707
873.69010	0.197147
871.76142	0.196742
869.83275	0.196388
867.90407	0.195980
865.97539	0.195519
864.04672	0.195088
862.11804	0.194808
860.18937	0.194667
858.26069	0.194482
856.33202	0.194218
854.40334	0.193961
852.47466	0.193667
850.54599	0.193245
848.61731	0.192709
846.68864	0.192190
844.75996	0.191792
842.83129	0.191522
840.90261	0.191269
838.97394	0.190869
837.04526	0.190235
835.11658	0.189291
833.18791	0.188038
831.25923	0.186611
829.33056	0.185114
827.40188	0.183602
825.47321	0.182134
823.54453	0.180751
821.61585	0.179498
819.68718	0.178513
817.75850	0.177922
815.82983	0.177543
813.90115	0.177090
811.97248	0.176570
810.04380	0.176128
808.11512	0.175793
806.18645	0.175541
804.25777	0.175443
802.32910	0.175509
800.40042	0.175365
798.47175	0.174671
796.54307	0.173676
794.61439	0.172835
792.68572	0.172357
790.75704	0.172104
788.82837	0.171840
786.89969	0.171585
784.97102	0.171408
783.04234	0.171150
781.11366	0.170675
779.18499	0.170114
777.25631	0.169628
775.32764	0.169187
773.39896	0.168743
771.47029	0.168309
769.54161	0.167907
767.61293	0.167507
765.68426	0.167032
763.75558	0.166481
761.82691	0.165866
759.89823	0.165144
757.96956	0.164356
756.04088	0.163518
754.11220	0.162582
752.18353	0.161636
750.25485	0.160723
748.32618	0.159611
746.39750	0.158181
744.46883	0.156734
742.54015	0.155506
740.61147	0.154483
738.68280	0.153794
736.75412	0.153496
734.82545	0.153440
732.89677	0.153527
730.96810	0.153656
729.03942	0.153823
727.11074	0.154094
725.18207	0.154375
723.25339	0.154546
721.32472	0.154693
719.39604	0.154982
717.46737	0.155473
715.53869	0.156154
713.61001	0.157008
711.68134	0.157873
709.75266	0.158446
707.82399	0.158681
705.89531	0.158721
703.96664	0.158561
702.03796	0.158177
700.10928	0.157560
698.18061	0.156788
696.25193	0.156043
694.32326	0.155298
692.39458	0.154428
690.46591	0.153558
688.53723	0.152806
686.60855	0.152057
684.67988	0.151257
682.75120	0.150515
680.82253	0.149859
678.89385	0.149112
676.96518	0.148220
675.03650	0.147317
673.10782	0.146362
671.17915	0.145040
669.25047	0.143309
667.32180	0.141861
665.39312	0.141046
663.46445	0.140213
661.53577	0.138911
659.60709	0.137424
657.67842	0.136161
655.74974	0.135075
653.82107	0.133892
651.89239	0.132603
649.96372	0.131322
648.03504	0.130034
646.10636	0.128685
644.17769	0.127267
642.24901	0.125666
640.32034	0.123896
638.39166	0.122193
636.46299	0.120597
634.53431	0.118767
632.60563	0.116174
630.67696	0.112223
628.74828	0.106192
626.81961	0.098449
624.89093	0.090766
622.96226	0.084703
621.03358	0.081020
619.10490	0.079208
617.17623	0.077874
615.24755	0.076243
613.31888	0.074196
611.39020	0.072239
609.46153	0.071277
607.53285	0.071479
605.60417	0.072217
603.67550	0.073167
601.74682	0.074594
599.81815	0.076378
597.88947	0.077900
595.96080	0.078897
594.03212	0.079511
592.10344	0.079873
590.17477	0.080050
588.24609	0.080108
586.31742	0.079970
584.38874	0.079520
582.46007	0.078893
580.53139	0.078268
578.60271	0.077561
576.67404	0.076677
574.74536	0.075765
572.81669	0.074862
570.88801	0.073827
568.95934	0.072751
567.03066	0.071832
565.10198	0.071111
563.17331	0.070534
561.24463	0.070035
559.31596	0.069579
557.38728	0.069102
555.45861	0.068604
553.52993	0.068209
551.60125	0.067896
549.67258	0.067579
547.74390	0.067263
545.81523	0.066932
543.88655	0.066607
541.95788	0.066259
540.02920	0.065784
538.10052	0.065211
536.17185	0.064674
534.24317	0.064292
532.31450	0.064063
530.38582	0.063737
528.45715	0.063113
526.52847	0.062303
524.59979	0.061471
522.67112	0.060664
520.74244	0.059864
518.81377	0.058936
516.88509	0.057851
514.95642	0.056996
513.02774	0.056559
511.09906	0.056203
509.17039	0.055787
507.24171	0.055346
505.31304	0.054787
503.38436	0.054146
501.45569	0.053483
499.52701	0.052739
497.59833	0.051885
495.66966	0.050933
493.74098	0.049857
491.81231	0.048763
489.88363	0.047868
487.95496	0.047123
486.02628	0.046322
484.09760	0.045379
482.16893	0.044373
480.24025	0.043404
478.31158	0.042358
476.38290	0.041157
474.45423	0.040051
472.52555	0.039360
470.59687	0.038995
468.66820	0.038577
466.73952	0.038011
464.81085	0.037434
462.88217	0.036975
460.95350	0.036703
459.02482	0.036521
457.09614	0.036351
455.16747	0.036198
453.23879	0.036051
451.31012	0.035993
449.38144	0.036104
447.45277	0.036284
445.52409	0.036294
443.59541	0.035974
441.66674	0.035423
439.73806	0.034772
437.80939	0.034055
435.88071	0.033370
433.95204	0.032751
432.02336	0.032009
430.09468	0.031070
428.16601	0.030075
426.23733	0.029075
424.30866	0.028003
422.37998	0.026787
420.45131	0.025464
418.52263	0.024271
416.59395	0.023268
414.66528	0.022193
412.73660	0.021057
410.80793	0.020111
408.87925	0.019209
406.95058	0.018114
405.02190	0.016978
403.09322	0.015969
401.16455	0.015080
399.23587	0.014307
397.30720	0.013536
395.37852	0.012699
393.44985	0.011896
391.52117	0.011108
389.59249	0.010328
387.66382	0.009613
385.73514	0.008883
383.80647	0.008170
381.87779	0.007635
379.94912	0.007287
378.02044	0.006958
376.09176	0.006485
374.16309	0.005888
372.23441	0.005195
370.30574	0.004434
368.37706	0.003759
