7496.76250	0.002841
7494.83382	0.002851
7492.90514	0.002875
7490.97647	0.002903
7489.04779	0.002907
7487.11912	0.002896
7485.19044	0.002896
7483.26177	0.002909
7481.33309	0.002920
7479.40441	0.002934
7477.47574	0.002961
7475.54706	0.002988
7473.61839	0.003002
7471.68971	0.003014
7469.76104	0.003021
7467.83236	0.003014
7465.90368	0.003018
7463.97501	0.003037
7462.04633	0.003047
7460.11766	0.003046
7458.18898	0.003044
7456.26031	0.003037
7454.33163	0.003026
7452.40295	0.003013
7450.47428	0.003015
7448.54560	0.003044
7446.61693	0.003064
7444.68825	0.003050
7442.75958	0.003041
7440.83090	0.003058
7438.90222	0.003070
7436.97355	0.003065
7435.04487	0.003065
7433.11620	0.003071
7431.18752	0.003077
7429.25885	0.003097
7427.33017	0.003126
7425.40149	0.003136
7423.47282	0.003129
7421.54414	0.003138
7419.61547	0.003162
7417.68679	0.003183
7415.75812	0.003201
7413.82944	0.003214
7411.90076	0.003217
7409.97209	0.003218
7408.04341	0.003223
7406.11474	0.003230
7404.18606	0.003235
7402.25739	0.003239
7400.32871	0.003249
7398.40003	0.003266
7396.47136	0.003278
7394.54268	0.003286
7392.61401	0.003301
7390.68533	0.003318
7388.75666	0.003323
7386.82798	0.003321
7384.89930	0.003326
7382.97063	0.003339
7381.04195	0.003356
7379.11328	0.003377
7377.18460	0.003383
7375.25593	0.003364
7373.32725	0.003346
7371.39857	0.003347
7369.46990	0.003354
7367.54122	0.003353
7365.61255	0.003352
7363.68387	0.003352
7361.75520	0.003356
7359.82652	0.003364
7357.89784	0.003376
7355.96917	0.003392
7354.04049	0.003410
7352.11182	0.003420
7350.18314	0.003418
7348.25447	0.003418
7346.32579	0.003433
7344.39711	0.003457
7342.46844	0.003478
7340.53976	0.003488
7338.61109	0.003489
7336.68241	0.003493
7334.75374	0.003515
7332.82506	0.003548
7330.89638	0.003565
7328.96771	0.003570
7327.03903	0.003579
7325.11036	0.003586
7323.18168	0.003586
7321.25301	0.003595
7319.32433	0.003612
7317.39565	0.003627
7315.46698	0.003650
7313.53830	0.003669
7311.60963	0.003664
7309.68095	0.003660
7307.75228	0.003678
7305.82360	0.003692
7303.89492	0.003690
7301.96625	0.003684
7300.03757	0.003677
7298.10890	0.003679
7296.18022	0.003692
7294.25155	0.003701
7292.32287	0.003711
7290.39419	0.003723
7288.46552	0.003722
7286.53684	0.003714
7284.60817	0.003712
7282.67949	0.003709
7280.75082	0.003701
7278.82214	0.003701
7276.89346	0.003722
7274.96479	0.003749
7273.03611	0.003765
7271.10744	0.003779
7269.17876	0.003798
7267.25009	0.003813
7265.32141	0.003823
7263.39273	0.003824
7261.46406	0.003811
7259.53538	0.003814
7257.60671	0.003848
7255.67803	0.003880
7253.74936	0.003892
7251.82068	0.003896
7249.89200	0.003911
7247.96333	0.003942
7246.03465	0.003958
7244.10598	0.003943
7242.17730	0.003932
7240.24863	0.003942
7238.31995	0.003953
7236.39127	0.003957
7234.46260	0.003965
7232.53392	0.003988
7230.60525	0.004011
7228.67657	0.004016
7226.74790	0.004025
7224.81922	0.004041
7222.89054	0.004044
7220.96187	0.004033
7219.03319	0.004023
7217.10452	0.004029
7215.17584	0.004055
7213.24717	0.004079
7211.31849	0.004092
7209.38981	0.004113
7207.46114	0.004128
7205.53246	0.004116
7203.60379	0.004094
7201.67511	0.004083
7199.74644	0.004082
7197.81776	0.004090
7195.88908	0.004119
7193.96041	0.004165
7192.03173	0.004196
7190.10306	0.004203
7188.17438	0.004206
7186.24571	0.004216
7184.31703	0.004223
7182.38835	0.004225
7180.45968	0.004234
7178.53100	0.004254
7176.60233	0.004271
7174.67365	0.004285
7172.74498	0.004305
7170.81630	0.004315
7168.88762	0.004307
7166.95895	0.004306
7165.03027	0.004331
7163.10160	0.004357
7161.17292	0.004368
7159.24425	0.004381
7157.31557	0.004409
7155.38689	0.004434
7153.45822	0.004433
7151.52954	0.004422
7149.60087	0.004417
7147.67219	0.004409
7145.74352	0.004418
7143.81484	0.004454
7141.88616	0.004478
7139.95749	0.004472
7138.02881	0.004462
7136.10014	0.004468
7134.17146	0.004486
7132.24279	0.004501
7130.31411	0.004509
7128.38543	0.004506
7126.45676	0.004506
7124.52808	0.004520
7122.59941	0.004534
7120.67073	0.004537
7118.74206	0.004530
7116.81338	0.004524
7114.88470	0.004537
7112.95603	0.004577
7111.02735	0.004613
7109.09868	0.004633
7107.17000	0.004651
7105.24133	0.004661
7103.31265	0.004661
7101.38397	0.004664
7099.45530	0.004679
7097.52662	0.004696
7095.59795	0.004705
7093.66927	0.004713
7091.74060	0.004736
7089.81192	0.004764
7087.88324	0.004788
7085.95457	0.004800
7084.02589	0.004797
7082.09722	0.004795
7080.16854	0.004811
7078.23987	0.004836
7076.31119	0.004850
7074.38251	0.004844
7072.45384	0.004820
7070.52516	0.004809
7068.59649	0.004831
7066.66781	0.004869
7064.73914	0.004899
7062.81046	0.004905
7060.88178	0.004900
7058.95311	0.004910
7057.02443	0.004916
7055.09576	0.004897
7053.16708	0.004881
7051.23841	0.004897
7049.30973	0.004922
7047.38105	0.004933
7045.45238	0.004940
7043.52370	0.004958
7041.59503	0.004971
7039.66635	0.004976
7037.73768	0.004981
7035.80900	0.004980
7033.88032	0.004987
7031.95165	0.005017
7030.02297	0.005044
7028.09430	0.005043
7026.16562	0.005039
7024.23695	0.005059
7022.30827	0.005100
7020.37959	0.005147
7018.45092	0.005180
7016.52224	0.005200
7014.59357	0.005214
7012.66489	0.005209
7010.73622	0.005197
7008.80754	0.005203
7006.87886	0.005222
7004.95019	0.005233
7003.02151	0.005240
7001.09284	0.005260
6999.16416	0.005286
6997.23549	0.005304
6995.30681	0.005319
6993.37813	0.005327
6991.44946	0.005325
6989.52078	0.005317
6987.59211	0.005310
6985.66343	0.005305
6983.73476	0.005311
6981.80608	0.005333
6979.87740	0.005358
6977.94873	0.005368
6976.02005	0.005370
6974.09138	0.005379
6972.16270	0.005391
6970.23403	0.005395
6968.30535	0.005398
6966.37667	0.005405
6964.44800	0.005410
6962.51932	0.005422
6960.59065	0.005452
6958.66197	0.005492
6956.73330	0.005520
6954.80462	0.005525
6952.87594	0.005533
6950.94727	0.005562
6949.01859	0.005587
6947.08992	0.005599
6945.16124	0.005615
6943.23257	0.005623
6941.30389	0.005619
6939.37521	0.005629
6937.44654	0.005659
6935.51786	0.005679
6933.58919	0.005677
6931.66051	0.005676
6929.73184	0.005689
6927.80316	0.005709
6925.87448	0.005743
6923.94581	0.005781
6922.01713	0.005796
6920.08846	0.005785
6918.15978	0.005771
6916.23111	0.005775
6914.30243	0.005798
6912.37375	0.005816
6910.44508	0.005816
6908.51640	0.005819
6906.58773	0.005834
6904.65905	0.005852
6902.73038	0.005867
6900.80170	0.005880
6898.87302	0.005872
6896.94435	0.005843
6895.01567	0.005839
6893.08700	0.005872
6891.15832	0.005905
6889.22965	0.005926
6887.30097	0.005948
6885.37229	0.005976
6883.44362	0.005999
6881.51494	0.006008
6879.58627	0.006014
6877.65759	0.006029
6875.72892	0.006053
6873.80024	0.006073
6871.87156	0.006081
6869.94289	0.006084
6868.01421	0.006097
6866.08554	0.006122
6864.15686	0.006152
6862.22819	0.006189
6860.29951	0.006218
6858.37083	0.006227
6856.44216	0.006238
6854.51348	0.006262
6852.58481	0.006275
6850.65613	0.006264
6848.72746	0.006250
6846.79878	0.006249
6844.87010	0.006264
6842.94143	0.006299
6841.01275	0.006342
6839.08408	0.006365
6837.15540	0.006357
6835.22673	0.006348
6833.29805	0.006356
6831.36937	0.006368
6829.44070	0.006379
6827.51202	0.006392
6825.58335	0.006406
6823.65467	0.006418
6821.72600	0.006426
6819.79732	0.006433
6817.86864	0.006449
6815.93997	0.006463
6814.01129	0.006455
6812.08262	0.006453
6810.15394	0.006490
6808.22527	0.006540
6806.29659	0.006568
6804.36791	0.006569
6802.43924	0.006561
6800.51056	0.006573
6798.58189	0.006615
6796.65321	0.006652
6794.72454	0.006672
6792.79586	0.006701
6790.86718	0.006738
6788.93851	0.006761
6787.00983	0.006775
6785.08116	0.006785
6783.15248	0.006782
6781.22381	0.006771
6779.29513	0.006773
6777.36645	0.006793
6775.43778	0.006814
6773.50910	0.006836
6771.58043	0.006869
6769.65175	0.006895
6767.72308	0.006899
6765.79440	0.006893
6763.86572	0.006891
6761.93705	0.006902
6760.00837	0.006919
6758.07970	0.006924
6756.15102	0.006910
6754.22235	0.006904
6752.29367	0.006927
6750.36499	0.006959
6748.43632	0.006981
6746.50764	0.006995
6744.57897	0.006995
6742.65029	0.006989
6740.72162	0.007004
6738.79294	0.007049
6736.86426	0.007097
6734.93559	0.007122
6733.00691	0.007131
6731.07824	0.007132
6729.14956	0.007137
6727.22089	0.007165
6725.29221	0.007207
6723.36353	0.007236
6721.43486	0.007262
6719.50618	0.007298
6717.57751	0.007329
6715.64883	0.007341
6713.72016	0.007339
6711.79148	0.007330
6709.86280	0.007339
6707.93413	0.007369
6706.00545	0.007401
6704.07678	0.007436
6702.14810	0.007471
6700.21943	0.007483
6698.29075	0.007483
6696.36207	0.007498
6694.43340	0.007520
6692.50472	0.007531
6690.57605	0.007535
6688.64737	0.007537
6686.71870	0.007536
6684.79002	0.007539
6682.86134	0.007557
6680.93267	0.007581
6679.00399	0.007597
6677.07532	0.007606
6675.14664	0.007622
6673.21797	0.007637
6671.28929	0.007636
6669.36061	0.007633
6667.43194	0.007640
6665.50326	0.007646
6663.57459	0.007664
6661.64591	0.007705
6659.71724	0.007750
6657.78856	0.007789
6655.85988	0.007820
6653.93121	0.007839
6652.00253	0.007850
6650.07386	0.007863
6648.14518	0.007881
6646.21651	0.007890
6644.28783	0.007900
6642.35915	0.007928
6640.43048	0.007957
6638.50180	0.007972
6636.57313	0.007990
6634.64445	0.008011
6632.71578	0.008034
6630.78710	0.008059
6628.85842	0.008082
6626.92975	0.008115
6625.00107	0.008161
6623.07240	0.008198
6621.14372	0.008200
6619.21505	0.008177
6617.28637	0.008164
6615.35769	0.008173
6613.42902	0.008194
6611.50034	0.008221
6609.57167	0.008250
6607.64299	0.008256
6605.71432	0.008243
6603.78564	0.008241
6601.85696	0.008261
6599.92829	0.008278
6597.99961	0.008291
6596.07094	0.008321
6594.14226	0.008361
6592.21359	0.008390
6590.28491	0.008393
6588.35623	0.008373
6586.42756	0.008363
6584.49888	0.008384
6582.57021	0.008432
6580.64153	0.008494
6578.71286	0.008548
6576.78418	0.008575
6574.85550	0.008581
6572.92683	0.008585
6570.99815	0.008615
6569.06948	0.008660
6567.14080	0.008679
6565.21213	0.008674
6563.28345	0.008682
6561.35477	0.008697
6559.42610	0.008721
6557.49742	0.008765
6555.56875	0.008808
6553.64007	0.008820
6551.71140	0.008817
6549.78272	0.008831
6547.85404	0.008868
6545.92537	0.008908
6543.99669	0.008937
6542.06802	0.008950
6540.13934	0.008956
6538.21067	0.008965
6536.28199	0.008989
6534.35331	0.009018
6532.42464	0.009040
6530.49596	0.009069
6528.56729	0.009088
6526.63861	0.009082
6524.70994	0.009084
6522.78126	0.009100
6520.85258	0.009109
6518.92391	0.009118
6516.99523	0.009131
6515.06656	0.009141
6513.13788	0.009156
6511.20921	0.009175
6509.28053	0.009183
6507.35185	0.009206
6505.42318	0.009250
6503.49450	0.009280
6501.56583	0.009287
6499.63715	0.009301
6497.70848	0.009332
6495.77980	0.009370
6493.85112	0.009406
6491.92245	0.009432
6489.99377	0.009448
6488.06510	0.009472
6486.13642	0.009510
6484.20775	0.009545
6482.27907	0.009555
6480.35039	0.009560
6478.42172	0.009588
6476.49304	0.009615
6474.56437	0.009622
6472.63569	0.009638
6470.70702	0.009671
6468.77834	0.009699
6466.84966	0.009717
6464.92099	0.009740
6462.99231	0.009767
6461.06364	0.009786
6459.13496	0.009808
6457.20629	0.009837
6455.27761	0.009854
6453.34893	0.009856
6451.42026	0.009863
6449.49158	0.009889
6447.56291	0.009936
6445.63423	0.009968
6443.70556	0.009952
6441.77688	0.009928
6439.84820	0.009940
6437.91953	0.009979
6435.99085	0.010028
6434.06218	0.010075
6432.13350	0.010108
6430.20483	0.010133
6428.27615	0.010159
6426.34747	0.010194
6424.41880	0.010232
6422.49012	0.010253
6420.56145	0.010261
6418.63277	0.010275
6416.70410	0.010295
6414.77542	0.010327
6412.84674	0.010367
6410.91807	0.010401
6408.98939	0.010416
6407.06072	0.010417
6405.13204	0.010431
6403.20337	0.010477
6401.27469	0.010540
6399.34601	0.010580
6397.41734	0.010587
6395.48866	0.010582
6393.55999	0.010587
6391.63131	0.010606
6389.70264	0.010643
6387.77396	0.010699
6385.84528	0.010749
6383.91661	0.010770
6381.98793	0.010768
6380.05926	0.010771
6378.13058	0.010781
6376.20191	0.010782
6374.27323	0.010795
6372.34455	0.010838
6370.41588	0.010878
6368.48720	0.010892
6366.55853	0.010902
6364.62985	0.010926
6362.70118	0.010952
6360.77250	0.010970
6358.84382	0.010981
6356.91515	0.010985
6354.98647	0.010992
6353.05780	0.011023
6351.12912	0.011064
6349.20045	0.011084
6347.27177	0.011093
6345.34309	0.011113
6343.41442	0.011141
6341.48574	0.011165
6339.55707	0.011186
6337.62839	0.011218
6335.69972	0.011270
6333.77104	0.011324
6331.84236	0.011363
6329.91369	0.011389
6327.98501	0.011408
6326.05634	0.011429
6324.12766	0.011456
6322.19899	0.011484
6320.27031	0.011515
6318.34163	0.011549
6316.41296	0.011576
6314.48428	0.011603
6312.55561	0.011645
6310.62693	0.011700
6308.69826	0.011745
6306.76958	0.011762
6304.84090	0.011757
6302.91223	0.011760
6300.98355	0.011782
6299.05488	0.011804
6297.12620	0.011814
6295.19753	0.011837
6293.26885	0.011880
6291.34017	0.011905
6289.41150	0.011903
6287.48282	0.011915
6285.55415	0.011956
6283.62547	0.012000
6281.69680	0.012024
6279.76812	0.012036
6277.83944	0.012047
6275.91077	0.012060
6273.98209	0.012080
6272.05342	0.012107
6270.12474	0.012128
6268.19607	0.012152
6266.26739	0.012188
6264.33871	0.012230
6262.41004	0.012280
6260.48136	0.012334
6258.55269	0.012369
6256.62401	0.012396
6254.69534	0.012424
6252.76666	0.012441
6250.83798	0.012456
6248.90931	0.012482
6246.98063	0.012518
6245.05196	0.012561
6243.12328	0.012604
6241.19461	0.012638
6239.26593	0.012676
6237.33725	0.012718
6235.40858	0.012752
6233.47990	0.012782
6231.55123	0.012804
6229.62255	0.012810
6227.69388	0.012813
6225.76520	0.012834
6223.83652	0.012879
6221.90785	0.012912
6219.97917	0.012908
6218.05050	0.012898
6216.12182	0.012908
6214.19315	0.012925
6212.26447	0.012950
6210.33579	0.012993
6208.40712	0.013035
6206.47844	0.013071
6204.54977	0.013105
6202.62109	0.013126
6200.69242	0.013134
6198.76374	0.013147
6196.83506	0.013187
6194.90639	0.013253
6192.97771	0.013320
6191.04904	0.013361
6189.12036	0.013381
6187.19169	0.013398
6185.26301	0.013435
6183.33433	0.013490
6181.40566	0.013536
6179.47698	0.013565
6177.54831	0.013591
6175.61963	0.013608
6173.69096	0.013623
6171.76228	0.013658
6169.83360	0.013708
6167.90493	0.013755
6165.97625	0.013786
6164.04758	0.013806
6162.11890	0.013829
6160.19023	0.013860
6158.26155	0.013902
6156.33287	0.013947
6154.40420	0.013969
6152.47552	0.013966
6150.54685	0.013967
6148.61817	0.014006
6146.68950	0.014054
6144.76082	0.014067
6142.83214	0.014066
6140.90347	0.014088
6138.97479	0.014137
6137.04612	0.014190
6135.11744	0.014214
6133.18877	0.014212
6131.26009	0.014231
6129.33141	0.014286
6127.40274	0.014333
6125.47406	0.014350
6123.54539	0.014355
6121.61671	0.014362
6119.68804	0.014379
6117.75936	0.014422
6115.83068	0.014494
6113.90201	0.014569
6111.97333	0.014612
6110.04466	0.014630
6108.11598	0.014645
6106.18731	0.014670
6104.25863	0.014704
6102.32995	0.014748
6100.40128	0.014807
6098.47260	0.014864
6096.54393	0.014891
6094.61525	0.014891
6092.68658	0.014906
6090.75790	0.014962
6088.82922	0.015014
6086.90055	0.015026
6084.97187	0.015047
6083.04320	0.015106
6081.11452	0.015166
6079.18585	0.015218
6077.25717	0.015272
6075.32849	0.015299
6073.39982	0.015295
6071.47114	0.015297
6069.54247	0.015315
6067.61379	0.015340
6065.68512	0.015378
6063.75644	0.015414
6061.82776	0.015440
6059.89909	0.015473
6057.97041	0.015518
6056.04174	0.015561
6054.11306	0.015591
6052.18439	0.015610
6050.25571	0.015627
6048.32703	0.015650
6046.39836	0.015681
6044.46968	0.015712
6042.54101	0.015744
6040.61233	0.015790
6038.68366	0.015852
6036.75498	0.015907
6034.82630	0.015940
6032.89763	0.015960
6030.96895	0.015985
6029.04028	0.016016
6027.11160	0.016044
6025.18293	0.016076
6023.25425	0.016116
6021.32557	0.016162
6019.39690	0.016227
6017.46822	0.016294
6015.53955	0.016339
6013.61087	0.016373
6011.68220	0.016407
6009.75352	0.016442
6007.82484	0.016479
6005.89617	0.016516
6003.96749	0.016549
6002.03882	0.016580
6000.11014	0.016616
5998.18147	0.016648
5996.25279	0.016668
5994.32411	0.016690
5992.39544	0.016716
5990.46676	0.016728
5988.53809	0.016738
5986.60941	0.016775
5984.68074	0.016827
5982.75206	0.016879
5980.82338	0.016933
5978.89471	0.016972
5976.96603	0.016987
5975.03736	0.017001
5973.10868	0.017024
5971.18001	0.017045
5969.25133	0.017085
5967.32265	0.017149
5965.39398	0.017201
5963.46530	0.017227
5961.53663	0.017243
5959.60795	0.017281
5957.67928	0.017351
5955.75060	0.017429
5953.82192	0.017487
5951.89325	0.017506
5949.96457	0.017516
5948.03590	0.017560
5946.10722	0.017624
5944.17855	0.017676
5942.24987	0.017720
5940.32119	0.017760
5938.39252	0.017806
5936.46384	0.017859
5934.53517	0.017900
5932.60649	0.017930
5930.67782	0.017971
5928.74914	0.018021
5926.82046	0.018072
5924.89179	0.018113
5922.96311	0.018120
5921.03444	0.018123
5919.10576	0.018165
5917.17709	0.018228
5915.24841	0.018269
5913.31973	0.018284
5911.39106	0.018291
5909.46238	0.018309
5907.53371	0.018339
5905.60503	0.018371
5903.67636	0.018415
5901.74768	0.018468
5899.81900	0.018508
5897.89033	0.018556
5895.96165	0.018626
5894.03298	0.018676
5892.10430	0.018696
5890.17563	0.018725
5888.24695	0.018773
5886.31827	0.018824
5884.38960	0.018859
5882.46092	0.018874
5880.53225	0.018907
5878.60357	0.018970
5876.67490	0.019024
5874.74622	0.019051
5872.81755	0.019084
5870.88887	0.019143
5868.96019	0.019206
5867.03152	0.019258
5865.10284	0.019299
5863.17417	0.019325
5861.24549	0.019364
5859.31682	0.019443
5857.38814	0.019530
5855.45946	0.019580
5853.53079	0.019597
5851.60211	0.019617
5849.67344	0.019653
5847.74476	0.019697
5845.81609	0.019747
5843.88741	0.019804
5841.95873	0.019850
5840.03006	0.019859
5838.10138	0.019860
5836.17271	0.019893
5834.24403	0.019947
5832.31536	0.019995
5830.38668	0.020031
5828.45800	0.020061
5826.52933	0.020085
5824.60065	0.020107
5822.67198	0.020154
5820.74330	0.020210
5818.81463	0.020244
5816.88595	0.020280
5814.95727	0.020330
5813.02860	0.020368
5811.09992	0.020399
5809.17125	0.020451
5807.24257	0.020515
5805.31390	0.020563
5803.38522	0.020604
5801.45654	0.020661
5799.52787	0.020715
5797.59919	0.020752
5795.67052	0.020791
5793.74184	0.020844
5791.81317	0.020907
5789.88449	0.020966
5787.95581	0.021007
5786.02714	0.021045
5784.09846	0.021104
5782.16979	0.021167
5780.24111	0.021221
5778.31244	0.021270
5776.38376	0.021308
5774.45508	0.021336
5772.52641	0.021364
5770.59773	0.021405
5768.66906	0.021458
5766.74038	0.021505
5764.81171	0.021529
5762.88303	0.021544
5760.95435	0.021578
5759.02568	0.021626
5757.09700	0.021671
5755.16833	0.021725
5753.23965	0.021786
5751.31098	0.021833
5749.38230	0.021858
5747.45362	0.021877
5745.52495	0.021904
5743.59627	0.021944
5741.66760	0.021992
5739.73892	0.022034
5737.81025	0.022074
5735.88157	0.022111
5733.95289	0.022145
5732.02422	0.022202
5730.09554	0.022278
5728.16687	0.022338
5726.23819	0.022383
5724.30952	0.022435
5722.38084	0.022491
5720.45216	0.022540
5718.52349	0.022596
5716.59481	0.022662
5714.66614	0.022708
5712.73746	0.022734
5710.80879	0.022780
5708.88011	0.022867
5706.95143	0.022962
5705.02276	0.023017
5703.09408	0.023047
5701.16541	0.023103
5699.23673	0.023176
5697.30806	0.023222
5695.37938	0.023234
5693.45070	0.023248
5691.52203	0.023287
5689.59335	0.023336
5687.66468	0.023382
5685.73600	0.023424
5683.80733	0.023461
5681.87865	0.023501
5679.94997	0.023564
5678.02130	0.023638
5676.09262	0.023683
5674.16395	0.023705
5672.23527	0.023725
5670.30660	0.023753
5668.37792	0.023801
5666.44924	0.023856
5664.52057	0.023907
5662.59189	0.023951
5660.66322	0.023991
5658.73454	0.024030
5656.80587	0.024078
5654.87719	0.024147
5652.94851	0.024213
5651.01984	0.024255
5649.09116	0.024299
5647.16249	0.024353
5645.23381	0.024417
5643.30514	0.024493
5641.37646	0.024552
5639.44778	0.024591
5637.51911	0.024647
5635.59043	0.024727
5633.66176	0.024801
5631.73308	0.024859
5629.80441	0.024905
5627.87573	0.024954
5625.94705	0.025014
5624.01838	0.025064
5622.08970	0.025092
5620.16103	0.025123
5618.23235	0.025171
5616.30368	0.025236
5614.37500	0.025303
5612.44632	0.025349
5610.51765	0.025386
5608.58897	0.025435
5606.66030	0.025479
5604.73162	0.025504
5602.80295	0.025523
5600.87427	0.025558
5598.94559	0.025604
5597.01692	0.025636
5595.08824	0.025663
5593.15957	0.025711
5591.23089	0.025783
5589.30222	0.025856
5587.37354	0.025901
5585.44486	0.025929
5583.51619	0.025975
5581.58751	0.026047
5579.65884	0.026117
5577.73016	0.026167
5575.80149	0.026214
5573.87281	0.026285
5571.94413	0.026365
5570.01546	0.026425
5568.08678	0.026474
5566.15811	0.026529
5564.22943	0.026581
5562.30076	0.026639
5560.37208	0.026697
5558.44340	0.026745
5556.51473	0.026802
5554.58605	0.026875
5552.65738	0.026953
5550.72870	0.027018
5548.80003	0.027065
5546.87135	0.027106
5544.94267	0.027147
5543.01400	0.027184
5541.08532	0.027223
5539.15665	0.027286
5537.22797	0.027375
5535.29930	0.027438
5533.37062	0.027454
5531.44194	0.027477
5529.51327	0.027547
5527.58459	0.027627
5525.65592	0.027665
5523.72724	0.027678
5521.79857	0.027714
5519.86989	0.027776
5517.94121	0.027834
5516.01254	0.027885
5514.08386	0.027945
5512.15519	0.028007
5510.22651	0.028064
5508.29784	0.028109
5506.36916	0.028126
5504.44048	0.028158
5502.51181	0.028243
5500.58313	0.028322
5498.65446	0.028357
5496.72578	0.028403
5494.79711	0.028467
5492.86843	0.028521
5490.93975	0.028578
5489.01108	0.028652
5487.08240	0.028727
5485.15373	0.028792
5483.22505	0.028853
5481.29638	0.028915
5479.36770	0.028972
5477.43902	0.029025
5475.51035	0.029088
5473.58167	0.029162
5471.65300	0.029224
5469.72432	0.029273
5467.79565	0.029319
5465.86697	0.029360
5463.93829	0.029397
5462.00962	0.029455
5460.08094	0.029525
5458.15227	0.029565
5456.22359	0.029600
5454.29492	0.029674
5452.36624	0.029753
5450.43756	0.029806
5448.50889	0.029857
5446.58021	0.029906
5444.65154	0.029930
5442.72286	0.029944
5440.79419	0.029982
5438.86551	0.030047
5436.93683	0.030101
5435.00816	0.030137
5433.07948	0.030179
5431.15081	0.030223
5429.22213	0.030264
5427.29346	0.030334
5425.36478	0.030437
5423.43610	0.030537
5421.50743	0.030616
5419.57875	0.030668
5417.65008	0.030708
5415.72140	0.030748
5413.79273	0.030795
5411.86405	0.030867
5409.93537	0.030964
5408.00670	0.031062
5406.07802	0.031148
5404.14935	0.031220
5402.22067	0.031292
5400.29200	0.031365
5398.36332	0.031409
5396.43464	0.031431
5394.50597	0.031472
5392.57729	0.031537
5390.64862	0.031617
5388.71994	0.031693
5386.79127	0.031752
5384.86259	0.031807
5382.93391	0.031854
5381.00524	0.031883
5379.07656	0.031903
5377.14789	0.031945
5375.21921	0.032024
5373.29054	0.032108
5371.36186	0.032178
5369.43318	0.032236
5367.50451	0.032279
5365.57583	0.032340
5363.64716	0.032415
5361.71848	0.032455
5359.78981	0.032465
5357.86113	0.032483
5355.93245	0.032515
5354.00378	0.032577
5352.07510	0.032672
5350.14643	0.032752
5348.21775	0.032792
5346.28908	0.032814
5344.36040	0.032858
5342.43172	0.032932
5340.50305	0.032998
5338.57437	0.033062
5336.64570	0.033158
5334.71702	0.033269
5332.78835	0.033358
5330.85967	0.033429
5328.93099	0.033501
5327.00232	0.033580
5325.07364	0.033655
5323.14497	0.033712
5321.21629	0.033754
5319.28762	0.033818
5317.35894	0.033921
5315.43026	0.034028
5313.50159	0.034106
5311.57291	0.034157
5309.64424	0.034191
5307.71556	0.034220
5305.78689	0.034267
5303.85821	0.034331
5301.92953	0.034389
5300.00086	0.034443
5298.07218	0.034497
5296.14351	0.034556
5294.21483	0.034626
5292.28616	0.034683
5290.35748	0.034726
5288.42880	0.034779
5286.50013	0.034829
5284.57145	0.034879
5282.64278	0.034942
5280.71410	0.035004
5278.78543	0.035072
5276.85675	0.035152
5274.92807	0.035217
5272.99940	0.035264
5271.07072	0.035332
5269.14205	0.035409
5267.21337	0.035463
5265.28470	0.035501
5263.35602	0.035554
5261.42734	0.035631
5259.49867	0.035710
5257.56999	0.035769
5255.64132	0.035822
5253.71264	0.035900
5251.78397	0.035981
5249.85529	0.036029
5247.92661	0.036084
5245.99794	0.036184
5244.06926	0.036300
5242.14059	0.036393
5240.21191	0.036445
5238.28324	0.036465
5236.35456	0.036493
5234.42588	0.036558
5232.49721	0.036655
5230.56853	0.036756
5228.63986	0.036833
5226.71118	0.036882
5224.78251	0.036930
5222.85383	0.036992
5220.92515	0.037057
5218.99648	0.037118
5217.06780	0.037174
5215.13913	0.037235
5213.21045	0.037292
5211.28178	0.037320
5209.35310	0.037349
5207.42442	0.037423
5205.49575	0.037513
5203.56707	0.037582
5201.63840	0.037648
5199.70972	0.037714
5197.78105	0.037756
5195.85237	0.037782
5193.92369	0.037847
5191.99502	0.037951
5190.06634	0.038034
5188.13767	0.038081
5186.20899	0.038121
5184.28032	0.038189
5182.35164	0.038284
5180.42296	0.038378
5178.49429	0.038457
5176.56561	0.038528
5174.63694	0.038604
5172.70826	0.038698
5170.77959	0.038806
5168.85091	0.038901
5166.92223	0.038964
5164.99356	0.039008
5163.06488	0.039072
5161.13621	0.039170
5159.20753	0.039254
5157.27886	0.039298
5155.35018	0.039339
5153.42150	0.039409
5151.49283	0.039485
5149.56415	0.039548
5147.63548	0.039608
5145.70680	0.039663
5143.77813	0.039704
5141.84945	0.039756
5139.92077	0.039839
5137.99210	0.039935
5136.06342	0.040013
5134.13475	0.040060
5132.20607	0.040090
5130.27740	0.040127
5128.34872	0.040164
5126.42004	0.040202
5124.49137	0.040271
5122.56269	0.040369
5120.63402	0.040470
5118.70534	0.040561
5116.77667	0.040643
5114.84799	0.040710
5112.91931	0.040771
5110.99064	0.040842
5109.06196	0.040926
5107.13329	0.041013
5105.20461	0.041086
5103.27594	0.041148
5101.34726	0.041219
5099.41858	0.041295
5097.48991	0.041361
5095.56123	0.041419
5093.63256	0.041480
5091.70388	0.041568
5089.77521	0.041695
5087.84653	0.041808
5085.91785	0.041872
5083.98918	0.041924
5082.06050	0.042001
5080.13183	0.042089
5078.20315	0.042170
5076.27448	0.042259
5074.34580	0.042353
5072.41712	0.042430
5070.48845	0.042474
5068.55977	0.042499
5066.63110	0.042541
5064.70242	0.042611
5062.77375	0.042682
5060.84507	0.042734
5058.91639	0.042768
5056.98772	0.042799
5055.05904	0.042842
5053.13037	0.042902
5051.20169	0.042980
5049.27302	0.043091
5047.34434	0.043214
5045.41566	0.043304
5043.48699	0.043363
5041.55831	0.043424
5039.62964	0.043487
5037.70096	0.043553
5035.77229	0.043635
5033.84361	0.043715
5031.91493	0.043777
5029.98626	0.043838
5028.05758	0.043908
5026.12891	0.043981
5024.20023	0.044067
5022.27156	0.044174
5020.34288	0.044278
5018.41420	0.044362
5016.48553	0.044445
5014.55685	0.044533
5012.62818	0.044618
5010.69950	0.044691
5008.77083	0.044749
5006.84215	0.044828
5004.91347	0.044945
5002.98480	0.045060
5001.05612	0.045122
4999.12745	0.045136
4997.19877	0.045155
4995.27010	0.045213
4993.34142	0.045304
4991.41274	0.045410
4989.48407	0.045493
4987.55539	0.045542
4985.62672	0.045596
4983.69804	0.045689
4981.76937	0.045800
4979.84069	0.045911
4977.91201	0.045996
4975.98334	0.046033
4974.05466	0.046058
4972.12599	0.046113
4970.19731	0.046191
4968.26864	0.046263
4966.33996	0.046315
4964.41128	0.046356
4962.48261	0.046397
4960.55393	0.046463
4958.62526	0.046566
4956.69658	0.046671
4954.76791	0.046759
4952.83923	0.046842
4950.91055	0.046939
4948.98188	0.047055
4947.05320	0.047159
4945.12453	0.047231
4943.19585	0.047293
4941.26718	0.047376
4939.33850	0.047474
4937.40982	0.047576
4935.48115	0.047685
4933.55247	0.047787
4931.62380	0.047868
4929.69512	0.047950
4927.76645	0.048043
4925.83777	0.048123
4923.90909	0.048189
4921.98042	0.048252
4920.05174	0.048312
4918.12307	0.048380
4916.19439	0.048463
4914.26572	0.048560
4912.33704	0.048651
4910.40836	0.048712
4908.47969	0.048756
4906.55101	0.048815
4904.62234	0.048885
4902.69366	0.048955
4900.76499	0.049040
4898.83631	0.049136
4896.90763	0.049210
4894.97896	0.049266
4893.05028	0.049339
4891.12161	0.049432
4889.19293	0.049516
4887.26426	0.049594
4885.33558	0.049681
4883.40690	0.049759
4881.47823	0.049827
4879.54955	0.049903
4877.62088	0.049991
4875.69220	0.050101
4873.76353	0.050229
4871.83485	0.050344
4869.90617	0.050439
4867.97750	0.050525
4866.04882	0.050619
4864.12015	0.050726
4862.19147	0.050821
4860.26280	0.050901
4858.33412	0.050986
4856.40544	0.051084
4854.47677	0.051194
4852.54809	0.051296
4850.61942	0.051362
4848.69074	0.051410
4846.76207	0.051480
4844.83339	0.051588
4842.90471	0.051705
4840.97604	0.051786
4839.04736	0.051831
4837.11869	0.051883
4835.19001	0.051979
4833.26134	0.052102
4831.33266	0.052202
4829.40398	0.052264
4827.47531	0.052306
4825.54663	0.052362
4823.61796	0.052439
4821.68928	0.052504
4819.76061	0.052554
4817.83193	0.052621
4815.90325	0.052705
4813.97458	0.052789
4812.04590	0.052878
4810.11723	0.052971
4808.18855	0.053060
4806.25988	0.053142
4804.33120	0.053214
4802.40252	0.053297
4800.47385	0.053405
4798.54517	0.053523
4796.61650	0.053635
4794.68782	0.053751
4792.75915	0.053874
4790.83047	0.053978
4788.90179	0.054054
4786.97312	0.054126
4785.04444	0.054222
4783.11577	0.054338
4781.18709	0.054441
4779.25842	0.054525
4777.32974	0.054616
4775.40106	0.054720
4773.47239	0.054827
4771.54371	0.054929
4769.61504	0.055021
4767.68636	0.055115
4765.75769	0.055217
4763.82901	0.055314
4761.90033	0.055407
4759.97166	0.055494
4758.04298	0.055559
4756.11431	0.055627
4754.18563	0.055732
4752.25696	0.055856
4750.32828	0.055950
4748.39960	0.056010
4746.47093	0.056076
4744.54225	0.056155
4742.61358	0.056250
4740.68490	0.056371
4738.75623	0.056478
4736.82755	0.056542
4734.89887	0.056596
4732.97020	0.056671
4731.04152	0.056771
4729.11285	0.056886
4727.18417	0.056987
4725.25550	0.057071
4723.32682	0.057160
4721.39814	0.057250
4719.46947	0.057346
4717.54079	0.057463
4715.61212	0.057574
4713.68344	0.057678
4711.75477	0.057811
4709.82609	0.057941
4707.89741	0.058045
4705.96874	0.058150
4704.04006	0.058255
4702.11139	0.058360
4700.18271	0.058484
4698.25404	0.058612
4696.32536	0.058721
4694.39668	0.058838
4692.46801	0.058970
4690.53933	0.059080
4688.61066	0.059154
4686.68198	0.059220
4684.75331	0.059288
4682.82463	0.059369
4680.89595	0.059469
4678.96728	0.059573
4677.03860	0.059670
4675.10993	0.059762
4673.18125	0.059880
4671.25258	0.060019
4669.32390	0.060118
4667.39522	0.060170
4665.46655	0.060225
4663.53787	0.060305
4661.60920	0.060406
4659.68052	0.060514
4657.75185	0.060629
4655.82317	0.060754
4653.89449	0.060861
4651.96582	0.060947
4650.03714	0.061042
4648.10847	0.061153
4646.17979	0.061263
4644.25112	0.061369
4642.32244	0.061474
4640.39376	0.061577
4638.46509	0.061695
4636.53641	0.061832
4634.60774	0.061951
4632.67906	0.062051
4630.75039	0.062166
4628.82171	0.062293
4626.89303	0.062416
4624.96436	0.062546
4623.03568	0.062688
4621.10701	0.062820
4619.17833	0.062926
4617.24966	0.063022
4615.32098	0.063114
4613.39230	0.063219
4611.46363	0.063342
4609.53495	0.063455
4607.60628	0.063544
4605.67760	0.063638
4603.74893	0.063754
4601.82025	0.063882
4599.89157	0.063997
4597.96290	0.064087
4596.03422	0.064168
4594.10555	0.064251
4592.17687	0.064347
4590.24820	0.064487
4588.31952	0.064646
4586.39084	0.064754
4584.46217	0.064813
4582.53349	0.064883
4580.60482	0.064993
4578.67614	0.065117
4576.74747	0.065236
4574.81879	0.065358
4572.89011	0.065477
4570.96144	0.065577
4569.03276	0.065673
4567.10409	0.065781
4565.17541	0.065895
4563.24674	0.066003
4561.31806	0.066104
4559.38938	0.066227
4557.46071	0.066383
4555.53203	0.066551
4553.60336	0.066707
4551.67468	0.066833
4549.74601	0.066950
4547.81733	0.067077
4545.88865	0.067208
4543.95998	0.067350
4542.03130	0.067506
4540.10263	0.067642
4538.17395	0.067732
4536.24528	0.067810
4534.31660	0.067924
4532.38792	0.068077
4530.45925	0.068231
4528.53057	0.068346
4526.60190	0.068419
4524.67322	0.068497
4522.74455	0.068620
4520.81587	0.068762
4518.88719	0.068875
4516.95852	0.068973
4515.02984	0.069106
4513.10117	0.069261
4511.17249	0.069397
4509.24382	0.069508
4507.31514	0.069606
4505.38646	0.069709
4503.45779	0.069822
4501.52911	0.069930
4499.60044	0.070053
4497.67176	0.070193
4495.74309	0.070332
4493.81441	0.070478
4491.88573	0.070620
4489.95706	0.070750
4488.02838	0.070870
4486.09971	0.070971
4484.17103	0.071080
4482.24236	0.071215
4480.31368	0.071358
4478.38500	0.071506
4476.45633	0.071667
4474.52765	0.071828
4472.59898	0.071981
4470.67030	0.072125
4468.74163	0.072262
4466.81295	0.072400
4464.88427	0.072550
4462.95560	0.072721
4461.02692	0.072886
4459.09825	0.073021
4457.16957	0.073138
4455.24090	0.073251
4453.31222	0.073380
4451.38354	0.073519
4449.45487	0.073638
4447.52619	0.073725
4445.59752	0.073821
4443.66884	0.073966
4441.74017	0.074126
4439.81149	0.074270
4437.88281	0.074402
4435.95414	0.074512
4434.02546	0.074602
4432.09679	0.074715
4430.16811	0.074872
4428.23944	0.075049
4426.31076	0.075212
4424.38208	0.075359
4422.45341	0.075503
4420.52473	0.075630
4418.59606	0.075733
4416.66738	0.075841
4414.73871	0.075969
4412.81003	0.076112
4410.88135	0.076264
4408.95268	0.076412
4407.02400	0.076552
4405.09533	0.076698
4403.16665	0.076856
4401.23798	0.077010
4399.30930	0.077161
4397.38062	0.077315
4395.45195	0.077471
4393.52327	0.077623
4391.59460	0.077766
4389.66592	0.077922
4387.73725	0.078092
4385.80857	0.078249
4383.87989	0.078389
4381.95122	0.078527
4380.02254	0.078665
4378.09387	0.078806
4376.16519	0.078960
4374.23652	0.079118
4372.30784	0.079264
4370.37916	0.079389
4368.45049	0.079495
4366.52181	0.079623
4364.59314	0.079780
4362.66446	0.079932
4360.73579	0.080071
4358.80711	0.080220
4356.87843	0.080390
4354.94976	0.080548
4353.02108	0.080671
4351.09241	0.080804
4349.16373	0.080973
4347.23506	0.081127
4345.30638	0.081234
4343.37770	0.081329
4341.44903	0.081451
4339.52035	0.081608
4337.59168	0.081782
4335.66300	0.081956
4333.73433	0.082138
4331.80565	0.082322
4329.87697	0.082483
4327.94830	0.082636
4326.01962	0.082802
4324.09095	0.082989
4322.16227	0.083192
4320.23360	0.083375
4318.30492	0.083533
4316.37624	0.083701
4314.44757	0.083887
4312.51889	0.084069
4310.59022	0.084239
4308.66154	0.084397
4306.73287	0.084566
4304.80419	0.084772
4302.87551	0.084975
4300.94684	0.085119
4299.01816	0.085238
4297.08949	0.085402
4295.16081	0.085600
4293.23214	0.085789
4291.30346	0.085947
4289.37478	0.086082
4287.44611	0.086224
4285.51743	0.086387
4283.58876	0.086557
4281.66008	0.086729
4279.73141	0.086880
4277.80273	0.087002
4275.87405	0.087141
4273.94538	0.087315
4272.01670	0.087484
4270.08803	0.087619
4268.15935	0.087744
4266.23068	0.087895
4264.30200	0.088065
4262.37332	0.088228
4260.44465	0.088383
4258.51597	0.088541
4256.58730	0.088723
4254.65862	0.088940
4252.72995	0.089156
4250.80127	0.089351
4248.87259	0.089536
4246.94392	0.089696
4245.01524	0.089832
4243.08657	0.089979
4241.15789	0.090167
4239.22922	0.090385
4237.30054	0.090590
4235.37186	0.090774
4233.44319	0.090953
4231.51451	0.091138
4229.58584	0.091338
4227.65716	0.091533
4225.72849	0.091698
4223.79981	0.091843
4221.87113	0.092007
4219.94246	0.092213
4218.01378	0.092417
4216.08511	0.092592
4214.15643	0.092765
4212.22776	0.092945
4210.29908	0.093121
4208.37040	0.093294
4206.44173	0.093470
4204.51305	0.093644
4202.58438	0.093803
4200.65570	0.093936
4198.72703	0.094062
4196.79835	0.094216
4194.86968	0.094412
4192.94100	0.094617
4191.01232	0.094786
4189.08365	0.094934
4187.15497	0.095103
4185.22630	0.095286
4183.29762	0.095469
4181.36895	0.095659
4179.44027	0.095859
4177.51159	0.096069
4175.58292	0.096268
4173.65424	0.096450
4171.72557	0.096645
4169.79689	0.096877
4167.86822	0.097106
4165.93954	0.097288
4164.01086	0.097440
4162.08219	0.097608
4160.15351	0.097817
4158.22484	0.098044
4156.29616	0.098243
4154.36749	0.098427
4152.43881	0.098630
4150.51013	0.098846
4148.58146	0.099063
4146.65278	0.099258
4144.72411	0.099420
4142.79543	0.099588
4140.86676	0.099795
4138.93808	0.100013
4137.00940	0.100219
4135.08073	0.100432
4133.15205	0.100637
4131.22338	0.100810
4129.29470	0.100970
4127.36603	0.101139
4125.43735	0.101327
4123.50867	0.101518
4121.58000	0.101692
4119.65132	0.101875
4117.72265	0.102080
4115.79397	0.102279
4113.86530	0.102469
4111.93662	0.102660
4110.00794	0.102837
4108.07927	0.103007
4106.15059	0.103201
4104.22192	0.103401
4102.29324	0.103599
4100.36457	0.103812
4098.43589	0.104035
4096.50721	0.104260
4094.57854	0.104493
4092.64986	0.104731
4090.72119	0.104960
4088.79251	0.105178
4086.86384	0.105388
4084.93516	0.105571
4083.00648	0.105733
4081.07781	0.105933
4079.14913	0.106197
4077.22046	0.106469
4075.29178	0.106687
4073.36311	0.106855
4071.43443	0.107035
4069.50575	0.107271
4067.57708	0.107538
4065.64840	0.107779
4063.71973	0.107994
4061.79105	0.108204
4059.86238	0.108399
4057.93370	0.108588
4056.00502	0.108787
4054.07635	0.108986
4052.14767	0.109173
4050.21900	0.109358
4048.29032	0.109536
4046.36165	0.109697
4044.43297	0.109886
4042.50429	0.110134
4040.57562	0.110379
4038.64694	0.110572
4036.71827	0.110751
4034.78959	0.110940
4032.86092	0.111129
4030.93224	0.111322
4029.00356	0.111542
4027.07489	0.111776
4025.14621	0.112010
4023.21754	0.112245
4021.28886	0.112466
4019.36019	0.112694
4017.43151	0.112939
4015.50283	0.113175
4013.57416	0.113409
4011.64548	0.113646
4009.71681	0.113870
4007.78813	0.114108
4005.85946	0.114358
4003.93078	0.114604
4002.00210	0.114851
4000.07343	0.115074
3998.14475	0.115271
3996.21608	0.115497
3994.28740	0.115774
3992.35873	0.116050
3990.43005	0.116282
3988.50137	0.116487
3986.57270	0.116711
3984.64402	0.116962
3982.71535	0.117193
3980.78667	0.117378
3978.85800	0.117546
3976.92932	0.117742
3975.00064	0.117983
3973.07197	0.118215
3971.14329	0.118413
3969.21462	0.118623
3967.28594	0.118849
3965.35727	0.119056
3963.42859	0.119252
3961.49991	0.119463
3959.57124	0.119686
3957.64256	0.119911
3955.71389	0.120130
3953.78521	0.120318
3951.85654	0.120469
3949.92786	0.120633
3947.99918	0.120867
3946.07051	0.121135
3944.14183	0.121378
3942.21316	0.121646
3940.28448	0.121960
3938.35581	0.122230
3936.42713	0.122411
3934.49845	0.122537
3932.56978	0.122700
3930.64110	0.122982
3928.71243	0.123305
3926.78375	0.123543
3924.85508	0.123751
3922.92640	0.124009
3920.99772	0.124225
3919.06905	0.124367
3917.14037	0.124602
3915.21170	0.124997
3913.28302	0.125388
3911.35435	0.125662
3909.42567	0.125849
3907.49699	0.125885
3905.56832	0.125771
3903.63964	0.125753
3901.71097	0.125965
3899.78229	0.126359
3897.85362	0.126882
3895.92494	0.127330
3893.99626	0.127498
3892.06759	0.127595
3890.13891	0.127865
3888.21024	0.128056
3886.28156	0.128081
3884.35289	0.128269
3882.42421	0.128566
3880.49553	0.128875
3878.56686	0.129289
3876.63818	0.129567
3874.70951	0.129626
3872.78083	0.129649
3870.85216	0.129745
3868.92348	0.130072
3866.99480	0.130476
3865.06613	0.130754
3863.13745	0.131099
3861.20878	0.131571
3859.28010	0.131891
3857.35143	0.131709
3855.42275	0.131155
3853.49407	0.131152
3851.56540	0.132084
3849.63672	0.133128
3847.70805	0.133665
3845.77937	0.133808
3843.85070	0.133837
3841.92202	0.133891
3839.99334	0.133957
3838.06467	0.134159
3836.13599	0.134587
3834.20732	0.135058
3832.27864	0.135480
3830.34997	0.135902
3828.42129	0.136241
3826.49261	0.136454
3824.56394	0.136519
3822.63526	0.136425
3820.70659	0.136541
3818.77791	0.136936
3816.84924	0.137287
3814.92056	0.137730
3812.99188	0.138286
3811.06321	0.138585
3809.13453	0.138582
3807.20586	0.138632
3805.27718	0.138845
3803.34851	0.138948
3801.41983	0.139093
3799.49115	0.139519
3797.56248	0.139988
3795.63380	0.140435
3793.70513	0.140917
3791.77645	0.141289
3789.84778	0.141523
3787.91910	0.141682
3785.99042	0.141851
3784.06175	0.142117
3782.13307	0.142390
3780.20440	0.142608
3778.27572	0.142917
3776.34705	0.143308
3774.41837	0.143603
3772.48969	0.143715
3770.56102	0.143786
3768.63234	0.144033
3766.70367	0.144411
3764.77499	0.144781
3762.84632	0.145052
3760.91764	0.145186
3758.98896	0.145371
3757.06029	0.145664
3755.13161	0.145764
3753.20294	0.145535
3751.27426	0.145378
3749.34559	0.145651
3747.41691	0.145866
3745.48823	0.145795
3743.55956	0.146254
3741.63088	0.147227
3739.70221	0.147675
3737.77353	0.147473
3735.84486	0.147383
3733.91618	0.147812
3731.98750	0.148547
3730.05883	0.149148
3728.13015	0.149381
3726.20148	0.149479
3724.27280	0.149761
3722.34413	0.150155
3720.41545	0.150546
3718.48677	0.150945
3716.55810	0.151235
3714.62942	0.151248
3712.70075	0.151147
3710.77207	0.151364
3708.84340	0.151942
3706.91472	0.152522
3704.98604	0.152834
3703.05737	0.152981
3701.12869	0.153280
3699.20002	0.153729
3697.27134	0.154121
3695.34267	0.154358
3693.41399	0.154383
3691.48531	0.154301
3689.55664	0.154436
3687.62796	0.154962
3685.69929	0.155633
3683.77061	0.156117
3681.84194	0.156364
3679.91326	0.156402
3677.98458	0.156192
3676.05591	0.156053
3674.12723	0.156360
3672.19856	0.156759
3670.26988	0.157058
3668.34121	0.157628
3666.41253	0.158337
3664.48385	0.158813
3662.55518	0.159080
3660.62650	0.159219
3658.69783	0.159208
3656.76915	0.159238
3654.84048	0.159420
3652.91180	0.159331
3650.98312	0.158870
3649.05445	0.158668
3647.12577	0.159151
3645.19710	0.160044
3643.26842	0.160816
3641.33975	0.161302
3639.41107	0.161656
3637.48239	0.161923
3635.55372	0.162076
3633.62504	0.162102
3631.69637	0.161882
3629.76769	0.161691
3627.83902	0.162143
3625.91034	0.162990
3623.98166	0.163486
3622.05299	0.163510
3620.12431	0.163433
3618.19564	0.163607
3616.26696	0.163934
3614.33829	0.164146
3612.40961	0.164282
3610.48093	0.164416
3608.55226	0.164677
3606.62358	0.165176
3604.69491	0.165663
3602.76623	0.165917
3600.83756	0.166088
3598.90888	0.166287
3596.98020	0.166442
3595.05153	0.166607
3593.12285	0.166839
3591.19418	0.166921
3589.26550	0.166809
3587.33683	0.166925
3585.40815	0.167418
3583.47947	0.167909
3581.55080	0.168193
3579.62212	0.168412
3577.69345	0.168656
3575.76477	0.168888
3573.83610	0.169101
3571.90742	0.169241
3569.97874	0.169163
3568.05007	0.169045
3566.12139	0.169286
3564.19272	0.169790
3562.26404	0.170177
3560.33537	0.170442
3558.40669	0.170726
3556.47801	0.170991
3554.54934	0.171165
3552.62066	0.171310
3550.69199	0.171484
3548.76331	0.171598
3546.83464	0.171691
3544.90596	0.171930
3542.97728	0.172283
3541.04861	0.172594
3539.11993	0.172799
3537.19126	0.172937
3535.26258	0.173090
3533.33391	0.173272
3531.40523	0.173398
3529.47655	0.173460
3527.54788	0.173541
3525.61920	0.173654
3523.69053	0.173770
3521.76185	0.173902
3519.83318	0.174059
3517.90450	0.174215
3515.97582	0.174328
3514.04715	0.174372
3512.11847	0.174373
3510.18980	0.174396
3508.26112	0.174464
3506.33245	0.174519
3504.40377	0.174541
3502.47509	0.174603
3500.54642	0.174713
3498.61774	0.174778
3496.68907	0.174801
3494.76039	0.174856
3492.83172	0.174915
3490.90304	0.174928
3488.97436	0.174950
3487.04569	0.175026
3485.11701	0.175126
3483.18834	0.175246
3481.25966	0.175428
3479.33099	0.175644
3477.40231	0.175843
3475.47363	0.176046
3473.54496	0.176279
3471.61628	0.176515
3469.68761	0.176762
3467.75893	0.177069
3465.83026	0.177422
3463.90158	0.177745
3461.97290	0.178047
3460.04423	0.178393
3458.11555	0.178761
3456.18688	0.179088
3454.25820	0.179379
3452.32953	0.179659
3450.40085	0.179918
3448.47217	0.180153
3446.54350	0.180410
3444.61482	0.180719
3442.68615	0.181056
3440.75747	0.181423
3438.82880	0.181862
3436.90012	0.182387
3434.97144	0.182967
3433.04277	0.183540
3431.11409	0.184080
3429.18542	0.184645
3427.25674	0.185253
3425.32807	0.185842
3423.39939	0.186403
3421.47071	0.186971
3419.54204	0.187528
3417.61336	0.188033
3415.68469	0.188483
3413.75601	0.188897
3411.82734	0.189306
3409.89866	0.189721
3407.96998	0.190124
3406.04131	0.190515
3404.11263	0.190912
3402.18396	0.191318
3400.25528	0.191717
3398.32661	0.192125
3396.39793	0.192583
3394.46925	0.193071
3392.54058	0.193523
3390.61190	0.193928
3388.68323	0.194334
3386.75455	0.194749
3384.82588	0.195164
3382.89720	0.195580
3380.96852	0.195971
3379.03985	0.196341
3377.11117	0.196711
3375.18250	0.197081
3373.25382	0.197467
3371.32515	0.197859
3369.39647	0.198234
3367.46779	0.198594
3365.53912	0.198936
3363.61044	0.199262
3361.68177	0.199598
3359.75309	0.199963
3357.82442	0.200330
3355.89574	0.200665
3353.96706	0.200985
3352.03839	0.201318
3350.10971	0.201643
3348.18104	0.201957
3346.25236	0.202303
3344.32369	0.202670
3342.39501	0.203036
3340.46633	0.203417
3338.53766	0.203780
3336.60898	0.204114
3334.68031	0.204463
3332.75163	0.204824
3330.82296	0.205178
3328.89428	0.205535
3326.96560	0.205908
3325.03693	0.206304
3323.10825	0.206705
3321.17958	0.207069
3319.25090	0.207421
3317.32223	0.207815
3315.39355	0.208236
3313.46487	0.208651
3311.53620	0.209039
3309.60752	0.209408
3307.67885	0.209833
3305.75017	0.210330
3303.82150	0.210807
3301.89282	0.211215
3299.96414	0.211589
3298.03547	0.211958
3296.10679	0.212335
3294.17812	0.212726
3292.24944	0.213128
3290.32077	0.213554
3288.39209	0.213988
3286.46341	0.214406
3284.53474	0.214818
3282.60606	0.215205
3280.67739	0.215558
3278.74871	0.215913
3276.82004	0.216281
3274.89136	0.216667
3272.96268	0.217064
3271.03401	0.217435
3269.10533	0.217786
3267.17666	0.218160
3265.24798	0.218572
3263.31931	0.218989
3261.39063	0.219385
3259.46195	0.219770
3257.53328	0.220150
3255.60460	0.220517
3253.67593	0.220900
3251.74725	0.221311
3249.81858	0.221716
3247.88990	0.222110
3245.96122	0.222522
3244.03255	0.222962
3242.10387	0.223400
3240.17520	0.223814
3238.24652	0.224231
3236.31785	0.224658
3234.38917	0.225082
3232.46049	0.225515
3230.53182	0.225943
3228.60314	0.226350
3226.67447	0.226768
3224.74579	0.227206
3222.81712	0.227625
3220.88844	0.228015
3218.95976	0.228404
3217.03109	0.228798
3215.10241	0.229180
3213.17374	0.229552
3211.24506	0.229928
3209.31639	0.230329
3207.38771	0.230763
3205.45903	0.231206
3203.53036	0.231650
3201.60168	0.232079
3199.67301	0.232451
3197.74433	0.232805
3195.81566	0.233237
3193.88698	0.233727
3191.95830	0.234178
3190.02963	0.234585
3188.10095	0.234983
3186.17228	0.235381
3184.24360	0.235796
3182.31493	0.236223
3180.38625	0.236623
3178.45757	0.236994
3176.52890	0.237408
3174.60022	0.237885
3172.67155	0.238355
3170.74287	0.238791
3168.81420	0.239228
3166.88552	0.239661
3164.95684	0.240073
3163.02817	0.240497
3161.09949	0.240947
3159.17082	0.241390
3157.24214	0.241820
3155.31347	0.242256
3153.38479	0.242711
3151.45611	0.243170
3149.52744	0.243600
3147.59876	0.244001
3145.67009	0.244387
3143.74141	0.244809
3141.81274	0.245301
3139.88406	0.245789
3137.95538	0.246217
3136.02671	0.246617
3134.09803	0.247002
3132.16936	0.247383
3130.24068	0.247778
3128.31201	0.248182
3126.38333	0.248575
3124.45465	0.248951
3122.52598	0.249342
3120.59730	0.249765
3118.66863	0.250192
3116.73995	0.250614
3114.81128	0.251027
3112.88260	0.251426
3110.95392	0.251816
3109.02525	0.252190
3107.09657	0.252577
3105.16790	0.253012
3103.23922	0.253472
3101.31055	0.253910
3099.38187	0.254300
3097.45319	0.254668
3095.52452	0.255080
3093.59584	0.255564
3091.66717	0.256079
3089.73849	0.256554
3087.80982	0.256974
3085.88114	0.257381
3083.95246	0.257794
3082.02379	0.258227
3080.09511	0.258696
3078.16644	0.259166
3076.23776	0.259610
3074.30909	0.260051
3072.38041	0.260489
3070.45173	0.260912
3068.52306	0.261332
3066.59438	0.261764
3064.66571	0.262213
3062.73703	0.262653
3060.80836	0.263071
3058.87968	0.263487
3056.95100	0.263911
3055.02233	0.264342
3053.09365	0.264762
3051.16498	0.265155
3049.23630	0.265538
3047.30763	0.265934
3045.37895	0.266360
3043.45027	0.266788
3041.52160	0.267180
3039.59292	0.267555
3037.66425	0.267921
3035.73557	0.268279
3033.80690	0.268632
3031.87822	0.269008
3029.94954	0.269446
3028.02087	0.269929
3026.09219	0.270404
3024.16352	0.270832
3022.23484	0.271191
3020.30617	0.271529
3018.37749	0.271919
3016.44881	0.272353
3014.52014	0.272798
3012.59146	0.273260
3010.66279	0.273729
3008.73411	0.274190
3006.80544	0.274641
3004.87676	0.275069
3002.94808	0.275467
3001.01941	0.275893
2999.09073	0.276383
2997.16206	0.276861
2995.23338	0.277262
2993.30471	0.277645
2991.37603	0.278065
2989.44735	0.278478
2987.51868	0.278821
2985.59000	0.279103
2983.66133	0.279363
2981.73265	0.279585
2979.80398	0.279757
2977.87530	0.279898
2975.94662	0.279996
2974.01795	0.280033
2972.08927	0.280016
2970.16060	0.279928
2968.23192	0.279785
2966.30325	0.279704
2964.37457	0.279800
2962.44589	0.280043
2960.51722	0.280355
2958.58854	0.280749
2956.65987	0.281261
2954.73119	0.281866
2952.80252	0.282481
2950.87384	0.282994
2948.94516	0.283375
2947.01649	0.283677
2945.08781	0.283935
2943.15914	0.284136
2941.23046	0.284254
2939.30179	0.284286
2937.37311	0.284227
2935.44443	0.284089
2933.51576	0.283921
2931.58708	0.283767
2929.65841	0.283662
2927.72973	0.283599
2925.80106	0.283528
2923.87238	0.283470
2921.94370	0.283498
2920.01503	0.283689
2918.08635	0.284184
2916.15768	0.285165
2914.22900	0.286653
2912.30033	0.288346
2910.37165	0.289837
2908.44297	0.290990
2906.51430	0.291931
2904.58562	0.292765
2902.65695	0.293511
2900.72827	0.294185
2898.79960	0.294833
2896.87092	0.295491
2894.94224	0.296126
2893.01357	0.296706
2891.08489	0.297272
2889.15622	0.297845
2887.22754	0.298405
2885.29887	0.298953
2883.37019	0.299470
2881.44151	0.299915
2879.51284	0.300309
2877.58416	0.300680
2875.65549	0.301028
2873.72681	0.301389
2871.79814	0.301778
2869.86946	0.302152
2867.94078	0.302495
2866.01211	0.302827
2864.08343	0.303128
2862.15476	0.303319
2860.22608	0.303380
2858.29741	0.303369
2856.36873	0.303292
2854.44005	0.303142
2852.51138	0.303030
2850.58270	0.303280
2848.65403	0.304247
2846.72535	0.305835
2844.79668	0.307545
2842.86800	0.309020
2840.93932	0.310188
2839.01065	0.311112
2837.08197	0.311858
2835.15330	0.312482
2833.22462	0.313061
2831.29595	0.313678
2829.36727	0.314344
2827.43859	0.314973
2825.50992	0.315487
2823.58124	0.315960
2821.65257	0.316467
2819.72389	0.316951
2817.79522	0.317400
2815.86654	0.317860
2813.93786	0.318343
2812.00919	0.318848
2810.08051	0.319356
2808.15184	0.319842
2806.22316	0.320272
2804.29449	0.320668
2802.36581	0.321132
2800.43713	0.321670
2798.50846	0.322169
2796.57978	0.322603
2794.65111	0.323031
2792.72243	0.323475
2790.79376	0.323936
2788.86508	0.324432
2786.93640	0.324961
2785.00773	0.325485
2783.07905	0.325978
2781.15038	0.326456
2779.22170	0.326966
2777.29303	0.327513
2775.36435	0.328054
2773.43567	0.328558
2771.50700	0.329038
2769.57832	0.329518
2767.64965	0.330005
2765.72097	0.330486
2763.79230	0.330981
2761.86362	0.331525
2759.93494	0.332060
2758.00627	0.332515
2756.07759	0.332935
2754.14892	0.333395
2752.22024	0.333877
2750.29157	0.334334
2748.36289	0.334799
2746.43421	0.335286
2744.50554	0.335744
2742.57686	0.336179
2740.64819	0.336631
2738.71951	0.337086
2736.79084	0.337499
2734.86216	0.337878
2732.93348	0.338253
2731.00481	0.338637
2729.07613	0.339033
2727.14746	0.339421
2725.21878	0.339831
2723.29011	0.340318
2721.36143	0.340826
2719.43275	0.341286
2717.50408	0.341717
2715.57540	0.342155
2713.64673	0.342584
2711.71805	0.342981
2709.78938	0.343401
2707.86070	0.343897
2705.93202	0.344398
2704.00335	0.344837
2702.07467	0.345248
2700.14600	0.345692
2698.21732	0.346173
2696.28865	0.346688
2694.35997	0.347229
2692.43129	0.347745
2690.50262	0.348221
2688.57394	0.348701
2686.64527	0.349197
2684.71659	0.349700
2682.78792	0.350179
2680.85924	0.350604
2678.93056	0.350982
2677.00189	0.351377
2675.07321	0.351843
2673.14454	0.352353
2671.21586	0.352846
2669.28719	0.353282
2667.35851	0.353684
2665.42983	0.354108
2663.50116	0.354556
2661.57248	0.354976
2659.64381	0.355335
2657.71513	0.355707
2655.78646	0.356172
2653.85778	0.356687
2651.92910	0.357183
2650.00043	0.357644
2648.07175	0.358096
2646.14308	0.358585
2644.21440	0.359072
2642.28573	0.359498
2640.35705	0.359898
2638.42837	0.360352
2636.49970	0.360879
2634.57102	0.361426
2632.64235	0.361932
2630.71367	0.362407
2628.78500	0.362921
2626.85632	0.363482
2624.92764	0.364038
2622.99897	0.364592
2621.07029	0.365160
2619.14162	0.365720
2617.21294	0.366255
2615.28427	0.366778
2613.35559	0.367297
2611.42691	0.367804
2609.49824	0.368319
2607.56956	0.368884
2605.64089	0.369489
2603.71221	0.370069
2601.78354	0.370576
2599.85486	0.371041
2597.92618	0.371527
2595.99751	0.372032
2594.06883	0.372527
2592.14016	0.373012
2590.21148	0.373485
2588.28281	0.373925
2586.35413	0.374356
2584.42545	0.374843
2582.49678	0.375373
2580.56810	0.375843
2578.63943	0.376252
2576.71075	0.376688
2574.78208	0.377139
2572.85340	0.377550
2570.92472	0.377949
2568.99605	0.378384
2567.06737	0.378833
2565.13870	0.379266
2563.21002	0.379715
2561.28135	0.380171
2559.35267	0.380594
2557.42399	0.381028
2555.49532	0.381528
2553.56664	0.382051
2551.63797	0.382530
2549.70929	0.382953
2547.78062	0.383385
2545.85194	0.383868
2543.92326	0.384363
2541.99459	0.384853
2540.06591	0.385338
2538.13724	0.385805
2536.20856	0.386289
2534.27989	0.386815
2532.35121	0.387368
2530.42253	0.387905
2528.49386	0.388375
2526.56518	0.388810
2524.63651	0.389299
2522.70783	0.389840
2520.77916	0.390374
2518.85048	0.390881
2516.92181	0.391354
2514.99313	0.391792
2513.06445	0.392231
2511.13578	0.392705
2509.20710	0.393209
2507.27843	0.393709
2505.34975	0.394189
2503.42108	0.394694
2501.49240	0.395259
2499.56372	0.395826
2497.63505	0.396333
2495.70637	0.396819
2493.77770	0.397344
2491.84902	0.397884
2489.92035	0.398401
2487.99167	0.398922
2486.06299	0.399483
2484.13432	0.400075
2482.20564	0.400654
2480.27697	0.401176
2478.34829	0.401667
2476.41962	0.402178
2474.49094	0.402707
2472.56226	0.403235
2470.63359	0.403773
2468.70491	0.404345
2466.77624	0.404929
2464.84756	0.405488
2462.91889	0.406025
2460.99021	0.406568
2459.06153	0.407144
2457.13286	0.407721
2455.20418	0.408238
2453.27551	0.408696
2451.34683	0.409174
2449.41816	0.409727
2447.48948	0.410296
2445.56080	0.410820
2443.63213	0.411329
2441.70345	0.411831
2439.77478	0.412310
2437.84610	0.412806
2435.91743	0.413323
2433.98875	0.413822
2432.06007	0.414305
2430.13140	0.414776
2428.20272	0.415247
2426.27405	0.415728
2424.34537	0.416202
2422.41670	0.416665
2420.48802	0.417139
2418.55934	0.417631
2416.63067	0.418115
2414.70199	0.418598
2412.77332	0.419108
2410.84464	0.419602
2408.91597	0.420048
2406.98729	0.420503
2405.05861	0.421030
2403.12994	0.421588
2401.20126	0.422094
2399.27259	0.422556
2397.34391	0.423049
2395.41524	0.423602
2393.48656	0.424147
2391.55788	0.424637
2389.62921	0.425124
2387.70053	0.425641
2385.77186	0.426138
2383.84318	0.426554
2381.91451	0.426846
2379.98583	0.427006
2378.05715	0.427085
2376.12848	0.427153
2374.19980	0.427254
2372.27113	0.427383
2370.34245	0.427506
2368.41378	0.427652
2366.48510	0.427903
2364.55642	0.428254
2362.62775	0.428651
2360.69907	0.429098
2358.77040	0.429628
2356.84172	0.430255
2354.91305	0.430980
2352.98437	0.431873
2351.05569	0.432902
2349.12702	0.433696
2347.19834	0.433994
2345.26967	0.434061
2343.34099	0.434254
2341.41232	0.434609
2339.48364	0.435025
2337.55496	0.435489
2335.62629	0.436005
2333.69761	0.436508
2331.76894	0.436994
2329.84026	0.437534
2327.91159	0.438125
2325.98291	0.438732
2324.05423	0.439393
2322.12556	0.440127
2320.19688	0.440870
2318.26821	0.441591
2316.33953	0.442329
2314.41086	0.443082
2312.48218	0.443808
2310.55350	0.444517
2308.62483	0.445211
2306.69615	0.445859
2304.76748	0.446496
2302.83880	0.447182
2300.91013	0.447858
2298.98145	0.448451
2297.05277	0.448972
2295.12410	0.449452
2293.19542	0.449987
2291.26675	0.450606
2289.33807	0.451177
2287.40940	0.451661
2285.48072	0.452138
2283.55204	0.452635
2281.62337	0.453146
2279.69469	0.453645
2277.76602	0.454091
2275.83734	0.454493
2273.90867	0.454907
2271.97999	0.455375
2270.05131	0.455850
2268.12264	0.456259
2266.19396	0.456652
2264.26529	0.457127
2262.33661	0.457661
2260.40794	0.458174
2258.47926	0.458656
2256.55058	0.459133
2254.62191	0.459601
2252.69323	0.460075
2250.76456	0.460593
2248.83588	0.461124
2246.90721	0.461630
2244.97853	0.462134
2243.04985	0.462661
2241.12118	0.463198
2239.19250	0.463707
2237.26383	0.464173
2235.33515	0.464655
2233.40648	0.465197
2231.47780	0.465769
2229.54912	0.466325
2227.62045	0.466829
2225.69177	0.467297
2223.76310	0.467795
2221.83442	0.468318
2219.90575	0.468813
2217.97707	0.469276
2216.04839	0.469741
2214.11972	0.470252
2212.19104	0.470777
2210.26237	0.471232
2208.33369	0.471659
2206.40502	0.472126
2204.47634	0.472592
2202.54766	0.473040
2200.61899	0.473474
2198.69031	0.473859
2196.76164	0.474220
2194.83296	0.474618
2192.90429	0.475078
2190.97561	0.475568
2189.04693	0.476017
2187.11826	0.476416
2185.18958	0.476806
2183.26091	0.477239
2181.33223	0.477768
2179.40356	0.478321
2177.47488	0.478790
2175.54620	0.479217
2173.61753	0.479662
2171.68885	0.480109
2169.76018	0.480577
2167.83150	0.481133
2165.90283	0.481769
2163.97415	0.482355
2162.04547	0.482827
2160.11680	0.483307
2158.18812	0.483898
2156.25945	0.484509
2154.33077	0.485039
2152.40210	0.485537
2150.47342	0.486053
2148.54474	0.486538
2146.61607	0.486999
2144.68739	0.487509
2142.75872	0.488034
2140.83004	0.488498
2138.90137	0.488958
2136.97269	0.489492
2135.04401	0.490027
2133.11534	0.490471
2131.18666	0.490877
2129.25799	0.491320
2127.32931	0.491784
2125.40064	0.492261
2123.47196	0.492749
2121.54328	0.493223
2119.61461	0.493683
2117.68593	0.494134
2115.75726	0.494574
2113.82858	0.495005
2111.89991	0.495439
2109.97123	0.495877
2108.04255	0.496291
2106.11388	0.496706
2104.18520	0.497178
2102.25653	0.497698
2100.32785	0.498199
2098.39918	0.498624
2096.47050	0.499037
2094.54182	0.499545
2092.61315	0.500120
2090.68447	0.500664
2088.75580	0.501161
2086.82712	0.501668
2084.89845	0.502209
2082.96977	0.502724
2081.04109	0.503190
2079.11242	0.503640
2077.18374	0.504086
2075.25507	0.504560
2073.32639	0.505082
2071.39772	0.505654
2069.46904	0.506257
2067.54036	0.506768
2065.61169	0.507161
2063.68301	0.507615
2061.75434	0.508167
2059.82566	0.508675
2057.89699	0.509109
2055.96831	0.509526
2054.03963	0.509932
2052.11096	0.510338
2050.18228	0.510765
2048.25361	0.511196
2046.32493	0.511620
2044.39626	0.512064
2042.46758	0.512511
2040.53890	0.512931
2038.61023	0.513354
2036.68155	0.513790
2034.75288	0.514216
2032.82420	0.514660
2030.89553	0.515150
2028.96685	0.515653
2027.03817	0.516130
2025.10950	0.516570
2023.18082	0.517001
2021.25215	0.517440
2019.32347	0.517823
2017.39480	0.518202
2015.46612	0.518746
2013.53744	0.519404
2011.60877	0.519983
2009.68009	0.520453
2007.75142	0.520910
2005.82274	0.521424
2003.89407	0.521975
2001.96539	0.522507
2000.03671	0.523025
1998.10804	0.523559
1996.17936	0.524029
1994.25069	0.524354
1992.32201	0.524707
1990.39334	0.525274
1988.46466	0.525906
1986.53598	0.526400
1984.60731	0.526785
1982.67863	0.527189
1980.74996	0.527630
1978.82128	0.528061
1976.89261	0.528485
1974.96393	0.528872
1973.03525	0.529215
1971.10658	0.529546
1969.17790	0.529794
1967.24923	0.530025
1965.32055	0.530431
1963.39188	0.530954
1961.46320	0.531433
1959.53452	0.531850
1957.60585	0.532249
1955.67717	0.532661
1953.74850	0.533094
1951.81982	0.533545
1949.89115	0.533999
1947.96247	0.534406
1946.03379	0.534704
1944.10512	0.534948
1942.17644	0.535403
1940.24777	0.536162
1938.31909	0.536919
1936.39042	0.537470
1934.46174	0.537903
1932.53306	0.538318
1930.60439	0.538729
1928.67571	0.539192
1926.74704	0.539702
1924.81836	0.540098
1922.88969	0.540448
1920.96101	0.540794
1919.03233	0.541079
1917.10366	0.541677
1915.17498	0.542605
1913.24631	0.543289
1911.31763	0.543631
1909.38896	0.543961
1907.46028	0.544462
1905.53160	0.545070
1903.60293	0.545605
1901.67425	0.546011
1899.74558	0.546374
1897.81690	0.546712
1895.88823	0.547040
1893.95955	0.547401
1892.03087	0.547620
1890.10220	0.547778
1888.17352	0.548272
1886.24485	0.548933
1884.31617	0.549407
1882.38750	0.549784
1880.45882	0.550184
1878.53014	0.550604
1876.60147	0.551061
1874.67279	0.551517
1872.74412	0.551689
1870.81544	0.551447
1868.88677	0.551445
1866.95809	0.552268
1865.02941	0.553417
1863.10074	0.554229
1861.17206	0.554742
1859.24339	0.555240
1857.31471	0.555858
1855.38604	0.556504
1853.45736	0.557054
1851.52868	0.557497
1849.60001	0.557806
1847.67133	0.557779
1845.74266	0.557486
1843.81398	0.557850
1841.88531	0.559153
1839.95663	0.560319
1838.02795	0.560931
1836.09928	0.561480
1834.17060	0.561957
1832.24193	0.561950
1830.31325	0.561777
1828.38458	0.562055
1826.45590	0.562566
1824.52722	0.563194
1822.59855	0.564069
1820.66987	0.564807
1818.74120	0.565292
1816.81252	0.565770
1814.88385	0.566151
1812.95517	0.566270
1811.02649	0.566401
1809.09782	0.566821
1807.16914	0.567329
1805.24047	0.567583
1803.31179	0.567479
1801.38312	0.567388
1799.45444	0.567777
1797.52576	0.568412
1795.59709	0.568630
1793.66841	0.568409
1791.73974	0.568662
1789.81106	0.569733
1787.88239	0.570577
1785.95371	0.570715
1784.02503	0.570861
1782.09636	0.571253
1780.16768	0.571739
1778.23901	0.572294
1776.31033	0.572478
1774.38166	0.572025
1772.45298	0.571673
1770.52430	0.572051
1768.59563	0.572904
1766.66695	0.573928
1764.73828	0.574578
1762.80960	0.574578
1760.88093	0.574708
1758.95225	0.575052
1757.02357	0.575260
1755.09490	0.575334
1753.16622	0.574723
1751.23755	0.573728
1749.30887	0.573549
1747.38020	0.574070
1745.45152	0.574464
1743.52284	0.574592
1741.59417	0.574613
1739.66549	0.574735
1737.73682	0.574631
1735.80814	0.573715
1733.87947	0.573265
1731.95079	0.574461
1730.02211	0.576133
1728.09344	0.577418
1726.16476	0.578267
1724.23609	0.578657
1722.30741	0.578664
1720.37874	0.577888
1718.45006	0.576831
1716.52138	0.576954
1714.59271	0.578359
1712.66403	0.579894
1710.73536	0.580717
1708.80668	0.580631
1706.87801	0.580153
1704.94933	0.579862
1703.02065	0.579039
1701.09198	0.577823
1699.16330	0.577905
1697.23463	0.578913
1695.30595	0.579969
1693.37728	0.581240
1691.44860	0.581852
1689.51992	0.581630
1687.59125	0.580957
1685.66257	0.579774
1683.73390	0.579452
1681.80522	0.580731
1679.87655	0.582042
1677.94787	0.582103
1676.01919	0.581501
1674.09052	0.581344
1672.16184	0.581304
1670.23317	0.581152
1668.30449	0.581896
1666.37582	0.583030
1664.44714	0.583184
1662.51846	0.583040
1660.58979	0.583519
1658.66111	0.583846
1656.73244	0.582684
1654.80376	0.580245
1652.87509	0.579300
1650.94641	0.580693
1649.01773	0.581596
1647.08906	0.581550
1645.16038	0.582407
1643.23171	0.583759
1641.30303	0.584365
1639.37436	0.583940
1637.44568	0.582879
1635.51700	0.582631
1633.58833	0.583899
1631.65965	0.585113
1629.73098	0.585137
1627.80230	0.584638
1625.87363	0.583888
1623.94495	0.582716
1622.01627	0.581812
1620.08760	0.581675
1618.15892	0.582309
1616.23025	0.584131
1614.30157	0.586722
1612.37290	0.588671
1610.44422	0.589675
1608.51554	0.590447
1606.58687	0.591296
1604.65819	0.592056
1602.72952	0.592699
1600.80084	0.593346
1598.87217	0.593938
1596.94349	0.594398
1595.01481	0.594789
1593.08614	0.595181
1591.15746	0.595595
1589.22879	0.596069
1587.30011	0.596593
1585.37144	0.597071
1583.44276	0.597467
1581.51408	0.597728
1579.58541	0.597529
1577.65673	0.596948
1575.72806	0.597126
1573.79938	0.598181
1571.87071	0.598560
1569.94203	0.598355
1568.01335	0.598878
1566.08468	0.599795
1564.15600	0.600141
1562.22733	0.599138
1560.29865	0.597111
1558.36998	0.596622
1556.44130	0.598589
1554.51262	0.600789
1552.58395	0.601919
1550.65527	0.602460
1548.72660	0.602865
1546.79792	0.602809
1544.86925	0.602000
1542.94057	0.600960
1541.01189	0.600556
1539.08322	0.601625
1537.15454	0.603441
1535.22587	0.604295
1533.29719	0.604604
1531.36852	0.605407
1529.43984	0.605938
1527.51116	0.605792
1525.58249	0.605490
1523.65381	0.604713
1521.72514	0.603872
1519.79646	0.604202
1517.86779	0.605278
1515.93911	0.606337
1514.01043	0.607214
1512.08176	0.607315
1510.15308	0.606317
1508.22441	0.605101
1506.29573	0.605532
1504.36706	0.607802
1502.43838	0.609501
1500.50970	0.609365
1498.58103	0.608647
1496.65235	0.608807
1494.72368	0.609694
1492.79500	0.609859
1490.86633	0.609128
1488.93765	0.608985
1487.00897	0.609943
1485.08030	0.611025
1483.15162	0.611481
1481.22295	0.611442
1479.29427	0.611042
1477.36560	0.610128
1475.43692	0.608925
1473.50824	0.608058
1471.57957	0.608164
1469.65089	0.608909
1467.72222	0.609087
1465.79354	0.608792
1463.86487	0.609087
1461.93619	0.609426
1460.00751	0.608317
1458.07884	0.606672
1456.15016	0.607090
1454.22149	0.609392
1452.29281	0.611218
1450.36414	0.611794
1448.43546	0.611954
1446.50678	0.612514
1444.57811	0.613350
1442.64943	0.613924
1440.72076	0.613837
1438.79208	0.612755
1436.86341	0.611830
1434.93473	0.612471
1433.00605	0.613557
1431.07738	0.613822
1429.14870	0.613869
1427.22003	0.613978
1425.29135	0.613787
1423.36268	0.613292
1421.43400	0.612229
1419.50532	0.611073
1417.57665	0.611247
1415.64797	0.612428
1413.71930	0.613141
1411.79062	0.613212
1409.86195	0.613164
1407.93327	0.613014
1406.00459	0.612731
1404.07592	0.612698
1402.14724	0.612724
1400.21857	0.612320
1398.28989	0.611797
1396.36122	0.611530
1394.43254	0.611793
1392.50386	0.612522
1390.57519	0.612643
1388.64651	0.611679
1386.71784	0.610688
1384.78916	0.610531
1382.86049	0.610947
1380.93181	0.611392
1379.00313	0.611590
1377.07446	0.611420
1375.14578	0.611126
1373.21711	0.611248
1371.28843	0.611687
1369.35976	0.611937
1367.43108	0.611908
1365.50240	0.611489
1363.57373	0.610850
1361.64505	0.610775
1359.71638	0.611327
1357.78770	0.611770
1355.85903	0.611876
1353.93035	0.611965
1352.00167	0.612140
1350.07300	0.612347
1348.14432	0.612643
1346.21565	0.612960
1344.28697	0.613070
1342.35830	0.612810
1340.42962	0.612384
1338.50094	0.612317
1336.57227	0.612720
1334.64359	0.613117
1332.71492	0.613195
1330.78624	0.613072
1328.85757	0.612921
1326.92889	0.612772
1325.00021	0.612600
1323.07154	0.612396
1321.14286	0.612134
1319.21419	0.611862
1317.28551	0.611745
1315.35684	0.611728
1313.42816	0.611559
1311.49948	0.611195
1309.57081	0.610726
1307.64213	0.610201
1305.71346	0.609670
1303.78478	0.609115
1301.85611	0.608518
1299.92743	0.607906
1297.99875	0.607245
1296.07008	0.606601
1294.14140	0.606055
1292.21273	0.605444
1290.28405	0.604630
1288.35538	0.603732
1286.42670	0.602850
1284.49802	0.601942
1282.56935	0.600926
1280.64067	0.599693
1278.71200	0.598243
1276.78332	0.596697
1274.85465	0.595011
1272.92597	0.593021
1270.99729	0.590588
1269.06862	0.587584
1267.13994	0.584237
1265.21127	0.581207
1263.28259	0.578992
1261.35392	0.577719
1259.42524	0.577289
1257.49656	0.577326
1255.56789	0.577288
1253.63921	0.576798
1251.71054	0.575804
1249.78186	0.574505
1247.85319	0.573084
1245.92451	0.571544
1243.99583	0.569833
1242.06716	0.568028
1240.13848	0.566207
1238.20981	0.564378
1236.28113	0.562559
1234.35246	0.560724
1232.42378	0.558834
1230.49510	0.556943
1228.56643	0.555160
1226.63775	0.553532
1224.70908	0.551957
1222.78040	0.550287
1220.85173	0.548589
1218.92305	0.547000
1216.99437	0.545402
1215.06570	0.543678
1213.13702	0.541977
1211.20835	0.540415
1209.27967	0.538833
1207.35100	0.537068
1205.42232	0.535226
1203.49364	0.533490
1201.56497	0.531863
1199.63629	0.530265
1197.70762	0.528692
1195.77894	0.527111
1193.85027	0.525373
1191.92159	0.523441
1189.99291	0.521446
1188.06424	0.519395
1186.13556	0.517203
1184.20689	0.514938
1182.27821	0.512701
1180.34954	0.510438
1178.42086	0.508114
1176.49218	0.505744
1174.56351	0.503354
1172.63483	0.500949
1170.70616	0.498477
1168.77748	0.495936
1166.84881	0.493371
1164.92013	0.490890
1162.99145	0.488612
1161.06278	0.486446
1159.13410	0.484272
1157.20543	0.482117
1155.27675	0.479987
1153.34808	0.477928
1151.41940	0.476058
1149.49072	0.474303
1147.56205	0.472515
1145.63337	0.470707
1143.70470	0.468929
1141.77602	0.467190
1139.84735	0.465431
1137.91867	0.463569
1135.98999	0.461566
1134.06132	0.459478
1132.13264	0.457457
1130.20397	0.455504
1128.27529	0.453402
1126.34662	0.451026
1124.41794	0.448493
1122.48926	0.445976
1120.56059	0.443544
1118.63191	0.441168
1116.70324	0.438771
1114.77456	0.436304
1112.84589	0.433789
1110.91721	0.431251
1108.98853	0.428686
1107.05986	0.426151
1105.13118	0.423772
1103.20251	0.421546
1101.27383	0.419395
1099.34516	0.417333
1097.41648	0.415369
1095.48780	0.413434
1093.55913	0.411506
1091.63045	0.409687
1089.70178	0.408035
1087.77310	0.406457
1085.84443	0.404868
1083.91575	0.403278
1081.98707	0.401789
1080.05840	0.400474
1078.12972	0.399264
1076.20105	0.398115
1074.27237	0.397122
1072.34370	0.396362
1070.41502	0.395786
1068.48634	0.395375
1066.55767	0.395241
1064.62899	0.395381
1062.70032	0.395615
1060.77164	0.395890
1058.84297	0.396292
1056.91429	0.396815
1054.98561	0.397348
1053.05694	0.397892
1051.12826	0.398609
1049.19959	0.399522
1047.27091	0.400469
1045.34224	0.401385
1043.41356	0.402378
1041.48488	0.403518
1039.55621	0.404717
1037.62753	0.405921
1035.69886	0.407144
1033.77018	0.408314
1031.84151	0.409372
1029.91283	0.410439
1027.98415	0.411677
1026.05548	0.413048
1024.12680	0.414413
1022.19813	0.415780
1020.26945	0.417274
1018.34078	0.419011
1016.41210	0.421030
1014.48342	0.423208
1012.55475	0.425433
1010.62607	0.427776
1008.69740	0.430315
1006.76872	0.432903
1004.84005	0.435247
1002.91137	0.437262
1000.98269	0.439163
999.05402	0.441013
997.12534	0.442688
995.19667	0.444196
993.26799	0.445588
991.33932	0.446904
989.41064	0.448216
987.48196	0.449489
985.55329	0.450615
983.62461	0.451619
981.69594	0.452574
979.76726	0.453392
977.83859	0.453916
975.90991	0.454114
973.98123	0.454113
972.05256	0.454044
970.12388	0.453926
968.19521	0.453752
966.26653	0.453514
964.33786	0.453148
962.40918	0.452567
960.48050	0.451810
958.55183	0.451041
956.62315	0.450340
954.69448	0.449652
952.76580	0.448886
950.83713	0.447983
948.90845	0.446923
946.97977	0.445750
945.05110	0.444584
943.12242	0.443503
941.19375	0.442426
939.26507	0.441209
937.33640	0.439869
935.40772	0.438487
933.47904	0.437054
931.55037	0.435648
929.62169	0.434372
927.69302	0.433125
925.76434	0.431802
923.83567	0.430413
921.90699	0.428921
919.97831	0.427354
918.04964	0.425851
916.12096	0.424430
914.19229	0.422974
912.26361	0.421418
910.33494	0.419822
908.40626	0.418184
906.47758	0.416426
904.54891	0.414626
902.62023	0.412923
900.69156	0.411259
898.76288	0.409509
896.83421	0.407698
894.90553	0.405911
892.97685	0.404165
891.04818	0.402421
889.11950	0.400679
887.19083	0.399009
885.26215	0.397412
883.33348	0.395798
881.40480	0.394135
879.47612	0.392469
877.54745	0.390882
875.61877	0.389452
873.69010	0.388145
871.76142	0.386865
869.83275	0.385541
867.90407	0.384123
865.97539	0.382673
864.04672	0.381365
862.11804	0.380184
860.18937	0.378898
858.26069	0.377436
856.33202	0.376024
854.40334	0.374794
852.47466	0.373592
850.54599	0.372306
848.61731	0.371004
846.68864	0.369725
844.75996	0.368476
842.83129	0.367320
840.90261	0.366227
838.97394	0.365098
837.04526	0.363934
835.11658	0.362712
833.18791	0.361399
831.25923	0.360067
829.33056	0.358665
827.40188	0.356999
825.47321	0.355162
823.54453	0.353485
821.61585	0.352055
819.68718	0.350761
817.75850	0.349482
815.82983	0.348026
813.90115	0.346373
811.97248	0.344752
810.04380	0.343228
808.11512	0.341706
806.18645	0.340221
804.25777	0.338880
802.32910	0.337702
800.40042	0.336675
798.47175	0.335892
796.54307	0.335360
794.61439	0.334964
792.68572	0.334722
790.75704	0.334635
788.82837	0.334580
786.89969	0.334434
784.97102	0.334146
783.04234	0.333765
781.11366	0.333352
779.18499	0.332929
777.25631	0.332494
775.32764	0.332072
773.39896	0.331718
771.47029	0.331369
769.54161	0.330879
767.61293	0.330289
765.68426	0.329713
763.75558	0.328996
761.82691	0.328018
759.89823	0.326952
757.96956	0.325912
756.04088	0.324847
754.11220	0.323744
752.18353	0.322578
750.25485	0.321259
748.32618	0.319825
746.39750	0.318463
744.46883	0.317184
742.54015	0.315885
740.61147	0.314648
738.68280	0.313527
736.75412	0.312398
734.82545	0.311173
732.89677	0.309887
730.96810	0.308676
729.03942	0.307584
727.11074	0.306522
725.18207	0.305431
723.25339	0.304290
721.32472	0.303132
719.39604	0.302009
717.46737	0.300878
715.53869	0.299689
713.61001	0.298489
711.68134	0.297360
709.75266	0.296336
707.82399	0.295390
705.89531	0.294468
703.96664	0.293514
702.03796	0.292498
700.10928	0.291476
698.18061	0.290535
696.25193	0.289698
694.32326	0.288936
692.39458	0.288074
690.46591	0.286942
688.53723	0.285659
686.60855	0.284442
684.67988	0.283318
682.75120	0.282160
680.82253	0.280850
678.89385	0.279304
676.96518	0.277515
675.03650	0.275633
673.10782	0.273730
671.17915	0.271467
669.25047	0.268754
667.32180	0.266392
665.39312	0.264636
663.46445	0.262697
661.53577	0.260347
659.60709	0.257903
657.67842	0.255440
655.74974	0.253016
653.82107	0.250688
651.89239	0.248408
649.96372	0.246125
648.03504	0.243803
646.10636	0.241407
644.17769	0.238887
642.24901	0.236190
640.32034	0.233340
638.39166	0.230348
636.46299	0.227295
634.53431	0.224405
632.60563	0.221645
630.67696	0.218863
628.74828	0.216043
626.81961	0.213143
624.89093	0.210297
622.96226	0.207737
621.03358	0.205374
619.10490	0.202912
617.17623	0.200163
615.24755	0.197186
613.31888	0.194187
611.39020	0.191303
609.46153	0.188567
607.53285	0.185967
605.60417	0.183447
603.67550	0.180956
601.74682	0.178508
599.81815	0.176165
597.88947	0.173923
595.96080	0.171664
594.03212	0.169469
592.10344	0.167581
590.17477	0.165948
588.24609	0.164252
586.31742	0.162295
584.38874	0.160135
582.46007	0.157982
580.53139	0.155976
578.60271	0.154027
576.67404	0.151996
574.74536	0.149969
572.81669	0.148165
570.88801	0.146619
568.95934	0.145095
567.03066	0.143440
565.10198	0.141836
563.17331	0.140444
561.24463	0.139153
559.31596	0.137879
557.38728	0.136674
555.45861	0.135534
553.52993	0.134414
551.60125	0.133343
549.67258	0.132397
547.74390	0.131557
545.81523	0.130677
543.88655	0.129775
541.95788	0.129050
540.02920	0.128448
538.10052	0.127699
536.17185	0.126723
534.24317	0.125668
532.31450	0.124703
530.38582	0.123847
528.45715	0.122887
526.52847	0.121653
524.59979	0.120253
522.67112	0.118891
520.74244	0.117668
518.81377	0.116449
516.88509	0.115067
514.95642	0.113571
513.02774	0.111994
511.09906	0.110360
509.17039	0.108824
507.24171	0.107432
505.31304	0.106006
503.38436	0.104317
501.45569	0.102319
499.52701	0.100199
497.59833	0.098156
495.66966	0.096180
493.74098	0.094116
491.81231	0.091977
489.88363	0.089921
487.95496	0.087898
486.02628	0.085814
484.09760	0.083810
482.16893	0.081945
480.24025	0.079995
478.31158	0.077918
476.38290	0.075955
474.45423	0.074204
472.52555	0.072690
470.59687	0.071401
468.66820	0.070216
466.73952	0.069199
464.81085	0.068503
462.88217	0.068113
460.95350	0.067904
459.02482	0.067707
457.09614	0.067550
455.16747	0.067627
453.23879	0.067823
451.31012	0.067857
449.38144	0.067702
447.45277	0.067534
445.52409	0.067388
443.59541	0.066924
441.66674	0.065948
439.73806	0.064859
437.80939	0.063882
435.88071	0.062710
433.95204	0.061260
432.02336	0.059534
430.09468	0.057368
428.16601	0.055094
426.23733	0.053082
424.30866	0.051120
422.37998	0.048894
420.45131	0.046405
418.52263	0.043926
416.59395	0.041630
414.66528	0.039611
412.73660	0.037834
410.80793	0.035942
408.87925	0.033917
406.95058	0.032033
405.02190	0.030341
403.09322	0.028733
401.16455	0.027039
399.23587	0.025262
397.30720	0.023590
395.37852	0.022189
393.44985	0.021050
391.52117	0.019921
389.59249	0.018660
387.66382	0.017428
385.73514	0.016332
383.80647	0.015348
381.87779	0.014446
379.94912	0.013486
378.02044	0.012554
376.09176	0.011882
374.16309	0.011234
372.23441	0.010194
370.30574	0.008960
368.37706	0.008120
