7496.76250	0.002837
7494.83382	0.002831
7492.90514	0.002835
7490.97647	0.002849
7489.04779	0.002857
7487.11912	0.002869
7485.19044	0.002898
7483.26177	0.002922
7481.33309	0.002927
7479.40441	0.002922
7477.47574	0.002917
7475.54706	0.002916
7473.61839	0.002923
7471.68971	0.002935
7469.76104	0.002940
7467.83236	0.002940
7465.90368	0.002948
7463.97501	0.002965
7462.04633	0.002986
7460.11766	0.002999
7458.18898	0.002998
7456.26031	0.003003
7454.33163	0.003011
7452.40295	0.003006
7450.47428	0.002999
7448.54560	0.003009
7446.61693	0.003023
7444.68825	0.003020
7442.75958	0.003006
7440.83090	0.003009
7438.90222	0.003032
7436.97355	0.003055
7435.04487	0.003065
7433.11620	0.003073
7431.18752	0.003095
7429.25885	0.003121
7427.33017	0.003134
7425.40149	0.003139
7423.47282	0.003144
7421.54414	0.003145
7419.61547	0.003146
7417.68679	0.003140
7415.75812	0.003127
7413.82944	0.003131
7411.90076	0.003155
7409.97209	0.003179
7408.04341	0.003192
7406.11474	0.003204
7404.18606	0.003221
7402.25739	0.003235
7400.32871	0.003232
7398.40003	0.003223
7396.47136	0.003222
7394.54268	0.003226
7392.61401	0.003224
7390.68533	0.003221
7388.75666	0.003225
7386.82798	0.003240
7384.89930	0.003274
7382.97063	0.003295
7381.04195	0.003285
7379.11328	0.003284
7377.18460	0.003302
7375.25593	0.003310
7373.32725	0.003308
7371.39857	0.003306
7369.46990	0.003317
7367.54122	0.003348
7365.61255	0.003384
7363.68387	0.003402
7361.75520	0.003400
7359.82652	0.003392
7357.89784	0.003394
7355.96917	0.003405
7354.04049	0.003424
7352.11182	0.003444
7350.18314	0.003460
7348.25447	0.003466
7346.32579	0.003461
7344.39711	0.003447
7342.46844	0.003439
7340.53976	0.003451
7338.61109	0.003475
7336.68241	0.003496
7334.75374	0.003509
7332.82506	0.003510
7330.89638	0.003506
7328.96771	0.003509
7327.03903	0.003521
7325.11036	0.003541
7323.18168	0.003562
7321.25301	0.003572
7319.32433	0.003570
7317.39565	0.003567
7315.46698	0.003566
7313.53830	0.003569
7311.60963	0.003571
7309.68095	0.003573
7307.75228	0.003588
7305.82360	0.003620
7303.89492	0.003649
7301.96625	0.003658
7300.03757	0.003650
7298.10890	0.003648
7296.18022	0.003662
7294.25155	0.003671
7292.32287	0.003657
7290.39419	0.003632
7288.46552	0.003632
7286.53684	0.003671
7284.60817	0.003712
7282.67949	0.003723
7280.75082	0.003727
7278.82214	0.003736
7276.89346	0.003747
7274.96479	0.003763
7273.03611	0.003775
7271.10744	0.003766
7269.17876	0.003757
7267.25009	0.003769
7265.32141	0.003795
7263.39273	0.003826
7261.46406	0.003848
7259.53538	0.003851
7257.60671	0.003850
7255.67803	0.003863
7253.74936	0.003877
7251.82068	0.003880
7249.89200	0.003877
7247.96333	0.003875
7246.03465	0.003878
7244.10598	0.003891
7242.17730	0.003906
7240.24863	0.003910
7238.31995	0.003909
7236.39127	0.003916
7234.46260	0.003927
7232.53392	0.003941
7230.60525	0.003956
7228.67657	0.003957
7226.74790	0.003963
7224.81922	0.003988
7222.89054	0.004007
7220.96187	0.004006
7219.03319	0.004000
7217.10452	0.004002
7215.17584	0.004010
7213.24717	0.004026
7211.31849	0.004053
7209.38981	0.004081
7207.46114	0.004095
7205.53246	0.004096
7203.60379	0.004097
7201.67511	0.004101
7199.74644	0.004103
7197.81776	0.004107
7195.88908	0.004120
7193.96041	0.004135
7192.03173	0.004154
7190.10306	0.004185
7188.17438	0.004216
7186.24571	0.004224
7184.31703	0.004207
7182.38835	0.004188
7180.45968	0.004187
7178.53100	0.004202
7176.60233	0.004227
7174.67365	0.004252
7172.74498	0.004264
7170.81630	0.004261
7168.88762	0.004267
7166.95895	0.004290
7165.03027	0.004306
7163.10160	0.004304
7161.17292	0.004302
7159.24425	0.004307
7157.31557	0.004315
7155.38689	0.004330
7153.45822	0.004357
7151.52954	0.004385
7149.60087	0.004397
7147.67219	0.004390
7145.74352	0.004388
7143.81484	0.004400
7141.88616	0.004403
7139.95749	0.004385
7138.02881	0.004365
7136.10014	0.004375
7134.17146	0.004409
7132.24279	0.004449
7130.31411	0.004484
7128.38543	0.004507
7126.45676	0.004520
7124.52808	0.004525
7122.59941	0.004528
7120.67073	0.004538
7118.74206	0.004544
7116.81338	0.004537
7114.88470	0.004538
7112.95603	0.004553
7111.02735	0.004568
7109.09868	0.004573
7107.17000	0.004579
7105.24133	0.004602
7103.31265	0.004629
7101.38397	0.004641
7099.45530	0.004644
7097.52662	0.004661
7095.59795	0.004682
7093.66927	0.004679
7091.74060	0.004665
7089.81192	0.004675
7087.88324	0.004691
7085.95457	0.004695
7084.02589	0.004711
7082.09722	0.004744
7080.16854	0.004762
7078.23987	0.004761
7076.31119	0.004761
7074.38251	0.004763
7072.45384	0.004766
7070.52516	0.004773
7068.59649	0.004773
7066.66781	0.004772
7064.73914	0.004788
7062.81046	0.004806
7060.88178	0.004820
7058.95311	0.004836
7057.02443	0.004846
7055.09576	0.004861
7053.16708	0.004891
7051.23841	0.004923
7049.30973	0.004952
7047.38105	0.004967
7045.45238	0.004950
7043.52370	0.004920
7041.59503	0.004912
7039.66635	0.004934
7037.73768	0.004967
7035.80900	0.004992
7033.88032	0.005009
7031.95165	0.005028
7030.02297	0.005045
7028.09430	0.005049
7026.16562	0.005047
7024.23695	0.005057
7022.30827	0.005076
7020.37959	0.005101
7018.45092	0.005140
7016.52224	0.005163
7014.59357	0.005144
7012.66489	0.005114
7010.73622	0.005108
7008.80754	0.005119
7006.87886	0.005144
7004.95019	0.005172
7003.02151	0.005179
7001.09284	0.005169
6999.16416	0.005168
6997.23549	0.005178
6995.30681	0.005198
6993.37813	0.005228
6991.44946	0.005250
6989.52078	0.005273
6987.59211	0.005300
6985.66343	0.005311
6983.73476	0.005319
6981.80608	0.005340
6979.87740	0.005359
6977.94873	0.005365
6976.02005	0.005374
6974.09138	0.005385
6972.16270	0.005381
6970.23403	0.005377
6968.30535	0.005390
6966.37667	0.005408
6964.44800	0.005425
6962.51932	0.005447
6960.59065	0.005452
6958.66197	0.005445
6956.73330	0.005458
6954.80462	0.005483
6952.87594	0.005508
6950.94727	0.005534
6949.01859	0.005551
6947.08992	0.005564
6945.16124	0.005579
6943.23257	0.005591
6941.30389	0.005600
6939.37521	0.005599
6937.44654	0.005593
6935.51786	0.005604
6933.58919	0.005632
6931.66051	0.005642
6929.73184	0.005637
6927.80316	0.005645
6925.87448	0.005671
6923.94581	0.005696
6922.01713	0.005712
6920.08846	0.005721
6918.15978	0.005729
6916.23111	0.005743
6914.30243	0.005756
6912.37375	0.005756
6910.44508	0.005751
6908.51640	0.005753
6906.58773	0.005770
6904.65905	0.005802
6902.73038	0.005841
6900.80170	0.005865
6898.87302	0.005862
6896.94435	0.005847
6895.01567	0.005844
6893.08700	0.005862
6891.15832	0.005887
6889.22965	0.005902
6887.30097	0.005911
6885.37229	0.005922
6883.44362	0.005934
6881.51494	0.005939
6879.58627	0.005948
6877.65759	0.005979
6875.72892	0.006014
6873.80024	0.006022
6871.87156	0.006015
6869.94289	0.006012
6868.01421	0.006024
6866.08554	0.006061
6864.15686	0.006112
6862.22819	0.006145
6860.29951	0.006147
6858.37083	0.006136
6856.44216	0.006137
6854.51348	0.006156
6852.58481	0.006179
6850.65613	0.006199
6848.72746	0.006223
6846.79878	0.006240
6844.87010	0.006235
6842.94143	0.006230
6841.01275	0.006246
6839.08408	0.006269
6837.15540	0.006286
6835.22673	0.006301
6833.29805	0.006314
6831.36937	0.006318
6829.44070	0.006330
6827.51202	0.006350
6825.58335	0.006356
6823.65467	0.006352
6821.72600	0.006362
6819.79732	0.006395
6817.86864	0.006430
6815.93997	0.006442
6814.01129	0.006441
6812.08262	0.006457
6810.15394	0.006493
6808.22527	0.006523
6806.29659	0.006531
6804.36791	0.006530
6802.43924	0.006541
6800.51056	0.006563
6798.58189	0.006583
6796.65321	0.006599
6794.72454	0.006606
6792.79586	0.006609
6790.86718	0.006622
6788.93851	0.006642
6787.00983	0.006666
6785.08116	0.006690
6783.15248	0.006702
6781.22381	0.006698
6779.29513	0.006700
6777.36645	0.006734
6775.43778	0.006777
6773.50910	0.006793
6771.58043	0.006803
6769.65175	0.006822
6767.72308	0.006828
6765.79440	0.006824
6763.86572	0.006832
6761.93705	0.006852
6760.00837	0.006877
6758.07970	0.006903
6756.15102	0.006915
6754.22235	0.006914
6752.29367	0.006918
6750.36499	0.006927
6748.43632	0.006940
6746.50764	0.006959
6744.57897	0.006973
6742.65029	0.006981
6740.72162	0.006993
6738.79294	0.007008
6736.86426	0.007026
6734.93559	0.007044
6733.00691	0.007051
6731.07824	0.007049
6729.14956	0.007068
6727.22089	0.007120
6725.29221	0.007173
6723.36353	0.007197
6721.43486	0.007205
6719.50618	0.007229
6717.57751	0.007262
6715.64883	0.007279
6713.72016	0.007281
6711.79148	0.007280
6709.86280	0.007285
6707.93413	0.007299
6706.00545	0.007320
6704.07678	0.007340
6702.14810	0.007351
6700.21943	0.007358
6698.29075	0.007372
6696.36207	0.007391
6694.43340	0.007411
6692.50472	0.007440
6690.57605	0.007463
6688.64737	0.007466
6686.71870	0.007471
6684.79002	0.007493
6682.86134	0.007512
6680.93267	0.007520
6679.00399	0.007526
6677.07532	0.007536
6675.14664	0.007564
6673.21797	0.007595
6671.28929	0.007605
6669.36061	0.007606
6667.43194	0.007617
6665.50326	0.007640
6663.57459	0.007670
6661.64591	0.007699
6659.71724	0.007716
6657.78856	0.007715
6655.85988	0.007719
6653.93121	0.007748
6652.00253	0.007787
6650.07386	0.007818
6648.14518	0.007820
6646.21651	0.007810
6644.28783	0.007829
6642.35915	0.007867
6640.43048	0.007896
6638.50180	0.007924
6636.57313	0.007952
6634.64445	0.007969
6632.71578	0.007977
6630.78710	0.007984
6628.85842	0.007995
6626.92975	0.008002
6625.00107	0.008007
6623.07240	0.008033
6621.14372	0.008073
6619.21505	0.008098
6617.28637	0.008101
6615.35769	0.008098
6613.42902	0.008110
6611.50034	0.008143
6609.57167	0.008180
6607.64299	0.008214
6605.71432	0.008246
6603.78564	0.008271
6601.85696	0.008274
6599.92829	0.008270
6597.99961	0.008284
6596.07094	0.008311
6594.14226	0.008343
6592.21359	0.008375
6590.28491	0.008399
6588.35623	0.008411
6586.42756	0.008424
6584.49888	0.008441
6582.57021	0.008447
6580.64153	0.008442
6578.71286	0.008440
6576.78418	0.008457
6574.85550	0.008491
6572.92683	0.008522
6570.99815	0.008558
6569.06948	0.008603
6567.14080	0.008627
6565.21213	0.008626
6563.28345	0.008626
6561.35477	0.008646
6559.42610	0.008678
6557.49742	0.008697
6555.56875	0.008701
6553.64007	0.008708
6551.71140	0.008731
6549.78272	0.008758
6547.85404	0.008768
6545.92537	0.008775
6543.99669	0.008824
6542.06802	0.008888
6540.13934	0.008903
6538.21067	0.008887
6536.28199	0.008898
6534.35331	0.008934
6532.42464	0.008964
6530.49596	0.008973
6528.56729	0.008963
6526.63861	0.008970
6524.70994	0.009011
6522.78126	0.009053
6520.85258	0.009072
6518.92391	0.009073
6516.99523	0.009071
6515.06656	0.009085
6513.13788	0.009122
6511.20921	0.009162
6509.28053	0.009190
6507.35185	0.009213
6505.42318	0.009235
6503.49450	0.009237
6501.56583	0.009236
6499.63715	0.009257
6497.70848	0.009286
6495.77980	0.009314
6493.85112	0.009356
6491.92245	0.009401
6489.99377	0.009418
6488.06510	0.009421
6486.13642	0.009431
6484.20775	0.009438
6482.27907	0.009442
6480.35039	0.009463
6478.42172	0.009511
6476.49304	0.009565
6474.56437	0.009591
6472.63569	0.009594
6470.70702	0.009602
6468.77834	0.009632
6466.84966	0.009668
6464.92099	0.009686
6462.99231	0.009683
6461.06364	0.009675
6459.13496	0.009698
6457.20629	0.009754
6455.27761	0.009798
6453.34893	0.009812
6451.42026	0.009819
6449.49158	0.009843
6447.56291	0.009879
6445.63423	0.009904
6443.70556	0.009918
6441.77688	0.009942
6439.84820	0.009967
6437.91953	0.009978
6435.99085	0.009990
6434.06218	0.010010
6432.13350	0.010033
6430.20483	0.010061
6428.27615	0.010089
6426.34747	0.010112
6424.41880	0.010131
6422.49012	0.010145
6420.56145	0.010142
6418.63277	0.010147
6416.70410	0.010182
6414.77542	0.010222
6412.84674	0.010254
6410.91807	0.010296
6408.98939	0.010340
6407.06072	0.010361
6405.13204	0.010364
6403.20337	0.010372
6401.27469	0.010399
6399.34601	0.010434
6397.41734	0.010453
6395.48866	0.010459
6393.55999	0.010477
6391.63131	0.010508
6389.70264	0.010540
6387.77396	0.010567
6385.84528	0.010582
6383.91661	0.010594
6381.98793	0.010630
6380.05926	0.010678
6378.13058	0.010708
6376.20191	0.010723
6374.27323	0.010748
6372.34455	0.010779
6370.41588	0.010804
6368.48720	0.010828
6366.55853	0.010853
6364.62985	0.010876
6362.70118	0.010898
6360.77250	0.010920
6358.84382	0.010951
6356.91515	0.010991
6354.98647	0.011015
6353.05780	0.011023
6351.12912	0.011037
6349.20045	0.011068
6347.27177	0.011094
6345.34309	0.011108
6343.41442	0.011120
6341.48574	0.011138
6339.55707	0.011161
6337.62839	0.011193
6335.69972	0.011233
6333.77104	0.011265
6331.84236	0.011289
6329.91369	0.011331
6327.98501	0.011372
6326.05634	0.011380
6324.12766	0.011364
6322.19899	0.011360
6320.27031	0.011381
6318.34163	0.011427
6316.41296	0.011477
6314.48428	0.011504
6312.55561	0.011526
6310.62693	0.011567
6308.69826	0.011599
6306.76958	0.011605
6304.84090	0.011612
6302.91223	0.011626
6300.98355	0.011660
6299.05488	0.011716
6297.12620	0.011744
6295.19753	0.011739
6293.26885	0.011756
6291.34017	0.011804
6289.41150	0.011851
6287.48282	0.011894
6285.55415	0.011926
6283.62547	0.011935
6281.69680	0.011935
6279.76812	0.011952
6277.83944	0.011994
6275.91077	0.012035
6273.98209	0.012045
6272.05342	0.012038
6270.12474	0.012056
6268.19607	0.012098
6266.26739	0.012134
6264.33871	0.012161
6262.41004	0.012194
6260.48136	0.012230
6258.55269	0.012253
6256.62401	0.012276
6254.69534	0.012317
6252.76666	0.012355
6250.83798	0.012371
6248.90931	0.012381
6246.98063	0.012404
6245.05196	0.012435
6243.12328	0.012473
6241.19461	0.012507
6239.26593	0.012532
6237.33725	0.012560
6235.40858	0.012591
6233.47990	0.012614
6231.55123	0.012633
6229.62255	0.012665
6227.69388	0.012710
6225.76520	0.012753
6223.83652	0.012792
6221.90785	0.012829
6219.97917	0.012855
6218.05050	0.012860
6216.12182	0.012853
6214.19315	0.012872
6212.26447	0.012926
6210.33579	0.012990
6208.40712	0.013041
6206.47844	0.013071
6204.54977	0.013069
6202.62109	0.013054
6200.69242	0.013075
6198.76374	0.013135
6196.83506	0.013178
6194.90639	0.013170
6192.97771	0.013157
6191.04904	0.013192
6189.12036	0.013244
6187.19169	0.013271
6185.26301	0.013296
6183.33433	0.013348
6181.40566	0.013403
6179.47698	0.013448
6177.54831	0.013497
6175.61963	0.013532
6173.69096	0.013537
6171.76228	0.013544
6169.83360	0.013576
6167.90493	0.013615
6165.97625	0.013654
6164.04758	0.013691
6162.11890	0.013715
6160.19023	0.013735
6158.26155	0.013769
6156.33287	0.013803
6154.40420	0.013817
6152.47552	0.013831
6150.54685	0.013869
6148.61817	0.013909
6146.68950	0.013933
6144.76082	0.013957
6142.83214	0.013989
6140.90347	0.014022
6138.97479	0.014064
6137.04612	0.014103
6135.11744	0.014126
6133.18877	0.014165
6131.26009	0.014215
6129.33141	0.014246
6127.40274	0.014262
6125.47406	0.014269
6123.54539	0.014273
6121.61671	0.014301
6119.68804	0.014348
6117.75936	0.014380
6115.83068	0.014406
6113.90201	0.014469
6111.97333	0.014547
6110.04466	0.014580
6108.11598	0.014583
6106.18731	0.014616
6104.25863	0.014674
6102.32995	0.014713
6100.40128	0.014724
6098.47260	0.014733
6096.54393	0.014757
6094.61525	0.014798
6092.68658	0.014841
6090.75790	0.014871
6088.82922	0.014898
6086.90055	0.014941
6084.97187	0.015001
6083.04320	0.015057
6081.11452	0.015090
6079.18585	0.015103
6077.25717	0.015116
6075.32849	0.015148
6073.39982	0.015202
6071.47114	0.015243
6069.54247	0.015251
6067.61379	0.015251
6065.68512	0.015269
6063.75644	0.015304
6061.82776	0.015342
6059.89909	0.015374
6057.97041	0.015414
6056.04174	0.015460
6054.11306	0.015494
6052.18439	0.015518
6050.25571	0.015551
6048.32703	0.015583
6046.39836	0.015611
6044.46968	0.015646
6042.54101	0.015687
6040.61233	0.015724
6038.68366	0.015754
6036.75498	0.015775
6034.82630	0.015804
6032.89763	0.015853
6030.96895	0.015909
6029.04028	0.015960
6027.11160	0.016009
6025.18293	0.016057
6023.25425	0.016096
6021.32557	0.016115
6019.39690	0.016124
6017.46822	0.016140
6015.53955	0.016167
6013.61087	0.016205
6011.68220	0.016251
6009.75352	0.016297
6007.82484	0.016343
6005.89617	0.016386
6003.96749	0.016411
6002.03882	0.016425
6000.11014	0.016453
5998.18147	0.016495
5996.25279	0.016529
5994.32411	0.016565
5992.39544	0.016606
5990.46676	0.016624
5988.53809	0.016638
5986.60941	0.016688
5984.68074	0.016752
5982.75206	0.016794
5980.82338	0.016827
5978.89471	0.016863
5976.96603	0.016902
5975.03736	0.016947
5973.10868	0.016989
5971.18001	0.017027
5969.25133	0.017060
5967.32265	0.017078
5965.39398	0.017083
5963.46530	0.017106
5961.53663	0.017152
5959.60795	0.017199
5957.67928	0.017233
5955.75060	0.017261
5953.82192	0.017300
5951.89325	0.017361
5949.96457	0.017426
5948.03590	0.017470
5946.10722	0.017494
5944.17855	0.017508
5942.24987	0.017534
5940.32119	0.017594
5938.39252	0.017665
5936.46384	0.017706
5934.53517	0.017719
5932.60649	0.017744
5930.67782	0.017792
5928.74914	0.017844
5926.82046	0.017898
5924.89179	0.017952
5922.96311	0.017992
5921.03444	0.018011
5919.10576	0.018025
5917.17709	0.018054
5915.24841	0.018095
5913.31973	0.018143
5911.39106	0.018198
5909.46238	0.018256
5907.53371	0.018301
5905.60503	0.018328
5903.67636	0.018354
5901.74768	0.018396
5899.81900	0.018445
5897.89033	0.018486
5895.96165	0.018529
5894.03298	0.018590
5892.10430	0.018655
5890.17563	0.018696
5888.24695	0.018719
5886.31827	0.018735
5884.38960	0.018745
5882.46092	0.018769
5880.53225	0.018819
5878.60357	0.018883
5876.67490	0.018940
5874.74622	0.018978
5872.81755	0.019010
5870.88887	0.019050
5868.96019	0.019084
5867.03152	0.019095
5865.10284	0.019110
5863.17417	0.019141
5861.24549	0.019183
5859.31682	0.019245
5857.38814	0.019310
5855.45946	0.019352
5853.53079	0.019383
5851.60211	0.019434
5849.67344	0.019501
5847.74476	0.019554
5845.81609	0.019577
5843.88741	0.019588
5841.95873	0.019617
5840.03006	0.019669
5838.10138	0.019728
5836.17271	0.019774
5834.24403	0.019805
5832.31536	0.019844
5830.38668	0.019892
5828.45800	0.019935
5826.52933	0.019968
5824.60065	0.019988
5822.67198	0.020017
5820.74330	0.020073
5818.81463	0.020129
5816.88595	0.020172
5814.95727	0.020225
5813.02860	0.020295
5811.09992	0.020355
5809.17125	0.020386
5807.24257	0.020402
5805.31390	0.020428
5803.38522	0.020469
5801.45654	0.020517
5799.52787	0.020566
5797.59919	0.020607
5795.67052	0.020645
5793.74184	0.020698
5791.81317	0.020764
5789.88449	0.020823
5787.95581	0.020862
5786.02714	0.020877
5784.09846	0.020899
5782.16979	0.020964
5780.24111	0.021056
5778.31244	0.021127
5776.38376	0.021171
5774.45508	0.021204
5772.52641	0.021228
5770.59773	0.021259
5768.66906	0.021314
5766.74038	0.021364
5764.81171	0.021384
5762.88303	0.021390
5760.95435	0.021406
5759.02568	0.021454
5757.09700	0.021536
5755.16833	0.021612
5753.23965	0.021650
5751.31098	0.021674
5749.38230	0.021717
5747.45362	0.021786
5745.52495	0.021854
5743.59627	0.021884
5741.66760	0.021889
5739.73892	0.021909
5737.81025	0.021959
5735.88157	0.022012
5733.95289	0.022057
5732.02422	0.022107
5730.09554	0.022173
5728.16687	0.022247
5726.23819	0.022307
5724.30952	0.022338
5722.38084	0.022354
5720.45216	0.022384
5718.52349	0.022445
5716.59481	0.022530
5714.66614	0.022610
5712.73746	0.022659
5710.80879	0.022670
5708.88011	0.022675
5706.95143	0.022721
5705.02276	0.022795
5703.09408	0.022842
5701.16541	0.022862
5699.23673	0.022901
5697.30806	0.022962
5695.37938	0.023020
5693.45070	0.023076
5691.52203	0.023122
5689.59335	0.023167
5687.66468	0.023224
5685.73600	0.023272
5683.80733	0.023310
5681.87865	0.023361
5679.94997	0.023421
5678.02130	0.023478
5676.09262	0.023524
5674.16395	0.023557
5672.23527	0.023586
5670.30660	0.023625
5668.37792	0.023688
5666.44924	0.023762
5664.52057	0.023817
5662.59189	0.023851
5660.66322	0.023903
5658.73454	0.023973
5656.80587	0.024026
5654.87719	0.024063
5652.94851	0.024096
5651.01984	0.024122
5649.09116	0.024162
5647.16249	0.024230
5645.23381	0.024297
5643.30514	0.024340
5641.37646	0.024380
5639.44778	0.024436
5637.51911	0.024506
5635.59043	0.024576
5633.66176	0.024624
5631.73308	0.024639
5629.80441	0.024649
5627.87573	0.024677
5625.94705	0.024732
5624.01838	0.024800
5622.08970	0.024853
5620.16103	0.024896
5618.23235	0.024958
5616.30368	0.025029
5614.37500	0.025091
5612.44632	0.025148
5610.51765	0.025193
5608.58897	0.025229
5606.66030	0.025267
5604.73162	0.025311
5602.80295	0.025366
5600.87427	0.025439
5598.94559	0.025526
5597.01692	0.025600
5595.08824	0.025654
5593.15957	0.025692
5591.23089	0.025714
5589.30222	0.025746
5587.37354	0.025802
5585.44486	0.025867
5583.51619	0.025915
5581.58751	0.025948
5579.65884	0.026000
5577.73016	0.026080
5575.80149	0.026142
5573.87281	0.026172
5571.94413	0.026216
5570.01546	0.026288
5568.08678	0.026349
5566.15811	0.026394
5564.22943	0.026441
5562.30076	0.026480
5560.37208	0.026517
5558.44340	0.026567
5556.51473	0.026623
5554.58605	0.026678
5552.65738	0.026731
5550.72870	0.026781
5548.80003	0.026832
5546.87135	0.026899
5544.94267	0.026964
5543.01400	0.027004
5541.08532	0.027047
5539.15665	0.027104
5537.22797	0.027154
5535.29930	0.027199
5533.37062	0.027249
5531.44194	0.027301
5529.51327	0.027351
5527.58459	0.027394
5525.65592	0.027451
5523.72724	0.027523
5521.79857	0.027576
5519.86989	0.027619
5517.94121	0.027682
5516.01254	0.027757
5514.08386	0.027821
5512.15519	0.027872
5510.22651	0.027923
5508.29784	0.027981
5506.36916	0.028022
5504.44048	0.028040
5502.51181	0.028081
5500.58313	0.028159
5498.65446	0.028239
5496.72578	0.028302
5494.79711	0.028346
5492.86843	0.028397
5490.93975	0.028464
5489.01108	0.028524
5487.08240	0.028569
5485.15373	0.028613
5483.22505	0.028662
5481.29638	0.028719
5479.36770	0.028782
5477.43902	0.028839
5475.51035	0.028883
5473.58167	0.028919
5471.65300	0.028955
5469.72432	0.029005
5467.79565	0.029069
5465.86697	0.029123
5463.93829	0.029172
5462.00962	0.029233
5460.08094	0.029302
5458.15227	0.029376
5456.22359	0.029457
5454.29492	0.029529
5452.36624	0.029569
5450.43756	0.029593
5448.50889	0.029635
5446.58021	0.029697
5444.65154	0.029763
5442.72286	0.029827
5440.79419	0.029888
5438.86551	0.029939
5436.93683	0.029966
5435.00816	0.030009
5433.07948	0.030090
5431.15081	0.030162
5429.22213	0.030217
5427.29346	0.030292
5425.36478	0.030381
5423.43610	0.030453
5421.50743	0.030509
5419.57875	0.030567
5417.65008	0.030614
5415.72140	0.030626
5413.79273	0.030654
5411.86405	0.030730
5409.93537	0.030814
5408.00670	0.030899
5406.07802	0.030991
5404.14935	0.031059
5402.22067	0.031104
5400.29200	0.031156
5398.36332	0.031208
5396.43464	0.031230
5394.50597	0.031258
5392.57729	0.031335
5390.64862	0.031416
5388.71994	0.031460
5386.79127	0.031503
5384.86259	0.031567
5382.93391	0.031632
5381.00524	0.031698
5379.07656	0.031763
5377.14789	0.031817
5375.21921	0.031881
5373.29054	0.031966
5371.36186	0.032041
5369.43318	0.032090
5367.50451	0.032128
5365.57583	0.032160
5363.64716	0.032199
5361.71848	0.032262
5359.78981	0.032350
5357.86113	0.032430
5355.93245	0.032466
5354.00378	0.032486
5352.07510	0.032552
5350.14643	0.032647
5348.21775	0.032708
5346.28908	0.032733
5344.36040	0.032776
5342.43172	0.032855
5340.50305	0.032921
5338.57437	0.032956
5336.64570	0.032999
5334.71702	0.033063
5332.78835	0.033134
5330.85967	0.033206
5328.93099	0.033281
5327.00232	0.033362
5325.07364	0.033450
5323.14497	0.033527
5321.21629	0.033580
5319.28762	0.033625
5317.35894	0.033674
5315.43026	0.033727
5313.50159	0.033787
5311.57291	0.033846
5309.64424	0.033901
5307.71556	0.033963
5305.78689	0.034028
5303.85821	0.034079
5301.92953	0.034131
5300.00086	0.034209
5298.07218	0.034298
5296.14351	0.034368
5294.21483	0.034426
5292.28616	0.034489
5290.35748	0.034556
5288.42880	0.034620
5286.50013	0.034676
5284.57145	0.034723
5282.64278	0.034770
5280.71410	0.034830
5278.78543	0.034902
5276.85675	0.034981
5274.92807	0.035064
5272.99940	0.035138
5271.07072	0.035195
5269.14205	0.035248
5267.21337	0.035298
5265.28470	0.035340
5263.35602	0.035392
5261.42734	0.035460
5259.49867	0.035518
5257.56999	0.035563
5255.64132	0.035622
5253.71264	0.035712
5251.78397	0.035801
5249.85529	0.035853
5247.92661	0.035895
5245.99794	0.035954
5244.06926	0.036019
5242.14059	0.036095
5240.21191	0.036178
5238.28324	0.036252
5236.35456	0.036321
5234.42588	0.036386
5232.49721	0.036441
5230.56853	0.036501
5228.63986	0.036571
5226.71118	0.036633
5224.78251	0.036688
5222.85383	0.036761
5220.92515	0.036838
5218.99648	0.036892
5217.06780	0.036947
5215.13913	0.037029
5213.21045	0.037119
5211.28178	0.037180
5209.35310	0.037199
5207.42442	0.037221
5205.49575	0.037284
5203.56707	0.037366
5201.63840	0.037448
5199.70972	0.037541
5197.78105	0.037638
5195.85237	0.037716
5193.92369	0.037788
5191.99502	0.037864
5190.06634	0.037923
5188.13767	0.037953
5186.20899	0.037979
5184.28032	0.038021
5182.35164	0.038092
5180.42296	0.038188
5178.49429	0.038287
5176.56561	0.038369
5174.63694	0.038434
5172.70826	0.038486
5170.77959	0.038540
5168.85091	0.038609
5166.92223	0.038672
5164.99356	0.038708
5163.06488	0.038749
5161.13621	0.038826
5159.20753	0.038909
5157.27886	0.038978
5155.35018	0.039062
5153.42150	0.039160
5151.49283	0.039232
5149.56415	0.039288
5147.63548	0.039348
5145.70680	0.039404
5143.77813	0.039473
5141.84945	0.039565
5139.92077	0.039649
5137.99210	0.039715
5136.06342	0.039783
5134.13475	0.039860
5132.20607	0.039937
5130.27740	0.040005
5128.34872	0.040068
5126.42004	0.040136
5124.49137	0.040201
5122.56269	0.040253
5120.63402	0.040310
5118.70534	0.040393
5116.77667	0.040468
5114.84799	0.040513
5112.91931	0.040568
5110.99064	0.040655
5109.06196	0.040762
5107.13329	0.040863
5105.20461	0.040936
5103.27594	0.040991
5101.34726	0.041059
5099.41858	0.041127
5097.48991	0.041173
5095.56123	0.041225
5093.63256	0.041302
5091.70388	0.041384
5089.77521	0.041462
5087.84653	0.041546
5085.91785	0.041611
5083.98918	0.041634
5082.06050	0.041660
5080.13183	0.041733
5078.20315	0.041846
5076.27448	0.041955
5074.34580	0.042033
5072.41712	0.042095
5070.48845	0.042162
5068.55977	0.042229
5066.63110	0.042285
5064.70242	0.042330
5062.77375	0.042385
5060.84507	0.042472
5058.91639	0.042572
5056.98772	0.042648
5055.05904	0.042717
5053.13037	0.042804
5051.20169	0.042898
5049.27302	0.042987
5047.34434	0.043070
5045.41566	0.043146
5043.48699	0.043223
5041.55831	0.043287
5039.62964	0.043333
5037.70096	0.043380
5035.77229	0.043434
5033.84361	0.043498
5031.91493	0.043590
5029.98626	0.043692
5028.05758	0.043766
5026.12891	0.043810
5024.20023	0.043860
5022.27156	0.043934
5020.34288	0.044020
5018.41420	0.044103
5016.48553	0.044186
5014.55685	0.044277
5012.62818	0.044370
5010.69950	0.044437
5008.77083	0.044487
5006.84215	0.044561
5004.91347	0.044668
5002.98480	0.044769
5001.05612	0.044824
4999.12745	0.044858
4997.19877	0.044924
4995.27010	0.045013
4993.34142	0.045088
4991.41274	0.045141
4989.48407	0.045201
4987.55539	0.045289
4985.62672	0.045368
4983.69804	0.045422
4981.76937	0.045495
4979.84069	0.045577
4977.91201	0.045636
4975.98334	0.045708
4974.05466	0.045821
4972.12599	0.045935
4970.19731	0.046024
4968.26864	0.046099
4966.33996	0.046159
4964.41128	0.046208
4962.48261	0.046284
4960.55393	0.046391
4958.62526	0.046489
4956.69658	0.046566
4954.76791	0.046650
4952.83923	0.046734
4950.91055	0.046795
4948.98188	0.046845
4947.05320	0.046898
4945.12453	0.046958
4943.19585	0.047040
4941.26718	0.047138
4939.33850	0.047218
4937.40982	0.047288
4935.48115	0.047374
4933.55247	0.047463
4931.62380	0.047533
4929.69512	0.047597
4927.76645	0.047680
4925.83777	0.047792
4923.90909	0.047905
4921.98042	0.047988
4920.05174	0.048066
4918.12307	0.048145
4916.19439	0.048199
4914.26572	0.048254
4912.33704	0.048341
4910.40836	0.048438
4908.47969	0.048525
4906.55101	0.048602
4904.62234	0.048685
4902.69366	0.048772
4900.76499	0.048860
4898.83631	0.048947
4896.90763	0.049014
4894.97896	0.049065
4893.05028	0.049149
4891.12161	0.049269
4889.19293	0.049386
4887.26426	0.049481
4885.33558	0.049555
4883.40690	0.049607
4881.47823	0.049656
4879.54955	0.049720
4877.62088	0.049809
4875.69220	0.049920
4873.76353	0.050035
4871.83485	0.050135
4869.90617	0.050219
4867.97750	0.050292
4866.04882	0.050351
4864.12015	0.050403
4862.19147	0.050459
4860.26280	0.050530
4858.33412	0.050621
4856.40544	0.050731
4854.47677	0.050860
4852.54809	0.050976
4850.61942	0.051041
4848.69074	0.051075
4846.76207	0.051132
4844.83339	0.051226
4842.90471	0.051328
4840.97604	0.051423
4839.04736	0.051527
4837.11869	0.051634
4835.19001	0.051718
4833.26134	0.051792
4831.33266	0.051873
4829.40398	0.051944
4827.47531	0.052020
4825.54663	0.052115
4823.61796	0.052218
4821.68928	0.052335
4819.76061	0.052450
4817.83193	0.052536
4815.90325	0.052599
4813.97458	0.052658
4812.04590	0.052735
4810.11723	0.052838
4808.18855	0.052935
4806.25988	0.053006
4804.33120	0.053057
4802.40252	0.053116
4800.47385	0.053209
4798.54517	0.053313
4796.61650	0.053407
4794.68782	0.053508
4792.75915	0.053606
4790.83047	0.053697
4788.90179	0.053799
4786.97312	0.053910
4785.04444	0.054026
4783.11577	0.054136
4781.18709	0.054225
4779.25842	0.054300
4777.32974	0.054382
4775.40106	0.054481
4773.47239	0.054575
4771.54371	0.054647
4769.61504	0.054722
4767.68636	0.054826
4765.75769	0.054929
4763.82901	0.055004
4761.90033	0.055077
4759.97166	0.055161
4758.04298	0.055244
4756.11431	0.055332
4754.18563	0.055432
4752.25696	0.055525
4750.32828	0.055623
4748.39960	0.055745
4746.47093	0.055865
4744.54225	0.055973
4742.61358	0.056084
4740.68490	0.056190
4738.75623	0.056268
4736.82755	0.056337
4734.89887	0.056433
4732.97020	0.056539
4731.04152	0.056644
4729.11285	0.056753
4727.18417	0.056842
4725.25550	0.056918
4723.32682	0.056999
4721.39814	0.057090
4719.46947	0.057204
4717.54079	0.057330
4715.61212	0.057436
4713.68344	0.057512
4711.75477	0.057577
4709.82609	0.057638
4707.89741	0.057712
4705.96874	0.057808
4704.04006	0.057913
4702.11139	0.058034
4700.18271	0.058167
4698.25404	0.058293
4696.32536	0.058419
4694.39668	0.058547
4692.46801	0.058650
4690.53933	0.058718
4688.61066	0.058792
4686.68198	0.058905
4684.75331	0.059028
4682.82463	0.059126
4680.89595	0.059197
4678.96728	0.059272
4677.03860	0.059364
4675.10993	0.059460
4673.18125	0.059569
4671.25258	0.059696
4669.32390	0.059819
4667.39522	0.059942
4665.46655	0.060048
4663.53787	0.060116
4661.60920	0.060187
4659.68052	0.060284
4657.75185	0.060383
4655.82317	0.060494
4653.89449	0.060629
4651.96582	0.060740
4650.03714	0.060805
4648.10847	0.060892
4646.17979	0.061034
4644.25112	0.061192
4642.32244	0.061322
4640.39376	0.061414
4638.46509	0.061494
4636.53641	0.061589
4634.60774	0.061688
4632.67906	0.061783
4630.75039	0.061878
4628.82171	0.061980
4626.89303	0.062083
4624.96436	0.062181
4623.03568	0.062284
4621.10701	0.062396
4619.17833	0.062508
4617.24966	0.062621
4615.32098	0.062736
4613.39230	0.062852
4611.46363	0.062982
4609.53495	0.063112
4607.60628	0.063214
4605.67760	0.063311
4603.74893	0.063436
4601.82025	0.063572
4599.89157	0.063679
4597.96290	0.063771
4596.03422	0.063865
4594.10555	0.063937
4592.17687	0.064002
4590.24820	0.064111
4588.31952	0.064254
4586.39084	0.064387
4584.46217	0.064514
4582.53349	0.064651
4580.60482	0.064790
4578.67614	0.064912
4576.74747	0.065010
4574.81879	0.065121
4572.89011	0.065272
4570.96144	0.065401
4569.03276	0.065473
4567.10409	0.065553
4565.17541	0.065680
4563.24674	0.065826
4561.31806	0.065946
4559.38938	0.066030
4557.46071	0.066121
4555.53203	0.066249
4553.60336	0.066381
4551.67468	0.066484
4549.74601	0.066589
4547.81733	0.066726
4545.88865	0.066861
4543.95998	0.066981
4542.03130	0.067124
4540.10263	0.067277
4538.17395	0.067388
4536.24528	0.067471
4534.31660	0.067582
4532.38792	0.067721
4530.45925	0.067856
4528.53057	0.067978
4526.60190	0.068083
4524.67322	0.068186
4522.74455	0.068309
4520.81587	0.068444
4518.88719	0.068578
4516.95852	0.068705
4515.02984	0.068840
4513.10117	0.068989
4511.17249	0.069134
4509.24382	0.069269
4507.31514	0.069391
4505.38646	0.069490
4503.45779	0.069594
4501.52911	0.069719
4499.60044	0.069837
4497.67176	0.069948
4495.74309	0.070078
4493.81441	0.070222
4491.88573	0.070361
4489.95706	0.070494
4488.02838	0.070618
4486.09971	0.070731
4484.17103	0.070841
4482.24236	0.070954
4480.31368	0.071078
4478.38500	0.071220
4476.45633	0.071372
4474.52765	0.071526
4472.59898	0.071682
4470.67030	0.071835
4468.74163	0.071985
4466.81295	0.072127
4464.88427	0.072235
4462.95560	0.072326
4461.02692	0.072447
4459.09825	0.072589
4457.16957	0.072725
4455.24090	0.072869
4453.31222	0.073025
4451.38354	0.073190
4449.45487	0.073350
4447.52619	0.073476
4445.59752	0.073570
4443.66884	0.073691
4441.74017	0.073852
4439.81149	0.073985
4437.88281	0.074069
4435.95414	0.074164
4434.02546	0.074316
4432.09679	0.074504
4430.16811	0.074685
4428.23944	0.074841
4426.31076	0.074963
4424.38208	0.075057
4422.45341	0.075153
4420.52473	0.075274
4418.59606	0.075406
4416.66738	0.075531
4414.73871	0.075667
4412.81003	0.075836
4410.88135	0.076014
4408.95268	0.076156
4407.02400	0.076274
4405.09533	0.076413
4403.16665	0.076580
4401.23798	0.076755
4399.30930	0.076920
4397.38062	0.077073
4395.45195	0.077223
4393.52327	0.077359
4391.59460	0.077484
4389.66592	0.077611
4387.73725	0.077729
4385.80857	0.077855
4383.87989	0.078007
4381.95122	0.078168
4380.02254	0.078330
4378.09387	0.078483
4376.16519	0.078620
4374.23652	0.078758
4372.30784	0.078912
4370.37916	0.079057
4368.45049	0.079173
4366.52181	0.079301
4364.59314	0.079467
4362.66446	0.079641
4360.73579	0.079809
4358.80711	0.079984
4356.87843	0.080149
4354.94976	0.080280
4353.02108	0.080405
4351.09241	0.080560
4349.16373	0.080719
4347.23506	0.080880
4345.30638	0.081050
4343.37770	0.081187
4341.44903	0.081288
4339.52035	0.081400
4337.59168	0.081563
4335.66300	0.081769
4333.73433	0.081956
4331.80565	0.082114
4329.87697	0.082298
4327.94830	0.082491
4326.01962	0.082641
4324.09095	0.082754
4322.16227	0.082870
4320.23360	0.083010
4318.30492	0.083170
4316.37624	0.083339
4314.44757	0.083518
4312.51889	0.083705
4310.59022	0.083882
4308.66154	0.084053
4306.73287	0.084226
4304.80419	0.084374
4302.87551	0.084510
4300.94684	0.084681
4299.01816	0.084860
4297.08949	0.085016
4295.16081	0.085173
4293.23214	0.085344
4291.30346	0.085526
4289.37478	0.085727
4287.44611	0.085933
4285.51743	0.086106
4283.58876	0.086253
4281.66008	0.086411
4279.73141	0.086577
4277.80273	0.086738
4275.87405	0.086901
4273.94538	0.087077
4272.01670	0.087260
4270.08803	0.087425
4268.15935	0.087563
4266.23068	0.087695
4264.30200	0.087849
4262.37332	0.088022
4260.44465	0.088174
4258.51597	0.088311
4256.58730	0.088489
4254.65862	0.088685
4252.72995	0.088844
4250.80127	0.088989
4248.87259	0.089157
4246.94392	0.089350
4245.01524	0.089532
4243.08657	0.089682
4241.15789	0.089837
4239.22922	0.090018
4237.30054	0.090226
4235.37186	0.090468
4233.44319	0.090702
4231.51451	0.090876
4229.58584	0.090998
4227.65716	0.091116
4225.72849	0.091264
4223.79981	0.091434
4221.87113	0.091607
4219.94246	0.091784
4218.01378	0.091957
4216.08511	0.092125
4214.15643	0.092309
4212.22776	0.092515
4210.29908	0.092713
4208.37040	0.092880
4206.44173	0.093036
4204.51305	0.093205
4202.58438	0.093382
4200.65570	0.093559
4198.72703	0.093757
4196.79835	0.093981
4194.86968	0.094189
4192.94100	0.094373
4191.01232	0.094569
4189.08365	0.094778
4187.15497	0.094973
4185.22630	0.095138
4183.29762	0.095285
4181.36895	0.095455
4179.44027	0.095642
4177.51159	0.095822
4175.58292	0.096021
4173.65424	0.096234
4171.72557	0.096434
4169.79689	0.096620
4167.86822	0.096786
4165.93954	0.096950
4164.01086	0.097130
4162.08219	0.097303
4160.15351	0.097475
4158.22484	0.097658
4156.29616	0.097863
4154.36749	0.098095
4152.43881	0.098328
4150.51013	0.098534
4148.58146	0.098722
4146.65278	0.098886
4144.72411	0.099036
4142.79543	0.099222
4140.86676	0.099447
4138.93808	0.099664
4137.00940	0.099863
4135.08073	0.100060
4133.15205	0.100253
4131.22338	0.100461
4129.29470	0.100677
4127.36603	0.100854
4125.43735	0.101007
4123.50867	0.101165
4121.58000	0.101328
4119.65132	0.101523
4117.72265	0.101731
4115.79397	0.101918
4113.86530	0.102114
4111.93662	0.102346
4110.00794	0.102590
4108.07927	0.102801
4106.15059	0.102967
4104.22192	0.103147
4102.29324	0.103368
4100.36457	0.103586
4098.43589	0.103783
4096.50721	0.103993
4094.57854	0.104215
4092.64986	0.104413
4090.72119	0.104599
4088.79251	0.104806
4086.86384	0.105027
4084.93516	0.105219
4083.00648	0.105377
4081.07781	0.105551
4079.14913	0.105782
4077.22046	0.106035
4075.29178	0.106265
4073.36311	0.106473
4071.43443	0.106670
4069.50575	0.106872
4067.57708	0.107097
4065.64840	0.107333
4063.71973	0.107534
4061.79105	0.107704
4059.86238	0.107911
4057.93370	0.108169
4056.00502	0.108428
4054.07635	0.108669
4052.14767	0.108899
4050.21900	0.109107
4048.29032	0.109301
4046.36165	0.109508
4044.43297	0.109724
4042.50429	0.109928
4040.57562	0.110119
4038.64694	0.110309
4036.71827	0.110519
4034.78959	0.110756
4032.86092	0.110991
4030.93224	0.111202
4029.00356	0.111395
4027.07489	0.111579
4025.14621	0.111788
4023.21754	0.112035
4021.28886	0.112279
4019.36019	0.112505
4017.43151	0.112724
4015.50283	0.112937
4013.57416	0.113146
4011.64548	0.113347
4009.71681	0.113562
4007.78813	0.113799
4005.85946	0.114018
4003.93078	0.114221
4002.00210	0.114462
4000.07343	0.114720
3998.14475	0.114930
3996.21608	0.115108
3994.28740	0.115303
3992.35873	0.115526
3990.43005	0.115788
3988.50137	0.116061
3986.57270	0.116283
3984.64402	0.116478
3982.71535	0.116712
3980.78667	0.116967
3978.85800	0.117200
3976.92932	0.117399
3975.00064	0.117584
3973.07197	0.117783
3971.14329	0.118010
3969.21462	0.118248
3967.28594	0.118487
3965.35727	0.118734
3963.42859	0.118984
3961.49991	0.119211
3959.57124	0.119412
3957.64256	0.119609
3955.71389	0.119809
3953.78521	0.119990
3951.85654	0.120160
3949.92786	0.120362
3947.99918	0.120622
3946.07051	0.120886
3944.14183	0.121103
3942.21316	0.121353
3940.28448	0.121682
3938.35581	0.121994
3936.42713	0.122198
3934.49845	0.122279
3932.56978	0.122366
3930.64110	0.122605
3928.71243	0.122919
3926.78375	0.123150
3924.85508	0.123331
3922.92640	0.123545
3920.99772	0.123733
3919.06905	0.123892
3917.14037	0.124157
3915.21170	0.124545
3913.28302	0.124923
3911.35435	0.125230
3909.42567	0.125453
3907.49699	0.125480
3905.56832	0.125327
3903.63964	0.125251
3901.71097	0.125429
3899.78229	0.125876
3897.85362	0.126508
3895.92494	0.127009
3893.99626	0.127154
3892.06759	0.127207
3890.13891	0.127438
3888.21024	0.127624
3886.28156	0.127711
3884.35289	0.127975
3882.42421	0.128266
3880.49553	0.128520
3878.56686	0.128946
3876.63818	0.129289
3874.70951	0.129393
3872.78083	0.129424
3870.85216	0.129501
3868.92348	0.129798
3866.99480	0.130200
3865.06613	0.130491
3863.13745	0.130831
3861.20878	0.131284
3859.28010	0.131591
3857.35143	0.131394
3855.42275	0.130814
3853.49407	0.130772
3851.56540	0.131654
3849.63672	0.132668
3847.70805	0.133217
3845.77937	0.133391
3843.85070	0.133424
3841.92202	0.133444
3839.99334	0.133503
3838.06467	0.133717
3836.13599	0.134124
3834.20732	0.134554
3832.27864	0.134952
3830.34997	0.135379
3828.42129	0.135731
3826.49261	0.135930
3824.56394	0.135951
3822.63526	0.135838
3820.70659	0.135997
3818.77791	0.136448
3816.84924	0.136829
3814.92056	0.137300
3812.99188	0.137914
3811.06321	0.138278
3809.13453	0.138284
3807.20586	0.138311
3805.27718	0.138526
3803.34851	0.138634
3801.41983	0.138776
3799.49115	0.139211
3797.56248	0.139683
3795.63380	0.140134
3793.70513	0.140634
3791.77645	0.141027
3789.84778	0.141296
3787.91910	0.141491
3785.99042	0.141632
3784.06175	0.141795
3782.13307	0.141951
3780.20440	0.142105
3778.27572	0.142438
3776.34705	0.142909
3774.41837	0.143233
3772.48969	0.143309
3770.56102	0.143362
3768.63234	0.143600
3766.70367	0.143939
3764.77499	0.144263
3762.84632	0.144516
3760.91764	0.144657
3758.98896	0.144853
3757.06029	0.145153
3755.13161	0.145247
3753.20294	0.144991
3751.27426	0.144825
3749.34559	0.145112
3747.41691	0.145330
3745.48823	0.145249
3743.55956	0.145700
3741.63088	0.146681
3739.70221	0.147152
3737.77353	0.146986
3735.84486	0.146946
3733.91618	0.147420
3731.98750	0.148184
3730.05883	0.148823
3728.13015	0.149103
3726.20148	0.149224
3724.27280	0.149490
3722.34413	0.149883
3720.41545	0.150305
3718.48677	0.150709
3716.55810	0.150955
3714.62942	0.150899
3712.70075	0.150762
3710.77207	0.151003
3708.84340	0.151619
3706.91472	0.152227
3704.98604	0.152552
3703.05737	0.152672
3701.12869	0.152932
3699.20002	0.153374
3697.27134	0.153754
3695.34267	0.153961
3693.41399	0.153957
3691.48531	0.153810
3689.55664	0.153873
3687.62796	0.154404
3685.69929	0.155136
3683.77061	0.155644
3681.84194	0.155826
3679.91326	0.155784
3677.98458	0.155564
3676.05591	0.155493
3674.12723	0.155898
3672.19856	0.156330
3670.26988	0.156592
3668.34121	0.157144
3666.41253	0.157897
3664.48385	0.158415
3662.55518	0.158684
3660.62650	0.158840
3658.69783	0.158866
3656.76915	0.158914
3654.84048	0.159109
3652.91180	0.159020
3650.98312	0.158514
3649.05445	0.158275
3647.12577	0.158793
3645.19710	0.159747
3643.26842	0.160534
3641.33975	0.161016
3639.41107	0.161372
3637.48239	0.161661
3635.55372	0.161874
3633.62504	0.161945
3631.69637	0.161703
3629.76769	0.161455
3627.83902	0.161844
3625.91034	0.162633
3623.98166	0.163088
3622.05299	0.163085
3620.12431	0.162993
3618.19564	0.163179
3616.26696	0.163515
3614.33829	0.163699
3612.40961	0.163782
3610.48093	0.163867
3608.55226	0.164120
3606.62358	0.164656
3604.69491	0.165185
3602.76623	0.165456
3600.83756	0.165611
3598.90888	0.165782
3596.98020	0.165924
3595.05153	0.166091
3593.12285	0.166326
3591.19418	0.166391
3589.26550	0.166244
3587.33683	0.166355
3585.40815	0.166917
3583.47947	0.167505
3581.55080	0.167841
3579.62212	0.168038
3577.69345	0.168235
3575.76477	0.168471
3573.83610	0.168728
3571.90742	0.168872
3569.97874	0.168745
3568.05007	0.168589
3566.12139	0.168837
3564.19272	0.169390
3562.26404	0.169852
3560.33537	0.170159
3558.40669	0.170419
3556.47801	0.170639
3554.54934	0.170815
3552.62066	0.170992
3550.69199	0.171171
3548.76331	0.171289
3546.83464	0.171393
3544.90596	0.171608
3542.97728	0.171925
3541.04861	0.172206
3539.11993	0.172354
3537.19126	0.172449
3535.26258	0.172605
3533.33391	0.172780
3531.40523	0.172882
3529.47655	0.172926
3527.54788	0.172980
3525.61920	0.173059
3523.69053	0.173167
3521.76185	0.173335
3519.83318	0.173540
3517.90450	0.173722
3515.97582	0.173853
3514.04715	0.173937
3512.11847	0.173982
3510.18980	0.174009
3508.26112	0.174057
3506.33245	0.174116
3504.40377	0.174169
3502.47509	0.174258
3500.54642	0.174370
3498.61774	0.174428
3496.68907	0.174451
3494.76039	0.174531
3492.83172	0.174644
3490.90304	0.174706
3488.97436	0.174748
3487.04569	0.174832
3485.11701	0.174929
3483.18834	0.175001
3481.25966	0.175114
3479.33099	0.175310
3477.40231	0.175528
3475.47363	0.175740
3473.54496	0.175961
3471.61628	0.176205
3469.68761	0.176478
3467.75893	0.176781
3465.83026	0.177076
3463.90158	0.177319
3461.97290	0.177562
3460.04423	0.177880
3458.11555	0.178259
3456.18688	0.178620
3454.25820	0.178909
3452.32953	0.179159
3450.40085	0.179393
3448.47217	0.179627
3446.54350	0.179917
3444.61482	0.180245
3442.68615	0.180566
3440.75747	0.180925
3438.82880	0.181360
3436.90012	0.181868
3434.97144	0.182435
3433.04277	0.183009
3431.11409	0.183578
3429.18542	0.184182
3427.25674	0.184833
3425.32807	0.185473
3423.39939	0.186038
3421.47071	0.186564
3419.54204	0.187114
3417.61336	0.187657
3415.68469	0.188147
3413.75601	0.188611
3411.82734	0.189071
3409.89866	0.189513
3407.96998	0.189931
3406.04131	0.190316
3404.11263	0.190685
3402.18396	0.191083
3400.25528	0.191506
3398.32661	0.191913
3396.39793	0.192300
3394.46925	0.192685
3392.54058	0.193109
3390.61190	0.193598
3388.68323	0.194069
3386.75455	0.194457
3384.82588	0.194809
3382.89720	0.195171
3380.96852	0.195542
3379.03985	0.195895
3377.11117	0.196229
3375.18250	0.196562
3373.25382	0.196919
3371.32515	0.197329
3369.39647	0.197738
3367.46779	0.198071
3365.53912	0.198364
3363.61044	0.198686
3361.68177	0.199036
3359.75309	0.199398
3357.82442	0.199769
3355.89574	0.200141
3353.96706	0.200517
3352.03839	0.200899
3350.10971	0.201274
3348.18104	0.201638
3346.25236	0.201997
3344.32369	0.202366
3342.39501	0.202726
3340.46633	0.203051
3338.53766	0.203376
3336.60898	0.203732
3334.68031	0.204089
3332.75163	0.204449
3330.82296	0.204838
3328.89428	0.205216
3326.96560	0.205569
3325.03693	0.205960
3323.10825	0.206377
3321.17958	0.206761
3319.25090	0.207118
3317.32223	0.207491
3315.39355	0.207881
3313.46487	0.208260
3311.53620	0.208613
3309.60752	0.208962
3307.67885	0.209357
3305.75017	0.209805
3303.82150	0.210249
3301.89282	0.210636
3299.96414	0.210980
3298.03547	0.211344
3296.10679	0.211750
3294.17812	0.212149
3292.24944	0.212523
3290.32077	0.212907
3288.39209	0.213332
3286.46341	0.213790
3284.53474	0.214209
3282.60606	0.214559
3280.67739	0.214943
3278.74871	0.215399
3276.82004	0.215830
3274.89136	0.216217
3272.96268	0.216634
3271.03401	0.217083
3269.10533	0.217485
3267.17666	0.217839
3265.24798	0.218221
3263.31931	0.218642
3261.39063	0.219050
3259.46195	0.219452
3257.53328	0.219875
3255.60460	0.220284
3253.67593	0.220682
3251.74725	0.221111
3249.81858	0.221544
3247.88990	0.221928
3245.96122	0.222266
3244.03255	0.222620
3242.10387	0.223036
3240.17520	0.223481
3238.24652	0.223890
3236.31785	0.224254
3234.38917	0.224643
3232.46049	0.225075
3230.53182	0.225503
3228.60314	0.225925
3226.67447	0.226338
3224.74579	0.226724
3222.81712	0.227096
3220.88844	0.227464
3218.95976	0.227852
3217.03109	0.228258
3215.10241	0.228644
3213.17374	0.229027
3211.24506	0.229426
3209.31639	0.229814
3207.38771	0.230213
3205.45903	0.230653
3203.53036	0.231105
3201.60168	0.231545
3199.67301	0.231981
3197.74433	0.232435
3195.81566	0.232898
3193.88698	0.233345
3191.95830	0.233780
3190.02963	0.234210
3188.10095	0.234626
3186.17228	0.235046
3184.24360	0.235508
3182.31493	0.235989
3180.38625	0.236414
3178.45757	0.236800
3176.52890	0.237200
3174.60022	0.237592
3172.67155	0.237977
3170.74287	0.238392
3168.81420	0.238835
3166.88552	0.239272
3164.95684	0.239695
3163.02817	0.240120
3161.09949	0.240544
3159.17082	0.240956
3157.24214	0.241383
3155.31347	0.241841
3153.38479	0.242306
3151.45611	0.242752
3149.52744	0.243162
3147.59876	0.243520
3145.67009	0.243872
3143.74141	0.244282
3141.81274	0.244716
3139.88406	0.245130
3137.95538	0.245546
3136.02671	0.245959
3134.09803	0.246360
3132.16936	0.246803
3130.24068	0.247262
3128.31201	0.247661
3126.38333	0.248045
3124.45465	0.248468
3122.52598	0.248903
3120.59730	0.249338
3118.66863	0.249771
3116.73995	0.250189
3114.81128	0.250598
3112.88260	0.251019
3110.95392	0.251448
3109.02525	0.251867
3107.09657	0.252281
3105.16790	0.252711
3103.23922	0.253157
3101.31055	0.253613
3099.38187	0.254049
3097.45319	0.254430
3095.52452	0.254792
3093.59584	0.255223
3091.66717	0.255720
3089.73849	0.256184
3087.80982	0.256566
3085.88114	0.256926
3083.95246	0.257323
3082.02379	0.257770
3080.09511	0.258264
3078.16644	0.258747
3076.23776	0.259178
3074.30909	0.259600
3072.38041	0.260027
3070.45173	0.260421
3068.52306	0.260797
3066.59438	0.261199
3064.66571	0.261622
3062.73703	0.262021
3060.80836	0.262394
3058.87968	0.262791
3056.95100	0.263245
3055.02233	0.263715
3053.09365	0.264141
3051.16498	0.264533
3049.23630	0.264942
3047.30763	0.265382
3045.37895	0.265822
3043.45027	0.266255
3041.52160	0.266699
3039.59292	0.267140
3037.66425	0.267567
3035.73557	0.267992
3033.80690	0.268388
3031.87822	0.268774
3029.94954	0.269199
3028.02087	0.269639
3026.09219	0.270073
3024.16352	0.270515
3022.23484	0.270957
3020.30617	0.271383
3018.37749	0.271769
3016.44881	0.272114
3014.52014	0.272480
3012.59146	0.272907
3010.66279	0.273346
3008.73411	0.273741
3006.80544	0.274118
3004.87676	0.274539
3002.94808	0.275016
3001.01941	0.275508
2999.09073	0.275976
2997.16206	0.276398
2995.23338	0.276776
2993.30471	0.277134
2991.37603	0.277481
2989.44735	0.277824
2987.51868	0.278154
2985.59000	0.278453
2983.66133	0.278738
2981.73265	0.279022
2979.80398	0.279243
2977.87530	0.279347
2975.94662	0.279392
2974.01795	0.279450
2972.08927	0.279476
2970.16060	0.279393
2968.23192	0.279268
2966.30325	0.279242
2964.37457	0.279360
2962.44589	0.279604
2960.51722	0.279949
2958.58854	0.280389
2956.65987	0.280927
2954.73119	0.281521
2952.80252	0.282114
2950.87384	0.282646
2948.94516	0.283070
2947.01649	0.283400
2945.08781	0.283673
2943.15914	0.283888
2941.23046	0.284006
2939.30179	0.284020
2937.37311	0.283973
2935.44443	0.283872
2933.51576	0.283709
2931.58708	0.283517
2929.65841	0.283314
2927.72973	0.283136
2925.80106	0.283054
2923.87238	0.283048
2921.94370	0.283078
2920.01503	0.283237
2918.08635	0.283715
2916.15768	0.284683
2914.22900	0.286125
2912.30033	0.287733
2910.37165	0.289179
2908.44297	0.290378
2906.51430	0.291362
2904.58562	0.292177
2902.65695	0.292920
2900.72827	0.293649
2898.79960	0.294334
2896.87092	0.294937
2894.94224	0.295477
2893.01357	0.296046
2891.08489	0.296694
2889.15622	0.297367
2887.22754	0.297991
2885.29887	0.298537
2883.37019	0.299020
2881.44151	0.299461
2879.51284	0.299858
2877.58416	0.300223
2875.65549	0.300608
2873.72681	0.301053
2871.79814	0.301517
2869.86946	0.301967
2867.94078	0.302394
2866.01211	0.302740
2864.08343	0.302950
2862.15476	0.303032
2860.22608	0.303021
2858.29741	0.302969
2856.36873	0.302899
2854.44005	0.302769
2852.51138	0.302653
2850.58270	0.302885
2848.65403	0.303810
2846.72535	0.305366
2844.79668	0.307068
2842.86800	0.308499
2840.93932	0.309595
2839.01065	0.310484
2837.08197	0.311253
2835.15330	0.311929
2833.22462	0.312554
2831.29595	0.313158
2829.36727	0.313729
2827.43859	0.314261
2825.50992	0.314776
2823.58124	0.315295
2821.65257	0.315822
2819.72389	0.316370
2817.79522	0.316917
2815.86654	0.317418
2813.93786	0.317893
2812.00919	0.318374
2810.08051	0.318861
2808.15184	0.319370
2806.22316	0.319906
2804.29449	0.320418
2802.36581	0.320878
2800.43713	0.321331
2798.50846	0.321797
2796.57978	0.322269
2794.65111	0.322781
2792.72243	0.323333
2790.79376	0.323855
2788.86508	0.324321
2786.93640	0.324774
2785.00773	0.325259
2783.07905	0.325766
2781.15038	0.326240
2779.22170	0.326680
2777.29303	0.327129
2775.36435	0.327599
2773.43567	0.328079
2771.50700	0.328561
2769.57832	0.329057
2767.64965	0.329555
2765.72097	0.330028
2763.79230	0.330479
2761.86362	0.330927
2759.93494	0.331377
2758.00627	0.331848
2756.07759	0.332362
2754.14892	0.332884
2752.22024	0.333370
2750.29157	0.333801
2748.36289	0.334215
2746.43421	0.334684
2744.50554	0.335186
2742.57686	0.335640
2740.64819	0.336034
2738.71951	0.336437
2736.79084	0.336897
2734.86216	0.337380
2732.93348	0.337837
2731.00481	0.338269
2729.07613	0.338713
2727.14746	0.339184
2725.21878	0.339654
2723.29011	0.340106
2721.36143	0.340559
2719.43275	0.341023
2717.50408	0.341489
2715.57540	0.341943
2713.64673	0.342376
2711.71805	0.342791
2709.78938	0.343226
2707.86070	0.343692
2705.93202	0.344153
2704.00335	0.344599
2702.07467	0.345050
2700.14600	0.345517
2698.21732	0.346002
2696.28865	0.346460
2694.35997	0.346867
2692.43129	0.347269
2690.50262	0.347703
2688.57394	0.348180
2686.64527	0.348665
2684.71659	0.349113
2682.78792	0.349552
2680.85924	0.350000
2678.93056	0.350422
2677.00189	0.350814
2675.07321	0.351224
2673.14454	0.351700
2671.21586	0.352226
2669.28719	0.352720
2667.35851	0.353152
2665.42983	0.353564
2663.50116	0.354007
2661.57248	0.354479
2659.64381	0.354946
2657.71513	0.355424
2655.78646	0.355918
2653.85778	0.356373
2651.92910	0.356788
2650.00043	0.357232
2648.07175	0.357720
2646.14308	0.358199
2644.21440	0.358685
2642.28573	0.359229
2640.35705	0.359765
2638.42837	0.360207
2636.49970	0.360628
2634.57102	0.361143
2632.64235	0.361733
2630.71367	0.362294
2628.78500	0.362771
2626.85632	0.363193
2624.92764	0.363631
2622.99897	0.364136
2621.07029	0.364690
2619.14162	0.365246
2617.21294	0.365808
2615.28427	0.366379
2613.35559	0.366916
2611.42691	0.367399
2609.49824	0.367861
2607.56956	0.368330
2605.64089	0.368792
2603.71221	0.369265
2601.78354	0.369805
2599.85486	0.370395
2597.92618	0.370965
2595.99751	0.371492
2594.06883	0.371996
2592.14016	0.372483
2590.21148	0.372949
2588.28281	0.373395
2586.35413	0.373831
2584.42545	0.374274
2582.49678	0.374750
2580.56810	0.375263
2578.63943	0.375749
2576.71075	0.376202
2574.78208	0.376695
2572.85340	0.377219
2570.92472	0.377702
2568.99605	0.378144
2567.06737	0.378592
2565.13870	0.379050
2563.21002	0.379492
2561.28135	0.379949
2559.35267	0.380467
2557.42399	0.381009
2555.49532	0.381487
2553.56664	0.381886
2551.63797	0.382275
2549.70929	0.382730
2547.78062	0.383239
2545.85194	0.383689
2543.92326	0.384044
2541.99459	0.384418
2540.06591	0.384865
2538.13724	0.385336
2536.20856	0.385786
2534.27989	0.386245
2532.35121	0.386748
2530.42253	0.387250
2528.49386	0.387724
2526.56518	0.388210
2524.63651	0.388711
2522.70783	0.389186
2520.77916	0.389645
2518.85048	0.390131
2516.92181	0.390642
2514.99313	0.391161
2513.06445	0.391675
2511.13578	0.392155
2509.20710	0.392633
2507.27843	0.393186
2505.34975	0.393775
2503.42108	0.394331
2501.49240	0.394888
2499.56372	0.395472
2497.63505	0.396067
2495.70637	0.396648
2493.77770	0.397181
2491.84902	0.397678
2489.92035	0.398191
2487.99167	0.398742
2486.06299	0.399299
2484.13432	0.399827
2482.20564	0.400358
2480.27697	0.400902
2478.34829	0.401428
2476.41962	0.401954
2474.49094	0.402493
2472.56226	0.403029
2470.63359	0.403549
2468.70491	0.404038
2466.77624	0.404539
2464.84756	0.405110
2462.91889	0.405687
2460.99021	0.406179
2459.06153	0.406616
2457.13286	0.407080
2455.20418	0.407593
2453.27551	0.408123
2451.34683	0.408660
2449.41816	0.409195
2447.48948	0.409696
2445.56080	0.410186
2443.63213	0.410712
2441.70345	0.411269
2439.77478	0.411813
2437.84610	0.412315
2435.91743	0.412785
2433.98875	0.413246
2432.06007	0.413723
2430.13140	0.414224
2428.20272	0.414725
2426.27405	0.415225
2424.34537	0.415762
2422.41670	0.416306
2420.48802	0.416801
2418.55934	0.417285
2416.63067	0.417825
2414.70199	0.418397
2412.77332	0.418918
2410.84464	0.419369
2408.91597	0.419814
2406.98729	0.420305
2405.05861	0.420857
2403.12994	0.421443
2401.20126	0.421989
2399.27259	0.422486
2397.34391	0.422971
2395.41524	0.423411
2393.48656	0.423817
2391.55788	0.424286
2389.62921	0.424820
2387.70053	0.425316
2385.77186	0.425703
2383.84318	0.426003
2381.91451	0.426285
2379.98583	0.426537
2378.05715	0.426665
2376.12848	0.426654
2374.19980	0.426644
2372.27113	0.426732
2370.34245	0.426861
2368.41378	0.427001
2366.48510	0.427214
2364.55642	0.427527
2362.62775	0.427928
2360.69907	0.428421
2358.77040	0.429005
2356.84172	0.429682
2354.91305	0.430510
2352.98437	0.431551
2351.05569	0.432663
2349.12702	0.433417
2347.19834	0.433614
2345.26967	0.433627
2343.34099	0.433819
2341.41232	0.434188
2339.48364	0.434659
2337.55496	0.435200
2335.62629	0.435759
2333.69761	0.436268
2331.76894	0.436722
2329.84026	0.437205
2327.91159	0.437775
2325.98291	0.438410
2324.05423	0.439081
2322.12556	0.439792
2320.19688	0.440536
2318.26821	0.441273
2316.33953	0.441978
2314.41086	0.442668
2312.48218	0.443380
2310.55350	0.444109
2308.62483	0.444785
2306.69615	0.445383
2304.76748	0.445975
2302.83880	0.446606
2300.91013	0.447236
2298.98145	0.447850
2297.05277	0.448430
2295.12410	0.448934
2293.19542	0.449414
2291.26675	0.449953
2289.33807	0.450517
2287.40940	0.451043
2285.48072	0.451555
2283.55204	0.452088
2281.62337	0.452586
2279.69469	0.453052
2277.76602	0.453543
2275.83734	0.454042
2273.90867	0.454543
2271.97999	0.455064
2270.05131	0.455585
2268.12264	0.456080
2266.19396	0.456538
2264.26529	0.456979
2262.33661	0.457439
2260.40794	0.457946
2258.47926	0.458481
2256.55058	0.458986
2254.62191	0.459429
2252.69323	0.459896
2250.76456	0.460459
2248.83588	0.461022
2246.90721	0.461505
2244.97853	0.461969
2243.04985	0.462469
2241.12118	0.462968
2239.19250	0.463417
2237.26383	0.463849
2235.33515	0.464306
2233.40648	0.464772
2231.47780	0.465231
2229.54912	0.465725
2227.62045	0.466280
2225.69177	0.466805
2223.76310	0.467277
2221.83442	0.467777
2219.90575	0.468283
2217.97707	0.468724
2216.04839	0.469150
2214.11972	0.469651
2212.19104	0.470175
2210.26237	0.470638
2208.33369	0.471084
2206.40502	0.471534
2204.47634	0.471975
2202.54766	0.472469
2200.61899	0.473009
2198.69031	0.473484
2196.76164	0.473901
2194.83296	0.474343
2192.90429	0.474825
2190.97561	0.475308
2189.04693	0.475741
2187.11826	0.476155
2185.18958	0.476640
2183.26091	0.477178
2181.33223	0.477687
2179.40356	0.478137
2177.47488	0.478568
2175.54620	0.479014
2173.61753	0.479499
2171.68885	0.480046
2169.76018	0.480604
2167.83150	0.481096
2165.90283	0.481547
2163.97415	0.482005
2162.04547	0.482461
2160.11680	0.482929
2158.18812	0.483424
2156.25945	0.483923
2154.33077	0.484423
2152.40210	0.484939
2150.47342	0.485465
2148.54474	0.485990
2146.61607	0.486497
2144.68739	0.486948
2142.75872	0.487371
2140.83004	0.487869
2138.90137	0.488442
2136.97269	0.488962
2135.04401	0.489397
2133.11534	0.489842
2131.18666	0.490340
2129.25799	0.490867
2127.32931	0.491394
2125.40064	0.491862
2123.47196	0.492268
2121.54328	0.492700
2119.61461	0.493183
2117.68593	0.493663
2115.75726	0.494118
2113.82858	0.494572
2111.89991	0.495054
2109.97123	0.495570
2108.04255	0.496095
2106.11388	0.496622
2104.18520	0.497154
2102.25653	0.497660
2100.32785	0.498132
2098.39918	0.498601
2096.47050	0.499073
2094.54182	0.499523
2092.61315	0.499937
2090.68447	0.500367
2088.75580	0.500865
2086.82712	0.501397
2084.89845	0.501917
2082.96977	0.502409
2081.04109	0.502871
2079.11242	0.503317
2077.18374	0.503753
2075.25507	0.504199
2073.32639	0.504667
2071.39772	0.505163
2069.46904	0.505682
2067.54036	0.506138
2065.61169	0.506511
2063.68301	0.506932
2061.75434	0.507444
2059.82566	0.507974
2057.89699	0.508469
2055.96831	0.508912
2054.03963	0.509321
2052.11096	0.509752
2050.18228	0.510244
2048.25361	0.510739
2046.32493	0.511178
2044.39626	0.511600
2042.46758	0.512034
2040.53890	0.512500
2038.61023	0.513012
2036.68155	0.513534
2034.75288	0.514037
2032.82420	0.514513
2030.89553	0.514961
2028.96685	0.515432
2027.03817	0.515944
2025.10950	0.516440
2023.18082	0.516906
2021.25215	0.517377
2019.32347	0.517808
2017.39480	0.518226
2015.46612	0.518789
2013.53744	0.519427
2011.60877	0.519924
2009.68009	0.520342
2007.75142	0.520875
2005.82274	0.521454
2003.89407	0.521915
2001.96539	0.522302
2000.03671	0.522710
1998.10804	0.523162
1996.17936	0.523593
1994.25069	0.523863
1992.32201	0.524124
1990.39334	0.524652
1988.46466	0.525313
1986.53598	0.525868
1984.60731	0.526304
1982.67863	0.526703
1980.74996	0.527134
1978.82128	0.527590
1976.89261	0.528003
1974.96393	0.528349
1973.03525	0.528718
1971.10658	0.529111
1969.17790	0.529397
1967.24923	0.529699
1965.32055	0.530211
1963.39188	0.530791
1961.46320	0.531270
1959.53452	0.531685
1957.60585	0.532076
1955.67717	0.532499
1953.74850	0.532999
1951.81982	0.533507
1949.89115	0.533954
1947.96247	0.534342
1946.03379	0.534631
1944.10512	0.534862
1942.17644	0.535338
1940.24777	0.536097
1938.31909	0.536764
1936.39042	0.537257
1934.46174	0.537728
1932.53306	0.538199
1930.60439	0.538636
1928.67571	0.539062
1926.74704	0.539479
1924.81836	0.539793
1922.88969	0.540062
1920.96101	0.540298
1919.03233	0.540495
1917.10366	0.541049
1915.17498	0.541960
1913.24631	0.542659
1911.31763	0.543028
1909.38896	0.543386
1907.46028	0.543913
1905.53160	0.544482
1903.60293	0.544960
1901.67425	0.545412
1899.74558	0.545849
1897.81690	0.546178
1895.88823	0.546482
1893.95955	0.546887
1892.03087	0.547196
1890.10220	0.547423
1888.17352	0.547966
1886.24485	0.548685
1884.31617	0.549235
1882.38750	0.549734
1880.45882	0.550241
1878.53014	0.550677
1876.60147	0.551119
1874.67279	0.551566
1872.74412	0.551727
1870.81544	0.551506
1868.88677	0.551516
1866.95809	0.552313
1865.02941	0.553467
1863.10074	0.554322
1861.17206	0.554857
1859.24339	0.555314
1857.31471	0.555813
1855.38604	0.556342
1853.45736	0.556848
1851.52868	0.557278
1849.60001	0.557558
1847.67133	0.557449
1845.74266	0.557033
1843.81398	0.557340
1841.88531	0.558692
1839.95663	0.559908
1838.02795	0.560484
1836.09928	0.560951
1834.17060	0.561367
1832.24193	0.561359
1830.31325	0.561257
1828.38458	0.561599
1826.45590	0.562111
1824.52722	0.562745
1822.59855	0.563693
1820.66987	0.564477
1818.74120	0.564870
1816.81252	0.565245
1814.88385	0.565642
1812.95517	0.565840
1811.02649	0.566051
1809.09782	0.566566
1807.16914	0.567190
1805.24047	0.567537
1803.31179	0.567446
1801.38312	0.567341
1799.45444	0.567785
1797.52576	0.568507
1795.59709	0.568727
1793.66841	0.568420
1791.73974	0.568605
1789.81106	0.569682
1787.88239	0.570592
1785.95371	0.570807
1784.02503	0.570979
1782.09636	0.571329
1780.16768	0.571720
1778.23901	0.572181
1776.31033	0.572304
1774.38166	0.571807
1772.45298	0.571387
1770.52430	0.571671
1768.59563	0.572504
1766.66695	0.573587
1764.73828	0.574226
1762.80960	0.574146
1760.88093	0.574221
1758.95225	0.574518
1757.02357	0.574657
1755.09490	0.574646
1753.16622	0.573962
1751.23755	0.572949
1749.30887	0.572830
1747.38020	0.573479
1745.45152	0.573973
1743.52284	0.574054
1741.59417	0.573989
1739.66549	0.574166
1737.73682	0.574179
1735.80814	0.573309
1733.87947	0.572893
1731.95079	0.574171
1730.02211	0.575937
1728.09344	0.577282
1726.16476	0.578180
1724.23609	0.578634
1722.30741	0.578688
1720.37874	0.577941
1718.45006	0.576956
1716.52138	0.577182
1714.59271	0.578619
1712.66403	0.580083
1710.73536	0.580838
1708.80668	0.580740
1706.87801	0.580228
1704.94933	0.579873
1703.02065	0.578986
1701.09198	0.577641
1699.16330	0.577524
1697.23463	0.578375
1695.30595	0.579414
1693.37728	0.580758
1691.44860	0.581423
1689.51992	0.581220
1687.59125	0.580516
1685.66257	0.579210
1683.73390	0.578760
1681.80522	0.580016
1679.87655	0.581404
1677.94787	0.581544
1676.01919	0.580947
1674.09052	0.580753
1672.16184	0.580701
1670.23317	0.580517
1668.30449	0.581209
1666.37582	0.582400
1664.44714	0.582708
1662.51846	0.582695
1660.58979	0.583276
1658.66111	0.583669
1656.73244	0.582476
1654.80376	0.579960
1652.87509	0.579021
1650.94641	0.580527
1649.01773	0.581499
1647.08906	0.581421
1645.16038	0.582333
1643.23171	0.583866
1641.30303	0.584576
1639.37436	0.584137
1637.44568	0.583040
1635.51700	0.582769
1633.58833	0.584054
1631.65965	0.585306
1629.73098	0.585322
1627.80230	0.584751
1625.87363	0.583860
1623.94495	0.582511
1622.01627	0.581522
1620.08760	0.581348
1618.15892	0.581879
1616.23025	0.583636
1614.30157	0.586243
1612.37290	0.588203
1610.44422	0.589210
1608.51554	0.589966
1606.58687	0.590765
1604.65819	0.591473
1602.72952	0.592090
1600.80084	0.592756
1598.87217	0.593365
1596.94349	0.593791
1595.01481	0.594166
1593.08614	0.594642
1591.15746	0.595209
1589.22879	0.595785
1587.30011	0.596298
1585.37144	0.596770
1583.44276	0.597265
1581.51408	0.597647
1579.58541	0.597524
1577.65673	0.596995
1575.72806	0.597211
1573.79938	0.598284
1571.87071	0.598662
1569.94203	0.598445
1568.01335	0.598958
1566.08468	0.599874
1564.15600	0.600247
1562.22733	0.599273
1560.29865	0.597206
1558.36998	0.596615
1556.44130	0.598487
1554.51262	0.600668
1552.58395	0.601845
1550.65527	0.602401
1548.72660	0.602782
1546.79792	0.602676
1544.86925	0.601721
1542.94057	0.600502
1541.01189	0.600062
1539.08322	0.601267
1537.15454	0.603190
1535.22587	0.603891
1533.29719	0.603903
1531.36852	0.604578
1529.43984	0.605157
1527.51116	0.605023
1525.58249	0.604654
1523.65381	0.603849
1521.72514	0.603078
1519.79646	0.603470
1517.86779	0.604525
1515.93911	0.605563
1514.01043	0.606467
1512.08176	0.606631
1510.15308	0.605756
1508.22441	0.604694
1506.29573	0.605256
1504.36706	0.607634
1502.43838	0.609441
1500.50970	0.609430
1498.58103	0.608795
1496.65235	0.608945
1494.72368	0.609813
1492.79500	0.609966
1490.86633	0.609199
1488.93765	0.609068
1487.00897	0.610095
1485.08030	0.611214
1483.15162	0.611629
1481.22295	0.611559
1479.29427	0.611226
1477.36560	0.610373
1475.43692	0.609106
1473.50824	0.608096
1471.57957	0.608087
1469.65089	0.608777
1467.72222	0.608903
1465.79354	0.608503
1463.86487	0.608658
1461.93619	0.608912
1460.00751	0.607787
1458.07884	0.606106
1456.15016	0.606471
1454.22149	0.608773
1452.29281	0.610615
1450.36414	0.611215
1448.43546	0.611405
1446.50678	0.611903
1444.57811	0.612598
1442.64943	0.613101
1440.72076	0.613069
1438.79208	0.612126
1436.86341	0.611373
1434.93473	0.612135
1433.00605	0.613266
1431.07738	0.613575
1429.14870	0.613706
1427.22003	0.613859
1425.29135	0.613659
1423.36268	0.613211
1421.43400	0.612260
1419.50532	0.611242
1417.57665	0.611552
1415.64797	0.612755
1413.71930	0.613411
1411.79062	0.613489
1409.86195	0.613505
1407.93327	0.613383
1406.00459	0.613061
1404.07592	0.612975
1402.14724	0.612946
1400.21857	0.612479
1398.28989	0.611933
1396.36122	0.611658
1394.43254	0.611858
1392.50386	0.612502
1390.57519	0.612519
1388.64651	0.611442
1386.71784	0.610419
1384.78916	0.610226
1382.86049	0.610553
1380.93181	0.610997
1379.00313	0.611214
1377.07446	0.610947
1375.14578	0.610551
1373.21711	0.610684
1371.28843	0.611142
1369.35976	0.611308
1367.43108	0.611236
1365.50240	0.610872
1363.57373	0.610263
1361.64505	0.610179
1359.71638	0.610785
1357.78770	0.611383
1355.85903	0.611654
1353.93035	0.611841
1352.00167	0.612076
1350.07300	0.612284
1348.14432	0.612496
1346.21565	0.612778
1344.28697	0.613024
1342.35830	0.612954
1340.42962	0.612604
1338.50094	0.612490
1336.57227	0.612814
1334.64359	0.613256
1332.71492	0.613507
1330.78624	0.613478
1328.85757	0.613263
1326.92889	0.613013
1325.00021	0.612802
1323.07154	0.612607
1321.14286	0.612343
1319.21419	0.612030
1317.28551	0.611791
1315.35684	0.611609
1313.42816	0.611356
1311.49948	0.611007
1309.57081	0.610550
1307.64213	0.609966
1305.71346	0.609313
1303.78478	0.608653
1301.85611	0.608008
1299.92743	0.607371
1297.99875	0.606772
1296.07008	0.606258
1294.14140	0.605748
1292.21273	0.605080
1290.28405	0.604186
1288.35538	0.603204
1286.42670	0.602296
1284.49802	0.601402
1282.56935	0.600376
1280.64067	0.599224
1278.71200	0.598036
1276.78332	0.596728
1274.85465	0.595088
1272.92597	0.593071
1270.99729	0.590679
1269.06862	0.587767
1267.13994	0.584459
1265.21127	0.581394
1263.28259	0.579162
1261.35392	0.577928
1259.42524	0.577530
1257.49656	0.577573
1255.56789	0.577571
1253.63921	0.577167
1251.71054	0.576244
1249.78186	0.574932
1247.85319	0.573438
1245.92451	0.571787
1243.99583	0.569970
1242.06716	0.568099
1240.13848	0.566216
1238.20981	0.564345
1236.28113	0.562474
1234.35246	0.560504
1232.42378	0.558507
1230.49510	0.556605
1228.56643	0.554798
1226.63775	0.553071
1224.70908	0.551399
1222.78040	0.549727
1220.85173	0.548030
1218.92305	0.546340
1216.99437	0.544640
1215.06570	0.542894
1213.13702	0.541171
1211.20835	0.539539
1209.27967	0.537970
1207.35100	0.536383
1205.42232	0.534751
1203.49364	0.533138
1201.56497	0.531595
1199.63629	0.530101
1197.70762	0.528545
1195.77894	0.526842
1193.85027	0.525077
1191.92159	0.523340
1189.99291	0.521580
1188.06424	0.519682
1186.13556	0.517576
1184.20689	0.515298
1182.27821	0.512968
1180.34954	0.510687
1178.42086	0.508453
1176.49218	0.506158
1174.56351	0.503737
1172.63483	0.501251
1170.70616	0.498742
1168.77748	0.496224
1166.84881	0.493711
1164.92013	0.491182
1162.99145	0.488685
1161.06278	0.486255
1159.13410	0.483872
1157.20543	0.481623
1155.27675	0.479574
1153.34808	0.477605
1151.41940	0.475638
1149.49072	0.473762
1147.56205	0.471991
1145.63337	0.470215
1143.70470	0.468409
1141.77602	0.466601
1139.84735	0.464768
1137.91867	0.462934
1135.98999	0.461097
1134.06132	0.459126
1132.13264	0.456971
1130.20397	0.454785
1128.27529	0.452658
1126.34662	0.450506
1124.41794	0.448277
1122.48926	0.446013
1120.56059	0.443658
1118.63191	0.441141
1116.70324	0.438600
1114.77456	0.436202
1112.84589	0.433859
1110.91721	0.431419
1108.98853	0.428923
1107.05986	0.426492
1105.13118	0.424155
1103.20251	0.421876
1101.27383	0.419673
1099.34516	0.417600
1097.41648	0.415636
1095.48780	0.413748
1093.55913	0.411924
1091.63045	0.410141
1089.70178	0.408390
1087.77310	0.406650
1085.84443	0.404927
1083.91575	0.403257
1081.98707	0.401643
1080.05840	0.400141
1078.12972	0.398809
1076.20105	0.397604
1074.27237	0.396537
1072.34370	0.395733
1070.41502	0.395202
1068.48634	0.394853
1066.55767	0.394662
1064.62899	0.394662
1062.70032	0.394868
1060.77164	0.395203
1058.84297	0.395570
1056.91429	0.396008
1054.98561	0.396596
1053.05694	0.397315
1051.12826	0.398096
1049.19959	0.398911
1047.27091	0.399837
1045.34224	0.400990
1043.41356	0.402320
1041.48488	0.403625
1039.55621	0.404831
1037.62753	0.406040
1035.69886	0.407309
1033.77018	0.408566
1031.84151	0.409740
1029.91283	0.410913
1027.98415	0.412191
1026.05548	0.413506
1024.12680	0.414805
1022.19813	0.416204
1020.26945	0.417795
1018.34078	0.419569
1016.41210	0.421521
1014.48342	0.423640
1012.55475	0.425902
1010.62607	0.428287
1008.69740	0.430711
1006.76872	0.433065
1004.84005	0.435239
1002.91137	0.437182
1000.98269	0.439000
999.05402	0.440755
997.12534	0.442326
995.19667	0.443687
993.26799	0.444962
991.33932	0.446207
989.41064	0.447440
987.48196	0.448694
985.55329	0.449943
983.62461	0.451068
981.69594	0.451957
979.76726	0.452642
977.83859	0.453140
975.90991	0.453431
973.98123	0.453653
972.05256	0.453875
970.12388	0.453982
968.19521	0.453878
966.26653	0.453562
964.33786	0.453190
962.40918	0.452830
960.48050	0.452337
958.55183	0.451716
956.62315	0.451089
954.69448	0.450405
952.76580	0.449595
950.83713	0.448708
948.90845	0.447741
946.97977	0.446626
945.05110	0.445392
943.12242	0.444103
941.19375	0.442772
939.26507	0.441441
937.33640	0.440126
935.40772	0.438779
933.47904	0.437419
931.55037	0.436030
929.62169	0.434559
927.69302	0.433097
925.76434	0.431633
923.83567	0.430065
921.90699	0.428527
919.97831	0.427081
918.04964	0.425546
916.12096	0.423906
914.19229	0.422312
912.26361	0.420733
910.33494	0.419076
908.40626	0.417419
906.47758	0.415805
904.54891	0.414175
902.62023	0.412524
900.69156	0.410863
898.76288	0.409196
896.83421	0.407527
894.90553	0.405827
892.97685	0.404083
891.04818	0.402368
889.11950	0.400735
887.19083	0.399132
885.26215	0.397610
883.33348	0.396218
881.40480	0.394783
879.47612	0.393234
877.54745	0.391748
875.61877	0.390400
873.69010	0.389048
871.76142	0.387629
869.83275	0.386208
867.90407	0.384792
865.97539	0.383363
864.04672	0.381986
862.11804	0.380689
860.18937	0.379326
858.26069	0.377841
856.33202	0.376419
854.40334	0.375096
852.47466	0.373767
850.54599	0.372443
848.61731	0.371088
846.68864	0.369685
844.75996	0.368358
842.83129	0.367131
840.90261	0.365883
838.97394	0.364599
837.04526	0.363330
835.11658	0.362025
833.18791	0.360692
831.25923	0.359371
829.33056	0.357917
827.40188	0.356242
825.47321	0.354491
823.54453	0.352836
821.61585	0.351380
819.68718	0.350139
817.75850	0.348950
815.82983	0.347623
813.90115	0.346204
811.97248	0.344830
810.04380	0.343514
808.11512	0.342235
806.18645	0.340978
804.25777	0.339669
802.32910	0.338377
800.40042	0.337322
798.47175	0.336586
796.54307	0.336113
794.61439	0.335834
792.68572	0.335664
790.75704	0.335562
788.82837	0.335410
786.89969	0.335050
784.97102	0.334604
783.04234	0.334227
781.11366	0.333828
779.18499	0.333339
777.25631	0.332833
775.32764	0.332399
773.39896	0.332033
771.47029	0.331579
769.54161	0.330907
767.61293	0.330067
765.68426	0.329182
763.75558	0.328326
761.82691	0.327479
759.89823	0.326574
757.96956	0.325540
756.04088	0.324305
754.11220	0.322920
752.18353	0.321537
750.25485	0.320255
748.32618	0.319063
746.39750	0.317896
744.46883	0.316763
742.54015	0.315645
740.61147	0.314422
738.68280	0.313151
736.75412	0.312034
734.82545	0.311100
732.89677	0.310205
730.96810	0.309233
729.03942	0.308168
727.11074	0.307082
725.18207	0.306032
723.25339	0.304997
721.32472	0.303930
719.39604	0.302819
717.46737	0.301678
715.53869	0.300538
713.61001	0.299478
711.68134	0.298465
709.75266	0.297377
707.82399	0.296245
705.89531	0.295166
703.96664	0.294148
702.03796	0.293128
700.10928	0.292064
698.18061	0.290965
696.25193	0.289808
694.32326	0.288644
692.39458	0.287568
690.46591	0.286420
688.53723	0.285025
686.60855	0.283583
684.67988	0.282327
682.75120	0.281153
680.82253	0.279861
678.89385	0.278373
676.96518	0.276685
675.03650	0.274889
673.10782	0.273048
671.17915	0.270789
669.25047	0.268038
667.32180	0.265710
665.39312	0.264071
663.46445	0.262239
661.53577	0.259937
659.60709	0.257624
657.67842	0.255482
655.74974	0.253389
653.82107	0.251254
651.89239	0.249068
649.96372	0.246865
648.03504	0.244609
646.10636	0.242177
644.17769	0.239594
642.24901	0.236947
640.32034	0.234197
638.39166	0.231262
636.46299	0.228167
634.53431	0.225114
632.60563	0.222226
630.67696	0.219406
628.74828	0.216575
626.81961	0.213740
624.89093	0.210956
622.96226	0.208277
621.03358	0.205638
619.10490	0.202918
617.17623	0.200076
615.24755	0.197091
613.31888	0.193947
611.39020	0.190739
609.46153	0.187675
607.53285	0.184914
605.60417	0.182365
603.67550	0.179854
601.74682	0.177379
599.81815	0.174967
597.88947	0.172704
595.96080	0.170717
594.03212	0.168907
592.10344	0.167103
590.17477	0.165263
588.24609	0.163368
586.31742	0.161500
584.38874	0.159732
582.46007	0.157942
580.53139	0.156065
578.60271	0.154207
576.67404	0.152433
574.74536	0.150730
572.81669	0.149134
570.88801	0.147657
568.95934	0.146191
567.03066	0.144688
565.10198	0.143251
563.17331	0.141928
561.24463	0.140622
559.31596	0.139292
557.38728	0.137961
555.45861	0.136610
553.52993	0.135360
551.60125	0.134359
549.67258	0.133392
547.74390	0.132234
545.81523	0.131052
543.88655	0.130038
541.95788	0.129129
540.02920	0.128157
538.10052	0.127095
536.17185	0.126148
534.24317	0.125335
532.31450	0.124346
530.38582	0.123124
528.45715	0.121876
526.52847	0.120600
524.59979	0.119184
522.67112	0.117634
520.74244	0.116111
518.81377	0.114817
516.88509	0.113752
514.95642	0.112705
513.02774	0.111501
511.09906	0.110191
509.17039	0.108839
507.24171	0.107358
505.31304	0.105787
503.38436	0.104237
501.45569	0.102599
499.52701	0.100667
497.59833	0.098484
495.66966	0.096338
493.74098	0.094381
491.81231	0.092582
489.88363	0.090871
487.95496	0.089150
486.02628	0.087354
484.09760	0.085425
482.16893	0.083352
480.24025	0.081248
478.31158	0.079176
476.38290	0.077184
474.45423	0.075359
472.52555	0.073698
470.59687	0.072202
468.66820	0.070932
466.73952	0.069915
464.81085	0.069099
462.88217	0.068431
460.95350	0.067899
459.02482	0.067471
457.09614	0.067174
455.16747	0.067130
453.23879	0.067272
451.31012	0.067297
449.38144	0.067013
447.45277	0.066516
445.52409	0.065958
443.59541	0.065314
441.66674	0.064548
439.73806	0.063700
437.80939	0.062737
435.88071	0.061558
433.95204	0.060098
432.02336	0.058416
430.09468	0.056675
428.16601	0.054944
426.23733	0.053104
424.30866	0.051132
422.37998	0.049108
420.45131	0.046995
418.52263	0.044926
416.59395	0.043102
414.66528	0.041341
412.73660	0.039440
410.80793	0.037465
408.87925	0.035547
406.95058	0.033720
405.02190	0.031908
403.09322	0.030079
401.16455	0.028209
399.23587	0.026301
397.30720	0.024572
395.37852	0.023098
393.44985	0.021683
391.52117	0.020337
389.59249	0.019180
387.66382	0.018072
385.73514	0.016778
383.80647	0.015319
381.87779	0.014006
379.94912	0.013040
378.02044	0.012184
376.09176	0.011116
374.16309	0.009925
372.23441	0.008805
370.30574	0.007766
368.37706	0.006900
