7496.76250	0.00108
7494.83382	0.00108
7492.90514	0.00108
7490.97647	0.00108
7489.04779	0.00108
7487.11912	0.00108
7485.19044	0.00108
7483.26177	0.00108
7481.33309	0.00108
7479.40441	0.00108
7477.47574	0.00109
7475.54706	0.00109
7473.61839	0.00110
7471.68971	0.00111
7469.76104	0.00112
7467.83236	0.00110
7465.90368	0.00109
7463.97501	0.00110
7462.04633	0.00111
7460.11766	0.00111
7458.18898	0.00111
7456.26031	0.00112
7454.33163	0.00114
7452.40295	0.00116
7450.47428	0.00116
7448.54560	0.00116
7446.61693	0.00117
7444.68825	0.00117
7442.75958	0.00118
7440.83090	0.00118
7438.90222	0.00118
7436.97355	0.00117
7435.04487	0.00117
7433.11620	0.00117
7431.18752	0.00117
7429.25885	0.00117
7427.33017	0.00119
7425.40149	0.00120
7423.47282	0.00121
7421.54414	0.00122
7419.61547	0.00122
7417.68679	0.00121
7415.75812	0.00120
7413.82944	0.00119
7411.90076	0.00120
7409.97209	0.00121
7408.04341	0.00122
7406.11474	0.00122
7404.18606	0.00121
7402.25739	0.00123
7400.32871	0.00124
7398.40003	0.00125
7396.47136	0.00124
7394.54268	0.00124
7392.61401	0.00124
7390.68533	0.00124
7388.75666	0.00126
7386.82798	0.00129
7384.89930	0.00130
7382.97063	0.00129
7381.04195	0.00126
7379.11328	0.00126
7377.18460	0.00128
7375.25593	0.00128
7373.32725	0.00127
7371.39857	0.00127
7369.46990	0.00129
7367.54122	0.00130
7365.61255	0.00131
7363.68387	0.00131
7361.75520	0.00130
7359.82652	0.00129
7357.89784	0.00129
7355.96917	0.00128
7354.04049	0.00129
7352.11182	0.00128
7350.18314	0.00129
7348.25447	0.00129
7346.32579	0.00129
7344.39711	0.00129
7342.46844	0.00131
7340.53976	0.00133
7338.61109	0.00133
7336.68241	0.00134
7334.75374	0.00134
7332.82506	0.00135
7330.89638	0.00135
7328.96771	0.00134
7327.03903	0.00133
7325.11036	0.00133
7323.18168	0.00134
7321.25301	0.00134
7319.32433	0.00134
7317.39565	0.00135
7315.46698	0.00137
7313.53830	0.00138
7311.60963	0.00138
7309.68095	0.00138
7307.75228	0.00138
7305.82360	0.00138
7303.89492	0.00138
7301.96625	0.00138
7300.03757	0.00139
7298.10890	0.00139
7296.18022	0.00140
7294.25155	0.00141
7292.32287	0.00141
7290.39419	0.00140
7288.46552	0.00140
7286.53684	0.00141
7284.60817	0.00142
7282.67949	0.00142
7280.75082	0.00141
7278.82214	0.00140
7276.89346	0.00140
7274.96479	0.00141
7273.03611	0.00141
7271.10744	0.00142
7269.17876	0.00144
7267.25009	0.00145
7265.32141	0.00146
7263.39273	0.00145
7261.46406	0.00145
7259.53538	0.00145
7257.60671	0.00146
7255.67803	0.00148
7253.74936	0.00150
7251.82068	0.00151
7249.89200	0.00151
7247.96333	0.00151
7246.03465	0.00151
7244.10598	0.00150
7242.17730	0.00148
7240.24863	0.00148
7238.31995	0.00148
7236.39127	0.00148
7234.46260	0.00148
7232.53392	0.00149
7230.60525	0.00150
7228.67657	0.00152
7226.74790	0.00152
7224.81922	0.00150
7222.89054	0.00150
7220.96187	0.00151
7219.03319	0.00153
7217.10452	0.00154
7215.17584	0.00153
7213.24717	0.00154
7211.31849	0.00155
7209.38981	0.00155
7207.46114	0.00155
7205.53246	0.00155
7203.60379	0.00156
7201.67511	0.00157
7199.74644	0.00158
7197.81776	0.00158
7195.88908	0.00158
7193.96041	0.00158
7192.03173	0.00156
7190.10306	0.00155
7188.17438	0.00155
7186.24571	0.00157
7184.31703	0.00159
7182.38835	0.00160
7180.45968	0.00160
7178.53100	0.00160
7176.60233	0.00161
7174.67365	0.00162
7172.74498	0.00162
7170.81630	0.00162
7168.88762	0.00161
7166.95895	0.00161
7165.03027	0.00162
7163.10160	0.00163
7161.17292	0.00163
7159.24425	0.00164
7157.31557	0.00165
7155.38689	0.00165
7153.45822	0.00165
7151.52954	0.00165
7149.60087	0.00166
7147.67219	0.00166
7145.74352	0.00166
7143.81484	0.00166
7141.88616	0.00168
7139.95749	0.00169
7138.02881	0.00169
7136.10014	0.00168
7134.17146	0.00169
7132.24279	0.00169
7130.31411	0.00169
7128.38543	0.00169
7126.45676	0.00170
7124.52808	0.00171
7122.59941	0.00173
7120.67073	0.00175
7118.74206	0.00174
7116.81338	0.00172
7114.88470	0.00171
7112.95603	0.00171
7111.02735	0.00172
7109.09868	0.00174
7107.17000	0.00176
7105.24133	0.00177
7103.31265	0.00176
7101.38397	0.00175
7099.45530	0.00174
7097.52662	0.00175
7095.59795	0.00177
7093.66927	0.00178
7091.74060	0.00178
7089.81192	0.00177
7087.88324	0.00175
7085.95457	0.00175
7084.02589	0.00177
7082.09722	0.00179
7080.16854	0.00180
7078.23987	0.00181
7076.31119	0.00181
7074.38251	0.00180
7072.45384	0.00180
7070.52516	0.00182
7068.59649	0.00183
7066.66781	0.00183
7064.73914	0.00183
7062.81046	0.00185
7060.88178	0.00186
7058.95311	0.00186
7057.02443	0.00185
7055.09576	0.00183
7053.16708	0.00182
7051.23841	0.00183
7049.30973	0.00185
7047.38105	0.00187
7045.45238	0.00188
7043.52370	0.00190
7041.59503	0.00190
7039.66635	0.00190
7037.73768	0.00189
7035.80900	0.00190
7033.88032	0.00190
7031.95165	0.00191
7030.02297	0.00192
7028.09430	0.00192
7026.16562	0.00191
7024.23695	0.00191
7022.30827	0.00193
7020.37959	0.00193
7018.45092	0.00194
7016.52224	0.00195
7014.59357	0.00195
7012.66489	0.00195
7010.73622	0.00195
7008.80754	0.00195
7006.87886	0.00197
7004.95019	0.00198
7003.02151	0.00197
7001.09284	0.00196
6999.16416	0.00195
6997.23549	0.00195
6995.30681	0.00196
6993.37813	0.00197
6991.44946	0.00199
6989.52078	0.00199
6987.59211	0.00199
6985.66343	0.00199
6983.73476	0.00199
6981.80608	0.00200
6979.87740	0.00201
6977.94873	0.00201
6976.02005	0.00202
6974.09138	0.00204
6972.16270	0.00204
6970.23403	0.00203
6968.30535	0.00203
6966.37667	0.00204
6964.44800	0.00204
6962.51932	0.00205
6960.59065	0.00207
6958.66197	0.00209
6956.73330	0.00209
6954.80462	0.00208
6952.87594	0.00208
6950.94727	0.00207
6949.01859	0.00208
6947.08992	0.00210
6945.16124	0.00209
6943.23257	0.00208
6941.30389	0.00209
6939.37521	0.00210
6937.44654	0.00210
6935.51786	0.00211
6933.58919	0.00211
6931.66051	0.00212
6929.73184	0.00213
6927.80316	0.00213
6925.87448	0.00214
6923.94581	0.00215
6922.01713	0.00215
6920.08846	0.00214
6918.15978	0.00213
6916.23111	0.00214
6914.30243	0.00215
6912.37375	0.00216
6910.44508	0.00217
6908.51640	0.00217
6906.58773	0.00217
6904.65905	0.00218
6902.73038	0.00218
6900.80170	0.00216
6898.87302	0.00215
6896.94435	0.00217
6895.01567	0.00219
6893.08700	0.00221
6891.15832	0.00222
6889.22965	0.00223
6887.30097	0.00223
6885.37229	0.00223
6883.44362	0.00224
6881.51494	0.00226
6879.58627	0.00226
6877.65759	0.00226
6875.72892	0.00225
6873.80024	0.00224
6871.87156	0.00225
6869.94289	0.00226
6868.01421	0.00227
6866.08554	0.00228
6864.15686	0.00229
6862.22819	0.00230
6860.29951	0.00229
6858.37083	0.00229
6856.44216	0.00229
6854.51348	0.00229
6852.58481	0.00230
6850.65613	0.00231
6848.72746	0.00232
6846.79878	0.00233
6844.87010	0.00234
6842.94143	0.00234
6841.01275	0.00233
6839.08408	0.00233
6837.15540	0.00234
6835.22673	0.00234
6833.29805	0.00234
6831.36937	0.00235
6829.44070	0.00235
6827.51202	0.00235
6825.58335	0.00235
6823.65467	0.00236
6821.72600	0.00238
6819.79732	0.00239
6817.86864	0.00239
6815.93997	0.00239
6814.01129	0.00240
6812.08262	0.00241
6810.15394	0.00242
6808.22527	0.00243
6806.29659	0.00245
6804.36791	0.00245
6802.43924	0.00244
6800.51056	0.00243
6798.58189	0.00245
6796.65321	0.00248
6794.72454	0.00248
6792.79586	0.00248
6790.86718	0.00248
6788.93851	0.00248
6787.00983	0.00249
6785.08116	0.00250
6783.15248	0.00251
6781.22381	0.00250
6779.29513	0.00251
6777.36645	0.00251
6775.43778	0.00251
6773.50910	0.00251
6771.58043	0.00253
6769.65175	0.00254
6767.72308	0.00255
6765.79440	0.00255
6763.86572	0.00255
6761.93705	0.00254
6760.00837	0.00253
6758.07970	0.00254
6756.15102	0.00256
6754.22235	0.00258
6752.29367	0.00257
6750.36499	0.00257
6748.43632	0.00258
6746.50764	0.00261
6744.57897	0.00263
6742.65029	0.00263
6740.72162	0.00262
6738.79294	0.00262
6736.86426	0.00261
6734.93559	0.00261
6733.00691	0.00261
6731.07824	0.00261
6729.14956	0.00263
6727.22089	0.00264
6725.29221	0.00266
6723.36353	0.00268
6721.43486	0.00269
6719.50618	0.00270
6717.57751	0.00272
6715.64883	0.00272
6713.72016	0.00270
6711.79148	0.00269
6709.86280	0.00268
6707.93413	0.00269
6706.00545	0.00270
6704.07678	0.00271
6702.14810	0.00272
6700.21943	0.00273
6698.29075	0.00273
6696.36207	0.00273
6694.43340	0.00273
6692.50472	0.00273
6690.57605	0.00273
6688.64737	0.00273
6686.71870	0.00275
6684.79002	0.00277
6682.86134	0.00278
6680.93267	0.00278
6679.00399	0.00278
6677.07532	0.00278
6675.14664	0.00279
6673.21797	0.00279
6671.28929	0.00280
6669.36061	0.00280
6667.43194	0.00281
6665.50326	0.00283
6663.57459	0.00285
6661.64591	0.00286
6659.71724	0.00286
6657.78856	0.00286
6655.85988	0.00286
6653.93121	0.00286
6652.00253	0.00286
6650.07386	0.00286
6648.14518	0.00288
6646.21651	0.00289
6644.28783	0.00290
6642.35915	0.00290
6640.43048	0.00289
6638.50180	0.00289
6636.57313	0.00291
6634.64445	0.00292
6632.71578	0.00293
6630.78710	0.00293
6628.85842	0.00294
6626.92975	0.00294
6625.00107	0.00294
6623.07240	0.00294
6621.14372	0.00294
6619.21505	0.00295
6617.28637	0.00296
6615.35769	0.00297
6613.42902	0.00298
6611.50034	0.00299
6609.57167	0.00301
6607.64299	0.00302
6605.71432	0.00303
6603.78564	0.00304
6601.85696	0.00304
6599.92829	0.00304
6597.99961	0.00304
6596.07094	0.00304
6594.14226	0.00303
6592.21359	0.00304
6590.28491	0.00306
6588.35623	0.00308
6586.42756	0.00310
6584.49888	0.00310
6582.57021	0.00311
6580.64153	0.00311
6578.71286	0.00312
6576.78418	0.00313
6574.85550	0.00312
6572.92683	0.00311
6570.99815	0.00312
6569.06948	0.00313
6567.14080	0.00314
6565.21213	0.00314
6563.28345	0.00315
6561.35477	0.00317
6559.42610	0.00318
6557.49742	0.00319
6555.56875	0.00320
6553.64007	0.00320
6551.71140	0.00321
6549.78272	0.00321
6547.85404	0.00321
6545.92537	0.00321
6543.99669	0.00322
6542.06802	0.00324
6540.13934	0.00325
6538.21067	0.00324
6536.28199	0.00325
6534.35331	0.00327
6532.42464	0.00328
6530.49596	0.00328
6528.56729	0.00328
6526.63861	0.00328
6524.70994	0.00328
6522.78126	0.00328
6520.85258	0.00328
6518.92391	0.00329
6516.99523	0.00329
6515.06656	0.00330
6513.13788	0.00331
6511.20921	0.00332
6509.28053	0.00333
6507.35185	0.00334
6505.42318	0.00336
6503.49450	0.00336
6501.56583	0.00335
6499.63715	0.00336
6497.70848	0.00338
6495.77980	0.00340
6493.85112	0.00340
6491.92245	0.00339
6489.99377	0.00340
6488.06510	0.00341
6486.13642	0.00343
6484.20775	0.00344
6482.27907	0.00344
6480.35039	0.00345
6478.42172	0.00346
6476.49304	0.00346
6474.56437	0.00347
6472.63569	0.00348
6470.70702	0.00350
6468.77834	0.00351
6466.84966	0.00351
6464.92099	0.00352
6462.99231	0.00353
6461.06364	0.00353
6459.13496	0.00352
6457.20629	0.00351
6455.27761	0.00351
6453.34893	0.00350
6451.42026	0.00352
6449.49158	0.00354
6447.56291	0.00357
6445.63423	0.00359
6443.70556	0.00360
6441.77688	0.00361
6439.84820	0.00363
6437.91953	0.00364
6435.99085	0.00363
6434.06218	0.00363
6432.13350	0.00364
6430.20483	0.00365
6428.27615	0.00364
6426.34747	0.00364
6424.41880	0.00365
6422.49012	0.00366
6420.56145	0.00368
6418.63277	0.00369
6416.70410	0.00370
6414.77542	0.00371
6412.84674	0.00371
6410.91807	0.00372
6408.98939	0.00374
6407.06072	0.00375
6405.13204	0.00376
6403.20337	0.00376
6401.27469	0.00377
6399.34601	0.00378
6397.41734	0.00379
6395.48866	0.00379
6393.55999	0.00377
6391.63131	0.00376
6389.70264	0.00378
6387.77396	0.00381
6385.84528	0.00381
6383.91661	0.00381
6381.98793	0.00381
6380.05926	0.00382
6378.13058	0.00383
6376.20191	0.00385
6374.27323	0.00387
6372.34455	0.00388
6370.41588	0.00388
6368.48720	0.00388
6366.55853	0.00388
6364.62985	0.00389
6362.70118	0.00390
6360.77250	0.00392
6358.84382	0.00393
6356.91515	0.00393
6354.98647	0.00394
6353.05780	0.00395
6351.12912	0.00397
6349.20045	0.00398
6347.27177	0.00399
6345.34309	0.00399
6343.41442	0.00399
6341.48574	0.00400
6339.55707	0.00402
6337.62839	0.00403
6335.69972	0.00403
6333.77104	0.00401
6331.84236	0.00401
6329.91369	0.00403
6327.98501	0.00405
6326.05634	0.00408
6324.12766	0.00409
6322.19899	0.00409
6320.27031	0.00408
6318.34163	0.00407
6316.41296	0.00408
6314.48428	0.00411
6312.55561	0.00414
6310.62693	0.00415
6308.69826	0.00416
6306.76958	0.00415
6304.84090	0.00415
6302.91223	0.00416
6300.98355	0.00417
6299.05488	0.00419
6297.12620	0.00420
6295.19753	0.00421
6293.26885	0.00422
6291.34017	0.00422
6289.41150	0.00423
6287.48282	0.00424
6285.55415	0.00423
6283.62547	0.00422
6281.69680	0.00422
6279.76812	0.00425
6277.83944	0.00428
6275.91077	0.00429
6273.98209	0.00429
6272.05342	0.00430
6270.12474	0.00430
6268.19607	0.00431
6266.26739	0.00432
6264.33871	0.00433
6262.41004	0.00433
6260.48136	0.00433
6258.55269	0.00433
6256.62401	0.00434
6254.69534	0.00438
6252.76666	0.00440
6250.83798	0.00441
6248.90931	0.00441
6246.98063	0.00442
6245.05196	0.00443
6243.12328	0.00443
6241.19461	0.00444
6239.26593	0.00446
6237.33725	0.00448
6235.40858	0.00448
6233.47990	0.00448
6231.55123	0.00449
6229.62255	0.00451
6227.69388	0.00452
6225.76520	0.00453
6223.83652	0.00454
6221.90785	0.00455
6219.97917	0.00457
6218.05050	0.00459
6216.12182	0.00459
6214.19315	0.00460
6212.26447	0.00461
6210.33579	0.00462
6208.40712	0.00462
6206.47844	0.00463
6204.54977	0.00463
6202.62109	0.00464
6200.69242	0.00466
6198.76374	0.00468
6196.83506	0.00470
6194.90639	0.00471
6192.97771	0.00470
6191.04904	0.00471
6189.12036	0.00473
6187.19169	0.00474
6185.26301	0.00474
6183.33433	0.00474
6181.40566	0.00473
6179.47698	0.00475
6177.54831	0.00477
6175.61963	0.00480
6173.69096	0.00482
6171.76228	0.00484
6169.83360	0.00484
6167.90493	0.00483
6165.97625	0.00482
6164.04758	0.00483
6162.11890	0.00484
6160.19023	0.00486
6158.26155	0.00488
6156.33287	0.00491
6154.40420	0.00494
6152.47552	0.00494
6150.54685	0.00494
6148.61817	0.00494
6146.68950	0.00493
6144.76082	0.00493
6142.83214	0.00495
6140.90347	0.00497
6138.97479	0.00497
6137.04612	0.00498
6135.11744	0.00500
6133.18877	0.00502
6131.26009	0.00502
6129.33141	0.00501
6127.40274	0.00501
6125.47406	0.00503
6123.54539	0.00506
6121.61671	0.00507
6119.68804	0.00508
6117.75936	0.00509
6115.83068	0.00510
6113.90201	0.00512
6111.97333	0.00514
6110.04466	0.00515
6108.11598	0.00514
6106.18731	0.00514
6104.25863	0.00515
6102.32995	0.00516
6100.40128	0.00516
6098.47260	0.00516
6096.54393	0.00517
6094.61525	0.00518
6092.68658	0.00521
6090.75790	0.00525
6088.82922	0.00527
6086.90055	0.00527
6084.97187	0.00527
6083.04320	0.00527
6081.11452	0.00528
6079.18585	0.00529
6077.25717	0.00531
6075.32849	0.00532
6073.39982	0.00533
6071.47114	0.00534
6069.54247	0.00534
6067.61379	0.00534
6065.68512	0.00536
6063.75644	0.00540
6061.82776	0.00543
6059.89909	0.00543
6057.97041	0.00541
6056.04174	0.00540
6054.11306	0.00541
6052.18439	0.00542
6050.25571	0.00544
6048.32703	0.00546
6046.39836	0.00549
6044.46968	0.00550
6042.54101	0.00550
6040.61233	0.00551
6038.68366	0.00553
6036.75498	0.00554
6034.82630	0.00555
6032.89763	0.00556
6030.96895	0.00557
6029.04028	0.00559
6027.11160	0.00559
6025.18293	0.00561
6023.25425	0.00562
6021.32557	0.00563
6019.39690	0.00565
6017.46822	0.00567
6015.53955	0.00569
6013.61087	0.00569
6011.68220	0.00569
6009.75352	0.00570
6007.82484	0.00571
6005.89617	0.00573
6003.96749	0.00575
6002.03882	0.00577
6000.11014	0.00578
5998.18147	0.00579
5996.25279	0.00578
5994.32411	0.00580
5992.39544	0.00583
5990.46676	0.00584
5988.53809	0.00584
5986.60941	0.00584
5984.68074	0.00585
5982.75206	0.00587
5980.82338	0.00589
5978.89471	0.00589
5976.96603	0.00589
5975.03736	0.00590
5973.10868	0.00593
5971.18001	0.00596
5969.25133	0.00598
5967.32265	0.00598
5965.39398	0.00599
5963.46530	0.00599
5961.53663	0.00600
5959.60795	0.00603
5957.67928	0.00605
5955.75060	0.00605
5953.82192	0.00604
5951.89325	0.00605
5949.96457	0.00607
5948.03590	0.00608
5946.10722	0.00611
5944.17855	0.00614
5942.24987	0.00615
5940.32119	0.00614
5938.39252	0.00614
5936.46384	0.00616
5934.53517	0.00619
5932.60649	0.00621
5930.67782	0.00621
5928.74914	0.00622
5926.82046	0.00624
5924.89179	0.00626
5922.96311	0.00625
5921.03444	0.00625
5919.10576	0.00626
5917.17709	0.00627
5915.24841	0.00629
5913.31973	0.00630
5911.39106	0.00632
5909.46238	0.00635
5907.53371	0.00637
5905.60503	0.00637
5903.67636	0.00637
5901.74768	0.00638
5899.81900	0.00640
5897.89033	0.00642
5895.96165	0.00645
5894.03298	0.00647
5892.10430	0.00647
5890.17563	0.00646
5888.24695	0.00648
5886.31827	0.00650
5884.38960	0.00652
5882.46092	0.00654
5880.53225	0.00654
5878.60357	0.00654
5876.67490	0.00655
5874.74622	0.00655
5872.81755	0.00657
5870.88887	0.00660
5868.96019	0.00662
5867.03152	0.00663
5865.10284	0.00663
5863.17417	0.00665
5861.24549	0.00666
5859.31682	0.00667
5857.38814	0.00669
5855.45946	0.00671
5853.53079	0.00672
5851.60211	0.00672
5849.67344	0.00673
5847.74476	0.00675
5845.81609	0.00679
5843.88741	0.00682
5841.95873	0.00684
5840.03006	0.00685
5838.10138	0.00687
5836.17271	0.00688
5834.24403	0.00689
5832.31536	0.00691
5830.38668	0.00691
5828.45800	0.00691
5826.52933	0.00692
5824.60065	0.00695
5822.67198	0.00698
5820.74330	0.00699
5818.81463	0.00700
5816.88595	0.00701
5814.95727	0.00703
5813.02860	0.00704
5811.09992	0.00705
5809.17125	0.00706
5807.24257	0.00707
5805.31390	0.00708
5803.38522	0.00709
5801.45654	0.00710
5799.52787	0.00712
5797.59919	0.00716
5795.67052	0.00720
5793.74184	0.00722
5791.81317	0.00721
5789.88449	0.00719
5787.95581	0.00718
5786.02714	0.00721
5784.09846	0.00725
5782.16979	0.00728
5780.24111	0.00730
5778.31244	0.00731
5776.38376	0.00731
5774.45508	0.00732
5772.52641	0.00734
5770.59773	0.00735
5768.66906	0.00737
5766.74038	0.00740
5764.81171	0.00741
5762.88303	0.00740
5760.95435	0.00741
5759.02568	0.00744
5757.09700	0.00745
5755.16833	0.00744
5753.23965	0.00744
5751.31098	0.00747
5749.38230	0.00750
5747.45362	0.00752
5745.52495	0.00753
5743.59627	0.00755
5741.66760	0.00757
5739.73892	0.00756
5737.81025	0.00757
5735.88157	0.00759
5733.95289	0.00761
5732.02422	0.00763
5730.09554	0.00766
5728.16687	0.00768
5726.23819	0.00770
5724.30952	0.00771
5722.38084	0.00772
5720.45216	0.00773
5718.52349	0.00773
5716.59481	0.00775
5714.66614	0.00778
5712.73746	0.00781
5710.80879	0.00783
5708.88011	0.00786
5706.95143	0.00789
5705.02276	0.00790
5703.09408	0.00791
5701.16541	0.00793
5699.23673	0.00793
5697.30806	0.00793
5695.37938	0.00792
5693.45070	0.00793
5691.52203	0.00795
5689.59335	0.00797
5687.66468	0.00800
5685.73600	0.00802
5683.80733	0.00804
5681.87865	0.00805
5679.94997	0.00807
5678.02130	0.00809
5676.09262	0.00810
5674.16395	0.00812
5672.23527	0.00815
5670.30660	0.00818
5668.37792	0.00820
5666.44924	0.00819
5664.52057	0.00818
5662.59189	0.00817
5660.66322	0.00819
5658.73454	0.00823
5656.80587	0.00826
5654.87719	0.00827
5652.94851	0.00829
5651.01984	0.00831
5649.09116	0.00833
5647.16249	0.00834
5645.23381	0.00836
5643.30514	0.00838
5641.37646	0.00840
5639.44778	0.00842
5637.51911	0.00844
5635.59043	0.00843
5633.66176	0.00843
5631.73308	0.00844
5629.80441	0.00846
5627.87573	0.00848
5625.94705	0.00850
5624.01838	0.00853
5622.08970	0.00856
5620.16103	0.00857
5618.23235	0.00857
5616.30368	0.00859
5614.37500	0.00862
5612.44632	0.00866
5610.51765	0.00868
5608.58897	0.00869
5606.66030	0.00869
5604.73162	0.00869
5602.80295	0.00871
5600.87427	0.00873
5598.94559	0.00874
5597.01692	0.00877
5595.08824	0.00878
5593.15957	0.00879
5591.23089	0.00880
5589.30222	0.00882
5587.37354	0.00883
5585.44486	0.00885
5583.51619	0.00887
5581.58751	0.00890
5579.65884	0.00894
5577.73016	0.00896
5575.80149	0.00896
5573.87281	0.00897
5571.94413	0.00898
5570.01546	0.00900
5568.08678	0.00902
5566.15811	0.00905
5564.22943	0.00907
5562.30076	0.00909
5560.37208	0.00910
5558.44340	0.00911
5556.51473	0.00912
5554.58605	0.00912
5552.65738	0.00913
5550.72870	0.00913
5548.80003	0.00915
5546.87135	0.00919
5544.94267	0.00924
5543.01400	0.00926
5541.08532	0.00928
5539.15665	0.00931
5537.22797	0.00932
5535.29930	0.00933
5533.37062	0.00935
5531.44194	0.00937
5529.51327	0.00939
5527.58459	0.00941
5525.65592	0.00943
5523.72724	0.00945
5521.79857	0.00946
5519.86989	0.00947
5517.94121	0.00946
5516.01254	0.00947
5514.08386	0.00950
5512.15519	0.00953
5510.22651	0.00954
5508.29784	0.00956
5506.36916	0.00957
5504.44048	0.00959
5502.51181	0.00961
5500.58313	0.00963
5498.65446	0.00965
5496.72578	0.00967
5494.79711	0.00970
5492.86843	0.00972
5490.93975	0.00973
5489.01108	0.00973
5487.08240	0.00974
5485.15373	0.00978
5483.22505	0.00982
5481.29638	0.00984
5479.36770	0.00984
5477.43902	0.00987
5475.51035	0.00988
5473.58167	0.00989
5471.65300	0.00990
5469.72432	0.00993
5467.79565	0.00996
5465.86697	0.00999
5463.93829	0.01001
5462.00962	0.01002
5460.08094	0.01002
5458.15227	0.01002
5456.22359	0.01004
5454.29492	0.01009
5452.36624	0.01013
5450.43756	0.01015
5448.50889	0.01014
5446.58021	0.01013
5444.65154	0.01015
5442.72286	0.01018
5440.79419	0.01020
5438.86551	0.01022
5436.93683	0.01025
5435.00816	0.01026
5433.07948	0.01028
5431.15081	0.01030
5429.22213	0.01031
5427.29346	0.01031
5425.36478	0.01034
5423.43610	0.01038
5421.50743	0.01041
5419.57875	0.01043
5417.65008	0.01043
5415.72140	0.01044
5413.79273	0.01045
5411.86405	0.01049
5409.93537	0.01051
5408.00670	0.01053
5406.07802	0.01056
5404.14935	0.01059
5402.22067	0.01062
5400.29200	0.01063
5398.36332	0.01063
5396.43464	0.01064
5394.50597	0.01066
5392.57729	0.01068
5390.64862	0.01071
5388.71994	0.01073
5386.79127	0.01074
5384.86259	0.01075
5382.93391	0.01078
5381.00524	0.01082
5379.07656	0.01085
5377.14789	0.01087
5375.21921	0.01088
5373.29054	0.01090
5371.36186	0.01091
5369.43318	0.01092
5367.50451	0.01094
5365.57583	0.01096
5363.64716	0.01097
5361.71848	0.01100
5359.78981	0.01103
5357.86113	0.01104
5355.93245	0.01104
5354.00378	0.01106
5352.07510	0.01110
5350.14643	0.01115
5348.21775	0.01117
5346.28908	0.01117
5344.36040	0.01116
5342.43172	0.01115
5340.50305	0.01116
5338.57437	0.01119
5336.64570	0.01124
5334.71702	0.01129
5332.78835	0.01134
5330.85967	0.01136
5328.93099	0.01137
5327.00232	0.01137
5325.07364	0.01139
5323.14497	0.01141
5321.21629	0.01143
5319.28762	0.01146
5317.35894	0.01148
5315.43026	0.01149
5313.50159	0.01149
5311.57291	0.01151
5309.64424	0.01153
5307.71556	0.01155
5305.78689	0.01157
5303.85821	0.01160
5301.92953	0.01163
5300.00086	0.01167
5298.07218	0.01170
5296.14351	0.01172
5294.21483	0.01172
5292.28616	0.01172
5290.35748	0.01174
5288.42880	0.01178
5286.50013	0.01181
5284.57145	0.01181
5282.64278	0.01182
5280.71410	0.01185
5278.78543	0.01187
5276.85675	0.01190
5274.92807	0.01192
5272.99940	0.01194
5271.07072	0.01194
5269.14205	0.01196
5267.21337	0.01199
5265.28470	0.01200
5263.35602	0.01201
5261.42734	0.01205
5259.49867	0.01209
5257.56999	0.01210
5255.64132	0.01211
5253.71264	0.01213
5251.78397	0.01215
5249.85529	0.01217
5247.92661	0.01221
5245.99794	0.01224
5244.06926	0.01225
5242.14059	0.01227
5240.21191	0.01230
5238.28324	0.01232
5236.35456	0.01233
5234.42588	0.01235
5232.49721	0.01237
5230.56853	0.01238
5228.63986	0.01240
5226.71118	0.01243
5224.78251	0.01246
5222.85383	0.01248
5220.92515	0.01250
5218.99648	0.01250
5217.06780	0.01252
5215.13913	0.01257
5213.21045	0.01262
5211.28178	0.01264
5209.35310	0.01263
5207.42442	0.01262
5205.49575	0.01265
5203.56707	0.01270
5201.63840	0.01275
5199.70972	0.01277
5197.78105	0.01279
5195.85237	0.01280
5193.92369	0.01284
5191.99502	0.01288
5190.06634	0.01289
5188.13767	0.01288
5186.20899	0.01290
5184.28032	0.01294
5182.35164	0.01296
5180.42296	0.01296
5178.49429	0.01297
5176.56561	0.01300
5174.63694	0.01303
5172.70826	0.01305
5170.77959	0.01307
5168.85091	0.01310
5166.92223	0.01314
5164.99356	0.01316
5163.06488	0.01317
5161.13621	0.01319
5159.20753	0.01323
5157.27886	0.01325
5155.35018	0.01325
5153.42150	0.01326
5151.49283	0.01329
5149.56415	0.01333
5147.63548	0.01336
5145.70680	0.01337
5143.77813	0.01338
5141.84945	0.01341
5139.92077	0.01344
5137.99210	0.01346
5136.06342	0.01348
5134.13475	0.01350
5132.20607	0.01352
5130.27740	0.01355
5128.34872	0.01357
5126.42004	0.01360
5124.49137	0.01361
5122.56269	0.01360
5120.63402	0.01363
5118.70534	0.01366
5116.77667	0.01368
5114.84799	0.01369
5112.91931	0.01371
5110.99064	0.01375
5109.06196	0.01380
5107.13329	0.01383
5105.20461	0.01385
5103.27594	0.01388
5101.34726	0.01391
5099.41858	0.01392
5097.48991	0.01393
5095.56123	0.01394
5093.63256	0.01397
5091.70388	0.01400
5089.77521	0.01403
5087.84653	0.01405
5085.91785	0.01406
5083.98918	0.01408
5082.06050	0.01411
5080.13183	0.01413
5078.20315	0.01415
5076.27448	0.01416
5074.34580	0.01418
5072.41712	0.01420
5070.48845	0.01423
5068.55977	0.01426
5066.63110	0.01429
5064.70242	0.01431
5062.77375	0.01432
5060.84507	0.01434
5058.91639	0.01437
5056.98772	0.01441
5055.05904	0.01445
5053.13037	0.01447
5051.20169	0.01449
5049.27302	0.01450
5047.34434	0.01453
5045.41566	0.01457
5043.48699	0.01460
5041.55831	0.01462
5039.62964	0.01464
5037.70096	0.01466
5035.77229	0.01467
5033.84361	0.01469
5031.91493	0.01472
5029.98626	0.01476
5028.05758	0.01479
5026.12891	0.01482
5024.20023	0.01484
5022.27156	0.01484
5020.34288	0.01486
5018.41420	0.01487
5016.48553	0.01489
5014.55685	0.01492
5012.62818	0.01497
5010.69950	0.01500
5008.77083	0.01503
5006.84215	0.01507
5004.91347	0.01509
5002.98480	0.01512
5001.05612	0.01513
4999.12745	0.01514
4997.19877	0.01515
4995.27010	0.01517
4993.34142	0.01521
4991.41274	0.01525
4989.48407	0.01526
4987.55539	0.01529
4985.62672	0.01532
4983.69804	0.01533
4981.76937	0.01535
4979.84069	0.01539
4977.91201	0.01543
4975.98334	0.01545
4974.05466	0.01545
4972.12599	0.01545
4970.19731	0.01547
4968.26864	0.01551
4966.33996	0.01555
4964.41128	0.01558
4962.48261	0.01561
4960.55393	0.01562
4958.62526	0.01565
4956.69658	0.01568
4954.76791	0.01571
4952.83923	0.01574
4950.91055	0.01576
4948.98188	0.01576
4947.05320	0.01579
4945.12453	0.01584
4943.19585	0.01590
4941.26718	0.01594
4939.33850	0.01595
4937.40982	0.01594
4935.48115	0.01595
4933.55247	0.01597
4931.62380	0.01599
4929.69512	0.01602
4927.76645	0.01606
4925.83777	0.01610
4923.90909	0.01614
4921.98042	0.01617
4920.05174	0.01619
4918.12307	0.01619
4916.19439	0.01619
4914.26572	0.01623
4912.33704	0.01627
4910.40836	0.01630
4908.47969	0.01633
4906.55101	0.01636
4904.62234	0.01639
4902.69366	0.01640
4900.76499	0.01638
4898.83631	0.01638
4896.90763	0.01643
4894.97896	0.01649
4893.05028	0.01653
4891.12161	0.01656
4889.19293	0.01659
4887.26426	0.01661
4885.33558	0.01662
4883.40690	0.01663
4881.47823	0.01665
4879.54955	0.01669
4877.62088	0.01671
4875.69220	0.01673
4873.76353	0.01675
4871.83485	0.01681
4869.90617	0.01686
4867.97750	0.01688
4866.04882	0.01690
4864.12015	0.01692
4862.19147	0.01696
4860.26280	0.01699
4858.33412	0.01702
4856.40544	0.01705
4854.47677	0.01707
4852.54809	0.01708
4850.61942	0.01709
4848.69074	0.01712
4846.76207	0.01716
4844.83339	0.01719
4842.90471	0.01721
4840.97604	0.01724
4839.04736	0.01725
4837.11869	0.01726
4835.19001	0.01729
4833.26134	0.01734
4831.33266	0.01739
4829.40398	0.01742
4827.47531	0.01745
4825.54663	0.01748
4823.61796	0.01748
4821.68928	0.01749
4819.76061	0.01751
4817.83193	0.01755
4815.90325	0.01760
4813.97458	0.01763
4812.04590	0.01764
4810.11723	0.01766
4808.18855	0.01770
4806.25988	0.01774
4804.33120	0.01777
4802.40252	0.01779
4800.47385	0.01781
4798.54517	0.01784
4796.61650	0.01788
4794.68782	0.01791
4792.75915	0.01794
4790.83047	0.01796
4788.90179	0.01798
4786.97312	0.01800
4785.04444	0.01803
4783.11577	0.01808
4781.18709	0.01812
4779.25842	0.01813
4777.32974	0.01814
4775.40106	0.01817
4773.47239	0.01821
4771.54371	0.01825
4769.61504	0.01830
4767.68636	0.01833
4765.75769	0.01835
4763.82901	0.01835
4761.90033	0.01835
4759.97166	0.01837
4758.04298	0.01841
4756.11431	0.01847
4754.18563	0.01853
4752.25696	0.01858
4750.32828	0.01861
4748.39960	0.01862
4746.47093	0.01862
4744.54225	0.01863
4742.61358	0.01868
4740.68490	0.01874
4738.75623	0.01878
4736.82755	0.01880
4734.89887	0.01883
4732.97020	0.01886
4731.04152	0.01888
4729.11285	0.01890
4727.18417	0.01894
4725.25550	0.01896
4723.32682	0.01897
4721.39814	0.01899
4719.46947	0.01903
4717.54079	0.01906
4715.61212	0.01910
4713.68344	0.01913
4711.75477	0.01916
4709.82609	0.01918
4707.89741	0.01921
4705.96874	0.01926
4704.04006	0.01930
4702.11139	0.01932
4700.18271	0.01933
4698.25404	0.01937
4696.32536	0.01941
4694.39668	0.01945
4692.46801	0.01948
4690.53933	0.01950
4688.61066	0.01952
4686.68198	0.01955
4684.75331	0.01960
4682.82463	0.01965
4680.89595	0.01968
4678.96728	0.01968
4677.03860	0.01969
4675.10993	0.01972
4673.18125	0.01975
4671.25258	0.01978
4669.32390	0.01982
4667.39522	0.01986
4665.46655	0.01990
4663.53787	0.01994
4661.60920	0.01998
4659.68052	0.02003
4657.75185	0.02006
4655.82317	0.02007
4653.89449	0.02009
4651.96582	0.02012
4650.03714	0.02015
4648.10847	0.02018
4646.17979	0.02020
4644.25112	0.02023
4642.32244	0.02027
4640.39376	0.02032
4638.46509	0.02035
4636.53641	0.02038
4634.60774	0.02042
4632.67906	0.02047
4630.75039	0.02051
4628.82171	0.02054
4626.89303	0.02056
4624.96436	0.02059
4623.03568	0.02064
4621.10701	0.02069
4619.17833	0.02075
4617.24966	0.02078
4615.32098	0.02080
4613.39230	0.02080
4611.46363	0.02083
4609.53495	0.02088
4607.60628	0.02093
4605.67760	0.02095
4603.74893	0.02097
4601.82025	0.02100
4599.89157	0.02103
4597.96290	0.02107
4596.03422	0.02111
4594.10555	0.02116
4592.17687	0.02120
4590.24820	0.02123
4588.31952	0.02126
4586.39084	0.02130
4584.46217	0.02135
4582.53349	0.02139
4580.60482	0.02142
4578.67614	0.02144
4576.74747	0.02146
4574.81879	0.02148
4572.89011	0.02152
4570.96144	0.02155
4569.03276	0.02157
4567.10409	0.02160
4565.17541	0.02163
4563.24674	0.02169
4561.31806	0.02173
4559.38938	0.02176
4557.46071	0.02180
4555.53203	0.02184
4553.60336	0.02188
4551.67468	0.02193
4549.74601	0.02198
4547.81733	0.02200
4545.88865	0.02199
4543.95998	0.02201
4542.03130	0.02206
4540.10263	0.02213
4538.17395	0.02219
4536.24528	0.02225
4534.31660	0.02228
4532.38792	0.02230
4530.45925	0.02233
4528.53057	0.02236
4526.60190	0.02237
4524.67322	0.02239
4522.74455	0.02243
4520.81587	0.02249
4518.88719	0.02254
4516.95852	0.02258
4515.02984	0.02265
4513.10117	0.02271
4511.17249	0.02274
4509.24382	0.02275
4507.31514	0.02278
4505.38646	0.02281
4503.45779	0.02285
4501.52911	0.02290
4499.60044	0.02294
4497.67176	0.02297
4495.74309	0.02300
4493.81441	0.02303
4491.88573	0.02306
4489.95706	0.02310
4488.02838	0.02316
4486.09971	0.02320
4484.17103	0.02323
4482.24236	0.02327
4480.31368	0.02333
4478.38500	0.02337
4476.45633	0.02340
4474.52765	0.02343
4472.59898	0.02347
4470.67030	0.02351
4468.74163	0.02357
4466.81295	0.02361
4464.88427	0.02364
4462.95560	0.02366
4461.02692	0.02370
4459.09825	0.02375
4457.16957	0.02382
4455.24090	0.02387
4453.31222	0.02390
4451.38354	0.02393
4449.45487	0.02396
4447.52619	0.02400
4445.59752	0.02405
4443.66884	0.02410
4441.74017	0.02415
4439.81149	0.02420
4437.88281	0.02424
4435.95414	0.02427
4434.02546	0.02431
4432.09679	0.02435
4430.16811	0.02439
4428.23944	0.02444
4426.31076	0.02449
4424.38208	0.02452
4422.45341	0.02456
4420.52473	0.02461
4418.59606	0.02467
4416.66738	0.02470
4414.73871	0.02472
4412.81003	0.02476
4410.88135	0.02483
4408.95268	0.02489
4407.02400	0.02493
4405.09533	0.02496
4403.16665	0.02499
4401.23798	0.02504
4399.30930	0.02509
4397.38062	0.02515
4395.45195	0.02520
4393.52327	0.02523
4391.59460	0.02525
4389.66592	0.02530
4387.73725	0.02535
4385.80857	0.02538
4383.87989	0.02541
4381.95122	0.02545
4380.02254	0.02552
4378.09387	0.02559
4376.16519	0.02564
4374.23652	0.02567
4372.30784	0.02572
4370.37916	0.02576
4368.45049	0.02581
4366.52181	0.02586
4364.59314	0.02590
4362.66446	0.02593
4360.73579	0.02596
4358.80711	0.02599
4356.87843	0.02603
4354.94976	0.02608
4353.02108	0.02612
4351.09241	0.02614
4349.16373	0.02619
4347.23506	0.02627
4345.30638	0.02635
4343.37770	0.02640
4341.44903	0.02643
4339.52035	0.02648
4337.59168	0.02653
4335.66300	0.02655
4333.73433	0.02659
4331.80565	0.02666
4329.87697	0.02671
4327.94830	0.02675
4326.01962	0.02680
4324.09095	0.02685
4322.16227	0.02690
4320.23360	0.02695
4318.30492	0.02701
4316.37624	0.02705
4314.44757	0.02710
4312.51889	0.02714
4310.59022	0.02718
4308.66154	0.02722
4306.73287	0.02728
4304.80419	0.02734
4302.87551	0.02739
4300.94684	0.02744
4299.01816	0.02747
4297.08949	0.02751
4295.16081	0.02756
4293.23214	0.02762
4291.30346	0.02768
4289.37478	0.02774
4287.44611	0.02782
4285.51743	0.02788
4283.58876	0.02793
4281.66008	0.02797
4279.73141	0.02799
4277.80273	0.02802
4275.87405	0.02808
4273.94538	0.02815
4272.01670	0.02821
4270.08803	0.02824
4268.15935	0.02828
4266.23068	0.02833
4264.30200	0.02839
4262.37332	0.02846
4260.44465	0.02853
4258.51597	0.02858
4256.58730	0.02861
4254.65862	0.02865
4252.72995	0.02871
4250.80127	0.02877
4248.87259	0.02881
4246.94392	0.02886
4245.01524	0.02892
4243.08657	0.02898
4241.15789	0.02904
4239.22922	0.02909
4237.30054	0.02914
4235.37186	0.02917
4233.44319	0.02921
4231.51451	0.02927
4229.58584	0.02935
4227.65716	0.02942
4225.72849	0.02949
4223.79981	0.02954
4221.87113	0.02957
4219.94246	0.02960
4218.01378	0.02967
4216.08511	0.02974
4214.15643	0.02980
4212.22776	0.02986
4210.29908	0.02990
4208.37040	0.02994
4206.44173	0.02998
4204.51305	0.03003
4202.58438	0.03010
4200.65570	0.03017
4198.72703	0.03024
4196.79835	0.03029
4194.86968	0.03033
4192.94100	0.03039
4191.01232	0.03045
4189.08365	0.03051
4187.15497	0.03057
4185.22630	0.03063
4183.29762	0.03069
4181.36895	0.03076
4179.44027	0.03081
4177.51159	0.03086
4175.58292	0.03091
4173.65424	0.03096
4171.72557	0.03102
4169.79689	0.03108
4167.86822	0.03114
4165.93954	0.03121
4164.01086	0.03128
4162.08219	0.03134
4160.15351	0.03138
4158.22484	0.03143
4156.29616	0.03149
4154.36749	0.03155
4152.43881	0.03161
4150.51013	0.03168
4148.58146	0.03175
4146.65278	0.03181
4144.72411	0.03187
4142.79543	0.03192
4140.86676	0.03198
4138.93808	0.03204
4137.00940	0.03209
4135.08073	0.03215
4133.15205	0.03221
4131.22338	0.03228
4129.29470	0.03236
4127.36603	0.03241
4125.43735	0.03245
4123.50867	0.03250
4121.58000	0.03257
4119.65132	0.03264
4117.72265	0.03270
4115.79397	0.03273
4113.86530	0.03279
4111.93662	0.03289
4110.00794	0.03297
4108.07927	0.03302
4106.15059	0.03305
4104.22192	0.03311
4102.29324	0.03318
4100.36457	0.03326
4098.43589	0.03331
4096.50721	0.03336
4094.57854	0.03341
4092.64986	0.03347
4090.72119	0.03354
4088.79251	0.03361
4086.86384	0.03368
4084.93516	0.03375
4083.00648	0.03382
4081.07781	0.03390
4079.14913	0.03397
4077.22046	0.03402
4075.29178	0.03409
4073.36311	0.03415
4071.43443	0.03420
4069.50575	0.03425
4067.57708	0.03432
4065.64840	0.03440
4063.71973	0.03446
4061.79105	0.03451
4059.86238	0.03458
4057.93370	0.03467
4056.00502	0.03475
4054.07635	0.03479
4052.14767	0.03482
4050.21900	0.03487
4048.29032	0.03495
4046.36165	0.03503
4044.43297	0.03510
4042.50429	0.03518
4040.57562	0.03528
4038.64694	0.03537
4036.71827	0.03545
4034.78959	0.03553
4032.86092	0.03559
4030.93224	0.03563
4029.00356	0.03568
4027.07489	0.03574
4025.14621	0.03579
4023.21754	0.03585
4021.28886	0.03591
4019.36019	0.03597
4017.43151	0.03604
4015.50283	0.03610
4013.57416	0.03618
4011.64548	0.03626
4009.71681	0.03635
4007.78813	0.03643
4005.85946	0.03651
4003.93078	0.03657
4002.00210	0.03660
4000.07343	0.03665
3998.14475	0.03673
3996.21608	0.03682
3994.28740	0.03689
3992.35873	0.03695
3990.43005	0.03704
3988.50137	0.03712
3986.57270	0.03718
3984.64402	0.03723
3982.71535	0.03729
3980.78667	0.03736
3978.85800	0.03741
3976.92932	0.03748
3975.00064	0.03757
3973.07197	0.03767
3971.14329	0.03774
3969.21462	0.03782
3967.28594	0.03789
3965.35727	0.03795
3963.42859	0.03803
3961.49991	0.03813
3959.57124	0.03822
3957.64256	0.03828
3955.71389	0.03835
3953.78521	0.03842
3951.85654	0.03846
3949.92786	0.03848
3947.99918	0.03854
3946.07051	0.03861
3944.14183	0.03867
3942.21316	0.03875
3940.28448	0.03885
3938.35581	0.03893
3936.42713	0.03898
3934.49845	0.03902
3932.56978	0.03909
3930.64110	0.03919
3928.71243	0.03928
3926.78375	0.03933
3924.85508	0.03938
3922.92640	0.03944
3920.99772	0.03950
3919.06905	0.03955
3917.14037	0.03963
3915.21170	0.03976
3913.28302	0.03990
3911.35435	0.03998
3909.42567	0.04000
3907.49699	0.03998
3905.56832	0.03994
3903.63964	0.03994
3901.71097	0.04001
3899.78229	0.04015
3897.85362	0.04035
3895.92494	0.04053
3893.99626	0.04060
3892.06759	0.04062
3890.13891	0.04070
3888.21024	0.04077
3886.28156	0.04078
3884.35289	0.04082
3882.42421	0.04089
3880.49553	0.04099
3878.56686	0.04115
3876.63818	0.04125
3874.70951	0.04128
3872.78083	0.04128
3870.85216	0.04130
3868.92348	0.04139
3866.99480	0.04151
3865.06613	0.04158
3863.13745	0.04167
3861.20878	0.04184
3859.28010	0.04196
3857.35143	0.04189
3855.42275	0.04167
3853.49407	0.04162
3851.56540	0.04192
3849.63672	0.04229
3847.70805	0.04249
3845.77937	0.04252
3843.85070	0.04253
3841.92202	0.04254
3839.99334	0.04255
3838.06467	0.04260
3836.13599	0.04273
3834.20732	0.04288
3832.27864	0.04300
3830.34997	0.04312
3828.42129	0.04323
3826.49261	0.04331
3824.56394	0.04335
3822.63526	0.04333
3820.70659	0.04337
3818.77791	0.04351
3816.84924	0.04362
3814.92056	0.04375
3812.99188	0.04394
3811.06321	0.04405
3809.13453	0.04406
3807.20586	0.04406
3805.27718	0.04413
3803.34851	0.04418
3801.41983	0.04426
3799.49115	0.04441
3797.56248	0.04451
3795.63380	0.04458
3793.70513	0.04472
3791.77645	0.04487
3789.84778	0.04500
3787.91910	0.04509
3785.99042	0.04513
3784.06175	0.04517
3782.13307	0.04522
3780.20440	0.04527
3778.27572	0.04537
3776.34705	0.04551
3774.41837	0.04560
3772.48969	0.04559
3770.56102	0.04558
3768.63234	0.04566
3766.70367	0.04578
3764.77499	0.04592
3762.84632	0.04606
3760.91764	0.04610
3758.98896	0.04614
3757.06029	0.04624
3755.13161	0.04628
3753.20294	0.04619
3751.27426	0.04612
3749.34559	0.04620
3747.41691	0.04626
3745.48823	0.04623
3743.55956	0.04640
3741.63088	0.04673
3739.70221	0.04686
3737.77353	0.04678
3735.84486	0.04675
3733.91618	0.04691
3731.98750	0.04717
3730.05883	0.04740
3728.13015	0.04750
3726.20148	0.04753
3724.27280	0.04760
3722.34413	0.04771
3720.41545	0.04784
3718.48677	0.04796
3716.55810	0.04805
3714.62942	0.04807
3712.70075	0.04804
3710.77207	0.04807
3708.84340	0.04825
3706.91472	0.04847
3704.98604	0.04861
3703.05737	0.04864
3701.12869	0.04870
3699.20002	0.04884
3697.27134	0.04898
3695.34267	0.04906
3693.41399	0.04906
3691.48531	0.04901
3689.55664	0.04902
3687.62796	0.04918
3685.69929	0.04942
3683.77061	0.04956
3681.84194	0.04959
3679.91326	0.04958
3677.98458	0.04951
3676.05591	0.04945
3674.12723	0.04956
3672.19856	0.04970
3670.26988	0.04978
3668.34121	0.04997
3666.41253	0.05023
3664.48385	0.05041
3662.55518	0.05051
3660.62650	0.05058
3658.69783	0.05058
3656.76915	0.05057
3654.84048	0.05060
3652.91180	0.05057
3650.98312	0.05042
3649.05445	0.05032
3647.12577	0.05043
3645.19710	0.05071
3643.26842	0.05099
3641.33975	0.05116
3639.41107	0.05126
3637.48239	0.05135
3635.55372	0.05143
3633.62504	0.05146
3631.69637	0.05136
3629.76769	0.05124
3627.83902	0.05132
3625.91034	0.05161
3623.98166	0.05181
3622.05299	0.05181
3620.12431	0.05173
3618.19564	0.05176
3616.26696	0.05188
3614.33829	0.05195
3612.40961	0.05197
3610.48093	0.05200
3608.55226	0.05208
3606.62358	0.05228
3604.69491	0.05246
3602.76623	0.05252
3600.83756	0.05252
3598.90888	0.05255
3596.98020	0.05261
3595.05153	0.05269
3593.12285	0.05278
3591.19418	0.05281
3589.26550	0.05275
3587.33683	0.05276
3585.40815	0.05295
3583.47947	0.05319
3581.55080	0.05332
3579.62212	0.05338
3577.69345	0.05340
3575.76477	0.05343
3573.83610	0.05347
3571.90742	0.05351
3569.97874	0.05347
3568.05007	0.05345
3566.12139	0.05358
3564.19272	0.05379
3562.26404	0.05394
3560.33537	0.05402
3558.40669	0.05410
3556.47801	0.05418
3554.54934	0.05422
3552.62066	0.05425
3550.69199	0.05433
3548.76331	0.05438
3546.83464	0.05440
3544.90596	0.05445
3542.97728	0.05455
3541.04861	0.05465
3539.11993	0.05469
3537.19126	0.05472
3535.26258	0.05478
3533.33391	0.05485
3531.40523	0.05487
3529.47655	0.05486
3527.54788	0.05489
3525.61920	0.05497
3523.69053	0.05504
3521.76185	0.05510
3519.83318	0.05516
3517.90450	0.05521
3515.97582	0.05523
3514.04715	0.05522
3512.11847	0.05523
3510.18980	0.05528
3508.26112	0.05533
3506.33245	0.05537
3504.40377	0.05541
3502.47509	0.05548
3500.54642	0.05552
3498.61774	0.05553
3496.68907	0.05551
3494.76039	0.05550
3492.83172	0.05551
3490.90304	0.05556
3488.97436	0.05561
3487.04569	0.05563
3485.11701	0.05566
3483.18834	0.05569
3481.25966	0.05575
3479.33099	0.05584
3477.40231	0.05592
3475.47363	0.05599
3473.54496	0.05605
3471.61628	0.05612
3469.68761	0.05617
3467.75893	0.05624
3465.83026	0.05633
3463.90158	0.05642
3461.97290	0.05650
3460.04423	0.05657
3458.11555	0.05668
3456.18688	0.05683
3454.25820	0.05699
3452.32953	0.05710
3450.40085	0.05715
3448.47217	0.05718
3446.54350	0.05724
3444.61482	0.05734
3442.68615	0.05744
3440.75747	0.05755
3438.82880	0.05770
3436.90012	0.05785
3434.97144	0.05799
3433.04277	0.05816
3431.11409	0.05836
3429.18542	0.05854
3427.25674	0.05868
3425.32807	0.05883
3423.39939	0.05899
3421.47071	0.05914
3419.54204	0.05930
3417.61336	0.05948
3415.68469	0.05965
3413.75601	0.05980
3411.82734	0.05993
3409.89866	0.06005
3407.96998	0.06018
3406.04131	0.06033
3404.11263	0.06047
3402.18396	0.06059
3400.25528	0.06071
3398.32661	0.06080
3396.39793	0.06091
3394.46925	0.06104
3392.54058	0.06117
3390.61190	0.06131
3388.68323	0.06144
3386.75455	0.06156
3384.82588	0.06169
3382.89720	0.06181
3380.96852	0.06192
3379.03985	0.06202
3377.11117	0.06213
3375.18250	0.06224
3373.25382	0.06234
3371.32515	0.06245
3369.39647	0.06257
3367.46779	0.06271
3365.53912	0.06285
3363.61044	0.06296
3361.68177	0.06307
3359.75309	0.06318
3357.82442	0.06330
3355.89574	0.06342
3353.96706	0.06356
3352.03839	0.06369
3350.10971	0.06379
3348.18104	0.06390
3346.25236	0.06402
3344.32369	0.06411
3342.39501	0.06420
3340.46633	0.06432
3338.53766	0.06444
3336.60898	0.06453
3334.68031	0.06464
3332.75163	0.06477
3330.82296	0.06490
3328.89428	0.06501
3326.96560	0.06510
3325.03693	0.06521
3323.10825	0.06533
3321.17958	0.06545
3319.25090	0.06557
3317.32223	0.06570
3315.39355	0.06583
3313.46487	0.06596
3311.53620	0.06608
3309.60752	0.06619
3307.67885	0.06632
3305.75017	0.06644
3303.82150	0.06657
3301.89282	0.06669
3299.96414	0.06682
3298.03547	0.06693
3296.10679	0.06704
3294.17812	0.06715
3292.24944	0.06728
3290.32077	0.06740
3288.39209	0.06752
3286.46341	0.06765
3284.53474	0.06778
3282.60606	0.06789
3280.67739	0.06799
3278.74871	0.06808
3276.82004	0.06818
3274.89136	0.06832
3272.96268	0.06847
3271.03401	0.06860
3269.10533	0.06871
3267.17666	0.06884
3265.24798	0.06900
3263.31931	0.06916
3261.39063	0.06928
3259.46195	0.06938
3257.53328	0.06950
3255.60460	0.06962
3253.67593	0.06974
3251.74725	0.06985
3249.81858	0.06998
3247.88990	0.07012
3245.96122	0.07026
3244.03255	0.07039
3242.10387	0.07050
3240.17520	0.07060
3238.24652	0.07071
3236.31785	0.07082
3234.38917	0.07097
3232.46049	0.07111
3230.53182	0.07122
3228.60314	0.07134
3226.67447	0.07148
3224.74579	0.07159
3222.81712	0.07169
3220.88844	0.07180
3218.95976	0.07193
3217.03109	0.07205
3215.10241	0.07218
3213.17374	0.07230
3211.24506	0.07242
3209.31639	0.07255
3207.38771	0.07270
3205.45903	0.07286
3203.53036	0.07300
3201.60168	0.07314
3199.67301	0.07327
3197.74433	0.07339
3195.81566	0.07353
3193.88698	0.07367
3191.95830	0.07377
3190.02963	0.07387
3188.10095	0.07401
3186.17228	0.07415
3184.24360	0.07427
3182.31493	0.07443
3180.38625	0.07459
3178.45757	0.07472
3176.52890	0.07482
3174.60022	0.07496
3172.67155	0.07513
3170.74287	0.07527
3168.81420	0.07538
3166.88552	0.07550
3164.95684	0.07564
3163.02817	0.07576
3161.09949	0.07586
3159.17082	0.07597
3157.24214	0.07612
3155.31347	0.07628
3153.38479	0.07640
3151.45611	0.07652
3149.52744	0.07663
3147.59876	0.07674
3145.67009	0.07687
3143.74141	0.07704
3141.81274	0.07721
3139.88406	0.07735
3137.95538	0.07747
3136.02671	0.07758
3134.09803	0.07770
3132.16936	0.07781
3130.24068	0.07793
3128.31201	0.07805
3126.38333	0.07819
3124.45465	0.07835
3122.52598	0.07851
3120.59730	0.07866
3118.66863	0.07878
3116.73995	0.07888
3114.81128	0.07900
3112.88260	0.07915
3110.95392	0.07929
3109.02525	0.07942
3107.09657	0.07953
3105.16790	0.07962
3103.23922	0.07971
3101.31055	0.07982
3099.38187	0.07998
3097.45319	0.08015
3095.52452	0.08029
3093.59584	0.08039
3091.66717	0.08049
3089.73849	0.08066
3087.80982	0.08084
3085.88114	0.08098
3083.95246	0.08108
3082.02379	0.08118
3080.09511	0.08128
3078.16644	0.08140
3076.23776	0.08155
3074.30909	0.08171
3072.38041	0.08185
3070.45173	0.08199
3068.52306	0.08213
3066.59438	0.08226
3064.66571	0.08237
3062.73703	0.08249
3060.80836	0.08263
3058.87968	0.08275
3056.95100	0.08287
3055.02233	0.08299
3053.09365	0.08312
3051.16498	0.08325
3049.23630	0.08339
3047.30763	0.08352
3045.37895	0.08365
3043.45027	0.08376
3041.52160	0.08387
3039.59292	0.08399
3037.66425	0.08411
3035.73557	0.08421
3033.80690	0.08433
3031.87822	0.08447
3029.94954	0.08466
3028.02087	0.08483
3026.09219	0.08494
3024.16352	0.08505
3022.23484	0.08519
3020.30617	0.08534
3018.37749	0.08545
3016.44881	0.08553
3014.52014	0.08563
3012.59146	0.08580
3010.66279	0.08596
3008.73411	0.08607
3006.80544	0.08618
3004.87676	0.08631
3002.94808	0.08644
3001.01941	0.08655
2999.09073	0.08667
2997.16206	0.08681
2995.23338	0.08691
2993.30471	0.08702
2991.37603	0.08716
2989.44735	0.08728
2987.51868	0.08738
2985.59000	0.08747
2983.66133	0.08753
2981.73265	0.08760
2979.80398	0.08770
2977.87530	0.08778
2975.94662	0.08781
2974.01795	0.08783
2972.08927	0.08784
2970.16060	0.08783
2968.23192	0.08778
2966.30325	0.08775
2964.37457	0.08778
2962.44589	0.08790
2960.51722	0.08806
2958.58854	0.08824
2956.65987	0.08841
2954.73119	0.08855
2952.80252	0.08868
2950.87384	0.08882
2948.94516	0.08896
2947.01649	0.08908
2945.08781	0.08919
2943.15914	0.08929
2941.23046	0.08936
2939.30179	0.08937
2937.37311	0.08933
2935.44443	0.08932
2933.51576	0.08931
2931.58708	0.08930
2929.65841	0.08928
2927.72973	0.08926
2925.80106	0.08925
2923.87238	0.08922
2921.94370	0.08920
2920.01503	0.08928
2918.08635	0.08949
2916.15768	0.08978
2914.22900	0.09018
2912.30033	0.09060
2910.37165	0.09097
2908.44297	0.09126
2906.51430	0.09151
2904.58562	0.09174
2902.65695	0.09196
2900.72827	0.09218
2898.79960	0.09237
2896.87092	0.09254
2894.94224	0.09272
2893.01357	0.09290
2891.08489	0.09306
2889.15622	0.09322
2887.22754	0.09337
2885.29887	0.09356
2883.37019	0.09373
2881.44151	0.09387
2879.51284	0.09398
2877.58416	0.09410
2875.65549	0.09421
2873.72681	0.09433
2871.79814	0.09448
2869.86946	0.09462
2867.94078	0.09474
2866.01211	0.09484
2864.08343	0.09493
2862.15476	0.09500
2860.22608	0.09505
2858.29741	0.09503
2856.36873	0.09499
2854.44005	0.09497
2852.51138	0.09496
2850.58270	0.09503
2848.65403	0.09528
2846.72535	0.09572
2844.79668	0.09620
2842.86800	0.09660
2840.93932	0.09689
2839.01065	0.09713
2837.08197	0.09733
2835.15330	0.09749
2833.22462	0.09767
2831.29595	0.09786
2829.36727	0.09802
2827.43859	0.09816
2825.50992	0.09832
2823.58124	0.09850
2821.65257	0.09864
2819.72389	0.09876
2817.79522	0.09890
2815.86654	0.09905
2813.93786	0.09917
2812.00919	0.09930
2810.08051	0.09947
2808.15184	0.09965
2806.22316	0.09979
2804.29449	0.09991
2802.36581	0.10005
2800.43713	0.10020
2798.50846	0.10034
2796.57978	0.10046
2794.65111	0.10060
2792.72243	0.10076
2790.79376	0.10091
2788.86508	0.10108
2786.93640	0.10125
2785.00773	0.10139
2783.07905	0.10153
2781.15038	0.10166
2779.22170	0.10179
2777.29303	0.10191
2775.36435	0.10207
2773.43567	0.10225
2771.50700	0.10240
2769.57832	0.10250
2767.64965	0.10260
2765.72097	0.10273
2763.79230	0.10288
2761.86362	0.10301
2759.93494	0.10315
2758.00627	0.10326
2756.07759	0.10337
2754.14892	0.10350
2752.22024	0.10367
2750.29157	0.10384
2748.36289	0.10400
2746.43421	0.10412
2744.50554	0.10424
2742.57686	0.10439
2740.64819	0.10453
2738.71951	0.10466
2736.79084	0.10477
2734.86216	0.10487
2732.93348	0.10498
2731.00481	0.10512
2729.07613	0.10526
2727.14746	0.10539
2725.21878	0.10554
2723.29011	0.10569
2721.36143	0.10583
2719.43275	0.10596
2717.50408	0.10611
2715.57540	0.10625
2713.64673	0.10639
2711.71805	0.10654
2709.78938	0.10668
2707.86070	0.10679
2705.93202	0.10689
2704.00335	0.10700
2702.07467	0.10712
2700.14600	0.10725
2698.21732	0.10741
2696.28865	0.10755
2694.35997	0.10768
2692.43129	0.10783
2690.50262	0.10798
2688.57394	0.10809
2686.64527	0.10819
2684.71659	0.10832
2682.78792	0.10850
2680.85924	0.10867
2678.93056	0.10880
2677.00189	0.10890
2675.07321	0.10899
2673.14454	0.10909
2671.21586	0.10922
2669.28719	0.10937
2667.35851	0.10953
2665.42983	0.10969
2663.50116	0.10983
2661.57248	0.10997
2659.64381	0.11011
2657.71513	0.11023
2655.78646	0.11034
2653.85778	0.11042
2651.92910	0.11053
2650.00043	0.11067
2648.07175	0.11082
2646.14308	0.11096
2644.21440	0.11114
2642.28573	0.11136
2640.35705	0.11156
2638.42837	0.11171
2636.49970	0.11184
2634.57102	0.11198
2632.64235	0.11212
2630.71367	0.11226
2628.78500	0.11242
2626.85632	0.11256
2624.92764	0.11268
2622.99897	0.11282
2621.07029	0.11298
2619.14162	0.11314
2617.21294	0.11329
2615.28427	0.11341
2613.35559	0.11352
2611.42691	0.11365
2609.49824	0.11382
2607.56956	0.11400
2605.64089	0.11414
2603.71221	0.11425
2601.78354	0.11436
2599.85486	0.11451
2597.92618	0.11465
2595.99751	0.11476
2594.06883	0.11490
2592.14016	0.11509
2590.21148	0.11527
2588.28281	0.11539
2586.35413	0.11549
2584.42545	0.11563
2582.49678	0.11579
2580.56810	0.11593
2578.63943	0.11606
2576.71075	0.11619
2574.78208	0.11630
2572.85340	0.11642
2570.92472	0.11657
2568.99605	0.11672
2567.06737	0.11687
2565.13870	0.11704
2563.21002	0.11722
2561.28135	0.11739
2559.35267	0.11754
2557.42399	0.11766
2555.49532	0.11778
2553.56664	0.11791
2551.63797	0.11802
2549.70929	0.11814
2547.78062	0.11828
2545.85194	0.11842
2543.92326	0.11853
2541.99459	0.11864
2540.06591	0.11877
2538.13724	0.11890
2536.20856	0.11902
2534.27989	0.11918
2532.35121	0.11935
2530.42253	0.11951
2528.49386	0.11965
2526.56518	0.11978
2524.63651	0.11991
2522.70783	0.12006
2520.77916	0.12021
2518.85048	0.12035
2516.92181	0.12052
2514.99313	0.12069
2513.06445	0.12082
2511.13578	0.12093
2509.20710	0.12106
2507.27843	0.12126
2505.34975	0.12148
2503.42108	0.12167
2501.49240	0.12183
2499.56372	0.12197
2497.63505	0.12210
2495.70637	0.12224
2493.77770	0.12240
2491.84902	0.12255
2489.92035	0.12269
2487.99167	0.12285
2486.06299	0.12300
2484.13432	0.12311
2482.20564	0.12322
2480.27697	0.12338
2478.34829	0.12356
2476.41962	0.12373
2474.49094	0.12386
2472.56226	0.12400
2470.63359	0.12416
2468.70491	0.12433
2466.77624	0.12449
2464.84756	0.12461
2462.91889	0.12471
2460.99021	0.12486
2459.06153	0.12505
2457.13286	0.12521
2455.20418	0.12532
2453.27551	0.12543
2451.34683	0.12556
2449.41816	0.12571
2447.48948	0.12589
2445.56080	0.12607
2443.63213	0.12623
2441.70345	0.12639
2439.77478	0.12655
2437.84610	0.12668
2435.91743	0.12679
2433.98875	0.12696
2432.06007	0.12714
2430.13140	0.12730
2428.20272	0.12745
2426.27405	0.12761
2424.34537	0.12774
2422.41670	0.12785
2420.48802	0.12797
2418.55934	0.12809
2416.63067	0.12825
2414.70199	0.12843
2412.77332	0.12859
2410.84464	0.12873
2408.91597	0.12887
2406.98729	0.12899
2405.05861	0.12911
2403.12994	0.12928
2401.20126	0.12946
2399.27259	0.12959
2397.34391	0.12971
2395.41524	0.12984
2393.48656	0.12998
2391.55788	0.13016
2389.62921	0.13034
2387.70053	0.13049
2385.77186	0.13060
2383.84318	0.13072
2381.91451	0.13084
2379.98583	0.13095
2378.05715	0.13103
2376.12848	0.13109
2374.19980	0.13111
2372.27113	0.13111
2370.34245	0.13115
2368.41378	0.13121
2366.48510	0.13123
2364.55642	0.13125
2362.62775	0.13138
2360.69907	0.13159
2358.77040	0.13182
2356.84172	0.13204
2354.91305	0.13230
2352.98437	0.13259
2351.05569	0.13288
2349.12702	0.13309
2347.19834	0.13316
2345.26967	0.13317
2343.34099	0.13323
2341.41232	0.13334
2339.48364	0.13345
2337.55496	0.13356
2335.62629	0.13369
2333.69761	0.13384
2331.76894	0.13399
2329.84026	0.13416
2327.91159	0.13435
2325.98291	0.13454
2324.05423	0.13472
2322.12556	0.13489
2320.19688	0.13505
2318.26821	0.13526
2316.33953	0.13551
2314.41086	0.13573
2312.48218	0.13593
2310.55350	0.13613
2308.62483	0.13633
2306.69615	0.13650
2304.76748	0.13666
2302.83880	0.13680
2300.91013	0.13695
2298.98145	0.13713
2297.05277	0.13729
2295.12410	0.13743
2293.19542	0.13758
2291.26675	0.13771
2289.33807	0.13783
2287.40940	0.13798
2285.48072	0.13816
2283.55204	0.13831
2281.62337	0.13845
2279.69469	0.13860
2277.76602	0.13875
2275.83734	0.13888
2273.90867	0.13902
2271.97999	0.13918
2270.05131	0.13934
2268.12264	0.13950
2266.19396	0.13967
2264.26529	0.13983
2262.33661	0.13996
2260.40794	0.14006
2258.47926	0.14017
2256.55058	0.14036
2254.62191	0.14059
2252.69323	0.14078
2250.76456	0.14090
2248.83588	0.14102
2246.90721	0.14117
2244.97853	0.14132
2243.04985	0.14146
2241.12118	0.14160
2239.19250	0.14175
2237.26383	0.14189
2235.33515	0.14201
2233.40648	0.14215
2231.47780	0.14232
2229.54912	0.14251
2227.62045	0.14269
2225.69177	0.14284
2223.76310	0.14296
2221.83442	0.14307
2219.90575	0.14318
2217.97707	0.14332
2216.04839	0.14352
2214.11972	0.14370
2212.19104	0.14380
2210.26237	0.14389
2208.33369	0.14404
2206.40502	0.14421
2204.47634	0.14435
2202.54766	0.14448
2200.61899	0.14465
2198.69031	0.14481
2196.76164	0.14496
2194.83296	0.14511
2192.90429	0.14523
2190.97561	0.14535
2189.04693	0.14548
2187.11826	0.14563
2185.18958	0.14579
2183.26091	0.14594
2181.33223	0.14607
2179.40356	0.14623
2177.47488	0.14640
2175.54620	0.14653
2173.61753	0.14662
2171.68885	0.14672
2169.76018	0.14690
2167.83150	0.14711
2165.90283	0.14727
2163.97415	0.14736
2162.04547	0.14747
2160.11680	0.14763
2158.18812	0.14781
2156.25945	0.14800
2154.33077	0.14817
2152.40210	0.14832
2150.47342	0.14849
2148.54474	0.14866
2146.61607	0.14881
2144.68739	0.14895
2142.75872	0.14908
2140.83004	0.14918
2138.90137	0.14931
2136.97269	0.14948
2135.04401	0.14964
2133.11534	0.14979
2131.18666	0.14994
2129.25799	0.15006
2127.32931	0.15016
2125.40064	0.15029
2123.47196	0.15046
2121.54328	0.15062
2119.61461	0.15078
2117.68593	0.15095
2115.75726	0.15112
2113.82858	0.15127
2111.89991	0.15140
2109.97123	0.15155
2108.04255	0.15171
2106.11388	0.15189
2104.18520	0.15205
2102.25653	0.15218
2100.32785	0.15230
2098.39918	0.15245
2096.47050	0.15265
2094.54182	0.15283
2092.61315	0.15300
2090.68447	0.15314
2088.75580	0.15325
2086.82712	0.15337
2084.89845	0.15353
2082.96977	0.15366
2081.04109	0.15378
2079.11242	0.15393
2077.18374	0.15409
2075.25507	0.15426
2073.32639	0.15444
2071.39772	0.15460
2069.46904	0.15475
2067.54036	0.15489
2065.61169	0.15503
2063.68301	0.15520
2061.75434	0.15537
2059.82566	0.15551
2057.89699	0.15561
2055.96831	0.15575
2054.03963	0.15596
2052.11096	0.15616
2050.18228	0.15628
2048.25361	0.15637
2046.32493	0.15646
2044.39626	0.15657
2042.46758	0.15670
2040.53890	0.15689
2038.61023	0.15710
2036.68155	0.15727
2034.75288	0.15741
2032.82420	0.15757
2030.89553	0.15774
2028.96685	0.15788
2027.03817	0.15800
2025.10950	0.15815
2023.18082	0.15833
2021.25215	0.15847
2019.32347	0.15859
2017.39480	0.15872
2015.46612	0.15892
2013.53744	0.15915
2011.60877	0.15934
2009.68009	0.15947
2007.75142	0.15961
2005.82274	0.15976
2003.89407	0.15987
2001.96539	0.15998
2000.03671	0.16011
1998.10804	0.16027
1996.17936	0.16043
1994.25069	0.16050
1992.32201	0.16055
1990.39334	0.16069
1988.46466	0.16091
1986.53598	0.16109
1984.60731	0.16124
1982.67863	0.16136
1980.74996	0.16148
1978.82128	0.16163
1976.89261	0.16180
1974.96393	0.16197
1973.03525	0.16210
1971.10658	0.16218
1969.17790	0.16220
1967.24923	0.16224
1965.32055	0.16239
1963.39188	0.16263
1961.46320	0.16285
1959.53452	0.16302
1957.60585	0.16313
1955.67717	0.16321
1953.74850	0.16333
1951.81982	0.16348
1949.89115	0.16363
1947.96247	0.16377
1946.03379	0.16385
1944.10512	0.16393
1942.17644	0.16408
1940.24777	0.16431
1938.31909	0.16453
1936.39042	0.16470
1934.46174	0.16485
1932.53306	0.16500
1930.60439	0.16515
1928.67571	0.16529
1926.74704	0.16542
1924.81836	0.16552
1922.88969	0.16561
1920.96101	0.16570
1919.03233	0.16575
1917.10366	0.16591
1915.17498	0.16623
1913.24631	0.16647
1911.31763	0.16657
1909.38896	0.16667
1907.46028	0.16682
1905.53160	0.16698
1903.60293	0.16712
1901.67425	0.16728
1899.74558	0.16744
1897.81690	0.16754
1895.88823	0.16763
1893.95955	0.16780
1892.03087	0.16792
1890.10220	0.16796
1888.17352	0.16811
1886.24485	0.16837
1884.31617	0.16856
1882.38750	0.16869
1880.45882	0.16884
1878.53014	0.16901
1876.60147	0.16917
1874.67279	0.16931
1872.74412	0.16934
1870.81544	0.16921
1868.88677	0.16914
1866.95809	0.16939
1865.02941	0.16981
1863.10074	0.17010
1861.17206	0.17025
1859.24339	0.17035
1857.31471	0.17048
1855.38604	0.17067
1853.45736	0.17085
1851.52868	0.17101
1849.60001	0.17111
1847.67133	0.17109
1845.74266	0.17096
1843.81398	0.17105
1841.88531	0.17150
1839.95663	0.17190
1838.02795	0.17208
1836.09928	0.17223
1834.17060	0.17234
1832.24193	0.17227
1830.31325	0.17220
1828.38458	0.17237
1826.45590	0.17262
1824.52722	0.17286
1822.59855	0.17314
1820.66987	0.17335
1818.74120	0.17346
1816.81252	0.17359
1814.88385	0.17377
1812.95517	0.17388
1811.02649	0.17397
1809.09782	0.17411
1807.16914	0.17427
1805.24047	0.17434
1803.31179	0.17425
1801.38312	0.17419
1799.45444	0.17436
1797.52576	0.17461
1795.59709	0.17467
1793.66841	0.17453
1791.73974	0.17457
1789.81106	0.17494
1787.88239	0.17526
1785.95371	0.17534
1784.02503	0.17540
1782.09636	0.17551
1780.16768	0.17564
1778.23901	0.17580
1776.31033	0.17585
1774.38166	0.17570
1772.45298	0.17557
1770.52430	0.17567
1768.59563	0.17595
1766.66695	0.17629
1764.73828	0.17650
1762.80960	0.17647
1760.88093	0.17647
1758.95225	0.17658
1757.02357	0.17670
1755.09490	0.17681
1753.16622	0.17665
1751.23755	0.17634
1749.30887	0.17628
1747.38020	0.17644
1745.45152	0.17657
1743.52284	0.17658
1741.59417	0.17658
1739.66549	0.17667
1737.73682	0.17665
1735.80814	0.17631
1733.87947	0.17613
1731.95079	0.17654
1730.02211	0.17710
1728.09344	0.17748
1726.16476	0.17772
1724.23609	0.17783
1722.30741	0.17783
1720.37874	0.17755
1718.45006	0.17721
1716.52138	0.17727
1714.59271	0.17769
1712.66403	0.17815
1710.73536	0.17844
1708.80668	0.17849
1706.87801	0.17838
1704.94933	0.17830
1703.02065	0.17802
1701.09198	0.17759
1699.16330	0.17758
1697.23463	0.17789
1695.30595	0.17826
1693.37728	0.17877
1691.44860	0.17907
1689.51992	0.17905
1687.59125	0.17883
1685.66257	0.17841
1683.73390	0.17826
1681.80522	0.17861
1679.87655	0.17901
1677.94787	0.17908
1676.01919	0.17894
1674.09052	0.17893
1672.16184	0.17893
1670.23317	0.17885
1668.30449	0.17905
1666.37582	0.17946
1664.44714	0.17957
1662.51846	0.17954
1660.58979	0.17969
1658.66111	0.17982
1656.73244	0.17945
1654.80376	0.17864
1652.87509	0.17833
1650.94641	0.17883
1649.01773	0.17916
1647.08906	0.17910
1645.16038	0.17939
1643.23171	0.17989
1641.30303	0.18012
1639.37436	0.17996
1637.44568	0.17960
1635.51700	0.17955
1633.58833	0.18002
1631.65965	0.18046
1629.73098	0.18048
1627.80230	0.18036
1625.87363	0.18016
1623.94495	0.17980
1622.01627	0.17954
1620.08760	0.17952
1618.15892	0.17964
1616.23025	0.18013
1614.30157	0.18090
1612.37290	0.18148
1610.44422	0.18175
1608.51554	0.18196
1606.58687	0.18220
1604.65819	0.18240
1602.72952	0.18255
1600.80084	0.18273
1598.87217	0.18292
1596.94349	0.18305
1595.01481	0.18319
1593.08614	0.18340
1591.15746	0.18364
1589.22879	0.18384
1587.30011	0.18400
1585.37144	0.18417
1583.44276	0.18432
1581.51408	0.18442
1579.58541	0.18436
1577.65673	0.18411
1575.72806	0.18409
1573.79938	0.18440
1571.87071	0.18451
1569.94203	0.18446
1568.01335	0.18467
1566.08468	0.18501
1564.15600	0.18512
1562.22733	0.18475
1560.29865	0.18403
1558.36998	0.18383
1556.44130	0.18449
1554.51262	0.18527
1552.58395	0.18568
1550.65527	0.18589
1548.72660	0.18605
1546.79792	0.18599
1544.86925	0.18559
1542.94057	0.18510
1541.01189	0.18490
1539.08322	0.18529
1537.15454	0.18598
1535.22587	0.18630
1533.29719	0.18634
1531.36852	0.18657
1529.43984	0.18675
1527.51116	0.18668
1525.58249	0.18650
1523.65381	0.18618
1521.72514	0.18585
1519.79646	0.18593
1517.86779	0.18624
1515.93911	0.18658
1514.01043	0.18689
1512.08176	0.18693
1510.15308	0.18659
1508.22441	0.18619
1506.29573	0.18633
1504.36706	0.18706
1502.43838	0.18759
1500.50970	0.18754
1498.58103	0.18734
1496.65235	0.18742
1494.72368	0.18767
1492.79500	0.18764
1490.86633	0.18729
1488.93765	0.18711
1487.00897	0.18730
1485.08030	0.18752
1483.15162	0.18752
1481.22295	0.18736
1479.29427	0.18710
1477.36560	0.18662
1475.43692	0.18600
1473.50824	0.18553
1471.57957	0.18544
1469.65089	0.18560
1467.72222	0.18548
1465.79354	0.18513
1463.86487	0.18498
1461.93619	0.18493
1460.00751	0.18442
1458.07884	0.18367
1456.15016	0.18352
1454.22149	0.18401
1452.29281	0.18438
1450.36414	0.18439
1448.43546	0.18434
1446.50678	0.18448
1444.57811	0.18477
1442.64943	0.18498
1440.72076	0.18500
1438.79208	0.18467
1436.86341	0.18437
1434.93473	0.18466
1433.00605	0.18519
1431.07738	0.18542
1429.14870	0.18553
1427.22003	0.18564
1425.29135	0.18565
1423.36268	0.18557
1421.43400	0.18531
1419.50532	0.18502
1417.57665	0.18518
1415.64797	0.18570
1413.71930	0.18599
1411.79062	0.18601
1409.86195	0.18599
1407.93327	0.18597
1406.00459	0.18588
1404.07592	0.18589
1402.14724	0.18593
1400.21857	0.18575
1398.28989	0.18545
1396.36122	0.18529
1394.43254	0.18536
1392.50386	0.18561
1390.57519	0.18561
1388.64651	0.18523
1386.71784	0.18486
1384.78916	0.18477
1382.86049	0.18484
1380.93181	0.18493
1379.00313	0.18494
1377.07446	0.18481
1375.14578	0.18465
1373.21711	0.18473
1371.28843	0.18492
1369.35976	0.18496
1367.43108	0.18489
1365.50240	0.18476
1363.57373	0.18457
1361.64505	0.18454
1359.71638	0.18471
1357.78770	0.18486
1355.85903	0.18488
1353.93035	0.18487
1352.00167	0.18495
1350.07300	0.18509
1348.14432	0.18527
1346.21565	0.18540
1344.28697	0.18544
1342.35830	0.18532
1340.42962	0.18510
1338.50094	0.18504
1336.57227	0.18513
1334.64359	0.18516
1332.71492	0.18511
1330.78624	0.18502
1328.85757	0.18487
1326.92889	0.18471
1325.00021	0.18458
1323.07154	0.18437
1321.14286	0.18409
1319.21419	0.18388
1317.28551	0.18375
1315.35684	0.18361
1313.42816	0.18345
1311.49948	0.18329
1309.57081	0.18311
1307.64213	0.18289
1305.71346	0.18266
1303.78478	0.18247
1301.85611	0.18228
1299.92743	0.18211
1297.99875	0.18197
1296.07008	0.18182
1294.14140	0.18165
1292.21273	0.18143
1290.28405	0.18117
1288.35538	0.18093
1286.42670	0.18078
1284.49802	0.18064
1282.56935	0.18048
1280.64067	0.18028
1278.71200	0.18006
1276.78332	0.17977
1274.85465	0.17937
1272.92597	0.17884
1270.99729	0.17822
1269.06862	0.17747
1267.13994	0.17661
1265.21127	0.17584
1263.28259	0.17533
1261.35392	0.17514
1259.42524	0.17520
1257.49656	0.17535
1255.56789	0.17547
1253.63921	0.17546
1251.71054	0.17531
1249.78186	0.17508
1247.85319	0.17479
1245.92451	0.17446
1243.99583	0.17412
1242.06716	0.17378
1240.13848	0.17340
1238.20981	0.17298
1236.28113	0.17250
1234.35246	0.17196
1232.42378	0.17143
1230.49510	0.17090
1228.56643	0.17032
1226.63775	0.16978
1224.70908	0.16934
1222.78040	0.16894
1220.85173	0.16846
1218.92305	0.16797
1216.99437	0.16753
1215.06570	0.16708
1213.13702	0.16655
1211.20835	0.16603
1209.27967	0.16555
1207.35100	0.16508
1205.42232	0.16455
1203.49364	0.16394
1201.56497	0.16331
1199.63629	0.16273
1197.70762	0.16221
1195.77894	0.16169
1193.85027	0.16113
1191.92159	0.16057
1189.99291	0.15999
1188.06424	0.15937
1186.13556	0.15868
1184.20689	0.15797
1182.27821	0.15724
1180.34954	0.15647
1178.42086	0.15568
1176.49218	0.15491
1174.56351	0.15413
1172.63483	0.15332
1170.70616	0.15249
1168.77748	0.15168
1166.84881	0.15092
1164.92013	0.15018
1162.99145	0.14944
1161.06278	0.14872
1159.13410	0.14804
1157.20543	0.14736
1155.27675	0.14666
1153.34808	0.14590
1151.41940	0.14512
1149.49072	0.14436
1147.56205	0.14363
1145.63337	0.14290
1143.70470	0.14209
1141.77602	0.14123
1139.84735	0.14037
1137.91867	0.13944
1135.98999	0.13834
1134.06132	0.13708
1132.13264	0.13570
1130.20397	0.13414
1128.27529	0.13232
1126.34662	0.13034
1124.41794	0.12833
1122.48926	0.12635
1120.56059	0.12438
1118.63191	0.12245
1116.70324	0.12067
1114.77456	0.11905
1112.84589	0.11759
1110.91721	0.11638
1108.98853	0.11545
1107.05986	0.11481
1105.13118	0.11442
1103.20251	0.11425
1101.27383	0.11427
1099.34516	0.11453
1097.41648	0.11502
1095.48780	0.11560
1093.55913	0.11619
1091.63045	0.11682
1089.70178	0.11745
1087.77310	0.11800
1085.84443	0.11850
1083.91575	0.11900
1081.98707	0.11942
1080.05840	0.11966
1078.12972	0.11981
1076.20105	0.11995
1074.27237	0.12005
1072.34370	0.12009
1070.41502	0.12010
1068.48634	0.12014
1066.55767	0.12023
1064.62899	0.12039
1062.70032	0.12059
1060.77164	0.12081
1058.84297	0.12105
1056.91429	0.12130
1054.98561	0.12154
1053.05694	0.12175
1051.12826	0.12199
1049.19959	0.12229
1047.27091	0.12265
1045.34224	0.12303
1043.41356	0.12343
1041.48488	0.12386
1039.55621	0.12428
1037.62753	0.12458
1035.69886	0.12483
1033.77018	0.12514
1031.84151	0.12551
1029.91283	0.12586
1027.98415	0.12617
1026.05548	0.12645
1024.12680	0.12678
1022.19813	0.12713
1020.26945	0.12743
1018.34078	0.12775
1016.41210	0.12815
1014.48342	0.12862
1012.55475	0.12915
1010.62607	0.12974
1008.69740	0.13039
1006.76872	0.13101
1004.84005	0.13152
1002.91137	0.13187
1000.98269	0.13209
999.05402	0.13227
997.12534	0.13248
995.19667	0.13268
993.26799	0.13281
991.33932	0.13283
989.41064	0.13284
987.48196	0.13295
985.55329	0.13310
983.62461	0.13316
981.69594	0.13311
979.76726	0.13303
977.83859	0.13294
975.90991	0.13280
973.98123	0.13266
972.05256	0.13258
970.12388	0.13247
968.19521	0.13232
966.26653	0.13217
964.33786	0.13203
962.40918	0.13182
960.48050	0.13161
958.55183	0.13144
956.62315	0.13127
954.69448	0.13110
952.76580	0.13095
950.83713	0.13081
948.90845	0.13068
946.97977	0.13053
945.05110	0.13032
943.12242	0.13006
941.19375	0.12976
939.26507	0.12940
937.33640	0.12897
935.40772	0.12851
933.47904	0.12810
931.55037	0.12774
929.62169	0.12737
927.69302	0.12693
925.76434	0.12644
923.83567	0.12594
921.90699	0.12542
919.97831	0.12486
918.04964	0.12426
916.12096	0.12364
914.19229	0.12294
912.26361	0.12217
910.33494	0.12146
908.40626	0.12087
906.47758	0.12031
904.54891	0.11966
902.62023	0.11898
900.69156	0.11843
898.76288	0.11801
896.83421	0.11762
894.90553	0.11723
892.97685	0.11686
891.04818	0.11643
889.11950	0.11594
887.19083	0.11550
885.26215	0.11517
883.33348	0.11490
881.40480	0.11463
879.47612	0.11436
877.54745	0.11405
875.61877	0.11372
873.69010	0.11346
871.76142	0.11321
869.83275	0.11292
867.90407	0.11267
865.97539	0.11253
864.04672	0.11246
862.11804	0.11236
860.18937	0.11227
858.26069	0.11223
856.33202	0.11217
854.40334	0.11206
852.47466	0.11188
850.54599	0.11157
848.61731	0.11121
846.68864	0.11091
844.75996	0.11066
842.83129	0.11041
840.90261	0.11014
838.97394	0.10987
837.04526	0.10952
835.11658	0.10893
833.18791	0.10808
831.25923	0.10713
829.33056	0.10619
827.40188	0.10525
825.47321	0.10430
823.54453	0.10346
821.61585	0.10276
819.68718	0.10221
817.75850	0.10179
815.82983	0.10143
813.90115	0.10105
811.97248	0.10070
810.04380	0.10043
808.11512	0.10024
806.18645	0.10012
804.25777	0.10004
802.32910	0.09995
800.40042	0.09971
798.47175	0.09925
796.54307	0.09870
794.61439	0.09821
792.68572	0.09781
790.75704	0.09748
788.82837	0.09730
786.89969	0.09717
784.97102	0.09696
783.04234	0.09670
781.11366	0.09639
779.18499	0.09601
777.25631	0.09566
775.32764	0.09542
773.39896	0.09523
771.47029	0.09502
769.54161	0.09472
767.61293	0.09437
765.68426	0.09399
763.75558	0.09362
761.82691	0.09327
759.89823	0.09285
757.96956	0.09234
756.04088	0.09177
754.11220	0.09117
752.18353	0.09058
750.25485	0.09000
748.32618	0.08938
746.39750	0.08866
744.46883	0.08782
742.54015	0.08693
740.61147	0.08615
738.68280	0.08564
736.75412	0.08541
734.82545	0.08538
732.89677	0.08546
730.96810	0.08555
729.03942	0.08560
727.11074	0.08570
725.18207	0.08584
723.25339	0.08593
721.32472	0.08600
719.39604	0.08618
717.46737	0.08651
715.53869	0.08689
713.61001	0.08725
711.68134	0.08755
709.75266	0.08774
707.82399	0.08782
705.89531	0.08779
703.96664	0.08763
702.03796	0.08739
700.10928	0.08710
698.18061	0.08667
696.25193	0.08610
694.32326	0.08553
692.39458	0.08503
690.46591	0.08455
688.53723	0.08405
686.60855	0.08354
684.67988	0.08303
682.75120	0.08258
680.82253	0.08216
678.89385	0.08164
676.96518	0.08103
675.03650	0.08044
673.10782	0.07982
671.17915	0.07905
669.25047	0.07818
667.32180	0.07737
665.39312	0.07667
663.46445	0.07603
661.53577	0.07537
659.60709	0.07468
657.67842	0.07396
655.74974	0.07315
653.82107	0.07231
651.89239	0.07157
649.96372	0.07086
648.03504	0.07011
646.10636	0.06933
644.17769	0.06850
642.24901	0.06759
640.32034	0.06662
638.39166	0.06567
636.46299	0.06476
634.53431	0.06378
632.60563	0.06246
630.67696	0.06034
628.74828	0.05712
626.81961	0.05316
624.89093	0.04919
622.96226	0.04591
621.03358	0.04378
619.10490	0.04265
617.17623	0.04194
615.24755	0.04115
613.31888	0.04014
611.39020	0.03920
609.46153	0.03878
607.53285	0.03893
605.60417	0.03933
603.67550	0.03980
601.74682	0.04041
599.81815	0.04120
597.88947	0.04196
595.96080	0.04254
594.03212	0.04293
592.10344	0.04320
590.17477	0.04337
588.24609	0.04337
586.31742	0.04324
584.38874	0.04302
582.46007	0.04273
580.53139	0.04234
578.60271	0.04193
576.67404	0.04153
574.74536	0.04109
572.81669	0.04053
570.88801	0.03990
568.95934	0.03928
567.03066	0.03878
565.10198	0.03848
563.17331	0.03830
561.24463	0.03809
559.31596	0.03786
557.38728	0.03762
555.45861	0.03739
553.52993	0.03719
551.60125	0.03701
549.67258	0.03680
547.74390	0.03660
545.81523	0.03648
543.88655	0.03641
541.95788	0.03633
540.02920	0.03620
538.10052	0.03603
536.17185	0.03583
534.24317	0.03561
532.31450	0.03538
530.38582	0.03513
528.45715	0.03483
526.52847	0.03451
524.59979	0.03423
522.67112	0.03403
520.74244	0.03377
518.81377	0.03332
516.88509	0.03271
514.95642	0.03211
513.02774	0.03167
511.09906	0.03145
509.17039	0.03132
507.24171	0.03111
505.31304	0.03074
503.38436	0.03030
501.45569	0.02989
499.52701	0.02948
497.59833	0.02904
495.66966	0.02858
493.74098	0.02806
491.81231	0.02752
489.88363	0.02703
487.95496	0.02659
486.02628	0.02618
484.09760	0.02574
482.16893	0.02521
480.24025	0.02463
478.31158	0.02409
476.38290	0.02365
474.45423	0.02326
472.52555	0.02284
470.59687	0.02235
468.66820	0.02183
466.73952	0.02148
464.81085	0.02133
462.88217	0.02120
460.95350	0.02100
459.02482	0.02082
457.09614	0.02076
455.16747	0.02084
453.23879	0.02090
451.31012	0.02091
449.38144	0.02091
447.45277	0.02081
445.52409	0.02052
443.59541	0.02015
441.66674	0.01982
439.73806	0.01950
437.80939	0.01916
435.88071	0.01878
433.95204	0.01831
432.02336	0.01784
430.09468	0.01731
428.16601	0.01670
426.23733	0.01611
424.30866	0.01551
422.37998	0.01479
420.45131	0.01409
418.52263	0.01350
416.59395	0.01302
414.66528	0.01255
412.73660	0.01197
410.80793	0.01130
408.87925	0.01069
406.95058	0.01013
405.02190	0.00955
403.09322	0.00893
401.16455	0.00832
399.23587	0.00778
397.30720	0.00731
395.37852	0.00688
393.44985	0.00648
391.52117	0.00615
389.59249	0.00579
387.66382	0.00536
385.73514	0.00494
383.80647	0.00455
381.87779	0.00419
379.94912	0.00390
378.02044	0.00363
376.09176	0.00337
374.16309	0.00314
372.23441	0.00293
370.30574	0.00268
368.37706	0.00232
