7496.76250	0.00107
7494.83382	0.00107
7492.90514	0.00108
7490.97647	0.00109
7489.04779	0.00111
7487.11912	0.00112
7485.19044	0.00112
7483.26177	0.00112
7481.33309	0.00112
7479.40441	0.00113
7477.47574	0.00113
7475.54706	0.00112
7473.61839	0.00111
7471.68971	0.00113
7469.76104	0.00116
7467.83236	0.00116
7465.90368	0.00115
7463.97501	0.00115
7462.04633	0.00116
7460.11766	0.00116
7458.18898	0.00116
7456.26031	0.00116
7454.33163	0.00117
7452.40295	0.00117
7450.47428	0.00117
7448.54560	0.00116
7446.61693	0.00116
7444.68825	0.00116
7442.75958	0.00117
7440.83090	0.00117
7438.90222	0.00117
7436.97355	0.00117
7435.04487	0.00117
7433.11620	0.00118
7431.18752	0.00118
7429.25885	0.00119
7427.33017	0.00119
7425.40149	0.00119
7423.47282	0.00120
7421.54414	0.00121
7419.61547	0.00122
7417.68679	0.00124
7415.75812	0.00123
7413.82944	0.00122
7411.90076	0.00122
7409.97209	0.00123
7408.04341	0.00124
7406.11474	0.00124
7404.18606	0.00124
7402.25739	0.00125
7400.32871	0.00126
7398.40003	0.00127
7396.47136	0.00126
7394.54268	0.00126
7392.61401	0.00126
7390.68533	0.00125
7388.75666	0.00126
7386.82798	0.00127
7384.89930	0.00128
7382.97063	0.00128
7381.04195	0.00129
7379.11328	0.00130
7377.18460	0.00129
7375.25593	0.00128
7373.32725	0.00127
7371.39857	0.00127
7369.46990	0.00128
7367.54122	0.00129
7365.61255	0.00129
7363.68387	0.00130
7361.75520	0.00131
7359.82652	0.00131
7357.89784	0.00132
7355.96917	0.00132
7354.04049	0.00133
7352.11182	0.00133
7350.18314	0.00133
7348.25447	0.00134
7346.32579	0.00134
7344.39711	0.00134
7342.46844	0.00135
7340.53976	0.00135
7338.61109	0.00134
7336.68241	0.00134
7334.75374	0.00136
7332.82506	0.00137
7330.89638	0.00136
7328.96771	0.00136
7327.03903	0.00136
7325.11036	0.00137
7323.18168	0.00137
7321.25301	0.00138
7319.32433	0.00138
7317.39565	0.00139
7315.46698	0.00138
7313.53830	0.00137
7311.60963	0.00137
7309.68095	0.00138
7307.75228	0.00141
7305.82360	0.00142
7303.89492	0.00142
7301.96625	0.00142
7300.03757	0.00142
7298.10890	0.00141
7296.18022	0.00139
7294.25155	0.00139
7292.32287	0.00141
7290.39419	0.00143
7288.46552	0.00143
7286.53684	0.00142
7284.60817	0.00142
7282.67949	0.00143
7280.75082	0.00144
7278.82214	0.00145
7276.89346	0.00145
7274.96479	0.00146
7273.03611	0.00148
7271.10744	0.00150
7269.17876	0.00150
7267.25009	0.00148
7265.32141	0.00147
7263.39273	0.00146
7261.46406	0.00146
7259.53538	0.00147
7257.60671	0.00147
7255.67803	0.00147
7253.74936	0.00147
7251.82068	0.00148
7249.89200	0.00150
7247.96333	0.00150
7246.03465	0.00149
7244.10598	0.00149
7242.17730	0.00149
7240.24863	0.00150
7238.31995	0.00151
7236.39127	0.00150
7234.46260	0.00149
7232.53392	0.00150
7230.60525	0.00150
7228.67657	0.00151
7226.74790	0.00152
7224.81922	0.00153
7222.89054	0.00153
7220.96187	0.00153
7219.03319	0.00155
7217.10452	0.00156
7215.17584	0.00156
7213.24717	0.00157
7211.31849	0.00158
7209.38981	0.00158
7207.46114	0.00158
7205.53246	0.00159
7203.60379	0.00160
7201.67511	0.00162
7199.74644	0.00162
7197.81776	0.00160
7195.88908	0.00159
7193.96041	0.00159
7192.03173	0.00161
7190.10306	0.00161
7188.17438	0.00161
7186.24571	0.00162
7184.31703	0.00163
7182.38835	0.00164
7180.45968	0.00164
7178.53100	0.00164
7176.60233	0.00164
7174.67365	0.00165
7172.74498	0.00165
7170.81630	0.00166
7168.88762	0.00167
7166.95895	0.00168
7165.03027	0.00167
7163.10160	0.00165
7161.17292	0.00164
7159.24425	0.00166
7157.31557	0.00167
7155.38689	0.00168
7153.45822	0.00168
7151.52954	0.00168
7149.60087	0.00168
7147.67219	0.00169
7145.74352	0.00169
7143.81484	0.00168
7141.88616	0.00169
7139.95749	0.00170
7138.02881	0.00170
7136.10014	0.00170
7134.17146	0.00171
7132.24279	0.00172
7130.31411	0.00172
7128.38543	0.00172
7126.45676	0.00173
7124.52808	0.00172
7122.59941	0.00171
7120.67073	0.00172
7118.74206	0.00173
7116.81338	0.00175
7114.88470	0.00177
7112.95603	0.00177
7111.02735	0.00176
7109.09868	0.00175
7107.17000	0.00175
7105.24133	0.00177
7103.31265	0.00178
7101.38397	0.00180
7099.45530	0.00181
7097.52662	0.00182
7095.59795	0.00182
7093.66927	0.00182
7091.74060	0.00181
7089.81192	0.00180
7087.88324	0.00182
7085.95457	0.00183
7084.02589	0.00183
7082.09722	0.00184
7080.16854	0.00185
7078.23987	0.00184
7076.31119	0.00183
7074.38251	0.00185
7072.45384	0.00187
7070.52516	0.00186
7068.59649	0.00184
7066.66781	0.00184
7064.73914	0.00186
7062.81046	0.00187
7060.88178	0.00187
7058.95311	0.00187
7057.02443	0.00188
7055.09576	0.00190
7053.16708	0.00189
7051.23841	0.00187
7049.30973	0.00188
7047.38105	0.00190
7045.45238	0.00192
7043.52370	0.00192
7041.59503	0.00191
7039.66635	0.00191
7037.73768	0.00191
7035.80900	0.00191
7033.88032	0.00192
7031.95165	0.00191
7030.02297	0.00191
7028.09430	0.00191
7026.16562	0.00193
7024.23695	0.00194
7022.30827	0.00193
7020.37959	0.00192
7018.45092	0.00194
7016.52224	0.00195
7014.59357	0.00195
7012.66489	0.00195
7010.73622	0.00195
7008.80754	0.00197
7006.87886	0.00200
7004.95019	0.00200
7003.02151	0.00199
7001.09284	0.00199
6999.16416	0.00199
6997.23549	0.00199
6995.30681	0.00200
6993.37813	0.00201
6991.44946	0.00202
6989.52078	0.00203
6987.59211	0.00204
6985.66343	0.00204
6983.73476	0.00203
6981.80608	0.00203
6979.87740	0.00204
6977.94873	0.00205
6976.02005	0.00205
6974.09138	0.00205
6972.16270	0.00204
6970.23403	0.00204
6968.30535	0.00205
6966.37667	0.00207
6964.44800	0.00209
6962.51932	0.00209
6960.59065	0.00209
6958.66197	0.00210
6956.73330	0.00210
6954.80462	0.00210
6952.87594	0.00211
6950.94727	0.00213
6949.01859	0.00212
6947.08992	0.00209
6945.16124	0.00207
6943.23257	0.00208
6941.30389	0.00212
6939.37521	0.00214
6937.44654	0.00213
6935.51786	0.00213
6933.58919	0.00214
6931.66051	0.00216
6929.73184	0.00217
6927.80316	0.00216
6925.87448	0.00216
6923.94581	0.00217
6922.01713	0.00218
6920.08846	0.00218
6918.15978	0.00218
6916.23111	0.00219
6914.30243	0.00220
6912.37375	0.00221
6910.44508	0.00222
6908.51640	0.00223
6906.58773	0.00223
6904.65905	0.00223
6902.73038	0.00224
6900.80170	0.00224
6898.87302	0.00224
6896.94435	0.00225
6895.01567	0.00225
6893.08700	0.00224
6891.15832	0.00225
6889.22965	0.00226
6887.30097	0.00228
6885.37229	0.00228
6883.44362	0.00228
6881.51494	0.00228
6879.58627	0.00229
6877.65759	0.00229
6875.72892	0.00228
6873.80024	0.00226
6871.87156	0.00226
6869.94289	0.00228
6868.01421	0.00230
6866.08554	0.00232
6864.15686	0.00233
6862.22819	0.00232
6860.29951	0.00232
6858.37083	0.00232
6856.44216	0.00233
6854.51348	0.00234
6852.58481	0.00235
6850.65613	0.00235
6848.72746	0.00235
6846.79878	0.00235
6844.87010	0.00237
6842.94143	0.00239
6841.01275	0.00239
6839.08408	0.00239
6837.15540	0.00239
6835.22673	0.00240
6833.29805	0.00241
6831.36937	0.00242
6829.44070	0.00243
6827.51202	0.00243
6825.58335	0.00242
6823.65467	0.00242
6821.72600	0.00243
6819.79732	0.00244
6817.86864	0.00244
6815.93997	0.00244
6814.01129	0.00246
6812.08262	0.00247
6810.15394	0.00247
6808.22527	0.00246
6806.29659	0.00247
6804.36791	0.00248
6802.43924	0.00248
6800.51056	0.00249
6798.58189	0.00250
6796.65321	0.00250
6794.72454	0.00249
6792.79586	0.00250
6790.86718	0.00252
6788.93851	0.00253
6787.00983	0.00253
6785.08116	0.00253
6783.15248	0.00254
6781.22381	0.00253
6779.29513	0.00253
6777.36645	0.00253
6775.43778	0.00253
6773.50910	0.00253
6771.58043	0.00254
6769.65175	0.00255
6767.72308	0.00257
6765.79440	0.00258
6763.86572	0.00258
6761.93705	0.00258
6760.00837	0.00258
6758.07970	0.00259
6756.15102	0.00259
6754.22235	0.00259
6752.29367	0.00260
6750.36499	0.00262
6748.43632	0.00263
6746.50764	0.00264
6744.57897	0.00264
6742.65029	0.00266
6740.72162	0.00266
6738.79294	0.00266
6736.86426	0.00265
6734.93559	0.00266
6733.00691	0.00267
6731.07824	0.00267
6729.14956	0.00267
6727.22089	0.00267
6725.29221	0.00269
6723.36353	0.00271
6721.43486	0.00272
6719.50618	0.00273
6717.57751	0.00274
6715.64883	0.00275
6713.72016	0.00274
6711.79148	0.00273
6709.86280	0.00274
6707.93413	0.00274
6706.00545	0.00275
6704.07678	0.00276
6702.14810	0.00277
6700.21943	0.00277
6698.29075	0.00277
6696.36207	0.00276
6694.43340	0.00277
6692.50472	0.00278
6690.57605	0.00279
6688.64737	0.00280
6686.71870	0.00281
6684.79002	0.00282
6682.86134	0.00282
6680.93267	0.00283
6679.00399	0.00284
6677.07532	0.00285
6675.14664	0.00285
6673.21797	0.00285
6671.28929	0.00284
6669.36061	0.00283
6667.43194	0.00283
6665.50326	0.00283
6663.57459	0.00284
6661.64591	0.00286
6659.71724	0.00288
6657.78856	0.00287
6655.85988	0.00287
6653.93121	0.00288
6652.00253	0.00289
6650.07386	0.00290
6648.14518	0.00291
6646.21651	0.00293
6644.28783	0.00293
6642.35915	0.00293
6640.43048	0.00294
6638.50180	0.00297
6636.57313	0.00299
6634.64445	0.00298
6632.71578	0.00298
6630.78710	0.00299
6628.85842	0.00299
6626.92975	0.00299
6625.00107	0.00299
6623.07240	0.00301
6621.14372	0.00301
6619.21505	0.00301
6617.28637	0.00303
6615.35769	0.00304
6613.42902	0.00304
6611.50034	0.00304
6609.57167	0.00304
6607.64299	0.00305
6605.71432	0.00306
6603.78564	0.00306
6601.85696	0.00307
6599.92829	0.00308
6597.99961	0.00308
6596.07094	0.00308
6594.14226	0.00307
6592.21359	0.00307
6590.28491	0.00307
6588.35623	0.00309
6586.42756	0.00310
6584.49888	0.00312
6582.57021	0.00312
6580.64153	0.00312
6578.71286	0.00313
6576.78418	0.00315
6574.85550	0.00317
6572.92683	0.00317
6570.99815	0.00318
6569.06948	0.00319
6567.14080	0.00320
6565.21213	0.00319
6563.28345	0.00318
6561.35477	0.00318
6559.42610	0.00319
6557.49742	0.00322
6555.56875	0.00323
6553.64007	0.00323
6551.71140	0.00323
6549.78272	0.00323
6547.85404	0.00325
6545.92537	0.00327
6543.99669	0.00329
6542.06802	0.00330
6540.13934	0.00330
6538.21067	0.00330
6536.28199	0.00330
6534.35331	0.00331
6532.42464	0.00333
6530.49596	0.00334
6528.56729	0.00334
6526.63861	0.00333
6524.70994	0.00332
6522.78126	0.00333
6520.85258	0.00335
6518.92391	0.00336
6516.99523	0.00336
6515.06656	0.00336
6513.13788	0.00337
6511.20921	0.00338
6509.28053	0.00339
6507.35185	0.00340
6505.42318	0.00342
6503.49450	0.00343
6501.56583	0.00344
6499.63715	0.00343
6497.70848	0.00342
6495.77980	0.00341
6493.85112	0.00342
6491.92245	0.00342
6489.99377	0.00343
6488.06510	0.00346
6486.13642	0.00348
6484.20775	0.00348
6482.27907	0.00348
6480.35039	0.00349
6478.42172	0.00350
6476.49304	0.00351
6474.56437	0.00353
6472.63569	0.00356
6470.70702	0.00357
6468.77834	0.00357
6466.84966	0.00357
6464.92099	0.00357
6462.99231	0.00357
6461.06364	0.00357
6459.13496	0.00357
6457.20629	0.00358
6455.27761	0.00359
6453.34893	0.00360
6451.42026	0.00361
6449.49158	0.00363
6447.56291	0.00364
6445.63423	0.00365
6443.70556	0.00366
6441.77688	0.00366
6439.84820	0.00366
6437.91953	0.00365
6435.99085	0.00365
6434.06218	0.00365
6432.13350	0.00366
6430.20483	0.00369
6428.27615	0.00370
6426.34747	0.00370
6424.41880	0.00370
6422.49012	0.00371
6420.56145	0.00372
6418.63277	0.00373
6416.70410	0.00373
6414.77542	0.00374
6412.84674	0.00376
6410.91807	0.00377
6408.98939	0.00379
6407.06072	0.00382
6405.13204	0.00382
6403.20337	0.00380
6401.27469	0.00379
6399.34601	0.00380
6397.41734	0.00381
6395.48866	0.00382
6393.55999	0.00384
6391.63131	0.00385
6389.70264	0.00384
6387.77396	0.00385
6385.84528	0.00387
6383.91661	0.00388
6381.98793	0.00389
6380.05926	0.00390
6378.13058	0.00391
6376.20191	0.00391
6374.27323	0.00392
6372.34455	0.00393
6370.41588	0.00394
6368.48720	0.00394
6366.55853	0.00394
6364.62985	0.00395
6362.70118	0.00396
6360.77250	0.00397
6358.84382	0.00400
6356.91515	0.00402
6354.98647	0.00402
6353.05780	0.00402
6351.12912	0.00403
6349.20045	0.00403
6347.27177	0.00404
6345.34309	0.00406
6343.41442	0.00406
6341.48574	0.00406
6339.55707	0.00405
6337.62839	0.00405
6335.69972	0.00406
6333.77104	0.00406
6331.84236	0.00406
6329.91369	0.00407
6327.98501	0.00410
6326.05634	0.00412
6324.12766	0.00414
6322.19899	0.00415
6320.27031	0.00416
6318.34163	0.00418
6316.41296	0.00418
6314.48428	0.00417
6312.55561	0.00417
6310.62693	0.00418
6308.69826	0.00420
6306.76958	0.00422
6304.84090	0.00423
6302.91223	0.00423
6300.98355	0.00423
6299.05488	0.00424
6297.12620	0.00427
6295.19753	0.00429
6293.26885	0.00431
6291.34017	0.00432
6289.41150	0.00432
6287.48282	0.00432
6285.55415	0.00432
6283.62547	0.00432
6281.69680	0.00432
6279.76812	0.00433
6277.83944	0.00434
6275.91077	0.00435
6273.98209	0.00436
6272.05342	0.00438
6270.12474	0.00440
6268.19607	0.00441
6266.26739	0.00440
6264.33871	0.00441
6262.41004	0.00443
6260.48136	0.00446
6258.55269	0.00448
6256.62401	0.00447
6254.69534	0.00446
6252.76666	0.00445
6250.83798	0.00446
6248.90931	0.00448
6246.98063	0.00450
6245.05196	0.00452
6243.12328	0.00451
6241.19461	0.00451
6239.26593	0.00453
6237.33725	0.00456
6235.40858	0.00458
6233.47990	0.00458
6231.55123	0.00457
6229.62255	0.00458
6227.69388	0.00459
6225.76520	0.00459
6223.83652	0.00461
6221.90785	0.00462
6219.97917	0.00464
6218.05050	0.00466
6216.12182	0.00468
6214.19315	0.00469
6212.26447	0.00469
6210.33579	0.00468
6208.40712	0.00469
6206.47844	0.00471
6204.54977	0.00472
6202.62109	0.00471
6200.69242	0.00473
6198.76374	0.00475
6196.83506	0.00475
6194.90639	0.00475
6192.97771	0.00477
6191.04904	0.00479
6189.12036	0.00480
6187.19169	0.00480
6185.26301	0.00480
6183.33433	0.00481
6181.40566	0.00482
6179.47698	0.00482
6177.54831	0.00484
6175.61963	0.00486
6173.69096	0.00486
6171.76228	0.00486
6169.83360	0.00487
6167.90493	0.00489
6165.97625	0.00489
6164.04758	0.00490
6162.11890	0.00493
6160.19023	0.00495
6158.26155	0.00495
6156.33287	0.00494
6154.40420	0.00495
6152.47552	0.00497
6150.54685	0.00500
6148.61817	0.00501
6146.68950	0.00501
6144.76082	0.00502
6142.83214	0.00503
6140.90347	0.00503
6138.97479	0.00504
6137.04612	0.00504
6135.11744	0.00504
6133.18877	0.00505
6131.26009	0.00506
6129.33141	0.00509
6127.40274	0.00511
6125.47406	0.00512
6123.54539	0.00512
6121.61671	0.00513
6119.68804	0.00514
6117.75936	0.00516
6115.83068	0.00518
6113.90201	0.00520
6111.97333	0.00521
6110.04466	0.00522
6108.11598	0.00521
6106.18731	0.00521
6104.25863	0.00522
6102.32995	0.00523
6100.40128	0.00524
6098.47260	0.00526
6096.54393	0.00527
6094.61525	0.00528
6092.68658	0.00528
6090.75790	0.00531
6088.82922	0.00534
6086.90055	0.00534
6084.97187	0.00534
6083.04320	0.00534
6081.11452	0.00536
6079.18585	0.00537
6077.25717	0.00540
6075.32849	0.00542
6073.39982	0.00543
6071.47114	0.00544
6069.54247	0.00545
6067.61379	0.00546
6065.68512	0.00546
6063.75644	0.00546
6061.82776	0.00547
6059.89909	0.00548
6057.97041	0.00549
6056.04174	0.00551
6054.11306	0.00552
6052.18439	0.00554
6050.25571	0.00555
6048.32703	0.00556
6046.39836	0.00557
6044.46968	0.00559
6042.54101	0.00560
6040.61233	0.00560
6038.68366	0.00561
6036.75498	0.00562
6034.82630	0.00564
6032.89763	0.00567
6030.96895	0.00569
6029.04028	0.00568
6027.11160	0.00568
6025.18293	0.00568
6023.25425	0.00570
6021.32557	0.00570
6019.39690	0.00571
6017.46822	0.00573
6015.53955	0.00575
6013.61087	0.00578
6011.68220	0.00580
6009.75352	0.00581
6007.82484	0.00582
6005.89617	0.00583
6003.96749	0.00585
6002.03882	0.00585
6000.11014	0.00585
5998.18147	0.00586
5996.25279	0.00587
5994.32411	0.00588
5992.39544	0.00589
5990.46676	0.00592
5988.53809	0.00593
5986.60941	0.00594
5984.68074	0.00595
5982.75206	0.00598
5980.82338	0.00600
5978.89471	0.00600
5976.96603	0.00601
5975.03736	0.00604
5973.10868	0.00608
5971.18001	0.00609
5969.25133	0.00609
5967.32265	0.00609
5965.39398	0.00609
5963.46530	0.00610
5961.53663	0.00610
5959.60795	0.00610
5957.67928	0.00610
5955.75060	0.00611
5953.82192	0.00615
5951.89325	0.00618
5949.96457	0.00621
5948.03590	0.00624
5946.10722	0.00626
5944.17855	0.00627
5942.24987	0.00626
5940.32119	0.00626
5938.39252	0.00627
5936.46384	0.00628
5934.53517	0.00629
5932.60649	0.00629
5930.67782	0.00628
5928.74914	0.00630
5926.82046	0.00634
5924.89179	0.00637
5922.96311	0.00638
5921.03444	0.00638
5919.10576	0.00638
5917.17709	0.00639
5915.24841	0.00641
5913.31973	0.00643
5911.39106	0.00646
5909.46238	0.00647
5907.53371	0.00648
5905.60503	0.00649
5903.67636	0.00651
5901.74768	0.00653
5899.81900	0.00654
5897.89033	0.00655
5895.96165	0.00655
5894.03298	0.00656
5892.10430	0.00657
5890.17563	0.00658
5888.24695	0.00659
5886.31827	0.00661
5884.38960	0.00664
5882.46092	0.00667
5880.53225	0.00669
5878.60357	0.00668
5876.67490	0.00668
5874.74622	0.00669
5872.81755	0.00670
5870.88887	0.00673
5868.96019	0.00674
5867.03152	0.00675
5865.10284	0.00674
5863.17417	0.00674
5861.24549	0.00677
5859.31682	0.00680
5857.38814	0.00681
5855.45946	0.00683
5853.53079	0.00685
5851.60211	0.00687
5849.67344	0.00689
5847.74476	0.00691
5845.81609	0.00691
5843.88741	0.00691
5841.95873	0.00691
5840.03006	0.00693
5838.10138	0.00697
5836.17271	0.00699
5834.24403	0.00700
5832.31536	0.00701
5830.38668	0.00703
5828.45800	0.00704
5826.52933	0.00705
5824.60065	0.00706
5822.67198	0.00707
5820.74330	0.00710
5818.81463	0.00712
5816.88595	0.00714
5814.95727	0.00715
5813.02860	0.00717
5811.09992	0.00719
5809.17125	0.00720
5807.24257	0.00720
5805.31390	0.00720
5803.38522	0.00721
5801.45654	0.00723
5799.52787	0.00724
5797.59919	0.00724
5795.67052	0.00725
5793.74184	0.00728
5791.81317	0.00730
5789.88449	0.00733
5787.95581	0.00735
5786.02714	0.00736
5784.09846	0.00738
5782.16979	0.00740
5780.24111	0.00743
5778.31244	0.00744
5776.38376	0.00743
5774.45508	0.00744
5772.52641	0.00746
5770.59773	0.00747
5768.66906	0.00748
5766.74038	0.00749
5764.81171	0.00750
5762.88303	0.00752
5760.95435	0.00754
5759.02568	0.00755
5757.09700	0.00754
5755.16833	0.00756
5753.23965	0.00759
5751.31098	0.00763
5749.38230	0.00764
5747.45362	0.00765
5745.52495	0.00766
5743.59627	0.00769
5741.66760	0.00770
5739.73892	0.00770
5737.81025	0.00771
5735.88157	0.00774
5733.95289	0.00775
5732.02422	0.00777
5730.09554	0.00779
5728.16687	0.00782
5726.23819	0.00784
5724.30952	0.00785
5722.38084	0.00787
5720.45216	0.00788
5718.52349	0.00787
5716.59481	0.00785
5714.66614	0.00786
5712.73746	0.00789
5710.80879	0.00791
5708.88011	0.00792
5706.95143	0.00794
5705.02276	0.00798
5703.09408	0.00801
5701.16541	0.00802
5699.23673	0.00802
5697.30806	0.00802
5695.37938	0.00804
5693.45070	0.00806
5691.52203	0.00809
5689.59335	0.00810
5687.66468	0.00812
5685.73600	0.00813
5683.80733	0.00814
5681.87865	0.00816
5679.94997	0.00817
5678.02130	0.00820
5676.09262	0.00823
5674.16395	0.00824
5672.23527	0.00824
5670.30660	0.00826
5668.37792	0.00830
5666.44924	0.00830
5664.52057	0.00830
5662.59189	0.00831
5660.66322	0.00833
5658.73454	0.00836
5656.80587	0.00838
5654.87719	0.00840
5652.94851	0.00841
5651.01984	0.00843
5649.09116	0.00845
5647.16249	0.00846
5645.23381	0.00848
5643.30514	0.00851
5641.37646	0.00854
5639.44778	0.00855
5637.51911	0.00857
5635.59043	0.00859
5633.66176	0.00862
5631.73308	0.00863
5629.80441	0.00863
5627.87573	0.00864
5625.94705	0.00866
5624.01838	0.00868
5622.08970	0.00872
5620.16103	0.00874
5618.23235	0.00874
5616.30368	0.00875
5614.37500	0.00876
5612.44632	0.00879
5610.51765	0.00881
5608.58897	0.00883
5606.66030	0.00882
5604.73162	0.00883
5602.80295	0.00886
5600.87427	0.00888
5598.94559	0.00890
5597.01692	0.00893
5595.08824	0.00896
5593.15957	0.00896
5591.23089	0.00896
5589.30222	0.00898
5587.37354	0.00900
5585.44486	0.00903
5583.51619	0.00907
5581.58751	0.00910
5579.65884	0.00911
5577.73016	0.00910
5575.80149	0.00909
5573.87281	0.00910
5571.94413	0.00912
5570.01546	0.00915
5568.08678	0.00918
5566.15811	0.00920
5564.22943	0.00921
5562.30076	0.00922
5560.37208	0.00922
5558.44340	0.00925
5556.51473	0.00929
5554.58605	0.00931
5552.65738	0.00933
5550.72870	0.00935
5548.80003	0.00936
5546.87135	0.00938
5544.94267	0.00940
5543.01400	0.00943
5541.08532	0.00946
5539.15665	0.00947
5537.22797	0.00947
5535.29930	0.00946
5533.37062	0.00946
5531.44194	0.00949
5529.51327	0.00953
5527.58459	0.00955
5525.65592	0.00954
5523.72724	0.00955
5521.79857	0.00957
5519.86989	0.00961
5517.94121	0.00965
5516.01254	0.00967
5514.08386	0.00969
5512.15519	0.00969
5510.22651	0.00968
5508.29784	0.00970
5506.36916	0.00972
5504.44048	0.00976
5502.51181	0.00978
5500.58313	0.00982
5498.65446	0.00985
5496.72578	0.00986
5494.79711	0.00985
5492.86843	0.00986
5490.93975	0.00989
5489.01108	0.00991
5487.08240	0.00994
5485.15373	0.00997
5483.22505	0.00999
5481.29638	0.01002
5479.36770	0.01003
5477.43902	0.01002
5475.51035	0.01002
5473.58167	0.01004
5471.65300	0.01008
5469.72432	0.01011
5467.79565	0.01013
5465.86697	0.01014
5463.93829	0.01017
5462.00962	0.01018
5460.08094	0.01021
5458.15227	0.01023
5456.22359	0.01023
5454.29492	0.01023
5452.36624	0.01026
5450.43756	0.01029
5448.50889	0.01032
5446.58021	0.01034
5444.65154	0.01034
5442.72286	0.01035
5440.79419	0.01036
5438.86551	0.01038
5436.93683	0.01041
5435.00816	0.01044
5433.07948	0.01046
5431.15081	0.01047
5429.22213	0.01049
5427.29346	0.01051
5425.36478	0.01053
5423.43610	0.01055
5421.50743	0.01058
5419.57875	0.01062
5417.65008	0.01065
5415.72140	0.01065
5413.79273	0.01064
5411.86405	0.01065
5409.93537	0.01068
5408.00670	0.01073
5406.07802	0.01077
5404.14935	0.01078
5402.22067	0.01080
5400.29200	0.01083
5398.36332	0.01085
5396.43464	0.01085
5394.50597	0.01085
5392.57729	0.01087
5390.64862	0.01091
5388.71994	0.01094
5386.79127	0.01093
5384.86259	0.01091
5382.93391	0.01094
5381.00524	0.01098
5379.07656	0.01099
5377.14789	0.01101
5375.21921	0.01104
5373.29054	0.01108
5371.36186	0.01110
5369.43318	0.01113
5367.50451	0.01117
5365.57583	0.01119
5363.64716	0.01119
5361.71848	0.01121
5359.78981	0.01125
5357.86113	0.01127
5355.93245	0.01129
5354.00378	0.01130
5352.07510	0.01133
5350.14643	0.01135
5348.21775	0.01136
5346.28908	0.01135
5344.36040	0.01136
5342.43172	0.01140
5340.50305	0.01142
5338.57437	0.01142
5336.64570	0.01143
5334.71702	0.01147
5332.78835	0.01150
5330.85967	0.01154
5328.93099	0.01157
5327.00232	0.01159
5325.07364	0.01161
5323.14497	0.01164
5321.21629	0.01165
5319.28762	0.01164
5317.35894	0.01164
5315.43026	0.01166
5313.50159	0.01169
5311.57291	0.01172
5309.64424	0.01175
5307.71556	0.01177
5305.78689	0.01178
5303.85821	0.01181
5301.92953	0.01184
5300.00086	0.01187
5298.07218	0.01188
5296.14351	0.01189
5294.21483	0.01190
5292.28616	0.01191
5290.35748	0.01194
5288.42880	0.01197
5286.50013	0.01198
5284.57145	0.01199
5282.64278	0.01202
5280.71410	0.01206
5278.78543	0.01209
5276.85675	0.01211
5274.92807	0.01213
5272.99940	0.01216
5271.07072	0.01218
5269.14205	0.01220
5267.21337	0.01222
5265.28470	0.01222
5263.35602	0.01223
5261.42734	0.01227
5259.49867	0.01232
5257.56999	0.01234
5255.64132	0.01234
5253.71264	0.01235
5251.78397	0.01239
5249.85529	0.01243
5247.92661	0.01244
5245.99794	0.01244
5244.06926	0.01246
5242.14059	0.01249
5240.21191	0.01251
5238.28324	0.01252
5236.35456	0.01254
5234.42588	0.01257
5232.49721	0.01259
5230.56853	0.01260
5228.63986	0.01261
5226.71118	0.01261
5224.78251	0.01263
5222.85383	0.01267
5220.92515	0.01271
5218.99648	0.01275
5217.06780	0.01278
5215.13913	0.01281
5213.21045	0.01283
5211.28178	0.01285
5209.35310	0.01285
5207.42442	0.01285
5205.49575	0.01287
5203.56707	0.01291
5201.63840	0.01294
5199.70972	0.01296
5197.78105	0.01300
5195.85237	0.01304
5193.92369	0.01309
5191.99502	0.01310
5190.06634	0.01310
5188.13767	0.01310
5186.20899	0.01312
5184.28032	0.01315
5182.35164	0.01318
5180.42296	0.01322
5178.49429	0.01324
5176.56561	0.01326
5174.63694	0.01328
5172.70826	0.01331
5170.77959	0.01332
5168.85091	0.01333
5166.92223	0.01335
5164.99356	0.01340
5163.06488	0.01344
5161.13621	0.01345
5159.20753	0.01344
5157.27886	0.01346
5155.35018	0.01351
5153.42150	0.01357
5151.49283	0.01359
5149.56415	0.01360
5147.63548	0.01362
5145.70680	0.01365
5143.77813	0.01365
5141.84945	0.01366
5139.92077	0.01368
5137.99210	0.01370
5136.06342	0.01371
5134.13475	0.01371
5132.20607	0.01374
5130.27740	0.01378
5128.34872	0.01382
5126.42004	0.01385
5124.49137	0.01388
5122.56269	0.01391
5120.63402	0.01393
5118.70534	0.01396
5116.77667	0.01399
5114.84799	0.01399
5112.91931	0.01399
5110.99064	0.01399
5109.06196	0.01401
5107.13329	0.01405
5105.20461	0.01410
5103.27594	0.01415
5101.34726	0.01416
5099.41858	0.01416
5097.48991	0.01417
5095.56123	0.01420
5093.63256	0.01424
5091.70388	0.01426
5089.77521	0.01426
5087.84653	0.01428
5085.91785	0.01431
5083.98918	0.01435
5082.06050	0.01438
5080.13183	0.01441
5078.20315	0.01443
5076.27448	0.01443
5074.34580	0.01445
5072.41712	0.01448
5070.48845	0.01450
5068.55977	0.01453
5066.63110	0.01455
5064.70242	0.01459
5062.77375	0.01463
5060.84507	0.01465
5058.91639	0.01467
5056.98772	0.01471
5055.05904	0.01472
5053.13037	0.01473
5051.20169	0.01475
5049.27302	0.01480
5047.34434	0.01482
5045.41566	0.01483
5043.48699	0.01483
5041.55831	0.01486
5039.62964	0.01489
5037.70096	0.01491
5035.77229	0.01493
5033.84361	0.01498
5031.91493	0.01502
5029.98626	0.01504
5028.05758	0.01504
5026.12891	0.01504
5024.20023	0.01507
5022.27156	0.01511
5020.34288	0.01516
5018.41420	0.01520
5016.48553	0.01521
5014.55685	0.01521
5012.62818	0.01521
5010.69950	0.01525
5008.77083	0.01529
5006.84215	0.01531
5004.91347	0.01534
5002.98480	0.01537
5001.05612	0.01538
4999.12745	0.01538
4997.19877	0.01541
4995.27010	0.01544
4993.34142	0.01549
4991.41274	0.01552
4989.48407	0.01555
4987.55539	0.01557
4985.62672	0.01559
4983.69804	0.01561
4981.76937	0.01563
4979.84069	0.01566
4977.91201	0.01570
4975.98334	0.01576
4974.05466	0.01579
4972.12599	0.01579
4970.19731	0.01579
4968.26864	0.01580
4966.33996	0.01580
4964.41128	0.01585
4962.48261	0.01592
4960.55393	0.01597
4958.62526	0.01597
4956.69658	0.01596
4954.76791	0.01599
4952.83923	0.01604
4950.91055	0.01609
4948.98188	0.01611
4947.05320	0.01612
4945.12453	0.01612
4943.19585	0.01614
4941.26718	0.01619
4939.33850	0.01624
4937.40982	0.01627
4935.48115	0.01630
4933.55247	0.01632
4931.62380	0.01633
4929.69512	0.01632
4927.76645	0.01633
4925.83777	0.01637
4923.90909	0.01641
4921.98042	0.01644
4920.05174	0.01647
4918.12307	0.01650
4916.19439	0.01652
4914.26572	0.01653
4912.33704	0.01656
4910.40836	0.01658
4908.47969	0.01662
4906.55101	0.01666
4904.62234	0.01670
4902.69366	0.01672
4900.76499	0.01673
4898.83631	0.01676
4896.90763	0.01679
4894.97896	0.01683
4893.05028	0.01686
4891.12161	0.01686
4889.19293	0.01688
4887.26426	0.01692
4885.33558	0.01695
4883.40690	0.01698
4881.47823	0.01702
4879.54955	0.01705
4877.62088	0.01707
4875.69220	0.01708
4873.76353	0.01710
4871.83485	0.01714
4869.90617	0.01716
4867.97750	0.01715
4866.04882	0.01716
4864.12015	0.01719
4862.19147	0.01724
4860.26280	0.01728
4858.33412	0.01731
4856.40544	0.01734
4854.47677	0.01736
4852.54809	0.01739
4850.61942	0.01741
4848.69074	0.01744
4846.76207	0.01748
4844.83339	0.01751
4842.90471	0.01754
4840.97604	0.01757
4839.04736	0.01760
4837.11869	0.01761
4835.19001	0.01764
4833.26134	0.01768
4831.33266	0.01770
4829.40398	0.01772
4827.47531	0.01776
4825.54663	0.01781
4823.61796	0.01783
4821.68928	0.01783
4819.76061	0.01787
4817.83193	0.01793
4815.90325	0.01797
4813.97458	0.01798
4812.04590	0.01799
4810.11723	0.01803
4808.18855	0.01806
4806.25988	0.01807
4804.33120	0.01809
4802.40252	0.01813
4800.47385	0.01818
4798.54517	0.01821
4796.61650	0.01823
4794.68782	0.01826
4792.75915	0.01829
4790.83047	0.01830
4788.90179	0.01833
4786.97312	0.01839
4785.04444	0.01843
4783.11577	0.01845
4781.18709	0.01846
4779.25842	0.01848
4777.32974	0.01852
4775.40106	0.01855
4773.47239	0.01858
4771.54371	0.01861
4769.61504	0.01862
4767.68636	0.01862
4765.75769	0.01866
4763.82901	0.01872
4761.90033	0.01874
4759.97166	0.01875
4758.04298	0.01876
4756.11431	0.01880
4754.18563	0.01883
4752.25696	0.01887
4750.32828	0.01892
4748.39960	0.01898
4746.47093	0.01900
4744.54225	0.01902
4742.61358	0.01906
4740.68490	0.01910
4738.75623	0.01912
4736.82755	0.01912
4734.89887	0.01914
4732.97020	0.01917
4731.04152	0.01921
4729.11285	0.01924
4727.18417	0.01929
4725.25550	0.01932
4723.32682	0.01936
4721.39814	0.01940
4719.46947	0.01942
4717.54079	0.01943
4715.61212	0.01943
4713.68344	0.01946
4711.75477	0.01951
4709.82609	0.01956
4707.89741	0.01960
4705.96874	0.01962
4704.04006	0.01964
4702.11139	0.01966
4700.18271	0.01970
4698.25404	0.01976
4696.32536	0.01980
4694.39668	0.01983
4692.46801	0.01985
4690.53933	0.01987
4688.61066	0.01990
4686.68198	0.01994
4684.75331	0.02000
4682.82463	0.02003
4680.89595	0.02004
4678.96728	0.02003
4677.03860	0.02004
4675.10993	0.02007
4673.18125	0.02012
4671.25258	0.02016
4669.32390	0.02020
4667.39522	0.02025
4665.46655	0.02029
4663.53787	0.02032
4661.60920	0.02034
4659.68052	0.02037
4657.75185	0.02040
4655.82317	0.02043
4653.89449	0.02046
4651.96582	0.02049
4650.03714	0.02054
4648.10847	0.02059
4646.17979	0.02062
4644.25112	0.02066
4642.32244	0.02069
4640.39376	0.02070
4638.46509	0.02071
4636.53641	0.02075
4634.60774	0.02078
4632.67906	0.02082
4630.75039	0.02087
4628.82171	0.02092
4626.89303	0.02096
4624.96436	0.02097
4623.03568	0.02099
4621.10701	0.02104
4619.17833	0.02110
4617.24966	0.02116
4615.32098	0.02118
4613.39230	0.02120
4611.46363	0.02123
4609.53495	0.02128
4607.60628	0.02132
4605.67760	0.02133
4603.74893	0.02134
4601.82025	0.02137
4599.89157	0.02141
4597.96290	0.02146
4596.03422	0.02152
4594.10555	0.02157
4592.17687	0.02160
4590.24820	0.02163
4588.31952	0.02167
4586.39084	0.02170
4584.46217	0.02173
4582.53349	0.02175
4580.60482	0.02180
4578.67614	0.02185
4576.74747	0.02187
4574.81879	0.02188
4572.89011	0.02191
4570.96144	0.02194
4569.03276	0.02198
4567.10409	0.02201
4565.17541	0.02206
4563.24674	0.02212
4561.31806	0.02217
4559.38938	0.02223
4557.46071	0.02228
4555.53203	0.02230
4553.60336	0.02231
4551.67468	0.02233
4549.74601	0.02237
4547.81733	0.02241
4545.88865	0.02244
4543.95998	0.02248
4542.03130	0.02251
4540.10263	0.02255
4538.17395	0.02260
4536.24528	0.02264
4534.31660	0.02268
4532.38792	0.02272
4530.45925	0.02273
4528.53057	0.02275
4526.60190	0.02279
4524.67322	0.02286
4522.74455	0.02293
4520.81587	0.02298
4518.88719	0.02301
4516.95852	0.02304
4515.02984	0.02308
4513.10117	0.02313
4511.17249	0.02319
4509.24382	0.02323
4507.31514	0.02323
4505.38646	0.02324
4503.45779	0.02327
4501.52911	0.02332
4499.60044	0.02335
4497.67176	0.02338
4495.74309	0.02343
4493.81441	0.02350
4491.88573	0.02355
4489.95706	0.02359
4488.02838	0.02361
4486.09971	0.02365
4484.17103	0.02369
4482.24236	0.02372
4480.31368	0.02377
4478.38500	0.02382
4476.45633	0.02386
4474.52765	0.02388
4472.59898	0.02389
4470.67030	0.02391
4468.74163	0.02397
4466.81295	0.02404
4464.88427	0.02411
4462.95560	0.02416
4461.02692	0.02419
4459.09825	0.02423
4457.16957	0.02428
4455.24090	0.02431
4453.31222	0.02433
4451.38354	0.02436
4449.45487	0.02442
4447.52619	0.02448
4445.59752	0.02451
4443.66884	0.02454
4441.74017	0.02458
4439.81149	0.02463
4437.88281	0.02468
4435.95414	0.02471
4434.02546	0.02475
4432.09679	0.02478
4430.16811	0.02482
4428.23944	0.02486
4426.31076	0.02491
4424.38208	0.02497
4422.45341	0.02503
4420.52473	0.02507
4418.59606	0.02510
4416.66738	0.02515
4414.73871	0.02519
4412.81003	0.02522
4410.88135	0.02526
4408.95268	0.02532
4407.02400	0.02541
4405.09533	0.02547
4403.16665	0.02549
4401.23798	0.02551
4399.30930	0.02553
4397.38062	0.02558
4395.45195	0.02563
4393.52327	0.02568
4391.59460	0.02573
4389.66592	0.02578
4387.73725	0.02583
4385.80857	0.02587
4383.87989	0.02590
4381.95122	0.02593
4380.02254	0.02598
4378.09387	0.02603
4376.16519	0.02607
4374.23652	0.02613
4372.30784	0.02618
4370.37916	0.02622
4368.45049	0.02626
4366.52181	0.02632
4364.59314	0.02637
4362.66446	0.02644
4360.73579	0.02650
4358.80711	0.02657
4356.87843	0.02661
4354.94976	0.02662
4353.02108	0.02663
4351.09241	0.02667
4349.16373	0.02673
4347.23506	0.02679
4345.30638	0.02686
4343.37770	0.02691
4341.44903	0.02696
4339.52035	0.02701
4337.59168	0.02706
4335.66300	0.02710
4333.73433	0.02715
4331.80565	0.02719
4329.87697	0.02722
4327.94830	0.02726
4326.01962	0.02732
4324.09095	0.02739
4322.16227	0.02746
4320.23360	0.02750
4318.30492	0.02752
4316.37624	0.02756
4314.44757	0.02764
4312.51889	0.02770
4310.59022	0.02774
4308.66154	0.02779
4306.73287	0.02785
4304.80419	0.02790
4302.87551	0.02795
4300.94684	0.02801
4299.01816	0.02808
4297.08949	0.02814
4295.16081	0.02818
4293.23214	0.02821
4291.30346	0.02824
4289.37478	0.02828
4287.44611	0.02834
4285.51743	0.02840
4283.58876	0.02845
4281.66008	0.02851
4279.73141	0.02857
4277.80273	0.02863
4275.87405	0.02869
4273.94538	0.02873
4272.01670	0.02878
4270.08803	0.02882
4268.15935	0.02888
4266.23068	0.02893
4264.30200	0.02898
4262.37332	0.02903
4260.44465	0.02909
4258.51597	0.02915
4256.58730	0.02920
4254.65862	0.02925
4252.72995	0.02931
4250.80127	0.02936
4248.87259	0.02942
4246.94392	0.02949
4245.01524	0.02956
4243.08657	0.02962
4241.15789	0.02966
4239.22922	0.02970
4237.30054	0.02976
4235.37186	0.02981
4233.44319	0.02987
4231.51451	0.02992
4229.58584	0.02997
4227.65716	0.03000
4225.72849	0.03006
4223.79981	0.03011
4221.87113	0.03017
4219.94246	0.03022
4218.01378	0.03028
4216.08511	0.03033
4214.15643	0.03038
4212.22776	0.03043
4210.29908	0.03049
4208.37040	0.03055
4206.44173	0.03062
4204.51305	0.03068
4202.58438	0.03073
4200.65570	0.03078
4198.72703	0.03084
4196.79835	0.03091
4194.86968	0.03098
4192.94100	0.03104
4191.01232	0.03109
4189.08365	0.03115
4187.15497	0.03121
4185.22630	0.03126
4183.29762	0.03132
4181.36895	0.03137
4179.44027	0.03143
4177.51159	0.03149
4175.58292	0.03155
4173.65424	0.03160
4171.72557	0.03167
4169.79689	0.03174
4167.86822	0.03179
4165.93954	0.03182
4164.01086	0.03186
4162.08219	0.03193
4160.15351	0.03201
4158.22484	0.03206
4156.29616	0.03212
4154.36749	0.03219
4152.43881	0.03224
4150.51013	0.03228
4148.58146	0.03233
4146.65278	0.03241
4144.72411	0.03250
4142.79543	0.03255
4140.86676	0.03260
4138.93808	0.03266
4137.00940	0.03273
4135.08073	0.03278
4133.15205	0.03286
4131.22338	0.03294
4129.29470	0.03302
4127.36603	0.03309
4125.43735	0.03314
4123.50867	0.03319
4121.58000	0.03325
4119.65132	0.03333
4117.72265	0.03342
4115.79397	0.03350
4113.86530	0.03355
4111.93662	0.03358
4110.00794	0.03362
4108.07927	0.03370
4106.15059	0.03379
4104.22192	0.03386
4102.29324	0.03392
4100.36457	0.03397
4098.43589	0.03403
4096.50721	0.03409
4094.57854	0.03415
4092.64986	0.03421
4090.72119	0.03427
4088.79251	0.03434
4086.86384	0.03440
4084.93516	0.03447
4083.00648	0.03453
4081.07781	0.03457
4079.14913	0.03463
4077.22046	0.03470
4075.29178	0.03476
4073.36311	0.03483
4071.43443	0.03490
4069.50575	0.03498
4067.57708	0.03507
4065.64840	0.03515
4063.71973	0.03521
4061.79105	0.03528
4059.86238	0.03534
4057.93370	0.03539
4056.00502	0.03545
4054.07635	0.03552
4052.14767	0.03558
4050.21900	0.03565
4048.29032	0.03573
4046.36165	0.03579
4044.43297	0.03584
4042.50429	0.03591
4040.57562	0.03598
4038.64694	0.03604
4036.71827	0.03611
4034.78959	0.03618
4032.86092	0.03626
4030.93224	0.03633
4029.00356	0.03639
4027.07489	0.03643
4025.14621	0.03651
4023.21754	0.03660
4021.28886	0.03669
4019.36019	0.03675
4017.43151	0.03681
4015.50283	0.03689
4013.57416	0.03694
4011.64548	0.03697
4009.71681	0.03704
4007.78813	0.03716
4005.85946	0.03725
4003.93078	0.03730
4002.00210	0.03737
4000.07343	0.03745
3998.14475	0.03753
3996.21608	0.03761
3994.28740	0.03771
3992.35873	0.03778
3990.43005	0.03781
3988.50137	0.03787
3986.57270	0.03796
3984.64402	0.03803
3982.71535	0.03809
3980.78667	0.03816
3978.85800	0.03823
3976.92932	0.03829
3975.00064	0.03835
3973.07197	0.03843
3971.14329	0.03850
3969.21462	0.03856
3967.28594	0.03863
3965.35727	0.03872
3963.42859	0.03878
3961.49991	0.03883
3959.57124	0.03891
3957.64256	0.03900
3955.71389	0.03911
3953.78521	0.03919
3951.85654	0.03926
3949.92786	0.03931
3947.99918	0.03937
3946.07051	0.03945
3944.14183	0.03952
3942.21316	0.03959
3940.28448	0.03969
3938.35581	0.03982
3936.42713	0.03989
3934.49845	0.03987
3932.56978	0.03986
3930.64110	0.03994
3928.71243	0.04007
3926.78375	0.04013
3924.85508	0.04017
3922.92640	0.04023
3920.99772	0.04029
3919.06905	0.04030
3917.14037	0.04037
3915.21170	0.04054
3913.28302	0.04073
3911.35435	0.04086
3909.42567	0.04092
3907.49699	0.04087
3905.56832	0.04076
3903.63964	0.04069
3901.71097	0.04074
3899.78229	0.04093
3897.85362	0.04118
3895.92494	0.04138
3893.99626	0.04144
3892.06759	0.04145
3890.13891	0.04154
3888.21024	0.04160
3886.28156	0.04159
3884.35289	0.04165
3882.42421	0.04174
3880.49553	0.04183
3878.56686	0.04199
3876.63818	0.04211
3874.70951	0.04212
3872.78083	0.04214
3870.85216	0.04221
3868.92348	0.04231
3866.99480	0.04240
3865.06613	0.04244
3863.13745	0.04254
3861.20878	0.04270
3859.28010	0.04282
3857.35143	0.04282
3855.42275	0.04267
3853.49407	0.04260
3851.56540	0.04281
3849.63672	0.04316
3847.70805	0.04338
3845.77937	0.04343
3843.85070	0.04340
3841.92202	0.04335
3839.99334	0.04333
3838.06467	0.04343
3836.13599	0.04363
3834.20732	0.04381
3832.27864	0.04394
3830.34997	0.04404
3828.42129	0.04413
3826.49261	0.04422
3824.56394	0.04424
3822.63526	0.04418
3820.70659	0.04420
3818.77791	0.04437
3816.84924	0.04455
3814.92056	0.04471
3812.99188	0.04486
3811.06321	0.04495
3809.13453	0.04494
3807.20586	0.04492
3805.27718	0.04498
3803.34851	0.04503
3801.41983	0.04511
3799.49115	0.04527
3797.56248	0.04540
3795.63380	0.04553
3793.70513	0.04572
3791.77645	0.04588
3789.84778	0.04596
3787.91910	0.04600
3785.99042	0.04603
3784.06175	0.04608
3782.13307	0.04612
3780.20440	0.04615
3778.27572	0.04628
3776.34705	0.04649
3774.41837	0.04663
3772.48969	0.04665
3770.56102	0.04665
3768.63234	0.04672
3766.70367	0.04684
3764.77499	0.04697
3762.84632	0.04706
3760.91764	0.04705
3758.98896	0.04703
3757.06029	0.04710
3755.13161	0.04716
3753.20294	0.04708
3751.27426	0.04696
3749.34559	0.04699
3747.41691	0.04708
3745.48823	0.04710
3743.55956	0.04730
3741.63088	0.04767
3739.70221	0.04783
3737.77353	0.04770
3735.84486	0.04761
3733.91618	0.04778
3731.98750	0.04812
3730.05883	0.04837
3728.13015	0.04844
3726.20148	0.04845
3724.27280	0.04854
3722.34413	0.04868
3720.41545	0.04883
3718.48677	0.04901
3716.55810	0.04913
3714.62942	0.04911
3712.70075	0.04903
3710.77207	0.04910
3708.84340	0.04935
3706.91472	0.04960
3704.98604	0.04971
3703.05737	0.04973
3701.12869	0.04979
3699.20002	0.04993
3697.27134	0.05006
3695.34267	0.05011
3693.41399	0.05007
3691.48531	0.04998
3689.55664	0.04999
3687.62796	0.05019
3685.69929	0.05047
3683.77061	0.05063
3681.84194	0.05067
3679.91326	0.05064
3677.98458	0.05055
3676.05591	0.05053
3674.12723	0.05069
3672.19856	0.05086
3670.26988	0.05090
3668.34121	0.05103
3666.41253	0.05130
3664.48385	0.05152
3662.55518	0.05162
3660.62650	0.05166
3658.69783	0.05164
3656.76915	0.05165
3654.84048	0.05172
3652.91180	0.05166
3650.98312	0.05144
3649.05445	0.05130
3647.12577	0.05145
3645.19710	0.05180
3643.26842	0.05213
3641.33975	0.05229
3639.41107	0.05235
3637.48239	0.05241
3635.55372	0.05248
3633.62504	0.05252
3631.69637	0.05244
3629.76769	0.05233
3627.83902	0.05245
3625.91034	0.05273
3623.98166	0.05291
3622.05299	0.05291
3620.12431	0.05284
3618.19564	0.05288
3616.26696	0.05297
3614.33829	0.05300
3612.40961	0.05302
3610.48093	0.05306
3608.55226	0.05313
3606.62358	0.05331
3604.69491	0.05350
3602.76623	0.05357
3600.83756	0.05359
3598.90888	0.05367
3596.98020	0.05374
3595.05153	0.05379
3593.12285	0.05386
3591.19418	0.05383
3589.26550	0.05372
3587.33683	0.05379
3585.40815	0.05408
3583.47947	0.05429
3581.55080	0.05437
3579.62212	0.05442
3577.69345	0.05449
3575.76477	0.05455
3573.83610	0.05461
3571.90742	0.05464
3569.97874	0.05457
3568.05007	0.05448
3566.12139	0.05457
3564.19272	0.05481
3562.26404	0.05502
3560.33537	0.05514
3558.40669	0.05525
3556.47801	0.05533
3554.54934	0.05535
3552.62066	0.05536
3550.69199	0.05541
3548.76331	0.05542
3546.83464	0.05542
3544.90596	0.05551
3542.97728	0.05567
3541.04861	0.05579
3539.11993	0.05585
3537.19126	0.05590
3535.26258	0.05595
3533.33391	0.05599
3531.40523	0.05600
3529.47655	0.05602
3527.54788	0.05603
3525.61920	0.05606
3523.69053	0.05611
3521.76185	0.05617
3519.83318	0.05625
3517.90450	0.05631
3515.97582	0.05636
3514.04715	0.05640
3512.11847	0.05642
3510.18980	0.05643
3508.26112	0.05647
3506.33245	0.05649
3504.40377	0.05649
3502.47509	0.05651
3500.54642	0.05657
3498.61774	0.05662
3496.68907	0.05665
3494.76039	0.05668
3492.83172	0.05673
3490.90304	0.05677
3488.97436	0.05679
3487.04569	0.05683
3485.11701	0.05686
3483.18834	0.05688
3481.25966	0.05691
3479.33099	0.05700
3477.40231	0.05709
3475.47363	0.05715
3473.54496	0.05721
3471.61628	0.05732
3469.68761	0.05743
3467.75893	0.05750
3465.83026	0.05758
3463.90158	0.05767
3461.97290	0.05776
3460.04423	0.05785
3458.11555	0.05794
3456.18688	0.05804
3454.25820	0.05811
3452.32953	0.05819
3450.40085	0.05827
3448.47217	0.05833
3446.54350	0.05840
3444.61482	0.05852
3442.68615	0.05864
3440.75747	0.05874
3438.82880	0.05887
3436.90012	0.05905
3434.97144	0.05922
3433.04277	0.05940
3431.11409	0.05959
3429.18542	0.05978
3427.25674	0.05995
3425.32807	0.06010
3423.39939	0.06023
3421.47071	0.06035
3419.54204	0.06051
3417.61336	0.06071
3415.68469	0.06090
3413.75601	0.06107
3411.82734	0.06121
3409.89866	0.06133
3407.96998	0.06146
3406.04131	0.06160
3404.11263	0.06173
3402.18396	0.06186
3400.25528	0.06201
3398.32661	0.06213
3396.39793	0.06222
3394.46925	0.06232
3392.54058	0.06245
3390.61190	0.06259
3388.68323	0.06272
3386.75455	0.06285
3384.82588	0.06299
3382.89720	0.06312
3380.96852	0.06326
3379.03985	0.06339
3377.11117	0.06350
3375.18250	0.06358
3373.25382	0.06366
3371.32515	0.06380
3369.39647	0.06395
3367.46779	0.06407
3365.53912	0.06418
3363.61044	0.06432
3361.68177	0.06445
3359.75309	0.06456
3357.82442	0.06468
3355.89574	0.06482
3353.96706	0.06492
3352.03839	0.06500
3350.10971	0.06510
3348.18104	0.06526
3346.25236	0.06542
3344.32369	0.06555
3342.39501	0.06567
3340.46633	0.06580
3338.53766	0.06589
3336.60898	0.06597
3334.68031	0.06607
3332.75163	0.06621
3330.82296	0.06636
3328.89428	0.06649
3326.96560	0.06657
3325.03693	0.06668
3323.10825	0.06683
3321.17958	0.06696
3319.25090	0.06706
3317.32223	0.06717
3315.39355	0.06730
3313.46487	0.06742
3311.53620	0.06753
3309.60752	0.06764
3307.67885	0.06774
3305.75017	0.06786
3303.82150	0.06801
3301.89282	0.06817
3299.96414	0.06831
3298.03547	0.06843
3296.10679	0.06852
3294.17812	0.06863
3292.24944	0.06878
3290.32077	0.06893
3288.39209	0.06907
3286.46341	0.06918
3284.53474	0.06928
3282.60606	0.06938
3280.67739	0.06949
3278.74871	0.06961
3276.82004	0.06975
3274.89136	0.06989
3272.96268	0.07002
3271.03401	0.07015
3269.10533	0.07030
3267.17666	0.07044
3265.24798	0.07057
3263.31931	0.07070
3261.39063	0.07084
3259.46195	0.07095
3257.53328	0.07106
3255.60460	0.07118
3253.67593	0.07130
3251.74725	0.07142
3249.81858	0.07156
3247.88990	0.07170
3245.96122	0.07184
3244.03255	0.07197
3242.10387	0.07209
3240.17520	0.07220
3238.24652	0.07232
3236.31785	0.07246
3234.38917	0.07261
3232.46049	0.07275
3230.53182	0.07287
3228.60314	0.07299
3226.67447	0.07311
3224.74579	0.07323
3222.81712	0.07336
3220.88844	0.07348
3218.95976	0.07361
3217.03109	0.07374
3215.10241	0.07385
3213.17374	0.07394
3211.24506	0.07406
3209.31639	0.07424
3207.38771	0.07441
3205.45903	0.07454
3203.53036	0.07466
3201.60168	0.07478
3199.67301	0.07488
3197.74433	0.07500
3195.81566	0.07516
3193.88698	0.07533
3191.95830	0.07549
3190.02963	0.07564
3188.10095	0.07576
3186.17228	0.07588
3184.24360	0.07601
3182.31493	0.07614
3180.38625	0.07626
3178.45757	0.07639
3176.52890	0.07656
3174.60022	0.07673
3172.67155	0.07686
3170.74287	0.07698
3168.81420	0.07713
3166.88552	0.07730
3164.95684	0.07746
3163.02817	0.07758
3161.09949	0.07769
3159.17082	0.07781
3157.24214	0.07795
3155.31347	0.07808
3153.38479	0.07818
3151.45611	0.07827
3149.52744	0.07838
3147.59876	0.07854
3145.67009	0.07870
3143.74141	0.07883
3141.81274	0.07891
3139.88406	0.07901
3137.95538	0.07915
3136.02671	0.07930
3134.09803	0.07948
3132.16936	0.07966
3130.24068	0.07981
3128.31201	0.07993
3126.38333	0.08004
3124.45465	0.08018
3122.52598	0.08033
3120.59730	0.08045
3118.66863	0.08057
3116.73995	0.08070
3114.81128	0.08085
3112.88260	0.08102
3110.95392	0.08117
3109.02525	0.08129
3107.09657	0.08140
3105.16790	0.08150
3103.23922	0.08160
3101.31055	0.08172
3099.38187	0.08187
3097.45319	0.08202
3095.52452	0.08215
3093.59584	0.08228
3091.66717	0.08243
3089.73849	0.08258
3087.80982	0.08269
3085.88114	0.08281
3083.95246	0.08295
3082.02379	0.08310
3080.09511	0.08322
3078.16644	0.08332
3076.23776	0.08344
3074.30909	0.08359
3072.38041	0.08378
3070.45173	0.08394
3068.52306	0.08406
3066.59438	0.08417
3064.66571	0.08431
3062.73703	0.08445
3060.80836	0.08457
3058.87968	0.08468
3056.95100	0.08481
3055.02233	0.08495
3053.09365	0.08510
3051.16498	0.08522
3049.23630	0.08532
3047.30763	0.08542
3045.37895	0.08554
3043.45027	0.08567
3041.52160	0.08581
3039.59292	0.08596
3037.66425	0.08612
3035.73557	0.08627
3033.80690	0.08641
3031.87822	0.08653
3029.94954	0.08667
3028.02087	0.08683
3026.09219	0.08697
3024.16352	0.08710
3022.23484	0.08721
3020.30617	0.08732
3018.37749	0.08745
3016.44881	0.08758
3014.52014	0.08770
3012.59146	0.08778
3010.66279	0.08789
3008.73411	0.08805
3006.80544	0.08823
3004.87676	0.08839
3002.94808	0.08851
3001.01941	0.08862
2999.09073	0.08873
2997.16206	0.08887
2995.23338	0.08902
2993.30471	0.08913
2991.37603	0.08922
2989.44735	0.08934
2987.51868	0.08946
2985.59000	0.08957
2983.66133	0.08967
2981.73265	0.08977
2979.80398	0.08985
2977.87530	0.08990
2975.94662	0.08992
2974.01795	0.08991
2972.08927	0.08992
2970.16060	0.08990
2968.23192	0.08987
2966.30325	0.08987
2964.37457	0.08993
2962.44589	0.09004
2960.51722	0.09017
2958.58854	0.09031
2956.65987	0.09046
2954.73119	0.09064
2952.80252	0.09082
2950.87384	0.09097
2948.94516	0.09110
2947.01649	0.09123
2945.08781	0.09136
2943.15914	0.09145
2941.23046	0.09149
2939.30179	0.09147
2937.37311	0.09146
2935.44443	0.09148
2933.51576	0.09148
2931.58708	0.09143
2929.65841	0.09138
2927.72973	0.09136
2925.80106	0.09138
2923.87238	0.09141
2921.94370	0.09143
2920.01503	0.09149
2918.08635	0.09163
2916.15768	0.09193
2914.22900	0.09235
2912.30033	0.09276
2910.37165	0.09312
2908.44297	0.09342
2906.51430	0.09370
2904.58562	0.09397
2902.65695	0.09420
2900.72827	0.09442
2898.79960	0.09460
2896.87092	0.09478
2894.94224	0.09497
2893.01357	0.09519
2891.08489	0.09539
2889.15622	0.09556
2887.22754	0.09570
2885.29887	0.09583
2883.37019	0.09598
2881.44151	0.09613
2879.51284	0.09626
2877.58416	0.09638
2875.65549	0.09650
2873.72681	0.09663
2871.79814	0.09677
2869.86946	0.09689
2867.94078	0.09698
2866.01211	0.09709
2864.08343	0.09720
2862.15476	0.09727
2860.22608	0.09729
2858.29741	0.09731
2856.36873	0.09731
2854.44005	0.09728
2852.51138	0.09727
2850.58270	0.09737
2848.65403	0.09764
2846.72535	0.09805
2844.79668	0.09853
2842.86800	0.09896
2840.93932	0.09928
2839.01065	0.09951
2837.08197	0.09971
2835.15330	0.09989
2833.22462	0.10005
2831.29595	0.10020
2829.36727	0.10036
2827.43859	0.10053
2825.50992	0.10069
2823.58124	0.10083
2821.65257	0.10100
2819.72389	0.10117
2817.79522	0.10133
2815.86654	0.10146
2813.93786	0.10158
2812.00919	0.10172
2810.08051	0.10190
2808.15184	0.10207
2806.22316	0.10220
2804.29449	0.10234
2802.36581	0.10250
2800.43713	0.10266
2798.50846	0.10282
2796.57978	0.10298
2794.65111	0.10313
2792.72243	0.10325
2790.79376	0.10338
2788.86508	0.10355
2786.93640	0.10370
2785.00773	0.10383
2783.07905	0.10396
2781.15038	0.10412
2779.22170	0.10427
2777.29303	0.10440
2775.36435	0.10454
2773.43567	0.10470
2771.50700	0.10488
2769.57832	0.10505
2767.64965	0.10518
2765.72097	0.10531
2763.79230	0.10545
2761.86362	0.10556
2759.93494	0.10568
2758.00627	0.10584
2756.07759	0.10602
2754.14892	0.10617
2752.22024	0.10630
2750.29157	0.10643
2748.36289	0.10656
2746.43421	0.10668
2744.50554	0.10679
2742.57686	0.10691
2740.64819	0.10706
2738.71951	0.10723
2736.79084	0.10739
2734.86216	0.10752
2732.93348	0.10765
2731.00481	0.10777
2729.07613	0.10788
2727.14746	0.10800
2725.21878	0.10814
2723.29011	0.10830
2721.36143	0.10847
2719.43275	0.10860
2717.50408	0.10872
2715.57540	0.10884
2713.64673	0.10897
2711.71805	0.10912
2709.78938	0.10928
2707.86070	0.10941
2705.93202	0.10954
2704.00335	0.10967
2702.07467	0.10980
2700.14600	0.10993
2698.21732	0.11005
2696.28865	0.11017
2694.35997	0.11031
2692.43129	0.11047
2690.50262	0.11061
2688.57394	0.11073
2686.64527	0.11086
2684.71659	0.11102
2682.78792	0.11119
2680.85924	0.11135
2678.93056	0.11150
2677.00189	0.11162
2675.07321	0.11173
2673.14454	0.11184
2671.21586	0.11198
2669.28719	0.11210
2667.35851	0.11222
2665.42983	0.11236
2663.50116	0.11251
2661.57248	0.11264
2659.64381	0.11275
2657.71513	0.11288
2655.78646	0.11302
2653.85778	0.11319
2651.92910	0.11334
2650.00043	0.11349
2648.07175	0.11365
2646.14308	0.11381
2644.21440	0.11395
2642.28573	0.11409
2640.35705	0.11427
2638.42837	0.11445
2636.49970	0.11458
2634.57102	0.11471
2632.64235	0.11486
2630.71367	0.11502
2628.78500	0.11517
2626.85632	0.11532
2624.92764	0.11548
2622.99897	0.11565
2621.07029	0.11583
2619.14162	0.11601
2617.21294	0.11613
2615.28427	0.11622
2613.35559	0.11632
2611.42691	0.11645
2609.49824	0.11661
2607.56956	0.11675
2605.64089	0.11688
2603.71221	0.11705
2601.78354	0.11725
2599.85486	0.11743
2597.92618	0.11757
2595.99751	0.11770
2594.06883	0.11782
2592.14016	0.11796
2590.21148	0.11813
2588.28281	0.11830
2586.35413	0.11844
2584.42545	0.11855
2582.49678	0.11867
2580.56810	0.11880
2578.63943	0.11893
2576.71075	0.11907
2574.78208	0.11923
2572.85340	0.11939
2570.92472	0.11954
2568.99605	0.11966
2567.06737	0.11979
2565.13870	0.11992
2563.21002	0.12006
2561.28135	0.12020
2559.35267	0.12037
2557.42399	0.12052
2555.49532	0.12065
2553.56664	0.12078
2551.63797	0.12092
2549.70929	0.12109
2547.78062	0.12125
2545.85194	0.12141
2543.92326	0.12156
2541.99459	0.12169
2540.06591	0.12181
2538.13724	0.12192
2536.20856	0.12204
2534.27989	0.12220
2532.35121	0.12237
2530.42253	0.12252
2528.49386	0.12266
2526.56518	0.12281
2524.63651	0.12298
2522.70783	0.12313
2520.77916	0.12325
2518.85048	0.12336
2516.92181	0.12351
2514.99313	0.12369
2513.06445	0.12389
2511.13578	0.12406
2509.20710	0.12422
2507.27843	0.12432
2505.34975	0.12443
2503.42108	0.12459
2501.49240	0.12479
2499.56372	0.12496
2497.63505	0.12513
2495.70637	0.12529
2493.77770	0.12545
2491.84902	0.12560
2489.92035	0.12575
2487.99167	0.12590
2486.06299	0.12605
2484.13432	0.12621
2482.20564	0.12636
2480.27697	0.12650
2478.34829	0.12666
2476.41962	0.12684
2474.49094	0.12700
2472.56226	0.12712
2470.63359	0.12723
2468.70491	0.12736
2466.77624	0.12754
2464.84756	0.12773
2462.91889	0.12790
2460.99021	0.12806
2459.06153	0.12820
2457.13286	0.12834
2455.20418	0.12849
2453.27551	0.12865
2451.34683	0.12881
2449.41816	0.12898
2447.48948	0.12912
2445.56080	0.12925
2443.63213	0.12943
2441.70345	0.12963
2439.77478	0.12979
2437.84610	0.12994
2435.91743	0.13010
2433.98875	0.13025
2432.06007	0.13036
2430.13140	0.13048
2428.20272	0.13062
2426.27405	0.13078
2424.34537	0.13095
2422.41670	0.13109
2420.48802	0.13122
2418.55934	0.13137
2416.63067	0.13155
2414.70199	0.13170
2412.77332	0.13185
2410.84464	0.13203
2408.91597	0.13221
2406.98729	0.13232
2405.05861	0.13241
2403.12994	0.13251
2401.20126	0.13267
2399.27259	0.13286
2397.34391	0.13304
2395.41524	0.13317
2393.48656	0.13330
2391.55788	0.13344
2389.62921	0.13362
2387.70053	0.13379
2385.77186	0.13392
2383.84318	0.13401
2381.91451	0.13409
2379.98583	0.13418
2378.05715	0.13426
2376.12848	0.13430
2374.19980	0.13435
2372.27113	0.13441
2370.34245	0.13444
2368.41378	0.13448
2366.48510	0.13453
2364.55642	0.13460
2362.62775	0.13474
2360.69907	0.13493
2358.77040	0.13514
2356.84172	0.13535
2354.91305	0.13558
2352.98437	0.13586
2351.05569	0.13619
2349.12702	0.13645
2347.19834	0.13657
2345.26967	0.13660
2343.34099	0.13662
2341.41232	0.13666
2339.48364	0.13677
2337.55496	0.13694
2335.62629	0.13712
2333.69761	0.13730
2331.76894	0.13746
2329.84026	0.13762
2327.91159	0.13779
2325.98291	0.13798
2324.05423	0.13816
2322.12556	0.13834
2320.19688	0.13853
2318.26821	0.13874
2316.33953	0.13898
2314.41086	0.13920
2312.48218	0.13940
2310.55350	0.13958
2308.62483	0.13974
2306.69615	0.13994
2304.76748	0.14015
2302.83880	0.14032
2300.91013	0.14049
2298.98145	0.14069
2297.05277	0.14087
2295.12410	0.14098
2293.19542	0.14108
2291.26675	0.14123
2289.33807	0.14139
2287.40940	0.14155
2285.48072	0.14171
2283.55204	0.14186
2281.62337	0.14200
2279.69469	0.14218
2277.76602	0.14240
2275.83734	0.14256
2273.90867	0.14269
2271.97999	0.14284
2270.05131	0.14298
2268.12264	0.14311
2266.19396	0.14326
2264.26529	0.14342
2262.33661	0.14355
2260.40794	0.14369
2258.47926	0.14388
2256.55058	0.14407
2254.62191	0.14423
2252.69323	0.14437
2250.76456	0.14452
2248.83588	0.14466
2246.90721	0.14481
2244.97853	0.14496
2243.04985	0.14512
2241.12118	0.14529
2239.19250	0.14547
2237.26383	0.14562
2235.33515	0.14574
2233.40648	0.14586
2231.47780	0.14598
2229.54912	0.14613
2227.62045	0.14628
2225.69177	0.14643
2223.76310	0.14655
2221.83442	0.14668
2219.90575	0.14687
2217.97707	0.14704
2216.04839	0.14717
2214.11972	0.14731
2212.19104	0.14750
2210.26237	0.14768
2208.33369	0.14784
2206.40502	0.14798
2204.47634	0.14808
2202.54766	0.14820
2200.61899	0.14833
2198.69031	0.14845
2196.76164	0.14858
2194.83296	0.14874
2192.90429	0.14893
2190.97561	0.14910
2189.04693	0.14927
2187.11826	0.14942
2185.18958	0.14956
2183.26091	0.14971
2181.33223	0.14987
2179.40356	0.15000
2177.47488	0.15012
2175.54620	0.15025
2173.61753	0.15041
2171.68885	0.15058
2169.76018	0.15076
2167.83150	0.15092
2165.90283	0.15104
2163.97415	0.15114
2162.04547	0.15129
2160.11680	0.15149
2158.18812	0.15172
2156.25945	0.15190
2154.33077	0.15203
2152.40210	0.15214
2150.47342	0.15229
2148.54474	0.15246
2146.61607	0.15262
2144.68739	0.15276
2142.75872	0.15290
2140.83004	0.15306
2138.90137	0.15322
2136.97269	0.15337
2135.04401	0.15355
2133.11534	0.15375
2131.18666	0.15393
2129.25799	0.15409
2127.32931	0.15422
2125.40064	0.15435
2123.47196	0.15449
2121.54328	0.15463
2119.61461	0.15475
2117.68593	0.15486
2115.75726	0.15500
2113.82858	0.15517
2111.89991	0.15533
2109.97123	0.15548
2108.04255	0.15562
2106.11388	0.15578
2104.18520	0.15598
2102.25653	0.15617
2100.32785	0.15630
2098.39918	0.15641
2096.47050	0.15654
2094.54182	0.15670
2092.61315	0.15686
2090.68447	0.15700
2088.75580	0.15713
2086.82712	0.15729
2084.89845	0.15749
2082.96977	0.15765
2081.04109	0.15778
2079.11242	0.15792
2077.18374	0.15808
2075.25507	0.15825
2073.32639	0.15839
2071.39772	0.15853
2069.46904	0.15869
2067.54036	0.15887
2065.61169	0.15901
2063.68301	0.15914
2061.75434	0.15931
2059.82566	0.15950
2057.89699	0.15967
2055.96831	0.15984
2054.03963	0.15999
2052.11096	0.16013
2050.18228	0.16023
2048.25361	0.16032
2046.32493	0.16046
2044.39626	0.16063
2042.46758	0.16082
2040.53890	0.16102
2038.61023	0.16120
2036.68155	0.16135
2034.75288	0.16154
2032.82420	0.16172
2030.89553	0.16185
2028.96685	0.16198
2027.03817	0.16214
2025.10950	0.16228
2023.18082	0.16238
2021.25215	0.16246
2019.32347	0.16257
2017.39480	0.16275
2015.46612	0.16297
2013.53744	0.16318
2011.60877	0.16336
2009.68009	0.16351
2007.75142	0.16365
2005.82274	0.16381
2003.89407	0.16402
2001.96539	0.16421
2000.03671	0.16432
1998.10804	0.16442
1996.17936	0.16452
1994.25069	0.16455
1992.32201	0.16462
1990.39334	0.16482
1988.46466	0.16506
1986.53598	0.16521
1984.60731	0.16533
1982.67863	0.16548
1980.74996	0.16565
1978.82128	0.16581
1976.89261	0.16594
1974.96393	0.16607
1973.03525	0.16622
1971.10658	0.16633
1969.17790	0.16636
1967.24923	0.16643
1965.32055	0.16663
1963.39188	0.16685
1961.46320	0.16703
1959.53452	0.16716
1957.60585	0.16729
1955.67717	0.16744
1953.74850	0.16761
1951.81982	0.16776
1949.89115	0.16787
1947.96247	0.16796
1946.03379	0.16803
1944.10512	0.16811
1942.17644	0.16828
1940.24777	0.16854
1938.31909	0.16876
1936.39042	0.16892
1934.46174	0.16907
1932.53306	0.16919
1930.60439	0.16930
1928.67571	0.16944
1926.74704	0.16960
1924.81836	0.16970
1922.88969	0.16975
1920.96101	0.16974
1919.03233	0.16968
1917.10366	0.16987
1915.17498	0.17034
1913.24631	0.17066
1911.31763	0.17074
1909.38896	0.17084
1907.46028	0.17106
1905.53160	0.17129
1903.60293	0.17145
1901.67425	0.17161
1899.74558	0.17177
1897.81690	0.17185
1895.88823	0.17192
1893.95955	0.17208
1892.03087	0.17222
1890.10220	0.17232
1888.17352	0.17251
1886.24485	0.17274
1884.31617	0.17291
1882.38750	0.17307
1880.45882	0.17323
1878.53014	0.17339
1876.60147	0.17355
1874.67279	0.17369
1872.74412	0.17372
1870.81544	0.17360
1868.88677	0.17351
1866.95809	0.17377
1865.02941	0.17423
1863.10074	0.17452
1861.17206	0.17467
1859.24339	0.17484
1857.31471	0.17505
1855.38604	0.17524
1853.45736	0.17541
1851.52868	0.17553
1849.60001	0.17554
1847.67133	0.17535
1845.74266	0.17499
1843.81398	0.17501
1841.88531	0.17568
1839.95663	0.17630
1838.02795	0.17652
1836.09928	0.17667
1834.17060	0.17682
1832.24193	0.17679
1830.31325	0.17669
1828.38458	0.17671
1826.45590	0.17678
1824.52722	0.17702
1822.59855	0.17749
1820.66987	0.17785
1818.74120	0.17796
1816.81252	0.17808
1814.88385	0.17825
1812.95517	0.17832
1811.02649	0.17835
1809.09782	0.17852
1807.16914	0.17875
1805.24047	0.17880
1803.31179	0.17865
1801.38312	0.17858
1799.45444	0.17883
1797.52576	0.17916
1795.59709	0.17927
1793.66841	0.17919
1791.73974	0.17922
1789.81106	0.17955
1787.88239	0.17989
1785.95371	0.18004
1784.02503	0.18010
1782.09636	0.18016
1780.16768	0.18026
1778.23901	0.18042
1776.31033	0.18048
1774.38166	0.18037
1772.45298	0.18025
1770.52430	0.18035
1768.59563	0.18065
1766.66695	0.18100
1764.73828	0.18122
1762.80960	0.18125
1760.88093	0.18129
1758.95225	0.18138
1757.02357	0.18144
1755.09490	0.18135
1753.16622	0.18084
1751.23755	0.18028
1749.30887	0.18030
1747.38020	0.18064
1745.45152	0.18083
1743.52284	0.18085
1741.59417	0.18081
1739.66549	0.18087
1737.73682	0.18102
1735.80814	0.18097
1733.87947	0.18091
1731.95079	0.18125
1730.02211	0.18175
1728.09344	0.18213
1726.16476	0.18232
1724.23609	0.18239
1722.30741	0.18243
1720.37874	0.18225
1718.45006	0.18195
1716.52138	0.18204
1714.59271	0.18257
1712.66403	0.18307
1710.73536	0.18333
1708.80668	0.18333
1706.87801	0.18314
1704.94933	0.18287
1703.02065	0.18234
1701.09198	0.18176
1699.16330	0.18195
1697.23463	0.18265
1695.30595	0.18323
1693.37728	0.18364
1691.44860	0.18376
1689.51992	0.18364
1687.59125	0.18339
1685.66257	0.18299
1683.73390	0.18292
1681.80522	0.18335
1679.87655	0.18380
1677.94787	0.18393
1676.01919	0.18382
1674.09052	0.18372
1672.16184	0.18358
1670.23317	0.18342
1668.30449	0.18368
1666.37582	0.18408
1664.44714	0.18405
1662.51846	0.18392
1660.58979	0.18416
1658.66111	0.18438
1656.73244	0.18399
1654.80376	0.18321
1652.87509	0.18309
1650.94641	0.18368
1649.01773	0.18391
1647.08906	0.18378
1645.16038	0.18406
1643.23171	0.18463
1641.30303	0.18490
1639.37436	0.18463
1637.44568	0.18392
1635.51700	0.18358
1633.58833	0.18417
1631.65965	0.18487
1629.73098	0.18494
1627.80230	0.18474
1625.87363	0.18450
1623.94495	0.18416
1622.01627	0.18403
1620.08760	0.18413
1618.15892	0.18432
1616.23025	0.18481
1614.30157	0.18557
1612.37290	0.18616
1610.44422	0.18647
1608.51554	0.18668
1606.58687	0.18693
1604.65819	0.18717
1602.72952	0.18741
1600.80084	0.18764
1598.87217	0.18781
1596.94349	0.18792
1595.01481	0.18805
1593.08614	0.18823
1591.15746	0.18843
1589.22879	0.18865
1587.30011	0.18885
1585.37144	0.18898
1583.44276	0.18911
1581.51408	0.18922
1579.58541	0.18916
1577.65673	0.18892
1575.72806	0.18895
1573.79938	0.18928
1571.87071	0.18930
1569.94203	0.18909
1568.01335	0.18930
1566.08468	0.18977
1564.15600	0.19006
1562.22733	0.18985
1560.29865	0.18896
1558.36998	0.18833
1556.44130	0.18884
1554.51262	0.18978
1552.58395	0.19024
1550.65527	0.19034
1548.72660	0.19053
1546.79792	0.19063
1544.86925	0.19021
1542.94057	0.18955
1541.01189	0.18934
1539.08322	0.18982
1537.15454	0.19054
1535.22587	0.19089
1533.29719	0.19105
1531.36852	0.19138
1529.43984	0.19155
1527.51116	0.19141
1525.58249	0.19120
1523.65381	0.19094
1521.72514	0.19086
1519.79646	0.19116
1517.86779	0.19145
1515.93911	0.19156
1514.01043	0.19170
1512.08176	0.19169
1510.15308	0.19120
1508.22441	0.19058
1506.29573	0.19085
1504.36706	0.19199
1502.43838	0.19265
1500.50970	0.19240
1498.58103	0.19199
1496.65235	0.19202
1494.72368	0.19240
1492.79500	0.19250
1490.86633	0.19215
1488.93765	0.19184
1487.00897	0.19194
1485.08030	0.19224
1483.15162	0.19236
1481.22295	0.19223
1479.29427	0.19183
1477.36560	0.19116
1475.43692	0.19053
1473.50824	0.19016
1471.57957	0.19017
1469.65089	0.19043
1467.72222	0.19031
1465.79354	0.18979
1463.86487	0.18962
1461.93619	0.18968
1460.00751	0.18902
1458.07884	0.18783
1456.15016	0.18757
1454.22149	0.18845
1452.29281	0.18922
1450.36414	0.18941
1448.43546	0.18941
1446.50678	0.18950
1444.57811	0.18968
1442.64943	0.18984
1440.72076	0.18980
1438.79208	0.18935
1436.86341	0.18901
1434.93473	0.18938
1433.00605	0.18993
1431.07738	0.19012
1429.14870	0.19029
1427.22003	0.19058
1425.29135	0.19070
1423.36268	0.19065
1421.43400	0.19043
1419.50532	0.19010
1417.57665	0.19011
1415.64797	0.19052
1413.71930	0.19083
1411.79062	0.19090
1409.86195	0.19094
1407.93327	0.19097
1406.00459	0.19090
1404.07592	0.19082
1402.14724	0.19069
1400.21857	0.19037
1398.28989	0.19004
1396.36122	0.18984
1394.43254	0.18988
1392.50386	0.19018
1390.57519	0.19019
1388.64651	0.18970
1386.71784	0.18937
1384.78916	0.18948
1382.86049	0.18968
1380.93181	0.18979
1379.00313	0.18977
1377.07446	0.18962
1375.14578	0.18949
1373.21711	0.18958
1371.28843	0.18975
1369.35976	0.18984
1367.43108	0.18985
1365.50240	0.18965
1363.57373	0.18933
1361.64505	0.18934
1359.71638	0.18964
1357.78770	0.18985
1355.85903	0.18992
1353.93035	0.19001
1352.00167	0.19012
1350.07300	0.19020
1348.14432	0.19026
1346.21565	0.19031
1344.28697	0.19026
1342.35830	0.19005
1340.42962	0.18983
1338.50094	0.18980
1336.57227	0.18989
1334.64359	0.18995
1332.71492	0.18995
1330.78624	0.18985
1328.85757	0.18968
1326.92889	0.18954
1325.00021	0.18945
1323.07154	0.18931
1321.14286	0.18909
1319.21419	0.18884
1317.28551	0.18864
1315.35684	0.18848
1313.42816	0.18830
1311.49948	0.18814
1309.57081	0.18800
1307.64213	0.18783
1305.71346	0.18760
1303.78478	0.18739
1301.85611	0.18722
1299.92743	0.18704
1297.99875	0.18683
1296.07008	0.18665
1294.14140	0.18646
1292.21273	0.18624
1290.28405	0.18603
1288.35538	0.18584
1286.42670	0.18562
1284.49802	0.18543
1282.56935	0.18528
1280.64067	0.18510
1278.71200	0.18485
1276.78332	0.18449
1274.85465	0.18405
1272.92597	0.18359
1270.99729	0.18304
1269.06862	0.18229
1267.13994	0.18138
1265.21127	0.18054
1263.28259	0.17999
1261.35392	0.17982
1259.42524	0.17989
1257.49656	0.18007
1255.56789	0.18023
1253.63921	0.18025
1251.71054	0.18011
1249.78186	0.17984
1247.85319	0.17949
1245.92451	0.17918
1243.99583	0.17887
1242.06716	0.17849
1240.13848	0.17803
1238.20981	0.17752
1236.28113	0.17704
1234.35246	0.17656
1232.42378	0.17601
1230.49510	0.17545
1228.56643	0.17491
1226.63775	0.17437
1224.70908	0.17390
1222.78040	0.17350
1220.85173	0.17308
1218.92305	0.17257
1216.99437	0.17201
1215.06570	0.17147
1213.13702	0.17093
1211.20835	0.17040
1209.27967	0.16991
1207.35100	0.16941
1205.42232	0.16888
1203.49364	0.16831
1201.56497	0.16770
1199.63629	0.16710
1197.70762	0.16657
1195.77894	0.16606
1193.85027	0.16546
1191.92159	0.16484
1189.99291	0.16425
1188.06424	0.16362
1186.13556	0.16291
1184.20689	0.16213
1182.27821	0.16135
1180.34954	0.16057
1178.42086	0.15982
1176.49218	0.15905
1174.56351	0.15827
1172.63483	0.15748
1170.70616	0.15665
1168.77748	0.15578
1166.84881	0.15492
1164.92013	0.15410
1162.99145	0.15336
1161.06278	0.15264
1159.13410	0.15186
1157.20543	0.15107
1155.27675	0.15035
1153.34808	0.14969
1151.41940	0.14903
1149.49072	0.14828
1147.56205	0.14747
1145.63337	0.14668
1143.70470	0.14585
1141.77602	0.14497
1139.84735	0.14405
1137.91867	0.14306
1135.98999	0.14194
1134.06132	0.14064
1132.13264	0.13915
1130.20397	0.13742
1128.27529	0.13551
1126.34662	0.13349
1124.41794	0.13136
1122.48926	0.12917
1120.56059	0.12701
1118.63191	0.12492
1116.70324	0.12296
1114.77456	0.12120
1112.84589	0.11964
1110.91721	0.11836
1108.98853	0.11740
1107.05986	0.11669
1105.13118	0.11623
1103.20251	0.11607
1101.27383	0.11618
1099.34516	0.11651
1097.41648	0.11704
1095.48780	0.11776
1093.55913	0.11857
1091.63045	0.11936
1089.70178	0.12011
1087.77310	0.12077
1085.84443	0.12132
1083.91575	0.12175
1081.98707	0.12208
1080.05840	0.12238
1078.12972	0.12264
1076.20105	0.12278
1074.27237	0.12282
1072.34370	0.12291
1070.41502	0.12311
1068.48634	0.12331
1066.55767	0.12347
1064.62899	0.12359
1062.70032	0.12370
1060.77164	0.12386
1058.84297	0.12411
1056.91429	0.12441
1054.98561	0.12470
1053.05694	0.12493
1051.12826	0.12517
1049.19959	0.12549
1047.27091	0.12589
1045.34224	0.12631
1043.41356	0.12666
1041.48488	0.12695
1039.55621	0.12728
1037.62753	0.12768
1035.69886	0.12809
1033.77018	0.12850
1031.84151	0.12889
1029.91283	0.12922
1027.98415	0.12950
1026.05548	0.12977
1024.12680	0.13005
1022.19813	0.13037
1020.26945	0.13076
1018.34078	0.13118
1016.41210	0.13161
1014.48342	0.13206
1012.55475	0.13258
1010.62607	0.13321
1008.69740	0.13384
1006.76872	0.13438
1004.84005	0.13484
1002.91137	0.13522
1000.98269	0.13555
999.05402	0.13581
997.12534	0.13599
995.19667	0.13615
993.26799	0.13633
991.33932	0.13646
989.41064	0.13649
987.48196	0.13652
985.55329	0.13654
983.62461	0.13650
981.69594	0.13647
979.76726	0.13645
977.83859	0.13639
975.90991	0.13628
973.98123	0.13616
972.05256	0.13602
970.12388	0.13584
968.19521	0.13563
966.26653	0.13543
964.33786	0.13526
962.40918	0.13513
960.48050	0.13504
958.55183	0.13495
956.62315	0.13479
954.69448	0.13458
952.76580	0.13439
950.83713	0.13426
948.90845	0.13414
946.97977	0.13394
945.05110	0.13370
943.12242	0.13348
941.19375	0.13321
939.26507	0.13286
937.33640	0.13245
935.40772	0.13195
933.47904	0.13139
931.55037	0.13092
929.62169	0.13053
927.69302	0.13012
925.76434	0.12963
923.83567	0.12909
921.90699	0.12855
919.97831	0.12801
918.04964	0.12741
916.12096	0.12677
914.19229	0.12611
912.26361	0.12542
910.33494	0.12470
908.40626	0.12399
906.47758	0.12334
904.54891	0.12278
902.62023	0.12231
900.69156	0.12181
898.76288	0.12125
896.83421	0.12071
894.90553	0.12021
892.97685	0.11972
891.04818	0.11932
889.11950	0.11902
887.19083	0.11873
885.26215	0.11841
883.33348	0.11807
881.40480	0.11768
879.47612	0.11730
877.54745	0.11699
875.61877	0.11673
873.69010	0.11651
871.76142	0.11632
869.83275	0.11611
867.90407	0.11588
865.97539	0.11565
864.04672	0.11543
862.11804	0.11528
860.18937	0.11522
858.26069	0.11514
856.33202	0.11502
854.40334	0.11485
852.47466	0.11463
850.54599	0.11437
848.61731	0.11413
846.68864	0.11391
844.75996	0.11363
842.83129	0.11332
840.90261	0.11302
838.97394	0.11271
837.04526	0.11230
835.11658	0.11171
833.18791	0.11098
831.25923	0.11015
829.33056	0.10920
827.40188	0.10818
825.47321	0.10718
823.54453	0.10631
821.61585	0.10561
819.68718	0.10503
817.75850	0.10450
815.82983	0.10399
813.90115	0.10364
811.97248	0.10343
810.04380	0.10320
808.11512	0.10289
806.18645	0.10262
804.25777	0.10253
802.32910	0.10255
800.40042	0.10237
798.47175	0.10185
796.54307	0.10123
794.61439	0.10070
792.68572	0.10030
790.75704	0.10002
788.82837	0.09980
786.89969	0.09958
784.97102	0.09936
783.04234	0.09908
781.11366	0.09880
779.18499	0.09852
777.25631	0.09829
775.32764	0.09812
773.39896	0.09790
771.47029	0.09753
769.54161	0.09712
767.61293	0.09675
765.68426	0.09637
763.75558	0.09601
761.82691	0.09561
759.89823	0.09511
757.96956	0.09454
756.04088	0.09396
754.11220	0.09339
752.18353	0.09281
750.25485	0.09217
748.32618	0.09150
746.39750	0.09077
744.46883	0.08998
742.54015	0.08913
740.61147	0.08831
738.68280	0.08773
736.75412	0.08752
734.82545	0.08757
732.89677	0.08772
730.96810	0.08790
729.03942	0.08804
727.11074	0.08809
725.18207	0.08812
723.25339	0.08826
721.32472	0.08845
719.39604	0.08858
717.46737	0.08875
715.53869	0.08907
713.61001	0.08947
711.68134	0.08980
709.75266	0.08999
707.82399	0.09008
705.89531	0.09009
703.96664	0.08994
702.03796	0.08956
700.10928	0.08911
698.18061	0.08861
696.25193	0.08803
694.32326	0.08749
692.39458	0.08698
690.46591	0.08648
688.53723	0.08604
686.60855	0.08566
684.67988	0.08526
682.75120	0.08474
680.82253	0.08419
678.89385	0.08369
676.96518	0.08316
675.03650	0.08254
673.10782	0.08185
671.17915	0.08109
669.25047	0.08026
667.32180	0.07947
665.39312	0.07872
663.46445	0.07796
661.53577	0.07723
659.60709	0.07651
657.67842	0.07581
655.74974	0.07514
653.82107	0.07445
651.89239	0.07371
649.96372	0.07298
648.03504	0.07220
646.10636	0.07128
644.17769	0.07034
642.24901	0.06945
640.32034	0.06854
638.39166	0.06753
636.46299	0.06650
634.53431	0.06545
632.60563	0.06407
630.67696	0.06190
628.74828	0.05854
626.81961	0.05428
624.89093	0.05012
622.96226	0.04685
621.03358	0.04489
619.10490	0.04391
617.17623	0.04319
615.24755	0.04235
613.31888	0.04130
611.39020	0.04032
609.46153	0.03986
607.53285	0.03994
605.60417	0.04033
603.67550	0.04087
601.74682	0.04154
599.81815	0.04231
597.88947	0.04308
595.96080	0.04370
594.03212	0.04410
592.10344	0.04428
590.17477	0.04434
588.24609	0.04438
586.31742	0.04440
584.38874	0.04432
582.46007	0.04413
580.53139	0.04380
578.60271	0.04329
576.67404	0.04264
574.74536	0.04201
572.81669	0.04142
570.88801	0.04092
568.95934	0.04047
567.03066	0.04000
565.10198	0.03948
563.17331	0.03905
561.24463	0.03876
559.31596	0.03853
557.38728	0.03832
555.45861	0.03818
553.52993	0.03805
551.60125	0.03785
549.67258	0.03765
547.74390	0.03759
545.81523	0.03758
543.88655	0.03741
541.95788	0.03718
540.02920	0.03700
538.10052	0.03685
536.17185	0.03670
534.24317	0.03650
532.31450	0.03624
530.38582	0.03600
528.45715	0.03576
526.52847	0.03549
524.59979	0.03521
522.67112	0.03488
520.74244	0.03446
518.81377	0.03395
516.88509	0.03336
514.95642	0.03282
513.02774	0.03251
511.09906	0.03238
509.17039	0.03216
507.24171	0.03184
505.31304	0.03149
503.38436	0.03110
501.45569	0.03069
499.52701	0.03024
497.59833	0.02981
495.66966	0.02937
493.74098	0.02887
491.81231	0.02835
489.88363	0.02781
487.95496	0.02724
486.02628	0.02668
484.09760	0.02616
482.16893	0.02564
480.24025	0.02511
478.31158	0.02459
476.38290	0.02411
474.45423	0.02366
472.52555	0.02317
470.59687	0.02271
468.66820	0.02237
466.73952	0.02208
464.81085	0.02174
462.88217	0.02145
460.95350	0.02130
459.02482	0.02123
457.09614	0.02119
455.16747	0.02122
453.23879	0.02127
451.31012	0.02123
449.38144	0.02112
447.45277	0.02100
445.52409	0.02081
443.59541	0.02054
441.66674	0.02027
439.73806	0.01996
437.80939	0.01960
435.88071	0.01925
433.95204	0.01883
432.02336	0.01830
430.09468	0.01774
428.16601	0.01711
426.23733	0.01645
424.30866	0.01582
422.37998	0.01518
420.45131	0.01451
418.52263	0.01398
416.59395	0.01354
414.66528	0.01287
412.73660	0.01201
410.80793	0.01137
408.87925	0.01097
406.95058	0.01052
405.02190	0.00995
403.09322	0.00935
401.16455	0.00878
399.23587	0.00821
397.30720	0.00764
395.37852	0.00714
393.44985	0.00673
391.52117	0.00634
389.59249	0.00590
387.66382	0.00545
385.73514	0.00504
383.80647	0.00462
381.87779	0.00423
379.94912	0.00399
378.02044	0.00379
376.09176	0.00346
374.16309	0.00310
372.23441	0.00285
370.30574	0.00272
368.37706	0.00253
