7496.76250	0.00109
7494.83382	0.00110
7492.90514	0.00111
7490.97647	0.00111
7489.04779	0.00110
7487.11912	0.00110
7485.19044	0.00111
7483.26177	0.00112
7481.33309	0.00112
7479.40441	0.00111
7477.47574	0.00111
7475.54706	0.00112
7473.61839	0.00112
7471.68971	0.00112
7469.76104	0.00112
7467.83236	0.00113
7465.90368	0.00114
7463.97501	0.00115
7462.04633	0.00115
7460.11766	0.00115
7458.18898	0.00115
7456.26031	0.00115
7454.33163	0.00115
7452.40295	0.00114
7450.47428	0.00116
7448.54560	0.00118
7446.61693	0.00120
7444.68825	0.00119
7442.75958	0.00117
7440.83090	0.00116
7438.90222	0.00117
7436.97355	0.00117
7435.04487	0.00118
7433.11620	0.00121
7431.18752	0.00122
7429.25885	0.00121
7427.33017	0.00121
7425.40149	0.00122
7423.47282	0.00124
7421.54414	0.00124
7419.61547	0.00124
7417.68679	0.00123
7415.75812	0.00122
7413.82944	0.00122
7411.90076	0.00122
7409.97209	0.00122
7408.04341	0.00123
7406.11474	0.00124
7404.18606	0.00125
7402.25739	0.00126
7400.32871	0.00124
7398.40003	0.00123
7396.47136	0.00123
7394.54268	0.00124
7392.61401	0.00126
7390.68533	0.00127
7388.75666	0.00128
7386.82798	0.00129
7384.89930	0.00129
7382.97063	0.00126
7381.04195	0.00125
7379.11328	0.00126
7377.18460	0.00127
7375.25593	0.00128
7373.32725	0.00129
7371.39857	0.00131
7369.46990	0.00132
7367.54122	0.00133
7365.61255	0.00133
7363.68387	0.00132
7361.75520	0.00132
7359.82652	0.00133
7357.89784	0.00133
7355.96917	0.00133
7354.04049	0.00133
7352.11182	0.00132
7350.18314	0.00132
7348.25447	0.00133
7346.32579	0.00133
7344.39711	0.00133
7342.46844	0.00132
7340.53976	0.00133
7338.61109	0.00136
7336.68241	0.00137
7334.75374	0.00136
7332.82506	0.00133
7330.89638	0.00132
7328.96771	0.00134
7327.03903	0.00136
7325.11036	0.00139
7323.18168	0.00140
7321.25301	0.00140
7319.32433	0.00141
7317.39565	0.00141
7315.46698	0.00140
7313.53830	0.00138
7311.60963	0.00139
7309.68095	0.00141
7307.75228	0.00142
7305.82360	0.00143
7303.89492	0.00143
7301.96625	0.00143
7300.03757	0.00144
7298.10890	0.00145
7296.18022	0.00145
7294.25155	0.00144
7292.32287	0.00142
7290.39419	0.00142
7288.46552	0.00141
7286.53684	0.00141
7284.60817	0.00142
7282.67949	0.00145
7280.75082	0.00146
7278.82214	0.00146
7276.89346	0.00146
7274.96479	0.00145
7273.03611	0.00145
7271.10744	0.00145
7269.17876	0.00146
7267.25009	0.00147
7265.32141	0.00146
7263.39273	0.00145
7261.46406	0.00145
7259.53538	0.00147
7257.60671	0.00149
7255.67803	0.00149
7253.74936	0.00150
7251.82068	0.00150
7249.89200	0.00150
7247.96333	0.00150
7246.03465	0.00150
7244.10598	0.00152
7242.17730	0.00152
7240.24863	0.00152
7238.31995	0.00153
7236.39127	0.00154
7234.46260	0.00154
7232.53392	0.00154
7230.60525	0.00154
7228.67657	0.00154
7226.74790	0.00155
7224.81922	0.00155
7222.89054	0.00155
7220.96187	0.00156
7219.03319	0.00157
7217.10452	0.00158
7215.17584	0.00158
7213.24717	0.00157
7211.31849	0.00156
7209.38981	0.00156
7207.46114	0.00155
7205.53246	0.00155
7203.60379	0.00157
7201.67511	0.00158
7199.74644	0.00159
7197.81776	0.00159
7195.88908	0.00159
7193.96041	0.00160
7192.03173	0.00162
7190.10306	0.00163
7188.17438	0.00163
7186.24571	0.00160
7184.31703	0.00159
7182.38835	0.00160
7180.45968	0.00162
7178.53100	0.00164
7176.60233	0.00165
7174.67365	0.00165
7172.74498	0.00164
7170.81630	0.00165
7168.88762	0.00166
7166.95895	0.00167
7165.03027	0.00166
7163.10160	0.00165
7161.17292	0.00166
7159.24425	0.00167
7157.31557	0.00167
7155.38689	0.00169
7153.45822	0.00170
7151.52954	0.00169
7149.60087	0.00169
7147.67219	0.00169
7145.74352	0.00169
7143.81484	0.00170
7141.88616	0.00172
7139.95749	0.00173
7138.02881	0.00173
7136.10014	0.00173
7134.17146	0.00173
7132.24279	0.00172
7130.31411	0.00172
7128.38543	0.00173
7126.45676	0.00174
7124.52808	0.00174
7122.59941	0.00173
7120.67073	0.00174
7118.74206	0.00174
7116.81338	0.00174
7114.88470	0.00173
7112.95603	0.00173
7111.02735	0.00175
7109.09868	0.00178
7107.17000	0.00179
7105.24133	0.00180
7103.31265	0.00180
7101.38397	0.00180
7099.45530	0.00180
7097.52662	0.00180
7095.59795	0.00181
7093.66927	0.00183
7091.74060	0.00183
7089.81192	0.00183
7087.88324	0.00183
7085.95457	0.00183
7084.02589	0.00183
7082.09722	0.00183
7080.16854	0.00183
7078.23987	0.00184
7076.31119	0.00185
7074.38251	0.00185
7072.45384	0.00185
7070.52516	0.00184
7068.59649	0.00184
7066.66781	0.00185
7064.73914	0.00186
7062.81046	0.00186
7060.88178	0.00186
7058.95311	0.00187
7057.02443	0.00188
7055.09576	0.00188
7053.16708	0.00189
7051.23841	0.00189
7049.30973	0.00190
7047.38105	0.00189
7045.45238	0.00189
7043.52370	0.00189
7041.59503	0.00189
7039.66635	0.00190
7037.73768	0.00191
7035.80900	0.00192
7033.88032	0.00192
7031.95165	0.00194
7030.02297	0.00195
7028.09430	0.00195
7026.16562	0.00194
7024.23695	0.00194
7022.30827	0.00195
7020.37959	0.00197
7018.45092	0.00198
7016.52224	0.00198
7014.59357	0.00197
7012.66489	0.00198
7010.73622	0.00199
7008.80754	0.00200
7006.87886	0.00200
7004.95019	0.00200
7003.02151	0.00201
7001.09284	0.00201
6999.16416	0.00200
6997.23549	0.00200
6995.30681	0.00202
6993.37813	0.00202
6991.44946	0.00201
6989.52078	0.00201
6987.59211	0.00203
6985.66343	0.00204
6983.73476	0.00203
6981.80608	0.00203
6979.87740	0.00204
6977.94873	0.00203
6976.02005	0.00202
6974.09138	0.00203
6972.16270	0.00205
6970.23403	0.00206
6968.30535	0.00207
6966.37667	0.00209
6964.44800	0.00210
6962.51932	0.00208
6960.59065	0.00207
6958.66197	0.00209
6956.73330	0.00210
6954.80462	0.00212
6952.87594	0.00212
6950.94727	0.00211
6949.01859	0.00211
6947.08992	0.00212
6945.16124	0.00214
6943.23257	0.00216
6941.30389	0.00217
6939.37521	0.00216
6937.44654	0.00215
6935.51786	0.00214
6933.58919	0.00213
6931.66051	0.00215
6929.73184	0.00217
6927.80316	0.00218
6925.87448	0.00218
6923.94581	0.00218
6922.01713	0.00219
6920.08846	0.00220
6918.15978	0.00221
6916.23111	0.00222
6914.30243	0.00223
6912.37375	0.00222
6910.44508	0.00222
6908.51640	0.00223
6906.58773	0.00223
6904.65905	0.00222
6902.73038	0.00222
6900.80170	0.00222
6898.87302	0.00222
6896.94435	0.00223
6895.01567	0.00223
6893.08700	0.00224
6891.15832	0.00226
6889.22965	0.00226
6887.30097	0.00227
6885.37229	0.00227
6883.44362	0.00227
6881.51494	0.00228
6879.58627	0.00229
6877.65759	0.00230
6875.72892	0.00230
6873.80024	0.00230
6871.87156	0.00230
6869.94289	0.00231
6868.01421	0.00232
6866.08554	0.00233
6864.15686	0.00233
6862.22819	0.00233
6860.29951	0.00233
6858.37083	0.00233
6856.44216	0.00234
6854.51348	0.00235
6852.58481	0.00237
6850.65613	0.00237
6848.72746	0.00235
6846.79878	0.00234
6844.87010	0.00236
6842.94143	0.00238
6841.01275	0.00238
6839.08408	0.00239
6837.15540	0.00239
6835.22673	0.00239
6833.29805	0.00239
6831.36937	0.00240
6829.44070	0.00241
6827.51202	0.00241
6825.58335	0.00241
6823.65467	0.00242
6821.72600	0.00244
6819.79732	0.00244
6817.86864	0.00244
6815.93997	0.00244
6814.01129	0.00244
6812.08262	0.00245
6810.15394	0.00247
6808.22527	0.00247
6806.29659	0.00248
6804.36791	0.00249
6802.43924	0.00249
6800.51056	0.00249
6798.58189	0.00250
6796.65321	0.00250
6794.72454	0.00249
6792.79586	0.00247
6790.86718	0.00247
6788.93851	0.00249
6787.00983	0.00252
6785.08116	0.00253
6783.15248	0.00254
6781.22381	0.00256
6779.29513	0.00257
6777.36645	0.00257
6775.43778	0.00257
6773.50910	0.00256
6771.58043	0.00256
6769.65175	0.00257
6767.72308	0.00260
6765.79440	0.00262
6763.86572	0.00263
6761.93705	0.00262
6760.00837	0.00261
6758.07970	0.00261
6756.15102	0.00261
6754.22235	0.00261
6752.29367	0.00262
6750.36499	0.00265
6748.43632	0.00265
6746.50764	0.00264
6744.57897	0.00264
6742.65029	0.00266
6740.72162	0.00267
6738.79294	0.00267
6736.86426	0.00267
6734.93559	0.00268
6733.00691	0.00270
6731.07824	0.00271
6729.14956	0.00270
6727.22089	0.00270
6725.29221	0.00270
6723.36353	0.00269
6721.43486	0.00268
6719.50618	0.00268
6717.57751	0.00270
6715.64883	0.00272
6713.72016	0.00273
6711.79148	0.00276
6709.86280	0.00277
6707.93413	0.00277
6706.00545	0.00277
6704.07678	0.00277
6702.14810	0.00277
6700.21943	0.00278
6698.29075	0.00278
6696.36207	0.00278
6694.43340	0.00280
6692.50472	0.00283
6690.57605	0.00285
6688.64737	0.00285
6686.71870	0.00283
6684.79002	0.00281
6682.86134	0.00282
6680.93267	0.00282
6679.00399	0.00282
6677.07532	0.00284
6675.14664	0.00287
6673.21797	0.00288
6671.28929	0.00288
6669.36061	0.00288
6667.43194	0.00288
6665.50326	0.00288
6663.57459	0.00289
6661.64591	0.00290
6659.71724	0.00292
6657.78856	0.00293
6655.85988	0.00293
6653.93121	0.00293
6652.00253	0.00295
6650.07386	0.00296
6648.14518	0.00297
6646.21651	0.00298
6644.28783	0.00297
6642.35915	0.00296
6640.43048	0.00296
6638.50180	0.00297
6636.57313	0.00297
6634.64445	0.00296
6632.71578	0.00297
6630.78710	0.00298
6628.85842	0.00300
6626.92975	0.00300
6625.00107	0.00301
6623.07240	0.00302
6621.14372	0.00302
6619.21505	0.00303
6617.28637	0.00304
6615.35769	0.00304
6613.42902	0.00304
6611.50034	0.00304
6609.57167	0.00304
6607.64299	0.00305
6605.71432	0.00305
6603.78564	0.00305
6601.85696	0.00307
6599.92829	0.00308
6597.99961	0.00310
6596.07094	0.00312
6594.14226	0.00313
6592.21359	0.00312
6590.28491	0.00312
6588.35623	0.00312
6586.42756	0.00313
6584.49888	0.00315
6582.57021	0.00315
6580.64153	0.00315
6578.71286	0.00315
6576.78418	0.00316
6574.85550	0.00317
6572.92683	0.00318
6570.99815	0.00319
6569.06948	0.00319
6567.14080	0.00320
6565.21213	0.00320
6563.28345	0.00321
6561.35477	0.00323
6559.42610	0.00324
6557.49742	0.00325
6555.56875	0.00325
6553.64007	0.00325
6551.71140	0.00325
6549.78272	0.00326
6547.85404	0.00327
6545.92537	0.00327
6543.99669	0.00328
6542.06802	0.00328
6540.13934	0.00329
6538.21067	0.00329
6536.28199	0.00329
6534.35331	0.00330
6532.42464	0.00332
6530.49596	0.00333
6528.56729	0.00333
6526.63861	0.00334
6524.70994	0.00336
6522.78126	0.00337
6520.85258	0.00336
6518.92391	0.00336
6516.99523	0.00337
6515.06656	0.00338
6513.13788	0.00339
6511.20921	0.00340
6509.28053	0.00341
6507.35185	0.00341
6505.42318	0.00341
6503.49450	0.00342
6501.56583	0.00342
6499.63715	0.00342
6497.70848	0.00343
6495.77980	0.00344
6493.85112	0.00345
6491.92245	0.00347
6489.99377	0.00348
6488.06510	0.00349
6486.13642	0.00348
6484.20775	0.00347
6482.27907	0.00347
6480.35039	0.00348
6478.42172	0.00351
6476.49304	0.00353
6474.56437	0.00356
6472.63569	0.00357
6470.70702	0.00358
6468.77834	0.00359
6466.84966	0.00360
6464.92099	0.00360
6462.99231	0.00359
6461.06364	0.00358
6459.13496	0.00360
6457.20629	0.00361
6455.27761	0.00360
6453.34893	0.00359
6451.42026	0.00359
6449.49158	0.00359
6447.56291	0.00360
6445.63423	0.00363
6443.70556	0.00366
6441.77688	0.00368
6439.84820	0.00369
6437.91953	0.00369
6435.99085	0.00369
6434.06218	0.00370
6432.13350	0.00371
6430.20483	0.00370
6428.27615	0.00370
6426.34747	0.00371
6424.41880	0.00372
6422.49012	0.00374
6420.56145	0.00375
6418.63277	0.00377
6416.70410	0.00378
6414.77542	0.00377
6412.84674	0.00375
6410.91807	0.00374
6408.98939	0.00377
6407.06072	0.00380
6405.13204	0.00383
6403.20337	0.00385
6401.27469	0.00386
6399.34601	0.00386
6397.41734	0.00386
6395.48866	0.00386
6393.55999	0.00385
6391.63131	0.00385
6389.70264	0.00386
6387.77396	0.00387
6385.84528	0.00389
6383.91661	0.00390
6381.98793	0.00391
6380.05926	0.00390
6378.13058	0.00392
6376.20191	0.00395
6374.27323	0.00396
6372.34455	0.00397
6370.41588	0.00396
6368.48720	0.00396
6366.55853	0.00397
6364.62985	0.00397
6362.70118	0.00396
6360.77250	0.00398
6358.84382	0.00400
6356.91515	0.00402
6354.98647	0.00403
6353.05780	0.00402
6351.12912	0.00401
6349.20045	0.00403
6347.27177	0.00405
6345.34309	0.00406
6343.41442	0.00406
6341.48574	0.00406
6339.55707	0.00407
6337.62839	0.00407
6335.69972	0.00408
6333.77104	0.00409
6331.84236	0.00411
6329.91369	0.00411
6327.98501	0.00411
6326.05634	0.00412
6324.12766	0.00413
6322.19899	0.00415
6320.27031	0.00417
6318.34163	0.00419
6316.41296	0.00420
6314.48428	0.00421
6312.55561	0.00422
6310.62693	0.00424
6308.69826	0.00425
6306.76958	0.00425
6304.84090	0.00425
6302.91223	0.00425
6300.98355	0.00426
6299.05488	0.00427
6297.12620	0.00427
6295.19753	0.00428
6293.26885	0.00430
6291.34017	0.00431
6289.41150	0.00432
6287.48282	0.00433
6285.55415	0.00432
6283.62547	0.00432
6281.69680	0.00433
6279.76812	0.00436
6277.83944	0.00438
6275.91077	0.00439
6273.98209	0.00439
6272.05342	0.00440
6270.12474	0.00440
6268.19607	0.00439
6266.26739	0.00437
6264.33871	0.00438
6262.41004	0.00442
6260.48136	0.00445
6258.55269	0.00445
6256.62401	0.00445
6254.69534	0.00446
6252.76666	0.00448
6250.83798	0.00450
6248.90931	0.00452
6246.98063	0.00453
6245.05196	0.00454
6243.12328	0.00455
6241.19461	0.00454
6239.26593	0.00453
6237.33725	0.00455
6235.40858	0.00457
6233.47990	0.00458
6231.55123	0.00458
6229.62255	0.00459
6227.69388	0.00460
6225.76520	0.00462
6223.83652	0.00461
6221.90785	0.00461
6219.97917	0.00462
6218.05050	0.00465
6216.12182	0.00466
6214.19315	0.00466
6212.26447	0.00467
6210.33579	0.00469
6208.40712	0.00472
6206.47844	0.00473
6204.54977	0.00473
6202.62109	0.00474
6200.69242	0.00475
6198.76374	0.00475
6196.83506	0.00476
6194.90639	0.00478
6192.97771	0.00479
6191.04904	0.00480
6189.12036	0.00481
6187.19169	0.00482
6185.26301	0.00483
6183.33433	0.00486
6181.40566	0.00488
6179.47698	0.00489
6177.54831	0.00490
6175.61963	0.00491
6173.69096	0.00490
6171.76228	0.00490
6169.83360	0.00490
6167.90493	0.00491
6165.97625	0.00492
6164.04758	0.00492
6162.11890	0.00494
6160.19023	0.00496
6158.26155	0.00496
6156.33287	0.00496
6154.40420	0.00496
6152.47552	0.00498
6150.54685	0.00500
6148.61817	0.00501
6146.68950	0.00502
6144.76082	0.00503
6142.83214	0.00505
6140.90347	0.00506
6138.97479	0.00509
6137.04612	0.00510
6135.11744	0.00510
6133.18877	0.00512
6131.26009	0.00514
6129.33141	0.00515
6127.40274	0.00513
6125.47406	0.00513
6123.54539	0.00513
6121.61671	0.00512
6119.68804	0.00513
6117.75936	0.00517
6115.83068	0.00521
6113.90201	0.00522
6111.97333	0.00521
6110.04466	0.00523
6108.11598	0.00525
6106.18731	0.00525
6104.25863	0.00526
6102.32995	0.00527
6100.40128	0.00527
6098.47260	0.00527
6096.54393	0.00528
6094.61525	0.00530
6092.68658	0.00533
6090.75790	0.00535
6088.82922	0.00536
6086.90055	0.00538
6084.97187	0.00538
6083.04320	0.00538
6081.11452	0.00538
6079.18585	0.00539
6077.25717	0.00540
6075.32849	0.00542
6073.39982	0.00545
6071.47114	0.00546
6069.54247	0.00546
6067.61379	0.00546
6065.68512	0.00549
6063.75644	0.00551
6061.82776	0.00552
6059.89909	0.00553
6057.97041	0.00554
6056.04174	0.00555
6054.11306	0.00556
6052.18439	0.00556
6050.25571	0.00556
6048.32703	0.00557
6046.39836	0.00558
6044.46968	0.00560
6042.54101	0.00561
6040.61233	0.00561
6038.68366	0.00562
6036.75498	0.00565
6034.82630	0.00567
6032.89763	0.00569
6030.96895	0.00570
6029.04028	0.00571
6027.11160	0.00571
6025.18293	0.00570
6023.25425	0.00571
6021.32557	0.00575
6019.39690	0.00577
6017.46822	0.00578
6015.53955	0.00580
6013.61087	0.00581
6011.68220	0.00580
6009.75352	0.00579
6007.82484	0.00581
6005.89617	0.00584
6003.96749	0.00586
6002.03882	0.00586
6000.11014	0.00587
5998.18147	0.00590
5996.25279	0.00592
5994.32411	0.00593
5992.39544	0.00594
5990.46676	0.00594
5988.53809	0.00594
5986.60941	0.00594
5984.68074	0.00596
5982.75206	0.00599
5980.82338	0.00601
5978.89471	0.00602
5976.96603	0.00601
5975.03736	0.00602
5973.10868	0.00605
5971.18001	0.00608
5969.25133	0.00610
5967.32265	0.00610
5965.39398	0.00609
5963.46530	0.00610
5961.53663	0.00612
5959.60795	0.00613
5957.67928	0.00614
5955.75060	0.00615
5953.82192	0.00617
5951.89325	0.00620
5949.96457	0.00621
5948.03590	0.00621
5946.10722	0.00624
5944.17855	0.00627
5942.24987	0.00628
5940.32119	0.00628
5938.39252	0.00630
5936.46384	0.00632
5934.53517	0.00633
5932.60649	0.00634
5930.67782	0.00635
5928.74914	0.00635
5926.82046	0.00634
5924.89179	0.00635
5922.96311	0.00637
5921.03444	0.00639
5919.10576	0.00642
5917.17709	0.00644
5915.24841	0.00645
5913.31973	0.00646
5911.39106	0.00645
5909.46238	0.00644
5907.53371	0.00646
5905.60503	0.00648
5903.67636	0.00650
5901.74768	0.00652
5899.81900	0.00655
5897.89033	0.00658
5895.96165	0.00659
5894.03298	0.00659
5892.10430	0.00660
5890.17563	0.00663
5888.24695	0.00665
5886.31827	0.00664
5884.38960	0.00663
5882.46092	0.00664
5880.53225	0.00665
5878.60357	0.00668
5876.67490	0.00670
5874.74622	0.00672
5872.81755	0.00672
5870.88887	0.00674
5868.96019	0.00676
5867.03152	0.00679
5865.10284	0.00681
5863.17417	0.00683
5861.24549	0.00685
5859.31682	0.00686
5857.38814	0.00686
5855.45946	0.00686
5853.53079	0.00685
5851.60211	0.00686
5849.67344	0.00689
5847.74476	0.00692
5845.81609	0.00694
5843.88741	0.00695
5841.95873	0.00695
5840.03006	0.00696
5838.10138	0.00698
5836.17271	0.00701
5834.24403	0.00703
5832.31536	0.00704
5830.38668	0.00704
5828.45800	0.00705
5826.52933	0.00707
5824.60065	0.00708
5822.67198	0.00708
5820.74330	0.00709
5818.81463	0.00712
5816.88595	0.00714
5814.95727	0.00714
5813.02860	0.00716
5811.09992	0.00718
5809.17125	0.00719
5807.24257	0.00719
5805.31390	0.00721
5803.38522	0.00724
5801.45654	0.00727
5799.52787	0.00727
5797.59919	0.00727
5795.67052	0.00729
5793.74184	0.00731
5791.81317	0.00732
5789.88449	0.00733
5787.95581	0.00735
5786.02714	0.00737
5784.09846	0.00737
5782.16979	0.00736
5780.24111	0.00738
5778.31244	0.00742
5776.38376	0.00746
5774.45508	0.00747
5772.52641	0.00747
5770.59773	0.00747
5768.66906	0.00749
5766.74038	0.00751
5764.81171	0.00753
5762.88303	0.00756
5760.95435	0.00757
5759.02568	0.00758
5757.09700	0.00758
5755.16833	0.00759
5753.23965	0.00760
5751.31098	0.00763
5749.38230	0.00766
5747.45362	0.00767
5745.52495	0.00769
5743.59627	0.00772
5741.66760	0.00775
5739.73892	0.00775
5737.81025	0.00774
5735.88157	0.00773
5733.95289	0.00774
5732.02422	0.00776
5730.09554	0.00779
5728.16687	0.00783
5726.23819	0.00785
5724.30952	0.00786
5722.38084	0.00787
5720.45216	0.00788
5718.52349	0.00789
5716.59481	0.00790
5714.66614	0.00792
5712.73746	0.00794
5710.80879	0.00796
5708.88011	0.00799
5706.95143	0.00801
5705.02276	0.00802
5703.09408	0.00802
5701.16541	0.00805
5699.23673	0.00807
5697.30806	0.00809
5695.37938	0.00811
5693.45070	0.00812
5691.52203	0.00813
5689.59335	0.00813
5687.66468	0.00814
5685.73600	0.00817
5683.80733	0.00820
5681.87865	0.00821
5679.94997	0.00821
5678.02130	0.00820
5676.09262	0.00822
5674.16395	0.00826
5672.23527	0.00829
5670.30660	0.00830
5668.37792	0.00832
5666.44924	0.00834
5664.52057	0.00835
5662.59189	0.00835
5660.66322	0.00836
5658.73454	0.00839
5656.80587	0.00842
5654.87719	0.00844
5652.94851	0.00845
5651.01984	0.00845
5649.09116	0.00845
5647.16249	0.00846
5645.23381	0.00849
5643.30514	0.00852
5641.37646	0.00855
5639.44778	0.00857
5637.51911	0.00858
5635.59043	0.00860
5633.66176	0.00862
5631.73308	0.00865
5629.80441	0.00868
5627.87573	0.00869
5625.94705	0.00870
5624.01838	0.00871
5622.08970	0.00872
5620.16103	0.00874
5618.23235	0.00876
5616.30368	0.00876
5614.37500	0.00877
5612.44632	0.00879
5610.51765	0.00882
5608.58897	0.00885
5606.66030	0.00887
5604.73162	0.00888
5602.80295	0.00889
5600.87427	0.00891
5598.94559	0.00893
5597.01692	0.00897
5595.08824	0.00900
5593.15957	0.00899
5591.23089	0.00898
5589.30222	0.00900
5587.37354	0.00903
5585.44486	0.00906
5583.51619	0.00908
5581.58751	0.00909
5579.65884	0.00909
5577.73016	0.00909
5575.80149	0.00910
5573.87281	0.00912
5571.94413	0.00914
5570.01546	0.00918
5568.08678	0.00922
5566.15811	0.00924
5564.22943	0.00925
5562.30076	0.00926
5560.37208	0.00926
5558.44340	0.00927
5556.51473	0.00930
5554.58605	0.00932
5552.65738	0.00934
5550.72870	0.00936
5548.80003	0.00939
5546.87135	0.00940
5544.94267	0.00941
5543.01400	0.00944
5541.08532	0.00946
5539.15665	0.00946
5537.22797	0.00946
5535.29930	0.00948
5533.37062	0.00951
5531.44194	0.00955
5529.51327	0.00958
5527.58459	0.00959
5525.65592	0.00960
5523.72724	0.00962
5521.79857	0.00962
5519.86989	0.00962
5517.94121	0.00964
5516.01254	0.00966
5514.08386	0.00969
5512.15519	0.00971
5510.22651	0.00973
5508.29784	0.00974
5506.36916	0.00976
5504.44048	0.00979
5502.51181	0.00981
5500.58313	0.00984
5498.65446	0.00986
5496.72578	0.00987
5494.79711	0.00988
5492.86843	0.00988
5490.93975	0.00990
5489.01108	0.00994
5487.08240	0.00997
5485.15373	0.01000
5483.22505	0.01002
5481.29638	0.01003
5479.36770	0.01003
5477.43902	0.01003
5475.51035	0.01006
5473.58167	0.01010
5471.65300	0.01014
5469.72432	0.01015
5467.79565	0.01017
5465.86697	0.01017
5463.93829	0.01018
5462.00962	0.01017
5460.08094	0.01019
5458.15227	0.01022
5456.22359	0.01026
5454.29492	0.01030
5452.36624	0.01032
5450.43756	0.01031
5448.50889	0.01032
5446.58021	0.01033
5444.65154	0.01036
5442.72286	0.01038
5440.79419	0.01040
5438.86551	0.01042
5436.93683	0.01044
5435.00816	0.01046
5433.07948	0.01049
5431.15081	0.01049
5429.22213	0.01049
5427.29346	0.01051
5425.36478	0.01056
5423.43610	0.01061
5421.50743	0.01063
5419.57875	0.01064
5417.65008	0.01066
5415.72140	0.01067
5413.79273	0.01068
5411.86405	0.01071
5409.93537	0.01074
5408.00670	0.01076
5406.07802	0.01078
5404.14935	0.01078
5402.22067	0.01079
5400.29200	0.01081
5398.36332	0.01083
5396.43464	0.01085
5394.50597	0.01088
5392.57729	0.01090
5390.64862	0.01091
5388.71994	0.01093
5386.79127	0.01096
5384.86259	0.01100
5382.93391	0.01103
5381.00524	0.01104
5379.07656	0.01104
5377.14789	0.01105
5375.21921	0.01109
5373.29054	0.01113
5371.36186	0.01115
5369.43318	0.01116
5367.50451	0.01118
5365.57583	0.01119
5363.64716	0.01121
5361.71848	0.01123
5359.78981	0.01125
5357.86113	0.01127
5355.93245	0.01129
5354.00378	0.01130
5352.07510	0.01131
5350.14643	0.01134
5348.21775	0.01137
5346.28908	0.01137
5344.36040	0.01136
5342.43172	0.01138
5340.50305	0.01141
5338.57437	0.01145
5336.64570	0.01148
5334.71702	0.01150
5332.78835	0.01151
5330.85967	0.01153
5328.93099	0.01156
5327.00232	0.01160
5325.07364	0.01163
5323.14497	0.01166
5321.21629	0.01168
5319.28762	0.01169
5317.35894	0.01170
5315.43026	0.01172
5313.50159	0.01174
5311.57291	0.01177
5309.64424	0.01179
5307.71556	0.01181
5305.78689	0.01184
5303.85821	0.01186
5301.92953	0.01189
5300.00086	0.01193
5298.07218	0.01195
5296.14351	0.01198
5294.21483	0.01201
5292.28616	0.01201
5290.35748	0.01200
5288.42880	0.01200
5286.50013	0.01203
5284.57145	0.01207
5282.64278	0.01210
5280.71410	0.01212
5278.78543	0.01215
5276.85675	0.01217
5274.92807	0.01219
5272.99940	0.01219
5271.07072	0.01219
5269.14205	0.01220
5267.21337	0.01222
5265.28470	0.01225
5263.35602	0.01226
5261.42734	0.01229
5259.49867	0.01233
5257.56999	0.01238
5255.64132	0.01241
5253.71264	0.01243
5251.78397	0.01242
5249.85529	0.01240
5247.92661	0.01241
5245.99794	0.01244
5244.06926	0.01248
5242.14059	0.01254
5240.21191	0.01258
5238.28324	0.01261
5236.35456	0.01262
5234.42588	0.01264
5232.49721	0.01267
5230.56853	0.01270
5228.63986	0.01271
5226.71118	0.01271
5224.78251	0.01272
5222.85383	0.01274
5220.92515	0.01276
5218.99648	0.01279
5217.06780	0.01282
5215.13913	0.01284
5213.21045	0.01286
5211.28178	0.01289
5209.35310	0.01292
5207.42442	0.01295
5205.49575	0.01296
5203.56707	0.01298
5201.63840	0.01302
5199.70972	0.01304
5197.78105	0.01307
5195.85237	0.01310
5193.92369	0.01312
5191.99502	0.01313
5190.06634	0.01315
5188.13767	0.01319
5186.20899	0.01322
5184.28032	0.01323
5182.35164	0.01324
5180.42296	0.01327
5178.49429	0.01329
5176.56561	0.01331
5174.63694	0.01332
5172.70826	0.01333
5170.77959	0.01334
5168.85091	0.01338
5166.92223	0.01342
5164.99356	0.01343
5163.06488	0.01345
5161.13621	0.01349
5159.20753	0.01354
5157.27886	0.01356
5155.35018	0.01356
5153.42150	0.01354
5151.49283	0.01356
5149.56415	0.01360
5147.63548	0.01361
5145.70680	0.01361
5143.77813	0.01366
5141.84945	0.01372
5139.92077	0.01374
5137.99210	0.01375
5136.06342	0.01376
5134.13475	0.01377
5132.20607	0.01377
5130.27740	0.01378
5128.34872	0.01382
5126.42004	0.01386
5124.49137	0.01389
5122.56269	0.01392
5120.63402	0.01396
5118.70534	0.01399
5116.77667	0.01401
5114.84799	0.01401
5112.91931	0.01402
5110.99064	0.01405
5109.06196	0.01408
5107.13329	0.01412
5105.20461	0.01417
5103.27594	0.01419
5101.34726	0.01418
5099.41858	0.01420
5097.48991	0.01424
5095.56123	0.01426
5093.63256	0.01426
5091.70388	0.01426
5089.77521	0.01429
5087.84653	0.01433
5085.91785	0.01438
5083.98918	0.01440
5082.06050	0.01440
5080.13183	0.01439
5078.20315	0.01443
5076.27448	0.01449
5074.34580	0.01454
5072.41712	0.01457
5070.48845	0.01458
5068.55977	0.01460
5066.63110	0.01461
5064.70242	0.01463
5062.77375	0.01465
5060.84507	0.01468
5058.91639	0.01469
5056.98772	0.01469
5055.05904	0.01471
5053.13037	0.01476
5051.20169	0.01481
5049.27302	0.01484
5047.34434	0.01486
5045.41566	0.01487
5043.48699	0.01488
5041.55831	0.01490
5039.62964	0.01492
5037.70096	0.01494
5035.77229	0.01497
5033.84361	0.01501
5031.91493	0.01505
5029.98626	0.01506
5028.05758	0.01506
5026.12891	0.01508
5024.20023	0.01511
5022.27156	0.01515
5020.34288	0.01518
5018.41420	0.01520
5016.48553	0.01521
5014.55685	0.01524
5012.62818	0.01528
5010.69950	0.01532
5008.77083	0.01536
5006.84215	0.01538
5004.91347	0.01539
5002.98480	0.01541
5001.05612	0.01543
4999.12745	0.01544
4997.19877	0.01546
4995.27010	0.01549
4993.34142	0.01552
4991.41274	0.01555
4989.48407	0.01559
4987.55539	0.01563
4985.62672	0.01566
4983.69804	0.01568
4981.76937	0.01569
4979.84069	0.01571
4977.91201	0.01573
4975.98334	0.01575
4974.05466	0.01577
4972.12599	0.01580
4970.19731	0.01583
4968.26864	0.01585
4966.33996	0.01589
4964.41128	0.01592
4962.48261	0.01594
4960.55393	0.01597
4958.62526	0.01600
4956.69658	0.01603
4954.76791	0.01605
4952.83923	0.01607
4950.91055	0.01611
4948.98188	0.01616
4947.05320	0.01618
4945.12453	0.01618
4943.19585	0.01619
4941.26718	0.01621
4939.33850	0.01623
4937.40982	0.01626
4935.48115	0.01630
4933.55247	0.01634
4931.62380	0.01636
4929.69512	0.01637
4927.76645	0.01640
4925.83777	0.01644
4923.90909	0.01647
4921.98042	0.01649
4920.05174	0.01653
4918.12307	0.01655
4916.19439	0.01656
4914.26572	0.01657
4912.33704	0.01659
4910.40836	0.01663
4908.47969	0.01667
4906.55101	0.01669
4904.62234	0.01672
4902.69366	0.01674
4900.76499	0.01676
4898.83631	0.01679
4896.90763	0.01683
4894.97896	0.01686
4893.05028	0.01688
4891.12161	0.01691
4889.19293	0.01695
4887.26426	0.01699
4885.33558	0.01700
4883.40690	0.01701
4881.47823	0.01703
4879.54955	0.01708
4877.62088	0.01713
4875.69220	0.01716
4873.76353	0.01718
4871.83485	0.01719
4869.90617	0.01719
4867.97750	0.01721
4866.04882	0.01725
4864.12015	0.01729
4862.19147	0.01732
4860.26280	0.01734
4858.33412	0.01736
4856.40544	0.01739
4854.47677	0.01743
4852.54809	0.01745
4850.61942	0.01749
4848.69074	0.01752
4846.76207	0.01753
4844.83339	0.01754
4842.90471	0.01758
4840.97604	0.01764
4839.04736	0.01767
4837.11869	0.01768
4835.19001	0.01770
4833.26134	0.01774
4831.33266	0.01777
4829.40398	0.01778
4827.47531	0.01779
4825.54663	0.01781
4823.61796	0.01783
4821.68928	0.01785
4819.76061	0.01789
4817.83193	0.01794
4815.90325	0.01800
4813.97458	0.01804
4812.04590	0.01805
4810.11723	0.01806
4808.18855	0.01807
4806.25988	0.01810
4804.33120	0.01815
4802.40252	0.01818
4800.47385	0.01821
4798.54517	0.01823
4796.61650	0.01827
4794.68782	0.01831
4792.75915	0.01833
4790.83047	0.01833
4788.90179	0.01833
4786.97312	0.01836
4785.04444	0.01840
4783.11577	0.01844
4781.18709	0.01847
4779.25842	0.01849
4777.32974	0.01853
4775.40106	0.01858
4773.47239	0.01862
4771.54371	0.01866
4769.61504	0.01869
4767.68636	0.01872
4765.75769	0.01874
4763.82901	0.01876
4761.90033	0.01878
4759.97166	0.01880
4758.04298	0.01884
4756.11431	0.01888
4754.18563	0.01890
4752.25696	0.01894
4750.32828	0.01898
4748.39960	0.01901
4746.47093	0.01903
4744.54225	0.01906
4742.61358	0.01909
4740.68490	0.01913
4738.75623	0.01916
4736.82755	0.01919
4734.89887	0.01921
4732.97020	0.01924
4731.04152	0.01926
4729.11285	0.01929
4727.18417	0.01933
4725.25550	0.01937
4723.32682	0.01940
4721.39814	0.01942
4719.46947	0.01945
4717.54079	0.01949
4715.61212	0.01951
4713.68344	0.01954
4711.75477	0.01959
4709.82609	0.01964
4707.89741	0.01966
4705.96874	0.01966
4704.04006	0.01969
4702.11139	0.01974
4700.18271	0.01977
4698.25404	0.01981
4696.32536	0.01983
4694.39668	0.01986
4692.46801	0.01991
4690.53933	0.01997
4688.61066	0.02000
4686.68198	0.02001
4684.75331	0.02002
4682.82463	0.02004
4680.89595	0.02009
4678.96728	0.02014
4677.03860	0.02017
4675.10993	0.02018
4673.18125	0.02021
4671.25258	0.02025
4669.32390	0.02028
4667.39522	0.02029
4665.46655	0.02031
4663.53787	0.02034
4661.60920	0.02036
4659.68052	0.02039
4657.75185	0.02043
4655.82317	0.02048
4653.89449	0.02052
4651.96582	0.02055
4650.03714	0.02056
4648.10847	0.02059
4646.17979	0.02064
4644.25112	0.02069
4642.32244	0.02074
4640.39376	0.02078
4638.46509	0.02080
4636.53641	0.02084
4634.60774	0.02088
4632.67906	0.02091
4630.75039	0.02093
4628.82171	0.02097
4626.89303	0.02101
4624.96436	0.02106
4623.03568	0.02109
4621.10701	0.02110
4619.17833	0.02112
4617.24966	0.02115
4615.32098	0.02119
4613.39230	0.02123
4611.46363	0.02129
4609.53495	0.02135
4607.60628	0.02138
4605.67760	0.02142
4603.74893	0.02146
4601.82025	0.02149
4599.89157	0.02151
4597.96290	0.02152
4596.03422	0.02154
4594.10555	0.02157
4592.17687	0.02161
4590.24820	0.02165
4588.31952	0.02168
4586.39084	0.02173
4584.46217	0.02178
4582.53349	0.02183
4580.60482	0.02187
4578.67614	0.02190
4576.74747	0.02191
4574.81879	0.02194
4572.89011	0.02199
4570.96144	0.02204
4569.03276	0.02207
4567.10409	0.02209
4565.17541	0.02210
4563.24674	0.02213
4561.31806	0.02217
4559.38938	0.02223
4557.46071	0.02229
4555.53203	0.02233
4553.60336	0.02236
4551.67468	0.02241
4549.74601	0.02244
4547.81733	0.02245
4545.88865	0.02247
4543.95998	0.02252
4542.03130	0.02260
4540.10263	0.02266
4538.17395	0.02269
4536.24528	0.02271
4534.31660	0.02274
4532.38792	0.02276
4530.45925	0.02279
4528.53057	0.02281
4526.60190	0.02284
4524.67322	0.02290
4522.74455	0.02295
4520.81587	0.02299
4518.88719	0.02302
4516.95852	0.02306
4515.02984	0.02312
4513.10117	0.02318
4511.17249	0.02322
4509.24382	0.02323
4507.31514	0.02325
4505.38646	0.02328
4503.45779	0.02332
4501.52911	0.02337
4499.60044	0.02340
4497.67176	0.02343
4495.74309	0.02348
4493.81441	0.02355
4491.88573	0.02362
4489.95706	0.02366
4488.02838	0.02368
4486.09971	0.02370
4484.17103	0.02376
4482.24236	0.02383
4480.31368	0.02387
4478.38500	0.02388
4476.45633	0.02389
4474.52765	0.02393
4472.59898	0.02398
4470.67030	0.02401
4468.74163	0.02405
4466.81295	0.02410
4464.88427	0.02415
4462.95560	0.02419
4461.02692	0.02423
4459.09825	0.02427
4457.16957	0.02433
4455.24090	0.02438
4453.31222	0.02443
4451.38354	0.02447
4449.45487	0.02449
4447.52619	0.02450
4445.59752	0.02452
4443.66884	0.02456
4441.74017	0.02463
4439.81149	0.02469
4437.88281	0.02473
4435.95414	0.02478
4434.02546	0.02483
4432.09679	0.02489
4430.16811	0.02494
4428.23944	0.02500
4426.31076	0.02503
4424.38208	0.02506
4422.45341	0.02510
4420.52473	0.02515
4418.59606	0.02520
4416.66738	0.02524
4414.73871	0.02529
4412.81003	0.02534
4410.88135	0.02538
4408.95268	0.02542
4407.02400	0.02546
4405.09533	0.02549
4403.16665	0.02551
4401.23798	0.02556
4399.30930	0.02561
4397.38062	0.02566
4395.45195	0.02569
4393.52327	0.02575
4391.59460	0.02581
4389.66592	0.02584
4387.73725	0.02586
4385.80857	0.02590
4383.87989	0.02596
4381.95122	0.02603
4380.02254	0.02609
4378.09387	0.02613
4376.16519	0.02616
4374.23652	0.02620
4372.30784	0.02625
4370.37916	0.02628
4368.45049	0.02631
4366.52181	0.02635
4364.59314	0.02639
4362.66446	0.02645
4360.73579	0.02652
4358.80711	0.02658
4356.87843	0.02663
4354.94976	0.02668
4353.02108	0.02675
4351.09241	0.02681
4349.16373	0.02685
4347.23506	0.02689
4345.30638	0.02693
4343.37770	0.02698
4341.44903	0.02703
4339.52035	0.02708
4337.59168	0.02711
4335.66300	0.02716
4333.73433	0.02720
4331.80565	0.02723
4329.87697	0.02727
4327.94830	0.02733
4326.01962	0.02740
4324.09095	0.02744
4322.16227	0.02747
4320.23360	0.02752
4318.30492	0.02758
4316.37624	0.02764
4314.44757	0.02770
4312.51889	0.02775
4310.59022	0.02779
4308.66154	0.02785
4306.73287	0.02790
4304.80419	0.02794
4302.87551	0.02800
4300.94684	0.02804
4299.01816	0.02808
4297.08949	0.02812
4295.16081	0.02816
4293.23214	0.02823
4291.30346	0.02831
4289.37478	0.02836
4287.44611	0.02840
4285.51743	0.02846
4283.58876	0.02855
4281.66008	0.02862
4279.73141	0.02866
4277.80273	0.02869
4275.87405	0.02874
4273.94538	0.02881
4272.01670	0.02888
4270.08803	0.02893
4268.15935	0.02895
4266.23068	0.02898
4264.30200	0.02903
4262.37332	0.02910
4260.44465	0.02915
4258.51597	0.02917
4256.58730	0.02921
4254.65862	0.02929
4252.72995	0.02938
4250.80127	0.02944
4248.87259	0.02946
4246.94392	0.02949
4245.01524	0.02954
4243.08657	0.02960
4241.15789	0.02965
4239.22922	0.02973
4237.30054	0.02984
4235.37186	0.02990
4233.44319	0.02992
4231.51451	0.02995
4229.58584	0.03000
4227.65716	0.03004
4225.72849	0.03009
4223.79981	0.03015
4221.87113	0.03023
4219.94246	0.03029
4218.01378	0.03034
4216.08511	0.03039
4214.15643	0.03044
4212.22776	0.03051
4210.29908	0.03057
4208.37040	0.03062
4206.44173	0.03066
4204.51305	0.03069
4202.58438	0.03075
4200.65570	0.03084
4198.72703	0.03091
4196.79835	0.03095
4194.86968	0.03099
4192.94100	0.03106
4191.01232	0.03114
4189.08365	0.03122
4187.15497	0.03128
4185.22630	0.03133
4183.29762	0.03139
4181.36895	0.03143
4179.44027	0.03148
4177.51159	0.03154
4175.58292	0.03163
4173.65424	0.03171
4171.72557	0.03177
4169.79689	0.03181
4167.86822	0.03184
4165.93954	0.03189
4164.01086	0.03196
4162.08219	0.03204
4160.15351	0.03211
4158.22484	0.03215
4156.29616	0.03220
4154.36749	0.03227
4152.43881	0.03233
4150.51013	0.03238
4148.58146	0.03242
4146.65278	0.03248
4144.72411	0.03258
4142.79543	0.03266
4140.86676	0.03271
4138.93808	0.03277
4137.00940	0.03283
4135.08073	0.03289
4133.15205	0.03295
4131.22338	0.03301
4129.29470	0.03306
4127.36603	0.03312
4125.43735	0.03321
4123.50867	0.03329
4121.58000	0.03334
4119.65132	0.03340
4117.72265	0.03348
4115.79397	0.03355
4113.86530	0.03359
4111.93662	0.03363
4110.00794	0.03369
4108.07927	0.03376
4106.15059	0.03383
4104.22192	0.03390
4102.29324	0.03396
4100.36457	0.03403
4098.43589	0.03409
4096.50721	0.03413
4094.57854	0.03416
4092.64986	0.03423
4090.72119	0.03432
4088.79251	0.03440
4086.86384	0.03444
4084.93516	0.03448
4083.00648	0.03457
4081.07781	0.03465
4079.14913	0.03472
4077.22046	0.03479
4075.29178	0.03486
4073.36311	0.03491
4071.43443	0.03496
4069.50575	0.03502
4067.57708	0.03508
4065.64840	0.03515
4063.71973	0.03525
4061.79105	0.03535
4059.86238	0.03540
4057.93370	0.03544
4056.00502	0.03551
4054.07635	0.03560
4052.14767	0.03566
4050.21900	0.03572
4048.29032	0.03579
4046.36165	0.03587
4044.43297	0.03593
4042.50429	0.03596
4040.57562	0.03599
4038.64694	0.03607
4036.71827	0.03616
4034.78959	0.03624
4032.86092	0.03629
4030.93224	0.03636
4029.00356	0.03644
4027.07489	0.03652
4025.14621	0.03661
4023.21754	0.03669
4021.28886	0.03676
4019.36019	0.03683
4017.43151	0.03691
4015.50283	0.03698
4013.57416	0.03703
4011.64548	0.03709
4009.71681	0.03714
4007.78813	0.03720
4005.85946	0.03729
4003.93078	0.03737
4002.00210	0.03746
4000.07343	0.03754
3998.14475	0.03761
3996.21608	0.03768
3994.28740	0.03776
3992.35873	0.03781
3990.43005	0.03786
3988.50137	0.03793
3986.57270	0.03800
3984.64402	0.03808
3982.71535	0.03816
3980.78667	0.03824
3978.85800	0.03831
3976.92932	0.03836
3975.00064	0.03840
3973.07197	0.03847
3971.14329	0.03856
3969.21462	0.03863
3967.28594	0.03871
3965.35727	0.03880
3963.42859	0.03888
3961.49991	0.03895
3959.57124	0.03902
3957.64256	0.03909
3955.71389	0.03916
3953.78521	0.03924
3951.85654	0.03931
3949.92786	0.03935
3947.99918	0.03940
3946.07051	0.03947
3944.14183	0.03953
3942.21316	0.03960
3940.28448	0.03972
3938.35581	0.03983
3936.42713	0.03989
3934.49845	0.03988
3932.56978	0.03988
3930.64110	0.03996
3928.71243	0.04006
3926.78375	0.04014
3924.85508	0.04020
3922.92640	0.04030
3920.99772	0.04038
3919.06905	0.04041
3917.14037	0.04047
3915.21170	0.04062
3913.28302	0.04078
3911.35435	0.04088
3909.42567	0.04092
3907.49699	0.04090
3905.56832	0.04084
3903.63964	0.04081
3901.71097	0.04088
3899.78229	0.04104
3897.85362	0.04126
3895.92494	0.04141
3893.99626	0.04145
3892.06759	0.04148
3890.13891	0.04158
3888.21024	0.04163
3886.28156	0.04162
3884.35289	0.04170
3882.42421	0.04180
3880.49553	0.04190
3878.56686	0.04206
3876.63818	0.04217
3874.70951	0.04218
3872.78083	0.04219
3870.85216	0.04224
3868.92348	0.04238
3866.99480	0.04251
3865.06613	0.04257
3863.13745	0.04264
3861.20878	0.04279
3859.28010	0.04291
3857.35143	0.04289
3855.42275	0.04272
3853.49407	0.04265
3851.56540	0.04287
3849.63672	0.04321
3847.70805	0.04342
3845.77937	0.04346
3843.85070	0.04344
3841.92202	0.04342
3839.99334	0.04342
3838.06467	0.04353
3836.13599	0.04372
3834.20732	0.04391
3832.27864	0.04404
3830.34997	0.04414
3828.42129	0.04422
3826.49261	0.04428
3824.56394	0.04429
3822.63526	0.04422
3820.70659	0.04428
3818.77791	0.04449
3816.84924	0.04468
3814.92056	0.04483
3812.99188	0.04499
3811.06321	0.04506
3809.13453	0.04503
3807.20586	0.04502
3805.27718	0.04509
3803.34851	0.04513
3801.41983	0.04518
3799.49115	0.04534
3797.56248	0.04551
3795.63380	0.04565
3793.70513	0.04582
3791.77645	0.04596
3789.84778	0.04606
3787.91910	0.04611
3785.99042	0.04615
3784.06175	0.04621
3782.13307	0.04626
3780.20440	0.04628
3778.27572	0.04638
3776.34705	0.04655
3774.41837	0.04669
3772.48969	0.04673
3770.56102	0.04673
3768.63234	0.04678
3766.70367	0.04687
3764.77499	0.04699
3762.84632	0.04709
3760.91764	0.04710
3758.98896	0.04712
3757.06029	0.04721
3755.13161	0.04725
3753.20294	0.04714
3751.27426	0.04702
3749.34559	0.04707
3747.41691	0.04714
3745.48823	0.04709
3743.55956	0.04727
3741.63088	0.04768
3739.70221	0.04790
3737.77353	0.04783
3735.84486	0.04779
3733.91618	0.04798
3731.98750	0.04829
3730.05883	0.04848
3728.13015	0.04851
3726.20148	0.04854
3724.27280	0.04865
3722.34413	0.04877
3720.41545	0.04891
3718.48677	0.04907
3716.55810	0.04917
3714.62942	0.04916
3712.70075	0.04911
3710.77207	0.04919
3708.84340	0.04940
3706.91472	0.04959
3704.98604	0.04968
3703.05737	0.04973
3701.12869	0.04982
3699.20002	0.04997
3697.27134	0.05011
3695.34267	0.05018
3693.41399	0.05011
3691.48531	0.04998
3689.55664	0.04998
3687.62796	0.05019
3685.69929	0.05050
3683.77061	0.05071
3681.84194	0.05077
3679.91326	0.05072
3677.98458	0.05060
3676.05591	0.05056
3674.12723	0.05074
3672.19856	0.05094
3670.26988	0.05101
3668.34121	0.05114
3666.41253	0.05137
3664.48385	0.05156
3662.55518	0.05168
3660.62650	0.05175
3658.69783	0.05174
3656.76915	0.05171
3654.84048	0.05175
3652.91180	0.05171
3650.98312	0.05150
3649.05445	0.05136
3647.12577	0.05150
3645.19710	0.05184
3643.26842	0.05215
3641.33975	0.05235
3639.41107	0.05249
3637.48239	0.05258
3635.55372	0.05260
3633.62504	0.05258
3631.69637	0.05249
3629.76769	0.05243
3627.83902	0.05259
3625.91034	0.05287
3623.98166	0.05303
3622.05299	0.05300
3620.12431	0.05290
3618.19564	0.05292
3616.26696	0.05303
3614.33829	0.05308
3612.40961	0.05313
3610.48093	0.05319
3608.55226	0.05326
3606.62358	0.05343
3604.69491	0.05363
3602.76623	0.05372
3600.83756	0.05372
3598.90888	0.05375
3596.98020	0.05378
3595.05153	0.05382
3593.12285	0.05391
3591.19418	0.05391
3589.26550	0.05381
3587.33683	0.05385
3585.40815	0.05409
3583.47947	0.05432
3581.55080	0.05443
3579.62212	0.05450
3577.69345	0.05460
3575.76477	0.05471
3573.83610	0.05479
3571.90742	0.05478
3569.97874	0.05467
3568.05007	0.05455
3566.12139	0.05462
3564.19272	0.05487
3562.26404	0.05510
3560.33537	0.05525
3558.40669	0.05535
3556.47801	0.05541
3554.54934	0.05543
3552.62066	0.05547
3550.69199	0.05552
3548.76331	0.05552
3546.83464	0.05550
3544.90596	0.05558
3542.97728	0.05575
3541.04861	0.05590
3539.11993	0.05597
3537.19126	0.05599
3535.26258	0.05603
3533.33391	0.05610
3531.40523	0.05613
3529.47655	0.05612
3527.54788	0.05614
3525.61920	0.05619
3523.69053	0.05623
3521.76185	0.05627
3519.83318	0.05636
3517.90450	0.05645
3515.97582	0.05651
3514.04715	0.05655
3512.11847	0.05658
3510.18980	0.05658
3508.26112	0.05661
3506.33245	0.05664
3504.40377	0.05664
3502.47509	0.05667
3500.54642	0.05675
3498.61774	0.05679
3496.68907	0.05680
3494.76039	0.05679
3492.83172	0.05680
3490.90304	0.05683
3488.97436	0.05685
3487.04569	0.05687
3485.11701	0.05692
3483.18834	0.05697
3481.25966	0.05701
3479.33099	0.05707
3477.40231	0.05715
3475.47363	0.05724
3473.54496	0.05732
3471.61628	0.05740
3469.68761	0.05748
3467.75893	0.05756
3465.83026	0.05766
3463.90158	0.05775
3461.97290	0.05782
3460.04423	0.05790
3458.11555	0.05801
3456.18688	0.05812
3454.25820	0.05822
3452.32953	0.05829
3450.40085	0.05833
3448.47217	0.05835
3446.54350	0.05842
3444.61482	0.05855
3442.68615	0.05867
3440.75747	0.05880
3438.82880	0.05897
3436.90012	0.05914
3434.97144	0.05930
3433.04277	0.05945
3431.11409	0.05965
3429.18542	0.05989
3427.25674	0.06009
3425.32807	0.06025
3423.39939	0.06037
3421.47071	0.06049
3419.54204	0.06067
3417.61336	0.06086
3415.68469	0.06103
3413.75601	0.06117
3411.82734	0.06130
3409.89866	0.06142
3407.96998	0.06155
3406.04131	0.06169
3404.11263	0.06181
3402.18396	0.06191
3400.25528	0.06202
3398.32661	0.06215
3396.39793	0.06228
3394.46925	0.06241
3392.54058	0.06254
3390.61190	0.06270
3388.68323	0.06284
3386.75455	0.06296
3384.82588	0.06308
3382.89720	0.06320
3380.96852	0.06334
3379.03985	0.06348
3377.11117	0.06362
3375.18250	0.06371
3373.25382	0.06381
3371.32515	0.06393
3369.39647	0.06405
3367.46779	0.06414
3365.53912	0.06423
3363.61044	0.06437
3361.68177	0.06453
3359.75309	0.06466
3357.82442	0.06477
3355.89574	0.06487
3353.96706	0.06499
3352.03839	0.06513
3350.10971	0.06525
3348.18104	0.06535
3346.25236	0.06546
3344.32369	0.06558
3342.39501	0.06571
3340.46633	0.06583
3338.53766	0.06594
3336.60898	0.06605
3334.68031	0.06617
3332.75163	0.06629
3330.82296	0.06641
3328.89428	0.06653
3326.96560	0.06665
3325.03693	0.06677
3323.10825	0.06689
3321.17958	0.06703
3319.25090	0.06717
3317.32223	0.06729
3315.39355	0.06739
3313.46487	0.06750
3311.53620	0.06761
3309.60752	0.06773
3307.67885	0.06786
3305.75017	0.06799
3303.82150	0.06812
3301.89282	0.06824
3299.96414	0.06835
3298.03547	0.06847
3296.10679	0.06862
3294.17812	0.06875
3292.24944	0.06886
3290.32077	0.06896
3288.39209	0.06911
3286.46341	0.06926
3284.53474	0.06935
3282.60606	0.06944
3280.67739	0.06957
3278.74871	0.06973
3276.82004	0.06988
3274.89136	0.07002
3272.96268	0.07015
3271.03401	0.07027
3269.10533	0.07037
3267.17666	0.07048
3265.24798	0.07062
3263.31931	0.07077
3261.39063	0.07090
3259.46195	0.07100
3257.53328	0.07113
3255.60460	0.07127
3253.67593	0.07140
3251.74725	0.07154
3249.81858	0.07165
3247.88990	0.07175
3245.96122	0.07187
3244.03255	0.07202
3242.10387	0.07217
3240.17520	0.07231
3238.24652	0.07242
3236.31785	0.07254
3234.38917	0.07268
3232.46049	0.07281
3230.53182	0.07293
3228.60314	0.07307
3226.67447	0.07321
3224.74579	0.07334
3222.81712	0.07347
3220.88844	0.07360
3218.95976	0.07373
3217.03109	0.07384
3215.10241	0.07396
3213.17374	0.07409
3211.24506	0.07421
3209.31639	0.07432
3207.38771	0.07443
3205.45903	0.07455
3203.53036	0.07469
3201.60168	0.07485
3199.67301	0.07498
3197.74433	0.07510
3195.81566	0.07525
3193.88698	0.07540
3191.95830	0.07554
3190.02963	0.07568
3188.10095	0.07581
3186.17228	0.07594
3184.24360	0.07609
3182.31493	0.07624
3180.38625	0.07639
3178.45757	0.07652
3176.52890	0.07666
3174.60022	0.07681
3172.67155	0.07692
3170.74287	0.07702
3168.81420	0.07715
3166.88552	0.07730
3164.95684	0.07745
3163.02817	0.07759
3161.09949	0.07772
3159.17082	0.07785
3157.24214	0.07800
3155.31347	0.07817
3153.38479	0.07831
3151.45611	0.07843
3149.52744	0.07854
3147.59876	0.07865
3145.67009	0.07878
3143.74141	0.07897
3141.81274	0.07914
3139.88406	0.07926
3137.95538	0.07936
3136.02671	0.07948
3134.09803	0.07959
3132.16936	0.07969
3130.24068	0.07980
3128.31201	0.07996
3126.38333	0.08011
3124.45465	0.08025
3122.52598	0.08038
3120.59730	0.08049
3118.66863	0.08060
3116.73995	0.08073
3114.81128	0.08088
3112.88260	0.08104
3110.95392	0.08119
3109.02525	0.08133
3107.09657	0.08145
3105.16790	0.08158
3103.23922	0.08170
3101.31055	0.08180
3099.38187	0.08192
3097.45319	0.08208
3095.52452	0.08225
3093.59584	0.08239
3091.66717	0.08250
3089.73849	0.08260
3087.80982	0.08271
3085.88114	0.08286
3083.95246	0.08303
3082.02379	0.08318
3080.09511	0.08333
3078.16644	0.08345
3076.23776	0.08356
3074.30909	0.08368
3072.38041	0.08385
3070.45173	0.08401
3068.52306	0.08413
3066.59438	0.08422
3064.66571	0.08431
3062.73703	0.08445
3060.80836	0.08460
3058.87968	0.08473
3056.95100	0.08486
3055.02233	0.08501
3053.09365	0.08514
3051.16498	0.08527
3049.23630	0.08540
3047.30763	0.08554
3045.37895	0.08570
3043.45027	0.08583
3041.52160	0.08595
3039.59292	0.08608
3037.66425	0.08622
3035.73557	0.08634
3033.80690	0.08644
3031.87822	0.08656
3029.94954	0.08672
3028.02087	0.08688
3026.09219	0.08702
3024.16352	0.08715
3022.23484	0.08727
3020.30617	0.08737
3018.37749	0.08750
3016.44881	0.08765
3014.52014	0.08779
3012.59146	0.08789
3010.66279	0.08801
3008.73411	0.08815
3006.80544	0.08829
3004.87676	0.08843
3002.94808	0.08857
3001.01941	0.08870
2999.09073	0.08882
2997.16206	0.08896
2995.23338	0.08911
2993.30471	0.08926
2991.37603	0.08937
2989.44735	0.08947
2987.51868	0.08958
2985.59000	0.08969
2983.66133	0.08978
2981.73265	0.08985
2979.80398	0.08991
2977.87530	0.08996
2975.94662	0.08999
2974.01795	0.09002
2972.08927	0.09000
2970.16060	0.08995
2968.23192	0.08994
2966.30325	0.08997
2964.37457	0.09001
2962.44589	0.09007
2960.51722	0.09021
2958.58854	0.09040
2956.65987	0.09061
2954.73119	0.09079
2952.80252	0.09094
2950.87384	0.09109
2948.94516	0.09124
2947.01649	0.09136
2945.08781	0.09142
2943.15914	0.09148
2941.23046	0.09152
2939.30179	0.09154
2937.37311	0.09153
2935.44443	0.09150
2933.51576	0.09147
2931.58708	0.09147
2929.65841	0.09148
2927.72973	0.09147
2925.80106	0.09147
2923.87238	0.09147
2921.94370	0.09148
2920.01503	0.09155
2918.08635	0.09171
2916.15768	0.09200
2914.22900	0.09241
2912.30033	0.09286
2910.37165	0.09326
2908.44297	0.09356
2906.51430	0.09382
2904.58562	0.09407
2902.65695	0.09430
2900.72827	0.09449
2898.79960	0.09466
2896.87092	0.09487
2894.94224	0.09507
2893.01357	0.09524
2891.08489	0.09540
2889.15622	0.09554
2887.22754	0.09568
2885.29887	0.09586
2883.37019	0.09606
2881.44151	0.09623
2879.51284	0.09636
2877.58416	0.09649
2875.65549	0.09665
2873.72681	0.09678
2871.79814	0.09687
2869.86946	0.09696
2867.94078	0.09708
2866.01211	0.09720
2864.08343	0.09730
2862.15476	0.09738
2860.22608	0.09744
2858.29741	0.09743
2856.36873	0.09740
2854.44005	0.09739
2852.51138	0.09739
2850.58270	0.09747
2848.65403	0.09772
2846.72535	0.09812
2844.79668	0.09857
2842.86800	0.09894
2840.93932	0.09925
2839.01065	0.09951
2837.08197	0.09976
2835.15330	0.09999
2833.22462	0.10019
2831.29595	0.10036
2829.36727	0.10051
2827.43859	0.10068
2825.50992	0.10085
2823.58124	0.10102
2821.65257	0.10115
2819.72389	0.10127
2817.79522	0.10142
2815.86654	0.10158
2813.93786	0.10174
2812.00919	0.10187
2810.08051	0.10203
2808.15184	0.10220
2806.22316	0.10237
2804.29449	0.10252
2802.36581	0.10267
2800.43713	0.10279
2798.50846	0.10292
2796.57978	0.10306
2794.65111	0.10321
2792.72243	0.10336
2790.79376	0.10351
2788.86508	0.10365
2786.93640	0.10378
2785.00773	0.10390
2783.07905	0.10403
2781.15038	0.10419
2779.22170	0.10435
2777.29303	0.10451
2775.36435	0.10464
2773.43567	0.10476
2771.50700	0.10489
2769.57832	0.10505
2767.64965	0.10521
2765.72097	0.10537
2763.79230	0.10555
2761.86362	0.10570
2759.93494	0.10581
2758.00627	0.10594
2756.07759	0.10608
2754.14892	0.10621
2752.22024	0.10633
2750.29157	0.10644
2748.36289	0.10659
2746.43421	0.10675
2744.50554	0.10689
2742.57686	0.10702
2740.64819	0.10716
2738.71951	0.10731
2736.79084	0.10743
2734.86216	0.10755
2732.93348	0.10766
2731.00481	0.10782
2729.07613	0.10801
2727.14746	0.10817
2725.21878	0.10827
2723.29011	0.10838
2721.36143	0.10852
2719.43275	0.10870
2717.50408	0.10886
2715.57540	0.10899
2713.64673	0.10910
2711.71805	0.10921
2709.78938	0.10937
2707.86070	0.10953
2705.93202	0.10965
2704.00335	0.10976
2702.07467	0.10988
2700.14600	0.11001
2698.21732	0.11015
2696.28865	0.11030
2694.35997	0.11045
2692.43129	0.11058
2690.50262	0.11067
2688.57394	0.11079
2686.64527	0.11094
2684.71659	0.11113
2682.78792	0.11128
2680.85924	0.11142
2678.93056	0.11156
2677.00189	0.11167
2675.07321	0.11177
2673.14454	0.11188
2671.21586	0.11200
2669.28719	0.11214
2667.35851	0.11229
2665.42983	0.11245
2663.50116	0.11262
2661.57248	0.11279
2659.64381	0.11294
2657.71513	0.11309
2655.78646	0.11325
2653.85778	0.11341
2651.92910	0.11355
2650.00043	0.11365
2648.07175	0.11375
2646.14308	0.11388
2644.21440	0.11405
2642.28573	0.11424
2640.35705	0.11440
2638.42837	0.11452
2636.49970	0.11465
2634.57102	0.11481
2632.64235	0.11498
2630.71367	0.11513
2628.78500	0.11528
2626.85632	0.11544
2624.92764	0.11556
2622.99897	0.11568
2621.07029	0.11582
2619.14162	0.11599
2617.21294	0.11616
2615.28427	0.11632
2613.35559	0.11649
2611.42691	0.11665
2609.49824	0.11678
2607.56956	0.11689
2605.64089	0.11702
2603.71221	0.11716
2601.78354	0.11732
2599.85486	0.11747
2597.92618	0.11762
2595.99751	0.11775
2594.06883	0.11789
2592.14016	0.11802
2590.21148	0.11817
2588.28281	0.11831
2586.35413	0.11847
2584.42545	0.11863
2582.49678	0.11880
2580.56810	0.11895
2578.63943	0.11908
2576.71075	0.11921
2574.78208	0.11933
2572.85340	0.11943
2570.92472	0.11956
2568.99605	0.11971
2567.06737	0.11986
2565.13870	0.12001
2563.21002	0.12016
2561.28135	0.12033
2559.35267	0.12047
2557.42399	0.12061
2555.49532	0.12076
2553.56664	0.12091
2551.63797	0.12105
2549.70929	0.12118
2547.78062	0.12129
2545.85194	0.12142
2543.92326	0.12158
2541.99459	0.12174
2540.06591	0.12188
2538.13724	0.12200
2536.20856	0.12213
2534.27989	0.12229
2532.35121	0.12244
2530.42253	0.12257
2528.49386	0.12270
2526.56518	0.12287
2524.63651	0.12305
2522.70783	0.12322
2520.77916	0.12337
2518.85048	0.12350
2516.92181	0.12362
2514.99313	0.12377
2513.06445	0.12395
2511.13578	0.12414
2509.20710	0.12431
2507.27843	0.12445
2505.34975	0.12458
2503.42108	0.12472
2501.49240	0.12489
2499.56372	0.12506
2497.63505	0.12518
2495.70637	0.12532
2493.77770	0.12551
2491.84902	0.12572
2489.92035	0.12588
2487.99167	0.12602
2486.06299	0.12619
2484.13432	0.12638
2482.20564	0.12655
2480.27697	0.12668
2478.34829	0.12681
2476.41962	0.12693
2474.49094	0.12705
2472.56226	0.12721
2470.63359	0.12738
2468.70491	0.12755
2466.77624	0.12772
2464.84756	0.12786
2462.91889	0.12800
2460.99021	0.12815
2459.06153	0.12830
2457.13286	0.12846
2455.20418	0.12861
2453.27551	0.12876
2451.34683	0.12894
2449.41816	0.12910
2447.48948	0.12923
2445.56080	0.12936
2443.63213	0.12950
2441.70345	0.12967
2439.77478	0.12982
2437.84610	0.12994
2435.91743	0.13009
2433.98875	0.13028
2432.06007	0.13048
2430.13140	0.13066
2428.20272	0.13079
2426.27405	0.13092
2424.34537	0.13106
2422.41670	0.13121
2420.48802	0.13137
2418.55934	0.13152
2416.63067	0.13164
2414.70199	0.13179
2412.77332	0.13197
2410.84464	0.13213
2408.91597	0.13228
2406.98729	0.13246
2405.05861	0.13265
2403.12994	0.13279
2401.20126	0.13292
2399.27259	0.13308
2397.34391	0.13324
2395.41524	0.13339
2393.48656	0.13351
2391.55788	0.13363
2389.62921	0.13377
2387.70053	0.13390
2385.77186	0.13402
2383.84318	0.13418
2381.91451	0.13432
2379.98583	0.13441
2378.05715	0.13448
2376.12848	0.13454
2374.19980	0.13459
2372.27113	0.13463
2370.34245	0.13464
2368.41378	0.13464
2366.48510	0.13466
2364.55642	0.13473
2362.62775	0.13487
2360.69907	0.13504
2358.77040	0.13521
2356.84172	0.13540
2354.91305	0.13564
2352.98437	0.13594
2351.05569	0.13628
2349.12702	0.13652
2347.19834	0.13661
2345.26967	0.13662
2343.34099	0.13663
2341.41232	0.13672
2339.48364	0.13688
2337.55496	0.13709
2335.62629	0.13730
2333.69761	0.13746
2331.76894	0.13758
2329.84026	0.13769
2327.91159	0.13785
2325.98291	0.13805
2324.05423	0.13826
2322.12556	0.13847
2320.19688	0.13866
2318.26821	0.13885
2316.33953	0.13907
2314.41086	0.13932
2312.48218	0.13956
2310.55350	0.13976
2308.62483	0.13994
2306.69615	0.14011
2304.76748	0.14029
2302.83880	0.14045
2300.91013	0.14063
2298.98145	0.14081
2297.05277	0.14095
2295.12410	0.14105
2293.19542	0.14116
2291.26675	0.14130
2289.33807	0.14146
2287.40940	0.14163
2285.48072	0.14182
2283.55204	0.14199
2281.62337	0.14214
2279.69469	0.14226
2277.76602	0.14242
2275.83734	0.14260
2273.90867	0.14276
2271.97999	0.14289
2270.05131	0.14303
2268.12264	0.14317
2266.19396	0.14332
2264.26529	0.14347
2262.33661	0.14361
2260.40794	0.14375
2258.47926	0.14388
2256.55058	0.14403
2254.62191	0.14419
2252.69323	0.14438
2250.76456	0.14458
2248.83588	0.14475
2246.90721	0.14490
2244.97853	0.14508
2243.04985	0.14525
2241.12118	0.14537
2239.19250	0.14546
2237.26383	0.14556
2235.33515	0.14570
2233.40648	0.14587
2231.47780	0.14608
2229.54912	0.14627
2227.62045	0.14642
2225.69177	0.14654
2223.76310	0.14667
2221.83442	0.14681
2219.90575	0.14697
2217.97707	0.14712
2216.04839	0.14727
2214.11972	0.14740
2212.19104	0.14753
2210.26237	0.14767
2208.33369	0.14782
2206.40502	0.14797
2204.47634	0.14814
2202.54766	0.14830
2200.61899	0.14842
2198.69031	0.14855
2196.76164	0.14872
2194.83296	0.14888
2192.90429	0.14901
2190.97561	0.14913
2189.04693	0.14929
2187.11826	0.14945
2185.18958	0.14959
2183.26091	0.14972
2181.33223	0.14987
2179.40356	0.15004
2177.47488	0.15023
2175.54620	0.15041
2173.61753	0.15055
2171.68885	0.15066
2169.76018	0.15081
2167.83150	0.15097
2165.90283	0.15113
2163.97415	0.15127
2162.04547	0.15143
2160.11680	0.15160
2158.18812	0.15176
2156.25945	0.15190
2154.33077	0.15206
2152.40210	0.15223
2150.47342	0.15238
2148.54474	0.15249
2146.61607	0.15264
2144.68739	0.15284
2142.75872	0.15302
2140.83004	0.15319
2138.90137	0.15333
2136.97269	0.15345
2135.04401	0.15357
2133.11534	0.15374
2131.18666	0.15391
2129.25799	0.15405
2127.32931	0.15419
2125.40064	0.15433
2123.47196	0.15446
2121.54328	0.15462
2119.61461	0.15482
2117.68593	0.15500
2115.75726	0.15515
2113.82858	0.15528
2111.89991	0.15542
2109.97123	0.15554
2108.04255	0.15567
2106.11388	0.15583
2104.18520	0.15600
2102.25653	0.15617
2100.32785	0.15633
2098.39918	0.15651
2096.47050	0.15667
2094.54182	0.15680
2092.61315	0.15693
2090.68447	0.15709
2088.75580	0.15727
2086.82712	0.15741
2084.89845	0.15752
2082.96977	0.15766
2081.04109	0.15781
2079.11242	0.15798
2077.18374	0.15818
2075.25507	0.15836
2073.32639	0.15849
2071.39772	0.15863
2069.46904	0.15877
2067.54036	0.15891
2065.61169	0.15904
2063.68301	0.15921
2061.75434	0.15940
2059.82566	0.15958
2057.89699	0.15974
2055.96831	0.15989
2054.03963	0.16005
2052.11096	0.16019
2050.18228	0.16035
2048.25361	0.16051
2046.32493	0.16067
2044.39626	0.16080
2042.46758	0.16092
2040.53890	0.16107
2038.61023	0.16125
2036.68155	0.16142
2034.75288	0.16160
2032.82420	0.16177
2030.89553	0.16194
2028.96685	0.16211
2027.03817	0.16224
2025.10950	0.16235
2023.18082	0.16249
2021.25215	0.16265
2019.32347	0.16277
2017.39480	0.16289
2015.46612	0.16305
2013.53744	0.16324
2011.60877	0.16344
2009.68009	0.16364
2007.75142	0.16379
2005.82274	0.16389
2003.89407	0.16400
2001.96539	0.16415
2000.03671	0.16430
1998.10804	0.16441
1996.17936	0.16453
1994.25069	0.16462
1992.32201	0.16471
1990.39334	0.16489
1988.46466	0.16512
1986.53598	0.16531
1984.60731	0.16547
1982.67863	0.16561
1980.74996	0.16571
1978.82128	0.16579
1976.89261	0.16593
1974.96393	0.16612
1973.03525	0.16630
1971.10658	0.16640
1969.17790	0.16644
1967.24923	0.16651
1965.32055	0.16669
1963.39188	0.16692
1961.46320	0.16712
1959.53452	0.16729
1957.60585	0.16744
1955.67717	0.16755
1953.74850	0.16766
1951.81982	0.16781
1949.89115	0.16800
1947.96247	0.16815
1946.03379	0.16820
1944.10512	0.16822
1942.17644	0.16837
1940.24777	0.16861
1938.31909	0.16883
1936.39042	0.16901
1934.46174	0.16914
1932.53306	0.16926
1930.60439	0.16939
1928.67571	0.16958
1926.74704	0.16977
1924.81836	0.16983
1922.88969	0.16985
1920.96101	0.16980
1919.03233	0.16973
1917.10366	0.16996
1915.17498	0.17046
1913.24631	0.17076
1911.31763	0.17082
1909.38896	0.17094
1907.46028	0.17117
1905.53160	0.17140
1903.60293	0.17158
1901.67425	0.17174
1899.74558	0.17189
1897.81690	0.17198
1895.88823	0.17203
1893.95955	0.17216
1892.03087	0.17230
1890.10220	0.17237
1888.17352	0.17254
1886.24485	0.17283
1884.31617	0.17304
1882.38750	0.17317
1880.45882	0.17330
1878.53014	0.17347
1876.60147	0.17362
1874.67279	0.17374
1872.74412	0.17380
1870.81544	0.17371
1868.88677	0.17360
1866.95809	0.17381
1865.02941	0.17424
1863.10074	0.17457
1861.17206	0.17476
1859.24339	0.17493
1857.31471	0.17509
1855.38604	0.17525
1853.45736	0.17543
1851.52868	0.17556
1849.60001	0.17556
1847.67133	0.17536
1845.74266	0.17502
1843.81398	0.17508
1841.88531	0.17575
1839.95663	0.17637
1838.02795	0.17661
1836.09928	0.17678
1834.17060	0.17692
1832.24193	0.17689
1830.31325	0.17682
1828.38458	0.17689
1826.45590	0.17704
1824.52722	0.17730
1822.59855	0.17772
1820.66987	0.17800
1818.74120	0.17809
1816.81252	0.17818
1814.88385	0.17831
1812.95517	0.17838
1811.02649	0.17847
1809.09782	0.17868
1807.16914	0.17888
1805.24047	0.17893
1803.31179	0.17879
1801.38312	0.17876
1799.45444	0.17902
1797.52576	0.17930
1795.59709	0.17933
1793.66841	0.17923
1791.73974	0.17932
1789.81106	0.17971
1787.88239	0.18006
1785.95371	0.18014
1784.02503	0.18017
1782.09636	0.18025
1780.16768	0.18036
1778.23901	0.18053
1776.31033	0.18063
1774.38166	0.18055
1772.45298	0.18041
1770.52430	0.18049
1768.59563	0.18078
1766.66695	0.18113
1764.73828	0.18131
1762.80960	0.18126
1760.88093	0.18126
1758.95225	0.18139
1757.02357	0.18149
1755.09490	0.18141
1753.16622	0.18090
1751.23755	0.18036
1749.30887	0.18044
1747.38020	0.18084
1745.45152	0.18102
1743.52284	0.18100
1741.59417	0.18098
1739.66549	0.18112
1737.73682	0.18132
1735.80814	0.18125
1733.87947	0.18115
1731.95079	0.18141
1730.02211	0.18186
1728.09344	0.18222
1726.16476	0.18241
1724.23609	0.18246
1722.30741	0.18249
1720.37874	0.18238
1718.45006	0.18215
1716.52138	0.18222
1714.59271	0.18265
1712.66403	0.18311
1710.73536	0.18340
1708.80668	0.18340
1706.87801	0.18318
1704.94933	0.18292
1703.02065	0.18238
1701.09198	0.18176
1699.16330	0.18190
1697.23463	0.18260
1695.30595	0.18320
1693.37728	0.18368
1691.44860	0.18388
1689.51992	0.18377
1687.59125	0.18349
1685.66257	0.18309
1683.73390	0.18307
1681.80522	0.18351
1679.87655	0.18387
1677.94787	0.18393
1676.01919	0.18386
1674.09052	0.18383
1672.16184	0.18363
1670.23317	0.18332
1668.30449	0.18353
1666.37582	0.18406
1664.44714	0.18418
1662.51846	0.18413
1660.58979	0.18437
1658.66111	0.18451
1656.73244	0.18402
1654.80376	0.18321
1652.87509	0.18309
1650.94641	0.18366
1649.01773	0.18386
1647.08906	0.18372
1645.16038	0.18402
1643.23171	0.18458
1641.30303	0.18485
1639.37436	0.18465
1637.44568	0.18409
1635.51700	0.18382
1633.58833	0.18439
1631.65965	0.18509
1629.73098	0.18517
1627.80230	0.18493
1625.87363	0.18463
1623.94495	0.18427
1622.01627	0.18410
1620.08760	0.18418
1618.15892	0.18437
1616.23025	0.18490
1614.30157	0.18569
1612.37290	0.18627
1610.44422	0.18649
1608.51554	0.18662
1606.58687	0.18687
1604.65819	0.18715
1602.72952	0.18738
1600.80084	0.18761
1598.87217	0.18782
1596.94349	0.18797
1595.01481	0.18812
1593.08614	0.18832
1591.15746	0.18852
1589.22879	0.18871
1587.30011	0.18888
1585.37144	0.18903
1583.44276	0.18914
1581.51408	0.18921
1579.58541	0.18909
1577.65673	0.18881
1575.72806	0.18886
1573.79938	0.18927
1571.87071	0.18933
1569.94203	0.18914
1568.01335	0.18933
1566.08468	0.18972
1564.15600	0.18994
1562.22733	0.18973
1560.29865	0.18899
1558.36998	0.18850
1556.44130	0.18901
1554.51262	0.18992
1552.58395	0.19040
1550.65527	0.19048
1548.72660	0.19057
1546.79792	0.19058
1544.86925	0.19020
1542.94057	0.18968
1541.01189	0.18955
1539.08322	0.19005
1537.15454	0.19073
1535.22587	0.19097
1533.29719	0.19102
1531.36852	0.19135
1529.43984	0.19158
1527.51116	0.19149
1525.58249	0.19130
1523.65381	0.19100
1521.72514	0.19084
1519.79646	0.19113
1517.86779	0.19146
1515.93911	0.19162
1514.01043	0.19183
1512.08176	0.19187
1510.15308	0.19132
1508.22441	0.19058
1506.29573	0.19077
1504.36706	0.19188
1502.43838	0.19258
1500.50970	0.19238
1498.58103	0.19198
1496.65235	0.19204
1494.72368	0.19242
1492.79500	0.19250
1490.86633	0.19217
1488.93765	0.19192
1487.00897	0.19203
1485.08030	0.19230
1483.15162	0.19243
1481.22295	0.19234
1479.29427	0.19194
1477.36560	0.19121
1475.43692	0.19050
1473.50824	0.19007
1471.57957	0.19003
1469.65089	0.19026
1467.72222	0.19017
1465.79354	0.18974
1463.86487	0.18957
1461.93619	0.18959
1460.00751	0.18895
1458.07884	0.18780
1456.15016	0.18758
1454.22149	0.18844
1452.29281	0.18912
1450.36414	0.18924
1448.43546	0.18926
1446.50678	0.18944
1444.57811	0.18971
1442.64943	0.18990
1440.72076	0.18983
1438.79208	0.18932
1436.86341	0.18893
1434.93473	0.18935
1433.00605	0.18997
1431.07738	0.19018
1429.14870	0.19029
1427.22003	0.19051
1425.29135	0.19067
1423.36268	0.19071
1421.43400	0.19050
1419.50532	0.19014
1417.57665	0.19016
1415.64797	0.19057
1413.71930	0.19084
1411.79062	0.19084
1409.86195	0.19081
1407.93327	0.19084
1406.00459	0.19081
1404.07592	0.19076
1402.14724	0.19066
1400.21857	0.19041
1398.28989	0.19011
1396.36122	0.18985
1394.43254	0.18982
1392.50386	0.19011
1390.57519	0.19018
1388.64651	0.18974
1386.71784	0.18941
1384.78916	0.18950
1382.86049	0.18970
1380.93181	0.18981
1379.00313	0.18976
1377.07446	0.18956
1375.14578	0.18941
1373.21711	0.18950
1371.28843	0.18963
1369.35976	0.18967
1367.43108	0.18967
1365.50240	0.18950
1363.57373	0.18921
1361.64505	0.18921
1359.71638	0.18951
1357.78770	0.18978
1355.85903	0.18993
1353.93035	0.19001
1352.00167	0.19002
1350.07300	0.19001
1348.14432	0.19008
1346.21565	0.19019
1344.28697	0.19021
1342.35830	0.19000
1340.42962	0.18973
1338.50094	0.18969
1336.57227	0.18986
1334.64359	0.18999
1332.71492	0.18995
1330.78624	0.18980
1328.85757	0.18966
1326.92889	0.18953
1325.00021	0.18939
1323.07154	0.18921
1321.14286	0.18894
1319.21419	0.18868
1317.28551	0.18853
1315.35684	0.18843
1313.42816	0.18830
1311.49948	0.18817
1309.57081	0.18805
1307.64213	0.18784
1305.71346	0.18759
1303.78478	0.18734
1301.85611	0.18708
1299.92743	0.18686
1297.99875	0.18671
1296.07008	0.18660
1294.14140	0.18644
1292.21273	0.18624
1290.28405	0.18603
1288.35538	0.18584
1286.42670	0.18567
1284.49802	0.18551
1282.56935	0.18532
1280.64067	0.18506
1278.71200	0.18476
1276.78332	0.18443
1274.85465	0.18408
1272.92597	0.18365
1270.99729	0.18306
1269.06862	0.18225
1267.13994	0.18135
1265.21127	0.18057
1263.28259	0.18005
1261.35392	0.17983
1259.42524	0.17987
1257.49656	0.18006
1255.56789	0.18020
1253.63921	0.18019
1251.71054	0.18005
1249.78186	0.17981
1247.85319	0.17951
1245.92451	0.17920
1243.99583	0.17882
1242.06716	0.17837
1240.13848	0.17791
1238.20981	0.17746
1236.28113	0.17701
1234.35246	0.17653
1232.42378	0.17597
1230.49510	0.17538
1228.56643	0.17484
1226.63775	0.17439
1224.70908	0.17400
1222.78040	0.17358
1220.85173	0.17308
1218.92305	0.17256
1216.99437	0.17207
1215.06570	0.17161
1213.13702	0.17108
1211.20835	0.17047
1209.27967	0.16985
1207.35100	0.16929
1205.42232	0.16878
1203.49364	0.16826
1201.56497	0.16775
1199.63629	0.16725
1197.70762	0.16672
1195.77894	0.16613
1193.85027	0.16551
1191.92159	0.16487
1189.99291	0.16423
1188.06424	0.16356
1186.13556	0.16286
1184.20689	0.16212
1182.27821	0.16136
1180.34954	0.16061
1178.42086	0.15989
1176.49218	0.15913
1174.56351	0.15831
1172.63483	0.15743
1170.70616	0.15656
1168.77748	0.15572
1166.84881	0.15490
1164.92013	0.15406
1162.99145	0.15326
1161.06278	0.15256
1159.13410	0.15188
1157.20543	0.15118
1155.27675	0.15046
1153.34808	0.14974
1151.41940	0.14901
1149.49072	0.14827
1147.56205	0.14753
1145.63337	0.14674
1143.70470	0.14587
1141.77602	0.14492
1139.84735	0.14398
1137.91867	0.14304
1135.98999	0.14194
1134.06132	0.14063
1132.13264	0.13914
1130.20397	0.13742
1128.27529	0.13547
1126.34662	0.13338
1124.41794	0.13126
1122.48926	0.12914
1120.56059	0.12706
1118.63191	0.12500
1116.70324	0.12300
1114.77456	0.12115
1112.84589	0.11963
1110.91721	0.11844
1108.98853	0.11747
1107.05986	0.11672
1105.13118	0.11623
1103.20251	0.11605
1101.27383	0.11616
1099.34516	0.11648
1097.41648	0.11702
1095.48780	0.11774
1093.55913	0.11852
1091.63045	0.11927
1089.70178	0.12001
1087.77310	0.12071
1085.84443	0.12130
1083.91575	0.12176
1081.98707	0.12216
1080.05840	0.12249
1078.12972	0.12268
1076.20105	0.12276
1074.27237	0.12284
1072.34370	0.12298
1070.41502	0.12312
1068.48634	0.12327
1066.55767	0.12344
1064.62899	0.12359
1062.70032	0.12376
1060.77164	0.12398
1058.84297	0.12420
1056.91429	0.12440
1054.98561	0.12461
1053.05694	0.12486
1051.12826	0.12512
1049.19959	0.12536
1047.27091	0.12568
1045.34224	0.12610
1043.41356	0.12651
1041.48488	0.12688
1039.55621	0.12729
1037.62753	0.12775
1035.69886	0.12821
1033.77018	0.12860
1031.84151	0.12891
1029.91283	0.12919
1027.98415	0.12948
1026.05548	0.12980
1024.12680	0.13016
1022.19813	0.13050
1020.26945	0.13081
1018.34078	0.13112
1016.41210	0.13154
1014.48342	0.13209
1012.55475	0.13268
1010.62607	0.13324
1008.69740	0.13380
1006.76872	0.13435
1004.84005	0.13486
1002.91137	0.13527
1000.98269	0.13560
999.05402	0.13585
997.12534	0.13602
995.19667	0.13616
993.26799	0.13633
991.33932	0.13649
989.41064	0.13657
987.48196	0.13656
985.55329	0.13657
983.62461	0.13658
981.69594	0.13655
979.76726	0.13646
977.83859	0.13634
975.90991	0.13622
973.98123	0.13609
972.05256	0.13594
970.12388	0.13581
968.19521	0.13569
966.26653	0.13554
964.33786	0.13534
962.40918	0.13514
960.48050	0.13499
958.55183	0.13492
956.62315	0.13486
954.69448	0.13472
952.76580	0.13450
950.83713	0.13428
948.90845	0.13408
946.97977	0.13389
945.05110	0.13370
943.12242	0.13342
941.19375	0.13309
939.26507	0.13275
937.33640	0.13234
935.40772	0.13188
933.47904	0.13146
931.55037	0.13104
929.62169	0.13054
927.69302	0.13002
925.76434	0.12953
923.83567	0.12908
921.90699	0.12859
919.97831	0.12800
918.04964	0.12738
916.12096	0.12679
914.19229	0.12616
912.26361	0.12545
910.33494	0.12469
908.40626	0.12394
906.47758	0.12330
904.54891	0.12273
902.62023	0.12213
900.69156	0.12156
898.76288	0.12112
896.83421	0.12070
894.90553	0.12024
892.97685	0.11978
891.04818	0.11937
889.11950	0.11896
887.19083	0.11852
885.26215	0.11811
883.33348	0.11774
881.40480	0.11743
879.47612	0.11717
877.54745	0.11694
875.61877	0.11673
873.69010	0.11649
871.76142	0.11626
869.83275	0.11608
867.90407	0.11593
865.97539	0.11576
864.04672	0.11555
862.11804	0.11538
860.18937	0.11531
858.26069	0.11525
856.33202	0.11511
854.40334	0.11492
852.47466	0.11467
850.54599	0.11435
848.61731	0.11405
846.68864	0.11382
844.75996	0.11360
842.83129	0.11335
840.90261	0.11307
838.97394	0.11271
837.04526	0.11223
835.11658	0.11167
833.18791	0.11096
831.25923	0.11006
829.33056	0.10903
827.40188	0.10801
825.47321	0.10704
823.54453	0.10616
821.61585	0.10543
819.68718	0.10481
817.75850	0.10426
815.82983	0.10379
813.90115	0.10343
811.97248	0.10316
810.04380	0.10294
808.11512	0.10276
806.18645	0.10264
804.25777	0.10259
802.32910	0.10251
800.40042	0.10224
798.47175	0.10174
796.54307	0.10118
794.61439	0.10069
792.68572	0.10027
790.75704	0.09996
788.82837	0.09977
786.89969	0.09961
784.97102	0.09937
783.04234	0.09903
781.11366	0.09867
779.18499	0.09838
777.25631	0.09815
775.32764	0.09789
773.39896	0.09760
771.47029	0.09731
769.54161	0.09698
767.61293	0.09660
765.68426	0.09616
763.75558	0.09573
761.82691	0.09532
759.89823	0.09485
757.96956	0.09433
756.04088	0.09382
754.11220	0.09327
752.18353	0.09266
750.25485	0.09199
748.32618	0.09132
746.39750	0.09064
744.46883	0.08987
742.54015	0.08900
740.61147	0.08820
738.68280	0.08767
736.75412	0.08749
734.82545	0.08753
732.89677	0.08762
730.96810	0.08775
729.03942	0.08784
727.11074	0.08785
725.18207	0.08784
723.25339	0.08789
721.32472	0.08801
719.39604	0.08825
717.46737	0.08857
715.53869	0.08890
713.61001	0.08920
711.68134	0.08950
709.75266	0.08975
707.82399	0.08986
705.89531	0.08982
703.96664	0.08968
702.03796	0.08946
700.10928	0.08910
698.18061	0.08859
696.25193	0.08799
694.32326	0.08744
692.39458	0.08694
690.46591	0.08642
688.53723	0.08588
686.60855	0.08544
684.67988	0.08503
682.75120	0.08452
680.82253	0.08399
678.89385	0.08351
676.96518	0.08298
675.03650	0.08233
673.10782	0.08163
671.17915	0.08090
669.25047	0.08011
667.32180	0.07935
665.39312	0.07868
663.46445	0.07797
661.53577	0.07716
659.60709	0.07630
657.67842	0.07550
655.74974	0.07483
653.82107	0.07414
651.89239	0.07339
649.96372	0.07260
648.03504	0.07178
646.10636	0.07095
644.17769	0.07008
642.24901	0.06916
640.32034	0.06821
638.39166	0.06723
636.46299	0.06628
634.53431	0.06529
632.60563	0.06394
630.67696	0.06182
628.74828	0.05853
626.81961	0.05433
624.89093	0.05014
622.96226	0.04678
621.03358	0.04473
619.10490	0.04373
617.17623	0.04305
615.24755	0.04229
613.31888	0.04132
611.39020	0.04035
609.46153	0.03986
607.53285	0.03993
605.60417	0.04030
603.67550	0.04082
601.74682	0.04150
599.81815	0.04232
597.88947	0.04309
595.96080	0.04371
594.03212	0.04417
592.10344	0.04443
590.17477	0.04451
588.24609	0.04456
586.31742	0.04450
584.38874	0.04423
582.46007	0.04387
580.53139	0.04350
578.60271	0.04308
576.67404	0.04258
574.74536	0.04201
572.81669	0.04142
570.88801	0.04078
568.95934	0.04012
567.03066	0.03957
565.10198	0.03922
563.17331	0.03900
561.24463	0.03879
559.31596	0.03854
557.38728	0.03830
555.45861	0.03811
553.52993	0.03794
551.60125	0.03776
549.67258	0.03758
547.74390	0.03742
545.81523	0.03736
543.88655	0.03732
541.95788	0.03719
540.02920	0.03699
538.10052	0.03681
536.17185	0.03670
534.24317	0.03659
532.31450	0.03635
530.38582	0.03603
528.45715	0.03571
526.52847	0.03541
524.59979	0.03512
522.67112	0.03479
520.74244	0.03433
518.81377	0.03374
516.88509	0.03309
514.95642	0.03260
513.02774	0.03242
511.09906	0.03237
509.17039	0.03217
507.24171	0.03185
505.31304	0.03150
503.38436	0.03109
501.45569	0.03065
499.52701	0.03023
497.59833	0.02983
495.66966	0.02936
493.74098	0.02887
491.81231	0.02841
489.88363	0.02787
487.95496	0.02725
486.02628	0.02667
484.09760	0.02618
482.16893	0.02573
480.24025	0.02522
478.31158	0.02463
476.38290	0.02406
474.45423	0.02359
472.52555	0.02317
470.59687	0.02276
468.66820	0.02243
466.73952	0.02214
464.81085	0.02181
462.88217	0.02152
460.95350	0.02133
459.02482	0.02124
457.09614	0.02128
455.16747	0.02140
453.23879	0.02146
451.31012	0.02138
449.38144	0.02124
447.45277	0.02112
445.52409	0.02090
443.59541	0.02057
441.66674	0.02026
439.73806	0.02001
437.80939	0.01969
435.88071	0.01932
433.95204	0.01888
432.02336	0.01834
430.09468	0.01774
428.16601	0.01711
426.23733	0.01650
424.30866	0.01592
422.37998	0.01535
420.45131	0.01477
418.52263	0.01417
416.59395	0.01352
414.66528	0.01285
412.73660	0.01224
410.80793	0.01170
408.87925	0.01115
406.95058	0.01056
405.02190	0.00995
403.09322	0.00934
401.16455	0.00872
399.23587	0.00816
397.30720	0.00769
395.37852	0.00726
393.44985	0.00684
391.52117	0.00639
389.59249	0.00596
387.66382	0.00557
385.73514	0.00513
383.80647	0.00467
381.87779	0.00436
379.94912	0.00419
378.02044	0.00393
376.09176	0.00347
374.16309	0.00300
372.23441	0.00270
370.30574	0.00249
368.37706	0.00230
