7496.76250	0.00111
7494.83382	0.00113
7492.90514	0.00113
7490.97647	0.00111
7489.04779	0.00109
7487.11912	0.00110
7485.19044	0.00111
7483.26177	0.00112
7481.33309	0.00113
7479.40441	0.00113
7477.47574	0.00113
7475.54706	0.00111
7473.61839	0.00111
7471.68971	0.00112
7469.76104	0.00113
7467.83236	0.00115
7465.90368	0.00116
7463.97501	0.00116
7462.04633	0.00115
7460.11766	0.00114
7458.18898	0.00115
7456.26031	0.00116
7454.33163	0.00116
7452.40295	0.00116
7450.47428	0.00117
7448.54560	0.00118
7446.61693	0.00117
7444.68825	0.00117
7442.75958	0.00117
7440.83090	0.00118
7438.90222	0.00120
7436.97355	0.00121
7435.04487	0.00121
7433.11620	0.00122
7431.18752	0.00122
7429.25885	0.00120
7427.33017	0.00120
7425.40149	0.00120
7423.47282	0.00120
7421.54414	0.00120
7419.61547	0.00122
7417.68679	0.00125
7415.75812	0.00125
7413.82944	0.00124
7411.90076	0.00123
7409.97209	0.00123
7408.04341	0.00123
7406.11474	0.00123
7404.18606	0.00123
7402.25739	0.00124
7400.32871	0.00126
7398.40003	0.00127
7396.47136	0.00127
7394.54268	0.00128
7392.61401	0.00128
7390.68533	0.00128
7388.75666	0.00127
7386.82798	0.00126
7384.89930	0.00126
7382.97063	0.00126
7381.04195	0.00127
7379.11328	0.00130
7377.18460	0.00131
7375.25593	0.00131
7373.32725	0.00131
7371.39857	0.00131
7369.46990	0.00130
7367.54122	0.00128
7365.61255	0.00129
7363.68387	0.00132
7361.75520	0.00134
7359.82652	0.00135
7357.89784	0.00135
7355.96917	0.00135
7354.04049	0.00135
7352.11182	0.00134
7350.18314	0.00134
7348.25447	0.00133
7346.32579	0.00133
7344.39711	0.00135
7342.46844	0.00137
7340.53976	0.00137
7338.61109	0.00135
7336.68241	0.00136
7334.75374	0.00137
7332.82506	0.00138
7330.89638	0.00137
7328.96771	0.00137
7327.03903	0.00139
7325.11036	0.00140
7323.18168	0.00140
7321.25301	0.00140
7319.32433	0.00140
7317.39565	0.00140
7315.46698	0.00140
7313.53830	0.00140
7311.60963	0.00140
7309.68095	0.00140
7307.75228	0.00141
7305.82360	0.00141
7303.89492	0.00141
7301.96625	0.00142
7300.03757	0.00143
7298.10890	0.00145
7296.18022	0.00146
7294.25155	0.00147
7292.32287	0.00148
7290.39419	0.00148
7288.46552	0.00148
7286.53684	0.00146
7284.60817	0.00145
7282.67949	0.00145
7280.75082	0.00147
7278.82214	0.00148
7276.89346	0.00149
7274.96479	0.00149
7273.03611	0.00148
7271.10744	0.00146
7269.17876	0.00147
7267.25009	0.00149
7265.32141	0.00151
7263.39273	0.00150
7261.46406	0.00149
7259.53538	0.00148
7257.60671	0.00149
7255.67803	0.00150
7253.74936	0.00150
7251.82068	0.00150
7249.89200	0.00150
7247.96333	0.00150
7246.03465	0.00151
7244.10598	0.00152
7242.17730	0.00153
7240.24863	0.00154
7238.31995	0.00155
7236.39127	0.00154
7234.46260	0.00154
7232.53392	0.00154
7230.60525	0.00155
7228.67657	0.00155
7226.74790	0.00156
7224.81922	0.00156
7222.89054	0.00156
7220.96187	0.00157
7219.03319	0.00157
7217.10452	0.00157
7215.17584	0.00159
7213.24717	0.00160
7211.31849	0.00162
7209.38981	0.00162
7207.46114	0.00162
7205.53246	0.00162
7203.60379	0.00162
7201.67511	0.00162
7199.74644	0.00161
7197.81776	0.00160
7195.88908	0.00160
7193.96041	0.00161
7192.03173	0.00162
7190.10306	0.00163
7188.17438	0.00164
7186.24571	0.00164
7184.31703	0.00164
7182.38835	0.00164
7180.45968	0.00165
7178.53100	0.00166
7176.60233	0.00166
7174.67365	0.00164
7172.74498	0.00163
7170.81630	0.00163
7168.88762	0.00165
7166.95895	0.00166
7165.03027	0.00167
7163.10160	0.00167
7161.17292	0.00168
7159.24425	0.00168
7157.31557	0.00168
7155.38689	0.00167
7153.45822	0.00167
7151.52954	0.00168
7149.60087	0.00169
7147.67219	0.00171
7145.74352	0.00172
7143.81484	0.00171
7141.88616	0.00171
7139.95749	0.00171
7138.02881	0.00172
7136.10014	0.00172
7134.17146	0.00173
7132.24279	0.00173
7130.31411	0.00174
7128.38543	0.00176
7126.45676	0.00176
7124.52808	0.00176
7122.59941	0.00177
7120.67073	0.00177
7118.74206	0.00178
7116.81338	0.00178
7114.88470	0.00178
7112.95603	0.00177
7111.02735	0.00178
7109.09868	0.00179
7107.17000	0.00181
7105.24133	0.00181
7103.31265	0.00180
7101.38397	0.00180
7099.45530	0.00181
7097.52662	0.00182
7095.59795	0.00182
7093.66927	0.00181
7091.74060	0.00181
7089.81192	0.00182
7087.88324	0.00183
7085.95457	0.00184
7084.02589	0.00185
7082.09722	0.00186
7080.16854	0.00186
7078.23987	0.00185
7076.31119	0.00186
7074.38251	0.00188
7072.45384	0.00189
7070.52516	0.00191
7068.59649	0.00191
7066.66781	0.00189
7064.73914	0.00188
7062.81046	0.00188
7060.88178	0.00189
7058.95311	0.00189
7057.02443	0.00189
7055.09576	0.00188
7053.16708	0.00189
7051.23841	0.00191
7049.30973	0.00192
7047.38105	0.00191
7045.45238	0.00190
7043.52370	0.00191
7041.59503	0.00192
7039.66635	0.00194
7037.73768	0.00194
7035.80900	0.00193
7033.88032	0.00193
7031.95165	0.00194
7030.02297	0.00196
7028.09430	0.00197
7026.16562	0.00196
7024.23695	0.00196
7022.30827	0.00196
7020.37959	0.00196
7018.45092	0.00198
7016.52224	0.00199
7014.59357	0.00198
7012.66489	0.00198
7010.73622	0.00197
7008.80754	0.00199
7006.87886	0.00202
7004.95019	0.00204
7003.02151	0.00204
7001.09284	0.00203
6999.16416	0.00203
6997.23549	0.00203
6995.30681	0.00203
6993.37813	0.00203
6991.44946	0.00202
6989.52078	0.00202
6987.59211	0.00204
6985.66343	0.00206
6983.73476	0.00207
6981.80608	0.00207
6979.87740	0.00207
6977.94873	0.00206
6976.02005	0.00206
6974.09138	0.00207
6972.16270	0.00208
6970.23403	0.00209
6968.30535	0.00210
6966.37667	0.00209
6964.44800	0.00208
6962.51932	0.00208
6960.59065	0.00210
6958.66197	0.00212
6956.73330	0.00212
6954.80462	0.00210
6952.87594	0.00210
6950.94727	0.00210
6949.01859	0.00212
6947.08992	0.00213
6945.16124	0.00213
6943.23257	0.00214
6941.30389	0.00215
6939.37521	0.00215
6937.44654	0.00216
6935.51786	0.00216
6933.58919	0.00216
6931.66051	0.00216
6929.73184	0.00217
6927.80316	0.00219
6925.87448	0.00220
6923.94581	0.00220
6922.01713	0.00221
6920.08846	0.00222
6918.15978	0.00222
6916.23111	0.00221
6914.30243	0.00221
6912.37375	0.00223
6910.44508	0.00223
6908.51640	0.00224
6906.58773	0.00224
6904.65905	0.00223
6902.73038	0.00223
6900.80170	0.00224
6898.87302	0.00225
6896.94435	0.00226
6895.01567	0.00226
6893.08700	0.00227
6891.15832	0.00227
6889.22965	0.00227
6887.30097	0.00228
6885.37229	0.00230
6883.44362	0.00231
6881.51494	0.00231
6879.58627	0.00230
6877.65759	0.00229
6875.72892	0.00229
6873.80024	0.00230
6871.87156	0.00230
6869.94289	0.00231
6868.01421	0.00232
6866.08554	0.00234
6864.15686	0.00236
6862.22819	0.00237
6860.29951	0.00235
6858.37083	0.00233
6856.44216	0.00234
6854.51348	0.00235
6852.58481	0.00236
6850.65613	0.00237
6848.72746	0.00237
6846.79878	0.00237
6844.87010	0.00238
6842.94143	0.00238
6841.01275	0.00240
6839.08408	0.00241
6837.15540	0.00241
6835.22673	0.00241
6833.29805	0.00241
6831.36937	0.00242
6829.44070	0.00244
6827.51202	0.00246
6825.58335	0.00246
6823.65467	0.00245
6821.72600	0.00245
6819.79732	0.00244
6817.86864	0.00244
6815.93997	0.00243
6814.01129	0.00244
6812.08262	0.00246
6810.15394	0.00247
6808.22527	0.00248
6806.29659	0.00249
6804.36791	0.00250
6802.43924	0.00252
6800.51056	0.00253
6798.58189	0.00253
6796.65321	0.00252
6794.72454	0.00253
6792.79586	0.00255
6790.86718	0.00255
6788.93851	0.00255
6787.00983	0.00255
6785.08116	0.00255
6783.15248	0.00256
6781.22381	0.00256
6779.29513	0.00257
6777.36645	0.00258
6775.43778	0.00259
6773.50910	0.00260
6771.58043	0.00261
6769.65175	0.00261
6767.72308	0.00260
6765.79440	0.00260
6763.86572	0.00260
6761.93705	0.00260
6760.00837	0.00260
6758.07970	0.00260
6756.15102	0.00261
6754.22235	0.00262
6752.29367	0.00264
6750.36499	0.00265
6748.43632	0.00265
6746.50764	0.00265
6744.57897	0.00266
6742.65029	0.00266
6740.72162	0.00266
6738.79294	0.00266
6736.86426	0.00267
6734.93559	0.00267
6733.00691	0.00267
6731.07824	0.00269
6729.14956	0.00271
6727.22089	0.00272
6725.29221	0.00272
6723.36353	0.00272
6721.43486	0.00271
6719.50618	0.00272
6717.57751	0.00275
6715.64883	0.00276
6713.72016	0.00275
6711.79148	0.00275
6709.86280	0.00277
6707.93413	0.00278
6706.00545	0.00277
6704.07678	0.00276
6702.14810	0.00277
6700.21943	0.00278
6698.29075	0.00280
6696.36207	0.00280
6694.43340	0.00281
6692.50472	0.00281
6690.57605	0.00280
6688.64737	0.00280
6686.71870	0.00280
6684.79002	0.00283
6682.86134	0.00285
6680.93267	0.00287
6679.00399	0.00287
6677.07532	0.00286
6675.14664	0.00287
6673.21797	0.00288
6671.28929	0.00289
6669.36061	0.00288
6667.43194	0.00288
6665.50326	0.00290
6663.57459	0.00291
6661.64591	0.00292
6659.71724	0.00291
6657.78856	0.00290
6655.85988	0.00289
6653.93121	0.00291
6652.00253	0.00295
6650.07386	0.00297
6648.14518	0.00296
6646.21651	0.00295
6644.28783	0.00295
6642.35915	0.00295
6640.43048	0.00296
6638.50180	0.00297
6636.57313	0.00297
6634.64445	0.00297
6632.71578	0.00300
6630.78710	0.00303
6628.85842	0.00304
6626.92975	0.00303
6625.00107	0.00302
6623.07240	0.00302
6621.14372	0.00303
6619.21505	0.00305
6617.28637	0.00306
6615.35769	0.00307
6613.42902	0.00307
6611.50034	0.00307
6609.57167	0.00306
6607.64299	0.00307
6605.71432	0.00309
6603.78564	0.00311
6601.85696	0.00311
6599.92829	0.00311
6597.99961	0.00311
6596.07094	0.00311
6594.14226	0.00312
6592.21359	0.00313
6590.28491	0.00316
6588.35623	0.00317
6586.42756	0.00317
6584.49888	0.00317
6582.57021	0.00317
6580.64153	0.00318
6578.71286	0.00319
6576.78418	0.00319
6574.85550	0.00319
6572.92683	0.00319
6570.99815	0.00320
6569.06948	0.00322
6567.14080	0.00324
6565.21213	0.00325
6563.28345	0.00326
6561.35477	0.00325
6559.42610	0.00325
6557.49742	0.00325
6555.56875	0.00325
6553.64007	0.00325
6551.71140	0.00325
6549.78272	0.00326
6547.85404	0.00327
6545.92537	0.00329
6543.99669	0.00330
6542.06802	0.00332
6540.13934	0.00333
6538.21067	0.00334
6536.28199	0.00334
6534.35331	0.00334
6532.42464	0.00335
6530.49596	0.00336
6528.56729	0.00335
6526.63861	0.00336
6524.70994	0.00337
6522.78126	0.00338
6520.85258	0.00337
6518.92391	0.00337
6516.99523	0.00338
6515.06656	0.00340
6513.13788	0.00343
6511.20921	0.00345
6509.28053	0.00344
6507.35185	0.00344
6505.42318	0.00345
6503.49450	0.00345
6501.56583	0.00346
6499.63715	0.00346
6497.70848	0.00347
6495.77980	0.00347
6493.85112	0.00347
6491.92245	0.00349
6489.99377	0.00351
6488.06510	0.00352
6486.13642	0.00351
6484.20775	0.00350
6482.27907	0.00351
6480.35039	0.00353
6478.42172	0.00356
6476.49304	0.00358
6474.56437	0.00357
6472.63569	0.00356
6470.70702	0.00355
6468.77834	0.00357
6466.84966	0.00359
6464.92099	0.00359
6462.99231	0.00359
6461.06364	0.00361
6459.13496	0.00363
6457.20629	0.00364
6455.27761	0.00364
6453.34893	0.00365
6451.42026	0.00366
6449.49158	0.00366
6447.56291	0.00366
6445.63423	0.00366
6443.70556	0.00367
6441.77688	0.00368
6439.84820	0.00369
6437.91953	0.00370
6435.99085	0.00371
6434.06218	0.00371
6432.13350	0.00372
6430.20483	0.00373
6428.27615	0.00374
6426.34747	0.00376
6424.41880	0.00377
6422.49012	0.00378
6420.56145	0.00379
6418.63277	0.00379
6416.70410	0.00378
6414.77542	0.00380
6412.84674	0.00381
6410.91807	0.00380
6408.98939	0.00380
6407.06072	0.00380
6405.13204	0.00380
6403.20337	0.00381
6401.27469	0.00384
6399.34601	0.00387
6397.41734	0.00387
6395.48866	0.00388
6393.55999	0.00390
6391.63131	0.00392
6389.70264	0.00393
6387.77396	0.00394
6385.84528	0.00396
6383.91661	0.00396
6381.98793	0.00396
6380.05926	0.00394
6378.13058	0.00393
6376.20191	0.00395
6374.27323	0.00397
6372.34455	0.00399
6370.41588	0.00400
6368.48720	0.00401
6366.55853	0.00402
6364.62985	0.00402
6362.70118	0.00402
6360.77250	0.00402
6358.84382	0.00404
6356.91515	0.00406
6354.98647	0.00407
6353.05780	0.00407
6351.12912	0.00405
6349.20045	0.00405
6347.27177	0.00407
6345.34309	0.00409
6343.41442	0.00411
6341.48574	0.00413
6339.55707	0.00414
6337.62839	0.00413
6335.69972	0.00413
6333.77104	0.00413
6331.84236	0.00414
6329.91369	0.00415
6327.98501	0.00416
6326.05634	0.00416
6324.12766	0.00416
6322.19899	0.00418
6320.27031	0.00419
6318.34163	0.00420
6316.41296	0.00419
6314.48428	0.00419
6312.55561	0.00421
6310.62693	0.00423
6308.69826	0.00424
6306.76958	0.00424
6304.84090	0.00424
6302.91223	0.00425
6300.98355	0.00427
6299.05488	0.00428
6297.12620	0.00429
6295.19753	0.00431
6293.26885	0.00433
6291.34017	0.00435
6289.41150	0.00437
6287.48282	0.00437
6285.55415	0.00437
6283.62547	0.00437
6281.69680	0.00438
6279.76812	0.00440
6277.83944	0.00440
6275.91077	0.00440
6273.98209	0.00442
6272.05342	0.00444
6270.12474	0.00445
6268.19607	0.00445
6266.26739	0.00445
6264.33871	0.00445
6262.41004	0.00447
6260.48136	0.00449
6258.55269	0.00450
6256.62401	0.00450
6254.69534	0.00450
6252.76666	0.00450
6250.83798	0.00452
6248.90931	0.00453
6246.98063	0.00453
6245.05196	0.00454
6243.12328	0.00455
6241.19461	0.00456
6239.26593	0.00458
6237.33725	0.00459
6235.40858	0.00460
6233.47990	0.00461
6231.55123	0.00463
6229.62255	0.00464
6227.69388	0.00465
6225.76520	0.00466
6223.83652	0.00466
6221.90785	0.00468
6219.97917	0.00470
6218.05050	0.00470
6216.12182	0.00470
6214.19315	0.00470
6212.26447	0.00472
6210.33579	0.00473
6208.40712	0.00472
6206.47844	0.00473
6204.54977	0.00475
6202.62109	0.00477
6200.69242	0.00479
6198.76374	0.00480
6196.83506	0.00480
6194.90639	0.00480
6192.97771	0.00480
6191.04904	0.00482
6189.12036	0.00484
6187.19169	0.00484
6185.26301	0.00484
6183.33433	0.00484
6181.40566	0.00485
6179.47698	0.00487
6177.54831	0.00489
6175.61963	0.00492
6173.69096	0.00494
6171.76228	0.00495
6169.83360	0.00495
6167.90493	0.00495
6165.97625	0.00496
6164.04758	0.00499
6162.11890	0.00500
6160.19023	0.00500
6158.26155	0.00502
6156.33287	0.00503
6154.40420	0.00503
6152.47552	0.00503
6150.54685	0.00504
6148.61817	0.00504
6146.68950	0.00505
6144.76082	0.00505
6142.83214	0.00507
6140.90347	0.00510
6138.97479	0.00512
6137.04612	0.00514
6135.11744	0.00516
6133.18877	0.00517
6131.26009	0.00517
6129.33141	0.00517
6127.40274	0.00518
6125.47406	0.00519
6123.54539	0.00519
6121.61671	0.00519
6119.68804	0.00520
6117.75936	0.00521
6115.83068	0.00522
6113.90201	0.00524
6111.97333	0.00525
6110.04466	0.00526
6108.11598	0.00527
6106.18731	0.00529
6104.25863	0.00532
6102.32995	0.00533
6100.40128	0.00532
6098.47260	0.00533
6096.54393	0.00535
6094.61525	0.00537
6092.68658	0.00538
6090.75790	0.00538
6088.82922	0.00539
6086.90055	0.00542
6084.97187	0.00545
6083.04320	0.00545
6081.11452	0.00545
6079.18585	0.00546
6077.25717	0.00546
6075.32849	0.00546
6073.39982	0.00547
6071.47114	0.00549
6069.54247	0.00550
6067.61379	0.00550
6065.68512	0.00552
6063.75644	0.00553
6061.82776	0.00553
6059.89909	0.00554
6057.97041	0.00556
6056.04174	0.00557
6054.11306	0.00559
6052.18439	0.00561
6050.25571	0.00562
6048.32703	0.00562
6046.39836	0.00563
6044.46968	0.00563
6042.54101	0.00563
6040.61233	0.00563
6038.68366	0.00565
6036.75498	0.00567
6034.82630	0.00570
6032.89763	0.00573
6030.96895	0.00574
6029.04028	0.00575
6027.11160	0.00576
6025.18293	0.00577
6023.25425	0.00579
6021.32557	0.00582
6019.39690	0.00583
6017.46822	0.00581
6015.53955	0.00581
6013.61087	0.00582
6011.68220	0.00585
6009.75352	0.00588
6007.82484	0.00590
6005.89617	0.00591
6003.96749	0.00591
6002.03882	0.00592
6000.11014	0.00593
5998.18147	0.00594
5996.25279	0.00595
5994.32411	0.00597
5992.39544	0.00597
5990.46676	0.00597
5988.53809	0.00599
5986.60941	0.00601
5984.68074	0.00602
5982.75206	0.00604
5980.82338	0.00605
5978.89471	0.00607
5976.96603	0.00608
5975.03736	0.00608
5973.10868	0.00609
5971.18001	0.00611
5969.25133	0.00614
5967.32265	0.00614
5965.39398	0.00614
5963.46530	0.00614
5961.53663	0.00615
5959.60795	0.00618
5957.67928	0.00621
5955.75060	0.00623
5953.82192	0.00623
5951.89325	0.00624
5949.96457	0.00625
5948.03590	0.00627
5946.10722	0.00627
5944.17855	0.00628
5942.24987	0.00628
5940.32119	0.00628
5938.39252	0.00630
5936.46384	0.00633
5934.53517	0.00634
5932.60649	0.00634
5930.67782	0.00634
5928.74914	0.00637
5926.82046	0.00639
5924.89179	0.00641
5922.96311	0.00642
5921.03444	0.00644
5919.10576	0.00644
5917.17709	0.00645
5915.24841	0.00647
5913.31973	0.00648
5911.39106	0.00648
5909.46238	0.00647
5907.53371	0.00648
5905.60503	0.00650
5903.67636	0.00652
5901.74768	0.00655
5899.81900	0.00656
5897.89033	0.00658
5895.96165	0.00660
5894.03298	0.00662
5892.10430	0.00663
5890.17563	0.00664
5888.24695	0.00665
5886.31827	0.00665
5884.38960	0.00667
5882.46092	0.00671
5880.53225	0.00673
5878.60357	0.00674
5876.67490	0.00676
5874.74622	0.00678
5872.81755	0.00680
5870.88887	0.00680
5868.96019	0.00682
5867.03152	0.00684
5865.10284	0.00684
5863.17417	0.00683
5861.24549	0.00684
5859.31682	0.00685
5857.38814	0.00685
5855.45946	0.00686
5853.53079	0.00688
5851.60211	0.00691
5849.67344	0.00694
5847.74476	0.00697
5845.81609	0.00698
5843.88741	0.00699
5841.95873	0.00699
5840.03006	0.00701
5838.10138	0.00702
5836.17271	0.00703
5834.24403	0.00705
5832.31536	0.00708
5830.38668	0.00710
5828.45800	0.00712
5826.52933	0.00713
5824.60065	0.00713
5822.67198	0.00714
5820.74330	0.00717
5818.81463	0.00717
5816.88595	0.00717
5814.95727	0.00718
5813.02860	0.00721
5811.09992	0.00723
5809.17125	0.00725
5807.24257	0.00726
5805.31390	0.00727
5803.38522	0.00728
5801.45654	0.00731
5799.52787	0.00733
5797.59919	0.00734
5795.67052	0.00735
5793.74184	0.00737
5791.81317	0.00738
5789.88449	0.00740
5787.95581	0.00743
5786.02714	0.00746
5784.09846	0.00748
5782.16979	0.00748
5780.24111	0.00748
5778.31244	0.00746
5776.38376	0.00743
5774.45508	0.00745
5772.52641	0.00749
5770.59773	0.00753
5768.66906	0.00755
5766.74038	0.00755
5764.81171	0.00758
5762.88303	0.00760
5760.95435	0.00760
5759.02568	0.00761
5757.09700	0.00764
5755.16833	0.00766
5753.23965	0.00767
5751.31098	0.00767
5749.38230	0.00768
5747.45362	0.00769
5745.52495	0.00770
5743.59627	0.00772
5741.66760	0.00773
5739.73892	0.00776
5737.81025	0.00778
5735.88157	0.00780
5733.95289	0.00781
5732.02422	0.00784
5730.09554	0.00787
5728.16687	0.00790
5726.23819	0.00790
5724.30952	0.00789
5722.38084	0.00791
5720.45216	0.00794
5718.52349	0.00797
5716.59481	0.00799
5714.66614	0.00800
5712.73746	0.00801
5710.80879	0.00802
5708.88011	0.00803
5706.95143	0.00806
5705.02276	0.00808
5703.09408	0.00810
5701.16541	0.00812
5699.23673	0.00813
5697.30806	0.00814
5695.37938	0.00815
5693.45070	0.00817
5691.52203	0.00820
5689.59335	0.00822
5687.66468	0.00823
5685.73600	0.00824
5683.80733	0.00824
5681.87865	0.00824
5679.94997	0.00826
5678.02130	0.00829
5676.09262	0.00831
5674.16395	0.00833
5672.23527	0.00835
5670.30660	0.00836
5668.37792	0.00838
5666.44924	0.00840
5664.52057	0.00843
5662.59189	0.00845
5660.66322	0.00845
5658.73454	0.00845
5656.80587	0.00847
5654.87719	0.00851
5652.94851	0.00853
5651.01984	0.00852
5649.09116	0.00851
5647.16249	0.00851
5645.23381	0.00853
5643.30514	0.00857
5641.37646	0.00860
5639.44778	0.00863
5637.51911	0.00865
5635.59043	0.00866
5633.66176	0.00867
5631.73308	0.00871
5629.80441	0.00874
5627.87573	0.00874
5625.94705	0.00874
5624.01838	0.00876
5622.08970	0.00879
5620.16103	0.00881
5618.23235	0.00881
5616.30368	0.00881
5614.37500	0.00882
5612.44632	0.00884
5610.51765	0.00886
5608.58897	0.00887
5606.66030	0.00889
5604.73162	0.00891
5602.80295	0.00894
5600.87427	0.00897
5598.94559	0.00899
5597.01692	0.00901
5595.08824	0.00901
5593.15957	0.00902
5591.23089	0.00904
5589.30222	0.00907
5587.37354	0.00909
5585.44486	0.00910
5583.51619	0.00911
5581.58751	0.00912
5579.65884	0.00913
5577.73016	0.00916
5575.80149	0.00918
5573.87281	0.00920
5571.94413	0.00922
5570.01546	0.00925
5568.08678	0.00929
5566.15811	0.00930
5564.22943	0.00930
5562.30076	0.00931
5560.37208	0.00933
5558.44340	0.00935
5556.51473	0.00938
5554.58605	0.00940
5552.65738	0.00940
5550.72870	0.00940
5548.80003	0.00942
5546.87135	0.00944
5544.94267	0.00946
5543.01400	0.00949
5541.08532	0.00952
5539.15665	0.00954
5537.22797	0.00956
5535.29930	0.00957
5533.37062	0.00959
5531.44194	0.00959
5529.51327	0.00961
5527.58459	0.00962
5525.65592	0.00963
5523.72724	0.00963
5521.79857	0.00964
5519.86989	0.00969
5517.94121	0.00974
5516.01254	0.00977
5514.08386	0.00976
5512.15519	0.00976
5510.22651	0.00978
5508.29784	0.00981
5506.36916	0.00983
5504.44048	0.00986
5502.51181	0.00988
5500.58313	0.00989
5498.65446	0.00989
5496.72578	0.00990
5494.79711	0.00992
5492.86843	0.00996
5490.93975	0.00998
5489.01108	0.00999
5487.08240	0.01000
5485.15373	0.01003
5483.22505	0.01004
5481.29638	0.01005
5479.36770	0.01007
5477.43902	0.01008
5475.51035	0.01012
5473.58167	0.01016
5471.65300	0.01019
5469.72432	0.01019
5467.79565	0.01017
5465.86697	0.01018
5463.93829	0.01022
5462.00962	0.01027
5460.08094	0.01029
5458.15227	0.01031
5456.22359	0.01032
5454.29492	0.01034
5452.36624	0.01036
5450.43756	0.01038
5448.50889	0.01040
5446.58021	0.01042
5444.65154	0.01043
5442.72286	0.01044
5440.79419	0.01045
5438.86551	0.01048
5436.93683	0.01050
5435.00816	0.01052
5433.07948	0.01053
5431.15081	0.01054
5429.22213	0.01058
5427.29346	0.01063
5425.36478	0.01066
5423.43610	0.01068
5421.50743	0.01071
5419.57875	0.01073
5417.65008	0.01074
5415.72140	0.01075
5413.79273	0.01075
5411.86405	0.01077
5409.93537	0.01080
5408.00670	0.01082
5406.07802	0.01083
5404.14935	0.01084
5402.22067	0.01086
5400.29200	0.01087
5398.36332	0.01088
5396.43464	0.01089
5394.50597	0.01092
5392.57729	0.01097
5390.64862	0.01100
5388.71994	0.01102
5386.79127	0.01103
5384.86259	0.01105
5382.93391	0.01107
5381.00524	0.01109
5379.07656	0.01111
5377.14789	0.01112
5375.21921	0.01115
5373.29054	0.01118
5371.36186	0.01120
5369.43318	0.01121
5367.50451	0.01121
5365.57583	0.01123
5363.64716	0.01126
5361.71848	0.01128
5359.78981	0.01129
5357.86113	0.01131
5355.93245	0.01133
5354.00378	0.01135
5352.07510	0.01137
5350.14643	0.01141
5348.21775	0.01143
5346.28908	0.01144
5344.36040	0.01144
5342.43172	0.01147
5340.50305	0.01149
5338.57437	0.01149
5336.64570	0.01150
5334.71702	0.01154
5332.78835	0.01158
5330.85967	0.01161
5328.93099	0.01163
5327.00232	0.01167
5325.07364	0.01171
5323.14497	0.01172
5321.21629	0.01172
5319.28762	0.01173
5317.35894	0.01175
5315.43026	0.01177
5313.50159	0.01180
5311.57291	0.01184
5309.64424	0.01186
5307.71556	0.01188
5305.78689	0.01190
5303.85821	0.01192
5301.92953	0.01193
5300.00086	0.01194
5298.07218	0.01195
5296.14351	0.01197
5294.21483	0.01199
5292.28616	0.01203
5290.35748	0.01206
5288.42880	0.01209
5286.50013	0.01212
5284.57145	0.01212
5282.64278	0.01213
5280.71410	0.01215
5278.78543	0.01218
5276.85675	0.01221
5274.92807	0.01223
5272.99940	0.01225
5271.07072	0.01226
5269.14205	0.01228
5267.21337	0.01230
5265.28470	0.01231
5263.35602	0.01233
5261.42734	0.01238
5259.49867	0.01242
5257.56999	0.01243
5255.64132	0.01242
5253.71264	0.01242
5251.78397	0.01246
5249.85529	0.01250
5247.92661	0.01252
5245.99794	0.01253
5244.06926	0.01255
5242.14059	0.01259
5240.21191	0.01261
5238.28324	0.01263
5236.35456	0.01267
5234.42588	0.01268
5232.49721	0.01267
5230.56853	0.01269
5228.63986	0.01272
5226.71118	0.01275
5224.78251	0.01278
5222.85383	0.01280
5220.92515	0.01282
5218.99648	0.01284
5217.06780	0.01286
5215.13913	0.01289
5213.21045	0.01293
5211.28178	0.01295
5209.35310	0.01296
5207.42442	0.01296
5205.49575	0.01299
5203.56707	0.01304
5201.63840	0.01308
5199.70972	0.01311
5197.78105	0.01312
5195.85237	0.01313
5193.92369	0.01316
5191.99502	0.01319
5190.06634	0.01322
5188.13767	0.01323
5186.20899	0.01324
5184.28032	0.01326
5182.35164	0.01327
5180.42296	0.01328
5178.49429	0.01330
5176.56561	0.01336
5174.63694	0.01341
5172.70826	0.01343
5170.77959	0.01343
5168.85091	0.01346
5166.92223	0.01350
5164.99356	0.01351
5163.06488	0.01353
5161.13621	0.01355
5159.20753	0.01356
5157.27886	0.01356
5155.35018	0.01358
5153.42150	0.01362
5151.49283	0.01367
5149.56415	0.01371
5147.63548	0.01376
5145.70680	0.01378
5143.77813	0.01378
5141.84945	0.01377
5139.92077	0.01377
5137.99210	0.01380
5136.06342	0.01385
5134.13475	0.01387
5132.20607	0.01388
5130.27740	0.01390
5128.34872	0.01394
5126.42004	0.01396
5124.49137	0.01397
5122.56269	0.01400
5120.63402	0.01404
5118.70534	0.01407
5116.77667	0.01408
5114.84799	0.01409
5112.91931	0.01411
5110.99064	0.01414
5109.06196	0.01416
5107.13329	0.01419
5105.20461	0.01420
5103.27594	0.01421
5101.34726	0.01422
5099.41858	0.01424
5097.48991	0.01427
5095.56123	0.01431
5093.63256	0.01434
5091.70388	0.01437
5089.77521	0.01440
5087.84653	0.01441
5085.91785	0.01443
5083.98918	0.01445
5082.06050	0.01447
5080.13183	0.01450
5078.20315	0.01453
5076.27448	0.01456
5074.34580	0.01458
5072.41712	0.01461
5070.48845	0.01464
5068.55977	0.01466
5066.63110	0.01468
5064.70242	0.01469
5062.77375	0.01473
5060.84507	0.01477
5058.91639	0.01479
5056.98772	0.01480
5055.05904	0.01482
5053.13037	0.01485
5051.20169	0.01489
5049.27302	0.01491
5047.34434	0.01492
5045.41566	0.01494
5043.48699	0.01496
5041.55831	0.01497
5039.62964	0.01500
5037.70096	0.01504
5035.77229	0.01510
5033.84361	0.01514
5031.91493	0.01516
5029.98626	0.01517
5028.05758	0.01518
5026.12891	0.01518
5024.20023	0.01520
5022.27156	0.01521
5020.34288	0.01524
5018.41420	0.01529
5016.48553	0.01533
5014.55685	0.01534
5012.62818	0.01535
5010.69950	0.01537
5008.77083	0.01541
5006.84215	0.01545
5004.91347	0.01547
5002.98480	0.01548
5001.05612	0.01551
4999.12745	0.01555
4997.19877	0.01558
4995.27010	0.01560
4993.34142	0.01563
4991.41274	0.01566
4989.48407	0.01568
4987.55539	0.01569
4985.62672	0.01573
4983.69804	0.01576
4981.76937	0.01577
4979.84069	0.01577
4977.91201	0.01577
4975.98334	0.01580
4974.05466	0.01583
4972.12599	0.01587
4970.19731	0.01591
4968.26864	0.01595
4966.33996	0.01599
4964.41128	0.01600
4962.48261	0.01602
4960.55393	0.01606
4958.62526	0.01609
4956.69658	0.01612
4954.76791	0.01613
4952.83923	0.01614
4950.91055	0.01615
4948.98188	0.01618
4947.05320	0.01622
4945.12453	0.01626
4943.19585	0.01630
4941.26718	0.01631
4939.33850	0.01632
4937.40982	0.01635
4935.48115	0.01638
4933.55247	0.01641
4931.62380	0.01643
4929.69512	0.01644
4927.76645	0.01647
4925.83777	0.01651
4923.90909	0.01654
4921.98042	0.01656
4920.05174	0.01659
4918.12307	0.01662
4916.19439	0.01667
4914.26572	0.01671
4912.33704	0.01671
4910.40836	0.01670
4908.47969	0.01672
4906.55101	0.01676
4904.62234	0.01681
4902.69366	0.01686
4900.76499	0.01690
4898.83631	0.01690
4896.90763	0.01690
4894.97896	0.01692
4893.05028	0.01695
4891.12161	0.01699
4889.19293	0.01703
4887.26426	0.01705
4885.33558	0.01705
4883.40690	0.01705
4881.47823	0.01708
4879.54955	0.01712
4877.62088	0.01717
4875.69220	0.01720
4873.76353	0.01723
4871.83485	0.01725
4869.90617	0.01728
4867.97750	0.01729
4866.04882	0.01731
4864.12015	0.01734
4862.19147	0.01738
4860.26280	0.01740
4858.33412	0.01743
4856.40544	0.01748
4854.47677	0.01753
4852.54809	0.01755
4850.61942	0.01757
4848.69074	0.01760
4846.76207	0.01763
4844.83339	0.01766
4842.90471	0.01767
4840.97604	0.01769
4839.04736	0.01772
4837.11869	0.01776
4835.19001	0.01779
4833.26134	0.01783
4831.33266	0.01785
4829.40398	0.01787
4827.47531	0.01790
4825.54663	0.01795
4823.61796	0.01798
4821.68928	0.01797
4819.76061	0.01797
4817.83193	0.01801
4815.90325	0.01807
4813.97458	0.01811
4812.04590	0.01812
4810.11723	0.01813
4808.18855	0.01815
4806.25988	0.01820
4804.33120	0.01824
4802.40252	0.01827
4800.47385	0.01828
4798.54517	0.01831
4796.61650	0.01835
4794.68782	0.01838
4792.75915	0.01841
4790.83047	0.01843
4788.90179	0.01846
4786.97312	0.01849
4785.04444	0.01852
4783.11577	0.01854
4781.18709	0.01856
4779.25842	0.01858
4777.32974	0.01861
4775.40106	0.01864
4773.47239	0.01868
4771.54371	0.01871
4769.61504	0.01874
4767.68636	0.01877
4765.75769	0.01880
4763.82901	0.01884
4761.90033	0.01886
4759.97166	0.01889
4758.04298	0.01893
4756.11431	0.01896
4754.18563	0.01898
4752.25696	0.01901
4750.32828	0.01903
4748.39960	0.01906
4746.47093	0.01910
4744.54225	0.01915
4742.61358	0.01918
4740.68490	0.01921
4738.75623	0.01925
4736.82755	0.01927
4734.89887	0.01929
4732.97020	0.01930
4731.04152	0.01932
4729.11285	0.01937
4727.18417	0.01942
4725.25550	0.01946
4723.32682	0.01948
4721.39814	0.01951
4719.46947	0.01955
4717.54079	0.01957
4715.61212	0.01959
4713.68344	0.01963
4711.75477	0.01967
4709.82609	0.01970
4707.89741	0.01972
4705.96874	0.01975
4704.04006	0.01979
4702.11139	0.01982
4700.18271	0.01984
4698.25404	0.01986
4696.32536	0.01991
4694.39668	0.01996
4692.46801	0.01999
4690.53933	0.02002
4688.61066	0.02006
4686.68198	0.02007
4684.75331	0.02009
4682.82463	0.02011
4680.89595	0.02015
4678.96728	0.02020
4677.03860	0.02025
4675.10993	0.02029
4673.18125	0.02031
4671.25258	0.02031
4669.32390	0.02035
4667.39522	0.02041
4665.46655	0.02044
4663.53787	0.02046
4661.60920	0.02049
4659.68052	0.02055
4657.75185	0.02059
4655.82317	0.02059
4653.89449	0.02060
4651.96582	0.02063
4650.03714	0.02068
4648.10847	0.02072
4646.17979	0.02074
4644.25112	0.02076
4642.32244	0.02080
4640.39376	0.02087
4638.46509	0.02093
4636.53641	0.02094
4634.60774	0.02094
4632.67906	0.02096
4630.75039	0.02102
4628.82171	0.02108
4626.89303	0.02113
4624.96436	0.02115
4623.03568	0.02116
4621.10701	0.02118
4619.17833	0.02120
4617.24966	0.02123
4615.32098	0.02127
4613.39230	0.02131
4611.46363	0.02136
4609.53495	0.02141
4607.60628	0.02147
4605.67760	0.02153
4603.74893	0.02156
4601.82025	0.02157
4599.89157	0.02158
4597.96290	0.02161
4596.03422	0.02165
4594.10555	0.02168
4592.17687	0.02169
4590.24820	0.02173
4588.31952	0.02178
4586.39084	0.02182
4584.46217	0.02184
4582.53349	0.02187
4580.60482	0.02191
4578.67614	0.02195
4576.74747	0.02201
4574.81879	0.02207
4572.89011	0.02211
4570.96144	0.02213
4569.03276	0.02217
4567.10409	0.02219
4565.17541	0.02220
4563.24674	0.02222
4561.31806	0.02226
4559.38938	0.02232
4557.46071	0.02236
4555.53203	0.02238
4553.60336	0.02241
4551.67468	0.02247
4549.74601	0.02253
4547.81733	0.02257
4545.88865	0.02261
4543.95998	0.02266
4542.03130	0.02269
4540.10263	0.02271
4538.17395	0.02276
4536.24528	0.02282
4534.31660	0.02287
4532.38792	0.02289
4530.45925	0.02291
4528.53057	0.02294
4526.60190	0.02298
4524.67322	0.02302
4522.74455	0.02306
4520.81587	0.02311
4518.88719	0.02315
4516.95852	0.02318
4515.02984	0.02322
4513.10117	0.02327
4511.17249	0.02331
4509.24382	0.02332
4507.31514	0.02334
4505.38646	0.02338
4503.45779	0.02343
4501.52911	0.02350
4499.60044	0.02356
4497.67176	0.02360
4495.74309	0.02364
4493.81441	0.02368
4491.88573	0.02372
4489.95706	0.02375
4488.02838	0.02378
4486.09971	0.02380
4484.17103	0.02383
4482.24236	0.02388
4480.31368	0.02394
4478.38500	0.02400
4476.45633	0.02405
4474.52765	0.02408
4472.59898	0.02411
4470.67030	0.02414
4468.74163	0.02417
4466.81295	0.02420
4464.88427	0.02425
4462.95560	0.02430
4461.02692	0.02434
4459.09825	0.02437
4457.16957	0.02439
4455.24090	0.02441
4453.31222	0.02447
4451.38354	0.02453
4449.45487	0.02456
4447.52619	0.02460
4445.59752	0.02467
4443.66884	0.02473
4441.74017	0.02478
4439.81149	0.02482
4437.88281	0.02488
4435.95414	0.02492
4434.02546	0.02494
4432.09679	0.02496
4430.16811	0.02500
4428.23944	0.02505
4426.31076	0.02512
4424.38208	0.02518
4422.45341	0.02523
4420.52473	0.02526
4418.59606	0.02531
4416.66738	0.02535
4414.73871	0.02539
4412.81003	0.02543
4410.88135	0.02546
4408.95268	0.02547
4407.02400	0.02551
4405.09533	0.02556
4403.16665	0.02562
4401.23798	0.02569
4399.30930	0.02575
4397.38062	0.02578
4395.45195	0.02581
4393.52327	0.02584
4391.59460	0.02588
4389.66592	0.02594
4387.73725	0.02600
4385.80857	0.02605
4383.87989	0.02609
4381.95122	0.02611
4380.02254	0.02613
4378.09387	0.02617
4376.16519	0.02625
4374.23652	0.02632
4372.30784	0.02637
4370.37916	0.02641
4368.45049	0.02647
4366.52181	0.02652
4364.59314	0.02653
4362.66446	0.02655
4360.73579	0.02659
4358.80711	0.02665
4356.87843	0.02671
4354.94976	0.02677
4353.02108	0.02683
4351.09241	0.02688
4349.16373	0.02695
4347.23506	0.02703
4345.30638	0.02708
4343.37770	0.02711
4341.44903	0.02715
4339.52035	0.02718
4337.59168	0.02719
4335.66300	0.02722
4333.73433	0.02727
4331.80565	0.02734
4329.87697	0.02741
4327.94830	0.02746
4326.01962	0.02749
4324.09095	0.02754
4322.16227	0.02761
4320.23360	0.02768
4318.30492	0.02774
4316.37624	0.02779
4314.44757	0.02782
4312.51889	0.02784
4310.59022	0.02789
4308.66154	0.02796
4306.73287	0.02802
4304.80419	0.02805
4302.87551	0.02809
4300.94684	0.02814
4299.01816	0.02819
4297.08949	0.02824
4295.16081	0.02831
4293.23214	0.02838
4291.30346	0.02843
4289.37478	0.02847
4287.44611	0.02853
4285.51743	0.02859
4283.58876	0.02864
4281.66008	0.02868
4279.73141	0.02871
4277.80273	0.02874
4275.87405	0.02879
4273.94538	0.02884
4272.01670	0.02889
4270.08803	0.02895
4268.15935	0.02902
4266.23068	0.02909
4264.30200	0.02914
4262.37332	0.02918
4260.44465	0.02922
4258.51597	0.02929
4256.58730	0.02937
4254.65862	0.02943
4252.72995	0.02946
4250.80127	0.02949
4248.87259	0.02953
4246.94392	0.02959
4245.01524	0.02964
4243.08657	0.02970
4241.15789	0.02977
4239.22922	0.02984
4237.30054	0.02989
4235.37186	0.02995
4233.44319	0.03002
4231.51451	0.03008
4229.58584	0.03014
4227.65716	0.03019
4225.72849	0.03022
4223.79981	0.03027
4221.87113	0.03034
4219.94246	0.03040
4218.01378	0.03044
4216.08511	0.03049
4214.15643	0.03055
4212.22776	0.03062
4210.29908	0.03067
4208.37040	0.03071
4206.44173	0.03076
4204.51305	0.03084
4202.58438	0.03090
4200.65570	0.03094
4198.72703	0.03098
4196.79835	0.03104
4194.86968	0.03111
4192.94100	0.03117
4191.01232	0.03121
4189.08365	0.03128
4187.15497	0.03136
4185.22630	0.03144
4183.29762	0.03150
4181.36895	0.03157
4179.44027	0.03163
4177.51159	0.03169
4175.58292	0.03175
4173.65424	0.03182
4171.72557	0.03188
4169.79689	0.03192
4167.86822	0.03197
4165.93954	0.03203
4164.01086	0.03207
4162.08219	0.03213
4160.15351	0.03221
4158.22484	0.03227
4156.29616	0.03233
4154.36749	0.03237
4152.43881	0.03244
4150.51013	0.03251
4148.58146	0.03258
4146.65278	0.03265
4144.72411	0.03271
4142.79543	0.03278
4140.86676	0.03287
4138.93808	0.03294
4137.00940	0.03299
4135.08073	0.03302
4133.15205	0.03305
4131.22338	0.03309
4129.29470	0.03315
4127.36603	0.03323
4125.43735	0.03329
4123.50867	0.03334
4121.58000	0.03339
4119.65132	0.03346
4117.72265	0.03353
4115.79397	0.03359
4113.86530	0.03366
4111.93662	0.03375
4110.00794	0.03384
4108.07927	0.03390
4106.15059	0.03395
4104.22192	0.03401
4102.29324	0.03410
4100.36457	0.03418
4098.43589	0.03423
4096.50721	0.03428
4094.57854	0.03433
4092.64986	0.03439
4090.72119	0.03445
4088.79251	0.03452
4086.86384	0.03459
4084.93516	0.03466
4083.00648	0.03474
4081.07781	0.03480
4079.14913	0.03484
4077.22046	0.03490
4075.29178	0.03498
4073.36311	0.03504
4071.43443	0.03511
4069.50575	0.03520
4067.57708	0.03529
4065.64840	0.03534
4063.71973	0.03538
4061.79105	0.03543
4059.86238	0.03551
4057.93370	0.03559
4056.00502	0.03564
4054.07635	0.03570
4052.14767	0.03578
4050.21900	0.03586
4048.29032	0.03592
4046.36165	0.03600
4044.43297	0.03609
4042.50429	0.03616
4040.57562	0.03621
4038.64694	0.03626
4036.71827	0.03633
4034.78959	0.03639
4032.86092	0.03644
4030.93224	0.03650
4029.00356	0.03657
4027.07489	0.03666
4025.14621	0.03678
4023.21754	0.03688
4021.28886	0.03694
4019.36019	0.03697
4017.43151	0.03701
4015.50283	0.03707
4013.57416	0.03714
4011.64548	0.03720
4009.71681	0.03726
4007.78813	0.03733
4005.85946	0.03741
4003.93078	0.03748
4002.00210	0.03757
4000.07343	0.03765
3998.14475	0.03771
3996.21608	0.03778
3994.28740	0.03785
3992.35873	0.03790
3990.43005	0.03797
3988.50137	0.03806
3986.57270	0.03815
3984.64402	0.03823
3982.71535	0.03831
3980.78667	0.03838
3978.85800	0.03844
3976.92932	0.03850
3975.00064	0.03856
3973.07197	0.03865
3971.14329	0.03874
3969.21462	0.03880
3967.28594	0.03887
3965.35727	0.03896
3963.42859	0.03903
3961.49991	0.03908
3959.57124	0.03914
3957.64256	0.03922
3955.71389	0.03930
3953.78521	0.03937
3951.85654	0.03941
3949.92786	0.03945
3947.99918	0.03952
3946.07051	0.03962
3944.14183	0.03973
3942.21316	0.03984
3940.28448	0.03993
3938.35581	0.04001
3936.42713	0.04006
3934.49845	0.04009
3932.56978	0.04014
3930.64110	0.04023
3928.71243	0.04030
3926.78375	0.04035
3924.85508	0.04043
3922.92640	0.04051
3920.99772	0.04056
3919.06905	0.04059
3917.14037	0.04067
3915.21170	0.04081
3913.28302	0.04094
3911.35435	0.04104
3909.42567	0.04111
3907.49699	0.04108
3905.56832	0.04097
3903.63964	0.04094
3901.71097	0.04106
3899.78229	0.04123
3897.85362	0.04143
3895.92494	0.04161
3893.99626	0.04169
3892.06759	0.04173
3890.13891	0.04180
3888.21024	0.04179
3886.28156	0.04173
3884.35289	0.04181
3882.42421	0.04196
3880.49553	0.04209
3878.56686	0.04224
3876.63818	0.04233
3874.70951	0.04233
3872.78083	0.04233
3870.85216	0.04235
3868.92348	0.04246
3866.99480	0.04263
3865.06613	0.04274
3863.13745	0.04283
3861.20878	0.04296
3859.28010	0.04308
3857.35143	0.04307
3855.42275	0.04292
3853.49407	0.04286
3851.56540	0.04306
3849.63672	0.04338
3847.70805	0.04357
3845.77937	0.04360
3843.85070	0.04358
3841.92202	0.04360
3839.99334	0.04368
3838.06467	0.04380
3836.13599	0.04395
3834.20732	0.04406
3832.27864	0.04418
3830.34997	0.04430
3828.42129	0.04438
3826.49261	0.04444
3824.56394	0.04445
3822.63526	0.04438
3820.70659	0.04442
3818.77791	0.04462
3816.84924	0.04482
3814.92056	0.04499
3812.99188	0.04516
3811.06321	0.04524
3809.13453	0.04517
3807.20586	0.04513
3805.27718	0.04521
3803.34851	0.04531
3801.41983	0.04543
3799.49115	0.04559
3797.56248	0.04571
3795.63380	0.04580
3793.70513	0.04596
3791.77645	0.04610
3789.84778	0.04620
3787.91910	0.04627
3785.99042	0.04634
3784.06175	0.04640
3782.13307	0.04642
3780.20440	0.04645
3778.27572	0.04655
3776.34705	0.04672
3774.41837	0.04683
3772.48969	0.04685
3770.56102	0.04683
3768.63234	0.04688
3766.70367	0.04698
3764.77499	0.04711
3762.84632	0.04727
3760.91764	0.04737
3758.98896	0.04742
3757.06029	0.04749
3755.13161	0.04753
3753.20294	0.04746
3751.27426	0.04739
3749.34559	0.04746
3747.41691	0.04760
3745.48823	0.04767
3743.55956	0.04782
3741.63088	0.04806
3739.70221	0.04813
3737.77353	0.04799
3735.84486	0.04785
3733.91618	0.04797
3731.98750	0.04830
3730.05883	0.04861
3728.13015	0.04874
3726.20148	0.04877
3724.27280	0.04887
3722.34413	0.04903
3720.41545	0.04920
3718.48677	0.04935
3716.55810	0.04943
3714.62942	0.04937
3712.70075	0.04926
3710.77207	0.04929
3708.84340	0.04951
3706.91472	0.04973
3704.98604	0.04982
3703.05737	0.04983
3701.12869	0.04995
3699.20002	0.05017
3697.27134	0.05031
3695.34267	0.05038
3693.41399	0.05038
3691.48531	0.05036
3689.55664	0.05042
3687.62796	0.05061
3685.69929	0.05079
3683.77061	0.05090
3681.84194	0.05095
3679.91326	0.05094
3677.98458	0.05083
3676.05591	0.05072
3674.12723	0.05081
3672.19856	0.05097
3670.26988	0.05111
3668.34121	0.05135
3666.41253	0.05162
3664.48385	0.05175
3662.55518	0.05179
3660.62650	0.05182
3658.69783	0.05178
3656.76915	0.05176
3654.84048	0.05186
3652.91180	0.05189
3650.98312	0.05173
3649.05445	0.05163
3647.12577	0.05182
3645.19710	0.05214
3643.26842	0.05240
3641.33975	0.05258
3639.41107	0.05270
3637.48239	0.05277
3635.55372	0.05278
3633.62504	0.05275
3631.69637	0.05261
3629.76769	0.05251
3627.83902	0.05268
3625.91034	0.05301
3623.98166	0.05321
3622.05299	0.05321
3620.12431	0.05313
3618.19564	0.05313
3616.26696	0.05321
3614.33829	0.05330
3612.40961	0.05339
3610.48093	0.05346
3608.55226	0.05350
3606.62358	0.05362
3604.69491	0.05379
3602.76623	0.05389
3600.83756	0.05395
3598.90888	0.05402
3596.98020	0.05403
3595.05153	0.05405
3593.12285	0.05412
3591.19418	0.05413
3589.26550	0.05403
3587.33683	0.05408
3585.40815	0.05432
3583.47947	0.05455
3581.55080	0.05469
3579.62212	0.05474
3577.69345	0.05476
3575.76477	0.05482
3573.83610	0.05492
3571.90742	0.05499
3569.97874	0.05496
3568.05007	0.05487
3566.12139	0.05491
3564.19272	0.05510
3562.26404	0.05528
3560.33537	0.05541
3558.40669	0.05553
3556.47801	0.05562
3554.54934	0.05567
3552.62066	0.05571
3550.69199	0.05575
3548.76331	0.05575
3546.83464	0.05575
3544.90596	0.05584
3542.97728	0.05596
3541.04861	0.05605
3539.11993	0.05613
3537.19126	0.05618
3535.26258	0.05623
3533.33391	0.05628
3531.40523	0.05631
3529.47655	0.05631
3527.54788	0.05634
3525.61920	0.05639
3523.69053	0.05646
3521.76185	0.05656
3519.83318	0.05663
3517.90450	0.05665
3515.97582	0.05667
3514.04715	0.05672
3512.11847	0.05676
3510.18980	0.05675
3508.26112	0.05676
3506.33245	0.05679
3504.40377	0.05681
3502.47509	0.05685
3500.54642	0.05692
3498.61774	0.05697
3496.68907	0.05702
3494.76039	0.05705
3492.83172	0.05707
3490.90304	0.05708
3488.97436	0.05710
3487.04569	0.05712
3485.11701	0.05715
3483.18834	0.05718
3481.25966	0.05723
3479.33099	0.05728
3477.40231	0.05733
3475.47363	0.05741
3473.54496	0.05751
3471.61628	0.05761
3469.68761	0.05770
3467.75893	0.05777
3465.83026	0.05784
3463.90158	0.05794
3461.97290	0.05805
3460.04423	0.05816
3458.11555	0.05826
3456.18688	0.05832
3454.25820	0.05838
3452.32953	0.05845
3450.40085	0.05855
3448.47217	0.05864
3446.54350	0.05876
3444.61482	0.05889
3442.68615	0.05900
3440.75747	0.05910
3438.82880	0.05922
3436.90012	0.05935
3434.97144	0.05950
3433.04277	0.05965
3431.11409	0.05984
3429.18542	0.06005
3427.25674	0.06026
3425.32807	0.06044
3423.39939	0.06058
3421.47071	0.06073
3419.54204	0.06092
3417.61336	0.06112
3415.68469	0.06128
3413.75601	0.06140
3411.82734	0.06153
3409.89866	0.06167
3407.96998	0.06179
3406.04131	0.06188
3404.11263	0.06199
3402.18396	0.06211
3400.25528	0.06224
3398.32661	0.06236
3396.39793	0.06250
3394.46925	0.06265
3392.54058	0.06281
3390.61190	0.06296
3388.68323	0.06309
3386.75455	0.06319
3384.82588	0.06330
3382.89720	0.06341
3380.96852	0.06353
3379.03985	0.06364
3377.11117	0.06377
3375.18250	0.06391
3373.25382	0.06404
3371.32515	0.06416
3369.39647	0.06427
3367.46779	0.06441
3365.53912	0.06454
3363.61044	0.06465
3361.68177	0.06477
3359.75309	0.06490
3357.82442	0.06500
3355.89574	0.06510
3353.96706	0.06520
3352.03839	0.06532
3350.10971	0.06545
3348.18104	0.06559
3346.25236	0.06570
3344.32369	0.06580
3342.39501	0.06592
3340.46633	0.06604
3338.53766	0.06616
3336.60898	0.06627
3334.68031	0.06640
3332.75163	0.06652
3330.82296	0.06665
3328.89428	0.06677
3326.96560	0.06688
3325.03693	0.06701
3323.10825	0.06713
3321.17958	0.06724
3319.25090	0.06738
3317.32223	0.06751
3315.39355	0.06760
3313.46487	0.06769
3311.53620	0.06783
3309.60752	0.06799
3307.67885	0.06810
3305.75017	0.06819
3303.82150	0.06830
3301.89282	0.06843
3299.96414	0.06857
3298.03547	0.06870
3296.10679	0.06881
3294.17812	0.06893
3292.24944	0.06905
3290.32077	0.06918
3288.39209	0.06931
3286.46341	0.06946
3284.53474	0.06962
3282.60606	0.06976
3280.67739	0.06986
3278.74871	0.06996
3276.82004	0.07006
3274.89136	0.07018
3272.96268	0.07031
3271.03401	0.07046
3269.10533	0.07061
3267.17666	0.07072
3265.24798	0.07082
3263.31931	0.07096
3261.39063	0.07114
3259.46195	0.07129
3257.53328	0.07141
3255.60460	0.07152
3253.67593	0.07164
3251.74725	0.07174
3249.81858	0.07185
3247.88990	0.07199
3245.96122	0.07214
3244.03255	0.07229
3242.10387	0.07241
3240.17520	0.07252
3238.24652	0.07266
3236.31785	0.07280
3234.38917	0.07291
3232.46049	0.07299
3230.53182	0.07310
3228.60314	0.07325
3226.67447	0.07343
3224.74579	0.07359
3222.81712	0.07372
3220.88844	0.07381
3218.95976	0.07390
3217.03109	0.07401
3215.10241	0.07414
3213.17374	0.07428
3211.24506	0.07442
3209.31639	0.07455
3207.38771	0.07469
3205.45903	0.07484
3203.53036	0.07497
3201.60168	0.07509
3199.67301	0.07519
3197.74433	0.07529
3195.81566	0.07544
3193.88698	0.07565
3191.95830	0.07585
3190.02963	0.07599
3188.10095	0.07610
3186.17228	0.07623
3184.24360	0.07639
3182.31493	0.07653
3180.38625	0.07664
3178.45757	0.07676
3176.52890	0.07691
3174.60022	0.07705
3172.67155	0.07716
3170.74287	0.07728
3168.81420	0.07740
3166.88552	0.07753
3164.95684	0.07766
3163.02817	0.07780
3161.09949	0.07797
3159.17082	0.07815
3157.24214	0.07827
3155.31347	0.07836
3153.38479	0.07847
3151.45611	0.07860
3149.52744	0.07873
3147.59876	0.07887
3145.67009	0.07903
3143.74141	0.07916
3141.81274	0.07929
3139.88406	0.07943
3137.95538	0.07957
3136.02671	0.07970
3134.09803	0.07981
3132.16936	0.07991
3130.24068	0.08003
3128.31201	0.08020
3126.38333	0.08038
3124.45465	0.08050
3122.52598	0.08059
3120.59730	0.08072
3118.66863	0.08088
3116.73995	0.08103
3114.81128	0.08117
3112.88260	0.08132
3110.95392	0.08146
3109.02525	0.08159
3107.09657	0.08170
3105.16790	0.08180
3103.23922	0.08191
3101.31055	0.08202
3099.38187	0.08215
3097.45319	0.08231
3095.52452	0.08248
3093.59584	0.08264
3091.66717	0.08278
3089.73849	0.08289
3087.80982	0.08300
3085.88114	0.08312
3083.95246	0.08323
3082.02379	0.08332
3080.09511	0.08344
3078.16644	0.08361
3076.23776	0.08375
3074.30909	0.08388
3072.38041	0.08403
3070.45173	0.08420
3068.52306	0.08433
3066.59438	0.08444
3064.66571	0.08455
3062.73703	0.08468
3060.80836	0.08482
3058.87968	0.08498
3056.95100	0.08515
3055.02233	0.08529
3053.09365	0.08540
3051.16498	0.08552
3049.23630	0.08566
3047.30763	0.08581
3045.37895	0.08595
3043.45027	0.08608
3041.52160	0.08618
3039.59292	0.08630
3037.66425	0.08643
3035.73557	0.08657
3033.80690	0.08671
3031.87822	0.08685
3029.94954	0.08698
3028.02087	0.08709
3026.09219	0.08722
3024.16352	0.08737
3022.23484	0.08750
3020.30617	0.08762
3018.37749	0.08773
3016.44881	0.08786
3014.52014	0.08800
3012.59146	0.08815
3010.66279	0.08829
3008.73411	0.08843
3006.80544	0.08855
3004.87676	0.08868
3002.94808	0.08882
3001.01941	0.08895
2999.09073	0.08908
2997.16206	0.08920
2995.23338	0.08930
2993.30471	0.08942
2991.37603	0.08954
2989.44735	0.08967
2987.51868	0.08980
2985.59000	0.08991
2983.66133	0.08996
2981.73265	0.09000
2979.80398	0.09006
2977.87530	0.09013
2975.94662	0.09019
2974.01795	0.09023
2972.08927	0.09024
2970.16060	0.09023
2968.23192	0.09024
2966.30325	0.09028
2964.37457	0.09034
2962.44589	0.09041
2960.51722	0.09052
2958.58854	0.09067
2956.65987	0.09082
2954.73119	0.09098
2952.80252	0.09115
2950.87384	0.09134
2948.94516	0.09147
2947.01649	0.09157
2945.08781	0.09169
2943.15914	0.09181
2941.23046	0.09187
2939.30179	0.09186
2937.37311	0.09184
2935.44443	0.09181
2933.51576	0.09176
2931.58708	0.09173
2929.65841	0.09174
2927.72973	0.09175
2925.80106	0.09174
2923.87238	0.09174
2921.94370	0.09175
2920.01503	0.09182
2918.08635	0.09197
2916.15768	0.09226
2914.22900	0.09264
2912.30033	0.09307
2910.37165	0.09347
2908.44297	0.09379
2906.51430	0.09404
2904.58562	0.09426
2902.65695	0.09448
2900.72827	0.09469
2898.79960	0.09490
2896.87092	0.09510
2894.94224	0.09529
2893.01357	0.09547
2891.08489	0.09563
2889.15622	0.09581
2887.22754	0.09600
2885.29887	0.09619
2883.37019	0.09636
2881.44151	0.09649
2879.51284	0.09663
2877.58416	0.09678
2875.65549	0.09691
2873.72681	0.09702
2871.79814	0.09714
2869.86946	0.09726
2867.94078	0.09735
2866.01211	0.09743
2864.08343	0.09751
2862.15476	0.09757
2860.22608	0.09760
2858.29741	0.09762
2856.36873	0.09764
2854.44005	0.09763
2852.51138	0.09761
2850.58270	0.09768
2848.65403	0.09795
2846.72535	0.09840
2844.79668	0.09890
2842.86800	0.09929
2840.93932	0.09959
2839.01065	0.09983
2837.08197	0.10005
2835.15330	0.10025
2833.22462	0.10041
2831.29595	0.10057
2829.36727	0.10075
2827.43859	0.10091
2825.50992	0.10106
2823.58124	0.10123
2821.65257	0.10139
2819.72389	0.10153
2817.79522	0.10166
2815.86654	0.10181
2813.93786	0.10197
2812.00919	0.10215
2810.08051	0.10232
2808.15184	0.10245
2806.22316	0.10258
2804.29449	0.10274
2802.36581	0.10291
2800.43713	0.10305
2798.50846	0.10316
2796.57978	0.10329
2794.65111	0.10344
2792.72243	0.10359
2790.79376	0.10372
2788.86508	0.10387
2786.93640	0.10406
2785.00773	0.10423
2783.07905	0.10435
2781.15038	0.10447
2779.22170	0.10460
2777.29303	0.10474
2775.36435	0.10489
2773.43567	0.10506
2771.50700	0.10520
2769.57832	0.10530
2767.64965	0.10539
2765.72097	0.10553
2763.79230	0.10571
2761.86362	0.10587
2759.93494	0.10602
2758.00627	0.10616
2756.07759	0.10631
2754.14892	0.10648
2752.22024	0.10663
2750.29157	0.10674
2748.36289	0.10683
2746.43421	0.10697
2744.50554	0.10711
2742.57686	0.10724
2740.64819	0.10737
2738.71951	0.10751
2736.79084	0.10766
2734.86216	0.10780
2732.93348	0.10794
2731.00481	0.10809
2729.07613	0.10824
2727.14746	0.10837
2725.21878	0.10852
2723.29011	0.10868
2721.36143	0.10883
2719.43275	0.10892
2717.50408	0.10902
2715.57540	0.10916
2713.64673	0.10930
2711.71805	0.10942
2709.78938	0.10955
2707.86070	0.10973
2705.93202	0.10988
2704.00335	0.11001
2702.07467	0.11016
2700.14600	0.11030
2698.21732	0.11041
2696.28865	0.11051
2694.35997	0.11063
2692.43129	0.11079
2690.50262	0.11094
2688.57394	0.11107
2686.64527	0.11123
2684.71659	0.11139
2682.78792	0.11153
2680.85924	0.11166
2678.93056	0.11179
2677.00189	0.11190
2675.07321	0.11203
2673.14454	0.11218
2671.21586	0.11232
2669.28719	0.11243
2667.35851	0.11256
2665.42983	0.11271
2663.50116	0.11285
2661.57248	0.11298
2659.64381	0.11314
2657.71513	0.11332
2655.78646	0.11350
2653.85778	0.11365
2651.92910	0.11376
2650.00043	0.11390
2648.07175	0.11404
2646.14308	0.11416
2644.21440	0.11428
2642.28573	0.11442
2640.35705	0.11458
2638.42837	0.11475
2636.49970	0.11494
2634.57102	0.11511
2632.64235	0.11525
2630.71367	0.11537
2628.78500	0.11552
2626.85632	0.11567
2624.92764	0.11580
2622.99897	0.11591
2621.07029	0.11606
2619.14162	0.11619
2617.21294	0.11632
2615.28427	0.11647
2613.35559	0.11666
2611.42691	0.11684
2609.49824	0.11700
2607.56956	0.11717
2605.64089	0.11734
2603.71221	0.11748
2601.78354	0.11761
2599.85486	0.11774
2597.92618	0.11788
2595.99751	0.11802
2594.06883	0.11817
2592.14016	0.11834
2590.21148	0.11850
2588.28281	0.11863
2586.35413	0.11875
2584.42545	0.11890
2582.49678	0.11904
2580.56810	0.11918
2578.63943	0.11932
2576.71075	0.11946
2574.78208	0.11961
2572.85340	0.11976
2570.92472	0.11993
2568.99605	0.12009
2567.06737	0.12023
2565.13870	0.12033
2563.21002	0.12043
2561.28135	0.12055
2559.35267	0.12071
2557.42399	0.12085
2555.49532	0.12097
2553.56664	0.12114
2551.63797	0.12132
2549.70929	0.12147
2547.78062	0.12159
2545.85194	0.12169
2543.92326	0.12177
2541.99459	0.12188
2540.06591	0.12206
2538.13724	0.12226
2536.20856	0.12244
2534.27989	0.12260
2532.35121	0.12274
2530.42253	0.12286
2528.49386	0.12299
2526.56518	0.12314
2524.63651	0.12330
2522.70783	0.12343
2520.77916	0.12355
2518.85048	0.12369
2516.92181	0.12385
2514.99313	0.12401
2513.06445	0.12418
2511.13578	0.12436
2509.20710	0.12454
2507.27843	0.12471
2505.34975	0.12485
2503.42108	0.12496
2501.49240	0.12510
2499.56372	0.12531
2497.63505	0.12553
2495.70637	0.12570
2493.77770	0.12582
2491.84902	0.12595
2489.92035	0.12608
2487.99167	0.12622
2486.06299	0.12638
2484.13432	0.12655
2482.20564	0.12669
2480.27697	0.12682
2478.34829	0.12696
2476.41962	0.12713
2474.49094	0.12732
2472.56226	0.12751
2470.63359	0.12769
2468.70491	0.12788
2466.77624	0.12804
2464.84756	0.12815
2462.91889	0.12825
2460.99021	0.12839
2459.06153	0.12856
2457.13286	0.12872
2455.20418	0.12887
2453.27551	0.12900
2451.34683	0.12915
2449.41816	0.12931
2447.48948	0.12948
2445.56080	0.12964
2443.63213	0.12980
2441.70345	0.12995
2439.77478	0.13008
2437.84610	0.13020
2435.91743	0.13032
2433.98875	0.13049
2432.06007	0.13068
2430.13140	0.13082
2428.20272	0.13095
2426.27405	0.13111
2424.34537	0.13129
2422.41670	0.13144
2420.48802	0.13159
2418.55934	0.13175
2416.63067	0.13191
2414.70199	0.13207
2412.77332	0.13223
2410.84464	0.13237
2408.91597	0.13250
2406.98729	0.13267
2405.05861	0.13284
2403.12994	0.13299
2401.20126	0.13314
2399.27259	0.13329
2397.34391	0.13344
2395.41524	0.13359
2393.48656	0.13371
2391.55788	0.13384
2389.62921	0.13400
2387.70053	0.13416
2385.77186	0.13430
2383.84318	0.13442
2381.91451	0.13450
2379.98583	0.13454
2378.05715	0.13458
2376.12848	0.13464
2374.19980	0.13469
2372.27113	0.13475
2370.34245	0.13482
2368.41378	0.13490
2366.48510	0.13498
2364.55642	0.13503
2362.62775	0.13508
2360.69907	0.13520
2358.77040	0.13544
2356.84172	0.13570
2354.91305	0.13595
2352.98437	0.13620
2351.05569	0.13646
2349.12702	0.13668
2347.19834	0.13682
2345.26967	0.13687
2343.34099	0.13693
2341.41232	0.13703
2339.48364	0.13714
2337.55496	0.13726
2335.62629	0.13739
2333.69761	0.13752
2331.76894	0.13766
2329.84026	0.13782
2327.91159	0.13801
2325.98291	0.13823
2324.05423	0.13846
2322.12556	0.13866
2320.19688	0.13886
2318.26821	0.13908
2316.33953	0.13930
2314.41086	0.13950
2312.48218	0.13969
2310.55350	0.13987
2308.62483	0.14006
2306.69615	0.14026
2304.76748	0.14046
2302.83880	0.14065
2300.91013	0.14082
2298.98145	0.14098
2297.05277	0.14111
2295.12410	0.14126
2293.19542	0.14143
2291.26675	0.14160
2289.33807	0.14173
2287.40940	0.14186
2285.48072	0.14199
2283.55204	0.14215
2281.62337	0.14232
2279.69469	0.14248
2277.76602	0.14263
2275.83734	0.14278
2273.90867	0.14296
2271.97999	0.14317
2270.05131	0.14336
2268.12264	0.14349
2266.19396	0.14360
2264.26529	0.14369
2262.33661	0.14380
2260.40794	0.14396
2258.47926	0.14414
2256.55058	0.14432
2254.62191	0.14447
2252.69323	0.14462
2250.76456	0.14478
2248.83588	0.14496
2246.90721	0.14511
2244.97853	0.14523
2243.04985	0.14536
2241.12118	0.14550
2239.19250	0.14563
2237.26383	0.14580
2235.33515	0.14600
2233.40648	0.14618
2231.47780	0.14631
2229.54912	0.14644
2227.62045	0.14661
2225.69177	0.14679
2223.76310	0.14694
2221.83442	0.14705
2219.90575	0.14716
2217.97707	0.14729
2216.04839	0.14744
2214.11972	0.14761
2212.19104	0.14776
2210.26237	0.14790
2208.33369	0.14809
2206.40502	0.14826
2204.47634	0.14841
2202.54766	0.14855
2200.61899	0.14871
2198.69031	0.14885
2196.76164	0.14895
2194.83296	0.14903
2192.90429	0.14916
2190.97561	0.14935
2189.04693	0.14954
2187.11826	0.14967
2185.18958	0.14984
2183.26091	0.15001
2181.33223	0.15013
2179.40356	0.15023
2177.47488	0.15038
2175.54620	0.15057
2173.61753	0.15071
2171.68885	0.15082
2169.76018	0.15098
2167.83150	0.15117
2165.90283	0.15135
2163.97415	0.15150
2162.04547	0.15165
2160.11680	0.15183
2158.18812	0.15202
2156.25945	0.15216
2154.33077	0.15227
2152.40210	0.15241
2150.47342	0.15255
2148.54474	0.15272
2146.61607	0.15291
2144.68739	0.15308
2142.75872	0.15320
2140.83004	0.15336
2138.90137	0.15354
2136.97269	0.15369
2135.04401	0.15384
2133.11534	0.15400
2131.18666	0.15412
2129.25799	0.15421
2127.32931	0.15435
2125.40064	0.15454
2123.47196	0.15471
2121.54328	0.15485
2119.61461	0.15502
2117.68593	0.15520
2115.75726	0.15534
2113.82858	0.15548
2111.89991	0.15562
2109.97123	0.15577
2108.04255	0.15593
2106.11388	0.15609
2104.18520	0.15625
2102.25653	0.15642
2100.32785	0.15660
2098.39918	0.15677
2096.47050	0.15688
2094.54182	0.15699
2092.61315	0.15716
2090.68447	0.15735
2088.75580	0.15751
2086.82712	0.15766
2084.89845	0.15779
2082.96977	0.15791
2081.04109	0.15804
2079.11242	0.15818
2077.18374	0.15833
2075.25507	0.15848
2073.32639	0.15865
2071.39772	0.15884
2069.46904	0.15902
2067.54036	0.15912
2065.61169	0.15922
2063.68301	0.15938
2061.75434	0.15957
2059.82566	0.15974
2057.89699	0.15992
2055.96831	0.16010
2054.03963	0.16023
2052.11096	0.16032
2050.18228	0.16046
2048.25361	0.16064
2046.32493	0.16084
2044.39626	0.16104
2042.46758	0.16120
2040.53890	0.16133
2038.61023	0.16147
2036.68155	0.16161
2034.75288	0.16174
2032.82420	0.16189
2030.89553	0.16206
2028.96685	0.16224
2027.03817	0.16240
2025.10950	0.16256
2023.18082	0.16270
2021.25215	0.16284
2019.32347	0.16295
2017.39480	0.16307
2015.46612	0.16328
2013.53744	0.16353
2011.60877	0.16370
2009.68009	0.16381
2007.75142	0.16392
2005.82274	0.16406
2003.89407	0.16419
2001.96539	0.16435
2000.03671	0.16452
1998.10804	0.16469
1996.17936	0.16486
1994.25069	0.16500
1992.32201	0.16512
1990.39334	0.16527
1988.46466	0.16547
1986.53598	0.16563
1984.60731	0.16574
1982.67863	0.16587
1980.74996	0.16602
1978.82128	0.16614
1976.89261	0.16625
1974.96393	0.16636
1973.03525	0.16649
1971.10658	0.16660
1969.17790	0.16667
1967.24923	0.16677
1965.32055	0.16696
1963.39188	0.16711
1961.46320	0.16720
1959.53452	0.16733
1957.60585	0.16751
1955.67717	0.16769
1953.74850	0.16788
1951.81982	0.16807
1949.89115	0.16823
1947.96247	0.16841
1946.03379	0.16854
1944.10512	0.16859
1942.17644	0.16867
1940.24777	0.16885
1938.31909	0.16907
1936.39042	0.16926
1934.46174	0.16942
1932.53306	0.16960
1930.60439	0.16976
1928.67571	0.16992
1926.74704	0.17005
1924.81836	0.17011
1922.88969	0.17014
1920.96101	0.17012
1919.03233	0.17007
1917.10366	0.17028
1915.17498	0.17072
1913.24631	0.17100
1911.31763	0.17107
1909.38896	0.17117
1907.46028	0.17134
1905.53160	0.17156
1903.60293	0.17178
1901.67425	0.17197
1899.74558	0.17213
1897.81690	0.17222
1895.88823	0.17228
1893.95955	0.17242
1892.03087	0.17259
1890.10220	0.17271
1888.17352	0.17285
1886.24485	0.17302
1884.31617	0.17319
1882.38750	0.17336
1880.45882	0.17353
1878.53014	0.17370
1876.60147	0.17389
1874.67279	0.17407
1872.74412	0.17411
1870.81544	0.17396
1868.88677	0.17386
1866.95809	0.17410
1865.02941	0.17451
1863.10074	0.17483
1861.17206	0.17504
1859.24339	0.17521
1857.31471	0.17537
1855.38604	0.17553
1853.45736	0.17571
1851.52868	0.17584
1849.60001	0.17590
1847.67133	0.17588
1845.74266	0.17580
1843.81398	0.17590
1841.88531	0.17629
1839.95663	0.17665
1838.02795	0.17681
1836.09928	0.17693
1834.17060	0.17701
1832.24193	0.17688
1830.31325	0.17678
1828.38458	0.17706
1826.45590	0.17742
1824.52722	0.17766
1822.59855	0.17793
1820.66987	0.17817
1818.74120	0.17829
1816.81252	0.17841
1814.88385	0.17856
1812.95517	0.17858
1811.02649	0.17859
1809.09782	0.17876
1807.16914	0.17899
1805.24047	0.17912
1803.31179	0.17907
1801.38312	0.17896
1799.45444	0.17903
1797.52576	0.17929
1795.59709	0.17943
1793.66841	0.17936
1791.73974	0.17944
1789.81106	0.17979
1787.88239	0.18002
1785.95371	0.18001
1784.02503	0.18005
1782.09636	0.18015
1780.16768	0.18031
1778.23901	0.18059
1776.31033	0.18068
1774.38166	0.18044
1772.45298	0.18030
1770.52430	0.18054
1768.59563	0.18087
1766.66695	0.18116
1764.73828	0.18131
1762.80960	0.18119
1760.88093	0.18120
1758.95225	0.18146
1757.02357	0.18172
1755.09490	0.18186
1753.16622	0.18169
1751.23755	0.18137
1749.30887	0.18132
1747.38020	0.18147
1745.45152	0.18152
1743.52284	0.18150
1741.59417	0.18153
1739.66549	0.18164
1737.73682	0.18153
1735.80814	0.18099
1733.87947	0.18076
1731.95079	0.18129
1730.02211	0.18197
1728.09344	0.18243
1726.16476	0.18267
1724.23609	0.18272
1722.30741	0.18270
1720.37874	0.18252
1718.45006	0.18230
1716.52138	0.18237
1714.59271	0.18278
1712.66403	0.18329
1710.73536	0.18361
1708.80668	0.18362
1706.87801	0.18340
1704.94933	0.18309
1703.02065	0.18246
1701.09198	0.18179
1699.16330	0.18203
1697.23463	0.18285
1695.30595	0.18344
1693.37728	0.18388
1691.44860	0.18407
1689.51992	0.18395
1687.59125	0.18365
1685.66257	0.18323
1683.73390	0.18324
1681.80522	0.18378
1679.87655	0.18424
1677.94787	0.18430
1676.01919	0.18416
1674.09052	0.18410
1672.16184	0.18399
1670.23317	0.18383
1668.30449	0.18399
1666.37582	0.18428
1664.44714	0.18421
1662.51846	0.18414
1660.58979	0.18445
1658.66111	0.18471
1656.73244	0.18439
1654.80376	0.18373
1652.87509	0.18357
1650.94641	0.18396
1649.01773	0.18407
1647.08906	0.18401
1645.16038	0.18443
1643.23171	0.18495
1641.30303	0.18509
1639.37436	0.18486
1637.44568	0.18434
1635.51700	0.18410
1633.58833	0.18465
1631.65965	0.18523
1629.73098	0.18522
1627.80230	0.18504
1625.87363	0.18496
1623.94495	0.18479
1622.01627	0.18458
1620.08760	0.18444
1618.15892	0.18433
1616.23025	0.18472
1614.30157	0.18567
1612.37290	0.18641
1610.44422	0.18667
1608.51554	0.18692
1606.58687	0.18727
1604.65819	0.18753
1602.72952	0.18769
1600.80084	0.18789
1598.87217	0.18810
1596.94349	0.18822
1595.01481	0.18830
1593.08614	0.18843
1591.15746	0.18862
1589.22879	0.18888
1587.30011	0.18914
1585.37144	0.18931
1583.44276	0.18942
1581.51408	0.18952
1579.58541	0.18953
1577.65673	0.18940
1575.72806	0.18943
1573.79938	0.18972
1571.87071	0.18989
1569.94203	0.18990
1568.01335	0.19008
1566.08468	0.19033
1564.15600	0.19037
1562.22733	0.18989
1560.29865	0.18915
1558.36998	0.18914
1556.44130	0.18996
1554.51262	0.19069
1552.58395	0.19101
1550.65527	0.19118
1548.72660	0.19128
1546.79792	0.19124
1544.86925	0.19098
1542.94057	0.19058
1541.01189	0.19028
1539.08322	0.19058
1537.15454	0.19124
1535.22587	0.19147
1533.29719	0.19143
1531.36852	0.19162
1529.43984	0.19174
1527.51116	0.19157
1525.58249	0.19130
1523.65381	0.19086
1521.72514	0.19041
1519.79646	0.19048
1517.86779	0.19096
1515.93911	0.19157
1514.01043	0.19208
1512.08176	0.19200
1510.15308	0.19146
1508.22441	0.19103
1506.29573	0.19118
1504.36706	0.19197
1502.43838	0.19261
1500.50970	0.19253
1498.58103	0.19231
1496.65235	0.19251
1494.72368	0.19277
1492.79500	0.19254
1490.86633	0.19205
1488.93765	0.19188
1487.00897	0.19213
1485.08030	0.19249
1483.15162	0.19264
1481.22295	0.19253
1479.29427	0.19218
1477.36560	0.19165
1475.43692	0.19105
1473.50824	0.19050
1471.57957	0.19028
1469.65089	0.19049
1467.72222	0.19051
1465.79354	0.19016
1463.86487	0.18992
1461.93619	0.18980
1460.00751	0.18920
1458.07884	0.18819
1456.15016	0.18796
1454.22149	0.18872
1452.29281	0.18936
1450.36414	0.18948
1448.43546	0.18946
1446.50678	0.18956
1444.57811	0.18976
1442.64943	0.18992
1440.72076	0.18984
1438.79208	0.18941
1436.86341	0.18914
1434.93473	0.18957
1433.00605	0.19013
1431.07738	0.19031
1429.14870	0.19048
1427.22003	0.19076
1425.29135	0.19093
1423.36268	0.19091
1421.43400	0.19063
1419.50532	0.19032
1417.57665	0.19048
1415.64797	0.19092
1413.71930	0.19114
1411.79062	0.19112
1409.86195	0.19109
1407.93327	0.19108
1406.00459	0.19105
1404.07592	0.19105
1402.14724	0.19093
1400.21857	0.19060
1398.28989	0.19032
1396.36122	0.19024
1394.43254	0.19036
1392.50386	0.19060
1390.57519	0.19050
1388.64651	0.18997
1386.71784	0.18964
1384.78916	0.18972
1382.86049	0.18989
1380.93181	0.18996
1379.00313	0.18994
1377.07446	0.18984
1375.14578	0.18973
1373.21711	0.18972
1371.28843	0.18977
1369.35976	0.18980
1367.43108	0.18984
1365.50240	0.18981
1363.57373	0.18959
1361.64505	0.18946
1359.71638	0.18962
1357.78770	0.18986
1355.85903	0.19001
1353.93035	0.19011
1352.00167	0.19015
1350.07300	0.19017
1348.14432	0.19029
1346.21565	0.19050
1344.28697	0.19060
1342.35830	0.19048
1340.42962	0.19021
1338.50094	0.19007
1336.57227	0.19016
1334.64359	0.19022
1332.71492	0.19013
1330.78624	0.18997
1328.85757	0.18983
1326.92889	0.18971
1325.00021	0.18955
1323.07154	0.18935
1321.14286	0.18910
1319.21419	0.18887
1317.28551	0.18874
1315.35684	0.18867
1313.42816	0.18854
1311.49948	0.18837
1309.57081	0.18816
1307.64213	0.18795
1305.71346	0.18775
1303.78478	0.18757
1301.85611	0.18742
1299.92743	0.18722
1297.99875	0.18696
1296.07008	0.18671
1294.14140	0.18650
1292.21273	0.18630
1290.28405	0.18608
1288.35538	0.18586
1286.42670	0.18570
1284.49802	0.18557
1282.56935	0.18540
1280.64067	0.18517
1278.71200	0.18494
1276.78332	0.18466
1274.85465	0.18431
1272.92597	0.18387
1270.99729	0.18328
1269.06862	0.18250
1267.13994	0.18160
1265.21127	0.18082
1263.28259	0.18028
1261.35392	0.18001
1259.42524	0.18002
1257.49656	0.18014
1255.56789	0.18028
1253.63921	0.18036
1251.71054	0.18024
1249.78186	0.17996
1247.85319	0.17963
1245.92451	0.17928
1243.99583	0.17893
1242.06716	0.17857
1240.13848	0.17818
1238.20981	0.17772
1236.28113	0.17720
1234.35246	0.17665
1232.42378	0.17611
1230.49510	0.17558
1228.56643	0.17507
1226.63775	0.17459
1224.70908	0.17411
1222.78040	0.17365
1220.85173	0.17322
1218.92305	0.17277
1216.99437	0.17224
1215.06570	0.17168
1213.13702	0.17116
1211.20835	0.17066
1209.27967	0.17016
1207.35100	0.16961
1205.42232	0.16903
1203.49364	0.16847
1201.56497	0.16791
1199.63629	0.16733
1197.70762	0.16675
1195.77894	0.16617
1193.85027	0.16557
1191.92159	0.16496
1189.99291	0.16433
1188.06424	0.16366
1186.13556	0.16297
1184.20689	0.16223
1182.27821	0.16144
1180.34954	0.16066
1178.42086	0.15993
1176.49218	0.15920
1174.56351	0.15842
1172.63483	0.15756
1170.70616	0.15668
1168.77748	0.15588
1166.84881	0.15515
1164.92013	0.15436
1162.99145	0.15354
1161.06278	0.15278
1159.13410	0.15205
1157.20543	0.15129
1155.27675	0.15052
1153.34808	0.14977
1151.41940	0.14905
1149.49072	0.14830
1147.56205	0.14751
1145.63337	0.14672
1143.70470	0.14590
1141.77602	0.14506
1139.84735	0.14416
1137.91867	0.14316
1135.98999	0.14202
1134.06132	0.14075
1132.13264	0.13929
1130.20397	0.13759
1128.27529	0.13569
1126.34662	0.13364
1124.41794	0.13148
1122.48926	0.12928
1120.56059	0.12707
1118.63191	0.12493
1116.70324	0.12295
1114.77456	0.12120
1112.84589	0.11967
1110.91721	0.11840
1108.98853	0.11746
1107.05986	0.11680
1105.13118	0.11639
1103.20251	0.11628
1101.27383	0.11646
1099.34516	0.11679
1097.41648	0.11726
1095.48780	0.11790
1093.55913	0.11867
1091.63045	0.11944
1089.70178	0.12014
1087.77310	0.12080
1085.84443	0.12143
1083.91575	0.12198
1081.98707	0.12237
1080.05840	0.12262
1078.12972	0.12277
1076.20105	0.12291
1074.27237	0.12302
1072.34370	0.12308
1070.41502	0.12313
1068.48634	0.12323
1066.55767	0.12336
1064.62899	0.12354
1062.70032	0.12378
1060.77164	0.12402
1058.84297	0.12424
1056.91429	0.12446
1054.98561	0.12474
1053.05694	0.12504
1051.12826	0.12530
1049.19959	0.12557
1047.27091	0.12595
1045.34224	0.12636
1043.41356	0.12673
1041.48488	0.12709
1039.55621	0.12750
1037.62753	0.12791
1035.69886	0.12827
1033.77018	0.12856
1031.84151	0.12882
1029.91283	0.12912
1027.98415	0.12948
1026.05548	0.12982
1024.12680	0.13012
1022.19813	0.13042
1020.26945	0.13075
1018.34078	0.13111
1016.41210	0.13154
1014.48342	0.13205
1012.55475	0.13264
1010.62607	0.13325
1008.69740	0.13388
1006.76872	0.13445
1004.84005	0.13494
1002.91137	0.13536
1000.98269	0.13569
999.05402	0.13589
997.12534	0.13604
995.19667	0.13616
993.26799	0.13624
991.33932	0.13636
989.41064	0.13654
987.48196	0.13663
985.55329	0.13660
983.62461	0.13656
981.69594	0.13650
979.76726	0.13638
977.83859	0.13621
975.90991	0.13599
973.98123	0.13580
972.05256	0.13568
970.12388	0.13561
968.19521	0.13553
966.26653	0.13543
964.33786	0.13533
962.40918	0.13519
960.48050	0.13499
958.55183	0.13477
956.62315	0.13459
954.69448	0.13443
952.76580	0.13423
950.83713	0.13402
948.90845	0.13387
946.97977	0.13373
945.05110	0.13355
943.12242	0.13336
941.19375	0.13309
939.26507	0.13271
937.33640	0.13234
935.40772	0.13197
933.47904	0.13149
931.55037	0.13096
929.62169	0.13046
927.69302	0.12997
925.76434	0.12949
923.83567	0.12899
921.90699	0.12847
919.97831	0.12792
918.04964	0.12731
916.12096	0.12661
914.19229	0.12583
912.26361	0.12503
910.33494	0.12434
908.40626	0.12377
906.47758	0.12327
904.54891	0.12279
902.62023	0.12221
900.69156	0.12151
898.76288	0.12088
896.83421	0.12040
894.90553	0.12002
892.97685	0.11963
891.04818	0.11918
889.11950	0.11869
887.19083	0.11825
885.26215	0.11790
883.33348	0.11761
881.40480	0.11727
879.47612	0.11693
877.54745	0.11665
875.61877	0.11645
873.69010	0.11629
871.76142	0.11614
869.83275	0.11597
867.90407	0.11575
865.97539	0.11552
864.04672	0.11535
862.11804	0.11526
860.18937	0.11520
858.26069	0.11516
856.33202	0.11514
854.40334	0.11505
852.47466	0.11477
850.54599	0.11439
848.61731	0.11403
846.68864	0.11371
844.75996	0.11341
842.83129	0.11313
840.90261	0.11287
838.97394	0.11256
837.04526	0.11211
835.11658	0.11154
833.18791	0.11085
831.25923	0.10999
829.33056	0.10893
827.40188	0.10784
825.47321	0.10691
823.54453	0.10613
821.61585	0.10536
819.68718	0.10467
817.75850	0.10418
815.82983	0.10381
813.90115	0.10348
811.97248	0.10320
810.04380	0.10293
808.11512	0.10270
806.18645	0.10254
804.25777	0.10247
802.32910	0.10240
800.40042	0.10218
798.47175	0.10171
796.54307	0.10114
794.61439	0.10067
792.68572	0.10027
790.75704	0.09991
788.82837	0.09964
786.89969	0.09943
784.97102	0.09920
783.04234	0.09890
781.11366	0.09859
779.18499	0.09834
777.25631	0.09811
775.32764	0.09784
773.39896	0.09756
771.47029	0.09729
769.54161	0.09699
767.61293	0.09660
765.68426	0.09616
763.75558	0.09575
761.82691	0.09534
759.89823	0.09482
757.96956	0.09426
756.04088	0.09378
754.11220	0.09332
752.18353	0.09276
750.25485	0.09213
748.32618	0.09143
746.39750	0.09067
744.46883	0.08983
742.54015	0.08895
740.61147	0.08818
738.68280	0.08768
736.75412	0.08745
734.82545	0.08737
732.89677	0.08735
730.96810	0.08739
729.03942	0.08750
727.11074	0.08761
725.18207	0.08765
723.25339	0.08771
721.32472	0.08791
719.39604	0.08820
717.46737	0.08851
715.53869	0.08888
713.61001	0.08936
711.68134	0.08977
709.75266	0.08996
707.82399	0.08999
705.89531	0.08993
703.96664	0.08980
702.03796	0.08957
700.10928	0.08922
698.18061	0.08873
696.25193	0.08813
694.32326	0.08756
692.39458	0.08701
690.46591	0.08644
688.53723	0.08592
686.60855	0.08547
684.67988	0.08503
682.75120	0.08457
680.82253	0.08413
678.89385	0.08361
676.96518	0.08298
675.03650	0.08230
673.10782	0.08160
671.17915	0.08082
669.25047	0.08000
667.32180	0.07931
665.39312	0.07876
663.46445	0.07805
661.53577	0.07715
659.60709	0.07626
657.67842	0.07548
655.74974	0.07476
653.82107	0.07412
651.89239	0.07346
649.96372	0.07270
648.03504	0.07184
646.10636	0.07096
644.17769	0.07010
642.24901	0.06921
640.32034	0.06826
638.39166	0.06727
636.46299	0.06626
634.53431	0.06517
632.60563	0.06386
630.67696	0.06176
628.74828	0.05845
626.81961	0.05429
624.89093	0.05007
622.96226	0.04671
621.03358	0.04461
619.10490	0.04346
617.17623	0.04274
615.24755	0.04204
613.31888	0.04112
611.39020	0.04016
609.46153	0.03962
607.53285	0.03964
605.60417	0.03997
603.67550	0.04044
601.74682	0.04115
599.81815	0.04207
597.88947	0.04292
595.96080	0.04353
594.03212	0.04393
592.10344	0.04412
590.17477	0.04423
588.24609	0.04431
586.31742	0.04426
584.38874	0.04404
582.46007	0.04370
580.53139	0.04332
578.60271	0.04293
576.67404	0.04242
574.74536	0.04181
572.81669	0.04128
570.88801	0.04081
568.95934	0.04026
567.03066	0.03969
565.10198	0.03928
563.17331	0.03909
561.24463	0.03904
559.31596	0.03894
557.38728	0.03863
555.45861	0.03824
553.52993	0.03795
551.60125	0.03773
549.67258	0.03751
547.74390	0.03734
545.81523	0.03723
543.88655	0.03714
541.95788	0.03706
540.02920	0.03698
538.10052	0.03686
536.17185	0.03664
534.24317	0.03638
532.31450	0.03616
530.38582	0.03595
528.45715	0.03567
526.52847	0.03537
524.59979	0.03514
522.67112	0.03489
520.74244	0.03452
518.81377	0.03399
516.88509	0.03334
514.95642	0.03277
513.02774	0.03245
511.09906	0.03229
509.17039	0.03210
507.24171	0.03187
505.31304	0.03163
503.38436	0.03134
501.45569	0.03095
499.52701	0.03050
497.59833	0.03004
495.66966	0.02957
493.74098	0.02899
491.81231	0.02830
489.88363	0.02766
487.95496	0.02710
486.02628	0.02655
484.09760	0.02597
482.16893	0.02544
480.24025	0.02497
478.31158	0.02452
476.38290	0.02412
474.45423	0.02376
472.52555	0.02333
470.59687	0.02286
468.66820	0.02238
466.73952	0.02195
464.81085	0.02165
462.88217	0.02146
460.95350	0.02132
459.02482	0.02120
457.09614	0.02110
455.16747	0.02106
453.23879	0.02112
451.31012	0.02122
449.38144	0.02124
447.45277	0.02114
445.52409	0.02098
443.59541	0.02074
441.66674	0.02034
439.73806	0.01993
437.80939	0.01959
435.88071	0.01922
433.95204	0.01884
432.02336	0.01841
430.09468	0.01782
428.16601	0.01709
426.23733	0.01631
424.30866	0.01560
422.37998	0.01503
420.45131	0.01451
418.52263	0.01396
416.59395	0.01337
414.66528	0.01280
412.73660	0.01228
410.80793	0.01178
408.87925	0.01121
406.95058	0.01062
405.02190	0.01013
403.09322	0.00968
401.16455	0.00909
399.23587	0.00833
397.30720	0.00762
395.37852	0.00710
393.44985	0.00675
391.52117	0.00642
389.59249	0.00601
387.66382	0.00557
385.73514	0.00520
383.80647	0.00490
381.87779	0.00466
379.94912	0.00443
378.02044	0.00405
376.09176	0.00352
374.16309	0.00306
372.23441	0.00283
370.30574	0.00268
368.37706	0.00240
