7496.76250	0.00112
7494.83382	0.00113
7492.90514	0.00114
7490.97647	0.00114
7489.04779	0.00114
7487.11912	0.00115
7485.19044	0.00115
7483.26177	0.00116
7481.33309	0.00116
7479.40441	0.00117
7477.47574	0.00118
7475.54706	0.00119
7473.61839	0.00118
7471.68971	0.00117
7469.76104	0.00116
7467.83236	0.00116
7465.90368	0.00117
7463.97501	0.00118
7462.04633	0.00119
7460.11766	0.00120
7458.18898	0.00122
7456.26031	0.00122
7454.33163	0.00122
7452.40295	0.00122
7450.47428	0.00123
7448.54560	0.00123
7446.61693	0.00123
7444.68825	0.00123
7442.75958	0.00123
7440.83090	0.00122
7438.90222	0.00123
7436.97355	0.00123
7435.04487	0.00124
7433.11620	0.00125
7431.18752	0.00125
7429.25885	0.00125
7427.33017	0.00125
7425.40149	0.00124
7423.47282	0.00125
7421.54414	0.00125
7419.61547	0.00126
7417.68679	0.00128
7415.75812	0.00130
7413.82944	0.00131
7411.90076	0.00131
7409.97209	0.00129
7408.04341	0.00128
7406.11474	0.00128
7404.18606	0.00128
7402.25739	0.00128
7400.32871	0.00128
7398.40003	0.00128
7396.47136	0.00130
7394.54268	0.00131
7392.61401	0.00131
7390.68533	0.00130
7388.75666	0.00131
7386.82798	0.00131
7384.89930	0.00132
7382.97063	0.00134
7381.04195	0.00134
7379.11328	0.00135
7377.18460	0.00135
7375.25593	0.00135
7373.32725	0.00135
7371.39857	0.00135
7369.46990	0.00134
7367.54122	0.00134
7365.61255	0.00134
7363.68387	0.00135
7361.75520	0.00136
7359.82652	0.00137
7357.89784	0.00136
7355.96917	0.00137
7354.04049	0.00138
7352.11182	0.00139
7350.18314	0.00139
7348.25447	0.00140
7346.32579	0.00141
7344.39711	0.00140
7342.46844	0.00139
7340.53976	0.00139
7338.61109	0.00141
7336.68241	0.00142
7334.75374	0.00141
7332.82506	0.00140
7330.89638	0.00140
7328.96771	0.00142
7327.03903	0.00144
7325.11036	0.00145
7323.18168	0.00144
7321.25301	0.00143
7319.32433	0.00143
7317.39565	0.00143
7315.46698	0.00145
7313.53830	0.00146
7311.60963	0.00147
7309.68095	0.00148
7307.75228	0.00148
7305.82360	0.00148
7303.89492	0.00146
7301.96625	0.00145
7300.03757	0.00146
7298.10890	0.00146
7296.18022	0.00147
7294.25155	0.00148
7292.32287	0.00150
7290.39419	0.00151
7288.46552	0.00151
7286.53684	0.00151
7284.60817	0.00151
7282.67949	0.00151
7280.75082	0.00150
7278.82214	0.00150
7276.89346	0.00150
7274.96479	0.00151
7273.03611	0.00152
7271.10744	0.00154
7269.17876	0.00155
7267.25009	0.00153
7265.32141	0.00152
7263.39273	0.00153
7261.46406	0.00155
7259.53538	0.00156
7257.60671	0.00156
7255.67803	0.00156
7253.74936	0.00156
7251.82068	0.00157
7249.89200	0.00156
7247.96333	0.00155
7246.03465	0.00154
7244.10598	0.00155
7242.17730	0.00157
7240.24863	0.00158
7238.31995	0.00158
7236.39127	0.00158
7234.46260	0.00158
7232.53392	0.00160
7230.60525	0.00161
7228.67657	0.00161
7226.74790	0.00160
7224.81922	0.00160
7222.89054	0.00161
7220.96187	0.00161
7219.03319	0.00161
7217.10452	0.00161
7215.17584	0.00161
7213.24717	0.00163
7211.31849	0.00165
7209.38981	0.00167
7207.46114	0.00167
7205.53246	0.00167
7203.60379	0.00166
7201.67511	0.00165
7199.74644	0.00164
7197.81776	0.00165
7195.88908	0.00166
7193.96041	0.00166
7192.03173	0.00166
7190.10306	0.00167
7188.17438	0.00169
7186.24571	0.00169
7184.31703	0.00168
7182.38835	0.00168
7180.45968	0.00168
7178.53100	0.00169
7176.60233	0.00169
7174.67365	0.00170
7172.74498	0.00170
7170.81630	0.00170
7168.88762	0.00171
7166.95895	0.00171
7165.03027	0.00172
7163.10160	0.00173
7161.17292	0.00174
7159.24425	0.00175
7157.31557	0.00176
7155.38689	0.00176
7153.45822	0.00175
7151.52954	0.00176
7149.60087	0.00177
7147.67219	0.00178
7145.74352	0.00177
7143.81484	0.00177
7141.88616	0.00177
7139.95749	0.00177
7138.02881	0.00176
7136.10014	0.00177
7134.17146	0.00178
7132.24279	0.00179
7130.31411	0.00180
7128.38543	0.00180
7126.45676	0.00180
7124.52808	0.00180
7122.59941	0.00181
7120.67073	0.00182
7118.74206	0.00181
7116.81338	0.00181
7114.88470	0.00182
7112.95603	0.00184
7111.02735	0.00184
7109.09868	0.00183
7107.17000	0.00183
7105.24133	0.00185
7103.31265	0.00188
7101.38397	0.00189
7099.45530	0.00189
7097.52662	0.00188
7095.59795	0.00188
7093.66927	0.00187
7091.74060	0.00186
7089.81192	0.00186
7087.88324	0.00186
7085.95457	0.00187
7084.02589	0.00188
7082.09722	0.00190
7080.16854	0.00191
7078.23987	0.00191
7076.31119	0.00190
7074.38251	0.00191
7072.45384	0.00193
7070.52516	0.00194
7068.59649	0.00194
7066.66781	0.00195
7064.73914	0.00195
7062.81046	0.00196
7060.88178	0.00196
7058.95311	0.00195
7057.02443	0.00195
7055.09576	0.00197
7053.16708	0.00198
7051.23841	0.00199
7049.30973	0.00200
7047.38105	0.00200
7045.45238	0.00199
7043.52370	0.00200
7041.59503	0.00201
7039.66635	0.00202
7037.73768	0.00201
7035.80900	0.00200
7033.88032	0.00199
7031.95165	0.00200
7030.02297	0.00202
7028.09430	0.00203
7026.16562	0.00203
7024.23695	0.00203
7022.30827	0.00204
7020.37959	0.00204
7018.45092	0.00205
7016.52224	0.00206
7014.59357	0.00205
7012.66489	0.00205
7010.73622	0.00205
7008.80754	0.00206
7006.87886	0.00207
7004.95019	0.00208
7003.02151	0.00207
7001.09284	0.00208
6999.16416	0.00208
6997.23549	0.00209
6995.30681	0.00210
6993.37813	0.00210
6991.44946	0.00209
6989.52078	0.00208
6987.59211	0.00209
6985.66343	0.00211
6983.73476	0.00212
6981.80608	0.00212
6979.87740	0.00212
6977.94873	0.00212
6976.02005	0.00212
6974.09138	0.00213
6972.16270	0.00215
6970.23403	0.00216
6968.30535	0.00217
6966.37667	0.00217
6964.44800	0.00217
6962.51932	0.00217
6960.59065	0.00219
6958.66197	0.00219
6956.73330	0.00219
6954.80462	0.00220
6952.87594	0.00220
6950.94727	0.00220
6949.01859	0.00219
6947.08992	0.00219
6945.16124	0.00220
6943.23257	0.00223
6941.30389	0.00225
6939.37521	0.00225
6937.44654	0.00225
6935.51786	0.00225
6933.58919	0.00225
6931.66051	0.00226
6929.73184	0.00227
6927.80316	0.00226
6925.87448	0.00225
6923.94581	0.00225
6922.01713	0.00225
6920.08846	0.00226
6918.15978	0.00225
6916.23111	0.00227
6914.30243	0.00229
6912.37375	0.00230
6910.44508	0.00231
6908.51640	0.00231
6906.58773	0.00231
6904.65905	0.00232
6902.73038	0.00233
6900.80170	0.00234
6898.87302	0.00235
6896.94435	0.00235
6895.01567	0.00234
6893.08700	0.00233
6891.15832	0.00234
6889.22965	0.00236
6887.30097	0.00237
6885.37229	0.00236
6883.44362	0.00236
6881.51494	0.00238
6879.58627	0.00240
6877.65759	0.00239
6875.72892	0.00237
6873.80024	0.00237
6871.87156	0.00239
6869.94289	0.00241
6868.01421	0.00241
6866.08554	0.00241
6864.15686	0.00242
6862.22819	0.00243
6860.29951	0.00243
6858.37083	0.00243
6856.44216	0.00243
6854.51348	0.00243
6852.58481	0.00243
6850.65613	0.00244
6848.72746	0.00245
6846.79878	0.00245
6844.87010	0.00246
6842.94143	0.00246
6841.01275	0.00245
6839.08408	0.00246
6837.15540	0.00248
6835.22673	0.00248
6833.29805	0.00248
6831.36937	0.00248
6829.44070	0.00249
6827.51202	0.00250
6825.58335	0.00251
6823.65467	0.00252
6821.72600	0.00253
6819.79732	0.00254
6817.86864	0.00255
6815.93997	0.00256
6814.01129	0.00257
6812.08262	0.00258
6810.15394	0.00257
6808.22527	0.00256
6806.29659	0.00256
6804.36791	0.00257
6802.43924	0.00257
6800.51056	0.00257
6798.58189	0.00257
6796.65321	0.00257
6794.72454	0.00258
6792.79586	0.00258
6790.86718	0.00259
6788.93851	0.00260
6787.00983	0.00262
6785.08116	0.00264
6783.15248	0.00264
6781.22381	0.00265
6779.29513	0.00264
6777.36645	0.00264
6775.43778	0.00263
6773.50910	0.00264
6771.58043	0.00265
6769.65175	0.00266
6767.72308	0.00267
6765.79440	0.00269
6763.86572	0.00269
6761.93705	0.00269
6760.00837	0.00269
6758.07970	0.00270
6756.15102	0.00270
6754.22235	0.00271
6752.29367	0.00271
6750.36499	0.00272
6748.43632	0.00273
6746.50764	0.00274
6744.57897	0.00275
6742.65029	0.00276
6740.72162	0.00277
6738.79294	0.00277
6736.86426	0.00276
6734.93559	0.00276
6733.00691	0.00278
6731.07824	0.00279
6729.14956	0.00280
6727.22089	0.00280
6725.29221	0.00281
6723.36353	0.00282
6721.43486	0.00283
6719.50618	0.00284
6717.57751	0.00285
6715.64883	0.00285
6713.72016	0.00284
6711.79148	0.00284
6709.86280	0.00285
6707.93413	0.00286
6706.00545	0.00287
6704.07678	0.00288
6702.14810	0.00288
6700.21943	0.00289
6698.29075	0.00290
6696.36207	0.00290
6694.43340	0.00290
6692.50472	0.00291
6690.57605	0.00290
6688.64737	0.00290
6686.71870	0.00290
6684.79002	0.00291
6682.86134	0.00292
6680.93267	0.00293
6679.00399	0.00295
6677.07532	0.00297
6675.14664	0.00298
6673.21797	0.00298
6671.28929	0.00297
6669.36061	0.00296
6667.43194	0.00297
6665.50326	0.00298
6663.57459	0.00299
6661.64591	0.00299
6659.71724	0.00299
6657.78856	0.00300
6655.85988	0.00301
6653.93121	0.00302
6652.00253	0.00303
6650.07386	0.00304
6648.14518	0.00304
6646.21651	0.00304
6644.28783	0.00304
6642.35915	0.00304
6640.43048	0.00305
6638.50180	0.00306
6636.57313	0.00306
6634.64445	0.00308
6632.71578	0.00309
6630.78710	0.00309
6628.85842	0.00308
6626.92975	0.00309
6625.00107	0.00311
6623.07240	0.00313
6621.14372	0.00314
6619.21505	0.00316
6617.28637	0.00316
6615.35769	0.00315
6613.42902	0.00315
6611.50034	0.00316
6609.57167	0.00317
6607.64299	0.00317
6605.71432	0.00317
6603.78564	0.00317
6601.85696	0.00318
6599.92829	0.00319
6597.99961	0.00321
6596.07094	0.00322
6594.14226	0.00323
6592.21359	0.00323
6590.28491	0.00324
6588.35623	0.00324
6586.42756	0.00323
6584.49888	0.00324
6582.57021	0.00326
6580.64153	0.00328
6578.71286	0.00330
6576.78418	0.00331
6574.85550	0.00331
6572.92683	0.00331
6570.99815	0.00331
6569.06948	0.00333
6567.14080	0.00334
6565.21213	0.00333
6563.28345	0.00332
6561.35477	0.00333
6559.42610	0.00334
6557.49742	0.00335
6555.56875	0.00337
6553.64007	0.00337
6551.71140	0.00337
6549.78272	0.00338
6547.85404	0.00339
6545.92537	0.00340
6543.99669	0.00340
6542.06802	0.00340
6540.13934	0.00340
6538.21067	0.00341
6536.28199	0.00342
6534.35331	0.00345
6532.42464	0.00346
6530.49596	0.00346
6528.56729	0.00345
6526.63861	0.00345
6524.70994	0.00346
6522.78126	0.00348
6520.85258	0.00350
6518.92391	0.00350
6516.99523	0.00350
6515.06656	0.00352
6513.13788	0.00355
6511.20921	0.00356
6509.28053	0.00355
6507.35185	0.00354
6505.42318	0.00354
6503.49450	0.00355
6501.56583	0.00357
6499.63715	0.00358
6497.70848	0.00358
6495.77980	0.00358
6493.85112	0.00359
6491.92245	0.00359
6489.99377	0.00358
6488.06510	0.00359
6486.13642	0.00362
6484.20775	0.00364
6482.27907	0.00365
6480.35039	0.00365
6478.42172	0.00364
6476.49304	0.00364
6474.56437	0.00366
6472.63569	0.00370
6470.70702	0.00370
6468.77834	0.00369
6466.84966	0.00369
6464.92099	0.00371
6462.99231	0.00371
6461.06364	0.00371
6459.13496	0.00371
6457.20629	0.00373
6455.27761	0.00375
6453.34893	0.00375
6451.42026	0.00375
6449.49158	0.00375
6447.56291	0.00376
6445.63423	0.00379
6443.70556	0.00380
6441.77688	0.00381
6439.84820	0.00380
6437.91953	0.00380
6435.99085	0.00381
6434.06218	0.00383
6432.13350	0.00386
6430.20483	0.00387
6428.27615	0.00386
6426.34747	0.00386
6424.41880	0.00388
6422.49012	0.00389
6420.56145	0.00390
6418.63277	0.00390
6416.70410	0.00390
6414.77542	0.00390
6412.84674	0.00392
6410.91807	0.00393
6408.98939	0.00393
6407.06072	0.00392
6405.13204	0.00393
6403.20337	0.00394
6401.27469	0.00395
6399.34601	0.00396
6397.41734	0.00398
6395.48866	0.00398
6393.55999	0.00399
6391.63131	0.00399
6389.70264	0.00399
6387.77396	0.00401
6385.84528	0.00403
6383.91661	0.00404
6381.98793	0.00405
6380.05926	0.00407
6378.13058	0.00407
6376.20191	0.00407
6374.27323	0.00407
6372.34455	0.00408
6370.41588	0.00410
6368.48720	0.00411
6366.55853	0.00411
6364.62985	0.00411
6362.70118	0.00412
6360.77250	0.00413
6358.84382	0.00415
6356.91515	0.00416
6354.98647	0.00417
6353.05780	0.00417
6351.12912	0.00418
6349.20045	0.00419
6347.27177	0.00418
6345.34309	0.00417
6343.41442	0.00418
6341.48574	0.00419
6339.55707	0.00420
6337.62839	0.00423
6335.69972	0.00425
6333.77104	0.00426
6331.84236	0.00426
6329.91369	0.00426
6327.98501	0.00427
6326.05634	0.00429
6324.12766	0.00432
6322.19899	0.00433
6320.27031	0.00433
6318.34163	0.00432
6316.41296	0.00434
6314.48428	0.00434
6312.55561	0.00434
6310.62693	0.00436
6308.69826	0.00439
6306.76958	0.00439
6304.84090	0.00439
6302.91223	0.00439
6300.98355	0.00441
6299.05488	0.00442
6297.12620	0.00443
6295.19753	0.00442
6293.26885	0.00443
6291.34017	0.00444
6289.41150	0.00446
6287.48282	0.00447
6285.55415	0.00449
6283.62547	0.00451
6281.69680	0.00453
6279.76812	0.00454
6277.83944	0.00453
6275.91077	0.00453
6273.98209	0.00454
6272.05342	0.00456
6270.12474	0.00458
6268.19607	0.00458
6266.26739	0.00459
6264.33871	0.00459
6262.41004	0.00459
6260.48136	0.00459
6258.55269	0.00460
6256.62401	0.00460
6254.69534	0.00461
6252.76666	0.00463
6250.83798	0.00465
6248.90931	0.00465
6246.98063	0.00464
6245.05196	0.00465
6243.12328	0.00467
6241.19461	0.00468
6239.26593	0.00468
6237.33725	0.00470
6235.40858	0.00472
6233.47990	0.00473
6231.55123	0.00473
6229.62255	0.00474
6227.69388	0.00476
6225.76520	0.00478
6223.83652	0.00480
6221.90785	0.00482
6219.97917	0.00484
6218.05050	0.00485
6216.12182	0.00483
6214.19315	0.00482
6212.26447	0.00483
6210.33579	0.00485
6208.40712	0.00487
6206.47844	0.00489
6204.54977	0.00491
6202.62109	0.00492
6200.69242	0.00493
6198.76374	0.00494
6196.83506	0.00495
6194.90639	0.00494
6192.97771	0.00495
6191.04904	0.00496
6189.12036	0.00498
6187.19169	0.00499
6185.26301	0.00500
6183.33433	0.00501
6181.40566	0.00502
6179.47698	0.00502
6177.54831	0.00503
6175.61963	0.00504
6173.69096	0.00506
6171.76228	0.00508
6169.83360	0.00509
6167.90493	0.00510
6165.97625	0.00510
6164.04758	0.00512
6162.11890	0.00512
6160.19023	0.00513
6158.26155	0.00514
6156.33287	0.00516
6154.40420	0.00517
6152.47552	0.00517
6150.54685	0.00519
6148.61817	0.00521
6146.68950	0.00522
6144.76082	0.00521
6142.83214	0.00520
6140.90347	0.00522
6138.97479	0.00525
6137.04612	0.00528
6135.11744	0.00529
6133.18877	0.00530
6131.26009	0.00531
6129.33141	0.00530
6127.40274	0.00530
6125.47406	0.00531
6123.54539	0.00533
6121.61671	0.00535
6119.68804	0.00537
6117.75936	0.00537
6115.83068	0.00537
6113.90201	0.00537
6111.97333	0.00539
6110.04466	0.00541
6108.11598	0.00542
6106.18731	0.00542
6104.25863	0.00542
6102.32995	0.00544
6100.40128	0.00547
6098.47260	0.00550
6096.54393	0.00553
6094.61525	0.00554
6092.68658	0.00553
6090.75790	0.00553
6088.82922	0.00553
6086.90055	0.00554
6084.97187	0.00555
6083.04320	0.00555
6081.11452	0.00556
6079.18585	0.00559
6077.25717	0.00562
6075.32849	0.00562
6073.39982	0.00563
6071.47114	0.00566
6069.54247	0.00568
6067.61379	0.00568
6065.68512	0.00568
6063.75644	0.00568
6061.82776	0.00570
6059.89909	0.00571
6057.97041	0.00573
6056.04174	0.00574
6054.11306	0.00574
6052.18439	0.00574
6050.25571	0.00577
6048.32703	0.00578
6046.39836	0.00577
6044.46968	0.00579
6042.54101	0.00581
6040.61233	0.00581
6038.68366	0.00582
6036.75498	0.00584
6034.82630	0.00586
6032.89763	0.00589
6030.96895	0.00591
6029.04028	0.00592
6027.11160	0.00592
6025.18293	0.00593
6023.25425	0.00594
6021.32557	0.00596
6019.39690	0.00598
6017.46822	0.00599
6015.53955	0.00600
6013.61087	0.00601
6011.68220	0.00603
6009.75352	0.00605
6007.82484	0.00606
6005.89617	0.00606
6003.96749	0.00607
6002.03882	0.00609
6000.11014	0.00612
5998.18147	0.00613
5996.25279	0.00613
5994.32411	0.00613
5992.39544	0.00613
5990.46676	0.00614
5988.53809	0.00615
5986.60941	0.00617
5984.68074	0.00618
5982.75206	0.00620
5980.82338	0.00622
5978.89471	0.00622
5976.96603	0.00622
5975.03736	0.00623
5973.10868	0.00625
5971.18001	0.00625
5969.25133	0.00626
5967.32265	0.00629
5965.39398	0.00631
5963.46530	0.00632
5961.53663	0.00633
5959.60795	0.00634
5957.67928	0.00635
5955.75060	0.00639
5953.82192	0.00642
5951.89325	0.00644
5949.96457	0.00644
5948.03590	0.00643
5946.10722	0.00643
5944.17855	0.00643
5942.24987	0.00644
5940.32119	0.00646
5938.39252	0.00647
5936.46384	0.00648
5934.53517	0.00650
5932.60649	0.00652
5930.67782	0.00654
5928.74914	0.00655
5926.82046	0.00657
5924.89179	0.00658
5922.96311	0.00661
5921.03444	0.00663
5919.10576	0.00664
5917.17709	0.00665
5915.24841	0.00667
5913.31973	0.00671
5911.39106	0.00672
5909.46238	0.00672
5907.53371	0.00672
5905.60503	0.00673
5903.67636	0.00675
5901.74768	0.00676
5899.81900	0.00679
5897.89033	0.00681
5895.96165	0.00681
5894.03298	0.00681
5892.10430	0.00680
5890.17563	0.00682
5888.24695	0.00685
5886.31827	0.00687
5884.38960	0.00687
5882.46092	0.00687
5880.53225	0.00688
5878.60357	0.00692
5876.67490	0.00695
5874.74622	0.00696
5872.81755	0.00695
5870.88887	0.00695
5868.96019	0.00697
5867.03152	0.00700
5865.10284	0.00702
5863.17417	0.00703
5861.24549	0.00703
5859.31682	0.00704
5857.38814	0.00707
5855.45946	0.00709
5853.53079	0.00711
5851.60211	0.00711
5849.67344	0.00713
5847.74476	0.00716
5845.81609	0.00718
5843.88741	0.00720
5841.95873	0.00720
5840.03006	0.00720
5838.10138	0.00720
5836.17271	0.00721
5834.24403	0.00723
5832.31536	0.00725
5830.38668	0.00726
5828.45800	0.00728
5826.52933	0.00730
5824.60065	0.00732
5822.67198	0.00736
5820.74330	0.00738
5818.81463	0.00738
5816.88595	0.00739
5814.95727	0.00742
5813.02860	0.00745
5811.09992	0.00747
5809.17125	0.00746
5807.24257	0.00744
5805.31390	0.00745
5803.38522	0.00748
5801.45654	0.00750
5799.52787	0.00752
5797.59919	0.00754
5795.67052	0.00756
5793.74184	0.00757
5791.81317	0.00756
5789.88449	0.00755
5787.95581	0.00757
5786.02714	0.00761
5784.09846	0.00765
5782.16979	0.00767
5780.24111	0.00769
5778.31244	0.00769
5776.38376	0.00769
5774.45508	0.00770
5772.52641	0.00771
5770.59773	0.00773
5768.66906	0.00773
5766.74038	0.00774
5764.81171	0.00777
5762.88303	0.00780
5760.95435	0.00782
5759.02568	0.00784
5757.09700	0.00787
5755.16833	0.00787
5753.23965	0.00787
5751.31098	0.00788
5749.38230	0.00791
5747.45362	0.00793
5745.52495	0.00795
5743.59627	0.00798
5741.66760	0.00799
5739.73892	0.00799
5737.81025	0.00799
5735.88157	0.00801
5733.95289	0.00803
5732.02422	0.00805
5730.09554	0.00807
5728.16687	0.00809
5726.23819	0.00810
5724.30952	0.00813
5722.38084	0.00815
5720.45216	0.00817
5718.52349	0.00818
5716.59481	0.00819
5714.66614	0.00821
5712.73746	0.00825
5710.80879	0.00829
5708.88011	0.00830
5706.95143	0.00829
5705.02276	0.00827
5703.09408	0.00827
5701.16541	0.00830
5699.23673	0.00834
5697.30806	0.00837
5695.37938	0.00838
5693.45070	0.00838
5691.52203	0.00840
5689.59335	0.00842
5687.66468	0.00844
5685.73600	0.00847
5683.80733	0.00850
5681.87865	0.00852
5679.94997	0.00852
5678.02130	0.00853
5676.09262	0.00855
5674.16395	0.00856
5672.23527	0.00858
5670.30660	0.00859
5668.37792	0.00860
5666.44924	0.00863
5664.52057	0.00864
5662.59189	0.00864
5660.66322	0.00865
5658.73454	0.00867
5656.80587	0.00870
5654.87719	0.00871
5652.94851	0.00871
5651.01984	0.00872
5649.09116	0.00874
5647.16249	0.00877
5645.23381	0.00881
5643.30514	0.00885
5641.37646	0.00887
5639.44778	0.00888
5637.51911	0.00889
5635.59043	0.00889
5633.66176	0.00890
5631.73308	0.00892
5629.80441	0.00893
5627.87573	0.00894
5625.94705	0.00896
5624.01838	0.00900
5622.08970	0.00902
5620.16103	0.00903
5618.23235	0.00904
5616.30368	0.00906
5614.37500	0.00908
5612.44632	0.00910
5610.51765	0.00912
5608.58897	0.00915
5606.66030	0.00917
5604.73162	0.00919
5602.80295	0.00920
5600.87427	0.00920
5598.94559	0.00922
5597.01692	0.00924
5595.08824	0.00926
5593.15957	0.00929
5591.23089	0.00930
5589.30222	0.00931
5587.37354	0.00932
5585.44486	0.00934
5583.51619	0.00937
5581.58751	0.00938
5579.65884	0.00939
5577.73016	0.00941
5575.80149	0.00942
5573.87281	0.00945
5571.94413	0.00949
5570.01546	0.00951
5568.08678	0.00952
5566.15811	0.00953
5564.22943	0.00955
5562.30076	0.00958
5560.37208	0.00962
5558.44340	0.00964
5556.51473	0.00965
5554.58605	0.00967
5552.65738	0.00969
5550.72870	0.00970
5548.80003	0.00969
5546.87135	0.00970
5544.94267	0.00972
5543.01400	0.00975
5541.08532	0.00977
5539.15665	0.00978
5537.22797	0.00978
5535.29930	0.00979
5533.37062	0.00983
5531.44194	0.00987
5529.51327	0.00990
5527.58459	0.00994
5525.65592	0.00995
5523.72724	0.00994
5521.79857	0.00995
5519.86989	0.00996
5517.94121	0.00999
5516.01254	0.01003
5514.08386	0.01006
5512.15519	0.01006
5510.22651	0.01007
5508.29784	0.01010
5506.36916	0.01013
5504.44048	0.01016
5502.51181	0.01018
5500.58313	0.01018
5498.65446	0.01019
5496.72578	0.01021
5494.79711	0.01022
5492.86843	0.01023
5490.93975	0.01026
5489.01108	0.01031
5487.08240	0.01034
5485.15373	0.01035
5483.22505	0.01035
5481.29638	0.01036
5479.36770	0.01037
5477.43902	0.01040
5475.51035	0.01044
5473.58167	0.01046
5471.65300	0.01048
5469.72432	0.01049
5467.79565	0.01049
5465.86697	0.01050
5463.93829	0.01051
5462.00962	0.01051
5460.08094	0.01053
5458.15227	0.01056
5456.22359	0.01060
5454.29492	0.01063
5452.36624	0.01064
5450.43756	0.01064
5448.50889	0.01066
5446.58021	0.01070
5444.65154	0.01073
5442.72286	0.01074
5440.79419	0.01076
5438.86551	0.01079
5436.93683	0.01081
5435.00816	0.01081
5433.07948	0.01082
5431.15081	0.01085
5429.22213	0.01087
5427.29346	0.01089
5425.36478	0.01091
5423.43610	0.01092
5421.50743	0.01096
5419.57875	0.01100
5417.65008	0.01102
5415.72140	0.01103
5413.79273	0.01103
5411.86405	0.01103
5409.93537	0.01104
5408.00670	0.01106
5406.07802	0.01110
5404.14935	0.01114
5402.22067	0.01118
5400.29200	0.01122
5398.36332	0.01125
5396.43464	0.01125
5394.50597	0.01125
5392.57729	0.01129
5390.64862	0.01133
5388.71994	0.01134
5386.79127	0.01135
5384.86259	0.01136
5382.93391	0.01138
5381.00524	0.01142
5379.07656	0.01145
5377.14789	0.01148
5375.21921	0.01149
5373.29054	0.01150
5371.36186	0.01152
5369.43318	0.01152
5367.50451	0.01154
5365.57583	0.01156
5363.64716	0.01157
5361.71848	0.01158
5359.78981	0.01161
5357.86113	0.01163
5355.93245	0.01164
5354.00378	0.01165
5352.07510	0.01169
5350.14643	0.01173
5348.21775	0.01176
5346.28908	0.01176
5344.36040	0.01176
5342.43172	0.01178
5340.50305	0.01180
5338.57437	0.01182
5336.64570	0.01186
5334.71702	0.01190
5332.78835	0.01193
5330.85967	0.01195
5328.93099	0.01196
5327.00232	0.01199
5325.07364	0.01203
5323.14497	0.01204
5321.21629	0.01205
5319.28762	0.01208
5317.35894	0.01211
5315.43026	0.01211
5313.50159	0.01212
5311.57291	0.01215
5309.64424	0.01218
5307.71556	0.01221
5305.78689	0.01224
5303.85821	0.01223
5301.92953	0.01223
5300.00086	0.01226
5298.07218	0.01230
5296.14351	0.01232
5294.21483	0.01233
5292.28616	0.01234
5290.35748	0.01236
5288.42880	0.01239
5286.50013	0.01241
5284.57145	0.01243
5282.64278	0.01244
5280.71410	0.01247
5278.78543	0.01251
5276.85675	0.01256
5274.92807	0.01260
5272.99940	0.01262
5271.07072	0.01262
5269.14205	0.01263
5267.21337	0.01264
5265.28470	0.01266
5263.35602	0.01268
5261.42734	0.01271
5259.49867	0.01273
5257.56999	0.01274
5255.64132	0.01274
5253.71264	0.01277
5251.78397	0.01281
5249.85529	0.01283
5247.92661	0.01284
5245.99794	0.01288
5244.06926	0.01292
5242.14059	0.01295
5240.21191	0.01298
5238.28324	0.01301
5236.35456	0.01303
5234.42588	0.01305
5232.49721	0.01305
5230.56853	0.01305
5228.63986	0.01307
5226.71118	0.01309
5224.78251	0.01312
5222.85383	0.01314
5220.92515	0.01316
5218.99648	0.01320
5217.06780	0.01324
5215.13913	0.01327
5213.21045	0.01329
5211.28178	0.01331
5209.35310	0.01331
5207.42442	0.01332
5205.49575	0.01335
5203.56707	0.01338
5201.63840	0.01340
5199.70972	0.01341
5197.78105	0.01343
5195.85237	0.01346
5193.92369	0.01349
5191.99502	0.01351
5190.06634	0.01351
5188.13767	0.01353
5186.20899	0.01356
5184.28032	0.01359
5182.35164	0.01362
5180.42296	0.01366
5178.49429	0.01370
5176.56561	0.01373
5174.63694	0.01375
5172.70826	0.01376
5170.77959	0.01378
5168.85091	0.01381
5166.92223	0.01383
5164.99356	0.01383
5163.06488	0.01383
5161.13621	0.01386
5159.20753	0.01391
5157.27886	0.01394
5155.35018	0.01397
5153.42150	0.01401
5151.49283	0.01404
5149.56415	0.01406
5147.63548	0.01406
5145.70680	0.01407
5143.77813	0.01409
5141.84945	0.01410
5139.92077	0.01410
5137.99210	0.01412
5136.06342	0.01415
5134.13475	0.01418
5132.20607	0.01422
5130.27740	0.01428
5128.34872	0.01431
5126.42004	0.01434
5124.49137	0.01437
5122.56269	0.01438
5120.63402	0.01439
5118.70534	0.01441
5116.77667	0.01443
5114.84799	0.01446
5112.91931	0.01449
5110.99064	0.01452
5109.06196	0.01456
5107.13329	0.01459
5105.20461	0.01462
5103.27594	0.01465
5101.34726	0.01467
5099.41858	0.01468
5097.48991	0.01469
5095.56123	0.01470
5093.63256	0.01472
5091.70388	0.01474
5089.77521	0.01476
5087.84653	0.01479
5085.91785	0.01483
5083.98918	0.01488
5082.06050	0.01490
5080.13183	0.01491
5078.20315	0.01491
5076.27448	0.01493
5074.34580	0.01496
5072.41712	0.01500
5070.48845	0.01503
5068.55977	0.01505
5066.63110	0.01509
5064.70242	0.01511
5062.77375	0.01512
5060.84507	0.01515
5058.91639	0.01518
5056.98772	0.01520
5055.05904	0.01520
5053.13037	0.01522
5051.20169	0.01525
5049.27302	0.01529
5047.34434	0.01533
5045.41566	0.01536
5043.48699	0.01537
5041.55831	0.01539
5039.62964	0.01541
5037.70096	0.01543
5035.77229	0.01546
5033.84361	0.01552
5031.91493	0.01557
5029.98626	0.01559
5028.05758	0.01561
5026.12891	0.01563
5024.20023	0.01566
5022.27156	0.01568
5020.34288	0.01569
5018.41420	0.01570
5016.48553	0.01570
5014.55685	0.01571
5012.62818	0.01575
5010.69950	0.01579
5008.77083	0.01582
5006.84215	0.01585
5004.91347	0.01589
5002.98480	0.01592
5001.05612	0.01594
4999.12745	0.01596
4997.19877	0.01599
4995.27010	0.01602
4993.34142	0.01604
4991.41274	0.01606
4989.48407	0.01609
4987.55539	0.01610
4985.62672	0.01611
4983.69804	0.01612
4981.76937	0.01615
4979.84069	0.01619
4977.91201	0.01625
4975.98334	0.01631
4974.05466	0.01634
4972.12599	0.01636
4970.19731	0.01638
4968.26864	0.01637
4966.33996	0.01637
4964.41128	0.01641
4962.48261	0.01646
4960.55393	0.01648
4958.62526	0.01650
4956.69658	0.01654
4954.76791	0.01658
4952.83923	0.01660
4950.91055	0.01662
4948.98188	0.01662
4947.05320	0.01664
4945.12453	0.01666
4943.19585	0.01670
4941.26718	0.01673
4939.33850	0.01676
4937.40982	0.01681
4935.48115	0.01684
4933.55247	0.01684
4931.62380	0.01685
4929.69512	0.01688
4927.76645	0.01692
4925.83777	0.01694
4923.90909	0.01696
4921.98042	0.01699
4920.05174	0.01702
4918.12307	0.01706
4916.19439	0.01710
4914.26572	0.01713
4912.33704	0.01716
4910.40836	0.01718
4908.47969	0.01720
4906.55101	0.01722
4904.62234	0.01724
4902.69366	0.01727
4900.76499	0.01728
4898.83631	0.01729
4896.90763	0.01733
4894.97896	0.01736
4893.05028	0.01738
4891.12161	0.01741
4889.19293	0.01745
4887.26426	0.01747
4885.33558	0.01750
4883.40690	0.01754
4881.47823	0.01759
4879.54955	0.01763
4877.62088	0.01767
4875.69220	0.01769
4873.76353	0.01770
4871.83485	0.01771
4869.90617	0.01772
4867.97750	0.01775
4866.04882	0.01778
4864.12015	0.01783
4862.19147	0.01786
4860.26280	0.01787
4858.33412	0.01790
4856.40544	0.01794
4854.47677	0.01798
4852.54809	0.01802
4850.61942	0.01805
4848.69074	0.01807
4846.76207	0.01806
4844.83339	0.01807
4842.90471	0.01810
4840.97604	0.01815
4839.04736	0.01820
4837.11869	0.01825
4835.19001	0.01827
4833.26134	0.01828
4831.33266	0.01829
4829.40398	0.01832
4827.47531	0.01836
4825.54663	0.01841
4823.61796	0.01844
4821.68928	0.01847
4819.76061	0.01848
4817.83193	0.01847
4815.90325	0.01847
4813.97458	0.01849
4812.04590	0.01852
4810.11723	0.01856
4808.18855	0.01863
4806.25988	0.01869
4804.33120	0.01872
4802.40252	0.01875
4800.47385	0.01878
4798.54517	0.01880
4796.61650	0.01883
4794.68782	0.01886
4792.75915	0.01888
4790.83047	0.01891
4788.90179	0.01894
4786.97312	0.01897
4785.04444	0.01900
4783.11577	0.01903
4781.18709	0.01906
4779.25842	0.01910
4777.32974	0.01914
4775.40106	0.01916
4773.47239	0.01918
4771.54371	0.01920
4769.61504	0.01922
4767.68636	0.01924
4765.75769	0.01928
4763.82901	0.01932
4761.90033	0.01935
4759.97166	0.01940
4758.04298	0.01944
4756.11431	0.01945
4754.18563	0.01947
4752.25696	0.01951
4750.32828	0.01955
4748.39960	0.01957
4746.47093	0.01960
4744.54225	0.01963
4742.61358	0.01967
4740.68490	0.01972
4738.75623	0.01975
4736.82755	0.01977
4734.89887	0.01978
4732.97020	0.01981
4731.04152	0.01986
4729.11285	0.01989
4727.18417	0.01992
4725.25550	0.01997
4723.32682	0.02002
4721.39814	0.02005
4719.46947	0.02008
4717.54079	0.02010
4715.61212	0.02014
4713.68344	0.02016
4711.75477	0.02016
4709.82609	0.02018
4707.89741	0.02022
4705.96874	0.02027
4704.04006	0.02032
4702.11139	0.02035
4700.18271	0.02039
4698.25404	0.02043
4696.32536	0.02046
4694.39668	0.02047
4692.46801	0.02050
4690.53933	0.02054
4688.61066	0.02057
4686.68198	0.02059
4684.75331	0.02061
4682.82463	0.02064
4680.89595	0.02070
4678.96728	0.02074
4677.03860	0.02078
4675.10993	0.02082
4673.18125	0.02084
4671.25258	0.02084
4669.32390	0.02085
4667.39522	0.02089
4665.46655	0.02096
4663.53787	0.02100
4661.60920	0.02102
4659.68052	0.02105
4657.75185	0.02109
4655.82317	0.02114
4653.89449	0.02118
4651.96582	0.02120
4650.03714	0.02121
4648.10847	0.02123
4646.17979	0.02128
4644.25112	0.02133
4642.32244	0.02137
4640.39376	0.02140
4638.46509	0.02142
4636.53641	0.02147
4634.60774	0.02153
4632.67906	0.02155
4630.75039	0.02155
4628.82171	0.02159
4626.89303	0.02164
4624.96436	0.02169
4623.03568	0.02170
4621.10701	0.02172
4619.17833	0.02176
4617.24966	0.02179
4615.32098	0.02184
4613.39230	0.02191
4611.46363	0.02196
4609.53495	0.02199
4607.60628	0.02202
4605.67760	0.02205
4603.74893	0.02207
4601.82025	0.02210
4599.89157	0.02213
4597.96290	0.02216
4596.03422	0.02220
4594.10555	0.02224
4592.17687	0.02229
4590.24820	0.02233
4588.31952	0.02237
4586.39084	0.02243
4584.46217	0.02246
4582.53349	0.02247
4580.60482	0.02249
4578.67614	0.02251
4576.74747	0.02255
4574.81879	0.02262
4572.89011	0.02267
4570.96144	0.02271
4569.03276	0.02274
4567.10409	0.02277
4565.17541	0.02280
4563.24674	0.02283
4561.31806	0.02285
4559.38938	0.02289
4557.46071	0.02294
4555.53203	0.02297
4553.60336	0.02299
4551.67468	0.02303
4549.74601	0.02309
4547.81733	0.02316
4545.88865	0.02321
4543.95998	0.02327
4542.03130	0.02332
4540.10263	0.02336
4538.17395	0.02339
4536.24528	0.02342
4534.31660	0.02343
4532.38792	0.02344
4530.45925	0.02348
4528.53057	0.02352
4526.60190	0.02355
4524.67322	0.02359
4522.74455	0.02364
4520.81587	0.02369
4518.88719	0.02374
4516.95852	0.02377
4515.02984	0.02380
4513.10117	0.02383
4511.17249	0.02387
4509.24382	0.02392
4507.31514	0.02396
4505.38646	0.02399
4503.45779	0.02402
4501.52911	0.02406
4499.60044	0.02411
4497.67176	0.02417
4495.74309	0.02422
4493.81441	0.02426
4491.88573	0.02429
4489.95706	0.02431
4488.02838	0.02435
4486.09971	0.02440
4484.17103	0.02446
4482.24236	0.02451
4480.31368	0.02455
4478.38500	0.02459
4476.45633	0.02464
4474.52765	0.02469
4472.59898	0.02474
4470.67030	0.02477
4468.74163	0.02480
4466.81295	0.02484
4464.88427	0.02489
4462.95560	0.02495
4461.02692	0.02500
4459.09825	0.02503
4457.16957	0.02506
4455.24090	0.02510
4453.31222	0.02516
4451.38354	0.02522
4449.45487	0.02525
4447.52619	0.02528
4445.59752	0.02529
4443.66884	0.02532
4441.74017	0.02537
4439.81149	0.02543
4437.88281	0.02547
4435.95414	0.02551
4434.02546	0.02555
4432.09679	0.02559
4430.16811	0.02563
4428.23944	0.02569
4426.31076	0.02575
4424.38208	0.02580
4422.45341	0.02584
4420.52473	0.02586
4418.59606	0.02589
4416.66738	0.02594
4414.73871	0.02598
4412.81003	0.02602
4410.88135	0.02605
4408.95268	0.02609
4407.02400	0.02615
4405.09533	0.02620
4403.16665	0.02623
4401.23798	0.02627
4399.30930	0.02635
4397.38062	0.02643
4395.45195	0.02647
4393.52327	0.02650
4391.59460	0.02654
4389.66592	0.02659
4387.73725	0.02664
4385.80857	0.02669
4383.87989	0.02674
4381.95122	0.02679
4380.02254	0.02686
4378.09387	0.02690
4376.16519	0.02692
4374.23652	0.02694
4372.30784	0.02700
4370.37916	0.02708
4368.45049	0.02714
4366.52181	0.02718
4364.59314	0.02722
4362.66446	0.02727
4360.73579	0.02731
4358.80711	0.02735
4356.87843	0.02740
4354.94976	0.02746
4353.02108	0.02752
4351.09241	0.02758
4349.16373	0.02763
4347.23506	0.02768
4345.30638	0.02773
4343.37770	0.02778
4341.44903	0.02784
4339.52035	0.02787
4337.59168	0.02789
4335.66300	0.02792
4333.73433	0.02798
4331.80565	0.02803
4329.87697	0.02808
4327.94830	0.02813
4326.01962	0.02821
4324.09095	0.02829
4322.16227	0.02834
4320.23360	0.02838
4318.30492	0.02842
4316.37624	0.02848
4314.44757	0.02854
4312.51889	0.02859
4310.59022	0.02862
4308.66154	0.02865
4306.73287	0.02871
4304.80419	0.02880
4302.87551	0.02887
4300.94684	0.02890
4299.01816	0.02894
4297.08949	0.02898
4295.16081	0.02904
4293.23214	0.02912
4291.30346	0.02918
4289.37478	0.02920
4287.44611	0.02923
4285.51743	0.02928
4283.58876	0.02934
4281.66008	0.02940
4279.73141	0.02947
4277.80273	0.02953
4275.87405	0.02958
4273.94538	0.02963
4272.01670	0.02968
4270.08803	0.02973
4268.15935	0.02978
4266.23068	0.02983
4264.30200	0.02989
4262.37332	0.02994
4260.44465	0.02998
4258.51597	0.03003
4256.58730	0.03009
4254.65862	0.03015
4252.72995	0.03020
4250.80127	0.03025
4248.87259	0.03031
4246.94392	0.03038
4245.01524	0.03044
4243.08657	0.03047
4241.15789	0.03051
4239.22922	0.03056
4237.30054	0.03063
4235.37186	0.03070
4233.44319	0.03077
4231.51451	0.03083
4229.58584	0.03089
4227.65716	0.03094
4225.72849	0.03099
4223.79981	0.03104
4221.87113	0.03110
4219.94246	0.03116
4218.01378	0.03123
4216.08511	0.03131
4214.15643	0.03137
4212.22776	0.03140
4210.29908	0.03143
4208.37040	0.03149
4206.44173	0.03155
4204.51305	0.03161
4202.58438	0.03168
4200.65570	0.03174
4198.72703	0.03179
4196.79835	0.03184
4194.86968	0.03191
4192.94100	0.03199
4191.01232	0.03205
4189.08365	0.03209
4187.15497	0.03214
4185.22630	0.03220
4183.29762	0.03227
4181.36895	0.03234
4179.44027	0.03243
4177.51159	0.03249
4175.58292	0.03252
4173.65424	0.03256
4171.72557	0.03262
4169.79689	0.03268
4167.86822	0.03275
4165.93954	0.03284
4164.01086	0.03291
4162.08219	0.03294
4160.15351	0.03297
4158.22484	0.03303
4156.29616	0.03313
4154.36749	0.03322
4152.43881	0.03328
4150.51013	0.03332
4148.58146	0.03334
4146.65278	0.03340
4144.72411	0.03350
4142.79543	0.03360
4140.86676	0.03367
4138.93808	0.03372
4137.00940	0.03378
4135.08073	0.03383
4133.15205	0.03388
4131.22338	0.03393
4129.29470	0.03400
4127.36603	0.03406
4125.43735	0.03412
4123.50867	0.03419
4121.58000	0.03424
4119.65132	0.03431
4117.72265	0.03439
4115.79397	0.03446
4113.86530	0.03454
4111.93662	0.03460
4110.00794	0.03465
4108.07927	0.03472
4106.15059	0.03481
4104.22192	0.03488
4102.29324	0.03493
4100.36457	0.03498
4098.43589	0.03504
4096.50721	0.03509
4094.57854	0.03516
4092.64986	0.03526
4090.72119	0.03536
4088.79251	0.03542
4086.86384	0.03549
4084.93516	0.03555
4083.00648	0.03561
4081.07781	0.03568
4079.14913	0.03577
4077.22046	0.03585
4075.29178	0.03590
4073.36311	0.03593
4071.43443	0.03596
4069.50575	0.03600
4067.57708	0.03607
4065.64840	0.03615
4063.71973	0.03624
4061.79105	0.03633
4059.86238	0.03643
4057.93370	0.03649
4056.00502	0.03655
4054.07635	0.03664
4052.14767	0.03673
4050.21900	0.03679
4048.29032	0.03683
4046.36165	0.03688
4044.43297	0.03695
4042.50429	0.03702
4040.57562	0.03709
4038.64694	0.03716
4036.71827	0.03723
4034.78959	0.03731
4032.86092	0.03739
4030.93224	0.03749
4029.00356	0.03757
4027.07489	0.03762
4025.14621	0.03768
4023.21754	0.03775
4021.28886	0.03782
4019.36019	0.03788
4017.43151	0.03794
4015.50283	0.03801
4013.57416	0.03808
4011.64548	0.03814
4009.71681	0.03821
4007.78813	0.03829
4005.85946	0.03838
4003.93078	0.03847
4002.00210	0.03856
4000.07343	0.03863
3998.14475	0.03869
3996.21608	0.03873
3994.28740	0.03879
3992.35873	0.03888
3990.43005	0.03895
3988.50137	0.03901
3986.57270	0.03907
3984.64402	0.03913
3982.71535	0.03920
3980.78667	0.03928
3978.85800	0.03938
3976.92932	0.03948
3975.00064	0.03957
3973.07197	0.03964
3971.14329	0.03969
3969.21462	0.03975
3967.28594	0.03982
3965.35727	0.03990
3963.42859	0.03997
3961.49991	0.04004
3959.57124	0.04013
3957.64256	0.04021
3955.71389	0.04027
3953.78521	0.04032
3951.85654	0.04037
3949.92786	0.04044
3947.99918	0.04052
3946.07051	0.04060
3944.14183	0.04064
3942.21316	0.04072
3940.28448	0.04085
3938.35581	0.04097
3936.42713	0.04106
3934.49845	0.04110
3932.56978	0.04112
3930.64110	0.04119
3928.71243	0.04128
3926.78375	0.04134
3924.85508	0.04142
3922.92640	0.04153
3920.99772	0.04160
3919.06905	0.04164
3917.14037	0.04172
3915.21170	0.04185
3913.28302	0.04198
3911.35435	0.04206
3909.42567	0.04210
3907.49699	0.04208
3905.56832	0.04201
3903.63964	0.04199
3901.71097	0.04206
3899.78229	0.04220
3897.85362	0.04241
3895.92494	0.04262
3893.99626	0.04271
3892.06759	0.04273
3890.13891	0.04280
3888.21024	0.04285
3886.28156	0.04286
3884.35289	0.04294
3882.42421	0.04303
3880.49553	0.04311
3878.56686	0.04328
3876.63818	0.04343
3874.70951	0.04346
3872.78083	0.04346
3870.85216	0.04345
3868.92348	0.04351
3866.99480	0.04363
3865.06613	0.04374
3863.13745	0.04385
3861.20878	0.04399
3859.28010	0.04409
3857.35143	0.04404
3855.42275	0.04384
3853.49407	0.04382
3851.56540	0.04412
3849.63672	0.04448
3847.70805	0.04467
3845.77937	0.04472
3843.85070	0.04474
3841.92202	0.04476
3839.99334	0.04477
3838.06467	0.04482
3836.13599	0.04496
3834.20732	0.04511
3832.27864	0.04525
3830.34997	0.04537
3828.42129	0.04544
3826.49261	0.04549
3824.56394	0.04553
3822.63526	0.04550
3820.70659	0.04552
3818.77791	0.04565
3816.84924	0.04581
3814.92056	0.04601
3812.99188	0.04623
3811.06321	0.04633
3809.13453	0.04630
3807.20586	0.04630
3805.27718	0.04638
3803.34851	0.04642
3801.41983	0.04646
3799.49115	0.04661
3797.56248	0.04679
3795.63380	0.04694
3793.70513	0.04710
3791.77645	0.04724
3789.84778	0.04733
3787.91910	0.04739
3785.99042	0.04744
3784.06175	0.04752
3782.13307	0.04757
3780.20440	0.04762
3778.27572	0.04773
3776.34705	0.04790
3774.41837	0.04799
3772.48969	0.04799
3770.56102	0.04799
3768.63234	0.04807
3766.70367	0.04817
3764.77499	0.04828
3762.84632	0.04838
3760.91764	0.04844
3758.98896	0.04850
3757.06029	0.04861
3755.13161	0.04865
3753.20294	0.04857
3751.27426	0.04849
3749.34559	0.04858
3747.41691	0.04865
3745.48823	0.04860
3743.55956	0.04875
3741.63088	0.04910
3739.70221	0.04928
3737.77353	0.04920
3735.84486	0.04914
3733.91618	0.04929
3731.98750	0.04958
3730.05883	0.04984
3728.13015	0.04994
3726.20148	0.04995
3724.27280	0.05002
3722.34413	0.05015
3720.41545	0.05031
3718.48677	0.05049
3716.55810	0.05064
3714.62942	0.05064
3712.70075	0.05057
3710.77207	0.05061
3708.84340	0.05082
3706.91472	0.05105
3704.98604	0.05117
3703.05737	0.05117
3701.12869	0.05122
3699.20002	0.05137
3697.27134	0.05154
3695.34267	0.05163
3693.41399	0.05158
3691.48531	0.05149
3689.55664	0.05150
3687.62796	0.05167
3685.69929	0.05191
3683.77061	0.05211
3681.84194	0.05222
3679.91326	0.05222
3677.98458	0.05210
3676.05591	0.05201
3674.12723	0.05212
3672.19856	0.05229
3670.26988	0.05240
3668.34121	0.05261
3666.41253	0.05288
3664.48385	0.05307
3662.55518	0.05317
3660.62650	0.05321
3658.69783	0.05318
3656.76915	0.05315
3654.84048	0.05318
3652.91180	0.05314
3650.98312	0.05295
3649.05445	0.05284
3647.12577	0.05299
3645.19710	0.05333
3643.26842	0.05364
3641.33975	0.05382
3639.41107	0.05393
3637.48239	0.05402
3635.55372	0.05408
3633.62504	0.05407
3631.69637	0.05397
3629.76769	0.05388
3627.83902	0.05405
3625.91034	0.05436
3623.98166	0.05452
3622.05299	0.05448
3620.12431	0.05437
3618.19564	0.05439
3616.26696	0.05451
3614.33829	0.05457
3612.40961	0.05461
3610.48093	0.05467
3608.55226	0.05478
3606.62358	0.05497
3604.69491	0.05517
3602.76623	0.05526
3600.83756	0.05529
3598.90888	0.05533
3596.98020	0.05538
3595.05153	0.05543
3593.12285	0.05551
3591.19418	0.05553
3589.26550	0.05545
3587.33683	0.05546
3585.40815	0.05565
3583.47947	0.05586
3581.55080	0.05597
3579.62212	0.05604
3577.69345	0.05613
3575.76477	0.05625
3573.83610	0.05634
3571.90742	0.05637
3569.97874	0.05631
3568.05007	0.05623
3566.12139	0.05628
3564.19272	0.05645
3562.26404	0.05660
3560.33537	0.05671
3558.40669	0.05681
3556.47801	0.05689
3554.54934	0.05695
3552.62066	0.05704
3550.69199	0.05713
3548.76331	0.05716
3546.83464	0.05716
3544.90596	0.05723
3542.97728	0.05737
3541.04861	0.05747
3539.11993	0.05753
3537.19126	0.05756
3535.26258	0.05761
3533.33391	0.05767
3531.40523	0.05772
3529.47655	0.05776
3527.54788	0.05778
3525.61920	0.05782
3523.69053	0.05789
3521.76185	0.05796
3519.83318	0.05801
3517.90450	0.05805
3515.97582	0.05811
3514.04715	0.05814
3512.11847	0.05811
3510.18980	0.05810
3508.26112	0.05815
3506.33245	0.05822
3504.40377	0.05824
3502.47509	0.05826
3500.54642	0.05831
3498.61774	0.05837
3496.68907	0.05842
3494.76039	0.05845
3492.83172	0.05849
3490.90304	0.05852
3488.97436	0.05854
3487.04569	0.05856
3485.11701	0.05857
3483.18834	0.05859
3481.25966	0.05864
3479.33099	0.05873
3477.40231	0.05882
3475.47363	0.05891
3473.54496	0.05899
3471.61628	0.05907
3469.68761	0.05914
3467.75893	0.05922
3465.83026	0.05930
3463.90158	0.05941
3461.97290	0.05953
3460.04423	0.05963
3458.11555	0.05971
3456.18688	0.05981
3454.25820	0.05991
3452.32953	0.05997
3450.40085	0.06002
3448.47217	0.06008
3446.54350	0.06017
3444.61482	0.06027
3442.68615	0.06040
3440.75747	0.06053
3438.82880	0.06067
3436.90012	0.06081
3434.97144	0.06098
3433.04277	0.06117
3431.11409	0.06136
3429.18542	0.06153
3427.25674	0.06171
3425.32807	0.06189
3423.39939	0.06205
3421.47071	0.06221
3419.54204	0.06239
3417.61336	0.06255
3415.68469	0.06269
3413.75601	0.06284
3411.82734	0.06300
3409.89866	0.06315
3407.96998	0.06329
3406.04131	0.06341
3404.11263	0.06354
3402.18396	0.06366
3400.25528	0.06378
3398.32661	0.06391
3396.39793	0.06405
3394.46925	0.06419
3392.54058	0.06434
3390.61190	0.06450
3388.68323	0.06462
3386.75455	0.06471
3384.82588	0.06484
3382.89720	0.06501
3380.96852	0.06517
3379.03985	0.06528
3377.11117	0.06538
3375.18250	0.06549
3373.25382	0.06560
3371.32515	0.06575
3369.39647	0.06592
3367.46779	0.06604
3365.53912	0.06612
3363.61044	0.06621
3361.68177	0.06632
3359.75309	0.06645
3357.82442	0.06658
3355.89574	0.06671
3353.96706	0.06684
3352.03839	0.06694
3350.10971	0.06705
3348.18104	0.06717
3346.25236	0.06727
3344.32369	0.06736
3342.39501	0.06748
3340.46633	0.06762
3338.53766	0.06774
3336.60898	0.06786
3334.68031	0.06800
3332.75163	0.06813
3330.82296	0.06825
3328.89428	0.06837
3326.96560	0.06848
3325.03693	0.06861
3323.10825	0.06875
3321.17958	0.06888
3319.25090	0.06900
3317.32223	0.06914
3315.39355	0.06928
3313.46487	0.06940
3311.53620	0.06951
3309.60752	0.06964
3307.67885	0.06978
3305.75017	0.06991
3303.82150	0.07001
3301.89282	0.07013
3299.96414	0.07025
3298.03547	0.07037
3296.10679	0.07050
3294.17812	0.07064
3292.24944	0.07076
3290.32077	0.07089
3288.39209	0.07103
3286.46341	0.07116
3284.53474	0.07129
3282.60606	0.07142
3280.67739	0.07156
3278.74871	0.07168
3276.82004	0.07179
3274.89136	0.07191
3272.96268	0.07204
3271.03401	0.07220
3269.10533	0.07236
3267.17666	0.07248
3265.24798	0.07257
3263.31931	0.07268
3261.39063	0.07282
3259.46195	0.07296
3257.53328	0.07308
3255.60460	0.07319
3253.67593	0.07333
3251.74725	0.07349
3249.81858	0.07365
3247.88990	0.07380
3245.96122	0.07393
3244.03255	0.07406
3242.10387	0.07418
3240.17520	0.07429
3238.24652	0.07441
3236.31785	0.07454
3234.38917	0.07468
3232.46049	0.07481
3230.53182	0.07494
3228.60314	0.07507
3226.67447	0.07521
3224.74579	0.07535
3222.81712	0.07546
3220.88844	0.07555
3218.95976	0.07567
3217.03109	0.07582
3215.10241	0.07598
3213.17374	0.07613
3211.24506	0.07625
3209.31639	0.07636
3207.38771	0.07649
3205.45903	0.07663
3203.53036	0.07678
3201.60168	0.07694
3199.67301	0.07710
3197.74433	0.07725
3195.81566	0.07739
3193.88698	0.07750
3191.95830	0.07764
3190.02963	0.07779
3188.10095	0.07792
3186.17228	0.07803
3184.24360	0.07816
3182.31493	0.07831
3180.38625	0.07847
3178.45757	0.07863
3176.52890	0.07877
3174.60022	0.07891
3172.67155	0.07905
3170.74287	0.07918
3168.81420	0.07929
3166.88552	0.07942
3164.95684	0.07957
3163.02817	0.07972
3161.09949	0.07987
3159.17082	0.08000
3157.24214	0.08012
3155.31347	0.08026
3153.38479	0.08043
3151.45611	0.08059
3149.52744	0.08072
3147.59876	0.08083
3145.67009	0.08095
3143.74141	0.08111
3141.81274	0.08125
3139.88406	0.08137
3137.95538	0.08148
3136.02671	0.08161
3134.09803	0.08173
3132.16936	0.08187
3130.24068	0.08203
3128.31201	0.08219
3126.38333	0.08232
3124.45465	0.08243
3122.52598	0.08255
3120.59730	0.08268
3118.66863	0.08281
3116.73995	0.08293
3114.81128	0.08305
3112.88260	0.08321
3110.95392	0.08337
3109.02525	0.08352
3107.09657	0.08365
3105.16790	0.08377
3103.23922	0.08390
3101.31055	0.08405
3099.38187	0.08419
3097.45319	0.08434
3095.52452	0.08448
3093.59584	0.08461
3091.66717	0.08473
3089.73849	0.08485
3087.80982	0.08499
3085.88114	0.08512
3083.95246	0.08526
3082.02379	0.08540
3080.09511	0.08554
3078.16644	0.08567
3076.23776	0.08581
3074.30909	0.08595
3072.38041	0.08608
3070.45173	0.08619
3068.52306	0.08631
3066.59438	0.08642
3064.66571	0.08654
3062.73703	0.08670
3060.80836	0.08687
3058.87968	0.08703
3056.95100	0.08718
3055.02233	0.08731
3053.09365	0.08745
3051.16498	0.08758
3049.23630	0.08772
3047.30763	0.08787
3045.37895	0.08801
3043.45027	0.08813
3041.52160	0.08825
3039.59292	0.08837
3037.66425	0.08849
3035.73557	0.08863
3033.80690	0.08881
3031.87822	0.08895
3029.94954	0.08908
3028.02087	0.08922
3026.09219	0.08936
3024.16352	0.08947
3022.23484	0.08958
3020.30617	0.08971
3018.37749	0.08984
3016.44881	0.08999
3014.52014	0.09013
3012.59146	0.09027
3010.66279	0.09042
3008.73411	0.09056
3006.80544	0.09068
3004.87676	0.09081
3002.94808	0.09094
3001.01941	0.09105
2999.09073	0.09113
2997.16206	0.09124
2995.23338	0.09138
2993.30471	0.09154
2991.37603	0.09170
2989.44735	0.09183
2987.51868	0.09194
2985.59000	0.09204
2983.66133	0.09211
2981.73265	0.09217
2979.80398	0.09223
2977.87530	0.09230
2975.94662	0.09237
2974.01795	0.09240
2972.08927	0.09238
2970.16060	0.09236
2968.23192	0.09235
2966.30325	0.09235
2964.37457	0.09238
2962.44589	0.09246
2960.51722	0.09257
2958.58854	0.09272
2956.65987	0.09291
2954.73119	0.09314
2952.80252	0.09337
2950.87384	0.09351
2948.94516	0.09361
2947.01649	0.09375
2945.08781	0.09390
2943.15914	0.09398
2941.23046	0.09399
2939.30179	0.09399
2937.37311	0.09399
2935.44443	0.09401
2933.51576	0.09402
2931.58708	0.09399
2929.65841	0.09390
2927.72973	0.09380
2925.80106	0.09376
2923.87238	0.09382
2921.94370	0.09392
2920.01503	0.09401
2918.08635	0.09414
2916.15768	0.09439
2914.22900	0.09480
2912.30033	0.09528
2910.37165	0.09572
2908.44297	0.09605
2906.51430	0.09629
2904.58562	0.09650
2902.65695	0.09673
2900.72827	0.09697
2898.79960	0.09719
2896.87092	0.09738
2894.94224	0.09756
2893.01357	0.09772
2891.08489	0.09789
2889.15622	0.09806
2887.22754	0.09823
2885.29887	0.09840
2883.37019	0.09858
2881.44151	0.09874
2879.51284	0.09889
2877.58416	0.09900
2875.65549	0.09910
2873.72681	0.09923
2871.79814	0.09937
2869.86946	0.09952
2867.94078	0.09966
2866.01211	0.09975
2864.08343	0.09979
2862.15476	0.09987
2860.22608	0.09995
2858.29741	0.09997
2856.36873	0.09995
2854.44005	0.09995
2852.51138	0.09995
2850.58270	0.10003
2848.65403	0.10029
2846.72535	0.10072
2844.79668	0.10118
2842.86800	0.10156
2840.93932	0.10186
2839.01065	0.10212
2837.08197	0.10239
2835.15330	0.10262
2833.22462	0.10281
2831.29595	0.10298
2829.36727	0.10313
2827.43859	0.10324
2825.50992	0.10336
2823.58124	0.10352
2821.65257	0.10370
2819.72389	0.10389
2817.79522	0.10407
2815.86654	0.10425
2813.93786	0.10442
2812.00919	0.10456
2810.08051	0.10468
2808.15184	0.10480
2806.22316	0.10496
2804.29449	0.10513
2802.36581	0.10528
2800.43713	0.10542
2798.50846	0.10560
2796.57978	0.10579
2794.65111	0.10595
2792.72243	0.10609
2790.79376	0.10621
2788.86508	0.10634
2786.93640	0.10651
2785.00773	0.10666
2783.07905	0.10676
2781.15038	0.10686
2779.22170	0.10699
2777.29303	0.10717
2775.36435	0.10736
2773.43567	0.10754
2771.50700	0.10769
2769.57832	0.10783
2767.64965	0.10798
2765.72097	0.10812
2763.79230	0.10822
2761.86362	0.10832
2759.93494	0.10846
2758.00627	0.10861
2756.07759	0.10878
2754.14892	0.10897
2752.22024	0.10915
2750.29157	0.10929
2748.36289	0.10942
2746.43421	0.10954
2744.50554	0.10966
2742.57686	0.10979
2740.64819	0.10994
2738.71951	0.11010
2736.79084	0.11024
2734.86216	0.11038
2732.93348	0.11053
2731.00481	0.11070
2729.07613	0.11083
2727.14746	0.11094
2725.21878	0.11107
2723.29011	0.11121
2721.36143	0.11134
2719.43275	0.11148
2717.50408	0.11161
2715.57540	0.11173
2713.64673	0.11184
2711.71805	0.11196
2709.78938	0.11212
2707.86070	0.11228
2705.93202	0.11242
2704.00335	0.11256
2702.07467	0.11270
2700.14600	0.11285
2698.21732	0.11299
2696.28865	0.11313
2694.35997	0.11326
2692.43129	0.11336
2690.50262	0.11348
2688.57394	0.11363
2686.64527	0.11381
2684.71659	0.11398
2682.78792	0.11415
2680.85924	0.11432
2678.93056	0.11447
2677.00189	0.11457
2675.07321	0.11465
2673.14454	0.11476
2671.21586	0.11489
2669.28719	0.11501
2667.35851	0.11514
2665.42983	0.11529
2663.50116	0.11544
2661.57248	0.11559
2659.64381	0.11575
2657.71513	0.11591
2655.78646	0.11606
2653.85778	0.11618
2651.92910	0.11633
2650.00043	0.11649
2648.07175	0.11667
2646.14308	0.11683
2644.21440	0.11698
2642.28573	0.11717
2640.35705	0.11735
2638.42837	0.11748
2636.49970	0.11762
2634.57102	0.11778
2632.64235	0.11795
2630.71367	0.11811
2628.78500	0.11828
2626.85632	0.11843
2624.92764	0.11855
2622.99897	0.11867
2621.07029	0.11879
2619.14162	0.11889
2617.21294	0.11904
2615.28427	0.11921
2613.35559	0.11939
2611.42691	0.11956
2609.49824	0.11972
2607.56956	0.11989
2605.64089	0.12003
2603.71221	0.12017
2601.78354	0.12031
2599.85486	0.12043
2597.92618	0.12057
2595.99751	0.12073
2594.06883	0.12089
2592.14016	0.12102
2590.21148	0.12119
2588.28281	0.12137
2586.35413	0.12153
2584.42545	0.12167
2582.49678	0.12180
2580.56810	0.12194
2578.63943	0.12207
2576.71075	0.12219
2574.78208	0.12233
2572.85340	0.12248
2570.92472	0.12262
2568.99605	0.12273
2567.06737	0.12286
2565.13870	0.12302
2563.21002	0.12320
2561.28135	0.12336
2559.35267	0.12349
2557.42399	0.12361
2555.49532	0.12375
2553.56664	0.12391
2551.63797	0.12405
2549.70929	0.12419
2547.78062	0.12433
2545.85194	0.12448
2543.92326	0.12464
2541.99459	0.12479
2540.06591	0.12494
2538.13724	0.12508
2536.20856	0.12522
2534.27989	0.12534
2532.35121	0.12548
2530.42253	0.12563
2528.49386	0.12577
2526.56518	0.12588
2524.63651	0.12602
2522.70783	0.12620
2520.77916	0.12638
2518.85048	0.12655
2516.92181	0.12671
2514.99313	0.12687
2513.06445	0.12704
2511.13578	0.12721
2509.20710	0.12737
2507.27843	0.12753
2505.34975	0.12771
2503.42108	0.12789
2501.49240	0.12806
2499.56372	0.12822
2497.63505	0.12837
2495.70637	0.12854
2493.77770	0.12873
2491.84902	0.12891
2489.92035	0.12908
2487.99167	0.12922
2486.06299	0.12935
2484.13432	0.12948
2482.20564	0.12960
2480.27697	0.12975
2478.34829	0.12993
2476.41962	0.13012
2474.49094	0.13029
2472.56226	0.13044
2470.63359	0.13058
2468.70491	0.13072
2466.77624	0.13085
2464.84756	0.13100
2462.91889	0.13117
2460.99021	0.13135
2459.06153	0.13150
2457.13286	0.13164
2455.20418	0.13180
2453.27551	0.13200
2451.34683	0.13217
2449.41816	0.13232
2447.48948	0.13247
2445.56080	0.13262
2443.63213	0.13274
2441.70345	0.13286
2439.77478	0.13301
2437.84610	0.13319
2435.91743	0.13338
2433.98875	0.13356
2432.06007	0.13371
2430.13140	0.13385
2428.20272	0.13399
2426.27405	0.13417
2424.34537	0.13436
2422.41670	0.13449
2420.48802	0.13460
2418.55934	0.13472
2416.63067	0.13489
2414.70199	0.13505
2412.77332	0.13519
2410.84464	0.13534
2408.91597	0.13553
2406.98729	0.13570
2405.05861	0.13585
2403.12994	0.13603
2401.20126	0.13620
2399.27259	0.13633
2397.34391	0.13646
2395.41524	0.13663
2393.48656	0.13676
2391.55788	0.13687
2389.62921	0.13701
2387.70053	0.13719
2385.77186	0.13736
2383.84318	0.13748
2381.91451	0.13760
2379.98583	0.13768
2378.05715	0.13771
2376.12848	0.13774
2374.19980	0.13780
2372.27113	0.13785
2370.34245	0.13788
2368.41378	0.13791
2366.48510	0.13796
2364.55642	0.13805
2362.62775	0.13817
2360.69907	0.13834
2358.77040	0.13855
2356.84172	0.13874
2354.91305	0.13894
2352.98437	0.13923
2351.05569	0.13957
2349.12702	0.13982
2347.19834	0.13991
2345.26967	0.13995
2343.34099	0.14002
2341.41232	0.14011
2339.48364	0.14020
2337.55496	0.14035
2335.62629	0.14055
2333.69761	0.14073
2331.76894	0.14090
2329.84026	0.14105
2327.91159	0.14122
2325.98291	0.14140
2324.05423	0.14159
2322.12556	0.14181
2320.19688	0.14205
2318.26821	0.14229
2316.33953	0.14249
2314.41086	0.14270
2312.48218	0.14294
2310.55350	0.14316
2308.62483	0.14334
2306.69615	0.14349
2304.76748	0.14366
2302.83880	0.14386
2300.91013	0.14404
2298.98145	0.14417
2297.05277	0.14429
2295.12410	0.14443
2293.19542	0.14462
2291.26675	0.14481
2289.33807	0.14502
2287.40940	0.14522
2285.48072	0.14539
2283.55204	0.14551
2281.62337	0.14563
2279.69469	0.14580
2277.76602	0.14597
2275.83734	0.14610
2273.90867	0.14622
2271.97999	0.14637
2270.05131	0.14654
2268.12264	0.14671
2266.19396	0.14689
2264.26529	0.14705
2262.33661	0.14719
2260.40794	0.14735
2258.47926	0.14751
2256.55058	0.14766
2254.62191	0.14780
2252.69323	0.14793
2250.76456	0.14807
2248.83588	0.14819
2246.90721	0.14832
2244.97853	0.14850
2243.04985	0.14873
2241.12118	0.14893
2239.19250	0.14909
2237.26383	0.14924
2235.33515	0.14937
2233.40648	0.14947
2231.47780	0.14956
2229.54912	0.14969
2227.62045	0.14987
2225.69177	0.15008
2223.76310	0.15026
2221.83442	0.15038
2219.90575	0.15051
2217.97707	0.15068
2216.04839	0.15085
2214.11972	0.15100
2212.19104	0.15114
2210.26237	0.15127
2208.33369	0.15141
2206.40502	0.15158
2204.47634	0.15174
2202.54766	0.15189
2200.61899	0.15203
2198.69031	0.15220
2196.76164	0.15237
2194.83296	0.15253
2192.90429	0.15266
2190.97561	0.15278
2189.04693	0.15291
2187.11826	0.15306
2185.18958	0.15322
2183.26091	0.15337
2181.33223	0.15351
2179.40356	0.15365
2177.47488	0.15378
2175.54620	0.15392
2173.61753	0.15409
2171.68885	0.15426
2169.76018	0.15442
2167.83150	0.15458
2165.90283	0.15475
2163.97415	0.15490
2162.04547	0.15504
2160.11680	0.15519
2158.18812	0.15536
2156.25945	0.15557
2154.33077	0.15578
2152.40210	0.15595
2150.47342	0.15608
2148.54474	0.15622
2146.61607	0.15638
2144.68739	0.15656
2142.75872	0.15671
2140.83004	0.15684
2138.90137	0.15698
2136.97269	0.15714
2135.04401	0.15734
2133.11534	0.15754
2131.18666	0.15768
2129.25799	0.15779
2127.32931	0.15791
2125.40064	0.15803
2123.47196	0.15815
2121.54328	0.15831
2119.61461	0.15851
2117.68593	0.15870
2115.75726	0.15884
2113.82858	0.15898
2111.89991	0.15916
2109.97123	0.15934
2108.04255	0.15949
2106.11388	0.15963
2104.18520	0.15976
2102.25653	0.15991
2100.32785	0.16009
2098.39918	0.16026
2096.47050	0.16039
2094.54182	0.16051
2092.61315	0.16064
2090.68447	0.16077
2088.75580	0.16094
2086.82712	0.16115
2084.89845	0.16134
2082.96977	0.16147
2081.04109	0.16162
2079.11242	0.16178
2077.18374	0.16192
2075.25507	0.16207
2073.32639	0.16225
2071.39772	0.16244
2069.46904	0.16261
2067.54036	0.16271
2065.61169	0.16278
2063.68301	0.16294
2061.75434	0.16317
2059.82566	0.16336
2057.89699	0.16350
2055.96831	0.16362
2054.03963	0.16377
2052.11096	0.16394
2050.18228	0.16408
2048.25361	0.16424
2046.32493	0.16444
2044.39626	0.16463
2042.46758	0.16482
2040.53890	0.16500
2038.61023	0.16515
2036.68155	0.16526
2034.75288	0.16537
2032.82420	0.16551
2030.89553	0.16566
2028.96685	0.16582
2027.03817	0.16599
2025.10950	0.16616
2023.18082	0.16635
2021.25215	0.16655
2019.32347	0.16668
2017.39480	0.16679
2015.46612	0.16693
2013.53744	0.16711
2011.60877	0.16729
2009.68009	0.16746
2007.75142	0.16763
2005.82274	0.16777
2003.89407	0.16790
2001.96539	0.16807
2000.03671	0.16826
1998.10804	0.16845
1996.17936	0.16858
1994.25069	0.16863
1992.32201	0.16870
1990.39334	0.16886
1988.46466	0.16905
1986.53598	0.16918
1984.60731	0.16932
1982.67863	0.16948
1980.74996	0.16961
1978.82128	0.16972
1976.89261	0.16981
1974.96393	0.16995
1973.03525	0.17012
1971.10658	0.17024
1969.17790	0.17033
1967.24923	0.17044
1965.32055	0.17062
1963.39188	0.17083
1961.46320	0.17104
1959.53452	0.17122
1957.60585	0.17135
1955.67717	0.17147
1953.74850	0.17162
1951.81982	0.17178
1949.89115	0.17195
1947.96247	0.17208
1946.03379	0.17218
1944.10512	0.17223
1942.17644	0.17234
1940.24777	0.17259
1938.31909	0.17286
1936.39042	0.17304
1934.46174	0.17318
1932.53306	0.17331
1930.60439	0.17345
1928.67571	0.17359
1926.74704	0.17374
1924.81836	0.17382
1922.88969	0.17389
1920.96101	0.17394
1919.03233	0.17397
1917.10366	0.17415
1915.17498	0.17452
1913.24631	0.17479
1911.31763	0.17489
1909.38896	0.17498
1907.46028	0.17520
1905.53160	0.17547
1903.60293	0.17566
1901.67425	0.17581
1899.74558	0.17594
1897.81690	0.17601
1895.88823	0.17607
1893.95955	0.17620
1892.03087	0.17631
1890.10220	0.17640
1888.17352	0.17661
1886.24485	0.17692
1884.31617	0.17711
1882.38750	0.17724
1880.45882	0.17740
1878.53014	0.17758
1876.60147	0.17772
1874.67279	0.17784
1872.74412	0.17789
1870.81544	0.17778
1868.88677	0.17772
1866.95809	0.17797
1865.02941	0.17841
1863.10074	0.17875
1861.17206	0.17893
1859.24339	0.17906
1857.31471	0.17922
1855.38604	0.17941
1853.45736	0.17960
1851.52868	0.17974
1849.60001	0.17982
1847.67133	0.17978
1845.74266	0.17961
1843.81398	0.17967
1841.88531	0.18012
1839.95663	0.18057
1838.02795	0.18077
1836.09928	0.18089
1834.17060	0.18102
1832.24193	0.18100
1830.31325	0.18093
1828.38458	0.18105
1826.45590	0.18127
1824.52722	0.18154
1822.59855	0.18192
1820.66987	0.18221
1818.74120	0.18233
1816.81252	0.18242
1814.88385	0.18253
1812.95517	0.18260
1811.02649	0.18267
1809.09782	0.18281
1807.16914	0.18296
1805.24047	0.18304
1803.31179	0.18301
1801.38312	0.18300
1799.45444	0.18322
1797.52576	0.18352
1795.59709	0.18358
1793.66841	0.18344
1791.73974	0.18350
1789.81106	0.18385
1787.88239	0.18412
1785.95371	0.18415
1784.02503	0.18419
1782.09636	0.18432
1780.16768	0.18450
1778.23901	0.18469
1776.31033	0.18470
1774.38166	0.18449
1772.45298	0.18436
1770.52430	0.18453
1768.59563	0.18488
1766.66695	0.18529
1764.73828	0.18554
1762.80960	0.18549
1760.88093	0.18548
1758.95225	0.18558
1757.02357	0.18566
1755.09490	0.18571
1753.16622	0.18547
1751.23755	0.18507
1749.30887	0.18500
1747.38020	0.18527
1745.45152	0.18552
1743.52284	0.18560
1741.59417	0.18555
1739.66549	0.18553
1737.73682	0.18548
1735.80814	0.18517
1733.87947	0.18500
1731.95079	0.18538
1730.02211	0.18596
1728.09344	0.18639
1726.16476	0.18667
1724.23609	0.18679
1722.30741	0.18681
1720.37874	0.18656
1718.45006	0.18620
1716.52138	0.18622
1714.59271	0.18667
1712.66403	0.18721
1710.73536	0.18756
1708.80668	0.18756
1706.87801	0.18738
1704.94933	0.18728
1703.02065	0.18702
1701.09198	0.18658
1699.16330	0.18653
1697.23463	0.18684
1695.30595	0.18728
1693.37728	0.18786
1691.44860	0.18817
1689.51992	0.18810
1687.59125	0.18783
1685.66257	0.18735
1683.73390	0.18716
1681.80522	0.18757
1679.87655	0.18806
1677.94787	0.18813
1676.01919	0.18793
1674.09052	0.18786
1672.16184	0.18783
1670.23317	0.18775
1668.30449	0.18800
1666.37582	0.18846
1664.44714	0.18859
1662.51846	0.18855
1660.58979	0.18874
1658.66111	0.18888
1656.73244	0.18846
1654.80376	0.18756
1652.87509	0.18720
1650.94641	0.18774
1649.01773	0.18815
1647.08906	0.18819
1645.16038	0.18853
1643.23171	0.18908
1641.30303	0.18930
1639.37436	0.18906
1637.44568	0.18858
1635.51700	0.18851
1633.58833	0.18906
1631.65965	0.18954
1629.73098	0.18953
1627.80230	0.18934
1625.87363	0.18910
1623.94495	0.18873
1622.01627	0.18852
1620.08760	0.18852
1618.15892	0.18865
1616.23025	0.18914
1614.30157	0.18995
1612.37290	0.19058
1610.44422	0.19087
1608.51554	0.19106
1606.58687	0.19127
1604.65819	0.19149
1602.72952	0.19170
1600.80084	0.19197
1598.87217	0.19224
1596.94349	0.19240
1595.01481	0.19249
1593.08614	0.19261
1591.15746	0.19279
1589.22879	0.19299
1587.30011	0.19320
1585.37144	0.19341
1583.44276	0.19359
1581.51408	0.19369
1579.58541	0.19360
1577.65673	0.19338
1575.72806	0.19345
1573.79938	0.19381
1571.87071	0.19391
1569.94203	0.19380
1568.01335	0.19397
1566.08468	0.19432
1564.15600	0.19448
1562.22733	0.19413
1560.29865	0.19337
1558.36998	0.19314
1556.44130	0.19382
1554.51262	0.19460
1552.58395	0.19499
1550.65527	0.19514
1548.72660	0.19522
1546.79792	0.19516
1544.86925	0.19484
1542.94057	0.19442
1541.01189	0.19424
1539.08322	0.19460
1537.15454	0.19524
1535.22587	0.19550
1533.29719	0.19554
1531.36852	0.19578
1529.43984	0.19596
1527.51116	0.19589
1525.58249	0.19574
1523.65381	0.19541
1521.72514	0.19508
1519.79646	0.19515
1517.86779	0.19551
1515.93911	0.19591
1514.01043	0.19629
1512.08176	0.19633
1510.15308	0.19591
1508.22441	0.19542
1506.29573	0.19555
1504.36706	0.19635
1502.43838	0.19693
1500.50970	0.19686
1498.58103	0.19659
1496.65235	0.19664
1494.72368	0.19695
1492.79500	0.19698
1490.86633	0.19663
1488.93765	0.19639
1487.00897	0.19654
1485.08030	0.19682
1483.15162	0.19691
1481.22295	0.19676
1479.29427	0.19645
1477.36560	0.19593
1475.43692	0.19529
1473.50824	0.19481
1471.57957	0.19471
1469.65089	0.19483
1467.72222	0.19472
1465.79354	0.19438
1463.86487	0.19421
1461.93619	0.19405
1460.00751	0.19341
1458.07884	0.19258
1456.15016	0.19246
1454.22149	0.19302
1452.29281	0.19343
1450.36414	0.19348
1448.43546	0.19351
1446.50678	0.19372
1444.57811	0.19404
1442.64943	0.19426
1440.72076	0.19419
1438.79208	0.19376
1436.86341	0.19350
1434.93473	0.19391
1433.00605	0.19448
1431.07738	0.19469
1429.14870	0.19477
1427.22003	0.19488
1425.29135	0.19489
1423.36268	0.19481
1421.43400	0.19454
1419.50532	0.19425
1417.57665	0.19445
1415.64797	0.19500
1413.71930	0.19529
1411.79062	0.19530
1409.86195	0.19527
1407.93327	0.19527
1406.00459	0.19522
1404.07592	0.19519
1402.14724	0.19509
1400.21857	0.19482
1398.28989	0.19459
1396.36122	0.19454
1394.43254	0.19466
1392.50386	0.19484
1390.57519	0.19477
1388.64651	0.19434
1386.71784	0.19396
1384.78916	0.19392
1382.86049	0.19402
1380.93181	0.19412
1379.00313	0.19417
1377.07446	0.19406
1375.14578	0.19388
1373.21711	0.19385
1371.28843	0.19394
1369.35976	0.19398
1367.43108	0.19399
1365.50240	0.19394
1363.57373	0.19378
1361.64505	0.19376
1359.71638	0.19398
1357.78770	0.19420
1355.85903	0.19428
1353.93035	0.19431
1352.00167	0.19434
1350.07300	0.19438
1348.14432	0.19448
1346.21565	0.19462
1344.28697	0.19466
1342.35830	0.19448
1340.42962	0.19424
1338.50094	0.19419
1336.57227	0.19429
1334.64359	0.19436
1332.71492	0.19433
1330.78624	0.19424
1328.85757	0.19408
1326.92889	0.19390
1325.00021	0.19376
1323.07154	0.19359
1321.14286	0.19339
1319.21419	0.19320
1317.28551	0.19303
1315.35684	0.19282
1313.42816	0.19265
1311.49948	0.19256
1309.57081	0.19243
1307.64213	0.19219
1305.71346	0.19194
1303.78478	0.19173
1301.85611	0.19156
1299.92743	0.19138
1297.99875	0.19115
1296.07008	0.19093
1294.14140	0.19073
1292.21273	0.19053
1290.28405	0.19033
1288.35538	0.19015
1286.42670	0.18996
1284.49802	0.18974
1282.56935	0.18953
1280.64067	0.18930
1278.71200	0.18898
1276.78332	0.18859
1274.85465	0.18818
1272.92597	0.18771
1270.99729	0.18712
1269.06862	0.18635
1267.13994	0.18544
1265.21127	0.18464
1263.28259	0.18417
1261.35392	0.18401
1259.42524	0.18407
1257.49656	0.18420
1255.56789	0.18428
1253.63921	0.18430
1251.71054	0.18425
1249.78186	0.18405
1247.85319	0.18369
1245.92451	0.18328
1243.99583	0.18290
1242.06716	0.18251
1240.13848	0.18206
1238.20981	0.18155
1236.28113	0.18105
1234.35246	0.18054
1232.42378	0.17999
1230.49510	0.17947
1228.56643	0.17901
1226.63775	0.17856
1224.70908	0.17812
1222.78040	0.17768
1220.85173	0.17719
1218.92305	0.17664
1216.99437	0.17608
1215.06570	0.17555
1213.13702	0.17503
1211.20835	0.17448
1209.27967	0.17396
1207.35100	0.17344
1205.42232	0.17286
1203.49364	0.17227
1201.56497	0.17169
1199.63629	0.17113
1197.70762	0.17063
1195.77894	0.17011
1193.85027	0.16951
1191.92159	0.16886
1189.99291	0.16818
1188.06424	0.16744
1186.13556	0.16665
1184.20689	0.16586
1182.27821	0.16513
1180.34954	0.16436
1178.42086	0.16353
1176.49218	0.16272
1174.56351	0.16193
1172.63483	0.16110
1170.70616	0.16027
1168.77748	0.15945
1166.84881	0.15862
1164.92013	0.15780
1162.99145	0.15701
1161.06278	0.15621
1159.13410	0.15540
1157.20543	0.15459
1155.27675	0.15381
1153.34808	0.15302
1151.41940	0.15226
1149.49072	0.15157
1147.56205	0.15088
1145.63337	0.15012
1143.70470	0.14926
1141.77602	0.14834
1139.84735	0.14736
1137.91867	0.14634
1135.98999	0.14528
1134.06132	0.14405
1132.13264	0.14256
1130.20397	0.14084
1128.27529	0.13898
1126.34662	0.13701
1124.41794	0.13496
1122.48926	0.13285
1120.56059	0.13072
1118.63191	0.12866
1116.70324	0.12673
1114.77456	0.12500
1112.84589	0.12348
1110.91721	0.12219
1108.98853	0.12117
1107.05986	0.12040
1105.13118	0.11990
1103.20251	0.11972
1101.27383	0.11980
1099.34516	0.12010
1097.41648	0.12061
1095.48780	0.12125
1093.55913	0.12194
1091.63045	0.12262
1089.70178	0.12329
1087.77310	0.12394
1085.84443	0.12448
1083.91575	0.12490
1081.98707	0.12521
1080.05840	0.12546
1078.12972	0.12567
1076.20105	0.12582
1074.27237	0.12590
1072.34370	0.12590
1070.41502	0.12591
1068.48634	0.12600
1066.55767	0.12615
1064.62899	0.12631
1062.70032	0.12649
1060.77164	0.12672
1058.84297	0.12701
1056.91429	0.12728
1054.98561	0.12753
1053.05694	0.12777
1051.12826	0.12804
1049.19959	0.12833
1047.27091	0.12868
1045.34224	0.12907
1043.41356	0.12950
1041.48488	0.12994
1039.55621	0.13036
1037.62753	0.13075
1035.69886	0.13107
1033.77018	0.13133
1031.84151	0.13161
1029.91283	0.13195
1027.98415	0.13230
1026.05548	0.13261
1024.12680	0.13290
1022.19813	0.13325
1020.26945	0.13365
1018.34078	0.13404
1016.41210	0.13445
1014.48342	0.13492
1012.55475	0.13544
1010.62607	0.13602
1008.69740	0.13666
1006.76872	0.13726
1004.84005	0.13773
1002.91137	0.13808
1000.98269	0.13840
999.05402	0.13872
997.12534	0.13903
995.19667	0.13927
993.26799	0.13940
991.33932	0.13945
989.41064	0.13944
987.48196	0.13941
985.55329	0.13942
983.62461	0.13947
981.69594	0.13944
979.76726	0.13932
977.83859	0.13915
975.90991	0.13899
973.98123	0.13884
972.05256	0.13869
970.12388	0.13861
968.19521	0.13854
966.26653	0.13837
964.33786	0.13810
962.40918	0.13790
960.48050	0.13776
958.55183	0.13761
956.62315	0.13747
954.69448	0.13735
952.76580	0.13719
950.83713	0.13700
948.90845	0.13680
946.97977	0.13656
945.05110	0.13630
943.12242	0.13602
941.19375	0.13571
939.26507	0.13538
937.33640	0.13500
935.40772	0.13454
933.47904	0.13406
931.55037	0.13360
929.62169	0.13312
927.69302	0.13264
925.76434	0.13219
923.83567	0.13176
921.90699	0.13124
919.97831	0.13062
918.04964	0.12994
916.12096	0.12924
914.19229	0.12853
912.26361	0.12783
910.33494	0.12717
908.40626	0.12652
906.47758	0.12586
904.54891	0.12519
902.62023	0.12455
900.69156	0.12400
898.76288	0.12355
896.83421	0.12311
894.90553	0.12267
892.97685	0.12217
891.04818	0.12162
889.11950	0.12112
887.19083	0.12075
885.26215	0.12045
883.33348	0.12015
881.40480	0.11986
879.47612	0.11959
877.54745	0.11930
875.61877	0.11901
873.69010	0.11874
871.76142	0.11855
869.83275	0.11839
867.90407	0.11821
865.97539	0.11800
864.04672	0.11780
862.11804	0.11767
860.18937	0.11759
858.26069	0.11752
856.33202	0.11742
854.40334	0.11722
852.47466	0.11694
850.54599	0.11665
848.61731	0.11636
846.68864	0.11610
844.75996	0.11589
842.83129	0.11569
840.90261	0.11539
838.97394	0.11499
837.04526	0.11449
835.11658	0.11388
833.18791	0.11313
831.25923	0.11221
829.33056	0.11115
827.40188	0.11009
825.47321	0.10912
823.54453	0.10824
821.61585	0.10750
819.68718	0.10691
817.75850	0.10641
815.82983	0.10600
813.90115	0.10568
811.97248	0.10536
810.04380	0.10505
808.11512	0.10478
806.18645	0.10460
804.25777	0.10452
802.32910	0.10448
800.40042	0.10428
798.47175	0.10378
796.54307	0.10308
794.61439	0.10246
792.68572	0.10207
790.75704	0.10187
788.82837	0.10176
786.89969	0.10157
784.97102	0.10128
783.04234	0.10098
781.11366	0.10071
779.18499	0.10043
777.25631	0.10011
775.32764	0.09981
773.39896	0.09960
771.47029	0.09941
769.54161	0.09909
767.61293	0.09866
765.68426	0.09824
763.75558	0.09781
761.82691	0.09732
759.89823	0.09676
757.96956	0.09619
756.04088	0.09567
754.11220	0.09514
752.18353	0.09452
750.25485	0.09382
748.32618	0.09312
746.39750	0.09238
744.46883	0.09155
742.54015	0.09072
740.61147	0.09002
738.68280	0.08954
736.75412	0.08931
734.82545	0.08924
732.89677	0.08919
730.96810	0.08922
729.03942	0.08943
727.11074	0.08966
725.18207	0.08980
723.25339	0.08993
721.32472	0.09010
719.39604	0.09026
717.46737	0.09046
715.53869	0.09080
713.61001	0.09121
711.68134	0.09156
709.75266	0.09176
707.82399	0.09183
705.89531	0.09173
703.96664	0.09146
702.03796	0.09115
700.10928	0.09084
698.18061	0.09044
696.25193	0.08994
694.32326	0.08949
692.39458	0.08904
690.46591	0.08853
688.53723	0.08797
686.60855	0.08745
684.67988	0.08702
682.75120	0.08659
680.82253	0.08605
678.89385	0.08544
676.96518	0.08481
675.03650	0.08416
673.10782	0.08345
671.17915	0.08265
669.25047	0.08175
667.32180	0.08089
665.39312	0.08015
663.46445	0.07949
661.53577	0.07882
659.60709	0.07805
657.67842	0.07724
655.74974	0.07649
653.82107	0.07580
651.89239	0.07511
649.96372	0.07438
648.03504	0.07356
646.10636	0.07266
644.17769	0.07176
642.24901	0.07086
640.32034	0.06990
638.39166	0.06890
636.46299	0.06784
634.53431	0.06671
632.60563	0.06531
630.67696	0.06311
628.74828	0.05979
626.81961	0.05559
624.89093	0.05129
622.96226	0.04779
621.03358	0.04561
619.10490	0.04445
617.17623	0.04374
615.24755	0.04300
613.31888	0.04198
611.39020	0.04093
609.46153	0.04038
607.53285	0.04040
605.60417	0.04076
603.67550	0.04136
601.74682	0.04217
599.81815	0.04304
597.88947	0.04385
595.96080	0.04450
594.03212	0.04499
592.10344	0.04534
590.17477	0.04554
588.24609	0.04555
586.31742	0.04535
584.38874	0.04498
582.46007	0.04454
580.53139	0.04411
578.60271	0.04367
576.67404	0.04321
574.74536	0.04273
572.81669	0.04223
570.88801	0.04173
568.95934	0.04123
567.03066	0.04078
565.10198	0.04044
563.17331	0.04012
561.24463	0.03979
559.31596	0.03948
557.38728	0.03921
555.45861	0.03898
553.52993	0.03875
551.60125	0.03856
549.67258	0.03847
547.74390	0.03842
545.81523	0.03832
543.88655	0.03823
541.95788	0.03807
540.02920	0.03782
538.10052	0.03758
536.17185	0.03741
534.24317	0.03721
532.31450	0.03690
530.38582	0.03665
528.45715	0.03653
526.52847	0.03639
524.59979	0.03610
522.67112	0.03570
520.74244	0.03525
518.81377	0.03470
516.88509	0.03405
514.95642	0.03343
513.02774	0.03301
511.09906	0.03282
509.17039	0.03270
507.24171	0.03246
505.31304	0.03214
503.38436	0.03180
501.45569	0.03148
499.52701	0.03117
497.59833	0.03076
495.66966	0.03018
493.74098	0.02951
491.81231	0.02880
489.88363	0.02818
487.95496	0.02774
486.02628	0.02727
484.09760	0.02664
482.16893	0.02602
480.24025	0.02554
478.31158	0.02511
476.38290	0.02467
474.45423	0.02424
472.52555	0.02374
470.59687	0.02324
468.66820	0.02278
466.73952	0.02239
464.81085	0.02209
462.88217	0.02183
460.95350	0.02162
459.02482	0.02150
457.09614	0.02151
455.16747	0.02163
453.23879	0.02176
451.31012	0.02180
449.38144	0.02174
447.45277	0.02160
445.52409	0.02137
443.59541	0.02108
441.66674	0.02079
439.73806	0.02046
437.80939	0.02001
435.88071	0.01952
433.95204	0.01911
432.02336	0.01877
430.09468	0.01837
428.16601	0.01780
426.23733	0.01711
424.30866	0.01637
422.37998	0.01559
420.45131	0.01488
418.52263	0.01435
416.59395	0.01387
414.66528	0.01324
412.73660	0.01250
410.80793	0.01180
408.87925	0.01124
406.95058	0.01075
405.02190	0.01018
403.09322	0.00950
401.16455	0.00885
399.23587	0.00830
397.30720	0.00782
395.37852	0.00740
393.44985	0.00700
391.52117	0.00656
389.59249	0.00614
387.66382	0.00567
385.73514	0.00516
383.80647	0.00473
381.87779	0.00439
379.94912	0.00405
378.02044	0.00372
376.09176	0.00346
374.16309	0.00323
372.23441	0.00295
370.30574	0.00258
368.37706	0.00217
