7496.76250	0.00108
7494.83382	0.00110
7492.90514	0.00112
7490.97647	0.00112
7489.04779	0.00112
7487.11912	0.00112
7485.19044	0.00113
7483.26177	0.00112
7481.33309	0.00111
7479.40441	0.00111
7477.47574	0.00111
7475.54706	0.00111
7473.61839	0.00112
7471.68971	0.00113
7469.76104	0.00115
7467.83236	0.00116
7465.90368	0.00116
7463.97501	0.00116
7462.04633	0.00116
7460.11766	0.00115
7458.18898	0.00115
7456.26031	0.00116
7454.33163	0.00117
7452.40295	0.00118
7450.47428	0.00119
7448.54560	0.00119
7446.61693	0.00120
7444.68825	0.00120
7442.75958	0.00119
7440.83090	0.00119
7438.90222	0.00119
7436.97355	0.00120
7435.04487	0.00120
7433.11620	0.00119
7431.18752	0.00121
7429.25885	0.00123
7427.33017	0.00124
7425.40149	0.00123
7423.47282	0.00122
7421.54414	0.00123
7419.61547	0.00125
7417.68679	0.00126
7415.75812	0.00126
7413.82944	0.00127
7411.90076	0.00127
7409.97209	0.00127
7408.04341	0.00126
7406.11474	0.00124
7404.18606	0.00125
7402.25739	0.00127
7400.32871	0.00128
7398.40003	0.00127
7396.47136	0.00126
7394.54268	0.00125
7392.61401	0.00127
7390.68533	0.00129
7388.75666	0.00129
7386.82798	0.00128
7384.89930	0.00128
7382.97063	0.00129
7381.04195	0.00129
7379.11328	0.00128
7377.18460	0.00128
7375.25593	0.00128
7373.32725	0.00128
7371.39857	0.00130
7369.46990	0.00131
7367.54122	0.00131
7365.61255	0.00132
7363.68387	0.00132
7361.75520	0.00133
7359.82652	0.00134
7357.89784	0.00133
7355.96917	0.00132
7354.04049	0.00131
7352.11182	0.00132
7350.18314	0.00132
7348.25447	0.00132
7346.32579	0.00134
7344.39711	0.00136
7342.46844	0.00137
7340.53976	0.00136
7338.61109	0.00135
7336.68241	0.00135
7334.75374	0.00136
7332.82506	0.00137
7330.89638	0.00136
7328.96771	0.00135
7327.03903	0.00136
7325.11036	0.00138
7323.18168	0.00141
7321.25301	0.00143
7319.32433	0.00143
7317.39565	0.00143
7315.46698	0.00144
7313.53830	0.00144
7311.60963	0.00144
7309.68095	0.00143
7307.75228	0.00142
7305.82360	0.00143
7303.89492	0.00143
7301.96625	0.00143
7300.03757	0.00144
7298.10890	0.00145
7296.18022	0.00146
7294.25155	0.00145
7292.32287	0.00146
7290.39419	0.00145
7288.46552	0.00144
7286.53684	0.00144
7284.60817	0.00145
7282.67949	0.00146
7280.75082	0.00146
7278.82214	0.00146
7276.89346	0.00147
7274.96479	0.00148
7273.03611	0.00148
7271.10744	0.00147
7269.17876	0.00146
7267.25009	0.00147
7265.32141	0.00147
7263.39273	0.00147
7261.46406	0.00148
7259.53538	0.00150
7257.60671	0.00151
7255.67803	0.00152
7253.74936	0.00152
7251.82068	0.00150
7249.89200	0.00149
7247.96333	0.00150
7246.03465	0.00152
7244.10598	0.00153
7242.17730	0.00154
7240.24863	0.00154
7238.31995	0.00154
7236.39127	0.00154
7234.46260	0.00153
7232.53392	0.00154
7230.60525	0.00156
7228.67657	0.00157
7226.74790	0.00157
7224.81922	0.00157
7222.89054	0.00157
7220.96187	0.00158
7219.03319	0.00158
7217.10452	0.00158
7215.17584	0.00157
7213.24717	0.00158
7211.31849	0.00159
7209.38981	0.00160
7207.46114	0.00161
7205.53246	0.00162
7203.60379	0.00162
7201.67511	0.00162
7199.74644	0.00162
7197.81776	0.00162
7195.88908	0.00162
7193.96041	0.00163
7192.03173	0.00163
7190.10306	0.00161
7188.17438	0.00160
7186.24571	0.00160
7184.31703	0.00161
7182.38835	0.00161
7180.45968	0.00163
7178.53100	0.00163
7176.60233	0.00163
7174.67365	0.00164
7172.74498	0.00166
7170.81630	0.00167
7168.88762	0.00167
7166.95895	0.00168
7165.03027	0.00168
7163.10160	0.00167
7161.17292	0.00166
7159.24425	0.00167
7157.31557	0.00168
7155.38689	0.00167
7153.45822	0.00167
7151.52954	0.00168
7149.60087	0.00170
7147.67219	0.00171
7145.74352	0.00171
7143.81484	0.00171
7141.88616	0.00171
7139.95749	0.00171
7138.02881	0.00171
7136.10014	0.00173
7134.17146	0.00174
7132.24279	0.00174
7130.31411	0.00175
7128.38543	0.00176
7126.45676	0.00177
7124.52808	0.00178
7122.59941	0.00178
7120.67073	0.00177
7118.74206	0.00177
7116.81338	0.00177
7114.88470	0.00177
7112.95603	0.00178
7111.02735	0.00179
7109.09868	0.00181
7107.17000	0.00182
7105.24133	0.00182
7103.31265	0.00181
7101.38397	0.00180
7099.45530	0.00179
7097.52662	0.00180
7095.59795	0.00182
7093.66927	0.00184
7091.74060	0.00184
7089.81192	0.00184
7087.88324	0.00184
7085.95457	0.00183
7084.02589	0.00184
7082.09722	0.00185
7080.16854	0.00187
7078.23987	0.00188
7076.31119	0.00189
7074.38251	0.00188
7072.45384	0.00186
7070.52516	0.00186
7068.59649	0.00186
7066.66781	0.00187
7064.73914	0.00187
7062.81046	0.00189
7060.88178	0.00191
7058.95311	0.00192
7057.02443	0.00192
7055.09576	0.00191
7053.16708	0.00191
7051.23841	0.00192
7049.30973	0.00194
7047.38105	0.00193
7045.45238	0.00191
7043.52370	0.00191
7041.59503	0.00193
7039.66635	0.00195
7037.73768	0.00195
7035.80900	0.00194
7033.88032	0.00194
7031.95165	0.00194
7030.02297	0.00194
7028.09430	0.00194
7026.16562	0.00195
7024.23695	0.00195
7022.30827	0.00196
7020.37959	0.00197
7018.45092	0.00197
7016.52224	0.00198
7014.59357	0.00199
7012.66489	0.00199
7010.73622	0.00199
7008.80754	0.00200
7006.87886	0.00202
7004.95019	0.00203
7003.02151	0.00204
7001.09284	0.00203
6999.16416	0.00203
6997.23549	0.00203
6995.30681	0.00203
6993.37813	0.00204
6991.44946	0.00206
6989.52078	0.00206
6987.59211	0.00207
6985.66343	0.00208
6983.73476	0.00208
6981.80608	0.00207
6979.87740	0.00208
6977.94873	0.00208
6976.02005	0.00208
6974.09138	0.00208
6972.16270	0.00208
6970.23403	0.00208
6968.30535	0.00208
6966.37667	0.00209
6964.44800	0.00210
6962.51932	0.00210
6960.59065	0.00210
6958.66197	0.00211
6956.73330	0.00212
6954.80462	0.00214
6952.87594	0.00216
6950.94727	0.00216
6949.01859	0.00215
6947.08992	0.00214
6945.16124	0.00214
6943.23257	0.00215
6941.30389	0.00216
6939.37521	0.00217
6937.44654	0.00217
6935.51786	0.00217
6933.58919	0.00218
6931.66051	0.00219
6929.73184	0.00220
6927.80316	0.00221
6925.87448	0.00221
6923.94581	0.00220
6922.01713	0.00220
6920.08846	0.00221
6918.15978	0.00222
6916.23111	0.00223
6914.30243	0.00224
6912.37375	0.00224
6910.44508	0.00223
6908.51640	0.00223
6906.58773	0.00223
6904.65905	0.00224
6902.73038	0.00225
6900.80170	0.00225
6898.87302	0.00226
6896.94435	0.00227
6895.01567	0.00228
6893.08700	0.00229
6891.15832	0.00228
6889.22965	0.00227
6887.30097	0.00228
6885.37229	0.00230
6883.44362	0.00230
6881.51494	0.00230
6879.58627	0.00231
6877.65759	0.00233
6875.72892	0.00233
6873.80024	0.00232
6871.87156	0.00233
6869.94289	0.00234
6868.01421	0.00236
6866.08554	0.00236
6864.15686	0.00236
6862.22819	0.00236
6860.29951	0.00237
6858.37083	0.00237
6856.44216	0.00237
6854.51348	0.00237
6852.58481	0.00238
6850.65613	0.00238
6848.72746	0.00238
6846.79878	0.00238
6844.87010	0.00238
6842.94143	0.00239
6841.01275	0.00239
6839.08408	0.00239
6837.15540	0.00240
6835.22673	0.00241
6833.29805	0.00243
6831.36937	0.00245
6829.44070	0.00245
6827.51202	0.00244
6825.58335	0.00244
6823.65467	0.00243
6821.72600	0.00243
6819.79732	0.00243
6817.86864	0.00244
6815.93997	0.00246
6814.01129	0.00249
6812.08262	0.00249
6810.15394	0.00249
6808.22527	0.00249
6806.29659	0.00249
6804.36791	0.00249
6802.43924	0.00250
6800.51056	0.00251
6798.58189	0.00252
6796.65321	0.00253
6794.72454	0.00253
6792.79586	0.00254
6790.86718	0.00254
6788.93851	0.00254
6787.00983	0.00254
6785.08116	0.00254
6783.15248	0.00255
6781.22381	0.00256
6779.29513	0.00257
6777.36645	0.00257
6775.43778	0.00257
6773.50910	0.00258
6771.58043	0.00260
6769.65175	0.00260
6767.72308	0.00260
6765.79440	0.00261
6763.86572	0.00263
6761.93705	0.00264
6760.00837	0.00263
6758.07970	0.00263
6756.15102	0.00263
6754.22235	0.00264
6752.29367	0.00265
6750.36499	0.00265
6748.43632	0.00265
6746.50764	0.00265
6744.57897	0.00266
6742.65029	0.00267
6740.72162	0.00268
6738.79294	0.00267
6736.86426	0.00267
6734.93559	0.00268
6733.00691	0.00269
6731.07824	0.00271
6729.14956	0.00272
6727.22089	0.00272
6725.29221	0.00273
6723.36353	0.00273
6721.43486	0.00274
6719.50618	0.00273
6717.57751	0.00274
6715.64883	0.00275
6713.72016	0.00276
6711.79148	0.00277
6709.86280	0.00279
6707.93413	0.00279
6706.00545	0.00278
6704.07678	0.00278
6702.14810	0.00279
6700.21943	0.00279
6698.29075	0.00278
6696.36207	0.00280
6694.43340	0.00282
6692.50472	0.00282
6690.57605	0.00281
6688.64737	0.00282
6686.71870	0.00282
6684.79002	0.00283
6682.86134	0.00283
6680.93267	0.00282
6679.00399	0.00283
6677.07532	0.00286
6675.14664	0.00287
6673.21797	0.00288
6671.28929	0.00288
6669.36061	0.00288
6667.43194	0.00290
6665.50326	0.00291
6663.57459	0.00291
6661.64591	0.00293
6659.71724	0.00294
6657.78856	0.00293
6655.85988	0.00293
6653.93121	0.00293
6652.00253	0.00294
6650.07386	0.00295
6648.14518	0.00296
6646.21651	0.00297
6644.28783	0.00298
6642.35915	0.00299
6640.43048	0.00298
6638.50180	0.00298
6636.57313	0.00299
6634.64445	0.00300
6632.71578	0.00300
6630.78710	0.00301
6628.85842	0.00304
6626.92975	0.00307
6625.00107	0.00306
6623.07240	0.00305
6621.14372	0.00305
6619.21505	0.00306
6617.28637	0.00308
6615.35769	0.00308
6613.42902	0.00307
6611.50034	0.00306
6609.57167	0.00307
6607.64299	0.00307
6605.71432	0.00309
6603.78564	0.00310
6601.85696	0.00312
6599.92829	0.00313
6597.99961	0.00313
6596.07094	0.00313
6594.14226	0.00313
6592.21359	0.00314
6590.28491	0.00316
6588.35623	0.00317
6586.42756	0.00317
6584.49888	0.00316
6582.57021	0.00317
6580.64153	0.00318
6578.71286	0.00318
6576.78418	0.00319
6574.85550	0.00320
6572.92683	0.00321
6570.99815	0.00322
6569.06948	0.00323
6567.14080	0.00323
6565.21213	0.00322
6563.28345	0.00322
6561.35477	0.00324
6559.42610	0.00326
6557.49742	0.00327
6555.56875	0.00327
6553.64007	0.00327
6551.71140	0.00327
6549.78272	0.00327
6547.85404	0.00328
6545.92537	0.00329
6543.99669	0.00329
6542.06802	0.00329
6540.13934	0.00331
6538.21067	0.00332
6536.28199	0.00333
6534.35331	0.00333
6532.42464	0.00334
6530.49596	0.00335
6528.56729	0.00336
6526.63861	0.00335
6524.70994	0.00336
6522.78126	0.00337
6520.85258	0.00339
6518.92391	0.00340
6516.99523	0.00340
6515.06656	0.00339
6513.13788	0.00339
6511.20921	0.00341
6509.28053	0.00343
6507.35185	0.00345
6505.42318	0.00347
6503.49450	0.00346
6501.56583	0.00345
6499.63715	0.00346
6497.70848	0.00347
6495.77980	0.00348
6493.85112	0.00349
6491.92245	0.00350
6489.99377	0.00350
6488.06510	0.00351
6486.13642	0.00351
6484.20775	0.00352
6482.27907	0.00353
6480.35039	0.00355
6478.42172	0.00356
6476.49304	0.00358
6474.56437	0.00358
6472.63569	0.00358
6470.70702	0.00359
6468.77834	0.00360
6466.84966	0.00361
6464.92099	0.00361
6462.99231	0.00360
6461.06364	0.00360
6459.13496	0.00361
6457.20629	0.00362
6455.27761	0.00364
6453.34893	0.00366
6451.42026	0.00367
6449.49158	0.00367
6447.56291	0.00367
6445.63423	0.00368
6443.70556	0.00368
6441.77688	0.00368
6439.84820	0.00369
6437.91953	0.00371
6435.99085	0.00372
6434.06218	0.00373
6432.13350	0.00374
6430.20483	0.00374
6428.27615	0.00375
6426.34747	0.00376
6424.41880	0.00376
6422.49012	0.00376
6420.56145	0.00376
6418.63277	0.00377
6416.70410	0.00380
6414.77542	0.00382
6412.84674	0.00383
6410.91807	0.00383
6408.98939	0.00385
6407.06072	0.00386
6405.13204	0.00386
6403.20337	0.00386
6401.27469	0.00388
6399.34601	0.00389
6397.41734	0.00389
6395.48866	0.00388
6393.55999	0.00389
6391.63131	0.00390
6389.70264	0.00391
6387.77396	0.00391
6385.84528	0.00391
6383.91661	0.00391
6381.98793	0.00391
6380.05926	0.00391
6378.13058	0.00393
6376.20191	0.00395
6374.27323	0.00397
6372.34455	0.00398
6370.41588	0.00399
6368.48720	0.00400
6366.55853	0.00401
6364.62985	0.00402
6362.70118	0.00402
6360.77250	0.00404
6358.84382	0.00404
6356.91515	0.00404
6354.98647	0.00405
6353.05780	0.00406
6351.12912	0.00406
6349.20045	0.00406
6347.27177	0.00408
6345.34309	0.00409
6343.41442	0.00410
6341.48574	0.00411
6339.55707	0.00412
6337.62839	0.00412
6335.69972	0.00414
6333.77104	0.00415
6331.84236	0.00416
6329.91369	0.00418
6327.98501	0.00419
6326.05634	0.00420
6324.12766	0.00420
6322.19899	0.00421
6320.27031	0.00421
6318.34163	0.00421
6316.41296	0.00422
6314.48428	0.00423
6312.55561	0.00424
6310.62693	0.00426
6308.69826	0.00428
6306.76958	0.00430
6304.84090	0.00430
6302.91223	0.00429
6300.98355	0.00428
6299.05488	0.00429
6297.12620	0.00431
6295.19753	0.00433
6293.26885	0.00433
6291.34017	0.00432
6289.41150	0.00433
6287.48282	0.00435
6285.55415	0.00435
6283.62547	0.00434
6281.69680	0.00434
6279.76812	0.00436
6277.83944	0.00439
6275.91077	0.00441
6273.98209	0.00442
6272.05342	0.00443
6270.12474	0.00444
6268.19607	0.00445
6266.26739	0.00446
6264.33871	0.00448
6262.41004	0.00449
6260.48136	0.00450
6258.55269	0.00452
6256.62401	0.00453
6254.69534	0.00453
6252.76666	0.00453
6250.83798	0.00455
6248.90931	0.00456
6246.98063	0.00456
6245.05196	0.00457
6243.12328	0.00459
6241.19461	0.00460
6239.26593	0.00461
6237.33725	0.00461
6235.40858	0.00461
6233.47990	0.00460
6231.55123	0.00461
6229.62255	0.00462
6227.69388	0.00463
6225.76520	0.00464
6223.83652	0.00467
6221.90785	0.00469
6219.97917	0.00470
6218.05050	0.00471
6216.12182	0.00472
6214.19315	0.00472
6212.26447	0.00471
6210.33579	0.00472
6208.40712	0.00473
6206.47844	0.00475
6204.54977	0.00476
6202.62109	0.00477
6200.69242	0.00478
6198.76374	0.00479
6196.83506	0.00481
6194.90639	0.00482
6192.97771	0.00483
6191.04904	0.00483
6189.12036	0.00485
6187.19169	0.00486
6185.26301	0.00488
6183.33433	0.00489
6181.40566	0.00491
6179.47698	0.00493
6177.54831	0.00494
6175.61963	0.00495
6173.69096	0.00495
6171.76228	0.00494
6169.83360	0.00493
6167.90493	0.00492
6165.97625	0.00493
6164.04758	0.00494
6162.11890	0.00496
6160.19023	0.00498
6158.26155	0.00501
6156.33287	0.00503
6154.40420	0.00504
6152.47552	0.00504
6150.54685	0.00504
6148.61817	0.00503
6146.68950	0.00504
6144.76082	0.00505
6142.83214	0.00506
6140.90347	0.00508
6138.97479	0.00511
6137.04612	0.00513
6135.11744	0.00514
6133.18877	0.00516
6131.26009	0.00516
6129.33141	0.00517
6127.40274	0.00517
6125.47406	0.00516
6123.54539	0.00516
6121.61671	0.00519
6119.68804	0.00522
6117.75936	0.00524
6115.83068	0.00525
6113.90201	0.00525
6111.97333	0.00527
6110.04466	0.00529
6108.11598	0.00530
6106.18731	0.00530
6104.25863	0.00530
6102.32995	0.00532
6100.40128	0.00535
6098.47260	0.00538
6096.54393	0.00538
6094.61525	0.00538
6092.68658	0.00538
6090.75790	0.00539
6088.82922	0.00540
6086.90055	0.00540
6084.97187	0.00540
6083.04320	0.00540
6081.11452	0.00541
6079.18585	0.00544
6077.25717	0.00547
6075.32849	0.00549
6073.39982	0.00551
6071.47114	0.00552
6069.54247	0.00551
6067.61379	0.00550
6065.68512	0.00551
6063.75644	0.00554
6061.82776	0.00557
6059.89909	0.00558
6057.97041	0.00558
6056.04174	0.00557
6054.11306	0.00559
6052.18439	0.00561
6050.25571	0.00563
6048.32703	0.00563
6046.39836	0.00563
6044.46968	0.00565
6042.54101	0.00567
6040.61233	0.00568
6038.68366	0.00567
6036.75498	0.00567
6034.82630	0.00568
6032.89763	0.00570
6030.96895	0.00572
6029.04028	0.00574
6027.11160	0.00577
6025.18293	0.00578
6023.25425	0.00578
6021.32557	0.00578
6019.39690	0.00578
6017.46822	0.00580
6015.53955	0.00583
6013.61087	0.00584
6011.68220	0.00584
6009.75352	0.00584
6007.82484	0.00585
6005.89617	0.00587
6003.96749	0.00590
6002.03882	0.00591
6000.11014	0.00591
5998.18147	0.00592
5996.25279	0.00595
5994.32411	0.00597
5992.39544	0.00599
5990.46676	0.00601
5988.53809	0.00603
5986.60941	0.00604
5984.68074	0.00605
5982.75206	0.00606
5980.82338	0.00607
5978.89471	0.00608
5976.96603	0.00608
5975.03736	0.00607
5973.10868	0.00608
5971.18001	0.00610
5969.25133	0.00613
5967.32265	0.00614
5965.39398	0.00615
5963.46530	0.00615
5961.53663	0.00617
5959.60795	0.00618
5957.67928	0.00619
5955.75060	0.00620
5953.82192	0.00621
5951.89325	0.00621
5949.96457	0.00623
5948.03590	0.00627
5946.10722	0.00630
5944.17855	0.00631
5942.24987	0.00632
5940.32119	0.00631
5938.39252	0.00630
5936.46384	0.00632
5934.53517	0.00636
5932.60649	0.00638
5930.67782	0.00639
5928.74914	0.00639
5926.82046	0.00640
5924.89179	0.00641
5922.96311	0.00641
5921.03444	0.00642
5919.10576	0.00645
5917.17709	0.00646
5915.24841	0.00647
5913.31973	0.00648
5911.39106	0.00649
5909.46238	0.00652
5907.53371	0.00654
5905.60503	0.00656
5903.67636	0.00657
5901.74768	0.00657
5899.81900	0.00659
5897.89033	0.00661
5895.96165	0.00662
5894.03298	0.00663
5892.10430	0.00665
5890.17563	0.00667
5888.24695	0.00668
5886.31827	0.00667
5884.38960	0.00668
5882.46092	0.00669
5880.53225	0.00671
5878.60357	0.00673
5876.67490	0.00674
5874.74622	0.00674
5872.81755	0.00677
5870.88887	0.00680
5868.96019	0.00683
5867.03152	0.00685
5865.10284	0.00686
5863.17417	0.00686
5861.24549	0.00687
5859.31682	0.00687
5857.38814	0.00687
5855.45946	0.00687
5853.53079	0.00689
5851.60211	0.00692
5849.67344	0.00693
5847.74476	0.00694
5845.81609	0.00695
5843.88741	0.00698
5841.95873	0.00701
5840.03006	0.00703
5838.10138	0.00704
5836.17271	0.00705
5834.24403	0.00706
5832.31536	0.00708
5830.38668	0.00710
5828.45800	0.00711
5826.52933	0.00712
5824.60065	0.00712
5822.67198	0.00712
5820.74330	0.00714
5818.81463	0.00718
5816.88595	0.00721
5814.95727	0.00721
5813.02860	0.00720
5811.09992	0.00720
5809.17125	0.00723
5807.24257	0.00727
5805.31390	0.00730
5803.38522	0.00731
5801.45654	0.00732
5799.52787	0.00733
5797.59919	0.00734
5795.67052	0.00734
5793.74184	0.00736
5791.81317	0.00739
5789.88449	0.00742
5787.95581	0.00745
5786.02714	0.00747
5784.09846	0.00748
5782.16979	0.00747
5780.24111	0.00747
5778.31244	0.00748
5776.38376	0.00750
5774.45508	0.00752
5772.52641	0.00754
5770.59773	0.00756
5768.66906	0.00757
5766.74038	0.00758
5764.81171	0.00759
5762.88303	0.00762
5760.95435	0.00764
5759.02568	0.00766
5757.09700	0.00766
5755.16833	0.00766
5753.23965	0.00767
5751.31098	0.00769
5749.38230	0.00770
5747.45362	0.00771
5745.52495	0.00772
5743.59627	0.00775
5741.66760	0.00776
5739.73892	0.00777
5737.81025	0.00779
5735.88157	0.00782
5733.95289	0.00785
5732.02422	0.00787
5730.09554	0.00787
5728.16687	0.00787
5726.23819	0.00789
5724.30952	0.00791
5722.38084	0.00792
5720.45216	0.00794
5718.52349	0.00796
5716.59481	0.00797
5714.66614	0.00799
5712.73746	0.00802
5710.80879	0.00804
5708.88011	0.00805
5706.95143	0.00807
5705.02276	0.00808
5703.09408	0.00810
5701.16541	0.00811
5699.23673	0.00810
5697.30806	0.00811
5695.37938	0.00814
5693.45070	0.00819
5691.52203	0.00823
5689.59335	0.00825
5687.66468	0.00825
5685.73600	0.00825
5683.80733	0.00826
5681.87865	0.00827
5679.94997	0.00828
5678.02130	0.00828
5676.09262	0.00829
5674.16395	0.00830
5672.23527	0.00831
5670.30660	0.00833
5668.37792	0.00836
5666.44924	0.00840
5664.52057	0.00843
5662.59189	0.00845
5660.66322	0.00846
5658.73454	0.00848
5656.80587	0.00849
5654.87719	0.00851
5652.94851	0.00853
5651.01984	0.00853
5649.09116	0.00855
5647.16249	0.00857
5645.23381	0.00859
5643.30514	0.00862
5641.37646	0.00864
5639.44778	0.00865
5637.51911	0.00865
5635.59043	0.00866
5633.66176	0.00869
5631.73308	0.00871
5629.80441	0.00871
5627.87573	0.00872
5625.94705	0.00874
5624.01838	0.00875
5622.08970	0.00876
5620.16103	0.00879
5618.23235	0.00883
5616.30368	0.00887
5614.37500	0.00889
5612.44632	0.00890
5610.51765	0.00890
5608.58897	0.00891
5606.66030	0.00892
5604.73162	0.00894
5602.80295	0.00896
5600.87427	0.00898
5598.94559	0.00901
5597.01692	0.00904
5595.08824	0.00907
5593.15957	0.00909
5591.23089	0.00911
5589.30222	0.00912
5587.37354	0.00912
5585.44486	0.00912
5583.51619	0.00913
5581.58751	0.00915
5579.65884	0.00915
5577.73016	0.00917
5575.80149	0.00919
5573.87281	0.00922
5571.94413	0.00923
5570.01546	0.00925
5568.08678	0.00927
5566.15811	0.00930
5564.22943	0.00931
5562.30076	0.00931
5560.37208	0.00932
5558.44340	0.00934
5556.51473	0.00936
5554.58605	0.00938
5552.65738	0.00939
5550.72870	0.00941
5548.80003	0.00943
5546.87135	0.00945
5544.94267	0.00947
5543.01400	0.00951
5541.08532	0.00954
5539.15665	0.00955
5537.22797	0.00955
5535.29930	0.00956
5533.37062	0.00958
5531.44194	0.00962
5529.51327	0.00966
5527.58459	0.00970
5525.65592	0.00972
5523.72724	0.00971
5521.79857	0.00970
5519.86989	0.00971
5517.94121	0.00973
5516.01254	0.00976
5514.08386	0.00979
5512.15519	0.00982
5510.22651	0.00985
5508.29784	0.00986
5506.36916	0.00987
5504.44048	0.00990
5502.51181	0.00991
5500.58313	0.00991
5498.65446	0.00992
5496.72578	0.00994
5494.79711	0.00995
5492.86843	0.00997
5490.93975	0.00998
5489.01108	0.01000
5487.08240	0.01002
5485.15373	0.01006
5483.22505	0.01010
5481.29638	0.01012
5479.36770	0.01012
5477.43902	0.01012
5475.51035	0.01012
5473.58167	0.01015
5471.65300	0.01018
5469.72432	0.01020
5467.79565	0.01022
5465.86697	0.01023
5463.93829	0.01024
5462.00962	0.01024
5460.08094	0.01026
5458.15227	0.01029
5456.22359	0.01034
5454.29492	0.01036
5452.36624	0.01038
5450.43756	0.01040
5448.50889	0.01043
5446.58021	0.01046
5444.65154	0.01047
5442.72286	0.01048
5440.79419	0.01050
5438.86551	0.01052
5436.93683	0.01054
5435.00816	0.01056
5433.07948	0.01060
5431.15081	0.01060
5429.22213	0.01058
5427.29346	0.01059
5425.36478	0.01063
5423.43610	0.01067
5421.50743	0.01070
5419.57875	0.01073
5417.65008	0.01076
5415.72140	0.01076
5413.79273	0.01074
5411.86405	0.01076
5409.93537	0.01080
5408.00670	0.01083
5406.07802	0.01084
5404.14935	0.01086
5402.22067	0.01090
5400.29200	0.01093
5398.36332	0.01093
5396.43464	0.01094
5394.50597	0.01095
5392.57729	0.01097
5390.64862	0.01098
5388.71994	0.01101
5386.79127	0.01104
5384.86259	0.01107
5382.93391	0.01109
5381.00524	0.01113
5379.07656	0.01115
5377.14789	0.01116
5375.21921	0.01118
5373.29054	0.01122
5371.36186	0.01125
5369.43318	0.01127
5367.50451	0.01127
5365.57583	0.01127
5363.64716	0.01130
5361.71848	0.01134
5359.78981	0.01136
5357.86113	0.01135
5355.93245	0.01135
5354.00378	0.01137
5352.07510	0.01141
5350.14643	0.01145
5348.21775	0.01146
5346.28908	0.01147
5344.36040	0.01148
5342.43172	0.01153
5340.50305	0.01154
5338.57437	0.01153
5336.64570	0.01155
5334.71702	0.01160
5332.78835	0.01163
5330.85967	0.01166
5328.93099	0.01169
5327.00232	0.01171
5325.07364	0.01174
5323.14497	0.01177
5321.21629	0.01180
5319.28762	0.01182
5317.35894	0.01182
5315.43026	0.01183
5313.50159	0.01185
5311.57291	0.01186
5309.64424	0.01187
5307.71556	0.01189
5305.78689	0.01193
5303.85821	0.01195
5301.92953	0.01194
5300.00086	0.01197
5298.07218	0.01201
5296.14351	0.01204
5294.21483	0.01205
5292.28616	0.01206
5290.35748	0.01209
5288.42880	0.01211
5286.50013	0.01212
5284.57145	0.01215
5282.64278	0.01217
5280.71410	0.01219
5278.78543	0.01223
5276.85675	0.01226
5274.92807	0.01226
5272.99940	0.01226
5271.07072	0.01227
5269.14205	0.01230
5267.21337	0.01231
5265.28470	0.01232
5263.35602	0.01236
5261.42734	0.01240
5259.49867	0.01244
5257.56999	0.01246
5255.64132	0.01248
5253.71264	0.01250
5251.78397	0.01252
5249.85529	0.01253
5247.92661	0.01255
5245.99794	0.01256
5244.06926	0.01257
5242.14059	0.01258
5240.21191	0.01260
5238.28324	0.01263
5236.35456	0.01267
5234.42588	0.01271
5232.49721	0.01274
5230.56853	0.01275
5228.63986	0.01276
5226.71118	0.01277
5224.78251	0.01280
5222.85383	0.01284
5220.92515	0.01288
5218.99648	0.01290
5217.06780	0.01290
5215.13913	0.01291
5213.21045	0.01294
5211.28178	0.01297
5209.35310	0.01299
5207.42442	0.01300
5205.49575	0.01303
5203.56707	0.01307
5201.63840	0.01310
5199.70972	0.01311
5197.78105	0.01313
5195.85237	0.01316
5193.92369	0.01318
5191.99502	0.01319
5190.06634	0.01322
5188.13767	0.01325
5186.20899	0.01329
5184.28032	0.01331
5182.35164	0.01333
5180.42296	0.01335
5178.49429	0.01335
5176.56561	0.01336
5174.63694	0.01338
5172.70826	0.01343
5170.77959	0.01347
5168.85091	0.01349
5166.92223	0.01351
5164.99356	0.01353
5163.06488	0.01353
5161.13621	0.01354
5159.20753	0.01356
5157.27886	0.01359
5155.35018	0.01361
5153.42150	0.01363
5151.49283	0.01366
5149.56415	0.01370
5147.63548	0.01375
5145.70680	0.01379
5143.77813	0.01380
5141.84945	0.01379
5139.92077	0.01381
5137.99210	0.01384
5136.06342	0.01388
5134.13475	0.01391
5132.20607	0.01392
5130.27740	0.01394
5128.34872	0.01396
5126.42004	0.01399
5124.49137	0.01401
5122.56269	0.01403
5120.63402	0.01405
5118.70534	0.01407
5116.77667	0.01410
5114.84799	0.01413
5112.91931	0.01415
5110.99064	0.01417
5109.06196	0.01419
5107.13329	0.01421
5105.20461	0.01423
5103.27594	0.01424
5101.34726	0.01427
5099.41858	0.01430
5097.48991	0.01432
5095.56123	0.01434
5093.63256	0.01436
5091.70388	0.01439
5089.77521	0.01442
5087.84653	0.01445
5085.91785	0.01446
5083.98918	0.01448
5082.06050	0.01450
5080.13183	0.01453
5078.20315	0.01458
5076.27448	0.01462
5074.34580	0.01465
5072.41712	0.01466
5070.48845	0.01465
5068.55977	0.01465
5066.63110	0.01468
5064.70242	0.01473
5062.77375	0.01477
5060.84507	0.01481
5058.91639	0.01483
5056.98772	0.01484
5055.05904	0.01484
5053.13037	0.01486
5051.20169	0.01490
5049.27302	0.01493
5047.34434	0.01497
5045.41566	0.01499
5043.48699	0.01500
5041.55831	0.01501
5039.62964	0.01503
5037.70096	0.01505
5035.77229	0.01507
5033.84361	0.01511
5031.91493	0.01516
5029.98626	0.01518
5028.05758	0.01519
5026.12891	0.01523
5024.20023	0.01527
5022.27156	0.01530
5020.34288	0.01531
5018.41420	0.01532
5016.48553	0.01533
5014.55685	0.01537
5012.62818	0.01541
5010.69950	0.01543
5008.77083	0.01546
5006.84215	0.01549
5004.91347	0.01551
5002.98480	0.01553
5001.05612	0.01554
4999.12745	0.01556
4997.19877	0.01558
4995.27010	0.01559
4993.34142	0.01561
4991.41274	0.01565
4989.48407	0.01568
4987.55539	0.01570
4985.62672	0.01572
4983.69804	0.01573
4981.76937	0.01578
4979.84069	0.01583
4977.91201	0.01585
4975.98334	0.01586
4974.05466	0.01588
4972.12599	0.01592
4970.19731	0.01596
4968.26864	0.01598
4966.33996	0.01600
4964.41128	0.01604
4962.48261	0.01607
4960.55393	0.01610
4958.62526	0.01612
4956.69658	0.01615
4954.76791	0.01616
4952.83923	0.01617
4950.91055	0.01618
4948.98188	0.01620
4947.05320	0.01623
4945.12453	0.01628
4943.19585	0.01631
4941.26718	0.01633
4939.33850	0.01638
4937.40982	0.01643
4935.48115	0.01645
4933.55247	0.01645
4931.62380	0.01646
4929.69512	0.01648
4927.76645	0.01649
4925.83777	0.01651
4923.90909	0.01655
4921.98042	0.01658
4920.05174	0.01662
4918.12307	0.01666
4916.19439	0.01670
4914.26572	0.01672
4912.33704	0.01673
4910.40836	0.01675
4908.47969	0.01678
4906.55101	0.01681
4904.62234	0.01683
4902.69366	0.01685
4900.76499	0.01688
4898.83631	0.01691
4896.90763	0.01692
4894.97896	0.01694
4893.05028	0.01696
4891.12161	0.01698
4889.19293	0.01702
4887.26426	0.01709
4885.33558	0.01715
4883.40690	0.01717
4881.47823	0.01716
4879.54955	0.01717
4877.62088	0.01719
4875.69220	0.01722
4873.76353	0.01726
4871.83485	0.01729
4869.90617	0.01731
4867.97750	0.01733
4866.04882	0.01735
4864.12015	0.01737
4862.19147	0.01741
4860.26280	0.01744
4858.33412	0.01745
4856.40544	0.01748
4854.47677	0.01752
4852.54809	0.01756
4850.61942	0.01761
4848.69074	0.01767
4846.76207	0.01770
4844.83339	0.01772
4842.90471	0.01772
4840.97604	0.01774
4839.04736	0.01778
4837.11869	0.01780
4835.19001	0.01780
4833.26134	0.01781
4831.33266	0.01785
4829.40398	0.01790
4827.47531	0.01793
4825.54663	0.01796
4823.61796	0.01799
4821.68928	0.01801
4819.76061	0.01803
4817.83193	0.01807
4815.90325	0.01810
4813.97458	0.01812
4812.04590	0.01816
4810.11723	0.01819
4808.18855	0.01823
4806.25988	0.01825
4804.33120	0.01827
4802.40252	0.01830
4800.47385	0.01833
4798.54517	0.01835
4796.61650	0.01838
4794.68782	0.01841
4792.75915	0.01842
4790.83047	0.01843
4788.90179	0.01845
4786.97312	0.01849
4785.04444	0.01854
4783.11577	0.01858
4781.18709	0.01861
4779.25842	0.01863
4777.32974	0.01867
4775.40106	0.01872
4773.47239	0.01877
4771.54371	0.01881
4769.61504	0.01882
4767.68636	0.01884
4765.75769	0.01886
4763.82901	0.01890
4761.90033	0.01893
4759.97166	0.01895
4758.04298	0.01898
4756.11431	0.01901
4754.18563	0.01903
4752.25696	0.01905
4750.32828	0.01908
4748.39960	0.01911
4746.47093	0.01912
4744.54225	0.01914
4742.61358	0.01919
4740.68490	0.01925
4738.75623	0.01928
4736.82755	0.01930
4734.89887	0.01934
4732.97020	0.01939
4731.04152	0.01943
4729.11285	0.01947
4727.18417	0.01951
4725.25550	0.01954
4723.32682	0.01955
4721.39814	0.01956
4719.46947	0.01960
4717.54079	0.01964
4715.61212	0.01967
4713.68344	0.01969
4711.75477	0.01971
4709.82609	0.01973
4707.89741	0.01974
4705.96874	0.01977
4704.04006	0.01982
4702.11139	0.01986
4700.18271	0.01989
4698.25404	0.01991
4696.32536	0.01994
4694.39668	0.01998
4692.46801	0.02001
4690.53933	0.02004
4688.61066	0.02007
4686.68198	0.02010
4684.75331	0.02013
4682.82463	0.02017
4680.89595	0.02021
4678.96728	0.02022
4677.03860	0.02024
4675.10993	0.02029
4673.18125	0.02032
4671.25258	0.02036
4669.32390	0.02041
4667.39522	0.02046
4665.46655	0.02049
4663.53787	0.02051
4661.60920	0.02055
4659.68052	0.02058
4657.75185	0.02061
4655.82317	0.02064
4653.89449	0.02066
4651.96582	0.02069
4650.03714	0.02075
4648.10847	0.02079
4646.17979	0.02082
4644.25112	0.02084
4642.32244	0.02089
4640.39376	0.02093
4638.46509	0.02095
4636.53641	0.02098
4634.60774	0.02102
4632.67906	0.02107
4630.75039	0.02111
4628.82171	0.02114
4626.89303	0.02117
4624.96436	0.02119
4623.03568	0.02122
4621.10701	0.02127
4619.17833	0.02133
4617.24966	0.02135
4615.32098	0.02136
4613.39230	0.02139
4611.46363	0.02143
4609.53495	0.02147
4607.60628	0.02148
4605.67760	0.02149
4603.74893	0.02151
4601.82025	0.02154
4599.89157	0.02160
4597.96290	0.02166
4596.03422	0.02172
4594.10555	0.02176
4592.17687	0.02179
4590.24820	0.02182
4588.31952	0.02185
4586.39084	0.02188
4584.46217	0.02195
4582.53349	0.02201
4580.60482	0.02205
4578.67614	0.02206
4576.74747	0.02207
4574.81879	0.02208
4572.89011	0.02209
4570.96144	0.02214
4569.03276	0.02219
4567.10409	0.02223
4565.17541	0.02225
4563.24674	0.02230
4561.31806	0.02236
4559.38938	0.02240
4557.46071	0.02243
4555.53203	0.02246
4553.60336	0.02250
4551.67468	0.02254
4549.74601	0.02256
4547.81733	0.02258
4545.88865	0.02261
4543.95998	0.02265
4542.03130	0.02270
4540.10263	0.02274
4538.17395	0.02280
4536.24528	0.02286
4534.31660	0.02289
4532.38792	0.02291
4530.45925	0.02294
4528.53057	0.02297
4526.60190	0.02299
4524.67322	0.02302
4522.74455	0.02307
4520.81587	0.02313
4518.88719	0.02317
4516.95852	0.02320
4515.02984	0.02324
4513.10117	0.02329
4511.17249	0.02332
4509.24382	0.02336
4507.31514	0.02339
4505.38646	0.02344
4503.45779	0.02349
4501.52911	0.02351
4499.60044	0.02352
4497.67176	0.02354
4495.74309	0.02358
4493.81441	0.02363
4491.88573	0.02370
4489.95706	0.02377
4488.02838	0.02382
4486.09971	0.02385
4484.17103	0.02389
4482.24236	0.02394
4480.31368	0.02398
4478.38500	0.02399
4476.45633	0.02400
4474.52765	0.02404
4472.59898	0.02410
4470.67030	0.02417
4468.74163	0.02423
4466.81295	0.02427
4464.88427	0.02430
4462.95560	0.02433
4461.02692	0.02437
4459.09825	0.02442
4457.16957	0.02446
4455.24090	0.02450
4453.31222	0.02454
4451.38354	0.02458
4449.45487	0.02464
4447.52619	0.02469
4445.59752	0.02474
4443.66884	0.02478
4441.74017	0.02481
4439.81149	0.02484
4437.88281	0.02488
4435.95414	0.02491
4434.02546	0.02495
4432.09679	0.02501
4430.16811	0.02507
4428.23944	0.02511
4426.31076	0.02515
4424.38208	0.02519
4422.45341	0.02524
4420.52473	0.02528
4418.59606	0.02532
4416.66738	0.02537
4414.73871	0.02540
4412.81003	0.02542
4410.88135	0.02545
4408.95268	0.02550
4407.02400	0.02557
4405.09533	0.02562
4403.16665	0.02566
4401.23798	0.02572
4399.30930	0.02577
4397.38062	0.02581
4395.45195	0.02585
4393.52327	0.02590
4391.59460	0.02594
4389.66592	0.02598
4387.73725	0.02602
4385.80857	0.02607
4383.87989	0.02614
4381.95122	0.02619
4380.02254	0.02622
4378.09387	0.02629
4376.16519	0.02635
4374.23652	0.02638
4372.30784	0.02642
4370.37916	0.02648
4368.45049	0.02652
4366.52181	0.02656
4364.59314	0.02660
4362.66446	0.02663
4360.73579	0.02666
4358.80711	0.02673
4356.87843	0.02682
4354.94976	0.02691
4353.02108	0.02695
4351.09241	0.02697
4349.16373	0.02699
4347.23506	0.02703
4345.30638	0.02706
4343.37770	0.02711
4341.44903	0.02717
4339.52035	0.02722
4337.59168	0.02727
4335.66300	0.02732
4333.73433	0.02738
4331.80565	0.02745
4329.87697	0.02750
4327.94830	0.02754
4326.01962	0.02761
4324.09095	0.02767
4322.16227	0.02771
4320.23360	0.02774
4318.30492	0.02779
4316.37624	0.02784
4314.44757	0.02789
4312.51889	0.02793
4310.59022	0.02799
4308.66154	0.02805
4306.73287	0.02811
4304.80419	0.02815
4302.87551	0.02819
4300.94684	0.02824
4299.01816	0.02827
4297.08949	0.02833
4295.16081	0.02839
4293.23214	0.02844
4291.30346	0.02849
4289.37478	0.02856
4287.44611	0.02863
4285.51743	0.02869
4283.58876	0.02873
4281.66008	0.02875
4279.73141	0.02880
4277.80273	0.02888
4275.87405	0.02894
4273.94538	0.02897
4272.01670	0.02901
4270.08803	0.02908
4268.15935	0.02913
4266.23068	0.02917
4264.30200	0.02922
4262.37332	0.02928
4260.44465	0.02932
4258.51597	0.02936
4256.58730	0.02940
4254.65862	0.02944
4252.72995	0.02947
4250.80127	0.02953
4248.87259	0.02961
4246.94392	0.02970
4245.01524	0.02978
4243.08657	0.02984
4241.15789	0.02991
4239.22922	0.02998
4237.30054	0.03003
4235.37186	0.03005
4233.44319	0.03006
4231.51451	0.03010
4229.58584	0.03017
4227.65716	0.03025
4225.72849	0.03031
4223.79981	0.03037
4221.87113	0.03043
4219.94246	0.03049
4218.01378	0.03054
4216.08511	0.03059
4214.15643	0.03063
4212.22776	0.03068
4210.29908	0.03074
4208.37040	0.03079
4206.44173	0.03086
4204.51305	0.03094
4202.58438	0.03100
4200.65570	0.03104
4198.72703	0.03108
4196.79835	0.03113
4194.86968	0.03119
4192.94100	0.03126
4191.01232	0.03133
4189.08365	0.03139
4187.15497	0.03143
4185.22630	0.03147
4183.29762	0.03153
4181.36895	0.03160
4179.44027	0.03168
4177.51159	0.03175
4175.58292	0.03180
4173.65424	0.03183
4171.72557	0.03188
4169.79689	0.03195
4167.86822	0.03203
4165.93954	0.03211
4164.01086	0.03218
4162.08219	0.03224
4160.15351	0.03228
4158.22484	0.03233
4156.29616	0.03240
4154.36749	0.03247
4152.43881	0.03253
4150.51013	0.03258
4148.58146	0.03263
4146.65278	0.03270
4144.72411	0.03278
4142.79543	0.03285
4140.86676	0.03292
4138.93808	0.03296
4137.00940	0.03301
4135.08073	0.03308
4133.15205	0.03318
4131.22338	0.03326
4129.29470	0.03330
4127.36603	0.03333
4125.43735	0.03338
4123.50867	0.03346
4121.58000	0.03352
4119.65132	0.03355
4117.72265	0.03359
4115.79397	0.03367
4113.86530	0.03377
4111.93662	0.03383
4110.00794	0.03389
4108.07927	0.03396
4106.15059	0.03403
4104.22192	0.03410
4102.29324	0.03417
4100.36457	0.03424
4098.43589	0.03431
4096.50721	0.03438
4094.57854	0.03444
4092.64986	0.03450
4090.72119	0.03456
4088.79251	0.03461
4086.86384	0.03467
4084.93516	0.03473
4083.00648	0.03479
4081.07781	0.03485
4079.14913	0.03492
4077.22046	0.03499
4075.29178	0.03506
4073.36311	0.03511
4071.43443	0.03516
4069.50575	0.03521
4067.57708	0.03528
4065.64840	0.03536
4063.71973	0.03542
4061.79105	0.03549
4059.86238	0.03557
4057.93370	0.03565
4056.00502	0.03573
4054.07635	0.03580
4052.14767	0.03587
4050.21900	0.03592
4048.29032	0.03596
4046.36165	0.03601
4044.43297	0.03608
4042.50429	0.03615
4040.57562	0.03622
4038.64694	0.03631
4036.71827	0.03641
4034.78959	0.03650
4032.86092	0.03657
4030.93224	0.03664
4029.00356	0.03670
4027.07489	0.03676
4025.14621	0.03681
4023.21754	0.03689
4021.28886	0.03697
4019.36019	0.03706
4017.43151	0.03712
4015.50283	0.03718
4013.57416	0.03723
4011.64548	0.03729
4009.71681	0.03737
4007.78813	0.03745
4005.85946	0.03754
4003.93078	0.03762
4002.00210	0.03771
4000.07343	0.03779
3998.14475	0.03785
3996.21608	0.03790
3994.28740	0.03798
3992.35873	0.03807
3990.43005	0.03814
3988.50137	0.03819
3986.57270	0.03824
3984.64402	0.03830
3982.71535	0.03836
3980.78667	0.03843
3978.85800	0.03853
3976.92932	0.03863
3975.00064	0.03871
3973.07197	0.03877
3971.14329	0.03882
3969.21462	0.03890
3967.28594	0.03899
3965.35727	0.03908
3963.42859	0.03916
3961.49991	0.03923
3959.57124	0.03930
3957.64256	0.03935
3955.71389	0.03939
3953.78521	0.03943
3951.85654	0.03949
3949.92786	0.03955
3947.99918	0.03963
3946.07051	0.03971
3944.14183	0.03977
3942.21316	0.03985
3940.28448	0.03996
3938.35581	0.04005
3936.42713	0.04011
3934.49845	0.04017
3932.56978	0.04025
3930.64110	0.04033
3928.71243	0.04042
3926.78375	0.04050
3924.85508	0.04054
3922.92640	0.04060
3920.99772	0.04067
3919.06905	0.04074
3917.14037	0.04083
3915.21170	0.04096
3913.28302	0.04108
3911.35435	0.04119
3909.42567	0.04125
3907.49699	0.04121
3905.56832	0.04109
3903.63964	0.04106
3901.71097	0.04117
3899.78229	0.04135
3897.85362	0.04155
3895.92494	0.04169
3893.99626	0.04172
3892.06759	0.04174
3890.13891	0.04184
3888.21024	0.04190
3886.28156	0.04189
3884.35289	0.04197
3882.42421	0.04210
3880.49553	0.04221
3878.56686	0.04235
3876.63818	0.04242
3874.70951	0.04240
3872.78083	0.04238
3870.85216	0.04240
3868.92348	0.04253
3866.99480	0.04273
3865.06613	0.04286
3863.13745	0.04296
3861.20878	0.04309
3859.28010	0.04319
3857.35143	0.04314
3855.42275	0.04294
3853.49407	0.04287
3851.56540	0.04312
3849.63672	0.04348
3847.70805	0.04368
3845.77937	0.04371
3843.85070	0.04369
3841.92202	0.04370
3839.99334	0.04376
3838.06467	0.04390
3836.13599	0.04406
3834.20732	0.04418
3832.27864	0.04427
3830.34997	0.04438
3828.42129	0.04449
3826.49261	0.04459
3824.56394	0.04458
3822.63526	0.04446
3820.70659	0.04448
3818.77791	0.04471
3816.84924	0.04488
3814.92056	0.04500
3812.99188	0.04515
3811.06321	0.04527
3809.13453	0.04528
3807.20586	0.04528
3805.27718	0.04535
3803.34851	0.04542
3801.41983	0.04549
3799.49115	0.04562
3797.56248	0.04574
3795.63380	0.04586
3793.70513	0.04604
3791.77645	0.04621
3789.84778	0.04632
3787.91910	0.04636
3785.99042	0.04639
3784.06175	0.04645
3782.13307	0.04651
3780.20440	0.04656
3778.27572	0.04667
3776.34705	0.04684
3774.41837	0.04696
3772.48969	0.04699
3770.56102	0.04701
3768.63234	0.04707
3766.70367	0.04715
3764.77499	0.04727
3762.84632	0.04741
3760.91764	0.04747
3758.98896	0.04751
3757.06029	0.04760
3755.13161	0.04763
3753.20294	0.04754
3751.27426	0.04743
3749.34559	0.04750
3747.41691	0.04764
3745.48823	0.04771
3743.55956	0.04785
3741.63088	0.04811
3739.70221	0.04823
3737.77353	0.04811
3735.84486	0.04801
3733.91618	0.04815
3731.98750	0.04845
3730.05883	0.04870
3728.13015	0.04882
3726.20148	0.04888
3724.27280	0.04898
3722.34413	0.04911
3720.41545	0.04926
3718.48677	0.04943
3716.55810	0.04951
3714.62942	0.04943
3712.70075	0.04932
3710.77207	0.04942
3708.84340	0.04967
3706.91472	0.04989
3704.98604	0.05000
3703.05737	0.05003
3701.12869	0.05011
3699.20002	0.05027
3697.27134	0.05042
3695.34267	0.05051
3693.41399	0.05054
3691.48531	0.05051
3689.55664	0.05053
3687.62796	0.05067
3685.69929	0.05088
3683.77061	0.05102
3681.84194	0.05107
3679.91326	0.05104
3677.98458	0.05092
3676.05591	0.05080
3674.12723	0.05089
3672.19856	0.05108
3670.26988	0.05124
3668.34121	0.05146
3666.41253	0.05170
3664.48385	0.05185
3662.55518	0.05195
3660.62650	0.05201
3658.69783	0.05197
3656.76915	0.05193
3654.84048	0.05199
3652.91180	0.05199
3650.98312	0.05182
3649.05445	0.05173
3647.12577	0.05191
3645.19710	0.05225
3643.26842	0.05254
3641.33975	0.05273
3639.41107	0.05283
3637.48239	0.05288
3635.55372	0.05291
3633.62504	0.05290
3631.69637	0.05275
3629.76769	0.05261
3627.83902	0.05278
3625.91034	0.05313
3623.98166	0.05331
3622.05299	0.05330
3620.12431	0.05324
3618.19564	0.05323
3616.26696	0.05330
3614.33829	0.05341
3612.40961	0.05352
3610.48093	0.05356
3608.55226	0.05358
3606.62358	0.05371
3604.69491	0.05389
3602.76623	0.05396
3600.83756	0.05400
3598.90888	0.05408
3596.98020	0.05413
3595.05153	0.05416
3593.12285	0.05426
3591.19418	0.05427
3589.26550	0.05418
3587.33683	0.05424
3585.40815	0.05449
3583.47947	0.05473
3581.55080	0.05485
3579.62212	0.05491
3577.69345	0.05494
3575.76477	0.05500
3573.83610	0.05507
3571.90742	0.05511
3569.97874	0.05507
3568.05007	0.05501
3566.12139	0.05508
3564.19272	0.05527
3562.26404	0.05544
3560.33537	0.05558
3558.40669	0.05567
3556.47801	0.05571
3554.54934	0.05571
3552.62066	0.05579
3550.69199	0.05590
3548.76331	0.05592
3546.83464	0.05589
3544.90596	0.05595
3542.97728	0.05608
3541.04861	0.05618
3539.11993	0.05625
3537.19126	0.05632
3535.26258	0.05640
3533.33391	0.05645
3531.40523	0.05646
3529.47655	0.05645
3527.54788	0.05646
3525.61920	0.05650
3523.69053	0.05657
3521.76185	0.05666
3519.83318	0.05675
3517.90450	0.05681
3515.97582	0.05684
3514.04715	0.05686
3512.11847	0.05686
3510.18980	0.05687
3508.26112	0.05691
3506.33245	0.05695
3504.40377	0.05695
3502.47509	0.05696
3500.54642	0.05702
3498.61774	0.05709
3496.68907	0.05715
3494.76039	0.05719
3492.83172	0.05719
3490.90304	0.05717
3488.97436	0.05716
3487.04569	0.05719
3485.11701	0.05724
3483.18834	0.05728
3481.25966	0.05735
3479.33099	0.05743
3477.40231	0.05750
3475.47363	0.05756
3473.54496	0.05761
3471.61628	0.05768
3469.68761	0.05775
3467.75893	0.05783
3465.83026	0.05794
3463.90158	0.05806
3461.97290	0.05819
3460.04423	0.05831
3458.11555	0.05839
3456.18688	0.05845
3454.25820	0.05853
3452.32953	0.05861
3450.40085	0.05870
3448.47217	0.05879
3446.54350	0.05890
3444.61482	0.05901
3442.68615	0.05909
3440.75747	0.05918
3438.82880	0.05931
3436.90012	0.05950
3434.97144	0.05969
3433.04277	0.05985
3431.11409	0.06002
3429.18542	0.06019
3427.25674	0.06036
3425.32807	0.06052
3423.39939	0.06069
3421.47071	0.06088
3419.54204	0.06109
3417.61336	0.06127
3415.68469	0.06140
3413.75601	0.06152
3411.82734	0.06167
3409.89866	0.06183
3407.96998	0.06197
3406.04131	0.06208
3404.11263	0.06220
3402.18396	0.06233
3400.25528	0.06244
3398.32661	0.06254
3396.39793	0.06264
3394.46925	0.06276
3392.54058	0.06291
3390.61190	0.06308
3388.68323	0.06324
3386.75455	0.06338
3384.82588	0.06350
3382.89720	0.06361
3380.96852	0.06372
3379.03985	0.06384
3377.11117	0.06397
3375.18250	0.06412
3373.25382	0.06425
3371.32515	0.06435
3369.39647	0.06444
3367.46779	0.06454
3365.53912	0.06465
3363.61044	0.06477
3361.68177	0.06489
3359.75309	0.06501
3357.82442	0.06514
3355.89574	0.06528
3353.96706	0.06539
3352.03839	0.06549
3350.10971	0.06557
3348.18104	0.06566
3346.25236	0.06578
3344.32369	0.06591
3342.39501	0.06605
3340.46633	0.06619
3338.53766	0.06635
3336.60898	0.06649
3334.68031	0.06658
3332.75163	0.06665
3330.82296	0.06674
3328.89428	0.06687
3326.96560	0.06702
3325.03693	0.06717
3323.10825	0.06730
3321.17958	0.06741
3319.25090	0.06751
3317.32223	0.06763
3315.39355	0.06777
3313.46487	0.06790
3311.53620	0.06800
3309.60752	0.06810
3307.67885	0.06822
3305.75017	0.06836
3303.82150	0.06848
3301.89282	0.06857
3299.96414	0.06868
3298.03547	0.06883
3296.10679	0.06900
3294.17812	0.06914
3292.24944	0.06925
3290.32077	0.06940
3288.39209	0.06955
3286.46341	0.06967
3284.53474	0.06978
3282.60606	0.06991
3280.67739	0.07003
3278.74871	0.07013
3276.82004	0.07023
3274.89136	0.07036
3272.96268	0.07051
3271.03401	0.07064
3269.10533	0.07077
3267.17666	0.07090
3265.24798	0.07106
3263.31931	0.07122
3261.39063	0.07134
3259.46195	0.07143
3257.53328	0.07153
3255.60460	0.07165
3253.67593	0.07175
3251.74725	0.07187
3249.81858	0.07202
3247.88990	0.07217
3245.96122	0.07232
3244.03255	0.07247
3242.10387	0.07262
3240.17520	0.07274
3238.24652	0.07282
3236.31785	0.07292
3234.38917	0.07308
3232.46049	0.07324
3230.53182	0.07336
3228.60314	0.07345
3226.67447	0.07356
3224.74579	0.07368
3222.81712	0.07383
3220.88844	0.07400
3218.95976	0.07416
3217.03109	0.07428
3215.10241	0.07436
3213.17374	0.07445
3211.24506	0.07456
3209.31639	0.07471
3207.38771	0.07487
3205.45903	0.07503
3203.53036	0.07517
3201.60168	0.07528
3199.67301	0.07542
3197.74433	0.07557
3195.81566	0.07571
3193.88698	0.07584
3191.95830	0.07597
3190.02963	0.07612
3188.10095	0.07627
3186.17228	0.07642
3184.24360	0.07655
3182.31493	0.07664
3180.38625	0.07675
3178.45757	0.07687
3176.52890	0.07702
3174.60022	0.07717
3172.67155	0.07732
3170.74287	0.07746
3168.81420	0.07762
3166.88552	0.07778
3164.95684	0.07792
3163.02817	0.07805
3161.09949	0.07819
3159.17082	0.07833
3157.24214	0.07845
3155.31347	0.07856
3153.38479	0.07868
3151.45611	0.07883
3149.52744	0.07899
3147.59876	0.07913
3145.67009	0.07924
3143.74141	0.07933
3141.81274	0.07941
3139.88406	0.07954
3137.95538	0.07971
3136.02671	0.07989
3134.09803	0.08005
3132.16936	0.08020
3130.24068	0.08031
3128.31201	0.08041
3126.38333	0.08052
3124.45465	0.08066
3122.52598	0.08079
3120.59730	0.08091
3118.66863	0.08102
3116.73995	0.08115
3114.81128	0.08128
3112.88260	0.08144
3110.95392	0.08159
3109.02525	0.08174
3107.09657	0.08188
3105.16790	0.08203
3103.23922	0.08217
3101.31055	0.08230
3099.38187	0.08244
3097.45319	0.08259
3095.52452	0.08272
3093.59584	0.08283
3091.66717	0.08294
3089.73849	0.08305
3087.80982	0.08318
3085.88114	0.08332
3083.95246	0.08345
3082.02379	0.08357
3080.09511	0.08368
3078.16644	0.08381
3076.23776	0.08398
3074.30909	0.08414
3072.38041	0.08429
3070.45173	0.08443
3068.52306	0.08456
3066.59438	0.08466
3064.66571	0.08476
3062.73703	0.08489
3060.80836	0.08502
3058.87968	0.08515
3056.95100	0.08531
3055.02233	0.08549
3053.09365	0.08565
3051.16498	0.08577
3049.23630	0.08587
3047.30763	0.08599
3045.37895	0.08612
3043.45027	0.08624
3041.52160	0.08635
3039.59292	0.08650
3037.66425	0.08666
3035.73557	0.08681
3033.80690	0.08693
3031.87822	0.08706
3029.94954	0.08719
3028.02087	0.08731
3026.09219	0.08742
3024.16352	0.08753
3022.23484	0.08767
3020.30617	0.08784
3018.37749	0.08800
3016.44881	0.08813
3014.52014	0.08822
3012.59146	0.08830
3010.66279	0.08844
3008.73411	0.08860
3006.80544	0.08874
3004.87676	0.08887
3002.94808	0.08899
3001.01941	0.08913
2999.09073	0.08928
2997.16206	0.08942
2995.23338	0.08955
2993.30471	0.08968
2991.37603	0.08981
2989.44735	0.08991
2987.51868	0.08999
2985.59000	0.09007
2983.66133	0.09015
2981.73265	0.09022
2979.80398	0.09028
2977.87530	0.09033
2975.94662	0.09040
2974.01795	0.09044
2972.08927	0.09044
2970.16060	0.09043
2968.23192	0.09042
2966.30325	0.09042
2964.37457	0.09045
2962.44589	0.09053
2960.51722	0.09065
2958.58854	0.09082
2956.65987	0.09102
2954.73119	0.09122
2952.80252	0.09139
2950.87384	0.09155
2948.94516	0.09171
2947.01649	0.09184
2945.08781	0.09193
2943.15914	0.09198
2941.23046	0.09202
2939.30179	0.09203
2937.37311	0.09201
2935.44443	0.09198
2933.51576	0.09196
2931.58708	0.09193
2929.65841	0.09191
2927.72973	0.09192
2925.80106	0.09192
2923.87238	0.09192
2921.94370	0.09193
2920.01503	0.09198
2918.08635	0.09213
2916.15768	0.09241
2914.22900	0.09283
2912.30033	0.09332
2910.37165	0.09376
2908.44297	0.09410
2906.51430	0.09436
2904.58562	0.09457
2902.65695	0.09476
2900.72827	0.09494
2898.79960	0.09512
2896.87092	0.09532
2894.94224	0.09553
2893.01357	0.09572
2891.08489	0.09589
2889.15622	0.09607
2887.22754	0.09626
2885.29887	0.09643
2883.37019	0.09658
2881.44151	0.09674
2879.51284	0.09688
2877.58416	0.09698
2875.65549	0.09707
2873.72681	0.09718
2871.79814	0.09733
2869.86946	0.09748
2867.94078	0.09759
2866.01211	0.09766
2864.08343	0.09772
2862.15476	0.09778
2860.22608	0.09782
2858.29741	0.09786
2856.36873	0.09788
2854.44005	0.09788
2852.51138	0.09790
2850.58270	0.09798
2848.65403	0.09820
2846.72535	0.09859
2844.79668	0.09907
2842.86800	0.09948
2840.93932	0.09978
2839.01065	0.10002
2837.08197	0.10025
2835.15330	0.10045
2833.22462	0.10065
2831.29595	0.10084
2829.36727	0.10103
2827.43859	0.10119
2825.50992	0.10133
2823.58124	0.10146
2821.65257	0.10160
2819.72389	0.10174
2817.79522	0.10186
2815.86654	0.10197
2813.93786	0.10212
2812.00919	0.10229
2810.08051	0.10246
2808.15184	0.10264
2806.22316	0.10280
2804.29449	0.10294
2802.36581	0.10309
2800.43713	0.10326
2798.50846	0.10341
2796.57978	0.10354
2794.65111	0.10368
2792.72243	0.10384
2790.79376	0.10401
2788.86508	0.10418
2786.93640	0.10434
2785.00773	0.10447
2783.07905	0.10458
2781.15038	0.10470
2779.22170	0.10484
2777.29303	0.10500
2775.36435	0.10516
2773.43567	0.10532
2771.50700	0.10547
2769.57832	0.10560
2767.64965	0.10573
2765.72097	0.10583
2763.79230	0.10591
2761.86362	0.10605
2759.93494	0.10623
2758.00627	0.10641
2756.07759	0.10657
2754.14892	0.10672
2752.22024	0.10684
2750.29157	0.10694
2748.36289	0.10710
2746.43421	0.10727
2744.50554	0.10742
2742.57686	0.10754
2740.64819	0.10768
2738.71951	0.10781
2736.79084	0.10793
2734.86216	0.10806
2732.93348	0.10821
2731.00481	0.10834
2729.07613	0.10849
2727.14746	0.10865
2725.21878	0.10882
2723.29011	0.10897
2721.36143	0.10911
2719.43275	0.10923
2717.50408	0.10933
2715.57540	0.10944
2713.64673	0.10961
2711.71805	0.10979
2709.78938	0.10991
2707.86070	0.10999
2705.93202	0.11011
2704.00335	0.11027
2702.07467	0.11042
2700.14600	0.11052
2698.21732	0.11063
2696.28865	0.11079
2694.35997	0.11096
2692.43129	0.11110
2690.50262	0.11123
2688.57394	0.11132
2686.64527	0.11142
2684.71659	0.11153
2682.78792	0.11168
2680.85924	0.11184
2678.93056	0.11198
2677.00189	0.11213
2675.07321	0.11230
2673.14454	0.11246
2671.21586	0.11260
2669.28719	0.11272
2667.35851	0.11286
2665.42983	0.11302
2663.50116	0.11316
2661.57248	0.11329
2659.64381	0.11342
2657.71513	0.11357
2655.78646	0.11370
2653.85778	0.11384
2651.92910	0.11399
2650.00043	0.11413
2648.07175	0.11425
2646.14308	0.11438
2644.21440	0.11453
2642.28573	0.11470
2640.35705	0.11489
2638.42837	0.11507
2636.49970	0.11524
2634.57102	0.11539
2632.64235	0.11550
2630.71367	0.11563
2628.78500	0.11579
2626.85632	0.11596
2624.92764	0.11611
2622.99897	0.11624
2621.07029	0.11637
2619.14162	0.11652
2617.21294	0.11667
2615.28427	0.11682
2613.35559	0.11696
2611.42691	0.11711
2609.49824	0.11728
2607.56956	0.11744
2605.64089	0.11761
2603.71221	0.11779
2601.78354	0.11795
2599.85486	0.11807
2597.92618	0.11818
2595.99751	0.11831
2594.06883	0.11845
2592.14016	0.11860
2590.21148	0.11874
2588.28281	0.11889
2586.35413	0.11904
2584.42545	0.11918
2582.49678	0.11932
2580.56810	0.11944
2578.63943	0.11957
2576.71075	0.11971
2574.78208	0.11988
2572.85340	0.12003
2570.92472	0.12014
2568.99605	0.12026
2567.06737	0.12042
2565.13870	0.12057
2563.21002	0.12070
2561.28135	0.12083
2559.35267	0.12098
2557.42399	0.12113
2555.49532	0.12128
2553.56664	0.12144
2551.63797	0.12159
2549.70929	0.12173
2547.78062	0.12185
2545.85194	0.12197
2543.92326	0.12212
2541.99459	0.12224
2540.06591	0.12234
2538.13724	0.12247
2536.20856	0.12264
2534.27989	0.12281
2532.35121	0.12294
2530.42253	0.12308
2528.49386	0.12326
2526.56518	0.12345
2524.63651	0.12360
2522.70783	0.12375
2520.77916	0.12392
2518.85048	0.12409
2516.92181	0.12423
2514.99313	0.12436
2513.06445	0.12449
2511.13578	0.12467
2509.20710	0.12487
2507.27843	0.12503
2505.34975	0.12517
2503.42108	0.12533
2501.49240	0.12549
2499.56372	0.12564
2497.63505	0.12579
2495.70637	0.12595
2493.77770	0.12610
2491.84902	0.12624
2489.92035	0.12640
2487.99167	0.12657
2486.06299	0.12671
2484.13432	0.12684
2482.20564	0.12700
2480.27697	0.12720
2478.34829	0.12737
2476.41962	0.12751
2474.49094	0.12765
2472.56226	0.12783
2470.63359	0.12800
2468.70491	0.12813
2466.77624	0.12825
2464.84756	0.12838
2462.91889	0.12854
2460.99021	0.12871
2459.06153	0.12886
2457.13286	0.12900
2455.20418	0.12917
2453.27551	0.12935
2451.34683	0.12953
2449.41816	0.12966
2447.48948	0.12978
2445.56080	0.12992
2443.63213	0.13009
2441.70345	0.13025
2439.77478	0.13038
2437.84610	0.13052
2435.91743	0.13068
2433.98875	0.13084
2432.06007	0.13098
2430.13140	0.13112
2428.20272	0.13131
2426.27405	0.13152
2424.34537	0.13172
2422.41670	0.13189
2420.48802	0.13203
2418.55934	0.13216
2416.63067	0.13228
2414.70199	0.13242
2412.77332	0.13259
2410.84464	0.13276
2408.91597	0.13290
2406.98729	0.13302
2405.05861	0.13318
2403.12994	0.13335
2401.20126	0.13350
2399.27259	0.13363
2397.34391	0.13374
2395.41524	0.13384
2393.48656	0.13398
2391.55788	0.13414
2389.62921	0.13432
2387.70053	0.13449
2385.77186	0.13463
2383.84318	0.13477
2381.91451	0.13492
2379.98583	0.13500
2378.05715	0.13503
2376.12848	0.13504
2374.19980	0.13510
2372.27113	0.13516
2370.34245	0.13518
2368.41378	0.13518
2366.48510	0.13524
2364.55642	0.13535
2362.62775	0.13547
2360.69907	0.13561
2358.77040	0.13583
2356.84172	0.13610
2354.91305	0.13637
2352.98437	0.13661
2351.05569	0.13685
2349.12702	0.13705
2347.19834	0.13716
2345.26967	0.13723
2343.34099	0.13731
2341.41232	0.13741
2339.48364	0.13754
2337.55496	0.13767
2335.62629	0.13779
2333.69761	0.13790
2331.76894	0.13801
2329.84026	0.13816
2327.91159	0.13838
2325.98291	0.13865
2324.05423	0.13888
2322.12556	0.13905
2320.19688	0.13923
2318.26821	0.13943
2316.33953	0.13962
2314.41086	0.13981
2312.48218	0.14002
2310.55350	0.14024
2308.62483	0.14042
2306.69615	0.14056
2304.76748	0.14072
2302.83880	0.14091
2300.91013	0.14112
2298.98145	0.14132
2297.05277	0.14147
2295.12410	0.14162
2293.19542	0.14181
2291.26675	0.14198
2289.33807	0.14209
2287.40940	0.14219
2285.48072	0.14233
2283.55204	0.14251
2281.62337	0.14269
2279.69469	0.14284
2277.76602	0.14300
2275.83734	0.14320
2273.90867	0.14338
2271.97999	0.14351
2270.05131	0.14366
2268.12264	0.14380
2266.19396	0.14392
2264.26529	0.14406
2262.33661	0.14424
2260.40794	0.14442
2258.47926	0.14456
2256.55058	0.14470
2254.62191	0.14488
2252.69323	0.14505
2250.76456	0.14517
2248.83588	0.14527
2246.90721	0.14541
2244.97853	0.14557
2243.04985	0.14573
2241.12118	0.14586
2239.19250	0.14599
2237.26383	0.14616
2235.33515	0.14634
2233.40648	0.14648
2231.47780	0.14663
2229.54912	0.14680
2227.62045	0.14694
2225.69177	0.14707
2223.76310	0.14720
2221.83442	0.14736
2219.90575	0.14753
2217.97707	0.14769
2216.04839	0.14783
2214.11972	0.14797
2212.19104	0.14811
2210.26237	0.14826
2208.33369	0.14841
2206.40502	0.14856
2204.47634	0.14869
2202.54766	0.14880
2200.61899	0.14894
2198.69031	0.14910
2196.76164	0.14927
2194.83296	0.14943
2192.90429	0.14957
2190.97561	0.14969
2189.04693	0.14984
2187.11826	0.15002
2185.18958	0.15018
2183.26091	0.15030
2181.33223	0.15045
2179.40356	0.15063
2177.47488	0.15079
2175.54620	0.15095
2173.61753	0.15108
2171.68885	0.15120
2169.76018	0.15135
2167.83150	0.15154
2165.90283	0.15171
2163.97415	0.15184
2162.04547	0.15196
2160.11680	0.15210
2158.18812	0.15227
2156.25945	0.15243
2154.33077	0.15256
2152.40210	0.15272
2150.47342	0.15291
2148.54474	0.15312
2146.61607	0.15331
2144.68739	0.15347
2142.75872	0.15357
2140.83004	0.15367
2138.90137	0.15377
2136.97269	0.15391
2135.04401	0.15408
2133.11534	0.15429
2131.18666	0.15449
2129.25799	0.15462
2127.32931	0.15473
2125.40064	0.15486
2123.47196	0.15503
2121.54328	0.15520
2119.61461	0.15534
2117.68593	0.15544
2115.75726	0.15557
2113.82858	0.15575
2111.89991	0.15592
2109.97123	0.15603
2108.04255	0.15613
2106.11388	0.15630
2104.18520	0.15652
2102.25653	0.15672
2100.32785	0.15688
2098.39918	0.15703
2096.47050	0.15722
2094.54182	0.15738
2092.61315	0.15749
2090.68447	0.15762
2088.75580	0.15781
2086.82712	0.15799
2084.89845	0.15811
2082.96977	0.15825
2081.04109	0.15844
2079.11242	0.15865
2077.18374	0.15881
2075.25507	0.15895
2073.32639	0.15906
2071.39772	0.15917
2069.46904	0.15930
2067.54036	0.15947
2065.61169	0.15965
2063.68301	0.15981
2061.75434	0.15993
2059.82566	0.16005
2057.89699	0.16021
2055.96831	0.16039
2054.03963	0.16055
2052.11096	0.16070
2050.18228	0.16084
2048.25361	0.16098
2046.32493	0.16116
2044.39626	0.16134
2042.46758	0.16150
2040.53890	0.16164
2038.61023	0.16179
2036.68155	0.16197
2034.75288	0.16216
2032.82420	0.16232
2030.89553	0.16244
2028.96685	0.16255
2027.03817	0.16268
2025.10950	0.16287
2023.18082	0.16307
2021.25215	0.16325
2019.32347	0.16336
2017.39480	0.16346
2015.46612	0.16359
2013.53744	0.16374
2011.60877	0.16392
2009.68009	0.16412
2007.75142	0.16432
2005.82274	0.16450
2003.89407	0.16464
2001.96539	0.16477
2000.03671	0.16492
1998.10804	0.16510
1996.17936	0.16525
1994.25069	0.16534
1992.32201	0.16543
1990.39334	0.16560
1988.46466	0.16579
1986.53598	0.16594
1984.60731	0.16608
1982.67863	0.16623
1980.74996	0.16636
1978.82128	0.16649
1976.89261	0.16662
1974.96393	0.16673
1973.03525	0.16685
1971.10658	0.16696
1969.17790	0.16702
1967.24923	0.16706
1965.32055	0.16719
1963.39188	0.16738
1961.46320	0.16759
1959.53452	0.16777
1957.60585	0.16791
1955.67717	0.16806
1953.74850	0.16824
1951.81982	0.16842
1949.89115	0.16853
1947.96247	0.16860
1946.03379	0.16869
1944.10512	0.16881
1942.17644	0.16897
1940.24777	0.16919
1938.31909	0.16942
1936.39042	0.16961
1934.46174	0.16978
1932.53306	0.16994
1930.60439	0.17008
1928.67571	0.17023
1926.74704	0.17039
1924.81836	0.17046
1922.88969	0.17050
1920.96101	0.17054
1919.03233	0.17053
1917.10366	0.17070
1915.17498	0.17108
1913.24631	0.17136
1911.31763	0.17145
1909.38896	0.17157
1907.46028	0.17181
1905.53160	0.17203
1903.60293	0.17218
1901.67425	0.17232
1899.74558	0.17244
1897.81690	0.17249
1895.88823	0.17257
1893.95955	0.17278
1892.03087	0.17299
1890.10220	0.17308
1888.17352	0.17321
1886.24485	0.17341
1884.31617	0.17359
1882.38750	0.17377
1880.45882	0.17394
1878.53014	0.17407
1876.60147	0.17421
1874.67279	0.17435
1872.74412	0.17438
1870.81544	0.17424
1868.88677	0.17416
1866.95809	0.17442
1865.02941	0.17489
1863.10074	0.17525
1861.17206	0.17545
1859.24339	0.17562
1857.31471	0.17583
1855.38604	0.17604
1853.45736	0.17619
1851.52868	0.17629
1849.60001	0.17633
1847.67133	0.17623
1845.74266	0.17609
1843.81398	0.17621
1841.88531	0.17667
1839.95663	0.17708
1838.02795	0.17726
1836.09928	0.17741
1834.17060	0.17751
1832.24193	0.17738
1830.31325	0.17726
1828.38458	0.17746
1826.45590	0.17775
1824.52722	0.17798
1822.59855	0.17831
1820.66987	0.17866
1818.74120	0.17888
1816.81252	0.17902
1814.88385	0.17912
1812.95517	0.17909
1811.02649	0.17906
1809.09782	0.17925
1807.16914	0.17955
1805.24047	0.17971
1803.31179	0.17964
1801.38312	0.17950
1799.45444	0.17952
1797.52576	0.17971
1795.59709	0.17983
1793.66841	0.17982
1791.73974	0.17995
1789.81106	0.18028
1787.88239	0.18051
1785.95371	0.18050
1784.02503	0.18050
1782.09636	0.18059
1780.16768	0.18078
1778.23901	0.18112
1776.31033	0.18126
1774.38166	0.18097
1772.45298	0.18073
1770.52430	0.18094
1768.59563	0.18135
1766.66695	0.18173
1764.73828	0.18190
1762.80960	0.18180
1760.88093	0.18181
1758.95225	0.18197
1757.02357	0.18208
1755.09490	0.18218
1753.16622	0.18206
1751.23755	0.18173
1749.30887	0.18164
1747.38020	0.18184
1745.45152	0.18203
1743.52284	0.18209
1741.59417	0.18210
1739.66549	0.18212
1737.73682	0.18191
1735.80814	0.18134
1733.87947	0.18115
1731.95079	0.18176
1730.02211	0.18242
1728.09344	0.18278
1726.16476	0.18299
1724.23609	0.18309
1722.30741	0.18314
1720.37874	0.18301
1718.45006	0.18279
1716.52138	0.18282
1714.59271	0.18319
1712.66403	0.18367
1710.73536	0.18397
1708.80668	0.18400
1706.87801	0.18384
1704.94933	0.18360
1703.02065	0.18304
1701.09198	0.18237
1699.16330	0.18247
1697.23463	0.18316
1695.30595	0.18378
1693.37728	0.18432
1691.44860	0.18456
1689.51992	0.18441
1687.59125	0.18403
1685.66257	0.18356
1683.73390	0.18356
1681.80522	0.18412
1679.87655	0.18460
1677.94787	0.18470
1676.01919	0.18463
1674.09052	0.18464
1672.16184	0.18456
1670.23317	0.18437
1668.30449	0.18451
1666.37582	0.18486
1664.44714	0.18488
1662.51846	0.18484
1660.58979	0.18514
1658.66111	0.18534
1656.73244	0.18488
1654.80376	0.18411
1652.87509	0.18402
1650.94641	0.18454
1649.01773	0.18468
1647.08906	0.18457
1645.16038	0.18490
1643.23171	0.18538
1641.30303	0.18558
1639.37436	0.18542
1637.44568	0.18487
1635.51700	0.18460
1633.58833	0.18516
1631.65965	0.18577
1629.73098	0.18573
1627.80230	0.18548
1625.87363	0.18533
1623.94495	0.18511
1622.01627	0.18490
1620.08760	0.18480
1618.15892	0.18476
1616.23025	0.18517
1614.30157	0.18612
1612.37290	0.18689
1610.44422	0.18721
1608.51554	0.18744
1606.58687	0.18771
1604.65819	0.18796
1602.72952	0.18813
1600.80084	0.18827
1598.87217	0.18845
1596.94349	0.18864
1595.01481	0.18885
1593.08614	0.18904
1591.15746	0.18914
1589.22879	0.18923
1587.30011	0.18939
1585.37144	0.18957
1583.44276	0.18972
1581.51408	0.18987
1579.58541	0.18993
1577.65673	0.18989
1575.72806	0.19000
1573.79938	0.19027
1571.87071	0.19035
1569.94203	0.19033
1568.01335	0.19052
1566.08468	0.19078
1564.15600	0.19082
1562.22733	0.19036
1560.29865	0.18963
1558.36998	0.18960
1556.44130	0.19039
1554.51262	0.19110
1552.58395	0.19141
1550.65527	0.19155
1548.72660	0.19163
1546.79792	0.19156
1544.86925	0.19128
1542.94057	0.19087
1541.01189	0.19059
1539.08322	0.19090
1537.15454	0.19158
1535.22587	0.19184
1533.29719	0.19184
1531.36852	0.19200
1529.43984	0.19208
1527.51116	0.19191
1525.58249	0.19174
1523.65381	0.19139
1521.72514	0.19093
1519.79646	0.19097
1517.86779	0.19143
1515.93911	0.19201
1514.01043	0.19249
1512.08176	0.19247
1510.15308	0.19201
1508.22441	0.19161
1506.29573	0.19174
1504.36706	0.19246
1502.43838	0.19301
1500.50970	0.19295
1498.58103	0.19278
1496.65235	0.19296
1494.72368	0.19321
1492.79500	0.19302
1490.86633	0.19255
1488.93765	0.19236
1487.00897	0.19260
1485.08030	0.19293
1483.15162	0.19306
1481.22295	0.19294
1479.29427	0.19263
1477.36560	0.19215
1475.43692	0.19156
1473.50824	0.19095
1471.57957	0.19068
1469.65089	0.19088
1467.72222	0.19095
1465.79354	0.19069
1463.86487	0.19053
1461.93619	0.19037
1460.00751	0.18965
1458.07884	0.18853
1456.15016	0.18819
1454.22149	0.18885
1452.29281	0.18952
1450.36414	0.18976
1448.43546	0.18981
1446.50678	0.18993
1444.57811	0.19014
1442.64943	0.19029
1440.72076	0.19020
1438.79208	0.18976
1436.86341	0.18947
1434.93473	0.18989
1433.00605	0.19044
1431.07738	0.19062
1429.14870	0.19075
1427.22003	0.19100
1425.29135	0.19115
1423.36268	0.19118
1421.43400	0.19099
1419.50532	0.19070
1417.57665	0.19077
1415.64797	0.19115
1413.71930	0.19138
1411.79062	0.19141
1409.86195	0.19144
1407.93327	0.19140
1406.00459	0.19130
1404.07592	0.19127
1402.14724	0.19118
1400.21857	0.19085
1398.28989	0.19053
1396.36122	0.19043
1394.43254	0.19055
1392.50386	0.19080
1390.57519	0.19069
1388.64651	0.19013
1386.71784	0.18976
1384.78916	0.18984
1382.86049	0.19003
1380.93181	0.19013
1379.00313	0.19015
1377.07446	0.19012
1375.14578	0.19007
1373.21711	0.19007
1371.28843	0.19008
1369.35976	0.19006
1367.43108	0.19009
1365.50240	0.19008
1363.57373	0.18989
1361.64505	0.18978
1359.71638	0.18998
1357.78770	0.19025
1355.85903	0.19038
1353.93035	0.19043
1352.00167	0.19046
1350.07300	0.19048
1348.14432	0.19055
1346.21565	0.19063
1344.28697	0.19066
1342.35830	0.19056
1340.42962	0.19033
1338.50094	0.19021
1336.57227	0.19029
1334.64359	0.19037
1332.71492	0.19032
1330.78624	0.19018
1328.85757	0.19003
1326.92889	0.18987
1325.00021	0.18970
1323.07154	0.18951
1321.14286	0.18930
1319.21419	0.18909
1317.28551	0.18893
1315.35684	0.18881
1313.42816	0.18869
1311.49948	0.18857
1309.57081	0.18841
1307.64213	0.18823
1305.71346	0.18804
1303.78478	0.18779
1301.85611	0.18754
1299.92743	0.18732
1297.99875	0.18710
1296.07008	0.18691
1294.14140	0.18677
1292.21273	0.18660
1290.28405	0.18639
1288.35538	0.18617
1286.42670	0.18594
1284.49802	0.18573
1282.56935	0.18554
1280.64067	0.18531
1278.71200	0.18504
1276.78332	0.18477
1274.85465	0.18449
1272.92597	0.18409
1270.99729	0.18349
1269.06862	0.18273
1267.13994	0.18189
1265.21127	0.18109
1263.28259	0.18051
1261.35392	0.18026
1259.42524	0.18031
1257.49656	0.18049
1255.56789	0.18063
1253.63921	0.18061
1251.71054	0.18043
1249.78186	0.18017
1247.85319	0.17987
1245.92451	0.17954
1243.99583	0.17922
1242.06716	0.17885
1240.13848	0.17842
1238.20981	0.17792
1236.28113	0.17740
1234.35246	0.17689
1232.42378	0.17638
1230.49510	0.17583
1228.56643	0.17530
1226.63775	0.17479
1224.70908	0.17427
1222.78040	0.17380
1220.85173	0.17335
1218.92305	0.17287
1216.99437	0.17241
1215.06570	0.17194
1213.13702	0.17138
1211.20835	0.17083
1209.27967	0.17037
1207.35100	0.16989
1205.42232	0.16932
1203.49364	0.16878
1201.56497	0.16831
1199.63629	0.16780
1197.70762	0.16715
1195.77894	0.16647
1193.85027	0.16585
1191.92159	0.16530
1189.99291	0.16470
1188.06424	0.16402
1186.13556	0.16329
1184.20689	0.16251
1182.27821	0.16167
1180.34954	0.16088
1178.42086	0.16013
1176.49218	0.15934
1174.56351	0.15852
1172.63483	0.15773
1170.70616	0.15697
1168.77748	0.15621
1166.84881	0.15542
1164.92013	0.15463
1162.99145	0.15384
1161.06278	0.15302
1159.13410	0.15221
1157.20543	0.15143
1155.27675	0.15069
1153.34808	0.14994
1151.41940	0.14919
1149.49072	0.14849
1147.56205	0.14778
1145.63337	0.14700
1143.70470	0.14619
1141.77602	0.14537
1139.84735	0.14446
1137.91867	0.14343
1135.98999	0.14233
1134.06132	0.14108
1132.13264	0.13959
1130.20397	0.13784
1128.27529	0.13591
1126.34662	0.13383
1124.41794	0.13165
1122.48926	0.12940
1120.56059	0.12720
1118.63191	0.12511
1116.70324	0.12316
1114.77456	0.12143
1112.84589	0.11994
1110.91721	0.11867
1108.98853	0.11765
1107.05986	0.11694
1105.13118	0.11657
1103.20251	0.11644
1101.27383	0.11655
1099.34516	0.11690
1097.41648	0.11743
1095.48780	0.11806
1093.55913	0.11881
1091.63045	0.11967
1089.70178	0.12054
1087.77310	0.12126
1085.84443	0.12178
1083.91575	0.12219
1081.98707	0.12255
1080.05840	0.12288
1078.12972	0.12312
1076.20105	0.12326
1074.27237	0.12337
1072.34370	0.12347
1070.41502	0.12357
1068.48634	0.12368
1066.55767	0.12380
1064.62899	0.12393
1062.70032	0.12412
1060.77164	0.12434
1058.84297	0.12455
1056.91429	0.12478
1054.98561	0.12502
1053.05694	0.12525
1051.12826	0.12550
1049.19959	0.12578
1047.27091	0.12614
1045.34224	0.12659
1043.41356	0.12702
1041.48488	0.12736
1039.55621	0.12771
1037.62753	0.12813
1035.69886	0.12848
1033.77018	0.12872
1031.84151	0.12898
1029.91283	0.12931
1027.98415	0.12969
1026.05548	0.13008
1024.12680	0.13045
1022.19813	0.13080
1020.26945	0.13114
1018.34078	0.13152
1016.41210	0.13197
1014.48342	0.13245
1012.55475	0.13297
1010.62607	0.13356
1008.69740	0.13408
1006.76872	0.13456
1004.84005	0.13506
1002.91137	0.13550
1000.98269	0.13581
999.05402	0.13602
997.12534	0.13623
995.19667	0.13644
993.26799	0.13662
991.33932	0.13677
989.41064	0.13688
987.48196	0.13689
985.55329	0.13681
983.62461	0.13679
981.69594	0.13683
979.76726	0.13680
977.83859	0.13666
975.90991	0.13645
973.98123	0.13627
972.05256	0.13612
970.12388	0.13596
968.19521	0.13582
966.26653	0.13571
964.33786	0.13554
962.40918	0.13533
960.48050	0.13515
958.55183	0.13504
956.62315	0.13498
954.69448	0.13487
952.76580	0.13468
950.83713	0.13449
948.90845	0.13430
946.97977	0.13409
945.05110	0.13386
943.12242	0.13362
941.19375	0.13334
939.26507	0.13301
937.33640	0.13256
935.40772	0.13204
933.47904	0.13155
931.55037	0.13117
929.62169	0.13084
927.69302	0.13038
925.76434	0.12977
923.83567	0.12918
921.90699	0.12866
919.97831	0.12812
918.04964	0.12749
916.12096	0.12682
914.19229	0.12617
912.26361	0.12549
910.33494	0.12474
908.40626	0.12400
906.47758	0.12340
904.54891	0.12289
902.62023	0.12239
900.69156	0.12186
898.76288	0.12131
896.83421	0.12078
894.90553	0.12023
892.97685	0.11974
891.04818	0.11931
889.11950	0.11890
887.19083	0.11854
885.26215	0.11824
883.33348	0.11792
881.40480	0.11757
879.47612	0.11726
877.54745	0.11696
875.61877	0.11672
873.69010	0.11652
871.76142	0.11632
869.83275	0.11611
867.90407	0.11592
865.97539	0.11574
864.04672	0.11559
862.11804	0.11547
860.18937	0.11536
858.26069	0.11526
856.33202	0.11511
854.40334	0.11490
852.47466	0.11466
850.54599	0.11439
848.61731	0.11418
846.68864	0.11400
844.75996	0.11378
842.83129	0.11348
840.90261	0.11317
838.97394	0.11282
837.04526	0.11231
835.11658	0.11166
833.18791	0.11095
831.25923	0.11017
829.33056	0.10922
827.40188	0.10819
825.47321	0.10719
823.54453	0.10629
821.61585	0.10551
819.68718	0.10485
817.75850	0.10434
815.82983	0.10397
813.90115	0.10364
811.97248	0.10330
810.04380	0.10302
808.11512	0.10286
806.18645	0.10278
804.25777	0.10270
802.32910	0.10262
800.40042	0.10242
798.47175	0.10190
796.54307	0.10119
794.61439	0.10063
792.68572	0.10026
790.75704	0.09999
788.82837	0.09977
786.89969	0.09952
784.97102	0.09923
783.04234	0.09901
781.11366	0.09887
779.18499	0.09871
777.25631	0.09843
775.32764	0.09811
773.39896	0.09782
771.47029	0.09751
769.54161	0.09712
767.61293	0.09670
765.68426	0.09627
763.75558	0.09584
761.82691	0.09537
759.89823	0.09490
757.96956	0.09448
756.04088	0.09401
754.11220	0.09342
752.18353	0.09277
750.25485	0.09214
748.32618	0.09152
746.39750	0.09080
744.46883	0.08995
742.54015	0.08910
740.61147	0.08840
738.68280	0.08794
736.75412	0.08770
734.82545	0.08755
732.89677	0.08752
730.96810	0.08760
729.03942	0.08767
727.11074	0.08777
725.18207	0.08792
723.25339	0.08805
721.32472	0.08815
719.39604	0.08831
717.46737	0.08855
715.53869	0.08887
713.61001	0.08933
711.68134	0.08979
709.75266	0.09003
707.82399	0.09006
705.89531	0.08997
703.96664	0.08980
702.03796	0.08956
700.10928	0.08923
698.18061	0.08878
696.25193	0.08827
694.32326	0.08776
692.39458	0.08728
690.46591	0.08676
688.53723	0.08619
686.60855	0.08564
684.67988	0.08514
682.75120	0.08473
680.82253	0.08430
678.89385	0.08370
676.96518	0.08299
675.03650	0.08231
673.10782	0.08160
671.17915	0.08081
669.25047	0.08002
667.32180	0.07931
665.39312	0.07868
663.46445	0.07801
661.53577	0.07722
659.60709	0.07640
657.67842	0.07565
655.74974	0.07497
653.82107	0.07430
651.89239	0.07354
649.96372	0.07272
648.03504	0.07189
646.10636	0.07104
644.17769	0.07009
642.24901	0.06908
640.32034	0.06811
638.39166	0.06720
636.46299	0.06630
634.53431	0.06530
632.60563	0.06397
630.67696	0.06179
628.74828	0.05845
626.81961	0.05436
624.89093	0.05025
622.96226	0.04690
621.03358	0.04477
619.10490	0.04358
617.17623	0.04277
615.24755	0.04191
613.31888	0.04095
611.39020	0.04012
609.46153	0.03969
607.53285	0.03970
605.60417	0.04004
603.67550	0.04064
601.74682	0.04145
599.81815	0.04232
597.88947	0.04313
595.96080	0.04378
594.03212	0.04423
592.10344	0.04445
590.17477	0.04452
588.24609	0.04444
586.31742	0.04423
584.38874	0.04398
582.46007	0.04378
580.53139	0.04349
578.60271	0.04308
576.67404	0.04264
574.74536	0.04210
572.81669	0.04143
570.88801	0.04074
568.95934	0.04011
567.03066	0.03961
565.10198	0.03926
563.17331	0.03900
561.24463	0.03879
559.31596	0.03860
557.38728	0.03840
555.45861	0.03817
553.52993	0.03789
551.60125	0.03761
549.67258	0.03745
547.74390	0.03743
545.81523	0.03744
543.88655	0.03740
541.95788	0.03728
540.02920	0.03710
538.10052	0.03689
536.17185	0.03663
534.24317	0.03637
532.31450	0.03617
530.38582	0.03597
528.45715	0.03575
526.52847	0.03553
524.59979	0.03524
522.67112	0.03481
520.74244	0.03430
518.81377	0.03375
516.88509	0.03325
514.95642	0.03279
513.02774	0.03236
511.09906	0.03209
509.17039	0.03189
507.24171	0.03160
505.31304	0.03130
503.38436	0.03108
501.45569	0.03083
499.52701	0.03040
497.59833	0.02985
495.66966	0.02933
493.74098	0.02877
491.81231	0.02819
489.88363	0.02764
487.95496	0.02704
486.02628	0.02646
484.09760	0.02601
482.16893	0.02557
480.24025	0.02506
478.31158	0.02460
476.38290	0.02417
474.45423	0.02363
472.52555	0.02306
470.59687	0.02269
468.66820	0.02246
466.73952	0.02218
464.81085	0.02179
462.88217	0.02146
460.95350	0.02129
459.02482	0.02127
457.09614	0.02135
455.16747	0.02147
453.23879	0.02158
451.31012	0.02157
449.38144	0.02139
447.45277	0.02106
445.52409	0.02078
443.59541	0.02060
441.66674	0.02037
439.73806	0.02008
437.80939	0.01974
435.88071	0.01934
433.95204	0.01891
432.02336	0.01847
430.09468	0.01797
428.16601	0.01740
426.23733	0.01675
424.30866	0.01605
422.37998	0.01533
420.45131	0.01465
418.52263	0.01401
416.59395	0.01334
414.66528	0.01268
412.73660	0.01206
410.80793	0.01146
408.87925	0.01098
406.95058	0.01052
405.02190	0.00993
403.09322	0.00929
401.16455	0.00873
399.23587	0.00824
397.30720	0.00778
395.37852	0.00734
393.44985	0.00696
391.52117	0.00663
389.59249	0.00621
387.66382	0.00568
385.73514	0.00519
383.80647	0.00481
381.87779	0.00446
379.94912	0.00416
378.02044	0.00389
376.09176	0.00353
374.16309	0.00311
372.23441	0.00279
370.30574	0.00262
368.37706	0.00252
