7496.76250	0.00110
7494.83382	0.00111
7492.90514	0.00111
7490.97647	0.00112
7489.04779	0.00112
7487.11912	0.00113
7485.19044	0.00114
7483.26177	0.00113
7481.33309	0.00113
7479.40441	0.00114
7477.47574	0.00115
7475.54706	0.00115
7473.61839	0.00115
7471.68971	0.00115
7469.76104	0.00116
7467.83236	0.00117
7465.90368	0.00119
7463.97501	0.00119
7462.04633	0.00118
7460.11766	0.00118
7458.18898	0.00118
7456.26031	0.00117
7454.33163	0.00117
7452.40295	0.00118
7450.47428	0.00118
7448.54560	0.00118
7446.61693	0.00118
7444.68825	0.00119
7442.75958	0.00121
7440.83090	0.00122
7438.90222	0.00122
7436.97355	0.00121
7435.04487	0.00122
7433.11620	0.00122
7431.18752	0.00123
7429.25885	0.00123
7427.33017	0.00121
7425.40149	0.00121
7423.47282	0.00123
7421.54414	0.00125
7419.61547	0.00125
7417.68679	0.00126
7415.75812	0.00126
7413.82944	0.00127
7411.90076	0.00126
7409.97209	0.00126
7408.04341	0.00127
7406.11474	0.00127
7404.18606	0.00127
7402.25739	0.00126
7400.32871	0.00126
7398.40003	0.00126
7396.47136	0.00127
7394.54268	0.00128
7392.61401	0.00129
7390.68533	0.00129
7388.75666	0.00130
7386.82798	0.00133
7384.89930	0.00134
7382.97063	0.00133
7381.04195	0.00130
7379.11328	0.00129
7377.18460	0.00130
7375.25593	0.00132
7373.32725	0.00134
7371.39857	0.00134
7369.46990	0.00135
7367.54122	0.00135
7365.61255	0.00136
7363.68387	0.00135
7361.75520	0.00135
7359.82652	0.00136
7357.89784	0.00136
7355.96917	0.00136
7354.04049	0.00136
7352.11182	0.00136
7350.18314	0.00136
7348.25447	0.00136
7346.32579	0.00136
7344.39711	0.00135
7342.46844	0.00135
7340.53976	0.00136
7338.61109	0.00138
7336.68241	0.00139
7334.75374	0.00138
7332.82506	0.00137
7330.89638	0.00137
7328.96771	0.00137
7327.03903	0.00137
7325.11036	0.00138
7323.18168	0.00140
7321.25301	0.00142
7319.32433	0.00142
7317.39565	0.00142
7315.46698	0.00143
7313.53830	0.00145
7311.60963	0.00146
7309.68095	0.00146
7307.75228	0.00145
7305.82360	0.00146
7303.89492	0.00146
7301.96625	0.00145
7300.03757	0.00145
7298.10890	0.00146
7296.18022	0.00147
7294.25155	0.00148
7292.32287	0.00148
7290.39419	0.00147
7288.46552	0.00147
7286.53684	0.00148
7284.60817	0.00149
7282.67949	0.00149
7280.75082	0.00149
7278.82214	0.00150
7276.89346	0.00149
7274.96479	0.00150
7273.03611	0.00150
7271.10744	0.00150
7269.17876	0.00150
7267.25009	0.00151
7265.32141	0.00151
7263.39273	0.00152
7261.46406	0.00153
7259.53538	0.00154
7257.60671	0.00153
7255.67803	0.00153
7253.74936	0.00153
7251.82068	0.00154
7249.89200	0.00154
7247.96333	0.00154
7246.03465	0.00153
7244.10598	0.00153
7242.17730	0.00155
7240.24863	0.00158
7238.31995	0.00159
7236.39127	0.00158
7234.46260	0.00157
7232.53392	0.00156
7230.60525	0.00155
7228.67657	0.00154
7226.74790	0.00156
7224.81922	0.00158
7222.89054	0.00159
7220.96187	0.00159
7219.03319	0.00159
7217.10452	0.00159
7215.17584	0.00160
7213.24717	0.00162
7211.31849	0.00163
7209.38981	0.00164
7207.46114	0.00165
7205.53246	0.00164
7203.60379	0.00163
7201.67511	0.00163
7199.74644	0.00163
7197.81776	0.00163
7195.88908	0.00164
7193.96041	0.00165
7192.03173	0.00167
7190.10306	0.00167
7188.17438	0.00167
7186.24571	0.00167
7184.31703	0.00167
7182.38835	0.00166
7180.45968	0.00165
7178.53100	0.00165
7176.60233	0.00166
7174.67365	0.00167
7172.74498	0.00168
7170.81630	0.00170
7168.88762	0.00170
7166.95895	0.00169
7165.03027	0.00170
7163.10160	0.00170
7161.17292	0.00171
7159.24425	0.00172
7157.31557	0.00173
7155.38689	0.00173
7153.45822	0.00173
7151.52954	0.00174
7149.60087	0.00175
7147.67219	0.00174
7145.74352	0.00174
7143.81484	0.00174
7141.88616	0.00174
7139.95749	0.00175
7138.02881	0.00176
7136.10014	0.00177
7134.17146	0.00179
7132.24279	0.00179
7130.31411	0.00178
7128.38543	0.00179
7126.45676	0.00179
7124.52808	0.00179
7122.59941	0.00178
7120.67073	0.00179
7118.74206	0.00179
7116.81338	0.00179
7114.88470	0.00179
7112.95603	0.00180
7111.02735	0.00181
7109.09868	0.00181
7107.17000	0.00181
7105.24133	0.00181
7103.31265	0.00183
7101.38397	0.00184
7099.45530	0.00184
7097.52662	0.00184
7095.59795	0.00184
7093.66927	0.00183
7091.74060	0.00183
7089.81192	0.00184
7087.88324	0.00185
7085.95457	0.00186
7084.02589	0.00187
7082.09722	0.00188
7080.16854	0.00188
7078.23987	0.00188
7076.31119	0.00190
7074.38251	0.00191
7072.45384	0.00192
7070.52516	0.00190
7068.59649	0.00190
7066.66781	0.00192
7064.73914	0.00194
7062.81046	0.00195
7060.88178	0.00195
7058.95311	0.00195
7057.02443	0.00194
7055.09576	0.00194
7053.16708	0.00194
7051.23841	0.00196
7049.30973	0.00196
7047.38105	0.00197
7045.45238	0.00197
7043.52370	0.00198
7041.59503	0.00198
7039.66635	0.00198
7037.73768	0.00197
7035.80900	0.00197
7033.88032	0.00196
7031.95165	0.00198
7030.02297	0.00199
7028.09430	0.00199
7026.16562	0.00199
7024.23695	0.00200
7022.30827	0.00201
7020.37959	0.00202
7018.45092	0.00203
7016.52224	0.00204
7014.59357	0.00205
7012.66489	0.00203
7010.73622	0.00202
7008.80754	0.00203
7006.87886	0.00204
7004.95019	0.00204
7003.02151	0.00205
7001.09284	0.00207
6999.16416	0.00209
6997.23549	0.00209
6995.30681	0.00208
6993.37813	0.00207
6991.44946	0.00207
6989.52078	0.00209
6987.59211	0.00210
6985.66343	0.00210
6983.73476	0.00210
6981.80608	0.00210
6979.87740	0.00209
6977.94873	0.00210
6976.02005	0.00213
6974.09138	0.00213
6972.16270	0.00211
6970.23403	0.00210
6968.30535	0.00211
6966.37667	0.00213
6964.44800	0.00214
6962.51932	0.00214
6960.59065	0.00215
6958.66197	0.00216
6956.73330	0.00216
6954.80462	0.00217
6952.87594	0.00218
6950.94727	0.00218
6949.01859	0.00217
6947.08992	0.00215
6945.16124	0.00216
6943.23257	0.00217
6941.30389	0.00218
6939.37521	0.00219
6937.44654	0.00219
6935.51786	0.00219
6933.58919	0.00220
6931.66051	0.00222
6929.73184	0.00224
6927.80316	0.00224
6925.87448	0.00225
6923.94581	0.00224
6922.01713	0.00224
6920.08846	0.00223
6918.15978	0.00223
6916.23111	0.00223
6914.30243	0.00222
6912.37375	0.00222
6910.44508	0.00224
6908.51640	0.00228
6906.58773	0.00230
6904.65905	0.00230
6902.73038	0.00230
6900.80170	0.00228
6898.87302	0.00227
6896.94435	0.00229
6895.01567	0.00230
6893.08700	0.00231
6891.15832	0.00231
6889.22965	0.00233
6887.30097	0.00234
6885.37229	0.00235
6883.44362	0.00235
6881.51494	0.00235
6879.58627	0.00236
6877.65759	0.00236
6875.72892	0.00236
6873.80024	0.00236
6871.87156	0.00237
6869.94289	0.00237
6868.01421	0.00237
6866.08554	0.00237
6864.15686	0.00238
6862.22819	0.00238
6860.29951	0.00238
6858.37083	0.00239
6856.44216	0.00240
6854.51348	0.00240
6852.58481	0.00240
6850.65613	0.00241
6848.72746	0.00242
6846.79878	0.00242
6844.87010	0.00242
6842.94143	0.00242
6841.01275	0.00243
6839.08408	0.00244
6837.15540	0.00244
6835.22673	0.00244
6833.29805	0.00245
6831.36937	0.00246
6829.44070	0.00246
6827.51202	0.00246
6825.58335	0.00247
6823.65467	0.00249
6821.72600	0.00249
6819.79732	0.00250
6817.86864	0.00251
6815.93997	0.00251
6814.01129	0.00251
6812.08262	0.00252
6810.15394	0.00253
6808.22527	0.00252
6806.29659	0.00252
6804.36791	0.00253
6802.43924	0.00255
6800.51056	0.00256
6798.58189	0.00255
6796.65321	0.00255
6794.72454	0.00256
6792.79586	0.00257
6790.86718	0.00258
6788.93851	0.00258
6787.00983	0.00259
6785.08116	0.00259
6783.15248	0.00260
6781.22381	0.00259
6779.29513	0.00259
6777.36645	0.00260
6775.43778	0.00260
6773.50910	0.00261
6771.58043	0.00262
6769.65175	0.00263
6767.72308	0.00264
6765.79440	0.00264
6763.86572	0.00264
6761.93705	0.00265
6760.00837	0.00266
6758.07970	0.00267
6756.15102	0.00269
6754.22235	0.00271
6752.29367	0.00271
6750.36499	0.00270
6748.43632	0.00270
6746.50764	0.00270
6744.57897	0.00272
6742.65029	0.00273
6740.72162	0.00273
6738.79294	0.00273
6736.86426	0.00273
6734.93559	0.00272
6733.00691	0.00272
6731.07824	0.00273
6729.14956	0.00275
6727.22089	0.00276
6725.29221	0.00277
6723.36353	0.00279
6721.43486	0.00280
6719.50618	0.00280
6717.57751	0.00279
6715.64883	0.00279
6713.72016	0.00280
6711.79148	0.00281
6709.86280	0.00281
6707.93413	0.00283
6706.00545	0.00285
6704.07678	0.00286
6702.14810	0.00287
6700.21943	0.00286
6698.29075	0.00286
6696.36207	0.00286
6694.43340	0.00286
6692.50472	0.00287
6690.57605	0.00287
6688.64737	0.00287
6686.71870	0.00287
6684.79002	0.00287
6682.86134	0.00288
6680.93267	0.00289
6679.00399	0.00289
6677.07532	0.00291
6675.14664	0.00293
6673.21797	0.00294
6671.28929	0.00295
6669.36061	0.00295
6667.43194	0.00295
6665.50326	0.00294
6663.57459	0.00294
6661.64591	0.00294
6659.71724	0.00295
6657.78856	0.00296
6655.85988	0.00298
6653.93121	0.00300
6652.00253	0.00302
6650.07386	0.00302
6648.14518	0.00301
6646.21651	0.00301
6644.28783	0.00301
6642.35915	0.00303
6640.43048	0.00305
6638.50180	0.00305
6636.57313	0.00304
6634.64445	0.00303
6632.71578	0.00303
6630.78710	0.00304
6628.85842	0.00305
6626.92975	0.00307
6625.00107	0.00310
6623.07240	0.00311
6621.14372	0.00310
6619.21505	0.00311
6617.28637	0.00312
6615.35769	0.00312
6613.42902	0.00312
6611.50034	0.00313
6609.57167	0.00313
6607.64299	0.00312
6605.71432	0.00313
6603.78564	0.00314
6601.85696	0.00314
6599.92829	0.00314
6597.99961	0.00316
6596.07094	0.00317
6594.14226	0.00317
6592.21359	0.00318
6590.28491	0.00319
6588.35623	0.00320
6586.42756	0.00321
6584.49888	0.00323
6582.57021	0.00324
6580.64153	0.00323
6578.71286	0.00322
6576.78418	0.00322
6574.85550	0.00325
6572.92683	0.00326
6570.99815	0.00326
6569.06948	0.00326
6567.14080	0.00325
6565.21213	0.00326
6563.28345	0.00328
6561.35477	0.00329
6559.42610	0.00331
6557.49742	0.00331
6555.56875	0.00331
6553.64007	0.00330
6551.71140	0.00332
6549.78272	0.00333
6547.85404	0.00334
6545.92537	0.00336
6543.99669	0.00337
6542.06802	0.00336
6540.13934	0.00337
6538.21067	0.00339
6536.28199	0.00341
6534.35331	0.00341
6532.42464	0.00338
6530.49596	0.00337
6528.56729	0.00338
6526.63861	0.00339
6524.70994	0.00340
6522.78126	0.00341
6520.85258	0.00342
6518.92391	0.00344
6516.99523	0.00345
6515.06656	0.00347
6513.13788	0.00348
6511.20921	0.00348
6509.28053	0.00347
6507.35185	0.00346
6505.42318	0.00347
6503.49450	0.00348
6501.56583	0.00348
6499.63715	0.00349
6497.70848	0.00350
6495.77980	0.00350
6493.85112	0.00351
6491.92245	0.00352
6489.99377	0.00355
6488.06510	0.00357
6486.13642	0.00358
6484.20775	0.00357
6482.27907	0.00357
6480.35039	0.00359
6478.42172	0.00361
6476.49304	0.00363
6474.56437	0.00363
6472.63569	0.00362
6470.70702	0.00362
6468.77834	0.00365
6466.84966	0.00366
6464.92099	0.00366
6462.99231	0.00365
6461.06364	0.00365
6459.13496	0.00365
6457.20629	0.00366
6455.27761	0.00367
6453.34893	0.00367
6451.42026	0.00368
6449.49158	0.00370
6447.56291	0.00373
6445.63423	0.00374
6443.70556	0.00376
6441.77688	0.00376
6439.84820	0.00376
6437.91953	0.00376
6435.99085	0.00376
6434.06218	0.00378
6432.13350	0.00379
6430.20483	0.00379
6428.27615	0.00380
6426.34747	0.00382
6424.41880	0.00382
6422.49012	0.00381
6420.56145	0.00382
6418.63277	0.00383
6416.70410	0.00384
6414.77542	0.00384
6412.84674	0.00385
6410.91807	0.00387
6408.98939	0.00389
6407.06072	0.00390
6405.13204	0.00390
6403.20337	0.00390
6401.27469	0.00391
6399.34601	0.00391
6397.41734	0.00392
6395.48866	0.00393
6393.55999	0.00393
6391.63131	0.00393
6389.70264	0.00394
6387.77396	0.00395
6385.84528	0.00397
6383.91661	0.00398
6381.98793	0.00399
6380.05926	0.00400
6378.13058	0.00401
6376.20191	0.00402
6374.27323	0.00405
6372.34455	0.00407
6370.41588	0.00407
6368.48720	0.00406
6366.55853	0.00406
6364.62985	0.00407
6362.70118	0.00407
6360.77250	0.00407
6358.84382	0.00407
6356.91515	0.00408
6354.98647	0.00409
6353.05780	0.00410
6351.12912	0.00410
6349.20045	0.00412
6347.27177	0.00415
6345.34309	0.00417
6343.41442	0.00418
6341.48574	0.00417
6339.55707	0.00417
6337.62839	0.00418
6335.69972	0.00420
6333.77104	0.00421
6331.84236	0.00423
6329.91369	0.00425
6327.98501	0.00426
6326.05634	0.00426
6324.12766	0.00426
6322.19899	0.00426
6320.27031	0.00426
6318.34163	0.00427
6316.41296	0.00429
6314.48428	0.00429
6312.55561	0.00429
6310.62693	0.00431
6308.69826	0.00433
6306.76958	0.00433
6304.84090	0.00433
6302.91223	0.00435
6300.98355	0.00438
6299.05488	0.00439
6297.12620	0.00437
6295.19753	0.00437
6293.26885	0.00439
6291.34017	0.00442
6289.41150	0.00442
6287.48282	0.00443
6285.55415	0.00443
6283.62547	0.00443
6281.69680	0.00445
6279.76812	0.00446
6277.83944	0.00445
6275.91077	0.00445
6273.98209	0.00446
6272.05342	0.00447
6270.12474	0.00448
6268.19607	0.00448
6266.26739	0.00451
6264.33871	0.00455
6262.41004	0.00457
6260.48136	0.00456
6258.55269	0.00456
6256.62401	0.00457
6254.69534	0.00457
6252.76666	0.00456
6250.83798	0.00457
6248.90931	0.00459
6246.98063	0.00462
6245.05196	0.00462
6243.12328	0.00463
6241.19461	0.00464
6239.26593	0.00465
6237.33725	0.00466
6235.40858	0.00466
6233.47990	0.00466
6231.55123	0.00466
6229.62255	0.00467
6227.69388	0.00468
6225.76520	0.00469
6223.83652	0.00471
6221.90785	0.00473
6219.97917	0.00474
6218.05050	0.00476
6216.12182	0.00478
6214.19315	0.00480
6212.26447	0.00481
6210.33579	0.00481
6208.40712	0.00481
6206.47844	0.00482
6204.54977	0.00482
6202.62109	0.00483
6200.69242	0.00486
6198.76374	0.00487
6196.83506	0.00487
6194.90639	0.00487
6192.97771	0.00488
6191.04904	0.00489
6189.12036	0.00490
6187.19169	0.00491
6185.26301	0.00493
6183.33433	0.00494
6181.40566	0.00497
6179.47698	0.00499
6177.54831	0.00499
6175.61963	0.00498
6173.69096	0.00498
6171.76228	0.00500
6169.83360	0.00501
6167.90493	0.00502
6165.97625	0.00503
6164.04758	0.00504
6162.11890	0.00505
6160.19023	0.00505
6158.26155	0.00506
6156.33287	0.00507
6154.40420	0.00509
6152.47552	0.00510
6150.54685	0.00511
6148.61817	0.00512
6146.68950	0.00511
6144.76082	0.00511
6142.83214	0.00513
6140.90347	0.00516
6138.97479	0.00517
6137.04612	0.00518
6135.11744	0.00522
6133.18877	0.00525
6131.26009	0.00525
6129.33141	0.00524
6127.40274	0.00525
6125.47406	0.00526
6123.54539	0.00527
6121.61671	0.00528
6119.68804	0.00527
6117.75936	0.00528
6115.83068	0.00529
6113.90201	0.00531
6111.97333	0.00531
6110.04466	0.00532
6108.11598	0.00534
6106.18731	0.00535
6104.25863	0.00536
6102.32995	0.00537
6100.40128	0.00537
6098.47260	0.00540
6096.54393	0.00542
6094.61525	0.00543
6092.68658	0.00544
6090.75790	0.00545
6088.82922	0.00547
6086.90055	0.00548
6084.97187	0.00549
6083.04320	0.00550
6081.11452	0.00552
6079.18585	0.00555
6077.25717	0.00556
6075.32849	0.00557
6073.39982	0.00558
6071.47114	0.00558
6069.54247	0.00558
6067.61379	0.00558
6065.68512	0.00560
6063.75644	0.00561
6061.82776	0.00562
6059.89909	0.00563
6057.97041	0.00564
6056.04174	0.00566
6054.11306	0.00568
6052.18439	0.00570
6050.25571	0.00571
6048.32703	0.00572
6046.39836	0.00574
6044.46968	0.00575
6042.54101	0.00576
6040.61233	0.00576
6038.68366	0.00576
6036.75498	0.00576
6034.82630	0.00577
6032.89763	0.00578
6030.96895	0.00581
6029.04028	0.00584
6027.11160	0.00585
6025.18293	0.00584
6023.25425	0.00584
6021.32557	0.00585
6019.39690	0.00587
6017.46822	0.00588
6015.53955	0.00589
6013.61087	0.00591
6011.68220	0.00595
6009.75352	0.00598
6007.82484	0.00599
6005.89617	0.00598
6003.96749	0.00597
6002.03882	0.00597
6000.11014	0.00598
5998.18147	0.00599
5996.25279	0.00601
5994.32411	0.00603
5992.39544	0.00606
5990.46676	0.00611
5988.53809	0.00613
5986.60941	0.00613
5984.68074	0.00612
5982.75206	0.00615
5980.82338	0.00617
5978.89471	0.00617
5976.96603	0.00616
5975.03736	0.00616
5973.10868	0.00617
5971.18001	0.00617
5969.25133	0.00618
5967.32265	0.00620
5965.39398	0.00623
5963.46530	0.00625
5961.53663	0.00626
5959.60795	0.00627
5957.67928	0.00628
5955.75060	0.00630
5953.82192	0.00633
5951.89325	0.00636
5949.96457	0.00638
5948.03590	0.00638
5946.10722	0.00638
5944.17855	0.00640
5942.24987	0.00641
5940.32119	0.00642
5938.39252	0.00644
5936.46384	0.00646
5934.53517	0.00646
5932.60649	0.00646
5930.67782	0.00646
5928.74914	0.00646
5926.82046	0.00647
5924.89179	0.00650
5922.96311	0.00653
5921.03444	0.00655
5919.10576	0.00656
5917.17709	0.00656
5915.24841	0.00654
5913.31973	0.00653
5911.39106	0.00655
5909.46238	0.00660
5907.53371	0.00663
5905.60503	0.00664
5903.67636	0.00663
5901.74768	0.00663
5899.81900	0.00663
5897.89033	0.00665
5895.96165	0.00667
5894.03298	0.00670
5892.10430	0.00673
5890.17563	0.00677
5888.24695	0.00679
5886.31827	0.00681
5884.38960	0.00682
5882.46092	0.00680
5880.53225	0.00679
5878.60357	0.00679
5876.67490	0.00683
5874.74622	0.00686
5872.81755	0.00689
5870.88887	0.00690
5868.96019	0.00690
5867.03152	0.00692
5865.10284	0.00693
5863.17417	0.00693
5861.24549	0.00693
5859.31682	0.00695
5857.38814	0.00698
5855.45946	0.00701
5853.53079	0.00702
5851.60211	0.00703
5849.67344	0.00704
5847.74476	0.00706
5845.81609	0.00709
5843.88741	0.00710
5841.95873	0.00710
5840.03006	0.00711
5838.10138	0.00712
5836.17271	0.00713
5834.24403	0.00714
5832.31536	0.00717
5830.38668	0.00718
5828.45800	0.00717
5826.52933	0.00718
5824.60065	0.00721
5822.67198	0.00724
5820.74330	0.00727
5818.81463	0.00729
5816.88595	0.00730
5814.95727	0.00730
5813.02860	0.00730
5811.09992	0.00731
5809.17125	0.00732
5807.24257	0.00733
5805.31390	0.00737
5803.38522	0.00741
5801.45654	0.00743
5799.52787	0.00742
5797.59919	0.00741
5795.67052	0.00741
5793.74184	0.00743
5791.81317	0.00747
5789.88449	0.00749
5787.95581	0.00749
5786.02714	0.00749
5784.09846	0.00751
5782.16979	0.00753
5780.24111	0.00754
5778.31244	0.00755
5776.38376	0.00757
5774.45508	0.00760
5772.52641	0.00762
5770.59773	0.00765
5768.66906	0.00768
5766.74038	0.00769
5764.81171	0.00770
5762.88303	0.00771
5760.95435	0.00772
5759.02568	0.00774
5757.09700	0.00775
5755.16833	0.00776
5753.23965	0.00779
5751.31098	0.00782
5749.38230	0.00784
5747.45362	0.00785
5745.52495	0.00785
5743.59627	0.00786
5741.66760	0.00789
5739.73892	0.00789
5737.81025	0.00789
5735.88157	0.00790
5733.95289	0.00793
5732.02422	0.00794
5730.09554	0.00795
5728.16687	0.00798
5726.23819	0.00801
5724.30952	0.00803
5722.38084	0.00805
5720.45216	0.00807
5718.52349	0.00808
5716.59481	0.00809
5714.66614	0.00809
5712.73746	0.00810
5710.80879	0.00812
5708.88011	0.00814
5706.95143	0.00817
5705.02276	0.00820
5703.09408	0.00822
5701.16541	0.00823
5699.23673	0.00824
5697.30806	0.00823
5695.37938	0.00824
5693.45070	0.00826
5691.52203	0.00828
5689.59335	0.00828
5687.66468	0.00829
5685.73600	0.00831
5683.80733	0.00834
5681.87865	0.00838
5679.94997	0.00841
5678.02130	0.00844
5676.09262	0.00845
5674.16395	0.00847
5672.23527	0.00849
5670.30660	0.00851
5668.37792	0.00851
5666.44924	0.00850
5664.52057	0.00852
5662.59189	0.00854
5660.66322	0.00856
5658.73454	0.00858
5656.80587	0.00862
5654.87719	0.00864
5652.94851	0.00863
5651.01984	0.00862
5649.09116	0.00863
5647.16249	0.00864
5645.23381	0.00866
5643.30514	0.00868
5641.37646	0.00870
5639.44778	0.00872
5637.51911	0.00876
5635.59043	0.00878
5633.66176	0.00879
5631.73308	0.00880
5629.80441	0.00881
5627.87573	0.00881
5625.94705	0.00884
5624.01838	0.00888
5622.08970	0.00890
5620.16103	0.00891
5618.23235	0.00892
5616.30368	0.00893
5614.37500	0.00895
5612.44632	0.00897
5610.51765	0.00900
5608.58897	0.00903
5606.66030	0.00906
5604.73162	0.00907
5602.80295	0.00907
5600.87427	0.00909
5598.94559	0.00912
5597.01692	0.00914
5595.08824	0.00916
5593.15957	0.00917
5591.23089	0.00919
5589.30222	0.00921
5587.37354	0.00924
5585.44486	0.00926
5583.51619	0.00928
5581.58751	0.00931
5579.65884	0.00933
5577.73016	0.00934
5575.80149	0.00935
5573.87281	0.00936
5571.94413	0.00936
5570.01546	0.00937
5568.08678	0.00938
5566.15811	0.00941
5564.22943	0.00944
5562.30076	0.00945
5560.37208	0.00947
5558.44340	0.00949
5556.51473	0.00952
5554.58605	0.00953
5552.65738	0.00953
5550.72870	0.00953
5548.80003	0.00954
5546.87135	0.00956
5544.94267	0.00958
5543.01400	0.00960
5541.08532	0.00962
5539.15665	0.00964
5537.22797	0.00966
5535.29930	0.00967
5533.37062	0.00967
5531.44194	0.00969
5529.51327	0.00972
5527.58459	0.00974
5525.65592	0.00976
5523.72724	0.00978
5521.79857	0.00981
5519.86989	0.00985
5517.94121	0.00989
5516.01254	0.00990
5514.08386	0.00992
5512.15519	0.00993
5510.22651	0.00994
5508.29784	0.00994
5506.36916	0.00995
5504.44048	0.00995
5502.51181	0.00996
5500.58313	0.01000
5498.65446	0.01004
5496.72578	0.01007
5494.79711	0.01008
5492.86843	0.01009
5490.93975	0.01012
5489.01108	0.01015
5487.08240	0.01019
5485.15373	0.01021
5483.22505	0.01023
5481.29638	0.01023
5479.36770	0.01023
5477.43902	0.01024
5475.51035	0.01028
5473.58167	0.01033
5471.65300	0.01035
5469.72432	0.01034
5467.79565	0.01035
5465.86697	0.01038
5463.93829	0.01040
5462.00962	0.01040
5460.08094	0.01039
5458.15227	0.01040
5456.22359	0.01042
5454.29492	0.01046
5452.36624	0.01049
5450.43756	0.01052
5448.50889	0.01054
5446.58021	0.01055
5444.65154	0.01056
5442.72286	0.01059
5440.79419	0.01061
5438.86551	0.01063
5436.93683	0.01063
5435.00816	0.01064
5433.07948	0.01067
5431.15081	0.01070
5429.22213	0.01073
5427.29346	0.01076
5425.36478	0.01080
5423.43610	0.01081
5421.50743	0.01080
5419.57875	0.01082
5417.65008	0.01086
5415.72140	0.01089
5413.79273	0.01090
5411.86405	0.01090
5409.93537	0.01091
5408.00670	0.01095
5406.07802	0.01097
5404.14935	0.01097
5402.22067	0.01099
5400.29200	0.01103
5398.36332	0.01107
5396.43464	0.01109
5394.50597	0.01109
5392.57729	0.01109
5390.64862	0.01112
5388.71994	0.01115
5386.79127	0.01117
5384.86259	0.01118
5382.93391	0.01121
5381.00524	0.01125
5379.07656	0.01125
5377.14789	0.01125
5375.21921	0.01127
5373.29054	0.01132
5371.36186	0.01138
5369.43318	0.01141
5367.50451	0.01142
5365.57583	0.01143
5363.64716	0.01144
5361.71848	0.01146
5359.78981	0.01146
5357.86113	0.01148
5355.93245	0.01149
5354.00378	0.01149
5352.07510	0.01151
5350.14643	0.01154
5348.21775	0.01158
5346.28908	0.01160
5344.36040	0.01163
5342.43172	0.01166
5340.50305	0.01168
5338.57437	0.01168
5336.64570	0.01169
5334.71702	0.01172
5332.78835	0.01176
5330.85967	0.01179
5328.93099	0.01181
5327.00232	0.01181
5325.07364	0.01183
5323.14497	0.01186
5321.21629	0.01190
5319.28762	0.01193
5317.35894	0.01194
5315.43026	0.01195
5313.50159	0.01198
5311.57291	0.01201
5309.64424	0.01202
5307.71556	0.01203
5305.78689	0.01204
5303.85821	0.01207
5301.92953	0.01210
5300.00086	0.01213
5298.07218	0.01216
5296.14351	0.01219
5294.21483	0.01220
5292.28616	0.01221
5290.35748	0.01223
5288.42880	0.01226
5286.50013	0.01230
5284.57145	0.01234
5282.64278	0.01235
5280.71410	0.01234
5278.78543	0.01236
5276.85675	0.01238
5274.92807	0.01240
5272.99940	0.01243
5271.07072	0.01245
5269.14205	0.01247
5267.21337	0.01249
5265.28470	0.01250
5263.35602	0.01250
5261.42734	0.01251
5259.49867	0.01254
5257.56999	0.01256
5255.64132	0.01259
5253.71264	0.01262
5251.78397	0.01265
5249.85529	0.01264
5247.92661	0.01264
5245.99794	0.01267
5244.06926	0.01273
5242.14059	0.01278
5240.21191	0.01280
5238.28324	0.01280
5236.35456	0.01281
5234.42588	0.01284
5232.49721	0.01287
5230.56853	0.01290
5228.63986	0.01292
5226.71118	0.01294
5224.78251	0.01297
5222.85383	0.01299
5220.92515	0.01300
5218.99648	0.01301
5217.06780	0.01301
5215.13913	0.01304
5213.21045	0.01309
5211.28178	0.01313
5209.35310	0.01315
5207.42442	0.01314
5205.49575	0.01317
5203.56707	0.01320
5201.63840	0.01323
5199.70972	0.01326
5197.78105	0.01328
5195.85237	0.01331
5193.92369	0.01333
5191.99502	0.01333
5190.06634	0.01334
5188.13767	0.01336
5186.20899	0.01339
5184.28032	0.01343
5182.35164	0.01346
5180.42296	0.01349
5178.49429	0.01351
5176.56561	0.01354
5174.63694	0.01356
5172.70826	0.01358
5170.77959	0.01361
5168.85091	0.01365
5166.92223	0.01368
5164.99356	0.01369
5163.06488	0.01369
5161.13621	0.01371
5159.20753	0.01374
5157.27886	0.01377
5155.35018	0.01379
5153.42150	0.01383
5151.49283	0.01386
5149.56415	0.01388
5147.63548	0.01388
5145.70680	0.01389
5143.77813	0.01391
5141.84945	0.01395
5139.92077	0.01397
5137.99210	0.01400
5136.06342	0.01402
5134.13475	0.01403
5132.20607	0.01404
5130.27740	0.01406
5128.34872	0.01408
5126.42004	0.01412
5124.49137	0.01416
5122.56269	0.01417
5120.63402	0.01419
5118.70534	0.01421
5116.77667	0.01423
5114.84799	0.01425
5112.91931	0.01429
5110.99064	0.01434
5109.06196	0.01436
5107.13329	0.01436
5105.20461	0.01437
5103.27594	0.01441
5101.34726	0.01445
5099.41858	0.01448
5097.48991	0.01449
5095.56123	0.01451
5093.63256	0.01454
5091.70388	0.01456
5089.77521	0.01458
5087.84653	0.01459
5085.91785	0.01461
5083.98918	0.01462
5082.06050	0.01464
5080.13183	0.01468
5078.20315	0.01473
5076.27448	0.01476
5074.34580	0.01478
5072.41712	0.01480
5070.48845	0.01482
5068.55977	0.01485
5066.63110	0.01488
5064.70242	0.01492
5062.77375	0.01494
5060.84507	0.01497
5058.91639	0.01498
5056.98772	0.01499
5055.05904	0.01502
5053.13037	0.01506
5051.20169	0.01509
5049.27302	0.01511
5047.34434	0.01512
5045.41566	0.01514
5043.48699	0.01516
5041.55831	0.01519
5039.62964	0.01523
5037.70096	0.01525
5035.77229	0.01527
5033.84361	0.01529
5031.91493	0.01529
5029.98626	0.01530
5028.05758	0.01533
5026.12891	0.01538
5024.20023	0.01542
5022.27156	0.01544
5020.34288	0.01545
5018.41420	0.01546
5016.48553	0.01549
5014.55685	0.01553
5012.62818	0.01556
5010.69950	0.01558
5008.77083	0.01560
5006.84215	0.01561
5004.91347	0.01563
5002.98480	0.01565
5001.05612	0.01568
4999.12745	0.01572
4997.19877	0.01576
4995.27010	0.01577
4993.34142	0.01578
4991.41274	0.01581
4989.48407	0.01586
4987.55539	0.01590
4985.62672	0.01591
4983.69804	0.01593
4981.76937	0.01596
4979.84069	0.01598
4977.91201	0.01599
4975.98334	0.01602
4974.05466	0.01607
4972.12599	0.01612
4970.19731	0.01614
4968.26864	0.01616
4966.33996	0.01618
4964.41128	0.01619
4962.48261	0.01620
4960.55393	0.01623
4958.62526	0.01626
4956.69658	0.01629
4954.76791	0.01633
4952.83923	0.01637
4950.91055	0.01640
4948.98188	0.01641
4947.05320	0.01641
4945.12453	0.01644
4943.19585	0.01648
4941.26718	0.01651
4939.33850	0.01653
4937.40982	0.01655
4935.48115	0.01659
4933.55247	0.01664
4931.62380	0.01667
4929.69512	0.01669
4927.76645	0.01672
4925.83777	0.01673
4923.90909	0.01675
4921.98042	0.01678
4920.05174	0.01680
4918.12307	0.01682
4916.19439	0.01686
4914.26572	0.01689
4912.33704	0.01692
4910.40836	0.01694
4908.47969	0.01698
4906.55101	0.01702
4904.62234	0.01704
4902.69366	0.01705
4900.76499	0.01706
4898.83631	0.01709
4896.90763	0.01711
4894.97896	0.01713
4893.05028	0.01716
4891.12161	0.01719
4889.19293	0.01721
4887.26426	0.01722
4885.33558	0.01725
4883.40690	0.01728
4881.47823	0.01732
4879.54955	0.01734
4877.62088	0.01737
4875.69220	0.01739
4873.76353	0.01742
4871.83485	0.01745
4869.90617	0.01749
4867.97750	0.01752
4866.04882	0.01755
4864.12015	0.01758
4862.19147	0.01762
4860.26280	0.01765
4858.33412	0.01766
4856.40544	0.01768
4854.47677	0.01771
4852.54809	0.01775
4850.61942	0.01777
4848.69074	0.01779
4846.76207	0.01780
4844.83339	0.01783
4842.90471	0.01788
4840.97604	0.01794
4839.04736	0.01799
4837.11869	0.01801
4835.19001	0.01801
4833.26134	0.01803
4831.33266	0.01806
4829.40398	0.01808
4827.47531	0.01811
4825.54663	0.01813
4823.61796	0.01816
4821.68928	0.01820
4819.76061	0.01824
4817.83193	0.01827
4815.90325	0.01831
4813.97458	0.01832
4812.04590	0.01834
4810.11723	0.01837
4808.18855	0.01840
4806.25988	0.01842
4804.33120	0.01844
4802.40252	0.01848
4800.47385	0.01853
4798.54517	0.01857
4796.61650	0.01858
4794.68782	0.01860
4792.75915	0.01863
4790.83047	0.01868
4788.90179	0.01870
4786.97312	0.01873
4785.04444	0.01877
4783.11577	0.01879
4781.18709	0.01881
4779.25842	0.01885
4777.32974	0.01891
4775.40106	0.01894
4773.47239	0.01895
4771.54371	0.01896
4769.61504	0.01899
4767.68636	0.01902
4765.75769	0.01906
4763.82901	0.01909
4761.90033	0.01912
4759.97166	0.01915
4758.04298	0.01918
4756.11431	0.01921
4754.18563	0.01926
4752.25696	0.01930
4750.32828	0.01932
4748.39960	0.01933
4746.47093	0.01933
4744.54225	0.01934
4742.61358	0.01938
4740.68490	0.01944
4738.75623	0.01950
4736.82755	0.01954
4734.89887	0.01955
4732.97020	0.01956
4731.04152	0.01959
4729.11285	0.01962
4727.18417	0.01964
4725.25550	0.01966
4723.32682	0.01970
4721.39814	0.01974
4719.46947	0.01979
4717.54079	0.01982
4715.61212	0.01986
4713.68344	0.01989
4711.75477	0.01992
4709.82609	0.01994
4707.89741	0.01997
4705.96874	0.02001
4704.04006	0.02005
4702.11139	0.02008
4700.18271	0.02011
4698.25404	0.02014
4696.32536	0.02016
4694.39668	0.02020
4692.46801	0.02024
4690.53933	0.02027
4688.61066	0.02030
4686.68198	0.02034
4684.75331	0.02038
4682.82463	0.02041
4680.89595	0.02044
4678.96728	0.02046
4677.03860	0.02047
4675.10993	0.02049
4673.18125	0.02053
4671.25258	0.02057
4669.32390	0.02063
4667.39522	0.02068
4665.46655	0.02071
4663.53787	0.02073
4661.60920	0.02076
4659.68052	0.02079
4657.75185	0.02083
4655.82317	0.02087
4653.89449	0.02089
4651.96582	0.02092
4650.03714	0.02095
4648.10847	0.02100
4646.17979	0.02104
4644.25112	0.02107
4642.32244	0.02109
4640.39376	0.02112
4638.46509	0.02115
4636.53641	0.02119
4634.60774	0.02123
4632.67906	0.02127
4630.75039	0.02128
4628.82171	0.02130
4626.89303	0.02134
4624.96436	0.02139
4623.03568	0.02143
4621.10701	0.02146
4619.17833	0.02149
4617.24966	0.02152
4615.32098	0.02157
4613.39230	0.02160
4611.46363	0.02163
4609.53495	0.02168
4607.60628	0.02172
4605.67760	0.02177
4603.74893	0.02182
4601.82025	0.02186
4599.89157	0.02188
4597.96290	0.02190
4596.03422	0.02194
4594.10555	0.02198
4592.17687	0.02201
4590.24820	0.02203
4588.31952	0.02206
4586.39084	0.02209
4584.46217	0.02213
4582.53349	0.02217
4580.60482	0.02221
4578.67614	0.02225
4576.74747	0.02229
4574.81879	0.02234
4572.89011	0.02239
4570.96144	0.02243
4569.03276	0.02245
4567.10409	0.02246
4565.17541	0.02248
4563.24674	0.02253
4561.31806	0.02259
4559.38938	0.02262
4557.46071	0.02265
4555.53203	0.02269
4553.60336	0.02274
4551.67468	0.02278
4549.74601	0.02281
4547.81733	0.02283
4545.88865	0.02285
4543.95998	0.02288
4542.03130	0.02294
4540.10263	0.02299
4538.17395	0.02304
4536.24528	0.02308
4534.31660	0.02312
4532.38792	0.02316
4530.45925	0.02321
4528.53057	0.02326
4526.60190	0.02329
4524.67322	0.02331
4522.74455	0.02334
4520.81587	0.02337
4518.88719	0.02341
4516.95852	0.02346
4515.02984	0.02351
4513.10117	0.02354
4511.17249	0.02356
4509.24382	0.02360
4507.31514	0.02364
4505.38646	0.02366
4503.45779	0.02368
4501.52911	0.02372
4499.60044	0.02377
4497.67176	0.02383
4495.74309	0.02388
4493.81441	0.02394
4491.88573	0.02401
4489.95706	0.02405
4488.02838	0.02407
4486.09971	0.02410
4484.17103	0.02413
4482.24236	0.02416
4480.31368	0.02421
4478.38500	0.02425
4476.45633	0.02429
4474.52765	0.02434
4472.59898	0.02440
4470.67030	0.02445
4468.74163	0.02449
4466.81295	0.02450
4464.88427	0.02453
4462.95560	0.02457
4461.02692	0.02462
4459.09825	0.02468
4457.16957	0.02473
4455.24090	0.02477
4453.31222	0.02479
4451.38354	0.02481
4449.45487	0.02485
4447.52619	0.02489
4445.59752	0.02494
4443.66884	0.02500
4441.74017	0.02506
4439.81149	0.02511
4437.88281	0.02514
4435.95414	0.02517
4434.02546	0.02521
4432.09679	0.02524
4430.16811	0.02529
4428.23944	0.02535
4426.31076	0.02541
4424.38208	0.02547
4422.45341	0.02552
4420.52473	0.02556
4418.59606	0.02559
4416.66738	0.02563
4414.73871	0.02568
4412.81003	0.02574
4410.88135	0.02580
4408.95268	0.02583
4407.02400	0.02585
4405.09533	0.02588
4403.16665	0.02592
4401.23798	0.02598
4399.30930	0.02603
4397.38062	0.02607
4395.45195	0.02612
4393.52327	0.02617
4391.59460	0.02622
4389.66592	0.02626
4387.73725	0.02630
4385.80857	0.02635
4383.87989	0.02640
4381.95122	0.02645
4380.02254	0.02650
4378.09387	0.02656
4376.16519	0.02661
4374.23652	0.02666
4372.30784	0.02669
4370.37916	0.02673
4368.45049	0.02676
4366.52181	0.02681
4364.59314	0.02688
4362.66446	0.02694
4360.73579	0.02698
4358.80711	0.02704
4356.87843	0.02711
4354.94976	0.02716
4353.02108	0.02719
4351.09241	0.02721
4349.16373	0.02723
4347.23506	0.02727
4345.30638	0.02734
4343.37770	0.02742
4341.44903	0.02747
4339.52035	0.02750
4337.59168	0.02756
4335.66300	0.02760
4333.73433	0.02764
4331.80565	0.02768
4329.87697	0.02771
4327.94830	0.02776
4326.01962	0.02782
4324.09095	0.02788
4322.16227	0.02794
4320.23360	0.02800
4318.30492	0.02806
4316.37624	0.02811
4314.44757	0.02816
4312.51889	0.02819
4310.59022	0.02823
4308.66154	0.02828
4306.73287	0.02835
4304.80419	0.02841
4302.87551	0.02845
4300.94684	0.02850
4299.01816	0.02859
4297.08949	0.02868
4295.16081	0.02875
4293.23214	0.02879
4291.30346	0.02881
4289.37478	0.02882
4287.44611	0.02884
4285.51743	0.02888
4283.58876	0.02894
4281.66008	0.02899
4279.73141	0.02906
4277.80273	0.02913
4275.87405	0.02920
4273.94538	0.02926
4272.01670	0.02930
4270.08803	0.02936
4268.15935	0.02941
4266.23068	0.02946
4264.30200	0.02950
4262.37332	0.02954
4260.44465	0.02959
4258.51597	0.02964
4256.58730	0.02968
4254.65862	0.02974
4252.72995	0.02982
4250.80127	0.02987
4248.87259	0.02990
4246.94392	0.02995
4245.01524	0.03002
4243.08657	0.03009
4241.15789	0.03016
4239.22922	0.03022
4237.30054	0.03028
4235.37186	0.03033
4233.44319	0.03038
4231.51451	0.03044
4229.58584	0.03049
4227.65716	0.03055
4225.72849	0.03060
4223.79981	0.03064
4221.87113	0.03067
4219.94246	0.03072
4218.01378	0.03079
4216.08511	0.03088
4214.15643	0.03096
4212.22776	0.03101
4210.29908	0.03106
4208.37040	0.03110
4206.44173	0.03115
4204.51305	0.03119
4202.58438	0.03122
4200.65570	0.03127
4198.72703	0.03136
4196.79835	0.03147
4194.86968	0.03153
4192.94100	0.03157
4191.01232	0.03161
4189.08365	0.03166
4187.15497	0.03172
4185.22630	0.03181
4183.29762	0.03190
4181.36895	0.03195
4179.44027	0.03198
4177.51159	0.03204
4175.58292	0.03211
4173.65424	0.03217
4171.72557	0.03224
4169.79689	0.03230
4167.86822	0.03236
4165.93954	0.03241
4164.01086	0.03247
4162.08219	0.03253
4160.15351	0.03260
4158.22484	0.03265
4156.29616	0.03269
4154.36749	0.03274
4152.43881	0.03281
4150.51013	0.03287
4148.58146	0.03295
4146.65278	0.03303
4144.72411	0.03310
4142.79543	0.03315
4140.86676	0.03320
4138.93808	0.03326
4137.00940	0.03330
4135.08073	0.03336
4133.15205	0.03343
4131.22338	0.03351
4129.29470	0.03356
4127.36603	0.03362
4125.43735	0.03368
4123.50867	0.03375
4121.58000	0.03382
4119.65132	0.03388
4117.72265	0.03394
4115.79397	0.03400
4113.86530	0.03406
4111.93662	0.03411
4110.00794	0.03417
4108.07927	0.03425
4106.15059	0.03432
4104.22192	0.03438
4102.29324	0.03443
4100.36457	0.03448
4098.43589	0.03455
4096.50721	0.03462
4094.57854	0.03472
4092.64986	0.03482
4090.72119	0.03488
4088.79251	0.03492
4086.86384	0.03497
4084.93516	0.03503
4083.00648	0.03512
4081.07781	0.03522
4079.14913	0.03529
4077.22046	0.03533
4075.29178	0.03539
4073.36311	0.03546
4071.43443	0.03553
4069.50575	0.03560
4067.57708	0.03567
4065.64840	0.03572
4063.71973	0.03577
4061.79105	0.03583
4059.86238	0.03590
4057.93370	0.03597
4056.00502	0.03604
4054.07635	0.03611
4052.14767	0.03618
4050.21900	0.03625
4048.29032	0.03633
4046.36165	0.03639
4044.43297	0.03644
4042.50429	0.03651
4040.57562	0.03659
4038.64694	0.03668
4036.71827	0.03678
4034.78959	0.03684
4032.86092	0.03689
4030.93224	0.03694
4029.00356	0.03702
4027.07489	0.03711
4025.14621	0.03719
4023.21754	0.03726
4021.28886	0.03733
4019.36019	0.03739
4017.43151	0.03743
4015.50283	0.03750
4013.57416	0.03758
4011.64548	0.03765
4009.71681	0.03770
4007.78813	0.03777
4005.85946	0.03786
4003.93078	0.03795
4002.00210	0.03800
4000.07343	0.03804
3998.14475	0.03810
3996.21608	0.03817
3994.28740	0.03825
3992.35873	0.03834
3990.43005	0.03845
3988.50137	0.03855
3986.57270	0.03863
3984.64402	0.03869
3982.71535	0.03875
3980.78667	0.03883
3978.85800	0.03890
3976.92932	0.03897
3975.00064	0.03902
3973.07197	0.03908
3971.14329	0.03915
3969.21462	0.03922
3967.28594	0.03930
3965.35727	0.03937
3963.42859	0.03942
3961.49991	0.03946
3959.57124	0.03953
3957.64256	0.03962
3955.71389	0.03974
3953.78521	0.03983
3951.85654	0.03989
3949.92786	0.03992
3947.99918	0.03998
3946.07051	0.04005
3944.14183	0.04011
3942.21316	0.04020
3940.28448	0.04030
3938.35581	0.04041
3936.42713	0.04048
3934.49845	0.04052
3932.56978	0.04055
3930.64110	0.04063
3928.71243	0.04074
3926.78375	0.04081
3924.85508	0.04088
3922.92640	0.04098
3920.99772	0.04103
3919.06905	0.04106
3917.14037	0.04114
3915.21170	0.04128
3913.28302	0.04140
3911.35435	0.04148
3909.42567	0.04152
3907.49699	0.04154
3905.56832	0.04149
3903.63964	0.04146
3901.71097	0.04151
3899.78229	0.04165
3897.85362	0.04185
3895.92494	0.04201
3893.99626	0.04208
3892.06759	0.04212
3890.13891	0.04222
3888.21024	0.04229
3886.28156	0.04230
3884.35289	0.04235
3882.42421	0.04244
3880.49553	0.04255
3878.56686	0.04269
3876.63818	0.04277
3874.70951	0.04278
3872.78083	0.04278
3870.85216	0.04280
3868.92348	0.04291
3866.99480	0.04306
3865.06613	0.04314
3863.13745	0.04323
3861.20878	0.04339
3859.28010	0.04351
3857.35143	0.04345
3855.42275	0.04323
3853.49407	0.04319
3851.56540	0.04351
3849.63672	0.04390
3847.70805	0.04410
3845.77937	0.04415
3843.85070	0.04414
3841.92202	0.04416
3839.99334	0.04420
3838.06467	0.04427
3836.13599	0.04438
3834.20732	0.04452
3832.27864	0.04463
3830.34997	0.04473
3828.42129	0.04485
3826.49261	0.04496
3824.56394	0.04499
3822.63526	0.04494
3820.70659	0.04497
3818.77791	0.04511
3816.84924	0.04523
3814.92056	0.04539
3812.99188	0.04561
3811.06321	0.04576
3809.13453	0.04578
3807.20586	0.04580
3805.27718	0.04586
3803.34851	0.04588
3801.41983	0.04590
3799.49115	0.04601
3797.56248	0.04615
3795.63380	0.04630
3793.70513	0.04647
3791.77645	0.04660
3789.84778	0.04669
3787.91910	0.04675
3785.99042	0.04681
3784.06175	0.04689
3782.13307	0.04695
3780.20440	0.04698
3778.27572	0.04709
3776.34705	0.04725
3774.41837	0.04733
3772.48969	0.04733
3770.56102	0.04733
3768.63234	0.04742
3766.70367	0.04755
3764.77499	0.04766
3762.84632	0.04777
3760.91764	0.04782
3758.98896	0.04784
3757.06029	0.04790
3755.13161	0.04795
3753.20294	0.04788
3751.27426	0.04784
3749.34559	0.04794
3747.41691	0.04801
3745.48823	0.04797
3743.55956	0.04812
3741.63088	0.04846
3739.70221	0.04864
3737.77353	0.04856
3735.84486	0.04850
3733.91618	0.04866
3731.98750	0.04894
3730.05883	0.04917
3728.13015	0.04927
3726.20148	0.04932
3724.27280	0.04940
3722.34413	0.04952
3720.41545	0.04965
3718.48677	0.04978
3716.55810	0.04987
3714.62942	0.04986
3712.70075	0.04982
3710.77207	0.04988
3708.84340	0.05007
3706.91472	0.05029
3704.98604	0.05041
3703.05737	0.05045
3701.12869	0.05054
3699.20002	0.05071
3697.27134	0.05084
3695.34267	0.05090
3693.41399	0.05088
3691.48531	0.05081
3689.55664	0.05082
3687.62796	0.05098
3685.69929	0.05121
3683.77061	0.05140
3681.84194	0.05149
3679.91326	0.05150
3677.98458	0.05140
3676.05591	0.05133
3674.12723	0.05144
3672.19856	0.05159
3670.26988	0.05171
3668.34121	0.05191
3666.41253	0.05216
3664.48385	0.05231
3662.55518	0.05238
3660.62650	0.05243
3658.69783	0.05244
3656.76915	0.05245
3654.84048	0.05252
3652.91180	0.05248
3650.98312	0.05228
3649.05445	0.05215
3647.12577	0.05230
3645.19710	0.05263
3643.26842	0.05292
3641.33975	0.05309
3639.41107	0.05321
3637.48239	0.05329
3635.55372	0.05334
3633.62504	0.05335
3631.69637	0.05325
3629.76769	0.05312
3627.83902	0.05323
3625.91034	0.05354
3623.98166	0.05374
3622.05299	0.05373
3620.12431	0.05367
3618.19564	0.05374
3616.26696	0.05387
3614.33829	0.05392
3612.40961	0.05392
3610.48093	0.05393
3608.55226	0.05401
3606.62358	0.05418
3604.69491	0.05435
3602.76623	0.05442
3600.83756	0.05445
3598.90888	0.05450
3596.98020	0.05458
3595.05153	0.05466
3593.12285	0.05475
3591.19418	0.05475
3589.26550	0.05465
3587.33683	0.05466
3585.40815	0.05486
3583.47947	0.05508
3581.55080	0.05522
3579.62212	0.05531
3577.69345	0.05539
3575.76477	0.05546
3573.83610	0.05552
3571.90742	0.05556
3569.97874	0.05550
3568.05007	0.05544
3566.12139	0.05554
3564.19272	0.05576
3562.26404	0.05591
3560.33537	0.05601
3558.40669	0.05610
3556.47801	0.05616
3554.54934	0.05617
3552.62066	0.05620
3550.69199	0.05626
3548.76331	0.05630
3546.83464	0.05634
3544.90596	0.05643
3542.97728	0.05659
3541.04861	0.05671
3539.11993	0.05675
3537.19126	0.05677
3535.26258	0.05684
3533.33391	0.05689
3531.40523	0.05689
3529.47655	0.05690
3527.54788	0.05695
3525.61920	0.05701
3523.69053	0.05705
3521.76185	0.05713
3519.83318	0.05720
3517.90450	0.05723
3515.97582	0.05726
3514.04715	0.05729
3512.11847	0.05732
3510.18980	0.05736
3508.26112	0.05743
3506.33245	0.05747
3504.40377	0.05745
3502.47509	0.05746
3500.54642	0.05752
3498.61774	0.05759
3496.68907	0.05762
3494.76039	0.05763
3492.83172	0.05766
3490.90304	0.05770
3488.97436	0.05771
3487.04569	0.05771
3485.11701	0.05774
3483.18834	0.05779
3481.25966	0.05784
3479.33099	0.05792
3477.40231	0.05800
3475.47363	0.05808
3473.54496	0.05816
3471.61628	0.05825
3469.68761	0.05834
3467.75893	0.05843
3465.83026	0.05851
3463.90158	0.05860
3461.97290	0.05870
3460.04423	0.05879
3458.11555	0.05889
3456.18688	0.05900
3454.25820	0.05908
3452.32953	0.05912
3450.40085	0.05920
3448.47217	0.05928
3446.54350	0.05935
3444.61482	0.05945
3442.68615	0.05957
3440.75747	0.05971
3438.82880	0.05985
3436.90012	0.05999
3434.97144	0.06015
3433.04277	0.06032
3431.11409	0.06050
3429.18542	0.06069
3427.25674	0.06089
3425.32807	0.06107
3423.39939	0.06121
3421.47071	0.06134
3419.54204	0.06151
3417.61336	0.06170
3415.68469	0.06186
3413.75601	0.06201
3411.82734	0.06214
3409.89866	0.06227
3407.96998	0.06242
3406.04131	0.06255
3404.11263	0.06266
3402.18396	0.06278
3400.25528	0.06291
3398.32661	0.06304
3396.39793	0.06318
3394.46925	0.06331
3392.54058	0.06345
3390.61190	0.06360
3388.68323	0.06375
3386.75455	0.06388
3384.82588	0.06398
3382.89720	0.06409
3380.96852	0.06424
3379.03985	0.06438
3377.11117	0.06450
3375.18250	0.06462
3373.25382	0.06474
3371.32515	0.06486
3369.39647	0.06497
3367.46779	0.06509
3365.53912	0.06519
3363.61044	0.06530
3361.68177	0.06541
3359.75309	0.06554
3357.82442	0.06569
3355.89574	0.06583
3353.96706	0.06594
3352.03839	0.06602
3350.10971	0.06613
3348.18104	0.06625
3346.25236	0.06638
3344.32369	0.06650
3342.39501	0.06663
3340.46633	0.06673
3338.53766	0.06685
3336.60898	0.06698
3334.68031	0.06710
3332.75163	0.06721
3330.82296	0.06731
3328.89428	0.06742
3326.96560	0.06754
3325.03693	0.06766
3323.10825	0.06780
3321.17958	0.06795
3319.25090	0.06808
3317.32223	0.06821
3315.39355	0.06833
3313.46487	0.06845
3311.53620	0.06858
3309.60752	0.06869
3307.67885	0.06880
3305.75017	0.06893
3303.82150	0.06905
3301.89282	0.06917
3299.96414	0.06930
3298.03547	0.06943
3296.10679	0.06956
3294.17812	0.06968
3292.24944	0.06980
3290.32077	0.06990
3288.39209	0.07002
3286.46341	0.07019
3284.53474	0.07036
3282.60606	0.07048
3280.67739	0.07058
3278.74871	0.07068
3276.82004	0.07080
3274.89136	0.07093
3272.96268	0.07107
3271.03401	0.07119
3269.10533	0.07131
3267.17666	0.07142
3265.24798	0.07155
3263.31931	0.07169
3261.39063	0.07184
3259.46195	0.07198
3257.53328	0.07210
3255.60460	0.07223
3253.67593	0.07237
3251.74725	0.07252
3249.81858	0.07265
3247.88990	0.07279
3245.96122	0.07291
3244.03255	0.07302
3242.10387	0.07312
3240.17520	0.07324
3238.24652	0.07337
3236.31785	0.07353
3234.38917	0.07371
3232.46049	0.07386
3230.53182	0.07399
3228.60314	0.07412
3226.67447	0.07425
3224.74579	0.07435
3222.81712	0.07445
3220.88844	0.07455
3218.95976	0.07467
3217.03109	0.07481
3215.10241	0.07494
3213.17374	0.07504
3211.24506	0.07515
3209.31639	0.07530
3207.38771	0.07545
3205.45903	0.07560
3203.53036	0.07577
3201.60168	0.07592
3199.67301	0.07605
3197.74433	0.07617
3195.81566	0.07630
3193.88698	0.07643
3191.95830	0.07656
3190.02963	0.07670
3188.10095	0.07685
3186.17228	0.07701
3184.24360	0.07716
3182.31493	0.07729
3180.38625	0.07741
3178.45757	0.07756
3176.52890	0.07770
3174.60022	0.07784
3172.67155	0.07800
3170.74287	0.07815
3168.81420	0.07827
3166.88552	0.07837
3164.95684	0.07848
3163.02817	0.07861
3161.09949	0.07875
3159.17082	0.07890
3157.24214	0.07907
3155.31347	0.07923
3153.38479	0.07936
3151.45611	0.07946
3149.52744	0.07955
3147.59876	0.07965
3145.67009	0.07980
3143.74141	0.07996
3141.81274	0.08012
3139.88406	0.08029
3137.95538	0.08042
3136.02671	0.08052
3134.09803	0.08062
3132.16936	0.08075
3130.24068	0.08089
3128.31201	0.08103
3126.38333	0.08113
3124.45465	0.08124
3122.52598	0.08139
3120.59730	0.08155
3118.66863	0.08170
3116.73995	0.08185
3114.81128	0.08199
3112.88260	0.08211
3110.95392	0.08222
3109.02525	0.08236
3107.09657	0.08249
3105.16790	0.08259
3103.23922	0.08268
3101.31055	0.08283
3099.38187	0.08301
3097.45319	0.08317
3095.52452	0.08329
3093.59584	0.08341
3091.66717	0.08356
3089.73849	0.08372
3087.80982	0.08386
3085.88114	0.08399
3083.95246	0.08411
3082.02379	0.08424
3080.09511	0.08438
3078.16644	0.08451
3076.23776	0.08463
3074.30909	0.08475
3072.38041	0.08488
3070.45173	0.08500
3068.52306	0.08512
3066.59438	0.08525
3064.66571	0.08540
3062.73703	0.08556
3060.80836	0.08570
3058.87968	0.08583
3056.95100	0.08597
3055.02233	0.08611
3053.09365	0.08621
3051.16498	0.08632
3049.23630	0.08645
3047.30763	0.08660
3045.37895	0.08676
3043.45027	0.08693
3041.52160	0.08707
3039.59292	0.08719
3037.66425	0.08730
3035.73557	0.08741
3033.80690	0.08755
3031.87822	0.08770
3029.94954	0.08784
3028.02087	0.08795
3026.09219	0.08806
3024.16352	0.08819
3022.23484	0.08835
3020.30617	0.08852
3018.37749	0.08865
3016.44881	0.08875
3014.52014	0.08885
3012.59146	0.08899
3010.66279	0.08916
3008.73411	0.08930
3006.80544	0.08940
3004.87676	0.08952
3002.94808	0.08966
3001.01941	0.08980
2999.09073	0.08993
2997.16206	0.09005
2995.23338	0.09016
2993.30471	0.09029
2991.37603	0.09041
2989.44735	0.09051
2987.51868	0.09061
2985.59000	0.09071
2983.66133	0.09079
2981.73265	0.09084
2979.80398	0.09088
2977.87530	0.09094
2975.94662	0.09100
2974.01795	0.09104
2972.08927	0.09104
2970.16060	0.09105
2968.23192	0.09106
2966.30325	0.09106
2964.37457	0.09108
2962.44589	0.09115
2960.51722	0.09128
2958.58854	0.09146
2956.65987	0.09165
2954.73119	0.09183
2952.80252	0.09202
2950.87384	0.09220
2948.94516	0.09235
2947.01649	0.09246
2945.08781	0.09255
2943.15914	0.09264
2941.23046	0.09271
2939.30179	0.09273
2937.37311	0.09271
2935.44443	0.09266
2933.51576	0.09261
2931.58708	0.09256
2929.65841	0.09252
2927.72973	0.09249
2925.80106	0.09250
2923.87238	0.09253
2921.94370	0.09256
2920.01503	0.09263
2918.08635	0.09280
2916.15768	0.09311
2914.22900	0.09353
2912.30033	0.09399
2910.37165	0.09437
2908.44297	0.09469
2906.51430	0.09497
2904.58562	0.09522
2902.65695	0.09542
2900.72827	0.09560
2898.79960	0.09580
2896.87092	0.09600
2894.94224	0.09620
2893.01357	0.09638
2891.08489	0.09656
2889.15622	0.09672
2887.22754	0.09689
2885.29887	0.09706
2883.37019	0.09724
2881.44151	0.09740
2879.51284	0.09752
2877.58416	0.09762
2875.65549	0.09774
2873.72681	0.09789
2871.79814	0.09802
2869.86946	0.09812
2867.94078	0.09821
2866.01211	0.09828
2864.08343	0.09835
2862.15476	0.09844
2860.22608	0.09853
2858.29741	0.09857
2856.36873	0.09856
2854.44005	0.09852
2852.51138	0.09854
2850.58270	0.09866
2848.65403	0.09891
2846.72535	0.09931
2844.79668	0.09977
2842.86800	0.10017
2840.93932	0.10044
2839.01065	0.10068
2837.08197	0.10093
2835.15330	0.10119
2833.22462	0.10140
2831.29595	0.10156
2829.36727	0.10170
2827.43859	0.10185
2825.50992	0.10201
2823.58124	0.10217
2821.65257	0.10233
2819.72389	0.10248
2817.79522	0.10260
2815.86654	0.10274
2813.93786	0.10291
2812.00919	0.10307
2810.08051	0.10319
2808.15184	0.10333
2806.22316	0.10352
2804.29449	0.10370
2802.36581	0.10384
2800.43713	0.10399
2798.50846	0.10415
2796.57978	0.10427
2794.65111	0.10438
2792.72243	0.10452
2790.79376	0.10470
2788.86508	0.10488
2786.93640	0.10503
2785.00773	0.10514
2783.07905	0.10524
2781.15038	0.10537
2779.22170	0.10554
2777.29303	0.10571
2775.36435	0.10587
2773.43567	0.10602
2771.50700	0.10617
2769.57832	0.10632
2767.64965	0.10647
2765.72097	0.10658
2763.79230	0.10666
2761.86362	0.10679
2759.93494	0.10696
2758.00627	0.10713
2756.07759	0.10726
2754.14892	0.10738
2752.22024	0.10751
2750.29157	0.10765
2748.36289	0.10781
2746.43421	0.10796
2744.50554	0.10809
2742.57686	0.10821
2740.64819	0.10833
2738.71951	0.10847
2736.79084	0.10860
2734.86216	0.10872
2732.93348	0.10889
2731.00481	0.10908
2729.07613	0.10924
2727.14746	0.10937
2725.21878	0.10949
2723.29011	0.10963
2721.36143	0.10982
2719.43275	0.11001
2717.50408	0.11013
2715.57540	0.11022
2713.64673	0.11033
2711.71805	0.11048
2709.78938	0.11061
2707.86070	0.11071
2705.93202	0.11081
2704.00335	0.11093
2702.07467	0.11108
2700.14600	0.11126
2698.21732	0.11140
2696.28865	0.11150
2694.35997	0.11161
2692.43129	0.11177
2690.50262	0.11195
2688.57394	0.11209
2686.64527	0.11220
2684.71659	0.11234
2682.78792	0.11250
2680.85924	0.11265
2678.93056	0.11278
2677.00189	0.11290
2675.07321	0.11304
2673.14454	0.11318
2671.21586	0.11333
2669.28719	0.11348
2667.35851	0.11361
2665.42983	0.11373
2663.50116	0.11386
2661.57248	0.11401
2659.64381	0.11418
2657.71513	0.11434
2655.78646	0.11448
2653.85778	0.11460
2651.92910	0.11474
2650.00043	0.11487
2648.07175	0.11503
2646.14308	0.11522
2644.21440	0.11540
2642.28573	0.11554
2640.35705	0.11567
2638.42837	0.11581
2636.49970	0.11596
2634.57102	0.11613
2632.64235	0.11629
2630.71367	0.11644
2628.78500	0.11658
2626.85632	0.11672
2624.92764	0.11688
2622.99897	0.11705
2621.07029	0.11721
2619.14162	0.11736
2617.21294	0.11748
2615.28427	0.11759
2613.35559	0.11774
2611.42691	0.11790
2609.49824	0.11808
2607.56956	0.11826
2605.64089	0.11841
2603.71221	0.11853
2601.78354	0.11865
2599.85486	0.11877
2597.92618	0.11891
2595.99751	0.11905
2594.06883	0.11920
2592.14016	0.11934
2590.21148	0.11946
2588.28281	0.11960
2586.35413	0.11977
2584.42545	0.11996
2582.49678	0.12014
2580.56810	0.12030
2578.63943	0.12043
2576.71075	0.12053
2574.78208	0.12063
2572.85340	0.12076
2570.92472	0.12093
2568.99605	0.12109
2567.06737	0.12122
2565.13870	0.12132
2563.21002	0.12145
2561.28135	0.12160
2559.35267	0.12176
2557.42399	0.12190
2555.49532	0.12204
2553.56664	0.12220
2551.63797	0.12237
2549.70929	0.12253
2547.78062	0.12267
2545.85194	0.12281
2543.92326	0.12295
2541.99459	0.12306
2540.06591	0.12316
2538.13724	0.12329
2536.20856	0.12344
2534.27989	0.12360
2532.35121	0.12375
2530.42253	0.12389
2528.49386	0.12404
2526.56518	0.12419
2524.63651	0.12437
2522.70783	0.12456
2520.77916	0.12472
2518.85048	0.12485
2516.92181	0.12499
2514.99313	0.12516
2513.06445	0.12532
2511.13578	0.12545
2509.20710	0.12559
2507.27843	0.12578
2505.34975	0.12598
2503.42108	0.12613
2501.49240	0.12624
2499.56372	0.12635
2497.63505	0.12650
2495.70637	0.12669
2493.77770	0.12689
2491.84902	0.12704
2489.92035	0.12719
2487.99167	0.12737
2486.06299	0.12754
2484.13432	0.12771
2482.20564	0.12786
2480.27697	0.12801
2478.34829	0.12817
2476.41962	0.12831
2474.49094	0.12845
2472.56226	0.12859
2470.63359	0.12875
2468.70491	0.12893
2466.77624	0.12911
2464.84756	0.12925
2462.91889	0.12936
2460.99021	0.12950
2459.06153	0.12967
2457.13286	0.12986
2455.20418	0.13004
2453.27551	0.13021
2451.34683	0.13036
2449.41816	0.13049
2447.48948	0.13061
2445.56080	0.13074
2443.63213	0.13089
2441.70345	0.13105
2439.77478	0.13120
2437.84610	0.13135
2435.91743	0.13150
2433.98875	0.13168
2432.06007	0.13187
2430.13140	0.13207
2428.20272	0.13221
2426.27405	0.13230
2424.34537	0.13241
2422.41670	0.13253
2420.48802	0.13269
2418.55934	0.13288
2416.63067	0.13305
2414.70199	0.13321
2412.77332	0.13336
2410.84464	0.13350
2408.91597	0.13366
2406.98729	0.13384
2405.05861	0.13397
2403.12994	0.13407
2401.20126	0.13419
2399.27259	0.13434
2397.34391	0.13447
2395.41524	0.13463
2393.48656	0.13482
2391.55788	0.13499
2389.62921	0.13514
2387.70053	0.13528
2385.77186	0.13543
2383.84318	0.13556
2381.91451	0.13569
2379.98583	0.13580
2378.05715	0.13585
2376.12848	0.13588
2374.19980	0.13592
2372.27113	0.13598
2370.34245	0.13600
2368.41378	0.13601
2366.48510	0.13605
2364.55642	0.13613
2362.62775	0.13623
2360.69907	0.13638
2358.77040	0.13657
2356.84172	0.13682
2354.91305	0.13714
2352.98437	0.13747
2351.05569	0.13776
2349.12702	0.13794
2347.19834	0.13802
2345.26967	0.13807
2343.34099	0.13816
2341.41232	0.13827
2339.48364	0.13838
2337.55496	0.13850
2335.62629	0.13864
2333.69761	0.13880
2331.76894	0.13895
2329.84026	0.13909
2327.91159	0.13926
2325.98291	0.13945
2324.05423	0.13967
2322.12556	0.13989
2320.19688	0.14011
2318.26821	0.14034
2316.33953	0.14056
2314.41086	0.14076
2312.48218	0.14094
2310.55350	0.14112
2308.62483	0.14133
2306.69615	0.14152
2304.76748	0.14169
2302.83880	0.14185
2300.91013	0.14203
2298.98145	0.14219
2297.05277	0.14232
2295.12410	0.14245
2293.19542	0.14262
2291.26675	0.14282
2289.33807	0.14300
2287.40940	0.14316
2285.48072	0.14331
2283.55204	0.14343
2281.62337	0.14358
2279.69469	0.14375
2277.76602	0.14391
2275.83734	0.14403
2273.90867	0.14416
2271.97999	0.14433
2270.05131	0.14453
2268.12264	0.14471
2266.19396	0.14486
2264.26529	0.14499
2262.33661	0.14512
2260.40794	0.14524
2258.47926	0.14538
2256.55058	0.14553
2254.62191	0.14568
2252.69323	0.14584
2250.76456	0.14601
2248.83588	0.14617
2246.90721	0.14633
2244.97853	0.14649
2243.04985	0.14664
2241.12118	0.14678
2239.19250	0.14691
2237.26383	0.14708
2235.33515	0.14726
2233.40648	0.14743
2231.47780	0.14757
2229.54912	0.14769
2227.62045	0.14784
2225.69177	0.14802
2223.76310	0.14818
2221.83442	0.14834
2219.90575	0.14849
2217.97707	0.14862
2216.04839	0.14873
2214.11972	0.14883
2212.19104	0.14899
2210.26237	0.14918
2208.33369	0.14934
2206.40502	0.14948
2204.47634	0.14962
2202.54766	0.14976
2200.61899	0.14990
2198.69031	0.15005
2196.76164	0.15020
2194.83296	0.15035
2192.90429	0.15052
2190.97561	0.15070
2189.04693	0.15086
2187.11826	0.15099
2185.18958	0.15112
2183.26091	0.15129
2181.33223	0.15146
2179.40356	0.15161
2177.47488	0.15175
2175.54620	0.15192
2173.61753	0.15209
2171.68885	0.15224
2169.76018	0.15237
2167.83150	0.15254
2165.90283	0.15272
2163.97415	0.15285
2162.04547	0.15296
2160.11680	0.15310
2158.18812	0.15325
2156.25945	0.15340
2154.33077	0.15353
2152.40210	0.15367
2150.47342	0.15385
2148.54474	0.15404
2146.61607	0.15420
2144.68739	0.15435
2142.75872	0.15452
2140.83004	0.15467
2138.90137	0.15482
2136.97269	0.15497
2135.04401	0.15513
2133.11534	0.15529
2131.18666	0.15545
2129.25799	0.15562
2127.32931	0.15577
2125.40064	0.15591
2123.47196	0.15606
2121.54328	0.15622
2119.61461	0.15637
2117.68593	0.15652
2115.75726	0.15666
2113.82858	0.15682
2111.89991	0.15702
2109.97123	0.15717
2108.04255	0.15728
2106.11388	0.15745
2104.18520	0.15765
2102.25653	0.15781
2100.32785	0.15794
2098.39918	0.15810
2096.47050	0.15828
2094.54182	0.15844
2092.61315	0.15856
2090.68447	0.15867
2088.75580	0.15881
2086.82712	0.15896
2084.89845	0.15909
2082.96977	0.15920
2081.04109	0.15935
2079.11242	0.15953
2077.18374	0.15968
2075.25507	0.15983
2073.32639	0.16000
2071.39772	0.16017
2069.46904	0.16031
2067.54036	0.16045
2065.61169	0.16059
2063.68301	0.16077
2061.75434	0.16098
2059.82566	0.16116
2057.89699	0.16128
2055.96831	0.16139
2054.03963	0.16154
2052.11096	0.16170
2050.18228	0.16184
2048.25361	0.16201
2046.32493	0.16217
2044.39626	0.16233
2042.46758	0.16251
2040.53890	0.16267
2038.61023	0.16280
2036.68155	0.16296
2034.75288	0.16312
2032.82420	0.16327
2030.89553	0.16344
2028.96685	0.16362
2027.03817	0.16380
2025.10950	0.16399
2023.18082	0.16419
2021.25215	0.16435
2019.32347	0.16448
2017.39480	0.16461
2015.46612	0.16477
2013.53744	0.16495
2011.60877	0.16511
2009.68009	0.16527
2007.75142	0.16542
2005.82274	0.16556
2003.89407	0.16566
2001.96539	0.16578
2000.03671	0.16595
1998.10804	0.16612
1996.17936	0.16624
1994.25069	0.16631
1992.32201	0.16639
1990.39334	0.16654
1988.46466	0.16673
1986.53598	0.16691
1984.60731	0.16707
1982.67863	0.16722
1980.74996	0.16739
1978.82128	0.16755
1976.89261	0.16768
1974.96393	0.16776
1973.03525	0.16785
1971.10658	0.16796
1969.17790	0.16806
1967.24923	0.16820
1965.32055	0.16840
1963.39188	0.16861
1961.46320	0.16877
1959.53452	0.16890
1957.60585	0.16902
1955.67717	0.16915
1953.74850	0.16932
1951.81982	0.16948
1949.89115	0.16963
1947.96247	0.16978
1946.03379	0.16991
1944.10512	0.16998
1942.17644	0.17007
1940.24777	0.17031
1938.31909	0.17055
1936.39042	0.17071
1934.46174	0.17083
1932.53306	0.17094
1930.60439	0.17108
1928.67571	0.17126
1926.74704	0.17141
1924.81836	0.17150
1922.88969	0.17162
1920.96101	0.17174
1919.03233	0.17180
1917.10366	0.17199
1915.17498	0.17231
1913.24631	0.17253
1911.31763	0.17262
1909.38896	0.17272
1907.46028	0.17289
1905.53160	0.17307
1903.60293	0.17322
1901.67425	0.17336
1899.74558	0.17350
1897.81690	0.17363
1895.88823	0.17373
1893.95955	0.17385
1892.03087	0.17397
1890.10220	0.17405
1888.17352	0.17419
1886.24485	0.17440
1884.31617	0.17462
1882.38750	0.17484
1880.45882	0.17504
1878.53014	0.17520
1876.60147	0.17535
1874.67279	0.17550
1872.74412	0.17551
1870.81544	0.17534
1868.88677	0.17529
1866.95809	0.17560
1865.02941	0.17607
1863.10074	0.17635
1861.17206	0.17646
1859.24339	0.17658
1857.31471	0.17680
1855.38604	0.17703
1853.45736	0.17720
1851.52868	0.17730
1849.60001	0.17733
1847.67133	0.17727
1845.74266	0.17714
1843.81398	0.17724
1841.88531	0.17769
1839.95663	0.17810
1838.02795	0.17825
1836.09928	0.17839
1834.17060	0.17854
1832.24193	0.17852
1830.31325	0.17848
1828.38458	0.17866
1826.45590	0.17888
1824.52722	0.17908
1822.59855	0.17942
1820.66987	0.17971
1818.74120	0.17984
1816.81252	0.17993
1814.88385	0.18003
1812.95517	0.18009
1811.02649	0.18015
1809.09782	0.18028
1807.16914	0.18046
1805.24047	0.18057
1803.31179	0.18053
1801.38312	0.18049
1799.45444	0.18066
1797.52576	0.18093
1795.59709	0.18101
1793.66841	0.18092
1791.73974	0.18100
1789.81106	0.18139
1787.88239	0.18167
1785.95371	0.18168
1784.02503	0.18169
1782.09636	0.18180
1780.16768	0.18199
1778.23901	0.18223
1776.31033	0.18233
1774.38166	0.18214
1772.45298	0.18196
1770.52430	0.18205
1768.59563	0.18233
1766.66695	0.18269
1764.73828	0.18291
1762.80960	0.18290
1760.88093	0.18291
1758.95225	0.18300
1757.02357	0.18307
1755.09490	0.18313
1753.16622	0.18295
1751.23755	0.18263
1749.30887	0.18265
1747.38020	0.18290
1745.45152	0.18303
1743.52284	0.18303
1741.59417	0.18299
1739.66549	0.18301
1737.73682	0.18300
1735.80814	0.18272
1733.87947	0.18254
1731.95079	0.18289
1730.02211	0.18342
1728.09344	0.18384
1726.16476	0.18414
1724.23609	0.18427
1722.30741	0.18426
1720.37874	0.18395
1718.45006	0.18354
1716.52138	0.18358
1714.59271	0.18409
1712.66403	0.18467
1710.73536	0.18502
1708.80668	0.18505
1706.87801	0.18491
1704.94933	0.18482
1703.02065	0.18453
1701.09198	0.18410
1699.16330	0.18412
1697.23463	0.18447
1695.30595	0.18483
1693.37728	0.18525
1691.44860	0.18547
1689.51992	0.18543
1687.59125	0.18524
1685.66257	0.18481
1683.73390	0.18463
1681.80522	0.18505
1679.87655	0.18554
1677.94787	0.18561
1676.01919	0.18541
1674.09052	0.18534
1672.16184	0.18534
1670.23317	0.18527
1668.30449	0.18551
1666.37582	0.18596
1664.44714	0.18607
1662.51846	0.18600
1660.58979	0.18614
1658.66111	0.18627
1656.73244	0.18592
1654.80376	0.18509
1652.87509	0.18475
1650.94641	0.18525
1649.01773	0.18559
1647.08906	0.18556
1645.16038	0.18586
1643.23171	0.18635
1641.30303	0.18656
1639.37436	0.18641
1637.44568	0.18604
1635.51700	0.18594
1633.58833	0.18638
1631.65965	0.18683
1629.73098	0.18684
1627.80230	0.18666
1625.87363	0.18645
1623.94495	0.18616
1622.01627	0.18596
1620.08760	0.18592
1618.15892	0.18603
1616.23025	0.18652
1614.30157	0.18738
1612.37290	0.18801
1610.44422	0.18826
1608.51554	0.18843
1606.58687	0.18869
1604.65819	0.18893
1602.72952	0.18909
1600.80084	0.18926
1598.87217	0.18946
1596.94349	0.18960
1595.01481	0.18971
1593.08614	0.18990
1591.15746	0.19011
1589.22879	0.19031
1587.30011	0.19051
1585.37144	0.19071
1583.44276	0.19086
1581.51408	0.19095
1579.58541	0.19089
1577.65673	0.19071
1575.72806	0.19081
1573.79938	0.19120
1571.87071	0.19132
1569.94203	0.19121
1568.01335	0.19135
1566.08468	0.19164
1564.15600	0.19176
1562.22733	0.19142
1560.29865	0.19068
1558.36998	0.19045
1556.44130	0.19110
1554.51262	0.19187
1552.58395	0.19229
1550.65527	0.19248
1548.72660	0.19261
1546.79792	0.19256
1544.86925	0.19218
1542.94057	0.19171
1541.01189	0.19155
1539.08322	0.19198
1537.15454	0.19264
1535.22587	0.19287
1533.29719	0.19288
1531.36852	0.19313
1529.43984	0.19327
1527.51116	0.19314
1525.58249	0.19300
1523.65381	0.19275
1521.72514	0.19248
1519.79646	0.19259
1517.86779	0.19293
1515.93911	0.19328
1514.01043	0.19360
1512.08176	0.19365
1510.15308	0.19328
1508.22441	0.19282
1506.29573	0.19294
1504.36706	0.19374
1502.43838	0.19431
1500.50970	0.19423
1498.58103	0.19397
1496.65235	0.19400
1494.72368	0.19422
1492.79500	0.19413
1490.86633	0.19374
1488.93765	0.19361
1487.00897	0.19387
1485.08030	0.19412
1483.15162	0.19411
1481.22295	0.19393
1479.29427	0.19363
1477.36560	0.19314
1475.43692	0.19257
1473.50824	0.19213
1471.57957	0.19200
1469.65089	0.19208
1467.72222	0.19193
1465.79354	0.19152
1463.86487	0.19132
1461.93619	0.19121
1460.00751	0.19064
1458.07884	0.18986
1456.15016	0.18977
1454.22149	0.19037
1452.29281	0.19083
1450.36414	0.19087
1448.43546	0.19087
1446.50678	0.19106
1444.57811	0.19134
1442.64943	0.19155
1440.72076	0.19156
1438.79208	0.19121
1436.86341	0.19089
1434.93473	0.19115
1433.00605	0.19167
1431.07738	0.19196
1429.14870	0.19215
1427.22003	0.19231
1425.29135	0.19230
1423.36268	0.19215
1421.43400	0.19186
1419.50532	0.19156
1417.57665	0.19169
1415.64797	0.19218
1413.71930	0.19249
1411.79062	0.19257
1409.86195	0.19259
1407.93327	0.19253
1406.00459	0.19236
1404.07592	0.19228
1402.14724	0.19227
1400.21857	0.19215
1398.28989	0.19198
1396.36122	0.19185
1394.43254	0.19185
1392.50386	0.19204
1390.57519	0.19204
1388.64651	0.19166
1386.71784	0.19130
1384.78916	0.19128
1382.86049	0.19142
1380.93181	0.19149
1379.00313	0.19146
1377.07446	0.19132
1375.14578	0.19116
1373.21711	0.19116
1371.28843	0.19130
1369.35976	0.19140
1367.43108	0.19141
1365.50240	0.19127
1363.57373	0.19103
1361.64505	0.19100
1359.71638	0.19124
1357.78770	0.19146
1355.85903	0.19156
1353.93035	0.19163
1352.00167	0.19167
1350.07300	0.19168
1348.14432	0.19177
1346.21565	0.19190
1344.28697	0.19195
1342.35830	0.19184
1340.42962	0.19165
1338.50094	0.19156
1336.57227	0.19162
1334.64359	0.19168
1332.71492	0.19162
1330.78624	0.19150
1328.85757	0.19135
1326.92889	0.19117
1325.00021	0.19098
1323.07154	0.19081
1321.14286	0.19064
1319.21419	0.19042
1317.28551	0.19021
1315.35684	0.19004
1313.42816	0.18992
1311.49948	0.18978
1309.57081	0.18958
1307.64213	0.18939
1305.71346	0.18920
1303.78478	0.18896
1301.85611	0.18874
1299.92743	0.18857
1297.99875	0.18840
1296.07008	0.18822
1294.14140	0.18806
1292.21273	0.18791
1290.28405	0.18771
1288.35538	0.18749
1286.42670	0.18733
1284.49802	0.18719
1282.56935	0.18699
1280.64067	0.18671
1278.71200	0.18639
1276.78332	0.18605
1274.85465	0.18568
1272.92597	0.18521
1270.99729	0.18457
1269.06862	0.18380
1267.13994	0.18298
1265.21127	0.18228
1263.28259	0.18180
1261.35392	0.18156
1259.42524	0.18152
1257.49656	0.18161
1255.56789	0.18172
1253.63921	0.18176
1251.71054	0.18170
1249.78186	0.18152
1247.85319	0.18121
1245.92451	0.18086
1243.99583	0.18050
1242.06716	0.18008
1240.13848	0.17961
1238.20981	0.17910
1236.28113	0.17859
1234.35246	0.17805
1232.42378	0.17749
1230.49510	0.17691
1228.56643	0.17638
1226.63775	0.17589
1224.70908	0.17545
1222.78040	0.17500
1220.85173	0.17453
1218.92305	0.17410
1216.99437	0.17367
1215.06570	0.17317
1213.13702	0.17265
1211.20835	0.17214
1209.27967	0.17160
1207.35100	0.17102
1205.42232	0.17044
1203.49364	0.16986
1201.56497	0.16927
1199.63629	0.16870
1197.70762	0.16813
1195.77894	0.16758
1193.85027	0.16705
1191.92159	0.16650
1189.99291	0.16587
1188.06424	0.16517
1186.13556	0.16440
1184.20689	0.16361
1182.27821	0.16283
1180.34954	0.16206
1178.42086	0.16127
1176.49218	0.16046
1174.56351	0.15963
1172.63483	0.15884
1170.70616	0.15805
1168.77748	0.15725
1166.84881	0.15642
1164.92013	0.15556
1162.99145	0.15479
1161.06278	0.15411
1159.13410	0.15338
1157.20543	0.15254
1155.27675	0.15174
1153.34808	0.15105
1151.41940	0.15038
1149.49072	0.14967
1147.56205	0.14889
1145.63337	0.14809
1143.70470	0.14728
1141.77602	0.14642
1139.84735	0.14548
1137.91867	0.14450
1135.98999	0.14342
1134.06132	0.14213
1132.13264	0.14062
1130.20397	0.13891
1128.27529	0.13703
1126.34662	0.13500
1124.41794	0.13284
1122.48926	0.13068
1120.56059	0.12859
1118.63191	0.12656
1116.70324	0.12462
1114.77456	0.12286
1112.84589	0.12134
1110.91721	0.12013
1108.98853	0.11919
1107.05986	0.11849
1105.13118	0.11802
1103.20251	0.11782
1101.27383	0.11793
1099.34516	0.11828
1097.41648	0.11877
1095.48780	0.11938
1093.55913	0.12008
1091.63045	0.12082
1089.70178	0.12153
1087.77310	0.12217
1085.84443	0.12267
1083.91575	0.12308
1081.98707	0.12342
1080.05840	0.12369
1078.12972	0.12390
1076.20105	0.12404
1074.27237	0.12413
1072.34370	0.12416
1070.41502	0.12419
1068.48634	0.12428
1066.55767	0.12444
1064.62899	0.12464
1062.70032	0.12489
1060.77164	0.12514
1058.84297	0.12540
1056.91429	0.12569
1054.98561	0.12595
1053.05694	0.12617
1051.12826	0.12642
1049.19959	0.12676
1047.27091	0.12710
1045.34224	0.12740
1043.41356	0.12772
1041.48488	0.12811
1039.55621	0.12853
1037.62753	0.12890
1035.69886	0.12921
1033.77018	0.12947
1031.84151	0.12974
1029.91283	0.13007
1027.98415	0.13046
1026.05548	0.13086
1024.12680	0.13121
1022.19813	0.13153
1020.26945	0.13184
1018.34078	0.13222
1016.41210	0.13270
1014.48342	0.13322
1012.55475	0.13371
1010.62607	0.13420
1008.69740	0.13479
1006.76872	0.13544
1004.84005	0.13598
1002.91137	0.13635
1000.98269	0.13660
999.05402	0.13684
997.12534	0.13709
995.19667	0.13728
993.26799	0.13734
991.33932	0.13740
989.41064	0.13744
987.48196	0.13742
985.55329	0.13744
983.62461	0.13755
981.69594	0.13758
979.76726	0.13745
977.83859	0.13725
975.90991	0.13710
973.98123	0.13702
972.05256	0.13688
970.12388	0.13670
968.19521	0.13661
966.26653	0.13651
964.33786	0.13632
962.40918	0.13612
960.48050	0.13599
958.55183	0.13593
956.62315	0.13584
954.69448	0.13566
952.76580	0.13546
950.83713	0.13526
948.90845	0.13499
946.97977	0.13473
945.05110	0.13455
943.12242	0.13435
941.19375	0.13405
939.26507	0.13366
937.33640	0.13322
935.40772	0.13281
933.47904	0.13244
931.55037	0.13205
929.62169	0.13160
927.69302	0.13105
925.76434	0.13045
923.83567	0.12989
921.90699	0.12936
919.97831	0.12876
918.04964	0.12810
916.12096	0.12744
914.19229	0.12674
912.26361	0.12603
910.33494	0.12539
908.40626	0.12480
906.47758	0.12421
904.54891	0.12356
902.62023	0.12293
900.69156	0.12240
898.76288	0.12194
896.83421	0.12144
894.90553	0.12092
892.97685	0.12048
891.04818	0.12010
889.11950	0.11969
887.19083	0.11928
885.26215	0.11889
883.33348	0.11850
881.40480	0.11814
879.47612	0.11790
877.54745	0.11773
875.61877	0.11747
873.69010	0.11715
871.76142	0.11690
869.83275	0.11670
867.90407	0.11647
865.97539	0.11623
864.04672	0.11605
862.11804	0.11598
860.18937	0.11602
858.26069	0.11603
856.33202	0.11594
854.40334	0.11575
852.47466	0.11551
850.54599	0.11522
848.61731	0.11491
846.68864	0.11458
844.75996	0.11430
842.83129	0.11405
840.90261	0.11378
838.97394	0.11341
837.04526	0.11290
835.11658	0.11228
833.18791	0.11156
831.25923	0.11068
829.33056	0.10966
827.40188	0.10867
825.47321	0.10773
823.54453	0.10687
821.61585	0.10610
819.68718	0.10543
817.75850	0.10491
815.82983	0.10457
813.90115	0.10425
811.97248	0.10390
810.04380	0.10359
808.11512	0.10335
806.18645	0.10322
804.25777	0.10319
802.32910	0.10318
800.40042	0.10299
798.47175	0.10253
796.54307	0.10195
794.61439	0.10139
792.68572	0.10090
790.75704	0.10058
788.82837	0.10040
786.89969	0.10023
784.97102	0.10001
783.04234	0.09971
781.11366	0.09938
779.18499	0.09909
777.25631	0.09882
775.32764	0.09848
773.39896	0.09816
771.47029	0.09789
769.54161	0.09764
767.61293	0.09731
765.68426	0.09693
763.75558	0.09654
761.82691	0.09611
759.89823	0.09562
757.96956	0.09508
756.04088	0.09451
754.11220	0.09388
752.18353	0.09322
750.25485	0.09263
748.32618	0.09203
746.39750	0.09129
744.46883	0.09041
742.54015	0.08949
740.61147	0.08871
738.68280	0.08823
736.75412	0.08805
734.82545	0.08805
732.89677	0.08809
730.96810	0.08813
729.03942	0.08819
727.11074	0.08831
725.18207	0.08846
723.25339	0.08858
721.32472	0.08863
719.39604	0.08870
717.46737	0.08889
715.53869	0.08928
713.61001	0.08981
711.68134	0.09026
709.75266	0.09043
707.82399	0.09047
705.89531	0.09050
703.96664	0.09044
702.03796	0.09017
700.10928	0.08975
698.18061	0.08926
696.25193	0.08875
694.32326	0.08825
692.39458	0.08770
690.46591	0.08711
688.53723	0.08659
686.60855	0.08615
684.67988	0.08568
682.75120	0.08517
680.82253	0.08464
678.89385	0.08408
676.96518	0.08349
675.03650	0.08290
673.10782	0.08226
671.17915	0.08146
669.25047	0.08054
667.32180	0.07977
665.39312	0.07918
663.46445	0.07854
661.53577	0.07778
659.60709	0.07699
657.67842	0.07620
655.74974	0.07542
653.82107	0.07472
651.89239	0.07404
649.96372	0.07324
648.03504	0.07234
646.10636	0.07143
644.17769	0.07050
642.24901	0.06952
640.32034	0.06855
638.39166	0.06764
636.46299	0.06679
634.53431	0.06591
632.60563	0.06465
630.67696	0.06243
628.74828	0.05903
626.81961	0.05481
624.89093	0.05059
622.96226	0.04721
621.03358	0.04503
619.10490	0.04378
617.17623	0.04295
615.24755	0.04219
613.31888	0.04125
611.39020	0.04030
609.46153	0.03982
607.53285	0.03993
605.60417	0.04031
603.67550	0.04080
601.74682	0.04152
599.81815	0.04247
597.88947	0.04337
595.96080	0.04407
594.03212	0.04454
592.10344	0.04475
590.17477	0.04478
588.24609	0.04472
586.31742	0.04454
584.38874	0.04426
582.46007	0.04394
580.53139	0.04358
578.60271	0.04316
576.67404	0.04271
574.74536	0.04218
572.81669	0.04153
570.88801	0.04086
568.95934	0.04030
567.03066	0.03991
565.10198	0.03964
563.17331	0.03940
561.24463	0.03913
559.31596	0.03884
557.38728	0.03858
555.45861	0.03833
553.52993	0.03809
551.60125	0.03796
549.67258	0.03789
547.74390	0.03782
545.81523	0.03766
543.88655	0.03742
541.95788	0.03729
540.02920	0.03726
538.10052	0.03714
536.17185	0.03696
534.24317	0.03682
532.31450	0.03663
530.38582	0.03635
528.45715	0.03605
526.52847	0.03574
524.59979	0.03538
522.67112	0.03494
520.74244	0.03442
518.81377	0.03389
516.88509	0.03328
514.95642	0.03272
513.02774	0.03242
511.09906	0.03229
509.17039	0.03208
507.24171	0.03184
505.31304	0.03161
503.38436	0.03126
501.45569	0.03082
499.52701	0.03042
497.59833	0.03002
495.66966	0.02949
493.74098	0.02893
491.81231	0.02843
489.88363	0.02794
487.95496	0.02744
486.02628	0.02694
484.09760	0.02643
482.16893	0.02593
480.24025	0.02543
478.31158	0.02490
476.38290	0.02434
474.45423	0.02377
472.52555	0.02336
470.59687	0.02304
468.66820	0.02261
466.73952	0.02214
464.81085	0.02184
462.88217	0.02178
460.95350	0.02173
459.02482	0.02154
457.09614	0.02148
455.16747	0.02159
453.23879	0.02159
451.31012	0.02138
449.38144	0.02115
447.45277	0.02103
445.52409	0.02102
443.59541	0.02096
441.66674	0.02068
439.73806	0.02028
437.80939	0.01991
435.88071	0.01948
433.95204	0.01893
432.02336	0.01835
430.09468	0.01779
428.16601	0.01717
426.23733	0.01648
424.30866	0.01586
422.37998	0.01538
420.45131	0.01486
418.52263	0.01422
416.59395	0.01350
414.66528	0.01285
412.73660	0.01237
410.80793	0.01191
408.87925	0.01129
406.95058	0.01060
405.02190	0.00999
403.09322	0.00944
401.16455	0.00887
399.23587	0.00827
397.30720	0.00772
395.37852	0.00724
393.44985	0.00686
391.52117	0.00644
389.59249	0.00595
387.66382	0.00557
385.73514	0.00530
383.80647	0.00502
381.87779	0.00471
379.94912	0.00435
378.02044	0.00389
376.09176	0.00345
374.16309	0.00314
372.23441	0.00296
370.30574	0.00273
368.37706	0.00238
