7496.76250	0.00110
7494.83382	0.00110
7492.90514	0.00110
7490.97647	0.00110
7489.04779	0.00112
7487.11912	0.00115
7485.19044	0.00117
7483.26177	0.00119
7481.33309	0.00117
7479.40441	0.00115
7477.47574	0.00115
7475.54706	0.00115
7473.61839	0.00114
7471.68971	0.00114
7469.76104	0.00115
7467.83236	0.00116
7465.90368	0.00116
7463.97501	0.00115
7462.04633	0.00115
7460.11766	0.00116
7458.18898	0.00117
7456.26031	0.00118
7454.33163	0.00118
7452.40295	0.00118
7450.47428	0.00118
7448.54560	0.00119
7446.61693	0.00120
7444.68825	0.00120
7442.75958	0.00119
7440.83090	0.00119
7438.90222	0.00120
7436.97355	0.00121
7435.04487	0.00121
7433.11620	0.00122
7431.18752	0.00123
7429.25885	0.00124
7427.33017	0.00125
7425.40149	0.00125
7423.47282	0.00125
7421.54414	0.00125
7419.61547	0.00124
7417.68679	0.00124
7415.75812	0.00124
7413.82944	0.00123
7411.90076	0.00122
7409.97209	0.00122
7408.04341	0.00124
7406.11474	0.00125
7404.18606	0.00125
7402.25739	0.00125
7400.32871	0.00126
7398.40003	0.00125
7396.47136	0.00124
7394.54268	0.00124
7392.61401	0.00126
7390.68533	0.00127
7388.75666	0.00129
7386.82798	0.00130
7384.89930	0.00129
7382.97063	0.00128
7381.04195	0.00128
7379.11328	0.00128
7377.18460	0.00129
7375.25593	0.00129
7373.32725	0.00129
7371.39857	0.00129
7369.46990	0.00130
7367.54122	0.00132
7365.61255	0.00134
7363.68387	0.00136
7361.75520	0.00135
7359.82652	0.00134
7357.89784	0.00133
7355.96917	0.00134
7354.04049	0.00136
7352.11182	0.00138
7350.18314	0.00137
7348.25447	0.00136
7346.32579	0.00136
7344.39711	0.00137
7342.46844	0.00137
7340.53976	0.00136
7338.61109	0.00136
7336.68241	0.00136
7334.75374	0.00137
7332.82506	0.00138
7330.89638	0.00140
7328.96771	0.00141
7327.03903	0.00140
7325.11036	0.00140
7323.18168	0.00140
7321.25301	0.00140
7319.32433	0.00141
7317.39565	0.00142
7315.46698	0.00143
7313.53830	0.00143
7311.60963	0.00142
7309.68095	0.00142
7307.75228	0.00142
7305.82360	0.00141
7303.89492	0.00142
7301.96625	0.00142
7300.03757	0.00143
7298.10890	0.00144
7296.18022	0.00145
7294.25155	0.00146
7292.32287	0.00145
7290.39419	0.00143
7288.46552	0.00144
7286.53684	0.00145
7284.60817	0.00147
7282.67949	0.00149
7280.75082	0.00150
7278.82214	0.00150
7276.89346	0.00149
7274.96479	0.00150
7273.03611	0.00151
7271.10744	0.00151
7269.17876	0.00151
7267.25009	0.00149
7265.32141	0.00148
7263.39273	0.00148
7261.46406	0.00150
7259.53538	0.00152
7257.60671	0.00153
7255.67803	0.00154
7253.74936	0.00155
7251.82068	0.00154
7249.89200	0.00153
7247.96333	0.00152
7246.03465	0.00152
7244.10598	0.00151
7242.17730	0.00151
7240.24863	0.00154
7238.31995	0.00156
7236.39127	0.00156
7234.46260	0.00154
7232.53392	0.00154
7230.60525	0.00156
7228.67657	0.00157
7226.74790	0.00158
7224.81922	0.00158
7222.89054	0.00158
7220.96187	0.00159
7219.03319	0.00160
7217.10452	0.00161
7215.17584	0.00161
7213.24717	0.00162
7211.31849	0.00162
7209.38981	0.00161
7207.46114	0.00161
7205.53246	0.00162
7203.60379	0.00162
7201.67511	0.00162
7199.74644	0.00163
7197.81776	0.00163
7195.88908	0.00164
7193.96041	0.00164
7192.03173	0.00164
7190.10306	0.00165
7188.17438	0.00165
7186.24571	0.00167
7184.31703	0.00168
7182.38835	0.00168
7180.45968	0.00168
7178.53100	0.00167
7176.60233	0.00166
7174.67365	0.00166
7172.74498	0.00167
7170.81630	0.00170
7168.88762	0.00171
7166.95895	0.00170
7165.03027	0.00169
7163.10160	0.00169
7161.17292	0.00169
7159.24425	0.00169
7157.31557	0.00170
7155.38689	0.00172
7153.45822	0.00172
7151.52954	0.00172
7149.60087	0.00170
7147.67219	0.00170
7145.74352	0.00170
7143.81484	0.00169
7141.88616	0.00170
7139.95749	0.00173
7138.02881	0.00175
7136.10014	0.00174
7134.17146	0.00173
7132.24279	0.00173
7130.31411	0.00175
7128.38543	0.00177
7126.45676	0.00179
7124.52808	0.00179
7122.59941	0.00177
7120.67073	0.00177
7118.74206	0.00177
7116.81338	0.00178
7114.88470	0.00179
7112.95603	0.00179
7111.02735	0.00180
7109.09868	0.00179
7107.17000	0.00179
7105.24133	0.00179
7103.31265	0.00180
7101.38397	0.00181
7099.45530	0.00182
7097.52662	0.00184
7095.59795	0.00184
7093.66927	0.00183
7091.74060	0.00183
7089.81192	0.00183
7087.88324	0.00182
7085.95457	0.00182
7084.02589	0.00184
7082.09722	0.00185
7080.16854	0.00186
7078.23987	0.00187
7076.31119	0.00186
7074.38251	0.00184
7072.45384	0.00183
7070.52516	0.00184
7068.59649	0.00185
7066.66781	0.00187
7064.73914	0.00188
7062.81046	0.00189
7060.88178	0.00190
7058.95311	0.00190
7057.02443	0.00189
7055.09576	0.00188
7053.16708	0.00188
7051.23841	0.00190
7049.30973	0.00192
7047.38105	0.00193
7045.45238	0.00192
7043.52370	0.00193
7041.59503	0.00195
7039.66635	0.00196
7037.73768	0.00195
7035.80900	0.00195
7033.88032	0.00195
7031.95165	0.00195
7030.02297	0.00195
7028.09430	0.00194
7026.16562	0.00195
7024.23695	0.00196
7022.30827	0.00198
7020.37959	0.00199
7018.45092	0.00200
7016.52224	0.00201
7014.59357	0.00202
7012.66489	0.00202
7010.73622	0.00201
7008.80754	0.00199
7006.87886	0.00199
7004.95019	0.00200
7003.02151	0.00202
7001.09284	0.00203
6999.16416	0.00203
6997.23549	0.00204
6995.30681	0.00205
6993.37813	0.00205
6991.44946	0.00205
6989.52078	0.00205
6987.59211	0.00204
6985.66343	0.00205
6983.73476	0.00208
6981.80608	0.00211
6979.87740	0.00211
6977.94873	0.00210
6976.02005	0.00210
6974.09138	0.00210
6972.16270	0.00210
6970.23403	0.00209
6968.30535	0.00209
6966.37667	0.00210
6964.44800	0.00210
6962.51932	0.00209
6960.59065	0.00209
6958.66197	0.00210
6956.73330	0.00211
6954.80462	0.00212
6952.87594	0.00213
6950.94727	0.00213
6949.01859	0.00214
6947.08992	0.00216
6945.16124	0.00218
6943.23257	0.00218
6941.30389	0.00217
6939.37521	0.00216
6937.44654	0.00217
6935.51786	0.00219
6933.58919	0.00220
6931.66051	0.00220
6929.73184	0.00220
6927.80316	0.00220
6925.87448	0.00222
6923.94581	0.00223
6922.01713	0.00224
6920.08846	0.00223
6918.15978	0.00223
6916.23111	0.00224
6914.30243	0.00225
6912.37375	0.00227
6910.44508	0.00227
6908.51640	0.00227
6906.58773	0.00226
6904.65905	0.00225
6902.73038	0.00224
6900.80170	0.00225
6898.87302	0.00226
6896.94435	0.00228
6895.01567	0.00228
6893.08700	0.00229
6891.15832	0.00230
6889.22965	0.00229
6887.30097	0.00228
6885.37229	0.00227
6883.44362	0.00228
6881.51494	0.00230
6879.58627	0.00232
6877.65759	0.00233
6875.72892	0.00233
6873.80024	0.00232
6871.87156	0.00232
6869.94289	0.00234
6868.01421	0.00236
6866.08554	0.00237
6864.15686	0.00237
6862.22819	0.00236
6860.29951	0.00236
6858.37083	0.00236
6856.44216	0.00238
6854.51348	0.00239
6852.58481	0.00239
6850.65613	0.00239
6848.72746	0.00240
6846.79878	0.00241
6844.87010	0.00242
6842.94143	0.00241
6841.01275	0.00240
6839.08408	0.00240
6837.15540	0.00240
6835.22673	0.00241
6833.29805	0.00243
6831.36937	0.00244
6829.44070	0.00244
6827.51202	0.00245
6825.58335	0.00245
6823.65467	0.00246
6821.72600	0.00248
6819.79732	0.00248
6817.86864	0.00248
6815.93997	0.00248
6814.01129	0.00249
6812.08262	0.00251
6810.15394	0.00252
6808.22527	0.00251
6806.29659	0.00249
6804.36791	0.00248
6802.43924	0.00249
6800.51056	0.00249
6798.58189	0.00249
6796.65321	0.00249
6794.72454	0.00251
6792.79586	0.00254
6790.86718	0.00256
6788.93851	0.00256
6787.00983	0.00255
6785.08116	0.00255
6783.15248	0.00257
6781.22381	0.00259
6779.29513	0.00259
6777.36645	0.00260
6775.43778	0.00261
6773.50910	0.00261
6771.58043	0.00262
6769.65175	0.00262
6767.72308	0.00262
6765.79440	0.00262
6763.86572	0.00263
6761.93705	0.00263
6760.00837	0.00264
6758.07970	0.00264
6756.15102	0.00264
6754.22235	0.00265
6752.29367	0.00265
6750.36499	0.00266
6748.43632	0.00266
6746.50764	0.00267
6744.57897	0.00268
6742.65029	0.00268
6740.72162	0.00270
6738.79294	0.00272
6736.86426	0.00272
6734.93559	0.00272
6733.00691	0.00272
6731.07824	0.00272
6729.14956	0.00273
6727.22089	0.00274
6725.29221	0.00273
6723.36353	0.00273
6721.43486	0.00274
6719.50618	0.00274
6717.57751	0.00274
6715.64883	0.00274
6713.72016	0.00274
6711.79148	0.00274
6709.86280	0.00275
6707.93413	0.00277
6706.00545	0.00278
6704.07678	0.00278
6702.14810	0.00278
6700.21943	0.00280
6698.29075	0.00280
6696.36207	0.00281
6694.43340	0.00283
6692.50472	0.00284
6690.57605	0.00285
6688.64737	0.00288
6686.71870	0.00288
6684.79002	0.00285
6682.86134	0.00282
6680.93267	0.00281
6679.00399	0.00282
6677.07532	0.00284
6675.14664	0.00287
6673.21797	0.00289
6671.28929	0.00290
6669.36061	0.00290
6667.43194	0.00290
6665.50326	0.00291
6663.57459	0.00290
6661.64591	0.00290
6659.71724	0.00292
6657.78856	0.00294
6655.85988	0.00294
6653.93121	0.00294
6652.00253	0.00295
6650.07386	0.00297
6648.14518	0.00298
6646.21651	0.00298
6644.28783	0.00298
6642.35915	0.00299
6640.43048	0.00301
6638.50180	0.00301
6636.57313	0.00300
6634.64445	0.00300
6632.71578	0.00302
6630.78710	0.00302
6628.85842	0.00303
6626.92975	0.00304
6625.00107	0.00305
6623.07240	0.00304
6621.14372	0.00305
6619.21505	0.00306
6617.28637	0.00308
6615.35769	0.00308
6613.42902	0.00308
6611.50034	0.00308
6609.57167	0.00309
6607.64299	0.00309
6605.71432	0.00310
6603.78564	0.00312
6601.85696	0.00312
6599.92829	0.00312
6597.99961	0.00313
6596.07094	0.00314
6594.14226	0.00315
6592.21359	0.00317
6590.28491	0.00317
6588.35623	0.00317
6586.42756	0.00317
6584.49888	0.00317
6582.57021	0.00316
6580.64153	0.00318
6578.71286	0.00320
6576.78418	0.00322
6574.85550	0.00323
6572.92683	0.00323
6570.99815	0.00322
6569.06948	0.00321
6567.14080	0.00321
6565.21213	0.00322
6563.28345	0.00323
6561.35477	0.00325
6559.42610	0.00328
6557.49742	0.00328
6555.56875	0.00327
6553.64007	0.00328
6551.71140	0.00329
6549.78272	0.00330
6547.85404	0.00329
6545.92537	0.00330
6543.99669	0.00330
6542.06802	0.00332
6540.13934	0.00333
6538.21067	0.00333
6536.28199	0.00334
6534.35331	0.00334
6532.42464	0.00334
6530.49596	0.00335
6528.56729	0.00337
6526.63861	0.00338
6524.70994	0.00338
6522.78126	0.00335
6520.85258	0.00334
6518.92391	0.00336
6516.99523	0.00339
6515.06656	0.00341
6513.13788	0.00343
6511.20921	0.00343
6509.28053	0.00343
6507.35185	0.00344
6505.42318	0.00345
6503.49450	0.00344
6501.56583	0.00344
6499.63715	0.00345
6497.70848	0.00347
6495.77980	0.00349
6493.85112	0.00350
6491.92245	0.00352
6489.99377	0.00354
6488.06510	0.00354
6486.13642	0.00354
6484.20775	0.00355
6482.27907	0.00356
6480.35039	0.00358
6478.42172	0.00359
6476.49304	0.00358
6474.56437	0.00356
6472.63569	0.00356
6470.70702	0.00356
6468.77834	0.00357
6466.84966	0.00359
6464.92099	0.00360
6462.99231	0.00362
6461.06364	0.00363
6459.13496	0.00365
6457.20629	0.00365
6455.27761	0.00364
6453.34893	0.00363
6451.42026	0.00364
6449.49158	0.00366
6447.56291	0.00368
6445.63423	0.00369
6443.70556	0.00370
6441.77688	0.00369
6439.84820	0.00368
6437.91953	0.00369
6435.99085	0.00371
6434.06218	0.00372
6432.13350	0.00373
6430.20483	0.00375
6428.27615	0.00377
6426.34747	0.00378
6424.41880	0.00378
6422.49012	0.00378
6420.56145	0.00379
6418.63277	0.00380
6416.70410	0.00381
6414.77542	0.00381
6412.84674	0.00382
6410.91807	0.00382
6408.98939	0.00383
6407.06072	0.00384
6405.13204	0.00386
6403.20337	0.00387
6401.27469	0.00389
6399.34601	0.00390
6397.41734	0.00390
6395.48866	0.00391
6393.55999	0.00391
6391.63131	0.00392
6389.70264	0.00392
6387.77396	0.00394
6385.84528	0.00396
6383.91661	0.00396
6381.98793	0.00395
6380.05926	0.00395
6378.13058	0.00396
6376.20191	0.00396
6374.27323	0.00396
6372.34455	0.00397
6370.41588	0.00398
6368.48720	0.00400
6366.55853	0.00402
6364.62985	0.00402
6362.70118	0.00401
6360.77250	0.00401
6358.84382	0.00403
6356.91515	0.00406
6354.98647	0.00407
6353.05780	0.00407
6351.12912	0.00407
6349.20045	0.00408
6347.27177	0.00409
6345.34309	0.00409
6343.41442	0.00408
6341.48574	0.00409
6339.55707	0.00412
6337.62839	0.00415
6335.69972	0.00415
6333.77104	0.00416
6331.84236	0.00417
6329.91369	0.00417
6327.98501	0.00416
6326.05634	0.00417
6324.12766	0.00418
6322.19899	0.00420
6320.27031	0.00420
6318.34163	0.00421
6316.41296	0.00423
6314.48428	0.00424
6312.55561	0.00426
6310.62693	0.00428
6308.69826	0.00429
6306.76958	0.00430
6304.84090	0.00431
6302.91223	0.00431
6300.98355	0.00432
6299.05488	0.00432
6297.12620	0.00432
6295.19753	0.00432
6293.26885	0.00432
6291.34017	0.00431
6289.41150	0.00432
6287.48282	0.00433
6285.55415	0.00434
6283.62547	0.00436
6281.69680	0.00439
6279.76812	0.00442
6277.83944	0.00444
6275.91077	0.00445
6273.98209	0.00447
6272.05342	0.00447
6270.12474	0.00448
6268.19607	0.00447
6266.26739	0.00446
6264.33871	0.00446
6262.41004	0.00448
6260.48136	0.00450
6258.55269	0.00452
6256.62401	0.00453
6254.69534	0.00453
6252.76666	0.00453
6250.83798	0.00454
6248.90931	0.00455
6246.98063	0.00455
6245.05196	0.00456
6243.12328	0.00457
6241.19461	0.00459
6239.26593	0.00460
6237.33725	0.00461
6235.40858	0.00462
6233.47990	0.00464
6231.55123	0.00465
6229.62255	0.00464
6227.69388	0.00465
6225.76520	0.00466
6223.83652	0.00467
6221.90785	0.00468
6219.97917	0.00469
6218.05050	0.00468
6216.12182	0.00468
6214.19315	0.00470
6212.26447	0.00471
6210.33579	0.00473
6208.40712	0.00474
6206.47844	0.00475
6204.54977	0.00478
6202.62109	0.00480
6200.69242	0.00480
6198.76374	0.00481
6196.83506	0.00484
6194.90639	0.00486
6192.97771	0.00486
6191.04904	0.00486
6189.12036	0.00485
6187.19169	0.00486
6185.26301	0.00486
6183.33433	0.00487
6181.40566	0.00488
6179.47698	0.00490
6177.54831	0.00492
6175.61963	0.00494
6173.69096	0.00494
6171.76228	0.00495
6169.83360	0.00497
6167.90493	0.00498
6165.97625	0.00500
6164.04758	0.00501
6162.11890	0.00502
6160.19023	0.00502
6158.26155	0.00503
6156.33287	0.00504
6154.40420	0.00504
6152.47552	0.00504
6150.54685	0.00504
6148.61817	0.00506
6146.68950	0.00507
6144.76082	0.00509
6142.83214	0.00511
6140.90347	0.00512
6138.97479	0.00513
6137.04612	0.00513
6135.11744	0.00515
6133.18877	0.00517
6131.26009	0.00518
6129.33141	0.00518
6127.40274	0.00519
6125.47406	0.00519
6123.54539	0.00520
6121.61671	0.00520
6119.68804	0.00522
6117.75936	0.00524
6115.83068	0.00526
6113.90201	0.00528
6111.97333	0.00528
6110.04466	0.00527
6108.11598	0.00528
6106.18731	0.00531
6104.25863	0.00533
6102.32995	0.00534
6100.40128	0.00534
6098.47260	0.00534
6096.54393	0.00536
6094.61525	0.00537
6092.68658	0.00538
6090.75790	0.00538
6088.82922	0.00540
6086.90055	0.00542
6084.97187	0.00544
6083.04320	0.00546
6081.11452	0.00547
6079.18585	0.00546
6077.25717	0.00546
6075.32849	0.00548
6073.39982	0.00551
6071.47114	0.00553
6069.54247	0.00553
6067.61379	0.00553
6065.68512	0.00554
6063.75644	0.00556
6061.82776	0.00559
6059.89909	0.00561
6057.97041	0.00562
6056.04174	0.00563
6054.11306	0.00564
6052.18439	0.00564
6050.25571	0.00563
6048.32703	0.00563
6046.39836	0.00564
6044.46968	0.00567
6042.54101	0.00570
6040.61233	0.00573
6038.68366	0.00575
6036.75498	0.00575
6034.82630	0.00575
6032.89763	0.00575
6030.96895	0.00575
6029.04028	0.00575
6027.11160	0.00576
6025.18293	0.00577
6023.25425	0.00579
6021.32557	0.00582
6019.39690	0.00583
6017.46822	0.00584
6015.53955	0.00585
6013.61087	0.00587
6011.68220	0.00589
6009.75352	0.00590
6007.82484	0.00590
6005.89617	0.00589
6003.96749	0.00590
6002.03882	0.00592
6000.11014	0.00594
5998.18147	0.00595
5996.25279	0.00595
5994.32411	0.00595
5992.39544	0.00598
5990.46676	0.00600
5988.53809	0.00601
5986.60941	0.00603
5984.68074	0.00604
5982.75206	0.00605
5980.82338	0.00606
5978.89471	0.00609
5976.96603	0.00611
5975.03736	0.00611
5973.10868	0.00611
5971.18001	0.00612
5969.25133	0.00611
5967.32265	0.00611
5965.39398	0.00612
5963.46530	0.00614
5961.53663	0.00617
5959.60795	0.00619
5957.67928	0.00621
5955.75060	0.00623
5953.82192	0.00623
5951.89325	0.00624
5949.96457	0.00625
5948.03590	0.00626
5946.10722	0.00627
5944.17855	0.00630
5942.24987	0.00633
5940.32119	0.00634
5938.39252	0.00634
5936.46384	0.00635
5934.53517	0.00637
5932.60649	0.00639
5930.67782	0.00641
5928.74914	0.00642
5926.82046	0.00642
5924.89179	0.00642
5922.96311	0.00644
5921.03444	0.00647
5919.10576	0.00649
5917.17709	0.00651
5915.24841	0.00652
5913.31973	0.00653
5911.39106	0.00653
5909.46238	0.00654
5907.53371	0.00655
5905.60503	0.00656
5903.67636	0.00658
5901.74768	0.00660
5899.81900	0.00662
5897.89033	0.00662
5895.96165	0.00663
5894.03298	0.00665
5892.10430	0.00667
5890.17563	0.00668
5888.24695	0.00669
5886.31827	0.00672
5884.38960	0.00673
5882.46092	0.00675
5880.53225	0.00675
5878.60357	0.00676
5876.67490	0.00677
5874.74622	0.00678
5872.81755	0.00678
5870.88887	0.00680
5868.96019	0.00684
5867.03152	0.00685
5865.10284	0.00685
5863.17417	0.00685
5861.24549	0.00688
5859.31682	0.00690
5857.38814	0.00693
5855.45946	0.00695
5853.53079	0.00696
5851.60211	0.00696
5849.67344	0.00696
5847.74476	0.00696
5845.81609	0.00698
5843.88741	0.00701
5841.95873	0.00703
5840.03006	0.00704
5838.10138	0.00704
5836.17271	0.00704
5834.24403	0.00705
5832.31536	0.00707
5830.38668	0.00710
5828.45800	0.00713
5826.52933	0.00715
5824.60065	0.00716
5822.67198	0.00717
5820.74330	0.00717
5818.81463	0.00718
5816.88595	0.00720
5814.95727	0.00722
5813.02860	0.00723
5811.09992	0.00725
5809.17125	0.00726
5807.24257	0.00727
5805.31390	0.00729
5803.38522	0.00733
5801.45654	0.00735
5799.52787	0.00736
5797.59919	0.00738
5795.67052	0.00739
5793.74184	0.00739
5791.81317	0.00739
5789.88449	0.00741
5787.95581	0.00743
5786.02714	0.00745
5784.09846	0.00747
5782.16979	0.00750
5780.24111	0.00751
5778.31244	0.00751
5776.38376	0.00754
5774.45508	0.00757
5772.52641	0.00758
5770.59773	0.00759
5768.66906	0.00760
5766.74038	0.00761
5764.81171	0.00763
5762.88303	0.00765
5760.95435	0.00766
5759.02568	0.00765
5757.09700	0.00765
5755.16833	0.00766
5753.23965	0.00769
5751.31098	0.00772
5749.38230	0.00774
5747.45362	0.00776
5745.52495	0.00777
5743.59627	0.00777
5741.66760	0.00777
5739.73892	0.00780
5737.81025	0.00783
5735.88157	0.00784
5733.95289	0.00785
5732.02422	0.00786
5730.09554	0.00788
5728.16687	0.00790
5726.23819	0.00792
5724.30952	0.00793
5722.38084	0.00794
5720.45216	0.00797
5718.52349	0.00800
5716.59481	0.00802
5714.66614	0.00803
5712.73746	0.00806
5710.80879	0.00806
5708.88011	0.00806
5706.95143	0.00807
5705.02276	0.00810
5703.09408	0.00811
5701.16541	0.00811
5699.23673	0.00812
5697.30806	0.00815
5695.37938	0.00818
5693.45070	0.00820
5691.52203	0.00820
5689.59335	0.00821
5687.66468	0.00821
5685.73600	0.00824
5683.80733	0.00827
5681.87865	0.00830
5679.94997	0.00832
5678.02130	0.00833
5676.09262	0.00834
5674.16395	0.00836
5672.23527	0.00839
5670.30660	0.00841
5668.37792	0.00843
5666.44924	0.00844
5664.52057	0.00844
5662.59189	0.00844
5660.66322	0.00844
5658.73454	0.00846
5656.80587	0.00850
5654.87719	0.00853
5652.94851	0.00854
5651.01984	0.00856
5649.09116	0.00858
5647.16249	0.00860
5645.23381	0.00861
5643.30514	0.00862
5641.37646	0.00865
5639.44778	0.00867
5637.51911	0.00867
5635.59043	0.00867
5633.66176	0.00869
5631.73308	0.00872
5629.80441	0.00873
5627.87573	0.00873
5625.94705	0.00876
5624.01838	0.00881
5622.08970	0.00884
5620.16103	0.00884
5618.23235	0.00884
5616.30368	0.00884
5614.37500	0.00885
5612.44632	0.00888
5610.51765	0.00891
5608.58897	0.00892
5606.66030	0.00893
5604.73162	0.00895
5602.80295	0.00897
5600.87427	0.00900
5598.94559	0.00902
5597.01692	0.00904
5595.08824	0.00905
5593.15957	0.00906
5591.23089	0.00908
5589.30222	0.00910
5587.37354	0.00911
5585.44486	0.00911
5583.51619	0.00913
5581.58751	0.00915
5579.65884	0.00917
5577.73016	0.00920
5575.80149	0.00922
5573.87281	0.00924
5571.94413	0.00926
5570.01546	0.00929
5568.08678	0.00931
5566.15811	0.00932
5564.22943	0.00934
5562.30076	0.00937
5560.37208	0.00938
5558.44340	0.00939
5556.51473	0.00941
5554.58605	0.00943
5552.65738	0.00945
5550.72870	0.00945
5548.80003	0.00948
5546.87135	0.00953
5544.94267	0.00955
5543.01400	0.00954
5541.08532	0.00953
5539.15665	0.00955
5537.22797	0.00958
5535.29930	0.00960
5533.37062	0.00961
5531.44194	0.00963
5529.51327	0.00965
5527.58459	0.00965
5525.65592	0.00966
5523.72724	0.00967
5521.79857	0.00969
5519.86989	0.00972
5517.94121	0.00976
5516.01254	0.00980
5514.08386	0.00982
5512.15519	0.00985
5510.22651	0.00986
5508.29784	0.00986
5506.36916	0.00985
5504.44048	0.00986
5502.51181	0.00989
5500.58313	0.00992
5498.65446	0.00994
5496.72578	0.00997
5494.79711	0.01000
5492.86843	0.01003
5490.93975	0.01004
5489.01108	0.01004
5487.08240	0.01005
5485.15373	0.01006
5483.22505	0.01006
5481.29638	0.01008
5479.36770	0.01012
5477.43902	0.01015
5475.51035	0.01016
5473.58167	0.01017
5471.65300	0.01018
5469.72432	0.01019
5467.79565	0.01022
5465.86697	0.01025
5463.93829	0.01028
5462.00962	0.01030
5460.08094	0.01031
5458.15227	0.01034
5456.22359	0.01037
5454.29492	0.01038
5452.36624	0.01038
5450.43756	0.01040
5448.50889	0.01043
5446.58021	0.01047
5444.65154	0.01049
5442.72286	0.01048
5440.79419	0.01048
5438.86551	0.01052
5436.93683	0.01055
5435.00816	0.01058
5433.07948	0.01060
5431.15081	0.01061
5429.22213	0.01062
5427.29346	0.01063
5425.36478	0.01066
5423.43610	0.01069
5421.50743	0.01072
5419.57875	0.01074
5417.65008	0.01074
5415.72140	0.01074
5413.79273	0.01074
5411.86405	0.01077
5409.93537	0.01082
5408.00670	0.01086
5406.07802	0.01091
5404.14935	0.01093
5402.22067	0.01094
5400.29200	0.01093
5398.36332	0.01092
5396.43464	0.01092
5394.50597	0.01093
5392.57729	0.01095
5390.64862	0.01099
5388.71994	0.01104
5386.79127	0.01108
5384.86259	0.01111
5382.93391	0.01114
5381.00524	0.01115
5379.07656	0.01115
5377.14789	0.01114
5375.21921	0.01116
5373.29054	0.01120
5371.36186	0.01123
5369.43318	0.01124
5367.50451	0.01126
5365.57583	0.01130
5363.64716	0.01135
5361.71848	0.01138
5359.78981	0.01138
5357.86113	0.01138
5355.93245	0.01139
5354.00378	0.01140
5352.07510	0.01142
5350.14643	0.01144
5348.21775	0.01146
5346.28908	0.01148
5344.36040	0.01150
5342.43172	0.01154
5340.50305	0.01157
5338.57437	0.01157
5336.64570	0.01158
5334.71702	0.01161
5332.78835	0.01164
5330.85967	0.01166
5328.93099	0.01166
5327.00232	0.01169
5325.07364	0.01173
5323.14497	0.01176
5321.21629	0.01177
5319.28762	0.01179
5317.35894	0.01182
5315.43026	0.01184
5313.50159	0.01186
5311.57291	0.01189
5309.64424	0.01191
5307.71556	0.01190
5305.78689	0.01191
5303.85821	0.01195
5301.92953	0.01198
5300.00086	0.01201
5298.07218	0.01204
5296.14351	0.01206
5294.21483	0.01208
5292.28616	0.01210
5290.35748	0.01211
5288.42880	0.01211
5286.50013	0.01211
5284.57145	0.01213
5282.64278	0.01217
5280.71410	0.01221
5278.78543	0.01222
5276.85675	0.01223
5274.92807	0.01224
5272.99940	0.01228
5271.07072	0.01230
5269.14205	0.01231
5267.21337	0.01234
5265.28470	0.01237
5263.35602	0.01240
5261.42734	0.01242
5259.49867	0.01245
5257.56999	0.01248
5255.64132	0.01252
5253.71264	0.01255
5251.78397	0.01257
5249.85529	0.01257
5247.92661	0.01256
5245.99794	0.01257
5244.06926	0.01260
5242.14059	0.01265
5240.21191	0.01270
5238.28324	0.01273
5236.35456	0.01273
5234.42588	0.01273
5232.49721	0.01272
5230.56853	0.01274
5228.63986	0.01277
5226.71118	0.01280
5224.78251	0.01283
5222.85383	0.01285
5220.92515	0.01285
5218.99648	0.01285
5217.06780	0.01289
5215.13913	0.01296
5213.21045	0.01303
5211.28178	0.01303
5209.35310	0.01300
5207.42442	0.01300
5205.49575	0.01303
5203.56707	0.01307
5201.63840	0.01309
5199.70972	0.01310
5197.78105	0.01313
5195.85237	0.01316
5193.92369	0.01319
5191.99502	0.01321
5190.06634	0.01322
5188.13767	0.01324
5186.20899	0.01326
5184.28032	0.01331
5182.35164	0.01337
5180.42296	0.01340
5178.49429	0.01340
5176.56561	0.01341
5174.63694	0.01343
5172.70826	0.01346
5170.77959	0.01349
5168.85091	0.01351
5166.92223	0.01351
5164.99356	0.01351
5163.06488	0.01353
5161.13621	0.01357
5159.20753	0.01360
5157.27886	0.01362
5155.35018	0.01365
5153.42150	0.01368
5151.49283	0.01371
5149.56415	0.01372
5147.63548	0.01373
5145.70680	0.01376
5143.77813	0.01378
5141.84945	0.01379
5139.92077	0.01380
5137.99210	0.01383
5136.06342	0.01386
5134.13475	0.01388
5132.20607	0.01390
5130.27740	0.01392
5128.34872	0.01393
5126.42004	0.01397
5124.49137	0.01401
5122.56269	0.01404
5120.63402	0.01405
5118.70534	0.01407
5116.77667	0.01410
5114.84799	0.01413
5112.91931	0.01414
5110.99064	0.01417
5109.06196	0.01422
5107.13329	0.01425
5105.20461	0.01426
5103.27594	0.01427
5101.34726	0.01427
5099.41858	0.01430
5097.48991	0.01433
5095.56123	0.01436
5093.63256	0.01438
5091.70388	0.01441
5089.77521	0.01445
5087.84653	0.01447
5085.91785	0.01448
5083.98918	0.01450
5082.06050	0.01452
5080.13183	0.01453
5078.20315	0.01455
5076.27448	0.01459
5074.34580	0.01463
5072.41712	0.01465
5070.48845	0.01467
5068.55977	0.01470
5066.63110	0.01474
5064.70242	0.01476
5062.77375	0.01477
5060.84507	0.01479
5058.91639	0.01481
5056.98772	0.01483
5055.05904	0.01487
5053.13037	0.01490
5051.20169	0.01492
5049.27302	0.01493
5047.34434	0.01496
5045.41566	0.01501
5043.48699	0.01506
5041.55831	0.01508
5039.62964	0.01508
5037.70096	0.01508
5035.77229	0.01510
5033.84361	0.01513
5031.91493	0.01517
5029.98626	0.01520
5028.05758	0.01523
5026.12891	0.01526
5024.20023	0.01527
5022.27156	0.01528
5020.34288	0.01530
5018.41420	0.01532
5016.48553	0.01535
5014.55685	0.01539
5012.62818	0.01543
5010.69950	0.01547
5008.77083	0.01549
5006.84215	0.01550
5004.91347	0.01550
5002.98480	0.01553
5001.05612	0.01556
4999.12745	0.01559
4997.19877	0.01562
4995.27010	0.01564
4993.34142	0.01567
4991.41274	0.01570
4989.48407	0.01573
4987.55539	0.01576
4985.62672	0.01578
4983.69804	0.01580
4981.76937	0.01581
4979.84069	0.01582
4977.91201	0.01586
4975.98334	0.01589
4974.05466	0.01591
4972.12599	0.01594
4970.19731	0.01597
4968.26864	0.01599
4966.33996	0.01602
4964.41128	0.01605
4962.48261	0.01608
4960.55393	0.01612
4958.62526	0.01616
4956.69658	0.01618
4954.76791	0.01619
4952.83923	0.01619
4950.91055	0.01621
4948.98188	0.01625
4947.05320	0.01630
4945.12453	0.01634
4943.19585	0.01636
4941.26718	0.01635
4939.33850	0.01634
4937.40982	0.01635
4935.48115	0.01639
4933.55247	0.01644
4931.62380	0.01649
4929.69512	0.01653
4927.76645	0.01656
4925.83777	0.01658
4923.90909	0.01658
4921.98042	0.01660
4920.05174	0.01663
4918.12307	0.01667
4916.19439	0.01670
4914.26572	0.01671
4912.33704	0.01674
4910.40836	0.01676
4908.47969	0.01680
4906.55101	0.01684
4904.62234	0.01688
4902.69366	0.01691
4900.76499	0.01692
4898.83631	0.01693
4896.90763	0.01695
4894.97896	0.01698
4893.05028	0.01702
4891.12161	0.01705
4889.19293	0.01707
4887.26426	0.01709
4885.33558	0.01712
4883.40690	0.01714
4881.47823	0.01717
4879.54955	0.01719
4877.62088	0.01722
4875.69220	0.01724
4873.76353	0.01726
4871.83485	0.01729
4869.90617	0.01731
4867.97750	0.01732
4866.04882	0.01735
4864.12015	0.01741
4862.19147	0.01746
4860.26280	0.01749
4858.33412	0.01749
4856.40544	0.01750
4854.47677	0.01754
4852.54809	0.01760
4850.61942	0.01765
4848.69074	0.01766
4846.76207	0.01767
4844.83339	0.01769
4842.90471	0.01772
4840.97604	0.01775
4839.04736	0.01779
4837.11869	0.01782
4835.19001	0.01784
4833.26134	0.01785
4831.33266	0.01788
4829.40398	0.01792
4827.47531	0.01796
4825.54663	0.01799
4823.61796	0.01802
4821.68928	0.01805
4819.76061	0.01808
4817.83193	0.01812
4815.90325	0.01815
4813.97458	0.01817
4812.04590	0.01817
4810.11723	0.01818
4808.18855	0.01822
4806.25988	0.01827
4804.33120	0.01832
4802.40252	0.01836
4800.47385	0.01838
4798.54517	0.01839
4796.61650	0.01842
4794.68782	0.01845
4792.75915	0.01847
4790.83047	0.01851
4788.90179	0.01854
4786.97312	0.01857
4785.04444	0.01859
4783.11577	0.01862
4781.18709	0.01865
4779.25842	0.01867
4777.32974	0.01868
4775.40106	0.01870
4773.47239	0.01876
4771.54371	0.01880
4769.61504	0.01881
4767.68636	0.01882
4765.75769	0.01885
4763.82901	0.01889
4761.90033	0.01891
4759.97166	0.01894
4758.04298	0.01898
4756.11431	0.01902
4754.18563	0.01905
4752.25696	0.01907
4750.32828	0.01910
4748.39960	0.01913
4746.47093	0.01916
4744.54225	0.01918
4742.61358	0.01921
4740.68490	0.01925
4738.75623	0.01929
4736.82755	0.01934
4734.89887	0.01938
4732.97020	0.01940
4731.04152	0.01942
4729.11285	0.01946
4727.18417	0.01952
4725.25550	0.01955
4723.32682	0.01956
4721.39814	0.01956
4719.46947	0.01958
4717.54079	0.01964
4715.61212	0.01969
4713.68344	0.01972
4711.75477	0.01975
4709.82609	0.01979
4707.89741	0.01980
4705.96874	0.01980
4704.04006	0.01983
4702.11139	0.01988
4700.18271	0.01992
4698.25404	0.01996
4696.32536	0.02000
4694.39668	0.02002
4692.46801	0.02002
4690.53933	0.02005
4688.61066	0.02011
4686.68198	0.02016
4684.75331	0.02019
4682.82463	0.02020
4680.89595	0.02022
4678.96728	0.02025
4677.03860	0.02028
4675.10993	0.02033
4673.18125	0.02037
4671.25258	0.02039
4669.32390	0.02041
4667.39522	0.02044
4665.46655	0.02049
4663.53787	0.02054
4661.60920	0.02058
4659.68052	0.02062
4657.75185	0.02066
4655.82317	0.02068
4653.89449	0.02071
4651.96582	0.02075
4650.03714	0.02079
4648.10847	0.02081
4646.17979	0.02082
4644.25112	0.02084
4642.32244	0.02087
4640.39376	0.02091
4638.46509	0.02097
4636.53641	0.02100
4634.60774	0.02102
4632.67906	0.02105
4630.75039	0.02109
4628.82171	0.02114
4626.89303	0.02119
4624.96436	0.02122
4623.03568	0.02124
4621.10701	0.02126
4619.17833	0.02130
4617.24966	0.02134
4615.32098	0.02137
4613.39230	0.02139
4611.46363	0.02141
4609.53495	0.02144
4607.60628	0.02147
4605.67760	0.02150
4603.74893	0.02152
4601.82025	0.02155
4599.89157	0.02161
4597.96290	0.02169
4596.03422	0.02175
4594.10555	0.02177
4592.17687	0.02179
4590.24820	0.02184
4588.31952	0.02188
4586.39084	0.02192
4584.46217	0.02196
4582.53349	0.02200
4580.60482	0.02203
4578.67614	0.02205
4576.74747	0.02208
4574.81879	0.02214
4572.89011	0.02220
4570.96144	0.02223
4569.03276	0.02225
4567.10409	0.02229
4565.17541	0.02232
4563.24674	0.02233
4561.31806	0.02235
4559.38938	0.02241
4557.46071	0.02244
4555.53203	0.02247
4553.60336	0.02252
4551.67468	0.02259
4549.74601	0.02263
4547.81733	0.02267
4545.88865	0.02270
4543.95998	0.02272
4542.03130	0.02273
4540.10263	0.02276
4538.17395	0.02280
4536.24528	0.02287
4534.31660	0.02294
4532.38792	0.02298
4530.45925	0.02301
4528.53057	0.02303
4526.60190	0.02304
4524.67322	0.02306
4522.74455	0.02310
4520.81587	0.02315
4518.88719	0.02321
4516.95852	0.02326
4515.02984	0.02329
4513.10117	0.02332
4511.17249	0.02335
4509.24382	0.02339
4507.31514	0.02343
4505.38646	0.02346
4503.45779	0.02349
4501.52911	0.02353
4499.60044	0.02359
4497.67176	0.02365
4495.74309	0.02370
4493.81441	0.02375
4491.88573	0.02380
4489.95706	0.02384
4488.02838	0.02387
4486.09971	0.02389
4484.17103	0.02392
4482.24236	0.02394
4480.31368	0.02398
4478.38500	0.02405
4476.45633	0.02410
4474.52765	0.02414
4472.59898	0.02417
4470.67030	0.02421
4468.74163	0.02424
4466.81295	0.02428
4464.88427	0.02432
4462.95560	0.02436
4461.02692	0.02440
4459.09825	0.02445
4457.16957	0.02450
4455.24090	0.02454
4453.31222	0.02458
4451.38354	0.02462
4449.45487	0.02465
4447.52619	0.02469
4445.59752	0.02474
4443.66884	0.02478
4441.74017	0.02482
4439.81149	0.02486
4437.88281	0.02491
4435.95414	0.02496
4434.02546	0.02500
4432.09679	0.02503
4430.16811	0.02507
4428.23944	0.02511
4426.31076	0.02516
4424.38208	0.02522
4422.45341	0.02526
4420.52473	0.02531
4418.59606	0.02536
4416.66738	0.02539
4414.73871	0.02542
4412.81003	0.02547
4410.88135	0.02554
4408.95268	0.02559
4407.02400	0.02562
4405.09533	0.02567
4403.16665	0.02572
4401.23798	0.02577
4399.30930	0.02582
4397.38062	0.02588
4395.45195	0.02594
4393.52327	0.02596
4391.59460	0.02598
4389.66592	0.02602
4387.73725	0.02608
4385.80857	0.02613
4383.87989	0.02618
4381.95122	0.02621
4380.02254	0.02623
4378.09387	0.02628
4376.16519	0.02634
4374.23652	0.02639
4372.30784	0.02643
4370.37916	0.02649
4368.45049	0.02656
4366.52181	0.02661
4364.59314	0.02663
4362.66446	0.02665
4360.73579	0.02670
4358.80711	0.02677
4356.87843	0.02684
4354.94976	0.02688
4353.02108	0.02691
4351.09241	0.02693
4349.16373	0.02696
4347.23506	0.02703
4345.30638	0.02711
4343.37770	0.02716
4341.44903	0.02720
4339.52035	0.02723
4337.59168	0.02728
4335.66300	0.02734
4333.73433	0.02739
4331.80565	0.02743
4329.87697	0.02745
4327.94830	0.02747
4326.01962	0.02752
4324.09095	0.02759
4322.16227	0.02767
4320.23360	0.02773
4318.30492	0.02778
4316.37624	0.02786
4314.44757	0.02793
4312.51889	0.02799
4310.59022	0.02802
4308.66154	0.02805
4306.73287	0.02810
4304.80419	0.02814
4302.87551	0.02818
4300.94684	0.02823
4299.01816	0.02829
4297.08949	0.02836
4295.16081	0.02842
4293.23214	0.02849
4291.30346	0.02853
4289.37478	0.02857
4287.44611	0.02862
4285.51743	0.02869
4283.58876	0.02875
4281.66008	0.02879
4279.73141	0.02883
4277.80273	0.02889
4275.87405	0.02898
4273.94538	0.02905
4272.01670	0.02908
4270.08803	0.02910
4268.15935	0.02912
4266.23068	0.02915
4264.30200	0.02921
4262.37332	0.02928
4260.44465	0.02932
4258.51597	0.02936
4256.58730	0.02941
4254.65862	0.02948
4252.72995	0.02954
4250.80127	0.02958
4248.87259	0.02963
4246.94392	0.02969
4245.01524	0.02976
4243.08657	0.02982
4241.15789	0.02986
4239.22922	0.02992
4237.30054	0.02998
4235.37186	0.03003
4233.44319	0.03010
4231.51451	0.03016
4229.58584	0.03021
4227.65716	0.03025
4225.72849	0.03031
4223.79981	0.03036
4221.87113	0.03040
4219.94246	0.03045
4218.01378	0.03052
4216.08511	0.03058
4214.15643	0.03066
4212.22776	0.03074
4210.29908	0.03081
4208.37040	0.03087
4206.44173	0.03093
4204.51305	0.03097
4202.58438	0.03100
4200.65570	0.03103
4198.72703	0.03107
4196.79835	0.03113
4194.86968	0.03121
4192.94100	0.03127
4191.01232	0.03133
4189.08365	0.03138
4187.15497	0.03145
4185.22630	0.03152
4183.29762	0.03158
4181.36895	0.03163
4179.44027	0.03170
4177.51159	0.03177
4175.58292	0.03185
4173.65424	0.03190
4171.72557	0.03196
4169.79689	0.03202
4167.86822	0.03207
4165.93954	0.03211
4164.01086	0.03217
4162.08219	0.03225
4160.15351	0.03231
4158.22484	0.03233
4156.29616	0.03237
4154.36749	0.03245
4152.43881	0.03254
4150.51013	0.03261
4148.58146	0.03267
4146.65278	0.03274
4144.72411	0.03281
4142.79543	0.03286
4140.86676	0.03291
4138.93808	0.03297
4137.00940	0.03303
4135.08073	0.03308
4133.15205	0.03313
4131.22338	0.03319
4129.29470	0.03325
4127.36603	0.03332
4125.43735	0.03340
4123.50867	0.03348
4121.58000	0.03355
4119.65132	0.03361
4117.72265	0.03367
4115.79397	0.03370
4113.86530	0.03375
4111.93662	0.03384
4110.00794	0.03393
4108.07927	0.03400
4106.15059	0.03405
4104.22192	0.03410
4102.29324	0.03415
4100.36457	0.03421
4098.43589	0.03430
4096.50721	0.03439
4094.57854	0.03447
4092.64986	0.03452
4090.72119	0.03456
4088.79251	0.03460
4086.86384	0.03466
4084.93516	0.03474
4083.00648	0.03482
4081.07781	0.03489
4079.14913	0.03496
4077.22046	0.03503
4075.29178	0.03509
4073.36311	0.03516
4071.43443	0.03522
4069.50575	0.03529
4067.57708	0.03535
4065.64840	0.03541
4063.71973	0.03545
4061.79105	0.03551
4059.86238	0.03561
4057.93370	0.03569
4056.00502	0.03574
4054.07635	0.03579
4052.14767	0.03586
4050.21900	0.03594
4048.29032	0.03602
4046.36165	0.03609
4044.43297	0.03614
4042.50429	0.03618
4040.57562	0.03626
4038.64694	0.03635
4036.71827	0.03643
4034.78959	0.03650
4032.86092	0.03657
4030.93224	0.03663
4029.00356	0.03668
4027.07489	0.03675
4025.14621	0.03683
4023.21754	0.03691
4021.28886	0.03697
4019.36019	0.03701
4017.43151	0.03708
4015.50283	0.03717
4013.57416	0.03726
4011.64548	0.03733
4009.71681	0.03738
4007.78813	0.03746
4005.85946	0.03755
4003.93078	0.03761
4002.00210	0.03766
4000.07343	0.03774
3998.14475	0.03783
3996.21608	0.03790
3994.28740	0.03797
3992.35873	0.03804
3990.43005	0.03811
3988.50137	0.03818
3986.57270	0.03826
3984.64402	0.03833
3982.71535	0.03840
3980.78667	0.03848
3978.85800	0.03857
3976.92932	0.03865
3975.00064	0.03870
3973.07197	0.03875
3971.14329	0.03882
3969.21462	0.03888
3967.28594	0.03895
3965.35727	0.03904
3963.42859	0.03914
3961.49991	0.03922
3959.57124	0.03928
3957.64256	0.03935
3955.71389	0.03941
3953.78521	0.03947
3951.85654	0.03955
3949.92786	0.03963
3947.99918	0.03970
3946.07051	0.03976
3944.14183	0.03983
3942.21316	0.03991
3940.28448	0.03999
3938.35581	0.04006
3936.42713	0.04012
3934.49845	0.04019
3932.56978	0.04027
3930.64110	0.04037
3928.71243	0.04046
3926.78375	0.04051
3924.85508	0.04057
3922.92640	0.04066
3920.99772	0.04071
3919.06905	0.04074
3917.14037	0.04080
3915.21170	0.04092
3913.28302	0.04105
3911.35435	0.04117
3909.42567	0.04126
3907.49699	0.04126
3905.56832	0.04117
3903.63964	0.04112
3901.71097	0.04118
3899.78229	0.04133
3897.85362	0.04155
3895.92494	0.04171
3893.99626	0.04175
3892.06759	0.04177
3890.13891	0.04184
3888.21024	0.04187
3886.28156	0.04187
3884.35289	0.04198
3882.42421	0.04212
3880.49553	0.04224
3878.56686	0.04240
3876.63818	0.04247
3874.70951	0.04245
3872.78083	0.04243
3870.85216	0.04242
3868.92348	0.04253
3866.99480	0.04272
3865.06613	0.04286
3863.13745	0.04295
3861.20878	0.04307
3859.28010	0.04315
3857.35143	0.04309
3855.42275	0.04290
3853.49407	0.04289
3851.56540	0.04320
3849.63672	0.04359
3847.70805	0.04380
3845.77937	0.04381
3843.85070	0.04375
3841.92202	0.04374
3839.99334	0.04381
3838.06467	0.04391
3836.13599	0.04405
3834.20732	0.04419
3832.27864	0.04431
3830.34997	0.04443
3828.42129	0.04454
3826.49261	0.04461
3824.56394	0.04460
3822.63526	0.04451
3820.70659	0.04454
3818.77791	0.04475
3816.84924	0.04494
3814.92056	0.04509
3812.99188	0.04524
3811.06321	0.04535
3809.13453	0.04535
3807.20586	0.04533
3805.27718	0.04538
3803.34851	0.04543
3801.41983	0.04550
3799.49115	0.04567
3797.56248	0.04583
3795.63380	0.04597
3793.70513	0.04608
3791.77645	0.04615
3789.84778	0.04623
3787.91910	0.04632
3785.99042	0.04641
3784.06175	0.04649
3782.13307	0.04655
3780.20440	0.04656
3778.27572	0.04666
3776.34705	0.04683
3774.41837	0.04697
3772.48969	0.04702
3770.56102	0.04706
3768.63234	0.04713
3766.70367	0.04722
3764.77499	0.04733
3762.84632	0.04743
3760.91764	0.04748
3758.98896	0.04751
3757.06029	0.04759
3755.13161	0.04765
3753.20294	0.04759
3751.27426	0.04747
3749.34559	0.04751
3747.41691	0.04766
3745.48823	0.04777
3743.55956	0.04794
3741.63088	0.04819
3739.70221	0.04829
3737.77353	0.04821
3735.84486	0.04814
3733.91618	0.04826
3731.98750	0.04853
3730.05883	0.04878
3728.13015	0.04891
3726.20148	0.04900
3724.27280	0.04909
3722.34413	0.04918
3720.41545	0.04927
3718.48677	0.04939
3716.55810	0.04948
3714.62942	0.04946
3712.70075	0.04938
3710.77207	0.04944
3708.84340	0.04968
3706.91472	0.04992
3704.98604	0.05003
3703.05737	0.05002
3701.12869	0.05007
3699.20002	0.05024
3697.27134	0.05040
3695.34267	0.05050
3693.41399	0.05053
3691.48531	0.05050
3689.55664	0.05051
3687.62796	0.05066
3685.69929	0.05087
3683.77061	0.05105
3681.84194	0.05114
3679.91326	0.05112
3677.98458	0.05101
3676.05591	0.05089
3674.12723	0.05096
3672.19856	0.05111
3670.26988	0.05127
3668.34121	0.05150
3666.41253	0.05173
3664.48385	0.05185
3662.55518	0.05193
3660.62650	0.05199
3658.69783	0.05199
3656.76915	0.05196
3654.84048	0.05200
3652.91180	0.05200
3650.98312	0.05187
3649.05445	0.05180
3647.12577	0.05194
3645.19710	0.05224
3643.26842	0.05250
3641.33975	0.05266
3639.41107	0.05275
3637.48239	0.05283
3635.55372	0.05289
3633.62504	0.05290
3631.69637	0.05276
3629.76769	0.05262
3627.83902	0.05276
3625.91034	0.05309
3623.98166	0.05331
3622.05299	0.05336
3620.12431	0.05333
3618.19564	0.05335
3616.26696	0.05342
3614.33829	0.05348
3612.40961	0.05353
3610.48093	0.05358
3608.55226	0.05364
3606.62358	0.05377
3604.69491	0.05393
3602.76623	0.05404
3600.83756	0.05410
3598.90888	0.05416
3596.98020	0.05417
3595.05153	0.05420
3593.12285	0.05429
3591.19418	0.05431
3589.26550	0.05425
3587.33683	0.05430
3585.40815	0.05451
3583.47947	0.05469
3581.55080	0.05479
3579.62212	0.05485
3577.69345	0.05491
3575.76477	0.05498
3573.83610	0.05506
3571.90742	0.05513
3569.97874	0.05511
3568.05007	0.05504
3566.12139	0.05509
3564.19272	0.05528
3562.26404	0.05546
3560.33537	0.05557
3558.40669	0.05567
3556.47801	0.05573
3554.54934	0.05576
3552.62066	0.05584
3550.69199	0.05593
3548.76331	0.05596
3546.83464	0.05597
3544.90596	0.05602
3542.97728	0.05612
3541.04861	0.05623
3539.11993	0.05632
3537.19126	0.05636
3535.26258	0.05640
3533.33391	0.05643
3531.40523	0.05645
3529.47655	0.05644
3527.54788	0.05645
3525.61920	0.05651
3523.69053	0.05662
3521.76185	0.05671
3519.83318	0.05675
3517.90450	0.05674
3515.97582	0.05677
3514.04715	0.05683
3512.11847	0.05685
3510.18980	0.05685
3508.26112	0.05688
3506.33245	0.05693
3504.40377	0.05696
3502.47509	0.05699
3500.54642	0.05703
3498.61774	0.05709
3496.68907	0.05713
3494.76039	0.05716
3492.83172	0.05718
3490.90304	0.05722
3488.97436	0.05726
3487.04569	0.05728
3485.11701	0.05730
3483.18834	0.05733
3481.25966	0.05737
3479.33099	0.05742
3477.40231	0.05749
3475.47363	0.05757
3473.54496	0.05767
3471.61628	0.05774
3469.68761	0.05778
3467.75893	0.05785
3465.83026	0.05794
3463.90158	0.05804
3461.97290	0.05815
3460.04423	0.05827
3458.11555	0.05837
3456.18688	0.05845
3454.25820	0.05853
3452.32953	0.05862
3450.40085	0.05872
3448.47217	0.05880
3446.54350	0.05887
3444.61482	0.05895
3442.68615	0.05906
3440.75747	0.05919
3438.82880	0.05935
3436.90012	0.05951
3434.97144	0.05966
3433.04277	0.05981
3431.11409	0.05998
3429.18542	0.06016
3427.25674	0.06033
3425.32807	0.06050
3423.39939	0.06068
3421.47071	0.06087
3419.54204	0.06105
3417.61336	0.06121
3415.68469	0.06138
3413.75601	0.06156
3411.82734	0.06168
3409.89866	0.06177
3407.96998	0.06189
3406.04131	0.06204
3404.11263	0.06219
3402.18396	0.06229
3400.25528	0.06238
3398.32661	0.06250
3396.39793	0.06265
3394.46925	0.06279
3392.54058	0.06292
3390.61190	0.06309
3388.68323	0.06324
3386.75455	0.06335
3384.82588	0.06344
3382.89720	0.06355
3380.96852	0.06367
3379.03985	0.06382
3377.11117	0.06397
3375.18250	0.06410
3373.25382	0.06422
3371.32515	0.06433
3369.39647	0.06445
3367.46779	0.06457
3365.53912	0.06468
3363.61044	0.06479
3361.68177	0.06493
3359.75309	0.06507
3357.82442	0.06518
3355.89574	0.06528
3353.96706	0.06539
3352.03839	0.06549
3350.10971	0.06558
3348.18104	0.06567
3346.25236	0.06577
3344.32369	0.06592
3342.39501	0.06608
3340.46633	0.06625
3338.53766	0.06638
3336.60898	0.06647
3334.68031	0.06655
3332.75163	0.06667
3330.82296	0.06679
3328.89428	0.06687
3326.96560	0.06696
3325.03693	0.06710
3323.10825	0.06726
3321.17958	0.06742
3319.25090	0.06755
3317.32223	0.06767
3315.39355	0.06777
3313.46487	0.06787
3311.53620	0.06799
3309.60752	0.06813
3307.67885	0.06826
3305.75017	0.06837
3303.82150	0.06849
3301.89282	0.06863
3299.96414	0.06873
3298.03547	0.06883
3296.10679	0.06896
3294.17812	0.06910
3292.24944	0.06923
3290.32077	0.06935
3288.39209	0.06947
3286.46341	0.06959
3284.53474	0.06971
3282.60606	0.06984
3280.67739	0.06999
3278.74871	0.07014
3276.82004	0.07027
3274.89136	0.07039
3272.96268	0.07052
3271.03401	0.07066
3269.10533	0.07079
3267.17666	0.07092
3265.24798	0.07104
3263.31931	0.07115
3261.39063	0.07127
3259.46195	0.07139
3257.53328	0.07153
3255.60460	0.07168
3253.67593	0.07182
3251.74725	0.07194
3249.81858	0.07204
3247.88990	0.07212
3245.96122	0.07223
3244.03255	0.07237
3242.10387	0.07254
3240.17520	0.07270
3238.24652	0.07282
3236.31785	0.07292
3234.38917	0.07303
3232.46049	0.07316
3230.53182	0.07331
3228.60314	0.07346
3226.67447	0.07361
3224.74579	0.07374
3222.81712	0.07385
3220.88844	0.07397
3218.95976	0.07409
3217.03109	0.07422
3215.10241	0.07437
3213.17374	0.07451
3211.24506	0.07465
3209.31639	0.07478
3207.38771	0.07489
3205.45903	0.07498
3203.53036	0.07507
3201.60168	0.07520
3199.67301	0.07537
3197.74433	0.07554
3195.81566	0.07570
3193.88698	0.07584
3191.95830	0.07597
3190.02963	0.07609
3188.10095	0.07622
3186.17228	0.07638
3184.24360	0.07652
3182.31493	0.07663
3180.38625	0.07676
3178.45757	0.07693
3176.52890	0.07710
3174.60022	0.07720
3172.67155	0.07731
3170.74287	0.07745
3168.81420	0.07758
3166.88552	0.07771
3164.95684	0.07785
3163.02817	0.07798
3161.09949	0.07811
3159.17082	0.07824
3157.24214	0.07838
3155.31347	0.07853
3153.38479	0.07867
3151.45611	0.07879
3149.52744	0.07891
3147.59876	0.07904
3145.67009	0.07916
3143.74141	0.07929
3141.81274	0.07943
3139.88406	0.07959
3137.95538	0.07972
3136.02671	0.07983
3134.09803	0.07995
3132.16936	0.08009
3130.24068	0.08028
3128.31201	0.08043
3126.38333	0.08054
3124.45465	0.08064
3122.52598	0.08080
3120.59730	0.08097
3118.66863	0.08111
3116.73995	0.08123
3114.81128	0.08134
3112.88260	0.08144
3110.95392	0.08156
3109.02525	0.08168
3107.09657	0.08181
3105.16790	0.08195
3103.23922	0.08208
3101.31055	0.08221
3099.38187	0.08236
3097.45319	0.08250
3095.52452	0.08263
3093.59584	0.08276
3091.66717	0.08291
3089.73849	0.08306
3087.80982	0.08318
3085.88114	0.08330
3083.95246	0.08343
3082.02379	0.08356
3080.09511	0.08369
3078.16644	0.08382
3076.23776	0.08394
3074.30909	0.08405
3072.38041	0.08419
3070.45173	0.08435
3068.52306	0.08447
3066.59438	0.08457
3064.66571	0.08470
3062.73703	0.08488
3060.80836	0.08505
3058.87968	0.08517
3056.95100	0.08527
3055.02233	0.08541
3053.09365	0.08556
3051.16498	0.08567
3049.23630	0.08577
3047.30763	0.08592
3045.37895	0.08606
3043.45027	0.08618
3041.52160	0.08630
3039.59292	0.08643
3037.66425	0.08657
3035.73557	0.08669
3033.80690	0.08681
3031.87822	0.08695
3029.94954	0.08711
3028.02087	0.08726
3026.09219	0.08741
3024.16352	0.08756
3022.23484	0.08770
3020.30617	0.08781
3018.37749	0.08790
3016.44881	0.08801
3014.52014	0.08814
3012.59146	0.08828
3010.66279	0.08842
3008.73411	0.08858
3006.80544	0.08873
3004.87676	0.08887
3002.94808	0.08900
3001.01941	0.08913
2999.09073	0.08923
2997.16206	0.08932
2995.23338	0.08945
2993.30471	0.08959
2991.37603	0.08970
2989.44735	0.08981
2987.51868	0.08992
2985.59000	0.09001
2983.66133	0.09010
2981.73265	0.09020
2979.80398	0.09030
2977.87530	0.09037
2975.94662	0.09039
2974.01795	0.09040
2972.08927	0.09043
2970.16060	0.09043
2968.23192	0.09037
2966.30325	0.09033
2964.37457	0.09039
2962.44589	0.09052
2960.51722	0.09066
2958.58854	0.09083
2956.65987	0.09102
2954.73119	0.09122
2952.80252	0.09139
2950.87384	0.09153
2948.94516	0.09165
2947.01649	0.09175
2945.08781	0.09183
2943.15914	0.09188
2941.23046	0.09191
2939.30179	0.09193
2937.37311	0.09193
2935.44443	0.09193
2933.51576	0.09191
2931.58708	0.09188
2929.65841	0.09186
2927.72973	0.09184
2925.80106	0.09183
2923.87238	0.09185
2921.94370	0.09190
2920.01503	0.09198
2918.08635	0.09213
2916.15768	0.09241
2914.22900	0.09281
2912.30033	0.09324
2910.37165	0.09364
2908.44297	0.09398
2906.51430	0.09425
2904.58562	0.09447
2902.65695	0.09468
2900.72827	0.09488
2898.79960	0.09508
2896.87092	0.09526
2894.94224	0.09546
2893.01357	0.09569
2891.08489	0.09589
2889.15622	0.09607
2887.22754	0.09622
2885.29887	0.09634
2883.37019	0.09644
2881.44151	0.09655
2879.51284	0.09670
2877.58416	0.09685
2875.65549	0.09698
2873.72681	0.09711
2871.79814	0.09725
2869.86946	0.09738
2867.94078	0.09750
2866.01211	0.09760
2864.08343	0.09768
2862.15476	0.09774
2860.22608	0.09777
2858.29741	0.09779
2856.36873	0.09781
2854.44005	0.09777
2852.51138	0.09774
2850.58270	0.09782
2848.65403	0.09806
2846.72535	0.09847
2844.79668	0.09893
2842.86800	0.09934
2840.93932	0.09967
2839.01065	0.09995
2837.08197	0.10020
2835.15330	0.10043
2833.22462	0.10060
2831.29595	0.10073
2829.36727	0.10087
2827.43859	0.10102
2825.50992	0.10117
2823.58124	0.10131
2821.65257	0.10147
2819.72389	0.10165
2817.79522	0.10184
2815.86654	0.10200
2813.93786	0.10214
2812.00919	0.10228
2810.08051	0.10242
2808.15184	0.10255
2806.22316	0.10271
2804.29449	0.10290
2802.36581	0.10305
2800.43713	0.10316
2798.50846	0.10328
2796.57978	0.10343
2794.65111	0.10359
2792.72243	0.10373
2790.79376	0.10390
2788.86508	0.10407
2786.93640	0.10420
2785.00773	0.10432
2783.07905	0.10446
2781.15038	0.10457
2779.22170	0.10468
2777.29303	0.10483
2775.36435	0.10499
2773.43567	0.10516
2771.50700	0.10532
2769.57832	0.10550
2767.64965	0.10567
2765.72097	0.10581
2763.79230	0.10592
2761.86362	0.10602
2759.93494	0.10614
2758.00627	0.10628
2756.07759	0.10644
2754.14892	0.10661
2752.22024	0.10677
2750.29157	0.10691
2748.36289	0.10704
2746.43421	0.10717
2744.50554	0.10728
2742.57686	0.10739
2740.64819	0.10754
2738.71951	0.10769
2736.79084	0.10781
2734.86216	0.10793
2732.93348	0.10805
2731.00481	0.10818
2729.07613	0.10831
2727.14746	0.10845
2725.21878	0.10862
2723.29011	0.10878
2721.36143	0.10891
2719.43275	0.10903
2717.50408	0.10918
2715.57540	0.10934
2713.64673	0.10949
2711.71805	0.10962
2709.78938	0.10977
2707.86070	0.10992
2705.93202	0.11004
2704.00335	0.11016
2702.07467	0.11027
2700.14600	0.11038
2698.21732	0.11050
2696.28865	0.11064
2694.35997	0.11080
2692.43129	0.11094
2690.50262	0.11105
2688.57394	0.11119
2686.64527	0.11137
2684.71659	0.11154
2682.78792	0.11168
2680.85924	0.11179
2678.93056	0.11191
2677.00189	0.11203
2675.07321	0.11215
2673.14454	0.11228
2671.21586	0.11240
2669.28719	0.11252
2667.35851	0.11265
2665.42983	0.11280
2663.50116	0.11298
2661.57248	0.11318
2659.64381	0.11337
2657.71513	0.11352
2655.78646	0.11363
2653.85778	0.11374
2651.92910	0.11387
2650.00043	0.11400
2648.07175	0.11415
2646.14308	0.11430
2644.21440	0.11445
2642.28573	0.11460
2640.35705	0.11473
2638.42837	0.11486
2636.49970	0.11503
2634.57102	0.11519
2632.64235	0.11532
2630.71367	0.11547
2628.78500	0.11563
2626.85632	0.11580
2624.92764	0.11595
2622.99897	0.11610
2621.07029	0.11623
2619.14162	0.11637
2617.21294	0.11654
2615.28427	0.11671
2613.35559	0.11686
2611.42691	0.11698
2609.49824	0.11710
2607.56956	0.11724
2605.64089	0.11738
2603.71221	0.11751
2601.78354	0.11766
2599.85486	0.11784
2597.92618	0.11801
2595.99751	0.11816
2594.06883	0.11829
2592.14016	0.11841
2590.21148	0.11855
2588.28281	0.11872
2586.35413	0.11886
2584.42545	0.11898
2582.49678	0.11912
2580.56810	0.11930
2578.63943	0.11949
2576.71075	0.11963
2574.78208	0.11974
2572.85340	0.11986
2570.92472	0.12001
2568.99605	0.12018
2567.06737	0.12031
2565.13870	0.12040
2563.21002	0.12052
2561.28135	0.12067
2559.35267	0.12084
2557.42399	0.12101
2555.49532	0.12115
2553.56664	0.12128
2551.63797	0.12137
2549.70929	0.12146
2547.78062	0.12158
2545.85194	0.12176
2543.92326	0.12194
2541.99459	0.12208
2540.06591	0.12220
2538.13724	0.12233
2536.20856	0.12248
2534.27989	0.12265
2532.35121	0.12285
2530.42253	0.12301
2528.49386	0.12314
2526.56518	0.12326
2524.63651	0.12342
2522.70783	0.12357
2520.77916	0.12371
2518.85048	0.12386
2516.92181	0.12401
2514.99313	0.12416
2513.06445	0.12431
2511.13578	0.12447
2509.20710	0.12463
2507.27843	0.12479
2505.34975	0.12496
2503.42108	0.12512
2501.49240	0.12529
2499.56372	0.12546
2497.63505	0.12563
2495.70637	0.12577
2493.77770	0.12590
2491.84902	0.12606
2489.92035	0.12624
2487.99167	0.12640
2486.06299	0.12655
2484.13432	0.12672
2482.20564	0.12689
2480.27697	0.12701
2478.34829	0.12713
2476.41962	0.12730
2474.49094	0.12752
2472.56226	0.12768
2470.63359	0.12780
2468.70491	0.12794
2466.77624	0.12809
2464.84756	0.12823
2462.91889	0.12836
2460.99021	0.12849
2459.06153	0.12864
2457.13286	0.12881
2455.20418	0.12896
2453.27551	0.12913
2451.34683	0.12929
2449.41816	0.12945
2447.48948	0.12961
2445.56080	0.12977
2443.63213	0.12991
2441.70345	0.13005
2439.77478	0.13020
2437.84610	0.13036
2435.91743	0.13050
2433.98875	0.13066
2432.06007	0.13083
2430.13140	0.13098
2428.20272	0.13111
2426.27405	0.13127
2424.34537	0.13142
2422.41670	0.13157
2420.48802	0.13172
2418.55934	0.13187
2416.63067	0.13201
2414.70199	0.13216
2412.77332	0.13231
2410.84464	0.13248
2408.91597	0.13264
2406.98729	0.13277
2405.05861	0.13286
2403.12994	0.13298
2401.20126	0.13315
2399.27259	0.13334
2397.34391	0.13355
2395.41524	0.13374
2393.48656	0.13387
2391.55788	0.13396
2389.62921	0.13405
2387.70053	0.13420
2385.77186	0.13439
2383.84318	0.13455
2381.91451	0.13469
2379.98583	0.13482
2378.05715	0.13491
2376.12848	0.13493
2374.19980	0.13492
2372.27113	0.13492
2370.34245	0.13495
2368.41378	0.13499
2366.48510	0.13502
2364.55642	0.13509
2362.62775	0.13523
2360.69907	0.13543
2358.77040	0.13563
2356.84172	0.13586
2354.91305	0.13612
2352.98437	0.13638
2351.05569	0.13665
2349.12702	0.13687
2347.19834	0.13699
2345.26967	0.13706
2343.34099	0.13714
2341.41232	0.13724
2339.48364	0.13735
2337.55496	0.13746
2335.62629	0.13758
2333.69761	0.13771
2331.76894	0.13787
2329.84026	0.13806
2327.91159	0.13825
2325.98291	0.13843
2324.05423	0.13862
2322.12556	0.13883
2320.19688	0.13904
2318.26821	0.13922
2316.33953	0.13939
2314.41086	0.13959
2312.48218	0.13982
2310.55350	0.14003
2308.62483	0.14024
2306.69615	0.14044
2304.76748	0.14063
2302.83880	0.14080
2300.91013	0.14095
2298.98145	0.14111
2297.05277	0.14126
2295.12410	0.14141
2293.19542	0.14154
2291.26675	0.14169
2289.33807	0.14186
2287.40940	0.14206
2285.48072	0.14225
2283.55204	0.14240
2281.62337	0.14255
2279.69469	0.14271
2277.76602	0.14285
2275.83734	0.14298
2273.90867	0.14314
2271.97999	0.14332
2270.05131	0.14346
2268.12264	0.14359
2266.19396	0.14373
2264.26529	0.14388
2262.33661	0.14403
2260.40794	0.14420
2258.47926	0.14435
2256.55058	0.14449
2254.62191	0.14463
2252.69323	0.14480
2250.76456	0.14495
2248.83588	0.14506
2246.90721	0.14517
2244.97853	0.14533
2243.04985	0.14551
2241.12118	0.14568
2239.19250	0.14586
2237.26383	0.14603
2235.33515	0.14616
2233.40648	0.14628
2231.47780	0.14643
2229.54912	0.14661
2227.62045	0.14677
2225.69177	0.14690
2223.76310	0.14705
2221.83442	0.14721
2219.90575	0.14735
2217.97707	0.14750
2216.04839	0.14764
2214.11972	0.14777
2212.19104	0.14792
2210.26237	0.14808
2208.33369	0.14822
2206.40502	0.14835
2204.47634	0.14852
2202.54766	0.14870
2200.61899	0.14883
2198.69031	0.14892
2196.76164	0.14907
2194.83296	0.14927
2192.90429	0.14944
2190.97561	0.14957
2189.04693	0.14969
2187.11826	0.14982
2185.18958	0.14997
2183.26091	0.15014
2181.33223	0.15029
2179.40356	0.15042
2177.47488	0.15059
2175.54620	0.15074
2173.61753	0.15085
2171.68885	0.15095
2169.76018	0.15108
2167.83150	0.15128
2165.90283	0.15149
2163.97415	0.15167
2162.04547	0.15180
2160.11680	0.15194
2158.18812	0.15211
2156.25945	0.15230
2154.33077	0.15249
2152.40210	0.15267
2150.47342	0.15284
2148.54474	0.15299
2146.61607	0.15313
2144.68739	0.15325
2142.75872	0.15337
2140.83004	0.15346
2138.90137	0.15358
2136.97269	0.15374
2135.04401	0.15395
2133.11534	0.15413
2131.18666	0.15428
2129.25799	0.15441
2127.32931	0.15455
2125.40064	0.15469
2123.47196	0.15483
2121.54328	0.15498
2119.61461	0.15515
2117.68593	0.15530
2115.75726	0.15545
2113.82858	0.15562
2111.89991	0.15577
2109.97123	0.15592
2108.04255	0.15606
2106.11388	0.15619
2104.18520	0.15634
2102.25653	0.15650
2100.32785	0.15666
2098.39918	0.15683
2096.47050	0.15702
2094.54182	0.15717
2092.61315	0.15730
2090.68447	0.15743
2088.75580	0.15759
2086.82712	0.15775
2084.89845	0.15792
2082.96977	0.15809
2081.04109	0.15824
2079.11242	0.15837
2077.18374	0.15849
2075.25507	0.15862
2073.32639	0.15881
2071.39772	0.15903
2069.46904	0.15918
2067.54036	0.15926
2065.61169	0.15938
2063.68301	0.15953
2061.75434	0.15969
2059.82566	0.15986
2057.89699	0.16005
2055.96831	0.16025
2054.03963	0.16041
2052.11096	0.16057
2050.18228	0.16074
2048.25361	0.16088
2046.32493	0.16100
2044.39626	0.16111
2042.46758	0.16121
2040.53890	0.16134
2038.61023	0.16150
2036.68155	0.16167
2034.75288	0.16182
2032.82420	0.16200
2030.89553	0.16220
2028.96685	0.16235
2027.03817	0.16250
2025.10950	0.16271
2023.18082	0.16292
2021.25215	0.16305
2019.32347	0.16311
2017.39480	0.16321
2015.46612	0.16337
2013.53744	0.16356
2011.60877	0.16372
2009.68009	0.16386
2007.75142	0.16401
2005.82274	0.16418
2003.89407	0.16438
2001.96539	0.16458
2000.03671	0.16472
1998.10804	0.16484
1996.17936	0.16499
1994.25069	0.16511
1992.32201	0.16521
1990.39334	0.16533
1988.46466	0.16549
1986.53598	0.16568
1984.60731	0.16583
1982.67863	0.16595
1980.74996	0.16605
1978.82128	0.16616
1976.89261	0.16629
1974.96393	0.16643
1973.03525	0.16657
1971.10658	0.16669
1969.17790	0.16674
1967.24923	0.16680
1965.32055	0.16697
1963.39188	0.16718
1961.46320	0.16737
1959.53452	0.16755
1957.60585	0.16768
1955.67717	0.16779
1953.74850	0.16796
1951.81982	0.16816
1949.89115	0.16833
1947.96247	0.16846
1946.03379	0.16859
1944.10512	0.16869
1942.17644	0.16881
1940.24777	0.16898
1938.31909	0.16920
1936.39042	0.16939
1934.46174	0.16954
1932.53306	0.16966
1930.60439	0.16978
1928.67571	0.16991
1926.74704	0.17006
1924.81836	0.17016
1922.88969	0.17023
1920.96101	0.17024
1919.03233	0.17022
1917.10366	0.17042
1915.17498	0.17085
1913.24631	0.17114
1911.31763	0.17122
1909.38896	0.17131
1907.46028	0.17153
1905.53160	0.17178
1903.60293	0.17199
1901.67425	0.17211
1899.74558	0.17220
1897.81690	0.17230
1895.88823	0.17241
1893.95955	0.17257
1892.03087	0.17274
1890.10220	0.17285
1888.17352	0.17301
1886.24485	0.17321
1884.31617	0.17337
1882.38750	0.17350
1880.45882	0.17362
1878.53014	0.17373
1876.60147	0.17384
1874.67279	0.17397
1872.74412	0.17404
1870.81544	0.17401
1868.88677	0.17404
1866.95809	0.17430
1865.02941	0.17468
1863.10074	0.17497
1861.17206	0.17518
1859.24339	0.17537
1857.31471	0.17554
1855.38604	0.17567
1853.45736	0.17581
1851.52868	0.17594
1849.60001	0.17600
1847.67133	0.17596
1845.74266	0.17585
1843.81398	0.17595
1841.88531	0.17639
1839.95663	0.17677
1838.02795	0.17689
1836.09928	0.17701
1834.17060	0.17718
1832.24193	0.17714
1830.31325	0.17702
1828.38458	0.17719
1826.45590	0.17748
1824.52722	0.17775
1822.59855	0.17809
1820.66987	0.17839
1818.74120	0.17852
1816.81252	0.17861
1814.88385	0.17868
1812.95517	0.17867
1811.02649	0.17870
1809.09782	0.17894
1807.16914	0.17923
1805.24047	0.17935
1803.31179	0.17932
1801.38312	0.17925
1799.45444	0.17931
1797.52576	0.17949
1795.59709	0.17960
1793.66841	0.17959
1791.73974	0.17972
1789.81106	0.18007
1787.88239	0.18033
1785.95371	0.18035
1784.02503	0.18035
1782.09636	0.18038
1780.16768	0.18050
1778.23901	0.18076
1776.31033	0.18083
1774.38166	0.18059
1772.45298	0.18049
1770.52430	0.18077
1768.59563	0.18110
1766.66695	0.18141
1764.73828	0.18156
1762.80960	0.18144
1760.88093	0.18143
1758.95225	0.18163
1757.02357	0.18183
1755.09490	0.18198
1753.16622	0.18187
1751.23755	0.18155
1749.30887	0.18144
1747.38020	0.18155
1745.45152	0.18164
1743.52284	0.18168
1741.59417	0.18171
1739.66549	0.18180
1737.73682	0.18167
1735.80814	0.18112
1733.87947	0.18093
1731.95079	0.18152
1730.02211	0.18221
1728.09344	0.18264
1726.16476	0.18286
1724.23609	0.18291
1722.30741	0.18291
1720.37874	0.18276
1718.45006	0.18248
1716.52138	0.18244
1714.59271	0.18284
1712.66403	0.18340
1710.73536	0.18375
1708.80668	0.18377
1706.87801	0.18361
1704.94933	0.18338
1703.02065	0.18284
1701.09198	0.18220
1699.16330	0.18232
1697.23463	0.18299
1695.30595	0.18357
1693.37728	0.18405
1691.44860	0.18424
1689.51992	0.18413
1687.59125	0.18380
1685.66257	0.18332
1683.73390	0.18328
1681.80522	0.18379
1679.87655	0.18426
1677.94787	0.18438
1676.01919	0.18431
1674.09052	0.18427
1672.16184	0.18415
1670.23317	0.18395
1668.30449	0.18411
1666.37582	0.18447
1664.44714	0.18449
1662.51846	0.18442
1660.58979	0.18468
1658.66111	0.18490
1656.73244	0.18455
1654.80376	0.18387
1652.87509	0.18369
1650.94641	0.18408
1649.01773	0.18422
1647.08906	0.18418
1645.16038	0.18452
1643.23171	0.18501
1641.30303	0.18526
1639.37436	0.18511
1637.44568	0.18453
1635.51700	0.18425
1633.58833	0.18479
1631.65965	0.18542
1629.73098	0.18542
1627.80230	0.18514
1625.87363	0.18492
1623.94495	0.18465
1622.01627	0.18447
1620.08760	0.18443
1618.15892	0.18445
1616.23025	0.18487
1614.30157	0.18582
1612.37290	0.18662
1610.44422	0.18699
1608.51554	0.18723
1606.58687	0.18747
1604.65819	0.18763
1602.72952	0.18777
1600.80084	0.18795
1598.87217	0.18816
1596.94349	0.18833
1595.01481	0.18846
1593.08614	0.18860
1591.15746	0.18874
1589.22879	0.18888
1587.30011	0.18902
1585.37144	0.18915
1583.44276	0.18928
1581.51408	0.18945
1579.58541	0.18955
1577.65673	0.18956
1575.72806	0.18965
1573.79938	0.18985
1571.87071	0.18994
1569.94203	0.18997
1568.01335	0.19020
1566.08468	0.19051
1564.15600	0.19060
1562.22733	0.19010
1560.29865	0.18932
1558.36998	0.18927
1556.44130	0.19005
1554.51262	0.19073
1552.58395	0.19104
1550.65527	0.19123
1548.72660	0.19134
1546.79792	0.19127
1544.86925	0.19097
1542.94057	0.19056
1541.01189	0.19029
1539.08322	0.19063
1537.15454	0.19131
1535.22587	0.19155
1533.29719	0.19154
1531.36852	0.19173
1529.43984	0.19184
1527.51116	0.19167
1525.58249	0.19147
1523.65381	0.19109
1521.72514	0.19064
1519.79646	0.19071
1517.86779	0.19121
1515.93911	0.19181
1514.01043	0.19230
1512.08176	0.19231
1510.15308	0.19182
1508.22441	0.19132
1506.29573	0.19136
1504.36706	0.19208
1502.43838	0.19268
1500.50970	0.19267
1498.58103	0.19250
1496.65235	0.19264
1494.72368	0.19288
1492.79500	0.19269
1490.86633	0.19219
1488.93765	0.19197
1487.00897	0.19217
1485.08030	0.19250
1483.15162	0.19267
1481.22295	0.19260
1479.29427	0.19229
1477.36560	0.19179
1475.43692	0.19123
1473.50824	0.19072
1471.57957	0.19049
1469.65089	0.19057
1467.72222	0.19051
1465.79354	0.19024
1463.86487	0.19010
1461.93619	0.19000
1460.00751	0.18939
1458.07884	0.18844
1456.15016	0.18819
1454.22149	0.18882
1452.29281	0.18937
1450.36414	0.18946
1448.43546	0.18943
1446.50678	0.18954
1444.57811	0.18979
1442.64943	0.19006
1440.72076	0.19008
1438.79208	0.18963
1436.86341	0.18929
1434.93473	0.18964
1433.00605	0.19017
1431.07738	0.19034
1429.14870	0.19047
1427.22003	0.19071
1425.29135	0.19091
1423.36268	0.19094
1421.43400	0.19072
1419.50532	0.19040
1417.57665	0.19044
1415.64797	0.19084
1413.71930	0.19115
1411.79062	0.19122
1409.86195	0.19119
1407.93327	0.19115
1406.00459	0.19109
1404.07592	0.19097
1402.14724	0.19076
1400.21857	0.19047
1398.28989	0.19028
1396.36122	0.19025
1394.43254	0.19034
1392.50386	0.19056
1390.57519	0.19049
1388.64651	0.18996
1386.71784	0.18959
1384.78916	0.18965
1382.86049	0.18984
1380.93181	0.18996
1379.00313	0.19001
1377.07446	0.18995
1375.14578	0.18984
1373.21711	0.18981
1371.28843	0.18981
1369.35976	0.18973
1367.43108	0.18969
1365.50240	0.18966
1363.57373	0.18955
1361.64505	0.18951
1359.71638	0.18970
1357.78770	0.18996
1355.85903	0.19008
1353.93035	0.19014
1352.00167	0.19022
1350.07300	0.19029
1348.14432	0.19038
1346.21565	0.19045
1344.28697	0.19046
1342.35830	0.19034
1340.42962	0.19013
1338.50094	0.19001
1336.57227	0.19011
1334.64359	0.19022
1332.71492	0.19018
1330.78624	0.19004
1328.85757	0.18986
1326.92889	0.18965
1325.00021	0.18944
1323.07154	0.18923
1321.14286	0.18900
1319.21419	0.18881
1317.28551	0.18873
1315.35684	0.18868
1313.42816	0.18853
1311.49948	0.18833
1309.57081	0.18813
1307.64213	0.18791
1305.71346	0.18766
1303.78478	0.18744
1301.85611	0.18726
1299.92743	0.18712
1297.99875	0.18694
1296.07008	0.18670
1294.14140	0.18645
1292.21273	0.18627
1290.28405	0.18614
1288.35538	0.18602
1286.42670	0.18585
1284.49802	0.18567
1282.56935	0.18549
1280.64067	0.18526
1278.71200	0.18495
1276.78332	0.18460
1274.85465	0.18421
1272.92597	0.18374
1270.99729	0.18312
1269.06862	0.18234
1267.13994	0.18147
1265.21127	0.18073
1263.28259	0.18021
1261.35392	0.17991
1259.42524	0.17994
1257.49656	0.18017
1255.56789	0.18037
1253.63921	0.18043
1251.71054	0.18027
1249.78186	0.17997
1247.85319	0.17963
1245.92451	0.17932
1243.99583	0.17903
1242.06716	0.17867
1240.13848	0.17821
1238.20981	0.17769
1236.28113	0.17718
1234.35246	0.17668
1232.42378	0.17612
1230.49510	0.17553
1228.56643	0.17496
1226.63775	0.17442
1224.70908	0.17395
1222.78040	0.17356
1220.85173	0.17318
1218.92305	0.17275
1216.99437	0.17228
1215.06570	0.17177
1213.13702	0.17122
1211.20835	0.17066
1209.27967	0.17016
1207.35100	0.16968
1205.42232	0.16916
1203.49364	0.16860
1201.56497	0.16803
1199.63629	0.16746
1197.70762	0.16690
1195.77894	0.16632
1193.85027	0.16569
1191.92159	0.16507
1189.99291	0.16446
1188.06424	0.16381
1186.13556	0.16312
1184.20689	0.16239
1182.27821	0.16159
1180.34954	0.16074
1178.42086	0.15993
1176.49218	0.15915
1174.56351	0.15838
1172.63483	0.15764
1170.70616	0.15687
1168.77748	0.15605
1166.84881	0.15524
1164.92013	0.15445
1162.99145	0.15363
1161.06278	0.15279
1159.13410	0.15199
1157.20543	0.15127
1155.27675	0.15057
1153.34808	0.14989
1151.41940	0.14923
1149.49072	0.14854
1147.56205	0.14774
1145.63337	0.14691
1143.70470	0.14611
1141.77602	0.14526
1139.84735	0.14431
1137.91867	0.14327
1135.98999	0.14213
1134.06132	0.14083
1132.13264	0.13931
1130.20397	0.13758
1128.27529	0.13569
1126.34662	0.13365
1124.41794	0.13151
1122.48926	0.12936
1120.56059	0.12718
1118.63191	0.12502
1116.70324	0.12302
1114.77456	0.12128
1112.84589	0.11981
1110.91721	0.11859
1108.98853	0.11762
1107.05986	0.11690
1105.13118	0.11648
1103.20251	0.11636
1101.27383	0.11648
1099.34516	0.11683
1097.41648	0.11739
1095.48780	0.11802
1093.55913	0.11870
1091.63045	0.11951
1089.70178	0.12035
1087.77310	0.12106
1085.84443	0.12159
1083.91575	0.12202
1081.98707	0.12239
1080.05840	0.12267
1078.12972	0.12286
1076.20105	0.12299
1074.27237	0.12306
1072.34370	0.12314
1070.41502	0.12331
1068.48634	0.12352
1066.55767	0.12368
1064.62899	0.12380
1062.70032	0.12394
1060.77164	0.12415
1058.84297	0.12444
1056.91429	0.12474
1054.98561	0.12496
1053.05694	0.12516
1051.12826	0.12545
1049.19959	0.12582
1047.27091	0.12619
1045.34224	0.12656
1043.41356	0.12695
1041.48488	0.12736
1039.55621	0.12775
1037.62753	0.12809
1035.69886	0.12842
1033.77018	0.12875
1031.84151	0.12905
1029.91283	0.12930
1027.98415	0.12961
1026.05548	0.12999
1024.12680	0.13037
1022.19813	0.13073
1020.26945	0.13104
1018.34078	0.13139
1016.41210	0.13182
1014.48342	0.13230
1012.55475	0.13282
1010.62607	0.13339
1008.69740	0.13398
1006.76872	0.13456
1004.84005	0.13506
1002.91137	0.13544
1000.98269	0.13574
999.05402	0.13600
997.12534	0.13620
995.19667	0.13638
993.26799	0.13655
991.33932	0.13667
989.41064	0.13669
987.48196	0.13668
985.55329	0.13669
983.62461	0.13668
981.69594	0.13663
979.76726	0.13657
977.83859	0.13649
975.90991	0.13634
973.98123	0.13614
972.05256	0.13592
970.12388	0.13571
968.19521	0.13553
966.26653	0.13540
964.33786	0.13527
962.40918	0.13515
960.48050	0.13506
958.55183	0.13498
956.62315	0.13490
954.69448	0.13474
952.76580	0.13452
950.83713	0.13427
948.90845	0.13402
946.97977	0.13382
945.05110	0.13367
943.12242	0.13348
941.19375	0.13319
939.26507	0.13280
937.33640	0.13236
935.40772	0.13192
933.47904	0.13149
931.55037	0.13109
929.62169	0.13068
927.69302	0.13021
925.76434	0.12969
923.83567	0.12916
921.90699	0.12855
919.97831	0.12793
918.04964	0.12734
916.12096	0.12673
914.19229	0.12603
912.26361	0.12531
910.33494	0.12463
908.40626	0.12400
906.47758	0.12335
904.54891	0.12271
902.62023	0.12219
900.69156	0.12173
898.76288	0.12127
896.83421	0.12076
894.90553	0.12023
892.97685	0.11972
891.04818	0.11926
889.11950	0.11885
887.19083	0.11850
885.26215	0.11813
883.33348	0.11774
881.40480	0.11742
879.47612	0.11714
877.54745	0.11684
875.61877	0.11658
873.69010	0.11640
871.76142	0.11627
869.83275	0.11609
867.90407	0.11582
865.97539	0.11558
864.04672	0.11546
862.11804	0.11540
860.18937	0.11529
858.26069	0.11514
856.33202	0.11501
854.40334	0.11485
852.47466	0.11466
850.54599	0.11443
848.61731	0.11419
846.68864	0.11395
844.75996	0.11373
842.83129	0.11346
840.90261	0.11308
838.97394	0.11263
837.04526	0.11212
835.11658	0.11157
833.18791	0.11090
831.25923	0.11008
829.33056	0.10911
827.40188	0.10805
825.47321	0.10702
823.54453	0.10613
821.61585	0.10539
819.68718	0.10478
817.75850	0.10426
815.82983	0.10381
813.90115	0.10345
811.97248	0.10324
810.04380	0.10309
808.11512	0.10287
806.18645	0.10261
804.25777	0.10246
802.32910	0.10241
800.40042	0.10227
798.47175	0.10185
796.54307	0.10123
794.61439	0.10064
792.68572	0.10019
790.75704	0.09990
788.82837	0.09975
786.89969	0.09962
784.97102	0.09936
783.04234	0.09902
781.11366	0.09869
779.18499	0.09840
777.25631	0.09815
775.32764	0.09794
773.39896	0.09768
771.47029	0.09735
769.54161	0.09695
767.61293	0.09650
765.68426	0.09607
763.75558	0.09570
761.82691	0.09531
759.89823	0.09490
757.96956	0.09446
756.04088	0.09389
754.11220	0.09321
752.18353	0.09256
750.25485	0.09198
748.32618	0.09137
746.39750	0.09060
744.46883	0.08971
742.54015	0.08883
740.61147	0.08814
738.68280	0.08779
736.75412	0.08769
734.82545	0.08761
732.89677	0.08751
730.96810	0.08747
729.03942	0.08757
727.11074	0.08774
725.18207	0.08786
723.25339	0.08794
721.32472	0.08810
719.39604	0.08829
717.46737	0.08850
715.53869	0.08883
713.61001	0.08933
711.68134	0.08975
709.75266	0.08995
707.82399	0.09005
705.89531	0.09006
703.96664	0.08984
702.03796	0.08950
700.10928	0.08912
698.18061	0.08864
696.25193	0.08810
694.32326	0.08760
692.39458	0.08712
690.46591	0.08662
688.53723	0.08608
686.60855	0.08559
684.67988	0.08518
682.75120	0.08474
680.82253	0.08424
678.89385	0.08372
676.96518	0.08316
675.03650	0.08252
673.10782	0.08178
671.17915	0.08094
669.25047	0.08006
667.32180	0.07926
665.39312	0.07856
663.46445	0.07785
661.53577	0.07713
659.60709	0.07640
657.67842	0.07567
655.74974	0.07499
653.82107	0.07430
651.89239	0.07349
649.96372	0.07266
648.03504	0.07189
646.10636	0.07114
644.17769	0.07028
642.24901	0.06929
640.32034	0.06825
638.39166	0.06721
636.46299	0.06623
634.53431	0.06519
632.60563	0.06379
630.67696	0.06159
628.74828	0.05831
626.81961	0.05421
624.89093	0.05003
622.96226	0.04674
621.03358	0.04479
619.10490	0.04372
617.17623	0.04287
615.24755	0.04191
613.31888	0.04087
611.39020	0.03999
609.46153	0.03956
607.53285	0.03971
605.60417	0.04020
603.67550	0.04083
601.74682	0.04160
599.81815	0.04244
597.88947	0.04317
595.96080	0.04370
594.03212	0.04407
592.10344	0.04429
590.17477	0.04434
588.24609	0.04431
586.31742	0.04427
584.38874	0.04415
582.46007	0.04384
580.53139	0.04338
578.60271	0.04285
576.67404	0.04235
574.74536	0.04186
572.81669	0.04133
570.88801	0.04078
568.95934	0.04024
567.03066	0.03977
565.10198	0.03941
563.17331	0.03912
561.24463	0.03884
559.31596	0.03856
557.38728	0.03833
555.45861	0.03818
553.52993	0.03800
551.60125	0.03780
549.67258	0.03762
547.74390	0.03744
545.81523	0.03734
543.88655	0.03732
541.95788	0.03720
540.02920	0.03691
538.10052	0.03668
536.17185	0.03657
534.24317	0.03652
532.31450	0.03644
530.38582	0.03625
528.45715	0.03589
526.52847	0.03552
524.59979	0.03527
522.67112	0.03497
520.74244	0.03453
518.81377	0.03398
516.88509	0.03337
514.95642	0.03278
513.02774	0.03230
511.09906	0.03201
509.17039	0.03182
507.24171	0.03161
505.31304	0.03135
503.38436	0.03105
501.45569	0.03069
499.52701	0.03026
497.59833	0.02982
495.66966	0.02937
493.74098	0.02888
491.81231	0.02835
489.88363	0.02780
487.95496	0.02718
486.02628	0.02651
484.09760	0.02593
482.16893	0.02548
480.24025	0.02509
478.31158	0.02468
476.38290	0.02420
474.45423	0.02366
472.52555	0.02316
470.59687	0.02277
468.66820	0.02239
466.73952	0.02203
464.81085	0.02181
462.88217	0.02165
460.95350	0.02146
459.02482	0.02123
457.09614	0.02099
455.16747	0.02088
453.23879	0.02097
451.31012	0.02111
449.38144	0.02114
447.45277	0.02107
445.52409	0.02090
443.59541	0.02066
441.66674	0.02040
439.73806	0.02011
437.80939	0.01969
435.88071	0.01919
433.95204	0.01877
432.02336	0.01835
430.09468	0.01779
428.16601	0.01708
426.23733	0.01634
424.30866	0.01572
422.37998	0.01518
420.45131	0.01457
418.52263	0.01392
416.59395	0.01332
414.66528	0.01275
412.73660	0.01219
410.80793	0.01171
408.87925	0.01118
406.95058	0.01049
405.02190	0.00980
403.09322	0.00924
401.16455	0.00868
399.23587	0.00809
397.30720	0.00761
395.37852	0.00721
393.44985	0.00679
391.52117	0.00643
389.59249	0.00605
387.66382	0.00557
385.73514	0.00510
383.80647	0.00477
381.87779	0.00448
379.94912	0.00413
378.02044	0.00374
376.09176	0.00333
374.16309	0.00296
372.23441	0.00269
370.30574	0.00248
368.37706	0.00231
