7496.76250	0.00111
7494.83382	0.00112
7492.90514	0.00111
7490.97647	0.00111
7489.04779	0.00110
7487.11912	0.00110
7485.19044	0.00112
7483.26177	0.00113
7481.33309	0.00112
7479.40441	0.00114
7477.47574	0.00116
7475.54706	0.00115
7473.61839	0.00113
7471.68971	0.00112
7469.76104	0.00114
7467.83236	0.00115
7465.90368	0.00115
7463.97501	0.00114
7462.04633	0.00114
7460.11766	0.00115
7458.18898	0.00115
7456.26031	0.00116
7454.33163	0.00117
7452.40295	0.00117
7450.47428	0.00116
7448.54560	0.00117
7446.61693	0.00118
7444.68825	0.00119
7442.75958	0.00119
7440.83090	0.00119
7438.90222	0.00118
7436.97355	0.00118
7435.04487	0.00120
7433.11620	0.00120
7431.18752	0.00120
7429.25885	0.00121
7427.33017	0.00123
7425.40149	0.00124
7423.47282	0.00124
7421.54414	0.00123
7419.61547	0.00123
7417.68679	0.00124
7415.75812	0.00124
7413.82944	0.00123
7411.90076	0.00123
7409.97209	0.00124
7408.04341	0.00127
7406.11474	0.00127
7404.18606	0.00125
7402.25739	0.00124
7400.32871	0.00125
7398.40003	0.00127
7396.47136	0.00128
7394.54268	0.00128
7392.61401	0.00129
7390.68533	0.00131
7388.75666	0.00130
7386.82798	0.00130
7384.89930	0.00130
7382.97063	0.00130
7381.04195	0.00129
7379.11328	0.00128
7377.18460	0.00128
7375.25593	0.00128
7373.32725	0.00127
7371.39857	0.00128
7369.46990	0.00130
7367.54122	0.00130
7365.61255	0.00131
7363.68387	0.00133
7361.75520	0.00134
7359.82652	0.00134
7357.89784	0.00134
7355.96917	0.00133
7354.04049	0.00133
7352.11182	0.00133
7350.18314	0.00134
7348.25447	0.00136
7346.32579	0.00138
7344.39711	0.00137
7342.46844	0.00135
7340.53976	0.00134
7338.61109	0.00135
7336.68241	0.00135
7334.75374	0.00135
7332.82506	0.00135
7330.89638	0.00135
7328.96771	0.00135
7327.03903	0.00135
7325.11036	0.00136
7323.18168	0.00136
7321.25301	0.00136
7319.32433	0.00137
7317.39565	0.00138
7315.46698	0.00139
7313.53830	0.00140
7311.60963	0.00141
7309.68095	0.00141
7307.75228	0.00141
7305.82360	0.00140
7303.89492	0.00139
7301.96625	0.00140
7300.03757	0.00141
7298.10890	0.00142
7296.18022	0.00143
7294.25155	0.00143
7292.32287	0.00143
7290.39419	0.00143
7288.46552	0.00144
7286.53684	0.00144
7284.60817	0.00144
7282.67949	0.00144
7280.75082	0.00145
7278.82214	0.00145
7276.89346	0.00147
7274.96479	0.00148
7273.03611	0.00148
7271.10744	0.00148
7269.17876	0.00148
7267.25009	0.00148
7265.32141	0.00149
7263.39273	0.00150
7261.46406	0.00150
7259.53538	0.00150
7257.60671	0.00150
7255.67803	0.00150
7253.74936	0.00149
7251.82068	0.00149
7249.89200	0.00150
7247.96333	0.00152
7246.03465	0.00154
7244.10598	0.00156
7242.17730	0.00156
7240.24863	0.00155
7238.31995	0.00153
7236.39127	0.00152
7234.46260	0.00151
7232.53392	0.00151
7230.60525	0.00152
7228.67657	0.00153
7226.74790	0.00153
7224.81922	0.00153
7222.89054	0.00154
7220.96187	0.00156
7219.03319	0.00157
7217.10452	0.00157
7215.17584	0.00157
7213.24717	0.00158
7211.31849	0.00160
7209.38981	0.00160
7207.46114	0.00160
7205.53246	0.00161
7203.60379	0.00162
7201.67511	0.00162
7199.74644	0.00162
7197.81776	0.00163
7195.88908	0.00163
7193.96041	0.00164
7192.03173	0.00164
7190.10306	0.00164
7188.17438	0.00163
7186.24571	0.00163
7184.31703	0.00164
7182.38835	0.00164
7180.45968	0.00164
7178.53100	0.00164
7176.60233	0.00166
7174.67365	0.00168
7172.74498	0.00168
7170.81630	0.00167
7168.88762	0.00166
7166.95895	0.00167
7165.03027	0.00170
7163.10160	0.00171
7161.17292	0.00170
7159.24425	0.00169
7157.31557	0.00170
7155.38689	0.00170
7153.45822	0.00170
7151.52954	0.00171
7149.60087	0.00173
7147.67219	0.00174
7145.74352	0.00174
7143.81484	0.00173
7141.88616	0.00173
7139.95749	0.00174
7138.02881	0.00174
7136.10014	0.00174
7134.17146	0.00174
7132.24279	0.00175
7130.31411	0.00176
7128.38543	0.00176
7126.45676	0.00176
7124.52808	0.00178
7122.59941	0.00178
7120.67073	0.00178
7118.74206	0.00177
7116.81338	0.00176
7114.88470	0.00176
7112.95603	0.00177
7111.02735	0.00177
7109.09868	0.00177
7107.17000	0.00178
7105.24133	0.00178
7103.31265	0.00177
7101.38397	0.00180
7099.45530	0.00183
7097.52662	0.00184
7095.59795	0.00182
7093.66927	0.00181
7091.74060	0.00183
7089.81192	0.00185
7087.88324	0.00185
7085.95457	0.00184
7084.02589	0.00185
7082.09722	0.00186
7080.16854	0.00186
7078.23987	0.00185
7076.31119	0.00186
7074.38251	0.00185
7072.45384	0.00185
7070.52516	0.00184
7068.59649	0.00185
7066.66781	0.00186
7064.73914	0.00187
7062.81046	0.00189
7060.88178	0.00190
7058.95311	0.00190
7057.02443	0.00190
7055.09576	0.00190
7053.16708	0.00192
7051.23841	0.00194
7049.30973	0.00193
7047.38105	0.00191
7045.45238	0.00191
7043.52370	0.00192
7041.59503	0.00193
7039.66635	0.00194
7037.73768	0.00193
7035.80900	0.00192
7033.88032	0.00191
7031.95165	0.00190
7030.02297	0.00191
7028.09430	0.00193
7026.16562	0.00194
7024.23695	0.00195
7022.30827	0.00196
7020.37959	0.00196
7018.45092	0.00195
7016.52224	0.00195
7014.59357	0.00196
7012.66489	0.00197
7010.73622	0.00198
7008.80754	0.00199
7006.87886	0.00200
7004.95019	0.00200
7003.02151	0.00200
7001.09284	0.00200
6999.16416	0.00201
6997.23549	0.00202
6995.30681	0.00203
6993.37813	0.00205
6991.44946	0.00205
6989.52078	0.00205
6987.59211	0.00205
6985.66343	0.00206
6983.73476	0.00206
6981.80608	0.00205
6979.87740	0.00205
6977.94873	0.00206
6976.02005	0.00205
6974.09138	0.00204
6972.16270	0.00204
6970.23403	0.00204
6968.30535	0.00205
6966.37667	0.00206
6964.44800	0.00208
6962.51932	0.00209
6960.59065	0.00210
6958.66197	0.00211
6956.73330	0.00212
6954.80462	0.00212
6952.87594	0.00212
6950.94727	0.00212
6949.01859	0.00213
6947.08992	0.00214
6945.16124	0.00216
6943.23257	0.00217
6941.30389	0.00216
6939.37521	0.00216
6937.44654	0.00216
6935.51786	0.00215
6933.58919	0.00214
6931.66051	0.00216
6929.73184	0.00218
6927.80316	0.00218
6925.87448	0.00217
6923.94581	0.00218
6922.01713	0.00218
6920.08846	0.00218
6918.15978	0.00218
6916.23111	0.00219
6914.30243	0.00221
6912.37375	0.00224
6910.44508	0.00225
6908.51640	0.00224
6906.58773	0.00223
6904.65905	0.00223
6902.73038	0.00224
6900.80170	0.00223
6898.87302	0.00224
6896.94435	0.00225
6895.01567	0.00226
6893.08700	0.00227
6891.15832	0.00228
6889.22965	0.00228
6887.30097	0.00228
6885.37229	0.00229
6883.44362	0.00230
6881.51494	0.00231
6879.58627	0.00232
6877.65759	0.00233
6875.72892	0.00234
6873.80024	0.00234
6871.87156	0.00234
6869.94289	0.00235
6868.01421	0.00235
6866.08554	0.00234
6864.15686	0.00233
6862.22819	0.00233
6860.29951	0.00233
6858.37083	0.00233
6856.44216	0.00235
6854.51348	0.00237
6852.58481	0.00237
6850.65613	0.00236
6848.72746	0.00235
6846.79878	0.00236
6844.87010	0.00238
6842.94143	0.00239
6841.01275	0.00239
6839.08408	0.00240
6837.15540	0.00242
6835.22673	0.00243
6833.29805	0.00242
6831.36937	0.00241
6829.44070	0.00241
6827.51202	0.00243
6825.58335	0.00244
6823.65467	0.00244
6821.72600	0.00244
6819.79732	0.00245
6817.86864	0.00246
6815.93997	0.00247
6814.01129	0.00247
6812.08262	0.00247
6810.15394	0.00247
6808.22527	0.00247
6806.29659	0.00248
6804.36791	0.00249
6802.43924	0.00250
6800.51056	0.00250
6798.58189	0.00249
6796.65321	0.00249
6794.72454	0.00250
6792.79586	0.00252
6790.86718	0.00254
6788.93851	0.00254
6787.00983	0.00254
6785.08116	0.00255
6783.15248	0.00256
6781.22381	0.00256
6779.29513	0.00257
6777.36645	0.00258
6775.43778	0.00258
6773.50910	0.00257
6771.58043	0.00257
6769.65175	0.00259
6767.72308	0.00260
6765.79440	0.00261
6763.86572	0.00261
6761.93705	0.00260
6760.00837	0.00260
6758.07970	0.00263
6756.15102	0.00264
6754.22235	0.00264
6752.29367	0.00265
6750.36499	0.00265
6748.43632	0.00265
6746.50764	0.00266
6744.57897	0.00267
6742.65029	0.00267
6740.72162	0.00267
6738.79294	0.00268
6736.86426	0.00269
6734.93559	0.00269
6733.00691	0.00267
6731.07824	0.00267
6729.14956	0.00268
6727.22089	0.00269
6725.29221	0.00270
6723.36353	0.00272
6721.43486	0.00274
6719.50618	0.00275
6717.57751	0.00276
6715.64883	0.00277
6713.72016	0.00276
6711.79148	0.00276
6709.86280	0.00277
6707.93413	0.00278
6706.00545	0.00278
6704.07678	0.00276
6702.14810	0.00275
6700.21943	0.00276
6698.29075	0.00277
6696.36207	0.00278
6694.43340	0.00278
6692.50472	0.00279
6690.57605	0.00282
6688.64737	0.00283
6686.71870	0.00283
6684.79002	0.00282
6682.86134	0.00282
6680.93267	0.00284
6679.00399	0.00285
6677.07532	0.00285
6675.14664	0.00285
6673.21797	0.00286
6671.28929	0.00287
6669.36061	0.00287
6667.43194	0.00288
6665.50326	0.00288
6663.57459	0.00288
6661.64591	0.00290
6659.71724	0.00290
6657.78856	0.00291
6655.85988	0.00291
6653.93121	0.00291
6652.00253	0.00291
6650.07386	0.00291
6648.14518	0.00293
6646.21651	0.00295
6644.28783	0.00297
6642.35915	0.00298
6640.43048	0.00296
6638.50180	0.00296
6636.57313	0.00296
6634.64445	0.00296
6632.71578	0.00297
6630.78710	0.00299
6628.85842	0.00301
6626.92975	0.00302
6625.00107	0.00303
6623.07240	0.00304
6621.14372	0.00304
6619.21505	0.00303
6617.28637	0.00304
6615.35769	0.00306
6613.42902	0.00308
6611.50034	0.00308
6609.57167	0.00306
6607.64299	0.00304
6605.71432	0.00305
6603.78564	0.00307
6601.85696	0.00308
6599.92829	0.00308
6597.99961	0.00309
6596.07094	0.00311
6594.14226	0.00312
6592.21359	0.00311
6590.28491	0.00311
6588.35623	0.00313
6586.42756	0.00314
6584.49888	0.00315
6582.57021	0.00316
6580.64153	0.00317
6578.71286	0.00316
6576.78418	0.00315
6574.85550	0.00315
6572.92683	0.00316
6570.99815	0.00318
6569.06948	0.00321
6567.14080	0.00322
6565.21213	0.00323
6563.28345	0.00324
6561.35477	0.00324
6559.42610	0.00325
6557.49742	0.00326
6555.56875	0.00327
6553.64007	0.00328
6551.71140	0.00329
6549.78272	0.00329
6547.85404	0.00327
6545.92537	0.00327
6543.99669	0.00327
6542.06802	0.00329
6540.13934	0.00331
6538.21067	0.00331
6536.28199	0.00331
6534.35331	0.00331
6532.42464	0.00331
6530.49596	0.00333
6528.56729	0.00335
6526.63861	0.00337
6524.70994	0.00338
6522.78126	0.00338
6520.85258	0.00339
6518.92391	0.00341
6516.99523	0.00342
6515.06656	0.00342
6513.13788	0.00340
6511.20921	0.00340
6509.28053	0.00341
6507.35185	0.00341
6505.42318	0.00342
6503.49450	0.00344
6501.56583	0.00346
6499.63715	0.00347
6497.70848	0.00347
6495.77980	0.00347
6493.85112	0.00348
6491.92245	0.00349
6489.99377	0.00348
6488.06510	0.00346
6486.13642	0.00344
6484.20775	0.00346
6482.27907	0.00349
6480.35039	0.00352
6478.42172	0.00351
6476.49304	0.00351
6474.56437	0.00354
6472.63569	0.00357
6470.70702	0.00359
6468.77834	0.00358
6466.84966	0.00357
6464.92099	0.00358
6462.99231	0.00359
6461.06364	0.00360
6459.13496	0.00361
6457.20629	0.00363
6455.27761	0.00364
6453.34893	0.00365
6451.42026	0.00364
6449.49158	0.00364
6447.56291	0.00364
6445.63423	0.00366
6443.70556	0.00368
6441.77688	0.00370
6439.84820	0.00370
6437.91953	0.00370
6435.99085	0.00371
6434.06218	0.00373
6432.13350	0.00374
6430.20483	0.00375
6428.27615	0.00374
6426.34747	0.00374
6424.41880	0.00376
6422.49012	0.00377
6420.56145	0.00377
6418.63277	0.00376
6416.70410	0.00376
6414.77542	0.00376
6412.84674	0.00377
6410.91807	0.00379
6408.98939	0.00382
6407.06072	0.00384
6405.13204	0.00383
6403.20337	0.00382
6401.27469	0.00384
6399.34601	0.00387
6397.41734	0.00389
6395.48866	0.00388
6393.55999	0.00387
6391.63131	0.00387
6389.70264	0.00387
6387.77396	0.00389
6385.84528	0.00391
6383.91661	0.00392
6381.98793	0.00393
6380.05926	0.00394
6378.13058	0.00396
6376.20191	0.00396
6374.27323	0.00396
6372.34455	0.00395
6370.41588	0.00396
6368.48720	0.00397
6366.55853	0.00397
6364.62985	0.00398
6362.70118	0.00399
6360.77250	0.00399
6358.84382	0.00400
6356.91515	0.00402
6354.98647	0.00404
6353.05780	0.00406
6351.12912	0.00408
6349.20045	0.00409
6347.27177	0.00408
6345.34309	0.00406
6343.41442	0.00407
6341.48574	0.00409
6339.55707	0.00412
6337.62839	0.00414
6335.69972	0.00415
6333.77104	0.00416
6331.84236	0.00415
6329.91369	0.00415
6327.98501	0.00415
6326.05634	0.00415
6324.12766	0.00416
6322.19899	0.00417
6320.27031	0.00418
6318.34163	0.00420
6316.41296	0.00421
6314.48428	0.00422
6312.55561	0.00421
6310.62693	0.00421
6308.69826	0.00422
6306.76958	0.00423
6304.84090	0.00423
6302.91223	0.00424
6300.98355	0.00425
6299.05488	0.00427
6297.12620	0.00429
6295.19753	0.00430
6293.26885	0.00430
6291.34017	0.00430
6289.41150	0.00430
6287.48282	0.00430
6285.55415	0.00431
6283.62547	0.00432
6281.69680	0.00433
6279.76812	0.00435
6277.83944	0.00436
6275.91077	0.00438
6273.98209	0.00441
6272.05342	0.00442
6270.12474	0.00442
6268.19607	0.00442
6266.26739	0.00444
6264.33871	0.00446
6262.41004	0.00446
6260.48136	0.00446
6258.55269	0.00447
6256.62401	0.00449
6254.69534	0.00450
6252.76666	0.00452
6250.83798	0.00453
6248.90931	0.00453
6246.98063	0.00453
6245.05196	0.00453
6243.12328	0.00453
6241.19461	0.00454
6239.26593	0.00456
6237.33725	0.00458
6235.40858	0.00459
6233.47990	0.00461
6231.55123	0.00461
6229.62255	0.00460
6227.69388	0.00460
6225.76520	0.00463
6223.83652	0.00465
6221.90785	0.00467
6219.97917	0.00468
6218.05050	0.00467
6216.12182	0.00467
6214.19315	0.00469
6212.26447	0.00470
6210.33579	0.00470
6208.40712	0.00470
6206.47844	0.00470
6204.54977	0.00471
6202.62109	0.00473
6200.69242	0.00475
6198.76374	0.00477
6196.83506	0.00478
6194.90639	0.00479
6192.97771	0.00479
6191.04904	0.00480
6189.12036	0.00480
6187.19169	0.00481
6185.26301	0.00481
6183.33433	0.00483
6181.40566	0.00485
6179.47698	0.00486
6177.54831	0.00487
6175.61963	0.00487
6173.69096	0.00488
6171.76228	0.00490
6169.83360	0.00491
6167.90493	0.00493
6165.97625	0.00493
6164.04758	0.00494
6162.11890	0.00495
6160.19023	0.00497
6158.26155	0.00498
6156.33287	0.00500
6154.40420	0.00502
6152.47552	0.00503
6150.54685	0.00502
6148.61817	0.00503
6146.68950	0.00505
6144.76082	0.00508
6142.83214	0.00510
6140.90347	0.00511
6138.97479	0.00509
6137.04612	0.00509
6135.11744	0.00511
6133.18877	0.00513
6131.26009	0.00514
6129.33141	0.00513
6127.40274	0.00514
6125.47406	0.00515
6123.54539	0.00516
6121.61671	0.00518
6119.68804	0.00519
6117.75936	0.00521
6115.83068	0.00521
6113.90201	0.00523
6111.97333	0.00524
6110.04466	0.00526
6108.11598	0.00526
6106.18731	0.00526
6104.25863	0.00526
6102.32995	0.00526
6100.40128	0.00528
6098.47260	0.00531
6096.54393	0.00533
6094.61525	0.00535
6092.68658	0.00536
6090.75790	0.00537
6088.82922	0.00538
6086.90055	0.00539
6084.97187	0.00540
6083.04320	0.00540
6081.11452	0.00540
6079.18585	0.00540
6077.25717	0.00542
6075.32849	0.00546
6073.39982	0.00549
6071.47114	0.00549
6069.54247	0.00549
6067.61379	0.00549
6065.68512	0.00550
6063.75644	0.00552
6061.82776	0.00553
6059.89909	0.00553
6057.97041	0.00554
6056.04174	0.00555
6054.11306	0.00556
6052.18439	0.00558
6050.25571	0.00560
6048.32703	0.00561
6046.39836	0.00562
6044.46968	0.00562
6042.54101	0.00562
6040.61233	0.00564
6038.68366	0.00565
6036.75498	0.00566
6034.82630	0.00567
6032.89763	0.00567
6030.96895	0.00567
6029.04028	0.00569
6027.11160	0.00572
6025.18293	0.00574
6023.25425	0.00575
6021.32557	0.00575
6019.39690	0.00576
6017.46822	0.00578
6015.53955	0.00580
6013.61087	0.00581
6011.68220	0.00582
6009.75352	0.00584
6007.82484	0.00587
6005.89617	0.00589
6003.96749	0.00590
6002.03882	0.00591
6000.11014	0.00593
5998.18147	0.00594
5996.25279	0.00594
5994.32411	0.00593
5992.39544	0.00593
5990.46676	0.00594
5988.53809	0.00597
5986.60941	0.00601
5984.68074	0.00602
5982.75206	0.00602
5980.82338	0.00602
5978.89471	0.00603
5976.96603	0.00605
5975.03736	0.00607
5973.10868	0.00610
5971.18001	0.00612
5969.25133	0.00613
5967.32265	0.00614
5965.39398	0.00615
5963.46530	0.00616
5961.53663	0.00617
5959.60795	0.00616
5957.67928	0.00617
5955.75060	0.00619
5953.82192	0.00622
5951.89325	0.00624
5949.96457	0.00625
5948.03590	0.00625
5946.10722	0.00625
5944.17855	0.00627
5942.24987	0.00629
5940.32119	0.00629
5938.39252	0.00629
5936.46384	0.00630
5934.53517	0.00630
5932.60649	0.00632
5930.67782	0.00636
5928.74914	0.00640
5926.82046	0.00641
5924.89179	0.00641
5922.96311	0.00640
5921.03444	0.00640
5919.10576	0.00641
5917.17709	0.00642
5915.24841	0.00643
5913.31973	0.00646
5911.39106	0.00648
5909.46238	0.00649
5907.53371	0.00650
5905.60503	0.00652
5903.67636	0.00654
5901.74768	0.00655
5899.81900	0.00656
5897.89033	0.00656
5895.96165	0.00659
5894.03298	0.00662
5892.10430	0.00662
5890.17563	0.00663
5888.24695	0.00664
5886.31827	0.00666
5884.38960	0.00666
5882.46092	0.00666
5880.53225	0.00667
5878.60357	0.00669
5876.67490	0.00671
5874.74622	0.00672
5872.81755	0.00674
5870.88887	0.00676
5868.96019	0.00677
5867.03152	0.00679
5865.10284	0.00682
5863.17417	0.00682
5861.24549	0.00683
5859.31682	0.00684
5857.38814	0.00687
5855.45946	0.00688
5853.53079	0.00690
5851.60211	0.00692
5849.67344	0.00694
5847.74476	0.00695
5845.81609	0.00696
5843.88741	0.00697
5841.95873	0.00699
5840.03006	0.00700
5838.10138	0.00701
5836.17271	0.00701
5834.24403	0.00703
5832.31536	0.00705
5830.38668	0.00706
5828.45800	0.00706
5826.52933	0.00706
5824.60065	0.00706
5822.67198	0.00707
5820.74330	0.00709
5818.81463	0.00713
5816.88595	0.00716
5814.95727	0.00718
5813.02860	0.00720
5811.09992	0.00722
5809.17125	0.00723
5807.24257	0.00723
5805.31390	0.00725
5803.38522	0.00727
5801.45654	0.00728
5799.52787	0.00729
5797.59919	0.00731
5795.67052	0.00733
5793.74184	0.00734
5791.81317	0.00736
5789.88449	0.00739
5787.95581	0.00741
5786.02714	0.00741
5784.09846	0.00741
5782.16979	0.00742
5780.24111	0.00744
5778.31244	0.00744
5776.38376	0.00744
5774.45508	0.00746
5772.52641	0.00748
5770.59773	0.00751
5768.66906	0.00754
5766.74038	0.00756
5764.81171	0.00758
5762.88303	0.00759
5760.95435	0.00761
5759.02568	0.00763
5757.09700	0.00766
5755.16833	0.00768
5753.23965	0.00767
5751.31098	0.00765
5749.38230	0.00765
5747.45362	0.00768
5745.52495	0.00771
5743.59627	0.00772
5741.66760	0.00772
5739.73892	0.00773
5737.81025	0.00776
5735.88157	0.00778
5733.95289	0.00780
5732.02422	0.00782
5730.09554	0.00785
5728.16687	0.00788
5726.23819	0.00788
5724.30952	0.00789
5722.38084	0.00792
5720.45216	0.00795
5718.52349	0.00795
5716.59481	0.00794
5714.66614	0.00794
5712.73746	0.00796
5710.80879	0.00798
5708.88011	0.00801
5706.95143	0.00804
5705.02276	0.00806
5703.09408	0.00808
5701.16541	0.00809
5699.23673	0.00809
5697.30806	0.00811
5695.37938	0.00814
5693.45070	0.00815
5691.52203	0.00816
5689.59335	0.00817
5687.66468	0.00818
5685.73600	0.00820
5683.80733	0.00822
5681.87865	0.00823
5679.94997	0.00825
5678.02130	0.00827
5676.09262	0.00829
5674.16395	0.00830
5672.23527	0.00831
5670.30660	0.00832
5668.37792	0.00833
5666.44924	0.00834
5664.52057	0.00836
5662.59189	0.00840
5660.66322	0.00843
5658.73454	0.00845
5656.80587	0.00846
5654.87719	0.00846
5652.94851	0.00846
5651.01984	0.00846
5649.09116	0.00848
5647.16249	0.00851
5645.23381	0.00852
5643.30514	0.00855
5641.37646	0.00858
5639.44778	0.00862
5637.51911	0.00863
5635.59043	0.00864
5633.66176	0.00864
5631.73308	0.00866
5629.80441	0.00868
5627.87573	0.00870
5625.94705	0.00873
5624.01838	0.00875
5622.08970	0.00876
5620.16103	0.00878
5618.23235	0.00881
5616.30368	0.00882
5614.37500	0.00882
5612.44632	0.00884
5610.51765	0.00886
5608.58897	0.00888
5606.66030	0.00890
5604.73162	0.00892
5602.80295	0.00894
5600.87427	0.00896
5598.94559	0.00896
5597.01692	0.00897
5595.08824	0.00898
5593.15957	0.00900
5591.23089	0.00903
5589.30222	0.00906
5587.37354	0.00908
5585.44486	0.00908
5583.51619	0.00910
5581.58751	0.00914
5579.65884	0.00917
5577.73016	0.00918
5575.80149	0.00916
5573.87281	0.00916
5571.94413	0.00917
5570.01546	0.00918
5568.08678	0.00918
5566.15811	0.00921
5564.22943	0.00926
5562.30076	0.00930
5560.37208	0.00931
5558.44340	0.00932
5556.51473	0.00936
5554.58605	0.00939
5552.65738	0.00938
5550.72870	0.00938
5548.80003	0.00938
5546.87135	0.00940
5544.94267	0.00941
5543.01400	0.00943
5541.08532	0.00945
5539.15665	0.00949
5537.22797	0.00951
5535.29930	0.00953
5533.37062	0.00954
5531.44194	0.00956
5529.51327	0.00959
5527.58459	0.00962
5525.65592	0.00964
5523.72724	0.00965
5521.79857	0.00966
5519.86989	0.00969
5517.94121	0.00972
5516.01254	0.00972
5514.08386	0.00973
5512.15519	0.00974
5510.22651	0.00975
5508.29784	0.00976
5506.36916	0.00979
5504.44048	0.00983
5502.51181	0.00988
5500.58313	0.00989
5498.65446	0.00990
5496.72578	0.00990
5494.79711	0.00990
5492.86843	0.00992
5490.93975	0.00995
5489.01108	0.01000
5487.08240	0.01003
5485.15373	0.01004
5483.22505	0.01005
5481.29638	0.01006
5479.36770	0.01008
5477.43902	0.01010
5475.51035	0.01009
5473.58167	0.01011
5471.65300	0.01014
5469.72432	0.01017
5467.79565	0.01018
5465.86697	0.01020
5463.93829	0.01022
5462.00962	0.01023
5460.08094	0.01025
5458.15227	0.01028
5456.22359	0.01031
5454.29492	0.01033
5452.36624	0.01034
5450.43756	0.01037
5448.50889	0.01040
5446.58021	0.01041
5444.65154	0.01040
5442.72286	0.01041
5440.79419	0.01043
5438.86551	0.01046
5436.93683	0.01048
5435.00816	0.01051
5433.07948	0.01051
5431.15081	0.01050
5429.22213	0.01051
5427.29346	0.01055
5425.36478	0.01060
5423.43610	0.01064
5421.50743	0.01065
5419.57875	0.01064
5417.65008	0.01064
5415.72140	0.01065
5413.79273	0.01068
5411.86405	0.01072
5409.93537	0.01076
5408.00670	0.01079
5406.07802	0.01081
5404.14935	0.01083
5402.22067	0.01084
5400.29200	0.01085
5398.36332	0.01085
5396.43464	0.01085
5394.50597	0.01087
5392.57729	0.01090
5390.64862	0.01095
5388.71994	0.01097
5386.79127	0.01100
5384.86259	0.01103
5382.93391	0.01105
5381.00524	0.01106
5379.07656	0.01107
5377.14789	0.01109
5375.21921	0.01112
5373.29054	0.01116
5371.36186	0.01119
5369.43318	0.01122
5367.50451	0.01125
5365.57583	0.01124
5363.64716	0.01123
5361.71848	0.01125
5359.78981	0.01128
5357.86113	0.01132
5355.93245	0.01133
5354.00378	0.01134
5352.07510	0.01137
5350.14643	0.01142
5348.21775	0.01145
5346.28908	0.01145
5344.36040	0.01145
5342.43172	0.01147
5340.50305	0.01150
5338.57437	0.01151
5336.64570	0.01154
5334.71702	0.01157
5332.78835	0.01159
5330.85967	0.01159
5328.93099	0.01159
5327.00232	0.01159
5325.07364	0.01163
5323.14497	0.01166
5321.21629	0.01170
5319.28762	0.01173
5317.35894	0.01176
5315.43026	0.01178
5313.50159	0.01180
5311.57291	0.01181
5309.64424	0.01181
5307.71556	0.01181
5305.78689	0.01184
5303.85821	0.01188
5301.92953	0.01191
5300.00086	0.01193
5298.07218	0.01196
5296.14351	0.01199
5294.21483	0.01198
5292.28616	0.01197
5290.35748	0.01200
5288.42880	0.01204
5286.50013	0.01207
5284.57145	0.01208
5282.64278	0.01209
5280.71410	0.01211
5278.78543	0.01215
5276.85675	0.01219
5274.92807	0.01222
5272.99940	0.01223
5271.07072	0.01224
5269.14205	0.01226
5267.21337	0.01229
5265.28470	0.01232
5263.35602	0.01232
5261.42734	0.01232
5259.49867	0.01235
5257.56999	0.01239
5255.64132	0.01241
5253.71264	0.01244
5251.78397	0.01248
5249.85529	0.01248
5247.92661	0.01248
5245.99794	0.01250
5244.06926	0.01254
5242.14059	0.01258
5240.21191	0.01261
5238.28324	0.01263
5236.35456	0.01266
5234.42588	0.01269
5232.49721	0.01270
5230.56853	0.01270
5228.63986	0.01271
5226.71118	0.01272
5224.78251	0.01274
5222.85383	0.01277
5220.92515	0.01279
5218.99648	0.01280
5217.06780	0.01282
5215.13913	0.01287
5213.21045	0.01291
5211.28178	0.01293
5209.35310	0.01294
5207.42442	0.01294
5205.49575	0.01295
5203.56707	0.01298
5201.63840	0.01302
5199.70972	0.01305
5197.78105	0.01306
5195.85237	0.01307
5193.92369	0.01310
5191.99502	0.01314
5190.06634	0.01317
5188.13767	0.01319
5186.20899	0.01322
5184.28032	0.01324
5182.35164	0.01327
5180.42296	0.01329
5178.49429	0.01331
5176.56561	0.01332
5174.63694	0.01333
5172.70826	0.01335
5170.77959	0.01338
5168.85091	0.01341
5166.92223	0.01344
5164.99356	0.01346
5163.06488	0.01349
5161.13621	0.01351
5159.20753	0.01353
5157.27886	0.01356
5155.35018	0.01360
5153.42150	0.01363
5151.49283	0.01364
5149.56415	0.01365
5147.63548	0.01367
5145.70680	0.01369
5143.77813	0.01370
5141.84945	0.01371
5139.92077	0.01372
5137.99210	0.01373
5136.06342	0.01376
5134.13475	0.01382
5132.20607	0.01386
5130.27740	0.01387
5128.34872	0.01388
5126.42004	0.01389
5124.49137	0.01391
5122.56269	0.01394
5120.63402	0.01397
5118.70534	0.01401
5116.77667	0.01406
5114.84799	0.01408
5112.91931	0.01408
5110.99064	0.01411
5109.06196	0.01414
5107.13329	0.01415
5105.20461	0.01415
5103.27594	0.01417
5101.34726	0.01422
5099.41858	0.01427
5097.48991	0.01430
5095.56123	0.01430
5093.63256	0.01431
5091.70388	0.01433
5089.77521	0.01437
5087.84653	0.01442
5085.91785	0.01444
5083.98918	0.01445
5082.06050	0.01445
5080.13183	0.01447
5078.20315	0.01450
5076.27448	0.01454
5074.34580	0.01457
5072.41712	0.01460
5070.48845	0.01463
5068.55977	0.01465
5066.63110	0.01466
5064.70242	0.01468
5062.77375	0.01469
5060.84507	0.01470
5058.91639	0.01472
5056.98772	0.01475
5055.05904	0.01476
5053.13037	0.01478
5051.20169	0.01481
5049.27302	0.01485
5047.34434	0.01488
5045.41566	0.01492
5043.48699	0.01495
5041.55831	0.01497
5039.62964	0.01500
5037.70096	0.01503
5035.77229	0.01504
5033.84361	0.01505
5031.91493	0.01506
5029.98626	0.01508
5028.05758	0.01512
5026.12891	0.01515
5024.20023	0.01517
5022.27156	0.01520
5020.34288	0.01523
5018.41420	0.01525
5016.48553	0.01527
5014.55685	0.01529
5012.62818	0.01532
5010.69950	0.01534
5008.77083	0.01536
5006.84215	0.01539
5004.91347	0.01543
5002.98480	0.01545
5001.05612	0.01548
4999.12745	0.01551
4997.19877	0.01554
4995.27010	0.01555
4993.34142	0.01557
4991.41274	0.01560
4989.48407	0.01564
4987.55539	0.01566
4985.62672	0.01567
4983.69804	0.01568
4981.76937	0.01570
4979.84069	0.01574
4977.91201	0.01577
4975.98334	0.01580
4974.05466	0.01582
4972.12599	0.01585
4970.19731	0.01588
4968.26864	0.01590
4966.33996	0.01592
4964.41128	0.01595
4962.48261	0.01598
4960.55393	0.01601
4958.62526	0.01605
4956.69658	0.01606
4954.76791	0.01607
4952.83923	0.01610
4950.91055	0.01614
4948.98188	0.01617
4947.05320	0.01620
4945.12453	0.01622
4943.19585	0.01625
4941.26718	0.01629
4939.33850	0.01632
4937.40982	0.01634
4935.48115	0.01635
4933.55247	0.01636
4931.62380	0.01638
4929.69512	0.01641
4927.76645	0.01646
4925.83777	0.01651
4923.90909	0.01653
4921.98042	0.01653
4920.05174	0.01654
4918.12307	0.01657
4916.19439	0.01661
4914.26572	0.01665
4912.33704	0.01667
4910.40836	0.01669
4908.47969	0.01674
4906.55101	0.01678
4904.62234	0.01680
4902.69366	0.01681
4900.76499	0.01682
4898.83631	0.01683
4896.90763	0.01685
4894.97896	0.01688
4893.05028	0.01691
4891.12161	0.01695
4889.19293	0.01698
4887.26426	0.01702
4885.33558	0.01705
4883.40690	0.01707
4881.47823	0.01710
4879.54955	0.01714
4877.62088	0.01717
4875.69220	0.01718
4873.76353	0.01718
4871.83485	0.01720
4869.90617	0.01726
4867.97750	0.01729
4866.04882	0.01731
4864.12015	0.01733
4862.19147	0.01737
4860.26280	0.01740
4858.33412	0.01742
4856.40544	0.01744
4854.47677	0.01746
4852.54809	0.01747
4850.61942	0.01750
4848.69074	0.01754
4846.76207	0.01756
4844.83339	0.01757
4842.90471	0.01760
4840.97604	0.01764
4839.04736	0.01769
4837.11869	0.01773
4835.19001	0.01776
4833.26134	0.01777
4831.33266	0.01779
4829.40398	0.01783
4827.47531	0.01787
4825.54663	0.01790
4823.61796	0.01791
4821.68928	0.01794
4819.76061	0.01797
4817.83193	0.01801
4815.90325	0.01803
4813.97458	0.01803
4812.04590	0.01804
4810.11723	0.01806
4808.18855	0.01811
4806.25988	0.01816
4804.33120	0.01821
4802.40252	0.01826
4800.47385	0.01829
4798.54517	0.01830
4796.61650	0.01832
4794.68782	0.01834
4792.75915	0.01835
4790.83047	0.01837
4788.90179	0.01838
4786.97312	0.01840
4785.04444	0.01844
4783.11577	0.01849
4781.18709	0.01855
4779.25842	0.01860
4777.32974	0.01863
4775.40106	0.01864
4773.47239	0.01866
4771.54371	0.01870
4769.61504	0.01875
4767.68636	0.01877
4765.75769	0.01879
4763.82901	0.01881
4761.90033	0.01884
4759.97166	0.01886
4758.04298	0.01888
4756.11431	0.01889
4754.18563	0.01890
4752.25696	0.01892
4750.32828	0.01897
4748.39960	0.01905
4746.47093	0.01912
4744.54225	0.01917
4742.61358	0.01919
4740.68490	0.01919
4738.75623	0.01919
4736.82755	0.01920
4734.89887	0.01925
4732.97020	0.01930
4731.04152	0.01933
4729.11285	0.01935
4727.18417	0.01937
4725.25550	0.01940
4723.32682	0.01942
4721.39814	0.01944
4719.46947	0.01947
4717.54079	0.01951
4715.61212	0.01955
4713.68344	0.01959
4711.75477	0.01961
4709.82609	0.01963
4707.89741	0.01966
4705.96874	0.01969
4704.04006	0.01973
4702.11139	0.01978
4700.18271	0.01983
4698.25404	0.01985
4696.32536	0.01987
4694.39668	0.01992
4692.46801	0.01999
4690.53933	0.02002
4688.61066	0.02003
4686.68198	0.02005
4684.75331	0.02008
4682.82463	0.02008
4680.89595	0.02010
4678.96728	0.02013
4677.03860	0.02019
4675.10993	0.02026
4673.18125	0.02031
4671.25258	0.02034
4669.32390	0.02036
4667.39522	0.02037
4665.46655	0.02038
4663.53787	0.02041
4661.60920	0.02045
4659.68052	0.02048
4657.75185	0.02049
4655.82317	0.02052
4653.89449	0.02058
4651.96582	0.02065
4650.03714	0.02069
4648.10847	0.02073
4646.17979	0.02076
4644.25112	0.02078
4642.32244	0.02080
4640.39376	0.02085
4638.46509	0.02090
4636.53641	0.02093
4634.60774	0.02094
4632.67906	0.02095
4630.75039	0.02098
4628.82171	0.02100
4626.89303	0.02102
4624.96436	0.02106
4623.03568	0.02111
4621.10701	0.02115
4619.17833	0.02119
4617.24966	0.02123
4615.32098	0.02128
4613.39230	0.02132
4611.46363	0.02135
4609.53495	0.02137
4607.60628	0.02138
4605.67760	0.02142
4603.74893	0.02147
4601.82025	0.02153
4599.89157	0.02158
4597.96290	0.02161
4596.03422	0.02163
4594.10555	0.02166
4592.17687	0.02169
4590.24820	0.02172
4588.31952	0.02175
4586.39084	0.02181
4584.46217	0.02186
4582.53349	0.02188
4580.60482	0.02189
4578.67614	0.02191
4576.74747	0.02196
4574.81879	0.02200
4572.89011	0.02203
4570.96144	0.02206
4569.03276	0.02210
4567.10409	0.02213
4565.17541	0.02216
4563.24674	0.02220
4561.31806	0.02224
4559.38938	0.02229
4557.46071	0.02234
4555.53203	0.02237
4553.60336	0.02241
4551.67468	0.02244
4549.74601	0.02247
4547.81733	0.02252
4545.88865	0.02256
4543.95998	0.02258
4542.03130	0.02262
4540.10263	0.02268
4538.17395	0.02273
4536.24528	0.02276
4534.31660	0.02280
4532.38792	0.02284
4530.45925	0.02288
4528.53057	0.02290
4526.60190	0.02292
4524.67322	0.02298
4522.74455	0.02303
4520.81587	0.02306
4518.88719	0.02307
4516.95852	0.02310
4515.02984	0.02316
4513.10117	0.02321
4511.17249	0.02325
4509.24382	0.02331
4507.31514	0.02336
4505.38646	0.02340
4503.45779	0.02342
4501.52911	0.02345
4499.60044	0.02352
4497.67176	0.02359
4495.74309	0.02364
4493.81441	0.02367
4491.88573	0.02371
4489.95706	0.02373
4488.02838	0.02374
4486.09971	0.02376
4484.17103	0.02378
4482.24236	0.02380
4480.31368	0.02387
4478.38500	0.02396
4476.45633	0.02404
4474.52765	0.02408
4472.59898	0.02409
4470.67030	0.02411
4468.74163	0.02414
4466.81295	0.02419
4464.88427	0.02424
4462.95560	0.02428
4461.02692	0.02430
4459.09825	0.02432
4457.16957	0.02434
4455.24090	0.02439
4453.31222	0.02447
4451.38354	0.02453
4449.45487	0.02457
4447.52619	0.02458
4445.59752	0.02462
4443.66884	0.02468
4441.74017	0.02474
4439.81149	0.02478
4437.88281	0.02480
4435.95414	0.02484
4434.02546	0.02488
4432.09679	0.02492
4430.16811	0.02496
4428.23944	0.02500
4426.31076	0.02506
4424.38208	0.02511
4422.45341	0.02515
4420.52473	0.02519
4418.59606	0.02523
4416.66738	0.02528
4414.73871	0.02530
4412.81003	0.02532
4410.88135	0.02537
4408.95268	0.02544
4407.02400	0.02550
4405.09533	0.02556
4403.16665	0.02562
4401.23798	0.02568
4399.30930	0.02572
4397.38062	0.02574
4395.45195	0.02577
4393.52327	0.02581
4391.59460	0.02586
4389.66592	0.02591
4387.73725	0.02595
4385.80857	0.02600
4383.87989	0.02604
4381.95122	0.02607
4380.02254	0.02612
4378.09387	0.02618
4376.16519	0.02623
4374.23652	0.02628
4372.30784	0.02634
4370.37916	0.02642
4368.45049	0.02646
4366.52181	0.02648
4364.59314	0.02651
4362.66446	0.02655
4360.73579	0.02660
4358.80711	0.02664
4356.87843	0.02669
4354.94976	0.02676
4353.02108	0.02682
4351.09241	0.02686
4349.16373	0.02689
4347.23506	0.02692
4345.30638	0.02696
4343.37770	0.02702
4341.44903	0.02708
4339.52035	0.02712
4337.59168	0.02716
4335.66300	0.02721
4333.73433	0.02726
4331.80565	0.02730
4329.87697	0.02735
4327.94830	0.02742
4326.01962	0.02749
4324.09095	0.02754
4322.16227	0.02757
4320.23360	0.02762
4318.30492	0.02769
4316.37624	0.02777
4314.44757	0.02783
4312.51889	0.02786
4310.59022	0.02790
4308.66154	0.02795
4306.73287	0.02798
4304.80419	0.02801
4302.87551	0.02808
4300.94684	0.02817
4299.01816	0.02821
4297.08949	0.02823
4295.16081	0.02828
4293.23214	0.02836
4291.30346	0.02844
4289.37478	0.02850
4287.44611	0.02853
4285.51743	0.02857
4283.58876	0.02864
4281.66008	0.02871
4279.73141	0.02877
4277.80273	0.02881
4275.87405	0.02883
4273.94538	0.02887
4272.01670	0.02894
4270.08803	0.02899
4268.15935	0.02902
4266.23068	0.02906
4264.30200	0.02912
4262.37332	0.02919
4260.44465	0.02924
4258.51597	0.02927
4256.58730	0.02930
4254.65862	0.02936
4252.72995	0.02944
4250.80127	0.02950
4248.87259	0.02955
4246.94392	0.02960
4245.01524	0.02966
4243.08657	0.02973
4241.15789	0.02978
4239.22922	0.02982
4237.30054	0.02988
4235.37186	0.02996
4233.44319	0.03002
4231.51451	0.03007
4229.58584	0.03013
4227.65716	0.03018
4225.72849	0.03023
4223.79981	0.03027
4221.87113	0.03030
4219.94246	0.03034
4218.01378	0.03040
4216.08511	0.03046
4214.15643	0.03050
4212.22776	0.03055
4210.29908	0.03064
4208.37040	0.03073
4206.44173	0.03080
4204.51305	0.03084
4202.58438	0.03089
4200.65570	0.03094
4198.72703	0.03098
4196.79835	0.03103
4194.86968	0.03109
4192.94100	0.03115
4191.01232	0.03121
4189.08365	0.03128
4187.15497	0.03135
4185.22630	0.03142
4183.29762	0.03149
4181.36895	0.03154
4179.44027	0.03159
4177.51159	0.03165
4175.58292	0.03171
4173.65424	0.03177
4171.72557	0.03185
4169.79689	0.03194
4167.86822	0.03201
4165.93954	0.03205
4164.01086	0.03208
4162.08219	0.03211
4160.15351	0.03215
4158.22484	0.03220
4156.29616	0.03227
4154.36749	0.03235
4152.43881	0.03243
4150.51013	0.03250
4148.58146	0.03257
4146.65278	0.03263
4144.72411	0.03267
4142.79543	0.03271
4140.86676	0.03275
4138.93808	0.03282
4137.00940	0.03291
4135.08073	0.03301
4133.15205	0.03307
4131.22338	0.03311
4129.29470	0.03316
4127.36603	0.03322
4125.43735	0.03328
4123.50867	0.03334
4121.58000	0.03341
4119.65132	0.03348
4117.72265	0.03355
4115.79397	0.03362
4113.86530	0.03370
4111.93662	0.03377
4110.00794	0.03383
4108.07927	0.03388
4106.15059	0.03392
4104.22192	0.03396
4102.29324	0.03403
4100.36457	0.03409
4098.43589	0.03413
4096.50721	0.03420
4094.57854	0.03429
4092.64986	0.03437
4090.72119	0.03442
4088.79251	0.03446
4086.86384	0.03452
4084.93516	0.03461
4083.00648	0.03471
4081.07781	0.03477
4079.14913	0.03481
4077.22046	0.03486
4075.29178	0.03495
4073.36311	0.03504
4071.43443	0.03508
4069.50575	0.03510
4067.57708	0.03516
4065.64840	0.03524
4063.71973	0.03533
4061.79105	0.03542
4059.86238	0.03551
4057.93370	0.03558
4056.00502	0.03565
4054.07635	0.03572
4052.14767	0.03581
4050.21900	0.03590
4048.29032	0.03595
4046.36165	0.03598
4044.43297	0.03602
4042.50429	0.03609
4040.57562	0.03615
4038.64694	0.03621
4036.71827	0.03625
4034.78959	0.03632
4032.86092	0.03642
4030.93224	0.03655
4029.00356	0.03663
4027.07489	0.03667
4025.14621	0.03671
4023.21754	0.03678
4021.28886	0.03687
4019.36019	0.03694
4017.43151	0.03702
4015.50283	0.03709
4013.57416	0.03716
4011.64548	0.03724
4009.71681	0.03730
4007.78813	0.03735
4005.85946	0.03739
4003.93078	0.03743
4002.00210	0.03750
4000.07343	0.03760
3998.14475	0.03769
3996.21608	0.03777
3994.28740	0.03783
3992.35873	0.03790
3990.43005	0.03797
3988.50137	0.03805
3986.57270	0.03813
3984.64402	0.03821
3982.71535	0.03826
3980.78667	0.03833
3978.85800	0.03842
3976.92932	0.03849
3975.00064	0.03856
3973.07197	0.03863
3971.14329	0.03869
3969.21462	0.03876
3967.28594	0.03886
3965.35727	0.03894
3963.42859	0.03901
3961.49991	0.03908
3959.57124	0.03914
3957.64256	0.03920
3955.71389	0.03927
3953.78521	0.03935
3951.85654	0.03942
3949.92786	0.03946
3947.99918	0.03952
3946.07051	0.03960
3944.14183	0.03965
3942.21316	0.03971
3940.28448	0.03983
3938.35581	0.03994
3936.42713	0.04001
3934.49845	0.04003
3932.56978	0.04006
3930.64110	0.04016
3928.71243	0.04028
3926.78375	0.04034
3924.85508	0.04038
3922.92640	0.04047
3920.99772	0.04053
3919.06905	0.04056
3917.14037	0.04062
3915.21170	0.04076
3913.28302	0.04091
3911.35435	0.04101
3909.42567	0.04106
3907.49699	0.04104
3905.56832	0.04094
3903.63964	0.04089
3901.71097	0.04097
3899.78229	0.04115
3897.85362	0.04138
3895.92494	0.04156
3893.99626	0.04165
3892.06759	0.04169
3890.13891	0.04175
3888.21024	0.04174
3886.28156	0.04172
3884.35289	0.04182
3882.42421	0.04196
3880.49553	0.04205
3878.56686	0.04218
3876.63818	0.04227
3874.70951	0.04229
3872.78083	0.04231
3870.85216	0.04234
3868.92348	0.04244
3866.99480	0.04260
3865.06613	0.04269
3863.13745	0.04276
3861.20878	0.04291
3859.28010	0.04305
3857.35143	0.04298
3855.42275	0.04273
3853.49407	0.04267
3851.56540	0.04299
3849.63672	0.04338
3847.70805	0.04360
3845.77937	0.04365
3843.85070	0.04364
3841.92202	0.04364
3839.99334	0.04367
3838.06467	0.04376
3836.13599	0.04387
3834.20732	0.04398
3832.27864	0.04411
3830.34997	0.04425
3828.42129	0.04436
3826.49261	0.04442
3824.56394	0.04443
3822.63526	0.04436
3820.70659	0.04439
3818.77791	0.04457
3816.84924	0.04473
3814.92056	0.04491
3812.99188	0.04513
3811.06321	0.04524
3809.13453	0.04522
3807.20586	0.04519
3805.27718	0.04523
3803.34851	0.04526
3801.41983	0.04532
3799.49115	0.04550
3797.56248	0.04567
3795.63380	0.04579
3793.70513	0.04592
3791.77645	0.04604
3789.84778	0.04613
3787.91910	0.04620
3785.99042	0.04626
3784.06175	0.04635
3782.13307	0.04641
3780.20440	0.04644
3778.27572	0.04654
3776.34705	0.04673
3774.41837	0.04688
3772.48969	0.04693
3770.56102	0.04694
3768.63234	0.04700
3766.70367	0.04709
3764.77499	0.04719
3762.84632	0.04726
3760.91764	0.04725
3758.98896	0.04727
3757.06029	0.04736
3755.13161	0.04736
3753.20294	0.04721
3751.27426	0.04712
3749.34559	0.04726
3747.41691	0.04735
3745.48823	0.04726
3743.55956	0.04740
3741.63088	0.04782
3739.70221	0.04803
3737.77353	0.04794
3735.84486	0.04790
3733.91618	0.04810
3731.98750	0.04841
3730.05883	0.04865
3728.13015	0.04873
3726.20148	0.04873
3724.27280	0.04877
3722.34413	0.04888
3720.41545	0.04904
3718.48677	0.04919
3716.55810	0.04929
3714.62942	0.04931
3712.70075	0.04930
3710.77207	0.04935
3708.84340	0.04954
3706.91472	0.04977
3704.98604	0.04989
3703.05737	0.04990
3701.12869	0.04997
3699.20002	0.05011
3697.27134	0.05024
3695.34267	0.05031
3693.41399	0.05029
3691.48531	0.05019
3689.55664	0.05022
3687.62796	0.05044
3685.69929	0.05071
3683.77061	0.05087
3681.84194	0.05090
3679.91326	0.05088
3677.98458	0.05076
3676.05591	0.05066
3674.12723	0.05078
3672.19856	0.05099
3670.26988	0.05112
3668.34121	0.05132
3666.41253	0.05160
3664.48385	0.05178
3662.55518	0.05187
3660.62650	0.05190
3658.69783	0.05185
3656.76915	0.05181
3654.84048	0.05189
3652.91180	0.05189
3650.98312	0.05170
3649.05445	0.05157
3647.12577	0.05175
3645.19710	0.05211
3643.26842	0.05241
3641.33975	0.05256
3639.41107	0.05263
3637.48239	0.05267
3635.55372	0.05270
3633.62504	0.05271
3631.69637	0.05261
3629.76769	0.05251
3627.83902	0.05268
3625.91034	0.05301
3623.98166	0.05320
3622.05299	0.05319
3620.12431	0.05310
3618.19564	0.05310
3616.26696	0.05317
3614.33829	0.05324
3612.40961	0.05331
3610.48093	0.05337
3608.55226	0.05343
3606.62358	0.05357
3604.69491	0.05375
3602.76623	0.05386
3600.83756	0.05390
3598.90888	0.05394
3596.98020	0.05399
3595.05153	0.05405
3593.12285	0.05414
3591.19418	0.05414
3589.26550	0.05403
3587.33683	0.05406
3585.40815	0.05432
3583.47947	0.05455
3581.55080	0.05467
3579.62212	0.05474
3577.69345	0.05482
3575.76477	0.05489
3573.83610	0.05495
3571.90742	0.05496
3569.97874	0.05485
3568.05007	0.05473
3566.12139	0.05483
3564.19272	0.05509
3562.26404	0.05528
3560.33537	0.05536
3558.40669	0.05544
3556.47801	0.05554
3554.54934	0.05562
3552.62066	0.05568
3550.69199	0.05574
3548.76331	0.05574
3546.83464	0.05570
3544.90596	0.05575
3542.97728	0.05590
3541.04861	0.05605
3539.11993	0.05613
3537.19126	0.05616
3535.26258	0.05621
3533.33391	0.05626
3531.40523	0.05629
3529.47655	0.05630
3527.54788	0.05631
3525.61920	0.05633
3523.69053	0.05639
3521.76185	0.05647
3519.83318	0.05652
3517.90450	0.05657
3515.97582	0.05663
3514.04715	0.05667
3512.11847	0.05669
3510.18980	0.05673
3508.26112	0.05678
3506.33245	0.05681
3504.40377	0.05682
3502.47509	0.05686
3500.54642	0.05694
3498.61774	0.05699
3496.68907	0.05700
3494.76039	0.05702
3492.83172	0.05705
3490.90304	0.05706
3488.97436	0.05706
3487.04569	0.05708
3485.11701	0.05712
3483.18834	0.05716
3481.25966	0.05721
3479.33099	0.05729
3477.40231	0.05737
3475.47363	0.05745
3473.54496	0.05752
3471.61628	0.05758
3469.68761	0.05765
3467.75893	0.05775
3465.83026	0.05786
3463.90158	0.05797
3461.97290	0.05804
3460.04423	0.05812
3458.11555	0.05822
3456.18688	0.05832
3454.25820	0.05839
3452.32953	0.05845
3450.40085	0.05853
3448.47217	0.05860
3446.54350	0.05869
3444.61482	0.05881
3442.68615	0.05892
3440.75747	0.05904
3438.82880	0.05920
3436.90012	0.05937
3434.97144	0.05953
3433.04277	0.05970
3431.11409	0.05987
3429.18542	0.06006
3427.25674	0.06026
3425.32807	0.06044
3423.39939	0.06060
3421.47071	0.06077
3419.54204	0.06093
3417.61336	0.06108
3415.68469	0.06123
3413.75601	0.06138
3411.82734	0.06151
3409.89866	0.06163
3407.96998	0.06173
3406.04131	0.06184
3404.11263	0.06199
3402.18396	0.06214
3400.25528	0.06226
3398.32661	0.06237
3396.39793	0.06250
3394.46925	0.06264
3392.54058	0.06277
3390.61190	0.06290
3388.68323	0.06304
3386.75455	0.06316
3384.82588	0.06328
3382.89720	0.06343
3380.96852	0.06357
3379.03985	0.06370
3377.11117	0.06382
3375.18250	0.06394
3373.25382	0.06406
3371.32515	0.06418
3369.39647	0.06430
3367.46779	0.06441
3365.53912	0.06452
3363.61044	0.06462
3361.68177	0.06472
3359.75309	0.06484
3357.82442	0.06498
3355.89574	0.06511
3353.96706	0.06525
3352.03839	0.06538
3350.10971	0.06549
3348.18104	0.06557
3346.25236	0.06566
3344.32369	0.06578
3342.39501	0.06590
3340.46633	0.06601
3338.53766	0.06613
3336.60898	0.06626
3334.68031	0.06639
3332.75163	0.06654
3330.82296	0.06668
3328.89428	0.06680
3326.96560	0.06692
3325.03693	0.06704
3323.10825	0.06716
3321.17958	0.06728
3319.25090	0.06740
3317.32223	0.06751
3315.39355	0.06762
3313.46487	0.06775
3311.53620	0.06788
3309.60752	0.06798
3307.67885	0.06807
3305.75017	0.06817
3303.82150	0.06828
3301.89282	0.06841
3299.96414	0.06856
3298.03547	0.06871
3296.10679	0.06887
3294.17812	0.06903
3292.24944	0.06917
3290.32077	0.06929
3288.39209	0.06940
3286.46341	0.06953
3284.53474	0.06966
3282.60606	0.06979
3280.67739	0.06992
3278.74871	0.07004
3276.82004	0.07015
3274.89136	0.07026
3272.96268	0.07037
3271.03401	0.07050
3269.10533	0.07062
3267.17666	0.07076
3265.24798	0.07090
3263.31931	0.07104
3261.39063	0.07116
3259.46195	0.07127
3257.53328	0.07138
3255.60460	0.07151
3253.67593	0.07165
3251.74725	0.07179
3249.81858	0.07192
3247.88990	0.07205
3245.96122	0.07220
3244.03255	0.07233
3242.10387	0.07245
3240.17520	0.07256
3238.24652	0.07268
3236.31785	0.07279
3234.38917	0.07290
3232.46049	0.07302
3230.53182	0.07315
3228.60314	0.07329
3226.67447	0.07344
3224.74579	0.07359
3222.81712	0.07374
3220.88844	0.07386
3218.95976	0.07397
3217.03109	0.07409
3215.10241	0.07422
3213.17374	0.07434
3211.24506	0.07444
3209.31639	0.07455
3207.38771	0.07466
3205.45903	0.07480
3203.53036	0.07497
3201.60168	0.07512
3199.67301	0.07526
3197.74433	0.07542
3195.81566	0.07560
3193.88698	0.07576
3191.95830	0.07591
3190.02963	0.07605
3188.10095	0.07615
3186.17228	0.07623
3184.24360	0.07636
3182.31493	0.07653
3180.38625	0.07667
3178.45757	0.07680
3176.52890	0.07692
3174.60022	0.07703
3172.67155	0.07714
3170.74287	0.07729
3168.81420	0.07745
3166.88552	0.07760
3164.95684	0.07772
3163.02817	0.07784
3161.09949	0.07798
3159.17082	0.07813
3157.24214	0.07825
3155.31347	0.07836
3153.38479	0.07848
3151.45611	0.07863
3149.52744	0.07880
3147.59876	0.07894
3145.67009	0.07905
3143.74141	0.07915
3141.81274	0.07927
3139.88406	0.07942
3137.95538	0.07958
3136.02671	0.07973
3134.09803	0.07986
3132.16936	0.07998
3130.24068	0.08011
3128.31201	0.08024
3126.38333	0.08038
3124.45465	0.08053
3122.52598	0.08065
3120.59730	0.08076
3118.66863	0.08089
3116.73995	0.08103
3114.81128	0.08118
3112.88260	0.08133
3110.95392	0.08146
3109.02525	0.08155
3107.09657	0.08168
3105.16790	0.08186
3103.23922	0.08204
3101.31055	0.08218
3099.38187	0.08230
3097.45319	0.08239
3095.52452	0.08250
3093.59584	0.08262
3091.66717	0.08273
3089.73849	0.08288
3087.80982	0.08305
3085.88114	0.08319
3083.95246	0.08331
3082.02379	0.08345
3080.09511	0.08358
3078.16644	0.08366
3076.23776	0.08372
3074.30909	0.08387
3072.38041	0.08406
3070.45173	0.08423
3068.52306	0.08436
3066.59438	0.08449
3064.66571	0.08461
3062.73703	0.08473
3060.80836	0.08485
3058.87968	0.08500
3056.95100	0.08515
3055.02233	0.08529
3053.09365	0.08543
3051.16498	0.08557
3049.23630	0.08569
3047.30763	0.08582
3045.37895	0.08595
3043.45027	0.08608
3041.52160	0.08623
3039.59292	0.08639
3037.66425	0.08652
3035.73557	0.08660
3033.80690	0.08669
3031.87822	0.08681
3029.94954	0.08695
3028.02087	0.08711
3026.09219	0.08729
3024.16352	0.08743
3022.23484	0.08756
3020.30617	0.08771
3018.37749	0.08786
3016.44881	0.08795
3014.52014	0.08802
3012.59146	0.08814
3010.66279	0.08827
3008.73411	0.08840
3006.80544	0.08853
3004.87676	0.08867
3002.94808	0.08883
3001.01941	0.08899
2999.09073	0.08913
2997.16206	0.08926
2995.23338	0.08939
2993.30471	0.08950
2991.37603	0.08960
2989.44735	0.08970
2987.51868	0.08982
2985.59000	0.08994
2983.66133	0.09004
2981.73265	0.09011
2979.80398	0.09017
2977.87530	0.09022
2975.94662	0.09028
2974.01795	0.09032
2972.08927	0.09034
2970.16060	0.09031
2968.23192	0.09027
2966.30325	0.09026
2964.37457	0.09031
2962.44589	0.09039
2960.51722	0.09050
2958.58854	0.09063
2956.65987	0.09079
2954.73119	0.09099
2952.80252	0.09119
2950.87384	0.09137
2948.94516	0.09153
2947.01649	0.09167
2945.08781	0.09178
2943.15914	0.09185
2941.23046	0.09187
2939.30179	0.09186
2937.37311	0.09185
2935.44443	0.09185
2933.51576	0.09186
2931.58708	0.09185
2929.65841	0.09183
2927.72973	0.09182
2925.80106	0.09180
2923.87238	0.09178
2921.94370	0.09179
2920.01503	0.09186
2918.08635	0.09201
2916.15768	0.09227
2914.22900	0.09265
2912.30033	0.09309
2910.37165	0.09348
2908.44297	0.09383
2906.51430	0.09411
2904.58562	0.09434
2902.65695	0.09455
2900.72827	0.09476
2898.79960	0.09495
2896.87092	0.09517
2894.94224	0.09538
2893.01357	0.09556
2891.08489	0.09571
2889.15622	0.09586
2887.22754	0.09603
2885.29887	0.09621
2883.37019	0.09638
2881.44151	0.09651
2879.51284	0.09664
2877.58416	0.09680
2875.65549	0.09695
2873.72681	0.09707
2871.79814	0.09717
2869.86946	0.09726
2867.94078	0.09738
2866.01211	0.09752
2864.08343	0.09763
2862.15476	0.09769
2860.22608	0.09771
2858.29741	0.09772
2856.36873	0.09772
2854.44005	0.09773
2852.51138	0.09772
2850.58270	0.09779
2848.65403	0.09804
2846.72535	0.09847
2844.79668	0.09892
2842.86800	0.09931
2840.93932	0.09961
2839.01065	0.09985
2837.08197	0.10008
2835.15330	0.10030
2833.22462	0.10051
2831.29595	0.10068
2829.36727	0.10084
2827.43859	0.10098
2825.50992	0.10110
2823.58124	0.10123
2821.65257	0.10141
2819.72389	0.10160
2817.79522	0.10174
2815.86654	0.10186
2813.93786	0.10201
2812.00919	0.10218
2810.08051	0.10235
2808.15184	0.10250
2806.22316	0.10265
2804.29449	0.10278
2802.36581	0.10291
2800.43713	0.10304
2798.50846	0.10319
2796.57978	0.10331
2794.65111	0.10344
2792.72243	0.10362
2790.79376	0.10381
2788.86508	0.10396
2786.93640	0.10411
2785.00773	0.10427
2783.07905	0.10444
2781.15038	0.10460
2779.22170	0.10477
2777.29303	0.10492
2775.36435	0.10502
2773.43567	0.10512
2771.50700	0.10527
2769.57832	0.10544
2767.64965	0.10558
2765.72097	0.10570
2763.79230	0.10581
2761.86362	0.10595
2759.93494	0.10609
2758.00627	0.10625
2756.07759	0.10640
2754.14892	0.10654
2752.22024	0.10667
2750.29157	0.10681
2748.36289	0.10698
2746.43421	0.10714
2744.50554	0.10727
2742.57686	0.10737
2740.64819	0.10749
2738.71951	0.10765
2736.79084	0.10781
2734.86216	0.10791
2732.93348	0.10801
2731.00481	0.10815
2729.07613	0.10831
2727.14746	0.10844
2725.21878	0.10857
2723.29011	0.10876
2721.36143	0.10896
2719.43275	0.10909
2717.50408	0.10920
2715.57540	0.10933
2713.64673	0.10947
2711.71805	0.10959
2709.78938	0.10971
2707.86070	0.10985
2705.93202	0.10998
2704.00335	0.11009
2702.07467	0.11022
2700.14600	0.11037
2698.21732	0.11048
2696.28865	0.11058
2694.35997	0.11073
2692.43129	0.11088
2690.50262	0.11103
2688.57394	0.11119
2686.64527	0.11135
2684.71659	0.11150
2682.78792	0.11164
2680.85924	0.11178
2678.93056	0.11193
2677.00189	0.11208
2675.07321	0.11223
2673.14454	0.11237
2671.21586	0.11251
2669.28719	0.11264
2667.35851	0.11273
2665.42983	0.11279
2663.50116	0.11288
2661.57248	0.11303
2659.64381	0.11320
2657.71513	0.11335
2655.78646	0.11350
2653.85778	0.11370
2651.92910	0.11388
2650.00043	0.11403
2648.07175	0.11417
2646.14308	0.11432
2644.21440	0.11444
2642.28573	0.11458
2640.35705	0.11476
2638.42837	0.11496
2636.49970	0.11512
2634.57102	0.11525
2632.64235	0.11539
2630.71367	0.11553
2628.78500	0.11566
2626.85632	0.11581
2624.92764	0.11597
2622.99897	0.11613
2621.07029	0.11629
2619.14162	0.11646
2617.21294	0.11663
2615.28427	0.11676
2613.35559	0.11687
2611.42691	0.11700
2609.49824	0.11715
2607.56956	0.11728
2605.64089	0.11743
2603.71221	0.11760
2601.78354	0.11778
2599.85486	0.11793
2597.92618	0.11805
2595.99751	0.11816
2594.06883	0.11826
2592.14016	0.11838
2590.21148	0.11851
2588.28281	0.11864
2586.35413	0.11878
2584.42545	0.11895
2582.49678	0.11912
2580.56810	0.11929
2578.63943	0.11946
2576.71075	0.11966
2574.78208	0.11982
2572.85340	0.11993
2570.92472	0.12001
2568.99605	0.12014
2567.06737	0.12032
2565.13870	0.12047
2563.21002	0.12060
2561.28135	0.12070
2559.35267	0.12081
2557.42399	0.12096
2555.49532	0.12112
2553.56664	0.12124
2551.63797	0.12136
2549.70929	0.12151
2547.78062	0.12166
2545.85194	0.12182
2543.92326	0.12197
2541.99459	0.12208
2540.06591	0.12220
2538.13724	0.12237
2536.20856	0.12254
2534.27989	0.12268
2532.35121	0.12280
2530.42253	0.12295
2528.49386	0.12310
2526.56518	0.12323
2524.63651	0.12336
2522.70783	0.12352
2520.77916	0.12368
2518.85048	0.12385
2516.92181	0.12402
2514.99313	0.12418
2513.06445	0.12432
2511.13578	0.12446
2509.20710	0.12464
2507.27843	0.12482
2505.34975	0.12499
2503.42108	0.12515
2501.49240	0.12532
2499.56372	0.12548
2497.63505	0.12565
2495.70637	0.12581
2493.77770	0.12596
2491.84902	0.12608
2489.92035	0.12621
2487.99167	0.12637
2486.06299	0.12653
2484.13432	0.12669
2482.20564	0.12687
2480.27697	0.12702
2478.34829	0.12714
2476.41962	0.12726
2474.49094	0.12742
2472.56226	0.12762
2470.63359	0.12782
2468.70491	0.12801
2466.77624	0.12816
2464.84756	0.12830
2462.91889	0.12846
2460.99021	0.12862
2459.06153	0.12878
2457.13286	0.12893
2455.20418	0.12907
2453.27551	0.12920
2451.34683	0.12932
2449.41816	0.12945
2447.48948	0.12961
2445.56080	0.12977
2443.63213	0.12991
2441.70345	0.13004
2439.77478	0.13018
2437.84610	0.13034
2435.91743	0.13052
2433.98875	0.13070
2432.06007	0.13088
2430.13140	0.13102
2428.20272	0.13115
2426.27405	0.13130
2424.34537	0.13144
2422.41670	0.13159
2420.48802	0.13174
2418.55934	0.13186
2416.63067	0.13198
2414.70199	0.13215
2412.77332	0.13234
2410.84464	0.13250
2408.91597	0.13265
2406.98729	0.13284
2405.05861	0.13304
2403.12994	0.13317
2401.20126	0.13328
2399.27259	0.13340
2397.34391	0.13354
2395.41524	0.13367
2393.48656	0.13382
2391.55788	0.13400
2389.62921	0.13416
2387.70053	0.13429
2385.77186	0.13444
2383.84318	0.13461
2381.91451	0.13476
2379.98583	0.13485
2378.05715	0.13487
2376.12848	0.13487
2374.19980	0.13487
2372.27113	0.13492
2370.34245	0.13500
2368.41378	0.13510
2366.48510	0.13517
2364.55642	0.13521
2362.62775	0.13529
2360.69907	0.13544
2358.77040	0.13562
2356.84172	0.13584
2354.91305	0.13610
2352.98437	0.13641
2351.05569	0.13670
2349.12702	0.13691
2347.19834	0.13702
2345.26967	0.13706
2343.34099	0.13709
2341.41232	0.13718
2339.48364	0.13731
2337.55496	0.13746
2335.62629	0.13762
2333.69761	0.13778
2331.76894	0.13790
2329.84026	0.13803
2327.91159	0.13820
2325.98291	0.13843
2324.05423	0.13865
2322.12556	0.13884
2320.19688	0.13902
2318.26821	0.13925
2316.33953	0.13950
2314.41086	0.13970
2312.48218	0.13986
2310.55350	0.14007
2308.62483	0.14028
2306.69615	0.14045
2304.76748	0.14059
2302.83880	0.14075
2300.91013	0.14093
2298.98145	0.14113
2297.05277	0.14131
2295.12410	0.14146
2293.19542	0.14159
2291.26675	0.14173
2289.33807	0.14190
2287.40940	0.14209
2285.48072	0.14227
2283.55204	0.14243
2281.62337	0.14258
2279.69469	0.14272
2277.76602	0.14286
2275.83734	0.14302
2273.90867	0.14317
2271.97999	0.14330
2270.05131	0.14344
2268.12264	0.14359
2266.19396	0.14372
2264.26529	0.14386
2262.33661	0.14401
2260.40794	0.14420
2258.47926	0.14438
2256.55058	0.14454
2254.62191	0.14472
2252.69323	0.14492
2250.76456	0.14508
2248.83588	0.14520
2246.90721	0.14533
2244.97853	0.14546
2243.04985	0.14559
2241.12118	0.14572
2239.19250	0.14587
2237.26383	0.14606
2235.33515	0.14625
2233.40648	0.14641
2231.47780	0.14649
2229.54912	0.14657
2227.62045	0.14668
2225.69177	0.14683
2223.76310	0.14703
2221.83442	0.14724
2219.90575	0.14742
2217.97707	0.14759
2216.04839	0.14778
2214.11972	0.14794
2212.19104	0.14803
2210.26237	0.14812
2208.33369	0.14824
2206.40502	0.14838
2204.47634	0.14854
2202.54766	0.14872
2200.61899	0.14888
2198.69031	0.14901
2196.76164	0.14913
2194.83296	0.14925
2192.90429	0.14942
2190.97561	0.14962
2189.04693	0.14983
2187.11826	0.15000
2185.18958	0.15014
2183.26091	0.15027
2181.33223	0.15039
2179.40356	0.15051
2177.47488	0.15065
2175.54620	0.15080
2173.61753	0.15092
2171.68885	0.15106
2169.76018	0.15126
2167.83150	0.15148
2165.90283	0.15166
2163.97415	0.15179
2162.04547	0.15189
2160.11680	0.15202
2158.18812	0.15218
2156.25945	0.15236
2154.33077	0.15254
2152.40210	0.15269
2150.47342	0.15283
2148.54474	0.15299
2146.61607	0.15317
2144.68739	0.15333
2142.75872	0.15348
2140.83004	0.15365
2138.90137	0.15380
2136.97269	0.15391
2135.04401	0.15404
2133.11534	0.15420
2131.18666	0.15436
2129.25799	0.15449
2127.32931	0.15465
2125.40064	0.15484
2123.47196	0.15501
2121.54328	0.15515
2119.61461	0.15533
2117.68593	0.15551
2115.75726	0.15562
2113.82858	0.15571
2111.89991	0.15586
2109.97123	0.15604
2108.04255	0.15620
2106.11388	0.15637
2104.18520	0.15654
2102.25653	0.15669
2100.32785	0.15683
2098.39918	0.15699
2096.47050	0.15715
2094.54182	0.15731
2092.61315	0.15748
2090.68447	0.15764
2088.75580	0.15777
2086.82712	0.15787
2084.89845	0.15799
2082.96977	0.15815
2081.04109	0.15835
2079.11242	0.15855
2077.18374	0.15873
2075.25507	0.15888
2073.32639	0.15901
2071.39772	0.15913
2069.46904	0.15924
2067.54036	0.15933
2065.61169	0.15945
2063.68301	0.15964
2061.75434	0.15985
2059.82566	0.16004
2057.89699	0.16023
2055.96831	0.16044
2054.03963	0.16060
2052.11096	0.16071
2050.18228	0.16081
2048.25361	0.16096
2046.32493	0.16111
2044.39626	0.16126
2042.46758	0.16141
2040.53890	0.16161
2038.61023	0.16182
2036.68155	0.16200
2034.75288	0.16211
2032.82420	0.16222
2030.89553	0.16237
2028.96685	0.16253
2027.03817	0.16268
2025.10950	0.16284
2023.18082	0.16298
2021.25215	0.16312
2019.32347	0.16327
2017.39480	0.16344
2015.46612	0.16364
2013.53744	0.16382
2011.60877	0.16398
2009.68009	0.16413
2007.75142	0.16430
2005.82274	0.16445
2003.89407	0.16459
2001.96539	0.16474
2000.03671	0.16486
1998.10804	0.16497
1996.17936	0.16512
1994.25069	0.16525
1992.32201	0.16536
1990.39334	0.16551
1988.46466	0.16569
1986.53598	0.16585
1984.60731	0.16601
1982.67863	0.16619
1980.74996	0.16634
1978.82128	0.16647
1976.89261	0.16659
1974.96393	0.16672
1973.03525	0.16685
1971.10658	0.16693
1969.17790	0.16695
1967.24923	0.16704
1965.32055	0.16725
1963.39188	0.16745
1961.46320	0.16760
1959.53452	0.16774
1957.60585	0.16787
1955.67717	0.16799
1953.74850	0.16812
1951.81982	0.16829
1949.89115	0.16846
1947.96247	0.16859
1946.03379	0.16867
1944.10512	0.16876
1942.17644	0.16893
1940.24777	0.16918
1938.31909	0.16942
1936.39042	0.16961
1934.46174	0.16977
1932.53306	0.16989
1930.60439	0.17000
1928.67571	0.17012
1926.74704	0.17024
1924.81836	0.17033
1922.88969	0.17042
1920.96101	0.17042
1919.03233	0.17035
1917.10366	0.17053
1915.17498	0.17099
1913.24631	0.17133
1911.31763	0.17147
1909.38896	0.17160
1907.46028	0.17180
1905.53160	0.17198
1903.60293	0.17212
1901.67425	0.17227
1899.74558	0.17240
1897.81690	0.17247
1895.88823	0.17251
1893.95955	0.17265
1892.03087	0.17281
1890.10220	0.17292
1888.17352	0.17311
1886.24485	0.17337
1884.31617	0.17354
1882.38750	0.17365
1880.45882	0.17380
1878.53014	0.17398
1876.60147	0.17415
1874.67279	0.17431
1872.74412	0.17437
1870.81544	0.17424
1868.88677	0.17417
1866.95809	0.17440
1865.02941	0.17482
1863.10074	0.17514
1861.17206	0.17530
1859.24339	0.17540
1857.31471	0.17555
1855.38604	0.17575
1853.45736	0.17595
1851.52868	0.17608
1849.60001	0.17610
1847.67133	0.17591
1845.74266	0.17560
1843.81398	0.17567
1841.88531	0.17629
1839.95663	0.17687
1838.02795	0.17711
1836.09928	0.17726
1834.17060	0.17740
1832.24193	0.17741
1830.31325	0.17736
1828.38458	0.17742
1826.45590	0.17754
1824.52722	0.17776
1822.59855	0.17815
1820.66987	0.17844
1818.74120	0.17856
1816.81252	0.17871
1814.88385	0.17890
1812.95517	0.17896
1811.02649	0.17900
1809.09782	0.17916
1807.16914	0.17938
1805.24047	0.17943
1803.31179	0.17929
1801.38312	0.17923
1799.45444	0.17948
1797.52576	0.17979
1795.59709	0.17985
1793.66841	0.17972
1791.73974	0.17978
1789.81106	0.18015
1787.88239	0.18044
1785.95371	0.18047
1784.02503	0.18052
1782.09636	0.18069
1780.16768	0.18085
1778.23901	0.18099
1776.31033	0.18106
1774.38166	0.18099
1772.45298	0.18091
1770.52430	0.18100
1768.59563	0.18129
1766.66695	0.18161
1764.73828	0.18172
1762.80960	0.18162
1760.88093	0.18162
1758.95225	0.18179
1757.02357	0.18193
1755.09490	0.18188
1753.16622	0.18144
1751.23755	0.18098
1749.30887	0.18105
1747.38020	0.18138
1745.45152	0.18150
1743.52284	0.18146
1741.59417	0.18141
1739.66549	0.18152
1737.73682	0.18167
1735.80814	0.18155
1733.87947	0.18148
1731.95079	0.18183
1730.02211	0.18230
1728.09344	0.18264
1726.16476	0.18282
1724.23609	0.18287
1722.30741	0.18292
1720.37874	0.18285
1718.45006	0.18264
1716.52138	0.18264
1714.59271	0.18303
1712.66403	0.18355
1710.73536	0.18391
1708.80668	0.18396
1706.87801	0.18375
1704.94933	0.18345
1703.02065	0.18284
1701.09198	0.18215
1699.16330	0.18227
1697.23463	0.18294
1695.30595	0.18350
1693.37728	0.18406
1691.44860	0.18436
1689.51992	0.18427
1687.59125	0.18390
1685.66257	0.18338
1683.73390	0.18332
1681.80522	0.18385
1679.87655	0.18435
1677.94787	0.18450
1676.01919	0.18445
1674.09052	0.18440
1672.16184	0.18417
1670.23317	0.18386
1668.30449	0.18407
1666.37582	0.18461
1664.44714	0.18476
1662.51846	0.18471
1660.58979	0.18492
1658.66111	0.18508
1656.73244	0.18461
1654.80376	0.18368
1652.87509	0.18342
1650.94641	0.18405
1649.01773	0.18440
1647.08906	0.18428
1645.16038	0.18454
1643.23171	0.18508
1641.30303	0.18537
1639.37436	0.18522
1637.44568	0.18475
1635.51700	0.18456
1633.58833	0.18510
1631.65965	0.18570
1629.73098	0.18571
1627.80230	0.18544
1625.87363	0.18511
1623.94495	0.18472
1622.01627	0.18457
1620.08760	0.18469
1618.15892	0.18492
1616.23025	0.18547
1614.30157	0.18625
1612.37290	0.18682
1610.44422	0.18707
1608.51554	0.18725
1606.58687	0.18748
1604.65819	0.18770
1602.72952	0.18791
1600.80084	0.18815
1598.87217	0.18837
1596.94349	0.18851
1595.01481	0.18865
1593.08614	0.18882
1591.15746	0.18898
1589.22879	0.18915
1587.30011	0.18936
1585.37144	0.18956
1583.44276	0.18973
1581.51408	0.18984
1579.58541	0.18972
1577.65673	0.18936
1575.72806	0.18936
1573.79938	0.18984
1571.87071	0.19000
1569.94203	0.18982
1568.01335	0.18996
1566.08468	0.19029
1564.15600	0.19048
1562.22733	0.19030
1560.29865	0.18961
1558.36998	0.18916
1556.44130	0.18966
1554.51262	0.19049
1552.58395	0.19089
1550.65527	0.19098
1548.72660	0.19112
1546.79792	0.19113
1544.86925	0.19072
1542.94057	0.19022
1541.01189	0.19020
1539.08322	0.19078
1537.15454	0.19139
1535.22587	0.19145
1533.29719	0.19146
1531.36852	0.19189
1529.43984	0.19220
1527.51116	0.19210
1525.58249	0.19191
1523.65381	0.19165
1521.72514	0.19154
1519.79646	0.19178
1517.86779	0.19203
1515.93911	0.19216
1514.01043	0.19239
1512.08176	0.19246
1510.15308	0.19195
1508.22441	0.19122
1506.29573	0.19134
1504.36706	0.19239
1502.43838	0.19305
1500.50970	0.19281
1498.58103	0.19247
1496.65235	0.19262
1494.72368	0.19299
1492.79500	0.19299
1490.86633	0.19264
1488.93765	0.19244
1487.00897	0.19257
1485.08030	0.19285
1483.15162	0.19299
1481.22295	0.19293
1479.29427	0.19263
1477.36560	0.19204
1475.43692	0.19140
1473.50824	0.19084
1471.57957	0.19059
1469.65089	0.19073
1467.72222	0.19073
1465.79354	0.19043
1463.86487	0.19030
1461.93619	0.19021
1460.00751	0.18949
1458.07884	0.18839
1456.15016	0.18819
1454.22149	0.18903
1452.29281	0.18973
1450.36414	0.18984
1448.43546	0.18981
1446.50678	0.18998
1444.57811	0.19026
1442.64943	0.19042
1440.72076	0.19031
1438.79208	0.18973
1436.86341	0.18931
1434.93473	0.18977
1433.00605	0.19051
1431.07738	0.19084
1429.14870	0.19101
1427.22003	0.19121
1425.29135	0.19131
1423.36268	0.19132
1421.43400	0.19112
1419.50532	0.19076
1417.57665	0.19072
1415.64797	0.19112
1413.71930	0.19145
1411.79062	0.19154
1409.86195	0.19158
1407.93327	0.19156
1406.00459	0.19144
1404.07592	0.19139
1402.14724	0.19133
1400.21857	0.19108
1398.28989	0.19075
1396.36122	0.19049
1394.43254	0.19051
1392.50386	0.19089
1390.57519	0.19101
1388.64651	0.19058
1386.71784	0.19017
1384.78916	0.19016
1382.86049	0.19029
1380.93181	0.19038
1379.00313	0.19037
1377.07446	0.19022
1375.14578	0.19004
1373.21711	0.19008
1371.28843	0.19023
1369.35976	0.19030
1367.43108	0.19028
1365.50240	0.19003
1363.57373	0.18971
1361.64505	0.18978
1359.71638	0.19015
1357.78770	0.19036
1355.85903	0.19038
1353.93035	0.19042
1352.00167	0.19052
1350.07300	0.19063
1348.14432	0.19076
1346.21565	0.19085
1344.28697	0.19080
1342.35830	0.19053
1340.42962	0.19024
1338.50094	0.19022
1336.57227	0.19040
1334.64359	0.19052
1332.71492	0.19050
1330.78624	0.19038
1328.85757	0.19027
1326.92889	0.19014
1325.00021	0.18993
1323.07154	0.18974
1321.14286	0.18957
1319.21419	0.18936
1317.28551	0.18916
1315.35684	0.18900
1313.42816	0.18884
1311.49948	0.18871
1309.57081	0.18860
1307.64213	0.18842
1305.71346	0.18817
1303.78478	0.18793
1301.85611	0.18773
1299.92743	0.18751
1297.99875	0.18726
1296.07008	0.18704
1294.14140	0.18685
1292.21273	0.18671
1290.28405	0.18658
1288.35538	0.18639
1286.42670	0.18615
1284.49802	0.18593
1282.56935	0.18576
1280.64067	0.18557
1278.71200	0.18532
1276.78332	0.18497
1274.85465	0.18455
1272.92597	0.18409
1270.99729	0.18350
1269.06862	0.18268
1267.13994	0.18175
1265.21127	0.18097
1263.28259	0.18047
1261.35392	0.18029
1259.42524	0.18033
1257.49656	0.18046
1255.56789	0.18060
1253.63921	0.18064
1251.71054	0.18055
1249.78186	0.18031
1247.85319	0.17999
1245.92451	0.17967
1243.99583	0.17931
1242.06716	0.17889
1240.13848	0.17845
1238.20981	0.17795
1236.28113	0.17738
1234.35246	0.17685
1232.42378	0.17634
1230.49510	0.17581
1228.56643	0.17535
1226.63775	0.17492
1224.70908	0.17443
1222.78040	0.17389
1220.85173	0.17340
1218.92305	0.17295
1216.99437	0.17247
1215.06570	0.17198
1213.13702	0.17145
1211.20835	0.17090
1209.27967	0.17037
1207.35100	0.16985
1205.42232	0.16930
1203.49364	0.16868
1201.56497	0.16806
1199.63629	0.16750
1197.70762	0.16699
1195.77894	0.16646
1193.85027	0.16589
1191.92159	0.16525
1189.99291	0.16458
1188.06424	0.16391
1186.13556	0.16323
1184.20689	0.16251
1182.27821	0.16177
1180.34954	0.16102
1178.42086	0.16026
1176.49218	0.15947
1174.56351	0.15866
1172.63483	0.15783
1170.70616	0.15701
1168.77748	0.15618
1166.84881	0.15536
1164.92013	0.15455
1162.99145	0.15380
1161.06278	0.15307
1159.13410	0.15236
1157.20543	0.15162
1155.27675	0.15083
1153.34808	0.14998
1151.41940	0.14918
1149.49072	0.14844
1147.56205	0.14769
1145.63337	0.14693
1143.70470	0.14617
1141.77602	0.14537
1139.84735	0.14449
1137.91867	0.14347
1135.98999	0.14231
1134.06132	0.14100
1132.13264	0.13952
1130.20397	0.13780
1128.27529	0.13587
1126.34662	0.13378
1124.41794	0.13163
1122.48926	0.12946
1120.56059	0.12729
1118.63191	0.12516
1116.70324	0.12316
1114.77456	0.12137
1112.84589	0.11984
1110.91721	0.11857
1108.98853	0.11757
1107.05986	0.11689
1105.13118	0.11648
1103.20251	0.11635
1101.27383	0.11651
1099.34516	0.11692
1097.41648	0.11746
1095.48780	0.11808
1093.55913	0.11881
1091.63045	0.11963
1089.70178	0.12039
1087.77310	0.12108
1085.84443	0.12169
1083.91575	0.12219
1081.98707	0.12257
1080.05840	0.12287
1078.12972	0.12306
1076.20105	0.12315
1074.27237	0.12321
1072.34370	0.12329
1070.41502	0.12342
1068.48634	0.12360
1066.55767	0.12375
1064.62899	0.12386
1062.70032	0.12403
1060.77164	0.12425
1058.84297	0.12447
1056.91429	0.12469
1054.98561	0.12492
1053.05694	0.12521
1051.12826	0.12555
1049.19959	0.12592
1047.27091	0.12631
1045.34224	0.12672
1043.41356	0.12712
1041.48488	0.12746
1039.55621	0.12777
1037.62753	0.12807
1035.69886	0.12841
1033.77018	0.12881
1031.84151	0.12919
1029.91283	0.12955
1027.98415	0.12984
1026.05548	0.13011
1024.12680	0.13044
1022.19813	0.13081
1020.26945	0.13121
1018.34078	0.13164
1016.41210	0.13207
1014.48342	0.13248
1012.55475	0.13297
1010.62607	0.13360
1008.69740	0.13425
1006.76872	0.13479
1004.84005	0.13521
1002.91137	0.13555
1000.98269	0.13588
999.05402	0.13619
997.12534	0.13647
995.19667	0.13665
993.26799	0.13673
991.33932	0.13680
989.41064	0.13686
987.48196	0.13685
985.55329	0.13681
983.62461	0.13683
981.69594	0.13687
979.76726	0.13682
977.83859	0.13670
975.90991	0.13656
973.98123	0.13640
972.05256	0.13627
970.12388	0.13616
968.19521	0.13602
966.26653	0.13587
964.33786	0.13573
962.40918	0.13561
960.48050	0.13545
958.55183	0.13525
956.62315	0.13511
954.69448	0.13501
952.76580	0.13488
950.83713	0.13474
948.90845	0.13459
946.97977	0.13442
945.05110	0.13417
943.12242	0.13386
941.19375	0.13355
939.26507	0.13325
937.33640	0.13288
935.40772	0.13243
933.47904	0.13193
931.55037	0.13142
929.62169	0.13093
927.69302	0.13047
925.76434	0.13001
923.83567	0.12952
921.90699	0.12901
919.97831	0.12845
918.04964	0.12785
916.12096	0.12722
914.19229	0.12651
912.26361	0.12577
910.33494	0.12504
908.40626	0.12434
906.47758	0.12373
904.54891	0.12322
902.62023	0.12273
900.69156	0.12220
898.76288	0.12163
896.83421	0.12105
894.90553	0.12053
892.97685	0.12007
891.04818	0.11962
889.11950	0.11922
887.19083	0.11888
885.26215	0.11851
883.33348	0.11812
881.40480	0.11780
879.47612	0.11754
877.54745	0.11728
875.61877	0.11704
873.69010	0.11683
871.76142	0.11663
869.83275	0.11644
867.90407	0.11626
865.97539	0.11605
864.04672	0.11587
862.11804	0.11577
860.18937	0.11575
858.26069	0.11574
856.33202	0.11558
854.40334	0.11531
852.47466	0.11504
850.54599	0.11473
848.61731	0.11435
846.68864	0.11400
844.75996	0.11378
842.83129	0.11362
840.90261	0.11342
838.97394	0.11309
837.04526	0.11261
835.11658	0.11201
833.18791	0.11133
831.25923	0.11054
829.33056	0.10960
827.40188	0.10850
825.47321	0.10737
823.54453	0.10644
821.61585	0.10575
819.68718	0.10517
817.75850	0.10466
815.82983	0.10425
813.90115	0.10393
811.97248	0.10362
810.04380	0.10329
808.11512	0.10303
806.18645	0.10290
804.25777	0.10287
802.32910	0.10283
800.40042	0.10260
798.47175	0.10205
796.54307	0.10136
794.61439	0.10087
792.68572	0.10058
790.75704	0.10034
788.82837	0.10011
786.89969	0.09991
784.97102	0.09970
783.04234	0.09943
781.11366	0.09915
779.18499	0.09884
777.25631	0.09851
775.32764	0.09824
773.39896	0.09802
771.47029	0.09773
769.54161	0.09734
767.61293	0.09691
765.68426	0.09653
763.75558	0.09623
761.82691	0.09590
759.89823	0.09544
757.96956	0.09488
756.04088	0.09430
754.11220	0.09372
752.18353	0.09311
750.25485	0.09244
748.32618	0.09173
746.39750	0.09095
744.46883	0.09011
742.54015	0.08926
740.61147	0.08852
738.68280	0.08804
736.75412	0.08786
734.82545	0.08782
732.89677	0.08785
730.96810	0.08793
729.03942	0.08801
727.11074	0.08812
725.18207	0.08824
723.25339	0.08832
721.32472	0.08837
719.39604	0.08844
717.46737	0.08860
715.53869	0.08895
713.61001	0.08952
711.68134	0.09009
709.75266	0.09035
707.82399	0.09029
705.89531	0.09007
703.96664	0.08982
702.03796	0.08960
700.10928	0.08935
698.18061	0.08894
696.25193	0.08841
694.32326	0.08785
692.39458	0.08731
690.46591	0.08676
688.53723	0.08623
686.60855	0.08578
684.67988	0.08539
682.75120	0.08490
680.82253	0.08428
678.89385	0.08368
676.96518	0.08321
675.03650	0.08269
673.10782	0.08191
671.17915	0.08097
669.25047	0.08011
667.32180	0.07947
665.39312	0.07892
663.46445	0.07823
661.53577	0.07745
659.60709	0.07672
657.67842	0.07601
655.74974	0.07529
653.82107	0.07453
651.89239	0.07376
649.96372	0.07301
648.03504	0.07225
646.10636	0.07139
644.17769	0.07046
642.24901	0.06950
640.32034	0.06856
638.39166	0.06764
636.46299	0.06668
634.53431	0.06561
632.60563	0.06422
630.67696	0.06206
628.74828	0.05875
626.81961	0.05465
624.89093	0.05057
622.96226	0.04718
621.03358	0.04493
619.10490	0.04370
617.17623	0.04295
615.24755	0.04226
613.31888	0.04130
611.39020	0.04027
609.46153	0.03979
607.53285	0.03992
605.60417	0.04024
603.67550	0.04072
601.74682	0.04150
599.81815	0.04242
597.88947	0.04320
595.96080	0.04384
594.03212	0.04435
592.10344	0.04457
590.17477	0.04453
588.24609	0.04445
586.31742	0.04442
584.38874	0.04431
582.46007	0.04401
580.53139	0.04357
578.60271	0.04313
576.67404	0.04267
574.74536	0.04219
572.81669	0.04169
570.88801	0.04111
568.95934	0.04052
567.03066	0.04005
565.10198	0.03968
563.17331	0.03927
561.24463	0.03887
559.31596	0.03859
557.38728	0.03850
555.45861	0.03849
553.52993	0.03840
551.60125	0.03822
549.67258	0.03798
547.74390	0.03775
545.81523	0.03762
543.88655	0.03754
541.95788	0.03732
540.02920	0.03706
538.10052	0.03694
536.17185	0.03684
534.24317	0.03659
532.31450	0.03622
530.38582	0.03590
528.45715	0.03569
526.52847	0.03555
524.59979	0.03538
522.67112	0.03510
520.74244	0.03467
518.81377	0.03406
516.88509	0.03338
514.95642	0.03285
513.02774	0.03257
511.09906	0.03244
509.17039	0.03226
507.24171	0.03201
505.31304	0.03172
503.38436	0.03132
501.45569	0.03085
499.52701	0.03040
497.59833	0.02993
495.66966	0.02942
493.74098	0.02891
491.81231	0.02835
489.88363	0.02775
487.95496	0.02719
486.02628	0.02660
484.09760	0.02601
482.16893	0.02556
480.24025	0.02520
478.31158	0.02477
476.38290	0.02425
474.45423	0.02372
472.52555	0.02322
470.59687	0.02272
468.66820	0.02226
466.73952	0.02190
464.81085	0.02159
462.88217	0.02131
460.95350	0.02118
459.02482	0.02115
457.09614	0.02109
455.16747	0.02104
453.23879	0.02107
451.31012	0.02116
449.38144	0.02121
447.45277	0.02114
445.52409	0.02094
443.59541	0.02068
441.66674	0.02041
439.73806	0.02011
437.80939	0.01975
435.88071	0.01933
433.95204	0.01888
432.02336	0.01836
430.09468	0.01773
428.16601	0.01711
426.23733	0.01658
424.30866	0.01603
422.37998	0.01533
420.45131	0.01453
418.52263	0.01381
416.59395	0.01321
414.66528	0.01264
412.73660	0.01203
410.80793	0.01143
408.87925	0.01090
406.95058	0.01039
405.02190	0.00981
403.09322	0.00930
401.16455	0.00889
399.23587	0.00842
397.30720	0.00786
395.37852	0.00731
393.44985	0.00676
391.52117	0.00627
389.59249	0.00592
387.66382	0.00556
385.73514	0.00509
383.80647	0.00461
381.87779	0.00427
379.94912	0.00399
378.02044	0.00366
376.09176	0.00325
374.16309	0.00288
372.23441	0.00276
370.30574	0.00270
368.37706	0.00247
