7496.76250	0.00108
7494.83382	0.00108
7492.90514	0.00109
7490.97647	0.00110
7489.04779	0.00111
7487.11912	0.00111
7485.19044	0.00110
7483.26177	0.00110
7481.33309	0.00111
7479.40441	0.00113
7477.47574	0.00113
7475.54706	0.00111
7473.61839	0.00110
7471.68971	0.00111
7469.76104	0.00112
7467.83236	0.00113
7465.90368	0.00114
7463.97501	0.00115
7462.04633	0.00114
7460.11766	0.00113
7458.18898	0.00114
7456.26031	0.00114
7454.33163	0.00115
7452.40295	0.00115
7450.47428	0.00116
7448.54560	0.00116
7446.61693	0.00117
7444.68825	0.00117
7442.75958	0.00116
7440.83090	0.00116
7438.90222	0.00117
7436.97355	0.00118
7435.04487	0.00118
7433.11620	0.00118
7431.18752	0.00120
7429.25885	0.00121
7427.33017	0.00122
7425.40149	0.00122
7423.47282	0.00122
7421.54414	0.00122
7419.61547	0.00122
7417.68679	0.00123
7415.75812	0.00122
7413.82944	0.00122
7411.90076	0.00122
7409.97209	0.00122
7408.04341	0.00122
7406.11474	0.00123
7404.18606	0.00124
7402.25739	0.00125
7400.32871	0.00125
7398.40003	0.00125
7396.47136	0.00126
7394.54268	0.00127
7392.61401	0.00127
7390.68533	0.00127
7388.75666	0.00126
7386.82798	0.00126
7384.89930	0.00127
7382.97063	0.00127
7381.04195	0.00127
7379.11328	0.00127
7377.18460	0.00127
7375.25593	0.00127
7373.32725	0.00127
7371.39857	0.00128
7369.46990	0.00128
7367.54122	0.00130
7365.61255	0.00131
7363.68387	0.00131
7361.75520	0.00131
7359.82652	0.00131
7357.89784	0.00131
7355.96917	0.00132
7354.04049	0.00132
7352.11182	0.00132
7350.18314	0.00132
7348.25447	0.00131
7346.32579	0.00131
7344.39711	0.00132
7342.46844	0.00132
7340.53976	0.00133
7338.61109	0.00134
7336.68241	0.00134
7334.75374	0.00135
7332.82506	0.00135
7330.89638	0.00136
7328.96771	0.00136
7327.03903	0.00136
7325.11036	0.00137
7323.18168	0.00137
7321.25301	0.00137
7319.32433	0.00136
7317.39565	0.00137
7315.46698	0.00139
7313.53830	0.00141
7311.60963	0.00139
7309.68095	0.00137
7307.75228	0.00138
7305.82360	0.00139
7303.89492	0.00139
7301.96625	0.00139
7300.03757	0.00142
7298.10890	0.00143
7296.18022	0.00143
7294.25155	0.00143
7292.32287	0.00143
7290.39419	0.00143
7288.46552	0.00142
7286.53684	0.00144
7284.60817	0.00145
7282.67949	0.00145
7280.75082	0.00144
7278.82214	0.00144
7276.89346	0.00144
7274.96479	0.00146
7273.03611	0.00146
7271.10744	0.00146
7269.17876	0.00147
7267.25009	0.00148
7265.32141	0.00148
7263.39273	0.00148
7261.46406	0.00147
7259.53538	0.00147
7257.60671	0.00148
7255.67803	0.00149
7253.74936	0.00149
7251.82068	0.00151
7249.89200	0.00153
7247.96333	0.00154
7246.03465	0.00153
7244.10598	0.00151
7242.17730	0.00150
7240.24863	0.00150
7238.31995	0.00152
7236.39127	0.00154
7234.46260	0.00155
7232.53392	0.00154
7230.60525	0.00154
7228.67657	0.00153
7226.74790	0.00152
7224.81922	0.00151
7222.89054	0.00152
7220.96187	0.00153
7219.03319	0.00154
7217.10452	0.00156
7215.17584	0.00157
7213.24717	0.00158
7211.31849	0.00157
7209.38981	0.00156
7207.46114	0.00157
7205.53246	0.00159
7203.60379	0.00161
7201.67511	0.00161
7199.74644	0.00161
7197.81776	0.00160
7195.88908	0.00159
7193.96041	0.00159
7192.03173	0.00160
7190.10306	0.00162
7188.17438	0.00163
7186.24571	0.00163
7184.31703	0.00162
7182.38835	0.00162
7180.45968	0.00163
7178.53100	0.00163
7176.60233	0.00163
7174.67365	0.00164
7172.74498	0.00166
7170.81630	0.00167
7168.88762	0.00166
7166.95895	0.00165
7165.03027	0.00165
7163.10160	0.00164
7161.17292	0.00165
7159.24425	0.00165
7157.31557	0.00165
7155.38689	0.00166
7153.45822	0.00168
7151.52954	0.00169
7149.60087	0.00170
7147.67219	0.00171
7145.74352	0.00171
7143.81484	0.00171
7141.88616	0.00170
7139.95749	0.00167
7138.02881	0.00167
7136.10014	0.00169
7134.17146	0.00170
7132.24279	0.00171
7130.31411	0.00172
7128.38543	0.00173
7126.45676	0.00173
7124.52808	0.00174
7122.59941	0.00174
7120.67073	0.00174
7118.74206	0.00173
7116.81338	0.00173
7114.88470	0.00174
7112.95603	0.00176
7111.02735	0.00178
7109.09868	0.00178
7107.17000	0.00177
7105.24133	0.00177
7103.31265	0.00177
7101.38397	0.00177
7099.45530	0.00177
7097.52662	0.00177
7095.59795	0.00177
7093.66927	0.00178
7091.74060	0.00179
7089.81192	0.00180
7087.88324	0.00180
7085.95457	0.00181
7084.02589	0.00182
7082.09722	0.00183
7080.16854	0.00183
7078.23987	0.00183
7076.31119	0.00184
7074.38251	0.00183
7072.45384	0.00184
7070.52516	0.00186
7068.59649	0.00187
7066.66781	0.00187
7064.73914	0.00188
7062.81046	0.00189
7060.88178	0.00189
7058.95311	0.00188
7057.02443	0.00188
7055.09576	0.00188
7053.16708	0.00188
7051.23841	0.00187
7049.30973	0.00187
7047.38105	0.00188
7045.45238	0.00190
7043.52370	0.00191
7041.59503	0.00192
7039.66635	0.00193
7037.73768	0.00193
7035.80900	0.00194
7033.88032	0.00193
7031.95165	0.00191
7030.02297	0.00190
7028.09430	0.00191
7026.16562	0.00193
7024.23695	0.00194
7022.30827	0.00194
7020.37959	0.00193
7018.45092	0.00193
7016.52224	0.00194
7014.59357	0.00194
7012.66489	0.00195
7010.73622	0.00197
7008.80754	0.00199
7006.87886	0.00200
7004.95019	0.00200
7003.02151	0.00199
7001.09284	0.00199
6999.16416	0.00200
6997.23549	0.00201
6995.30681	0.00203
6993.37813	0.00205
6991.44946	0.00205
6989.52078	0.00204
6987.59211	0.00203
6985.66343	0.00203
6983.73476	0.00204
6981.80608	0.00205
6979.87740	0.00206
6977.94873	0.00206
6976.02005	0.00206
6974.09138	0.00206
6972.16270	0.00206
6970.23403	0.00206
6968.30535	0.00206
6966.37667	0.00207
6964.44800	0.00207
6962.51932	0.00207
6960.59065	0.00207
6958.66197	0.00208
6956.73330	0.00210
6954.80462	0.00211
6952.87594	0.00212
6950.94727	0.00213
6949.01859	0.00213
6947.08992	0.00212
6945.16124	0.00209
6943.23257	0.00207
6941.30389	0.00208
6939.37521	0.00210
6937.44654	0.00212
6935.51786	0.00214
6933.58919	0.00216
6931.66051	0.00217
6929.73184	0.00218
6927.80316	0.00219
6925.87448	0.00221
6923.94581	0.00220
6922.01713	0.00219
6920.08846	0.00217
6918.15978	0.00217
6916.23111	0.00218
6914.30243	0.00219
6912.37375	0.00220
6910.44508	0.00221
6908.51640	0.00221
6906.58773	0.00221
6904.65905	0.00221
6902.73038	0.00222
6900.80170	0.00222
6898.87302	0.00223
6896.94435	0.00224
6895.01567	0.00223
6893.08700	0.00222
6891.15832	0.00224
6889.22965	0.00225
6887.30097	0.00226
6885.37229	0.00227
6883.44362	0.00228
6881.51494	0.00228
6879.58627	0.00227
6877.65759	0.00228
6875.72892	0.00230
6873.80024	0.00230
6871.87156	0.00228
6869.94289	0.00227
6868.01421	0.00228
6866.08554	0.00229
6864.15686	0.00231
6862.22819	0.00233
6860.29951	0.00233
6858.37083	0.00233
6856.44216	0.00234
6854.51348	0.00235
6852.58481	0.00235
6850.65613	0.00235
6848.72746	0.00237
6846.79878	0.00238
6844.87010	0.00237
6842.94143	0.00237
6841.01275	0.00239
6839.08408	0.00241
6837.15540	0.00242
6835.22673	0.00243
6833.29805	0.00243
6831.36937	0.00242
6829.44070	0.00242
6827.51202	0.00243
6825.58335	0.00243
6823.65467	0.00243
6821.72600	0.00244
6819.79732	0.00245
6817.86864	0.00246
6815.93997	0.00246
6814.01129	0.00246
6812.08262	0.00247
6810.15394	0.00248
6808.22527	0.00247
6806.29659	0.00246
6804.36791	0.00247
6802.43924	0.00247
6800.51056	0.00248
6798.58189	0.00249
6796.65321	0.00250
6794.72454	0.00250
6792.79586	0.00251
6790.86718	0.00251
6788.93851	0.00252
6787.00983	0.00253
6785.08116	0.00254
6783.15248	0.00254
6781.22381	0.00253
6779.29513	0.00252
6777.36645	0.00253
6775.43778	0.00255
6773.50910	0.00256
6771.58043	0.00257
6769.65175	0.00257
6767.72308	0.00255
6765.79440	0.00255
6763.86572	0.00258
6761.93705	0.00259
6760.00837	0.00258
6758.07970	0.00257
6756.15102	0.00259
6754.22235	0.00261
6752.29367	0.00262
6750.36499	0.00264
6748.43632	0.00264
6746.50764	0.00263
6744.57897	0.00261
6742.65029	0.00261
6740.72162	0.00262
6738.79294	0.00264
6736.86426	0.00265
6734.93559	0.00264
6733.00691	0.00265
6731.07824	0.00267
6729.14956	0.00269
6727.22089	0.00269
6725.29221	0.00269
6723.36353	0.00269
6721.43486	0.00270
6719.50618	0.00270
6717.57751	0.00270
6715.64883	0.00271
6713.72016	0.00272
6711.79148	0.00272
6709.86280	0.00272
6707.93413	0.00273
6706.00545	0.00273
6704.07678	0.00274
6702.14810	0.00275
6700.21943	0.00277
6698.29075	0.00278
6696.36207	0.00281
6694.43340	0.00282
6692.50472	0.00281
6690.57605	0.00280
6688.64737	0.00281
6686.71870	0.00281
6684.79002	0.00281
6682.86134	0.00281
6680.93267	0.00281
6679.00399	0.00281
6677.07532	0.00283
6675.14664	0.00285
6673.21797	0.00285
6671.28929	0.00285
6669.36061	0.00286
6667.43194	0.00287
6665.50326	0.00286
6663.57459	0.00286
6661.64591	0.00287
6659.71724	0.00288
6657.78856	0.00290
6655.85988	0.00292
6653.93121	0.00292
6652.00253	0.00292
6650.07386	0.00293
6648.14518	0.00293
6646.21651	0.00292
6644.28783	0.00292
6642.35915	0.00294
6640.43048	0.00295
6638.50180	0.00296
6636.57313	0.00296
6634.64445	0.00297
6632.71578	0.00297
6630.78710	0.00297
6628.85842	0.00297
6626.92975	0.00299
6625.00107	0.00301
6623.07240	0.00303
6621.14372	0.00303
6619.21505	0.00304
6617.28637	0.00305
6615.35769	0.00304
6613.42902	0.00304
6611.50034	0.00304
6609.57167	0.00305
6607.64299	0.00306
6605.71432	0.00307
6603.78564	0.00308
6601.85696	0.00308
6599.92829	0.00307
6597.99961	0.00306
6596.07094	0.00307
6594.14226	0.00308
6592.21359	0.00309
6590.28491	0.00310
6588.35623	0.00312
6586.42756	0.00314
6584.49888	0.00315
6582.57021	0.00315
6580.64153	0.00317
6578.71286	0.00318
6576.78418	0.00317
6574.85550	0.00317
6572.92683	0.00317
6570.99815	0.00318
6569.06948	0.00317
6567.14080	0.00316
6565.21213	0.00316
6563.28345	0.00318
6561.35477	0.00320
6559.42610	0.00323
6557.49742	0.00324
6555.56875	0.00325
6553.64007	0.00326
6551.71140	0.00325
6549.78272	0.00325
6547.85404	0.00326
6545.92537	0.00328
6543.99669	0.00328
6542.06802	0.00330
6540.13934	0.00330
6538.21067	0.00331
6536.28199	0.00331
6534.35331	0.00331
6532.42464	0.00331
6530.49596	0.00332
6528.56729	0.00332
6526.63861	0.00332
6524.70994	0.00334
6522.78126	0.00336
6520.85258	0.00337
6518.92391	0.00336
6516.99523	0.00336
6515.06656	0.00338
6513.13788	0.00341
6511.20921	0.00341
6509.28053	0.00339
6507.35185	0.00339
6505.42318	0.00342
6503.49450	0.00344
6501.56583	0.00344
6499.63715	0.00344
6497.70848	0.00345
6495.77980	0.00345
6493.85112	0.00345
6491.92245	0.00345
6489.99377	0.00345
6488.06510	0.00346
6486.13642	0.00349
6484.20775	0.00351
6482.27907	0.00351
6480.35039	0.00351
6478.42172	0.00351
6476.49304	0.00353
6474.56437	0.00355
6472.63569	0.00356
6470.70702	0.00356
6468.77834	0.00354
6466.84966	0.00354
6464.92099	0.00356
6462.99231	0.00357
6461.06364	0.00357
6459.13496	0.00356
6457.20629	0.00356
6455.27761	0.00358
6453.34893	0.00361
6451.42026	0.00362
6449.49158	0.00362
6447.56291	0.00363
6445.63423	0.00363
6443.70556	0.00365
6441.77688	0.00365
6439.84820	0.00365
6437.91953	0.00364
6435.99085	0.00364
6434.06218	0.00366
6432.13350	0.00368
6430.20483	0.00369
6428.27615	0.00369
6426.34747	0.00369
6424.41880	0.00369
6422.49012	0.00371
6420.56145	0.00373
6418.63277	0.00375
6416.70410	0.00376
6414.77542	0.00376
6412.84674	0.00375
6410.91807	0.00375
6408.98939	0.00377
6407.06072	0.00379
6405.13204	0.00380
6403.20337	0.00381
6401.27469	0.00381
6399.34601	0.00381
6397.41734	0.00383
6395.48866	0.00386
6393.55999	0.00387
6391.63131	0.00386
6389.70264	0.00385
6387.77396	0.00385
6385.84528	0.00385
6383.91661	0.00386
6381.98793	0.00385
6380.05926	0.00387
6378.13058	0.00391
6376.20191	0.00394
6374.27323	0.00395
6372.34455	0.00394
6370.41588	0.00394
6368.48720	0.00394
6366.55853	0.00394
6364.62985	0.00394
6362.70118	0.00395
6360.77250	0.00396
6358.84382	0.00397
6356.91515	0.00398
6354.98647	0.00399
6353.05780	0.00402
6351.12912	0.00404
6349.20045	0.00405
6347.27177	0.00404
6345.34309	0.00404
6343.41442	0.00405
6341.48574	0.00405
6339.55707	0.00406
6337.62839	0.00407
6335.69972	0.00408
6333.77104	0.00409
6331.84236	0.00411
6329.91369	0.00413
6327.98501	0.00415
6326.05634	0.00416
6324.12766	0.00415
6322.19899	0.00414
6320.27031	0.00414
6318.34163	0.00416
6316.41296	0.00418
6314.48428	0.00418
6312.55561	0.00419
6310.62693	0.00420
6308.69826	0.00420
6306.76958	0.00420
6304.84090	0.00420
6302.91223	0.00421
6300.98355	0.00422
6299.05488	0.00425
6297.12620	0.00428
6295.19753	0.00430
6293.26885	0.00430
6291.34017	0.00430
6289.41150	0.00431
6287.48282	0.00433
6285.55415	0.00433
6283.62547	0.00433
6281.69680	0.00432
6279.76812	0.00433
6277.83944	0.00434
6275.91077	0.00435
6273.98209	0.00436
6272.05342	0.00438
6270.12474	0.00439
6268.19607	0.00439
6266.26739	0.00439
6264.33871	0.00440
6262.41004	0.00443
6260.48136	0.00444
6258.55269	0.00445
6256.62401	0.00446
6254.69534	0.00449
6252.76666	0.00449
6250.83798	0.00449
6248.90931	0.00450
6246.98063	0.00451
6245.05196	0.00452
6243.12328	0.00452
6241.19461	0.00451
6239.26593	0.00453
6237.33725	0.00454
6235.40858	0.00456
6233.47990	0.00456
6231.55123	0.00457
6229.62255	0.00458
6227.69388	0.00459
6225.76520	0.00460
6223.83652	0.00462
6221.90785	0.00462
6219.97917	0.00464
6218.05050	0.00465
6216.12182	0.00466
6214.19315	0.00467
6212.26447	0.00468
6210.33579	0.00470
6208.40712	0.00471
6206.47844	0.00472
6204.54977	0.00471
6202.62109	0.00469
6200.69242	0.00469
6198.76374	0.00470
6196.83506	0.00472
6194.90639	0.00474
6192.97771	0.00475
6191.04904	0.00475
6189.12036	0.00477
6187.19169	0.00480
6185.26301	0.00482
6183.33433	0.00482
6181.40566	0.00483
6179.47698	0.00486
6177.54831	0.00489
6175.61963	0.00489
6173.69096	0.00488
6171.76228	0.00487
6169.83360	0.00489
6167.90493	0.00492
6165.97625	0.00494
6164.04758	0.00494
6162.11890	0.00494
6160.19023	0.00493
6158.26155	0.00492
6156.33287	0.00492
6154.40420	0.00496
6152.47552	0.00500
6150.54685	0.00503
6148.61817	0.00502
6146.68950	0.00501
6144.76082	0.00500
6142.83214	0.00500
6140.90347	0.00502
6138.97479	0.00505
6137.04612	0.00508
6135.11744	0.00510
6133.18877	0.00511
6131.26009	0.00510
6129.33141	0.00511
6127.40274	0.00512
6125.47406	0.00515
6123.54539	0.00516
6121.61671	0.00517
6119.68804	0.00518
6117.75936	0.00519
6115.83068	0.00519
6113.90201	0.00520
6111.97333	0.00522
6110.04466	0.00523
6108.11598	0.00523
6106.18731	0.00524
6104.25863	0.00525
6102.32995	0.00524
6100.40128	0.00524
6098.47260	0.00524
6096.54393	0.00524
6094.61525	0.00526
6092.68658	0.00529
6090.75790	0.00532
6088.82922	0.00534
6086.90055	0.00537
6084.97187	0.00536
6083.04320	0.00535
6081.11452	0.00536
6079.18585	0.00538
6077.25717	0.00537
6075.32849	0.00538
6073.39982	0.00542
6071.47114	0.00545
6069.54247	0.00546
6067.61379	0.00545
6065.68512	0.00545
6063.75644	0.00546
6061.82776	0.00548
6059.89909	0.00549
6057.97041	0.00550
6056.04174	0.00551
6054.11306	0.00553
6052.18439	0.00555
6050.25571	0.00557
6048.32703	0.00558
6046.39836	0.00559
6044.46968	0.00560
6042.54101	0.00561
6040.61233	0.00562
6038.68366	0.00562
6036.75498	0.00563
6034.82630	0.00564
6032.89763	0.00566
6030.96895	0.00569
6029.04028	0.00571
6027.11160	0.00572
6025.18293	0.00571
6023.25425	0.00572
6021.32557	0.00572
6019.39690	0.00573
6017.46822	0.00575
6015.53955	0.00576
6013.61087	0.00576
6011.68220	0.00579
6009.75352	0.00582
6007.82484	0.00583
6005.89617	0.00583
6003.96749	0.00583
6002.03882	0.00583
6000.11014	0.00585
5998.18147	0.00587
5996.25279	0.00590
5994.32411	0.00592
5992.39544	0.00593
5990.46676	0.00593
5988.53809	0.00594
5986.60941	0.00595
5984.68074	0.00595
5982.75206	0.00597
5980.82338	0.00599
5978.89471	0.00601
5976.96603	0.00603
5975.03736	0.00604
5973.10868	0.00605
5971.18001	0.00605
5969.25133	0.00605
5967.32265	0.00606
5965.39398	0.00608
5963.46530	0.00610
5961.53663	0.00611
5959.60795	0.00612
5957.67928	0.00614
5955.75060	0.00615
5953.82192	0.00618
5951.89325	0.00621
5949.96457	0.00622
5948.03590	0.00621
5946.10722	0.00620
5944.17855	0.00620
5942.24987	0.00621
5940.32119	0.00622
5938.39252	0.00624
5936.46384	0.00627
5934.53517	0.00629
5932.60649	0.00631
5930.67782	0.00632
5928.74914	0.00634
5926.82046	0.00635
5924.89179	0.00635
5922.96311	0.00635
5921.03444	0.00636
5919.10576	0.00638
5917.17709	0.00639
5915.24841	0.00640
5913.31973	0.00643
5911.39106	0.00646
5909.46238	0.00647
5907.53371	0.00647
5905.60503	0.00648
5903.67636	0.00650
5901.74768	0.00652
5899.81900	0.00652
5897.89033	0.00652
5895.96165	0.00654
5894.03298	0.00658
5892.10430	0.00661
5890.17563	0.00660
5888.24695	0.00659
5886.31827	0.00660
5884.38960	0.00659
5882.46092	0.00659
5880.53225	0.00661
5878.60357	0.00665
5876.67490	0.00668
5874.74622	0.00670
5872.81755	0.00671
5870.88887	0.00672
5868.96019	0.00674
5867.03152	0.00675
5865.10284	0.00677
5863.17417	0.00678
5861.24549	0.00680
5859.31682	0.00681
5857.38814	0.00680
5855.45946	0.00679
5853.53079	0.00681
5851.60211	0.00684
5849.67344	0.00687
5847.74476	0.00689
5845.81609	0.00690
5843.88741	0.00691
5841.95873	0.00691
5840.03006	0.00693
5838.10138	0.00696
5836.17271	0.00698
5834.24403	0.00700
5832.31536	0.00702
5830.38668	0.00702
5828.45800	0.00703
5826.52933	0.00705
5824.60065	0.00707
5822.67198	0.00709
5820.74330	0.00709
5818.81463	0.00711
5816.88595	0.00714
5814.95727	0.00716
5813.02860	0.00716
5811.09992	0.00716
5809.17125	0.00717
5807.24257	0.00719
5805.31390	0.00720
5803.38522	0.00721
5801.45654	0.00724
5799.52787	0.00727
5797.59919	0.00728
5795.67052	0.00727
5793.74184	0.00729
5791.81317	0.00733
5789.88449	0.00736
5787.95581	0.00738
5786.02714	0.00738
5784.09846	0.00738
5782.16979	0.00738
5780.24111	0.00739
5778.31244	0.00740
5776.38376	0.00741
5774.45508	0.00742
5772.52641	0.00743
5770.59773	0.00744
5768.66906	0.00747
5766.74038	0.00750
5764.81171	0.00753
5762.88303	0.00755
5760.95435	0.00756
5759.02568	0.00757
5757.09700	0.00758
5755.16833	0.00759
5753.23965	0.00760
5751.31098	0.00762
5749.38230	0.00764
5747.45362	0.00765
5745.52495	0.00765
5743.59627	0.00766
5741.66760	0.00769
5739.73892	0.00771
5737.81025	0.00773
5735.88157	0.00776
5733.95289	0.00776
5732.02422	0.00776
5730.09554	0.00778
5728.16687	0.00780
5726.23819	0.00782
5724.30952	0.00785
5722.38084	0.00787
5720.45216	0.00787
5718.52349	0.00787
5716.59481	0.00789
5714.66614	0.00793
5712.73746	0.00795
5710.80879	0.00795
5708.88011	0.00795
5706.95143	0.00797
5705.02276	0.00800
5703.09408	0.00802
5701.16541	0.00804
5699.23673	0.00806
5697.30806	0.00808
5695.37938	0.00810
5693.45070	0.00811
5691.52203	0.00812
5689.59335	0.00814
5687.66468	0.00816
5685.73600	0.00818
5683.80733	0.00819
5681.87865	0.00821
5679.94997	0.00823
5678.02130	0.00823
5676.09262	0.00823
5674.16395	0.00826
5672.23527	0.00829
5670.30660	0.00831
5668.37792	0.00831
5666.44924	0.00832
5664.52057	0.00834
5662.59189	0.00835
5660.66322	0.00839
5658.73454	0.00841
5656.80587	0.00841
5654.87719	0.00840
5652.94851	0.00841
5651.01984	0.00844
5649.09116	0.00846
5647.16249	0.00848
5645.23381	0.00849
5643.30514	0.00851
5641.37646	0.00852
5639.44778	0.00856
5637.51911	0.00861
5635.59043	0.00863
5633.66176	0.00864
5631.73308	0.00864
5629.80441	0.00866
5627.87573	0.00868
5625.94705	0.00868
5624.01838	0.00867
5622.08970	0.00869
5620.16103	0.00871
5618.23235	0.00874
5616.30368	0.00877
5614.37500	0.00879
5612.44632	0.00880
5610.51765	0.00883
5608.58897	0.00885
5606.66030	0.00886
5604.73162	0.00886
5602.80295	0.00887
5600.87427	0.00888
5598.94559	0.00891
5597.01692	0.00893
5595.08824	0.00893
5593.15957	0.00894
5591.23089	0.00895
5589.30222	0.00896
5587.37354	0.00897
5585.44486	0.00899
5583.51619	0.00902
5581.58751	0.00905
5579.65884	0.00908
5577.73016	0.00911
5575.80149	0.00913
5573.87281	0.00913
5571.94413	0.00914
5570.01546	0.00917
5568.08678	0.00920
5566.15811	0.00921
5564.22943	0.00922
5562.30076	0.00925
5560.37208	0.00928
5558.44340	0.00929
5556.51473	0.00930
5554.58605	0.00932
5552.65738	0.00934
5550.72870	0.00936
5548.80003	0.00937
5546.87135	0.00938
5544.94267	0.00939
5543.01400	0.00941
5541.08532	0.00943
5539.15665	0.00944
5537.22797	0.00945
5535.29930	0.00946
5533.37062	0.00948
5531.44194	0.00950
5529.51327	0.00954
5527.58459	0.00957
5525.65592	0.00958
5523.72724	0.00960
5521.79857	0.00962
5519.86989	0.00965
5517.94121	0.00967
5516.01254	0.00968
5514.08386	0.00970
5512.15519	0.00973
5510.22651	0.00973
5508.29784	0.00973
5506.36916	0.00976
5504.44048	0.00979
5502.51181	0.00979
5500.58313	0.00978
5498.65446	0.00980
5496.72578	0.00983
5494.79711	0.00986
5492.86843	0.00987
5490.93975	0.00989
5489.01108	0.00991
5487.08240	0.00993
5485.15373	0.00995
5483.22505	0.00997
5481.29638	0.00999
5479.36770	0.01001
5477.43902	0.01002
5475.51035	0.01005
5473.58167	0.01008
5471.65300	0.01011
5469.72432	0.01013
5467.79565	0.01015
5465.86697	0.01017
5463.93829	0.01017
5462.00962	0.01018
5460.08094	0.01020
5458.15227	0.01023
5456.22359	0.01025
5454.29492	0.01026
5452.36624	0.01027
5450.43756	0.01029
5448.50889	0.01031
5446.58021	0.01031
5444.65154	0.01032
5442.72286	0.01034
5440.79419	0.01040
5438.86551	0.01045
5436.93683	0.01046
5435.00816	0.01045
5433.07948	0.01045
5431.15081	0.01045
5429.22213	0.01046
5427.29346	0.01048
5425.36478	0.01051
5423.43610	0.01053
5421.50743	0.01057
5419.57875	0.01062
5417.65008	0.01064
5415.72140	0.01064
5413.79273	0.01063
5411.86405	0.01064
5409.93537	0.01067
5408.00670	0.01071
5406.07802	0.01076
5404.14935	0.01079
5402.22067	0.01081
5400.29200	0.01083
5398.36332	0.01085
5396.43464	0.01085
5394.50597	0.01087
5392.57729	0.01090
5390.64862	0.01092
5388.71994	0.01093
5386.79127	0.01093
5384.86259	0.01095
5382.93391	0.01098
5381.00524	0.01100
5379.07656	0.01101
5377.14789	0.01102
5375.21921	0.01104
5373.29054	0.01108
5371.36186	0.01112
5369.43318	0.01114
5367.50451	0.01117
5365.57583	0.01118
5363.64716	0.01119
5361.71848	0.01122
5359.78981	0.01124
5357.86113	0.01125
5355.93245	0.01127
5354.00378	0.01129
5352.07510	0.01133
5350.14643	0.01135
5348.21775	0.01134
5346.28908	0.01132
5344.36040	0.01133
5342.43172	0.01138
5340.50305	0.01143
5338.57437	0.01145
5336.64570	0.01146
5334.71702	0.01148
5332.78835	0.01150
5330.85967	0.01152
5328.93099	0.01152
5327.00232	0.01154
5325.07364	0.01159
5323.14497	0.01162
5321.21629	0.01164
5319.28762	0.01165
5317.35894	0.01168
5315.43026	0.01172
5313.50159	0.01176
5311.57291	0.01176
5309.64424	0.01174
5307.71556	0.01173
5305.78689	0.01176
5303.85821	0.01179
5301.92953	0.01182
5300.00086	0.01185
5298.07218	0.01188
5296.14351	0.01191
5294.21483	0.01194
5292.28616	0.01195
5290.35748	0.01194
5288.42880	0.01195
5286.50013	0.01197
5284.57145	0.01201
5282.64278	0.01205
5280.71410	0.01208
5278.78543	0.01210
5276.85675	0.01213
5274.92807	0.01216
5272.99940	0.01217
5271.07072	0.01216
5269.14205	0.01218
5267.21337	0.01220
5265.28470	0.01221
5263.35602	0.01224
5261.42734	0.01228
5259.49867	0.01232
5257.56999	0.01233
5255.64132	0.01232
5253.71264	0.01234
5251.78397	0.01238
5249.85529	0.01241
5247.92661	0.01242
5245.99794	0.01242
5244.06926	0.01244
5242.14059	0.01248
5240.21191	0.01253
5238.28324	0.01256
5236.35456	0.01258
5234.42588	0.01260
5232.49721	0.01263
5230.56853	0.01265
5228.63986	0.01266
5226.71118	0.01266
5224.78251	0.01268
5222.85383	0.01272
5220.92515	0.01276
5218.99648	0.01279
5217.06780	0.01280
5215.13913	0.01279
5213.21045	0.01279
5211.28178	0.01281
5209.35310	0.01284
5207.42442	0.01285
5205.49575	0.01289
5203.56707	0.01293
5201.63840	0.01297
5199.70972	0.01298
5197.78105	0.01299
5195.85237	0.01301
5193.92369	0.01304
5191.99502	0.01307
5190.06634	0.01309
5188.13767	0.01311
5186.20899	0.01311
5184.28032	0.01312
5182.35164	0.01315
5180.42296	0.01320
5178.49429	0.01323
5176.56561	0.01326
5174.63694	0.01328
5172.70826	0.01330
5170.77959	0.01332
5168.85091	0.01333
5166.92223	0.01333
5164.99356	0.01335
5163.06488	0.01338
5161.13621	0.01342
5159.20753	0.01344
5157.27886	0.01347
5155.35018	0.01351
5153.42150	0.01355
5151.49283	0.01357
5149.56415	0.01359
5147.63548	0.01361
5145.70680	0.01361
5143.77813	0.01361
5141.84945	0.01365
5139.92077	0.01370
5137.99210	0.01374
5136.06342	0.01375
5134.13475	0.01377
5132.20607	0.01380
5130.27740	0.01383
5128.34872	0.01385
5126.42004	0.01386
5124.49137	0.01388
5122.56269	0.01390
5120.63402	0.01393
5118.70534	0.01395
5116.77667	0.01397
5114.84799	0.01401
5112.91931	0.01404
5110.99064	0.01405
5109.06196	0.01406
5107.13329	0.01408
5105.20461	0.01411
5103.27594	0.01414
5101.34726	0.01416
5099.41858	0.01417
5097.48991	0.01420
5095.56123	0.01423
5093.63256	0.01425
5091.70388	0.01426
5089.77521	0.01429
5087.84653	0.01432
5085.91785	0.01434
5083.98918	0.01436
5082.06050	0.01437
5080.13183	0.01439
5078.20315	0.01442
5076.27448	0.01446
5074.34580	0.01450
5072.41712	0.01454
5070.48845	0.01457
5068.55977	0.01458
5066.63110	0.01460
5064.70242	0.01463
5062.77375	0.01466
5060.84507	0.01468
5058.91639	0.01469
5056.98772	0.01471
5055.05904	0.01474
5053.13037	0.01476
5051.20169	0.01478
5049.27302	0.01481
5047.34434	0.01485
5045.41566	0.01487
5043.48699	0.01488
5041.55831	0.01490
5039.62964	0.01492
5037.70096	0.01495
5035.77229	0.01497
5033.84361	0.01499
5031.91493	0.01500
5029.98626	0.01499
5028.05758	0.01501
5026.12891	0.01506
5024.20023	0.01511
5022.27156	0.01513
5020.34288	0.01516
5018.41420	0.01519
5016.48553	0.01522
5014.55685	0.01523
5012.62818	0.01525
5010.69950	0.01528
5008.77083	0.01529
5006.84215	0.01532
5004.91347	0.01535
5002.98480	0.01537
5001.05612	0.01540
4999.12745	0.01542
4997.19877	0.01544
4995.27010	0.01546
4993.34142	0.01548
4991.41274	0.01550
4989.48407	0.01553
4987.55539	0.01556
4985.62672	0.01560
4983.69804	0.01564
4981.76937	0.01569
4979.84069	0.01572
4977.91201	0.01574
4975.98334	0.01577
4974.05466	0.01579
4972.12599	0.01580
4970.19731	0.01582
4968.26864	0.01585
4966.33996	0.01588
4964.41128	0.01591
4962.48261	0.01591
4960.55393	0.01590
4958.62526	0.01590
4956.69658	0.01594
4954.76791	0.01599
4952.83923	0.01604
4950.91055	0.01607
4948.98188	0.01610
4947.05320	0.01613
4945.12453	0.01615
4943.19585	0.01617
4941.26718	0.01619
4939.33850	0.01621
4937.40982	0.01623
4935.48115	0.01626
4933.55247	0.01630
4931.62380	0.01633
4929.69512	0.01634
4927.76645	0.01636
4925.83777	0.01639
4923.90909	0.01643
4921.98042	0.01647
4920.05174	0.01649
4918.12307	0.01651
4916.19439	0.01653
4914.26572	0.01654
4912.33704	0.01656
4910.40836	0.01658
4908.47969	0.01661
4906.55101	0.01664
4904.62234	0.01667
4902.69366	0.01670
4900.76499	0.01672
4898.83631	0.01673
4896.90763	0.01676
4894.97896	0.01680
4893.05028	0.01685
4891.12161	0.01688
4889.19293	0.01691
4887.26426	0.01694
4885.33558	0.01697
4883.40690	0.01699
4881.47823	0.01700
4879.54955	0.01703
4877.62088	0.01706
4875.69220	0.01709
4873.76353	0.01712
4871.83485	0.01713
4869.90617	0.01715
4867.97750	0.01717
4866.04882	0.01721
4864.12015	0.01725
4862.19147	0.01728
4860.26280	0.01730
4858.33412	0.01734
4856.40544	0.01738
4854.47677	0.01740
4852.54809	0.01740
4850.61942	0.01743
4848.69074	0.01746
4846.76207	0.01749
4844.83339	0.01750
4842.90471	0.01753
4840.97604	0.01756
4839.04736	0.01759
4837.11869	0.01763
4835.19001	0.01766
4833.26134	0.01769
4831.33266	0.01770
4829.40398	0.01773
4827.47531	0.01778
4825.54663	0.01782
4823.61796	0.01785
4821.68928	0.01788
4819.76061	0.01790
4817.83193	0.01791
4815.90325	0.01793
4813.97458	0.01795
4812.04590	0.01798
4810.11723	0.01801
4808.18855	0.01805
4806.25988	0.01809
4804.33120	0.01814
4802.40252	0.01818
4800.47385	0.01822
4798.54517	0.01823
4796.61650	0.01823
4794.68782	0.01825
4792.75915	0.01827
4790.83047	0.01831
4788.90179	0.01835
4786.97312	0.01838
4785.04444	0.01841
4783.11577	0.01844
4781.18709	0.01846
4779.25842	0.01850
4777.32974	0.01854
4775.40106	0.01856
4773.47239	0.01859
4771.54371	0.01861
4769.61504	0.01863
4767.68636	0.01866
4765.75769	0.01870
4763.82901	0.01873
4761.90033	0.01877
4759.97166	0.01881
4758.04298	0.01884
4756.11431	0.01887
4754.18563	0.01888
4752.25696	0.01890
4750.32828	0.01893
4748.39960	0.01897
4746.47093	0.01901
4744.54225	0.01904
4742.61358	0.01905
4740.68490	0.01907
4738.75623	0.01912
4736.82755	0.01916
4734.89887	0.01917
4732.97020	0.01918
4731.04152	0.01921
4729.11285	0.01925
4727.18417	0.01930
4725.25550	0.01935
4723.32682	0.01940
4721.39814	0.01942
4719.46947	0.01945
4717.54079	0.01947
4715.61212	0.01949
4713.68344	0.01951
4711.75477	0.01953
4709.82609	0.01957
4707.89741	0.01961
4705.96874	0.01966
4704.04006	0.01971
4702.11139	0.01975
4700.18271	0.01977
4698.25404	0.01979
4696.32536	0.01982
4694.39668	0.01985
4692.46801	0.01986
4690.53933	0.01987
4688.61066	0.01990
4686.68198	0.01995
4684.75331	0.02000
4682.82463	0.02003
4680.89595	0.02005
4678.96728	0.02007
4677.03860	0.02009
4675.10993	0.02012
4673.18125	0.02016
4671.25258	0.02021
4669.32390	0.02025
4667.39522	0.02029
4665.46655	0.02032
4663.53787	0.02035
4661.60920	0.02038
4659.68052	0.02043
4657.75185	0.02047
4655.82317	0.02050
4653.89449	0.02051
4651.96582	0.02054
4650.03714	0.02058
4648.10847	0.02062
4646.17979	0.02067
4644.25112	0.02071
4642.32244	0.02073
4640.39376	0.02075
4638.46509	0.02078
4636.53641	0.02082
4634.60774	0.02085
4632.67906	0.02089
4630.75039	0.02091
4628.82171	0.02092
4626.89303	0.02094
4624.96436	0.02100
4623.03568	0.02106
4621.10701	0.02110
4619.17833	0.02113
4617.24966	0.02117
4615.32098	0.02120
4613.39230	0.02122
4611.46363	0.02125
4609.53495	0.02129
4607.60628	0.02132
4605.67760	0.02134
4603.74893	0.02136
4601.82025	0.02139
4599.89157	0.02142
4597.96290	0.02146
4596.03422	0.02151
4594.10555	0.02155
4592.17687	0.02160
4590.24820	0.02164
4588.31952	0.02169
4586.39084	0.02172
4584.46217	0.02175
4582.53349	0.02178
4580.60482	0.02182
4578.67614	0.02186
4576.74747	0.02189
4574.81879	0.02193
4572.89011	0.02197
4570.96144	0.02200
4569.03276	0.02203
4567.10409	0.02207
4565.17541	0.02212
4563.24674	0.02217
4561.31806	0.02220
4559.38938	0.02223
4557.46071	0.02225
4555.53203	0.02228
4553.60336	0.02233
4551.67468	0.02238
4549.74601	0.02242
4547.81733	0.02246
4545.88865	0.02250
4543.95998	0.02252
4542.03130	0.02255
4540.10263	0.02260
4538.17395	0.02263
4536.24528	0.02266
4534.31660	0.02268
4532.38792	0.02270
4530.45925	0.02274
4528.53057	0.02279
4526.60190	0.02284
4524.67322	0.02291
4522.74455	0.02296
4520.81587	0.02298
4518.88719	0.02301
4516.95852	0.02305
4515.02984	0.02309
4513.10117	0.02312
4511.17249	0.02315
4509.24382	0.02321
4507.31514	0.02327
4505.38646	0.02333
4503.45779	0.02337
4501.52911	0.02341
4499.60044	0.02346
4497.67176	0.02350
4495.74309	0.02352
4493.81441	0.02354
4491.88573	0.02358
4489.95706	0.02360
4488.02838	0.02361
4486.09971	0.02366
4484.17103	0.02373
4482.24236	0.02379
4480.31368	0.02384
4478.38500	0.02388
4476.45633	0.02390
4474.52765	0.02391
4472.59898	0.02393
4470.67030	0.02398
4468.74163	0.02403
4466.81295	0.02408
4464.88427	0.02411
4462.95560	0.02413
4461.02692	0.02419
4459.09825	0.02425
4457.16957	0.02430
4455.24090	0.02433
4453.31222	0.02436
4451.38354	0.02440
4449.45487	0.02446
4447.52619	0.02452
4445.59752	0.02456
4443.66884	0.02458
4441.74017	0.02462
4439.81149	0.02469
4437.88281	0.02475
4435.95414	0.02478
4434.02546	0.02481
4432.09679	0.02484
4430.16811	0.02490
4428.23944	0.02494
4426.31076	0.02497
4424.38208	0.02500
4422.45341	0.02503
4420.52473	0.02507
4418.59606	0.02513
4416.66738	0.02519
4414.73871	0.02523
4412.81003	0.02527
4410.88135	0.02530
4408.95268	0.02533
4407.02400	0.02537
4405.09533	0.02544
4403.16665	0.02551
4401.23798	0.02557
4399.30930	0.02563
4397.38062	0.02569
4395.45195	0.02571
4393.52327	0.02571
4391.59460	0.02574
4389.66592	0.02580
4387.73725	0.02586
4385.80857	0.02590
4383.87989	0.02593
4381.95122	0.02596
4380.02254	0.02602
4378.09387	0.02610
4376.16519	0.02616
4374.23652	0.02619
4372.30784	0.02622
4370.37916	0.02627
4368.45049	0.02631
4366.52181	0.02635
4364.59314	0.02642
4362.66446	0.02649
4360.73579	0.02653
4358.80711	0.02658
4356.87843	0.02664
4354.94976	0.02668
4353.02108	0.02670
4351.09241	0.02674
4349.16373	0.02679
4347.23506	0.02685
4345.30638	0.02690
4343.37770	0.02694
4341.44903	0.02698
4339.52035	0.02703
4337.59168	0.02709
4335.66300	0.02713
4333.73433	0.02717
4331.80565	0.02721
4329.87697	0.02728
4327.94830	0.02734
4326.01962	0.02738
4324.09095	0.02742
4322.16227	0.02747
4320.23360	0.02752
4318.30492	0.02758
4316.37624	0.02763
4314.44757	0.02768
4312.51889	0.02774
4310.59022	0.02781
4308.66154	0.02786
4306.73287	0.02790
4304.80419	0.02794
4302.87551	0.02798
4300.94684	0.02802
4299.01816	0.02806
4297.08949	0.02810
4295.16081	0.02817
4293.23214	0.02825
4291.30346	0.02831
4289.37478	0.02834
4287.44611	0.02838
4285.51743	0.02845
4283.58876	0.02853
4281.66008	0.02859
4279.73141	0.02864
4277.80273	0.02870
4275.87405	0.02875
4273.94538	0.02877
4272.01670	0.02880
4270.08803	0.02885
4268.15935	0.02890
4266.23068	0.02895
4264.30200	0.02900
4262.37332	0.02907
4260.44465	0.02913
4258.51597	0.02918
4256.58730	0.02922
4254.65862	0.02929
4252.72995	0.02936
4250.80127	0.02940
4248.87259	0.02944
4246.94392	0.02951
4245.01524	0.02960
4243.08657	0.02966
4241.15789	0.02971
4239.22922	0.02974
4237.30054	0.02978
4235.37186	0.02983
4233.44319	0.02987
4231.51451	0.02990
4229.58584	0.02994
4227.65716	0.03000
4225.72849	0.03008
4223.79981	0.03016
4221.87113	0.03024
4219.94246	0.03032
4218.01378	0.03038
4216.08511	0.03042
4214.15643	0.03044
4212.22776	0.03048
4210.29908	0.03054
4208.37040	0.03059
4206.44173	0.03065
4204.51305	0.03071
4202.58438	0.03076
4200.65570	0.03080
4198.72703	0.03086
4196.79835	0.03093
4194.86968	0.03100
4192.94100	0.03106
4191.01232	0.03111
4189.08365	0.03115
4187.15497	0.03120
4185.22630	0.03126
4183.29762	0.03134
4181.36895	0.03140
4179.44027	0.03146
4177.51159	0.03151
4175.58292	0.03156
4173.65424	0.03162
4171.72557	0.03169
4169.79689	0.03175
4167.86822	0.03180
4165.93954	0.03185
4164.01086	0.03191
4162.08219	0.03199
4160.15351	0.03208
4158.22484	0.03216
4156.29616	0.03221
4154.36749	0.03225
4152.43881	0.03231
4150.51013	0.03237
4148.58146	0.03244
4146.65278	0.03250
4144.72411	0.03257
4142.79543	0.03263
4140.86676	0.03268
4138.93808	0.03275
4137.00940	0.03284
4135.08073	0.03291
4133.15205	0.03295
4131.22338	0.03300
4129.29470	0.03306
4127.36603	0.03311
4125.43735	0.03317
4123.50867	0.03324
4121.58000	0.03332
4119.65132	0.03339
4117.72265	0.03345
4115.79397	0.03351
4113.86530	0.03358
4111.93662	0.03365
4110.00794	0.03370
4108.07927	0.03374
4106.15059	0.03380
4104.22192	0.03385
4102.29324	0.03390
4100.36457	0.03396
4098.43589	0.03404
4096.50721	0.03413
4094.57854	0.03419
4092.64986	0.03424
4090.72119	0.03430
4088.79251	0.03436
4086.86384	0.03442
4084.93516	0.03450
4083.00648	0.03457
4081.07781	0.03461
4079.14913	0.03464
4077.22046	0.03470
4075.29178	0.03479
4073.36311	0.03489
4071.43443	0.03495
4069.50575	0.03500
4067.57708	0.03505
4065.64840	0.03514
4063.71973	0.03524
4061.79105	0.03532
4059.86238	0.03540
4057.93370	0.03547
4056.00502	0.03555
4054.07635	0.03562
4052.14767	0.03567
4050.21900	0.03572
4048.29032	0.03578
4046.36165	0.03585
4044.43297	0.03593
4042.50429	0.03599
4040.57562	0.03605
4038.64694	0.03610
4036.71827	0.03616
4034.78959	0.03621
4032.86092	0.03627
4030.93224	0.03636
4029.00356	0.03645
4027.07489	0.03653
4025.14621	0.03661
4023.21754	0.03670
4021.28886	0.03677
4019.36019	0.03680
4017.43151	0.03684
4015.50283	0.03691
4013.57416	0.03698
4011.64548	0.03703
4009.71681	0.03709
4007.78813	0.03718
4005.85946	0.03729
4003.93078	0.03739
4002.00210	0.03747
4000.07343	0.03754
3998.14475	0.03760
3996.21608	0.03765
3994.28740	0.03770
3992.35873	0.03776
3990.43005	0.03784
3988.50137	0.03793
3986.57270	0.03802
3984.64402	0.03808
3982.71535	0.03814
3980.78667	0.03823
3978.85800	0.03833
3976.92932	0.03841
3975.00064	0.03848
3973.07197	0.03856
3971.14329	0.03863
3969.21462	0.03870
3967.28594	0.03877
3965.35727	0.03882
3963.42859	0.03885
3961.49991	0.03891
3959.57124	0.03900
3957.64256	0.03908
3955.71389	0.03918
3953.78521	0.03927
3951.85654	0.03931
3949.92786	0.03931
3947.99918	0.03934
3946.07051	0.03943
3944.14183	0.03951
3942.21316	0.03959
3940.28448	0.03971
3938.35581	0.03983
3936.42713	0.03989
3934.49845	0.03987
3932.56978	0.03986
3930.64110	0.03997
3928.71243	0.04012
3926.78375	0.04017
3924.85508	0.04020
3922.92640	0.04029
3920.99772	0.04038
3919.06905	0.04041
3917.14037	0.04048
3915.21170	0.04065
3913.28302	0.04084
3911.35435	0.04096
3909.42567	0.04101
3907.49699	0.04097
3905.56832	0.04086
3903.63964	0.04077
3901.71097	0.04080
3899.78229	0.04097
3897.85362	0.04122
3895.92494	0.04141
3893.99626	0.04149
3892.06759	0.04155
3890.13891	0.04164
3888.21024	0.04166
3886.28156	0.04164
3884.35289	0.04172
3882.42421	0.04186
3880.49553	0.04197
3878.56686	0.04209
3876.63818	0.04217
3874.70951	0.04216
3872.78083	0.04213
3870.85216	0.04217
3868.92348	0.04230
3866.99480	0.04244
3865.06613	0.04252
3863.13745	0.04263
3861.20878	0.04280
3859.28010	0.04291
3857.35143	0.04287
3855.42275	0.04268
3853.49407	0.04262
3851.56540	0.04286
3849.63672	0.04323
3847.70805	0.04344
3845.77937	0.04347
3843.85070	0.04343
3841.92202	0.04339
3839.99334	0.04343
3838.06467	0.04358
3836.13599	0.04378
3834.20732	0.04394
3832.27864	0.04407
3830.34997	0.04417
3828.42129	0.04424
3826.49261	0.04430
3824.56394	0.04432
3822.63526	0.04424
3820.70659	0.04424
3818.77791	0.04441
3816.84924	0.04457
3814.92056	0.04475
3812.99188	0.04498
3811.06321	0.04511
3809.13453	0.04508
3807.20586	0.04504
3805.27718	0.04509
3803.34851	0.04515
3801.41983	0.04521
3799.49115	0.04535
3797.56248	0.04550
3795.63380	0.04565
3793.70513	0.04581
3791.77645	0.04595
3789.84778	0.04606
3787.91910	0.04615
3785.99042	0.04620
3784.06175	0.04624
3782.13307	0.04626
3780.20440	0.04628
3778.27572	0.04641
3776.34705	0.04660
3774.41837	0.04673
3772.48969	0.04676
3770.56102	0.04676
3768.63234	0.04681
3766.70367	0.04691
3764.77499	0.04703
3762.84632	0.04711
3760.91764	0.04711
3758.98896	0.04712
3757.06029	0.04722
3755.13161	0.04725
3753.20294	0.04712
3751.27426	0.04701
3749.34559	0.04707
3747.41691	0.04708
3745.48823	0.04696
3743.55956	0.04713
3741.63088	0.04759
3739.70221	0.04781
3737.77353	0.04772
3735.84486	0.04769
3733.91618	0.04790
3731.98750	0.04823
3730.05883	0.04846
3728.13015	0.04851
3726.20148	0.04850
3724.27280	0.04859
3722.34413	0.04876
3720.41545	0.04895
3718.48677	0.04912
3716.55810	0.04921
3714.62942	0.04920
3712.70075	0.04914
3710.77207	0.04918
3708.84340	0.04939
3706.91472	0.04965
3704.98604	0.04979
3703.05737	0.04978
3701.12869	0.04980
3699.20002	0.04992
3697.27134	0.05004
3695.34267	0.05011
3693.41399	0.05009
3691.48531	0.04999
3689.55664	0.05002
3687.62796	0.05027
3685.69929	0.05058
3683.77061	0.05074
3681.84194	0.05075
3679.91326	0.05069
3677.98458	0.05058
3676.05591	0.05055
3674.12723	0.05074
3672.19856	0.05094
3670.26988	0.05099
3668.34121	0.05113
3666.41253	0.05141
3664.48385	0.05161
3662.55518	0.05171
3660.62650	0.05176
3658.69783	0.05174
3656.76915	0.05175
3654.84048	0.05183
3652.91180	0.05180
3650.98312	0.05159
3649.05445	0.05146
3647.12577	0.05162
3645.19710	0.05195
3643.26842	0.05223
3641.33975	0.05239
3639.41107	0.05249
3637.48239	0.05257
3635.55372	0.05261
3633.62504	0.05261
3631.69637	0.05251
3629.76769	0.05240
3627.83902	0.05252
3625.91034	0.05282
3623.98166	0.05301
3622.05299	0.05298
3620.12431	0.05288
3618.19564	0.05291
3616.26696	0.05303
3614.33829	0.05312
3612.40961	0.05318
3610.48093	0.05322
3608.55226	0.05326
3606.62358	0.05342
3604.69491	0.05361
3602.76623	0.05369
3600.83756	0.05373
3598.90888	0.05378
3596.98020	0.05381
3595.05153	0.05384
3593.12285	0.05393
3591.19418	0.05394
3589.26550	0.05382
3587.33683	0.05382
3585.40815	0.05407
3583.47947	0.05433
3581.55080	0.05445
3579.62212	0.05451
3577.69345	0.05459
3575.76477	0.05468
3573.83610	0.05478
3571.90742	0.05480
3569.97874	0.05467
3568.05007	0.05453
3566.12139	0.05463
3564.19272	0.05489
3562.26404	0.05510
3560.33537	0.05520
3558.40669	0.05529
3556.47801	0.05537
3554.54934	0.05542
3552.62066	0.05547
3550.69199	0.05553
3548.76331	0.05553
3546.83464	0.05553
3544.90596	0.05563
3542.97728	0.05577
3541.04861	0.05588
3539.11993	0.05595
3537.19126	0.05603
3535.26258	0.05611
3533.33391	0.05615
3531.40523	0.05616
3529.47655	0.05615
3527.54788	0.05616
3525.61920	0.05617
3523.69053	0.05622
3521.76185	0.05631
3519.83318	0.05638
3517.90450	0.05642
3515.97582	0.05645
3514.04715	0.05648
3512.11847	0.05650
3510.18980	0.05654
3508.26112	0.05659
3506.33245	0.05661
3504.40377	0.05661
3502.47509	0.05663
3500.54642	0.05669
3498.61774	0.05674
3496.68907	0.05678
3494.76039	0.05684
3492.83172	0.05688
3490.90304	0.05689
3488.97436	0.05688
3487.04569	0.05688
3485.11701	0.05691
3483.18834	0.05695
3481.25966	0.05701
3479.33099	0.05710
3477.40231	0.05719
3475.47363	0.05725
3473.54496	0.05733
3471.61628	0.05741
3469.68761	0.05748
3467.75893	0.05758
3465.83026	0.05769
3463.90158	0.05778
3461.97290	0.05785
3460.04423	0.05794
3458.11555	0.05805
3456.18688	0.05816
3454.25820	0.05826
3452.32953	0.05832
3450.40085	0.05834
3448.47217	0.05838
3446.54350	0.05847
3444.61482	0.05860
3442.68615	0.05875
3440.75747	0.05891
3438.82880	0.05907
3436.90012	0.05921
3434.97144	0.05933
3433.04277	0.05949
3431.11409	0.05967
3429.18542	0.05984
3427.25674	0.06003
3425.32807	0.06023
3423.39939	0.06040
3421.47071	0.06055
3419.54204	0.06071
3417.61336	0.06090
3415.68469	0.06107
3413.75601	0.06123
3411.82734	0.06136
3409.89866	0.06146
3407.96998	0.06156
3406.04131	0.06169
3404.11263	0.06182
3402.18396	0.06194
3400.25528	0.06207
3398.32661	0.06220
3396.39793	0.06232
3394.46925	0.06245
3392.54058	0.06261
3390.61190	0.06277
3388.68323	0.06291
3386.75455	0.06303
3384.82588	0.06316
3382.89720	0.06330
3380.96852	0.06343
3379.03985	0.06355
3377.11117	0.06367
3375.18250	0.06379
3373.25382	0.06392
3371.32515	0.06402
3369.39647	0.06410
3367.46779	0.06418
3365.53912	0.06432
3363.61044	0.06447
3361.68177	0.06457
3359.75309	0.06464
3357.82442	0.06474
3355.89574	0.06489
3353.96706	0.06507
3352.03839	0.06522
3350.10971	0.06535
3348.18104	0.06546
3346.25236	0.06555
3344.32369	0.06564
3342.39501	0.06574
3340.46633	0.06587
3338.53766	0.06601
3336.60898	0.06614
3334.68031	0.06625
3332.75163	0.06635
3330.82296	0.06646
3328.89428	0.06657
3326.96560	0.06670
3325.03693	0.06682
3323.10825	0.06695
3321.17958	0.06711
3319.25090	0.06727
3317.32223	0.06738
3315.39355	0.06748
3313.46487	0.06760
3311.53620	0.06771
3309.60752	0.06781
3307.67885	0.06792
3305.75017	0.06805
3303.82150	0.06814
3301.89282	0.06823
3299.96414	0.06836
3298.03547	0.06852
3296.10679	0.06864
3294.17812	0.06874
3292.24944	0.06887
3290.32077	0.06903
3288.39209	0.06916
3286.46341	0.06929
3284.53474	0.06944
3282.60606	0.06956
3280.67739	0.06968
3278.74871	0.06981
3276.82004	0.06996
3274.89136	0.07008
3272.96268	0.07020
3271.03401	0.07033
3269.10533	0.07049
3267.17666	0.07065
3265.24798	0.07076
3263.31931	0.07084
3261.39063	0.07094
3259.46195	0.07107
3257.53328	0.07120
3255.60460	0.07135
3253.67593	0.07151
3251.74725	0.07165
3249.81858	0.07176
3247.88990	0.07186
3245.96122	0.07196
3244.03255	0.07209
3242.10387	0.07223
3240.17520	0.07237
3238.24652	0.07249
3236.31785	0.07261
3234.38917	0.07275
3232.46049	0.07290
3230.53182	0.07304
3228.60314	0.07317
3226.67447	0.07331
3224.74579	0.07346
3222.81712	0.07361
3220.88844	0.07373
3218.95976	0.07383
3217.03109	0.07393
3215.10241	0.07402
3213.17374	0.07411
3211.24506	0.07425
3209.31639	0.07441
3207.38771	0.07456
3205.45903	0.07468
3203.53036	0.07480
3201.60168	0.07493
3199.67301	0.07509
3197.74433	0.07528
3195.81566	0.07544
3193.88698	0.07557
3191.95830	0.07569
3190.02963	0.07582
3188.10095	0.07594
3186.17228	0.07607
3184.24360	0.07620
3182.31493	0.07635
3180.38625	0.07648
3178.45757	0.07660
3176.52890	0.07673
3174.60022	0.07688
3172.67155	0.07702
3170.74287	0.07716
3168.81420	0.07731
3166.88552	0.07748
3164.95684	0.07763
3163.02817	0.07774
3161.09949	0.07785
3159.17082	0.07798
3157.24214	0.07813
3155.31347	0.07826
3153.38479	0.07838
3151.45611	0.07851
3149.52744	0.07865
3147.59876	0.07879
3145.67009	0.07892
3143.74141	0.07904
3141.81274	0.07919
3139.88406	0.07936
3137.95538	0.07951
3136.02671	0.07961
3134.09803	0.07972
3132.16936	0.07985
3130.24068	0.07999
3128.31201	0.08009
3126.38333	0.08020
3124.45465	0.08034
3122.52598	0.08048
3120.59730	0.08058
3118.66863	0.08070
3116.73995	0.08086
3114.81128	0.08105
3112.88260	0.08122
3110.95392	0.08136
3109.02525	0.08147
3107.09657	0.08157
3105.16790	0.08166
3103.23922	0.08176
3101.31055	0.08191
3099.38187	0.08209
3097.45319	0.08226
3095.52452	0.08240
3093.59584	0.08249
3091.66717	0.08259
3089.73849	0.08272
3087.80982	0.08289
3085.88114	0.08308
3083.95246	0.08322
3082.02379	0.08333
3080.09511	0.08345
3078.16644	0.08357
3076.23776	0.08370
3074.30909	0.08384
3072.38041	0.08398
3070.45173	0.08411
3068.52306	0.08421
3066.59438	0.08433
3064.66571	0.08448
3062.73703	0.08461
3060.80836	0.08472
3058.87968	0.08485
3056.95100	0.08500
3055.02233	0.08516
3053.09365	0.08532
3051.16498	0.08545
3049.23630	0.08556
3047.30763	0.08569
3045.37895	0.08582
3043.45027	0.08597
3041.52160	0.08610
3039.59292	0.08623
3037.66425	0.08636
3035.73557	0.08649
3033.80690	0.08661
3031.87822	0.08672
3029.94954	0.08684
3028.02087	0.08697
3026.09219	0.08711
3024.16352	0.08726
3022.23484	0.08745
3020.30617	0.08759
3018.37749	0.08769
3016.44881	0.08778
3014.52014	0.08788
3012.59146	0.08798
3010.66279	0.08810
3008.73411	0.08824
3006.80544	0.08839
3004.87676	0.08855
3002.94808	0.08871
3001.01941	0.08885
2999.09073	0.08898
2997.16206	0.08911
2995.23338	0.08924
2993.30471	0.08936
2991.37603	0.08950
2989.44735	0.08961
2987.51868	0.08969
2985.59000	0.08976
2983.66133	0.08985
2981.73265	0.08994
2979.80398	0.09003
2977.87530	0.09010
2975.94662	0.09014
2974.01795	0.09013
2972.08927	0.09012
2970.16060	0.09012
2968.23192	0.09013
2966.30325	0.09015
2964.37457	0.09020
2962.44589	0.09026
2960.51722	0.09039
2958.58854	0.09058
2956.65987	0.09076
2954.73119	0.09090
2952.80252	0.09105
2950.87384	0.09122
2948.94516	0.09137
2947.01649	0.09148
2945.08781	0.09158
2943.15914	0.09165
2941.23046	0.09170
2939.30179	0.09174
2937.37311	0.09175
2935.44443	0.09175
2933.51576	0.09174
2931.58708	0.09171
2929.65841	0.09165
2927.72973	0.09160
2925.80106	0.09156
2923.87238	0.09158
2921.94370	0.09166
2920.01503	0.09176
2918.08635	0.09191
2916.15768	0.09219
2914.22900	0.09259
2912.30033	0.09303
2910.37165	0.09343
2908.44297	0.09376
2906.51430	0.09403
2904.58562	0.09427
2902.65695	0.09451
2900.72827	0.09472
2898.79960	0.09491
2896.87092	0.09510
2894.94224	0.09527
2893.01357	0.09543
2891.08489	0.09557
2889.15622	0.09575
2887.22754	0.09593
2885.29887	0.09610
2883.37019	0.09625
2881.44151	0.09640
2879.51284	0.09654
2877.58416	0.09665
2875.65549	0.09675
2873.72681	0.09688
2871.79814	0.09705
2869.86946	0.09719
2867.94078	0.09728
2866.01211	0.09734
2864.08343	0.09738
2862.15476	0.09745
2860.22608	0.09753
2858.29741	0.09758
2856.36873	0.09758
2854.44005	0.09756
2852.51138	0.09755
2850.58270	0.09765
2848.65403	0.09793
2846.72535	0.09836
2844.79668	0.09881
2842.86800	0.09917
2840.93932	0.09945
2839.01065	0.09971
2837.08197	0.09993
2835.15330	0.10015
2833.22462	0.10034
2831.29595	0.10052
2829.36727	0.10068
2827.43859	0.10084
2825.50992	0.10098
2823.58124	0.10113
2821.65257	0.10129
2819.72389	0.10145
2817.79522	0.10162
2815.86654	0.10178
2813.93786	0.10193
2812.00919	0.10208
2810.08051	0.10224
2808.15184	0.10238
2806.22316	0.10250
2804.29449	0.10263
2802.36581	0.10279
2800.43713	0.10297
2798.50846	0.10315
2796.57978	0.10332
2794.65111	0.10348
2792.72243	0.10361
2790.79376	0.10371
2788.86508	0.10380
2786.93640	0.10392
2785.00773	0.10406
2783.07905	0.10422
2781.15038	0.10436
2779.22170	0.10450
2777.29303	0.10466
2775.36435	0.10485
2773.43567	0.10503
2771.50700	0.10519
2769.57832	0.10533
2767.64965	0.10544
2765.72097	0.10558
2763.79230	0.10575
2761.86362	0.10592
2759.93494	0.10606
2758.00627	0.10617
2756.07759	0.10630
2754.14892	0.10646
2752.22024	0.10662
2750.29157	0.10674
2748.36289	0.10684
2746.43421	0.10695
2744.50554	0.10710
2742.57686	0.10726
2740.64819	0.10740
2738.71951	0.10753
2736.79084	0.10766
2734.86216	0.10780
2732.93348	0.10793
2731.00481	0.10806
2729.07613	0.10821
2727.14746	0.10837
2725.21878	0.10851
2723.29011	0.10864
2721.36143	0.10877
2719.43275	0.10893
2717.50408	0.10910
2715.57540	0.10923
2713.64673	0.10932
2711.71805	0.10940
2709.78938	0.10950
2707.86070	0.10965
2705.93202	0.10982
2704.00335	0.11000
2702.07467	0.11017
2700.14600	0.11031
2698.21732	0.11044
2696.28865	0.11055
2694.35997	0.11067
2692.43129	0.11081
2690.50262	0.11097
2688.57394	0.11111
2686.64527	0.11121
2684.71659	0.11131
2682.78792	0.11143
2680.85924	0.11159
2678.93056	0.11176
2677.00189	0.11192
2675.07321	0.11205
2673.14454	0.11218
2671.21586	0.11234
2669.28719	0.11251
2667.35851	0.11265
2665.42983	0.11278
2663.50116	0.11293
2661.57248	0.11307
2659.64381	0.11321
2657.71513	0.11337
2655.78646	0.11351
2653.85778	0.11359
2651.92910	0.11368
2650.00043	0.11379
2648.07175	0.11393
2646.14308	0.11407
2644.21440	0.11425
2642.28573	0.11444
2640.35705	0.11462
2638.42837	0.11477
2636.49970	0.11491
2634.57102	0.11507
2632.64235	0.11524
2630.71367	0.11540
2628.78500	0.11555
2626.85632	0.11568
2624.92764	0.11580
2622.99897	0.11593
2621.07029	0.11607
2619.14162	0.11621
2617.21294	0.11636
2615.28427	0.11651
2613.35559	0.11668
2611.42691	0.11687
2609.49824	0.11705
2607.56956	0.11722
2605.64089	0.11737
2603.71221	0.11751
2601.78354	0.11763
2599.85486	0.11773
2597.92618	0.11786
2595.99751	0.11802
2594.06883	0.11818
2592.14016	0.11831
2590.21148	0.11845
2588.28281	0.11861
2586.35413	0.11879
2584.42545	0.11896
2582.49678	0.11909
2580.56810	0.11918
2578.63943	0.11929
2576.71075	0.11946
2574.78208	0.11963
2572.85340	0.11978
2570.92472	0.11993
2568.99605	0.12007
2567.06737	0.12018
2565.13870	0.12031
2563.21002	0.12044
2561.28135	0.12055
2559.35267	0.12068
2557.42399	0.12084
2555.49532	0.12099
2553.56664	0.12112
2551.63797	0.12123
2549.70929	0.12134
2547.78062	0.12147
2545.85194	0.12164
2543.92326	0.12180
2541.99459	0.12196
2540.06591	0.12213
2538.13724	0.12229
2536.20856	0.12244
2534.27989	0.12259
2532.35121	0.12273
2530.42253	0.12287
2528.49386	0.12302
2526.56518	0.12316
2524.63651	0.12327
2522.70783	0.12339
2520.77916	0.12357
2518.85048	0.12377
2516.92181	0.12396
2514.99313	0.12411
2513.06445	0.12425
2511.13578	0.12439
2509.20710	0.12454
2507.27843	0.12469
2505.34975	0.12483
2503.42108	0.12497
2501.49240	0.12515
2499.56372	0.12534
2497.63505	0.12551
2495.70637	0.12566
2493.77770	0.12581
2491.84902	0.12598
2489.92035	0.12614
2487.99167	0.12630
2486.06299	0.12647
2484.13432	0.12664
2482.20564	0.12678
2480.27697	0.12691
2478.34829	0.12706
2476.41962	0.12724
2474.49094	0.12739
2472.56226	0.12751
2470.63359	0.12764
2468.70491	0.12779
2466.77624	0.12794
2464.84756	0.12808
2462.91889	0.12825
2460.99021	0.12840
2459.06153	0.12856
2457.13286	0.12872
2455.20418	0.12888
2453.27551	0.12906
2451.34683	0.12924
2449.41816	0.12940
2447.48948	0.12955
2445.56080	0.12968
2443.63213	0.12981
2441.70345	0.12997
2439.77478	0.13014
2437.84610	0.13029
2435.91743	0.13046
2433.98875	0.13064
2432.06007	0.13077
2430.13140	0.13090
2428.20272	0.13108
2426.27405	0.13125
2424.34537	0.13138
2422.41670	0.13151
2420.48802	0.13163
2418.55934	0.13176
2416.63067	0.13191
2414.70199	0.13208
2412.77332	0.13224
2410.84464	0.13241
2408.91597	0.13257
2406.98729	0.13273
2405.05861	0.13290
2403.12994	0.13305
2401.20126	0.13318
2399.27259	0.13331
2397.34391	0.13346
2395.41524	0.13358
2393.48656	0.13369
2391.55788	0.13384
2389.62921	0.13402
2387.70053	0.13421
2385.77186	0.13438
2383.84318	0.13450
2381.91451	0.13459
2379.98583	0.13466
2378.05715	0.13471
2376.12848	0.13474
2374.19980	0.13475
2372.27113	0.13477
2370.34245	0.13485
2368.41378	0.13494
2366.48510	0.13499
2364.55642	0.13505
2362.62775	0.13519
2360.69907	0.13536
2358.77040	0.13555
2356.84172	0.13576
2354.91305	0.13601
2352.98437	0.13629
2351.05569	0.13659
2349.12702	0.13684
2347.19834	0.13695
2345.26967	0.13697
2343.34099	0.13700
2341.41232	0.13707
2339.48364	0.13721
2337.55496	0.13742
2335.62629	0.13761
2333.69761	0.13773
2331.76894	0.13783
2329.84026	0.13799
2327.91159	0.13818
2325.98291	0.13838
2324.05423	0.13858
2322.12556	0.13879
2320.19688	0.13901
2318.26821	0.13924
2316.33953	0.13945
2314.41086	0.13964
2312.48218	0.13980
2310.55350	0.13998
2308.62483	0.14018
2306.69615	0.14037
2304.76748	0.14054
2302.83880	0.14073
2300.91013	0.14091
2298.98145	0.14108
2297.05277	0.14127
2295.12410	0.14145
2293.19542	0.14157
2291.26675	0.14168
2289.33807	0.14181
2287.40940	0.14195
2285.48072	0.14210
2283.55204	0.14227
2281.62337	0.14246
2279.69469	0.14265
2277.76602	0.14283
2275.83734	0.14298
2273.90867	0.14308
2271.97999	0.14320
2270.05131	0.14336
2268.12264	0.14354
2266.19396	0.14367
2264.26529	0.14380
2262.33661	0.14397
2260.40794	0.14418
2258.47926	0.14436
2256.55058	0.14451
2254.62191	0.14465
2252.69323	0.14480
2250.76456	0.14493
2248.83588	0.14509
2246.90721	0.14530
2244.97853	0.14550
2243.04985	0.14564
2241.12118	0.14574
2239.19250	0.14585
2237.26383	0.14599
2235.33515	0.14613
2233.40648	0.14626
2231.47780	0.14641
2229.54912	0.14657
2227.62045	0.14671
2225.69177	0.14685
2223.76310	0.14702
2221.83442	0.14720
2219.90575	0.14737
2217.97707	0.14754
2216.04839	0.14768
2214.11972	0.14778
2212.19104	0.14792
2210.26237	0.14807
2208.33369	0.14821
2206.40502	0.14835
2204.47634	0.14849
2202.54766	0.14866
2200.61899	0.14884
2198.69031	0.14900
2196.76164	0.14916
2194.83296	0.14931
2192.90429	0.14944
2190.97561	0.14958
2189.04693	0.14975
2187.11826	0.14988
2185.18958	0.15000
2183.26091	0.15015
2181.33223	0.15031
2179.40356	0.15048
2177.47488	0.15063
2175.54620	0.15077
2173.61753	0.15091
2171.68885	0.15108
2169.76018	0.15122
2167.83150	0.15136
2165.90283	0.15150
2163.97415	0.15166
2162.04547	0.15182
2160.11680	0.15198
2158.18812	0.15215
2156.25945	0.15232
2154.33077	0.15250
2152.40210	0.15268
2150.47342	0.15282
2148.54474	0.15292
2146.61607	0.15303
2144.68739	0.15317
2142.75872	0.15332
2140.83004	0.15349
2138.90137	0.15368
2136.97269	0.15386
2135.04401	0.15403
2133.11534	0.15421
2131.18666	0.15437
2129.25799	0.15453
2127.32931	0.15469
2125.40064	0.15482
2123.47196	0.15495
2121.54328	0.15511
2119.61461	0.15528
2117.68593	0.15544
2115.75726	0.15556
2113.82858	0.15569
2111.89991	0.15584
2109.97123	0.15600
2108.04255	0.15612
2106.11388	0.15625
2104.18520	0.15643
2102.25653	0.15665
2100.32785	0.15682
2098.39918	0.15693
2096.47050	0.15705
2094.54182	0.15725
2092.61315	0.15744
2090.68447	0.15758
2088.75580	0.15768
2086.82712	0.15779
2084.89845	0.15791
2082.96977	0.15807
2081.04109	0.15825
2079.11242	0.15843
2077.18374	0.15859
2075.25507	0.15876
2073.32639	0.15893
2071.39772	0.15907
2069.46904	0.15922
2067.54036	0.15935
2065.61169	0.15946
2063.68301	0.15961
2061.75434	0.15980
2059.82566	0.15996
2057.89699	0.16014
2055.96831	0.16031
2054.03963	0.16046
2052.11096	0.16061
2050.18228	0.16075
2048.25361	0.16088
2046.32493	0.16099
2044.39626	0.16110
2042.46758	0.16122
2040.53890	0.16140
2038.61023	0.16162
2036.68155	0.16182
2034.75288	0.16201
2032.82420	0.16219
2030.89553	0.16235
2028.96685	0.16249
2027.03817	0.16265
2025.10950	0.16282
2023.18082	0.16297
2021.25215	0.16308
2019.32347	0.16317
2017.39480	0.16330
2015.46612	0.16348
2013.53744	0.16367
2011.60877	0.16384
2009.68009	0.16399
2007.75142	0.16414
2005.82274	0.16432
2003.89407	0.16453
2001.96539	0.16471
2000.03671	0.16484
1998.10804	0.16493
1996.17936	0.16501
1994.25069	0.16506
1992.32201	0.16511
1990.39334	0.16526
1988.46466	0.16548
1986.53598	0.16567
1984.60731	0.16585
1982.67863	0.16602
1980.74996	0.16615
1978.82128	0.16625
1976.89261	0.16635
1974.96393	0.16647
1973.03525	0.16660
1971.10658	0.16670
1969.17790	0.16674
1967.24923	0.16683
1965.32055	0.16707
1963.39188	0.16734
1961.46320	0.16749
1959.53452	0.16756
1957.60585	0.16767
1955.67717	0.16782
1953.74850	0.16800
1951.81982	0.16818
1949.89115	0.16836
1947.96247	0.16849
1946.03379	0.16856
1944.10512	0.16861
1942.17644	0.16876
1940.24777	0.16906
1938.31909	0.16932
1936.39042	0.16945
1934.46174	0.16954
1932.53306	0.16968
1930.60439	0.16984
1928.67571	0.16999
1926.74704	0.17013
1924.81836	0.17025
1922.88969	0.17032
1920.96101	0.17029
1919.03233	0.17017
1917.10366	0.17030
1915.17498	0.17076
1913.24631	0.17111
1911.31763	0.17120
1909.38896	0.17128
1907.46028	0.17149
1905.53160	0.17173
1903.60293	0.17194
1901.67425	0.17215
1899.74558	0.17234
1897.81690	0.17243
1895.88823	0.17248
1893.95955	0.17258
1892.03087	0.17268
1890.10220	0.17276
1888.17352	0.17294
1886.24485	0.17320
1884.31617	0.17338
1882.38750	0.17350
1880.45882	0.17365
1878.53014	0.17383
1876.60147	0.17402
1874.67279	0.17416
1872.74412	0.17416
1870.81544	0.17402
1868.88677	0.17394
1866.95809	0.17418
1865.02941	0.17462
1863.10074	0.17498
1861.17206	0.17522
1859.24339	0.17543
1857.31471	0.17562
1855.38604	0.17576
1853.45736	0.17589
1851.52868	0.17600
1849.60001	0.17597
1847.67133	0.17573
1845.74266	0.17538
1843.81398	0.17547
1841.88531	0.17617
1839.95663	0.17677
1838.02795	0.17695
1836.09928	0.17709
1834.17060	0.17728
1832.24193	0.17730
1830.31325	0.17721
1828.38458	0.17721
1826.45590	0.17729
1824.52722	0.17754
1822.59855	0.17802
1820.66987	0.17837
1818.74120	0.17849
1816.81252	0.17860
1814.88385	0.17872
1812.95517	0.17875
1811.02649	0.17881
1809.09782	0.17903
1807.16914	0.17928
1805.24047	0.17936
1803.31179	0.17918
1801.38312	0.17904
1799.45444	0.17926
1797.52576	0.17961
1795.59709	0.17975
1793.66841	0.17966
1791.73974	0.17971
1789.81106	0.18005
1787.88239	0.18032
1785.95371	0.18033
1784.02503	0.18036
1782.09636	0.18050
1780.16768	0.18071
1778.23901	0.18092
1776.31033	0.18099
1774.38166	0.18087
1772.45298	0.18072
1770.52430	0.18079
1768.59563	0.18108
1766.66695	0.18144
1764.73828	0.18163
1762.80960	0.18157
1760.88093	0.18156
1758.95225	0.18170
1757.02357	0.18185
1755.09490	0.18181
1753.16622	0.18131
1751.23755	0.18077
1749.30887	0.18080
1747.38020	0.18110
1745.45152	0.18124
1743.52284	0.18125
1741.59417	0.18126
1739.66549	0.18140
1737.73682	0.18156
1735.80814	0.18143
1733.87947	0.18135
1731.95079	0.18174
1730.02211	0.18227
1728.09344	0.18263
1726.16476	0.18279
1724.23609	0.18284
1722.30741	0.18288
1720.37874	0.18271
1718.45006	0.18240
1716.52138	0.18244
1714.59271	0.18291
1712.66403	0.18341
1710.73536	0.18370
1708.80668	0.18373
1706.87801	0.18351
1704.94933	0.18317
1703.02065	0.18252
1701.09198	0.18185
1699.16330	0.18207
1697.23463	0.18286
1695.30595	0.18351
1693.37728	0.18406
1691.44860	0.18428
1689.51992	0.18412
1687.59125	0.18372
1685.66257	0.18320
1683.73390	0.18318
1681.80522	0.18377
1679.87655	0.18430
1677.94787	0.18444
1676.01919	0.18438
1674.09052	0.18432
1672.16184	0.18409
1670.23317	0.18378
1668.30449	0.18402
1666.37582	0.18460
1664.44714	0.18473
1662.51846	0.18467
1660.58979	0.18490
1658.66111	0.18504
1656.73244	0.18450
1654.80376	0.18358
1652.87509	0.18346
1650.94641	0.18416
1649.01773	0.18440
1647.08906	0.18417
1645.16038	0.18445
1643.23171	0.18508
1641.30303	0.18538
1639.37436	0.18518
1637.44568	0.18459
1635.51700	0.18430
1633.58833	0.18486
1631.65965	0.18555
1629.73098	0.18565
1627.80230	0.18543
1625.87363	0.18513
1623.94495	0.18473
1622.01627	0.18456
1620.08760	0.18474
1618.15892	0.18503
1616.23025	0.18555
1614.30157	0.18628
1612.37290	0.18684
1610.44422	0.18712
1608.51554	0.18732
1606.58687	0.18755
1604.65819	0.18775
1602.72952	0.18792
1600.80084	0.18815
1598.87217	0.18838
1596.94349	0.18851
1595.01481	0.18866
1593.08614	0.18887
1591.15746	0.18908
1589.22879	0.18924
1587.30011	0.18940
1585.37144	0.18955
1583.44276	0.18969
1581.51408	0.18979
1579.58541	0.18966
1577.65673	0.18933
1575.72806	0.18938
1573.79938	0.18987
1571.87071	0.19000
1569.94203	0.18977
1568.01335	0.18985
1566.08468	0.19018
1564.15600	0.19038
1562.22733	0.19018
1560.29865	0.18937
1558.36998	0.18881
1556.44130	0.18940
1554.51262	0.19044
1552.58395	0.19091
1550.65527	0.19096
1548.72660	0.19112
1546.79792	0.19117
1544.86925	0.19067
1542.94057	0.19007
1541.01189	0.19003
1539.08322	0.19064
1537.15454	0.19129
1535.22587	0.19143
1533.29719	0.19149
1531.36852	0.19189
1529.43984	0.19216
1527.51116	0.19204
1525.58249	0.19181
1523.65381	0.19149
1521.72514	0.19134
1519.79646	0.19160
1517.86779	0.19190
1515.93911	0.19206
1514.01043	0.19230
1512.08176	0.19232
1510.15308	0.19172
1508.22441	0.19097
1506.29573	0.19121
1504.36706	0.19237
1502.43838	0.19302
1500.50970	0.19275
1498.58103	0.19243
1496.65235	0.19263
1494.72368	0.19306
1492.79500	0.19308
1490.86633	0.19268
1488.93765	0.19241
1487.00897	0.19258
1485.08030	0.19293
1483.15162	0.19303
1481.22295	0.19284
1479.29427	0.19240
1477.36560	0.19174
1475.43692	0.19111
1473.50824	0.19064
1471.57957	0.19053
1469.65089	0.19082
1467.72222	0.19088
1465.79354	0.19053
1463.86487	0.19035
1461.93619	0.19027
1460.00751	0.18952
1458.07884	0.18828
1456.15016	0.18798
1454.22149	0.18887
1452.29281	0.18966
1450.36414	0.18984
1448.43546	0.18982
1446.50678	0.18994
1444.57811	0.19019
1442.64943	0.19040
1440.72076	0.19036
1438.79208	0.18980
1436.86341	0.18933
1434.93473	0.18977
1433.00605	0.19051
1431.07738	0.19081
1429.14870	0.19097
1427.22003	0.19118
1425.29135	0.19127
1423.36268	0.19126
1421.43400	0.19104
1419.50532	0.19062
1417.57665	0.19055
1415.64797	0.19098
1413.71930	0.19140
1411.79062	0.19152
1409.86195	0.19152
1407.93327	0.19146
1406.00459	0.19136
1404.07592	0.19131
1402.14724	0.19123
1400.21857	0.19098
1398.28989	0.19066
1396.36122	0.19032
1394.43254	0.19025
1392.50386	0.19061
1390.57519	0.19075
1388.64651	0.19033
1386.71784	0.18999
1384.78916	0.19004
1382.86049	0.19020
1380.93181	0.19031
1379.00313	0.19033
1377.07446	0.19019
1375.14578	0.19003
1373.21711	0.19006
1371.28843	0.19017
1369.35976	0.19020
1367.43108	0.19018
1365.50240	0.18998
1363.57373	0.18970
1361.64505	0.18979
1359.71638	0.19013
1357.78770	0.19028
1355.85903	0.19027
1353.93035	0.19034
1352.00167	0.19049
1350.07300	0.19064
1348.14432	0.19074
1346.21565	0.19081
1344.28697	0.19079
1342.35830	0.19053
1340.42962	0.19021
1338.50094	0.19014
1336.57227	0.19029
1334.64359	0.19042
1332.71492	0.19043
1330.78624	0.19039
1328.85757	0.19033
1326.92889	0.19022
1325.00021	0.19005
1323.07154	0.18985
1321.14286	0.18960
1319.21419	0.18933
1317.28551	0.18910
1315.35684	0.18889
1313.42816	0.18868
1311.49948	0.18858
1309.57081	0.18849
1307.64213	0.18828
1305.71346	0.18801
1303.78478	0.18780
1301.85611	0.18763
1299.92743	0.18746
1297.99875	0.18726
1296.07008	0.18707
1294.14140	0.18692
1292.21273	0.18677
1290.28405	0.18655
1288.35538	0.18632
1286.42670	0.18612
1284.49802	0.18594
1282.56935	0.18573
1280.64067	0.18549
1278.71200	0.18522
1276.78332	0.18486
1274.85465	0.18445
1272.92597	0.18399
1270.99729	0.18342
1269.06862	0.18262
1267.13994	0.18171
1265.21127	0.18091
1263.28259	0.18037
1261.35392	0.18016
1259.42524	0.18023
1257.49656	0.18045
1255.56789	0.18068
1253.63921	0.18074
1251.71054	0.18060
1249.78186	0.18033
1247.85319	0.18002
1245.92451	0.17968
1243.99583	0.17930
1242.06716	0.17886
1240.13848	0.17838
1238.20981	0.17786
1236.28113	0.17735
1234.35246	0.17683
1232.42378	0.17628
1230.49510	0.17572
1228.56643	0.17519
1226.63775	0.17471
1224.70908	0.17425
1222.78040	0.17375
1220.85173	0.17324
1218.92305	0.17278
1216.99437	0.17238
1215.06570	0.17194
1213.13702	0.17142
1211.20835	0.17086
1209.27967	0.17028
1207.35100	0.16969
1205.42232	0.16916
1203.49364	0.16868
1201.56497	0.16815
1199.63629	0.16757
1197.70762	0.16698
1195.77894	0.16640
1193.85027	0.16584
1191.92159	0.16524
1189.99291	0.16458
1188.06424	0.16392
1186.13556	0.16327
1184.20689	0.16256
1182.27821	0.16178
1180.34954	0.16095
1178.42086	0.16015
1176.49218	0.15939
1174.56351	0.15863
1172.63483	0.15782
1170.70616	0.15697
1168.77748	0.15616
1166.84881	0.15539
1164.92013	0.15461
1162.99145	0.15382
1161.06278	0.15302
1159.13410	0.15223
1157.20543	0.15149
1155.27675	0.15075
1153.34808	0.15001
1151.41940	0.14924
1149.49072	0.14849
1147.56205	0.14775
1145.63337	0.14702
1143.70470	0.14625
1141.77602	0.14543
1139.84735	0.14452
1137.91867	0.14345
1135.98999	0.14221
1134.06132	0.14087
1132.13264	0.13944
1130.20397	0.13779
1128.27529	0.13584
1126.34662	0.13371
1124.41794	0.13158
1122.48926	0.12944
1120.56059	0.12721
1118.63191	0.12503
1116.70324	0.12309
1114.77456	0.12141
1112.84589	0.11992
1110.91721	0.11855
1108.98853	0.11747
1107.05986	0.11679
1105.13118	0.11638
1103.20251	0.11618
1101.27383	0.11628
1099.34516	0.11667
1097.41648	0.11727
1095.48780	0.11800
1093.55913	0.11880
1091.63045	0.11963
1089.70178	0.12040
1087.77310	0.12107
1085.84443	0.12167
1083.91575	0.12214
1081.98707	0.12245
1080.05840	0.12265
1078.12972	0.12283
1076.20105	0.12299
1074.27237	0.12319
1072.34370	0.12342
1070.41502	0.12360
1068.48634	0.12371
1066.55767	0.12379
1064.62899	0.12386
1062.70032	0.12393
1060.77164	0.12410
1058.84297	0.12440
1056.91429	0.12472
1054.98561	0.12499
1053.05694	0.12525
1051.12826	0.12559
1049.19959	0.12595
1047.27091	0.12626
1045.34224	0.12657
1043.41356	0.12699
1041.48488	0.12747
1039.55621	0.12790
1037.62753	0.12821
1035.69886	0.12846
1033.77018	0.12878
1031.84151	0.12916
1029.91283	0.12954
1027.98415	0.12986
1026.05548	0.13016
1024.12680	0.13047
1022.19813	0.13078
1020.26945	0.13108
1018.34078	0.13149
1016.41210	0.13206
1014.48342	0.13266
1012.55475	0.13324
1010.62607	0.13379
1008.69740	0.13430
1006.76872	0.13480
1004.84005	0.13529
1002.91137	0.13574
1000.98269	0.13612
999.05402	0.13647
997.12534	0.13675
995.19667	0.13689
993.26799	0.13689
991.33932	0.13685
989.41064	0.13686
987.48196	0.13695
985.55329	0.13706
983.62461	0.13708
981.69594	0.13698
979.76726	0.13683
977.83859	0.13668
975.90991	0.13657
973.98123	0.13645
972.05256	0.13630
970.12388	0.13613
968.19521	0.13597
966.26653	0.13585
964.33786	0.13576
962.40918	0.13565
960.48050	0.13548
958.55183	0.13528
956.62315	0.13511
954.69448	0.13497
952.76580	0.13483
950.83713	0.13466
948.90845	0.13449
946.97977	0.13430
945.05110	0.13411
943.12242	0.13389
941.19375	0.13358
939.26507	0.13320
937.33640	0.13281
935.40772	0.13242
933.47904	0.13198
931.55037	0.13152
929.62169	0.13108
927.69302	0.13058
925.76434	0.13001
923.83567	0.12945
921.90699	0.12887
919.97831	0.12829
918.04964	0.12770
916.12096	0.12708
914.19229	0.12641
912.26361	0.12569
910.33494	0.12496
908.40626	0.12428
906.47758	0.12370
904.54891	0.12315
902.62023	0.12262
900.69156	0.12211
898.76288	0.12156
896.83421	0.12101
894.90553	0.12053
892.97685	0.12007
891.04818	0.11962
889.11950	0.11921
887.19083	0.11884
885.26215	0.11848
883.33348	0.11818
881.40480	0.11790
879.47612	0.11760
877.54745	0.11734
875.61877	0.11712
873.69010	0.11694
871.76142	0.11674
869.83275	0.11650
867.90407	0.11625
865.97539	0.11598
864.04672	0.11572
862.11804	0.11559
860.18937	0.11557
858.26069	0.11552
856.33202	0.11541
854.40334	0.11527
852.47466	0.11510
850.54599	0.11483
848.61731	0.11450
846.68864	0.11418
844.75996	0.11387
842.83129	0.11357
840.90261	0.11330
838.97394	0.11305
837.04526	0.11271
835.11658	0.11213
833.18791	0.11138
831.25923	0.11054
829.33056	0.10958
827.40188	0.10851
825.47321	0.10748
823.54453	0.10662
821.61585	0.10591
819.68718	0.10523
817.75850	0.10461
815.82983	0.10418
813.90115	0.10392
811.97248	0.10365
810.04380	0.10333
808.11512	0.10307
806.18645	0.10294
804.25777	0.10292
802.32910	0.10286
800.40042	0.10259
798.47175	0.10208
796.54307	0.10146
794.61439	0.10093
792.68572	0.10054
790.75704	0.10027
788.82837	0.10004
786.89969	0.09980
784.97102	0.09954
783.04234	0.09927
781.11366	0.09903
779.18499	0.09878
777.25631	0.09848
775.32764	0.09823
773.39896	0.09805
771.47029	0.09783
769.54161	0.09742
767.61293	0.09691
765.68426	0.09646
763.75558	0.09609
761.82691	0.09568
759.89823	0.09522
757.96956	0.09472
756.04088	0.09414
754.11220	0.09353
752.18353	0.09293
750.25485	0.09234
748.32618	0.09171
746.39750	0.09099
744.46883	0.09013
742.54015	0.08922
740.61147	0.08848
738.68280	0.08802
736.75412	0.08784
734.82545	0.08781
732.89677	0.08787
730.96810	0.08799
729.03942	0.08812
727.11074	0.08818
725.18207	0.08822
723.25339	0.08830
721.32472	0.08842
719.39604	0.08857
717.46737	0.08885
715.53869	0.08923
713.61001	0.08964
711.68134	0.08997
709.75266	0.09015
707.82399	0.09022
705.89531	0.09015
703.96664	0.08999
702.03796	0.08977
700.10928	0.08942
698.18061	0.08891
696.25193	0.08837
694.32326	0.08785
692.39458	0.08729
690.46591	0.08676
688.53723	0.08630
686.60855	0.08582
684.67988	0.08532
682.75120	0.08486
680.82253	0.08443
678.89385	0.08392
676.96518	0.08325
675.03650	0.08253
673.10782	0.08188
671.17915	0.08112
669.25047	0.08024
667.32180	0.07952
665.39312	0.07894
663.46445	0.07823
661.53577	0.07739
659.60709	0.07657
657.67842	0.07583
655.74974	0.07513
653.82107	0.07441
651.89239	0.07360
649.96372	0.07277
648.03504	0.07196
646.10636	0.07119
644.17769	0.07039
642.24901	0.06951
640.32034	0.06859
638.39166	0.06759
636.46299	0.06646
634.53431	0.06520
632.60563	0.06381
630.67696	0.06189
628.74828	0.05876
626.81961	0.05462
624.89093	0.05045
622.96226	0.04705
621.03358	0.04490
619.10490	0.04381
617.17623	0.04313
615.24755	0.04242
613.31888	0.04145
611.39020	0.04039
609.46153	0.03982
607.53285	0.03988
605.60417	0.04023
603.67550	0.04073
601.74682	0.04147
599.81815	0.04247
597.88947	0.04338
595.96080	0.04397
594.03212	0.04434
592.10344	0.04457
590.17477	0.04469
588.24609	0.04470
586.31742	0.04452
584.38874	0.04420
582.46007	0.04386
580.53139	0.04350
578.60271	0.04308
576.67404	0.04259
574.74536	0.04206
572.81669	0.04145
570.88801	0.04083
568.95934	0.04031
567.03066	0.03990
565.10198	0.03956
563.17331	0.03929
561.24463	0.03907
559.31596	0.03888
557.38728	0.03868
555.45861	0.03846
553.52993	0.03829
551.60125	0.03814
549.67258	0.03797
547.74390	0.03779
545.81523	0.03757
543.88655	0.03726
541.95788	0.03702
540.02920	0.03699
538.10052	0.03700
536.17185	0.03688
534.24317	0.03665
532.31450	0.03636
530.38582	0.03601
528.45715	0.03570
526.52847	0.03540
524.59979	0.03508
522.67112	0.03475
520.74244	0.03431
518.81377	0.03368
516.88509	0.03304
514.95642	0.03256
513.02774	0.03231
511.09906	0.03217
509.17039	0.03199
507.24171	0.03182
505.31304	0.03161
503.38436	0.03121
501.45569	0.03074
499.52701	0.03031
497.59833	0.02987
495.66966	0.02935
493.74098	0.02878
491.81231	0.02819
489.88363	0.02763
487.95496	0.02709
486.02628	0.02653
484.09760	0.02599
482.16893	0.02554
480.24025	0.02510
478.31158	0.02457
476.38290	0.02395
474.45423	0.02335
472.52555	0.02290
470.59687	0.02259
468.66820	0.02228
466.73952	0.02193
464.81085	0.02166
462.88217	0.02159
460.95350	0.02158
459.02482	0.02148
457.09614	0.02141
455.16747	0.02149
453.23879	0.02148
451.31012	0.02134
449.38144	0.02117
447.45277	0.02102
445.52409	0.02083
443.59541	0.02059
441.66674	0.02033
439.73806	0.02005
437.80939	0.01967
435.88071	0.01926
433.95204	0.01886
432.02336	0.01839
430.09468	0.01789
428.16601	0.01737
426.23733	0.01666
424.30866	0.01582
422.37998	0.01511
420.45131	0.01458
418.52263	0.01409
416.59395	0.01353
414.66528	0.01287
412.73660	0.01217
410.80793	0.01150
408.87925	0.01087
406.95058	0.01028
405.02190	0.00968
403.09322	0.00915
401.16455	0.00872
399.23587	0.00831
397.30720	0.00790
395.37852	0.00747
393.44985	0.00692
391.52117	0.00631
389.59249	0.00583
387.66382	0.00550
385.73514	0.00508
383.80647	0.00460
381.87779	0.00429
379.94912	0.00415
378.02044	0.00398
376.09176	0.00362
374.16309	0.00316
372.23441	0.00281
370.30574	0.00260
368.37706	0.00242
