7496.76250	0.00108
7494.83382	0.00109
7492.90514	0.00111
7490.97647	0.00112
7489.04779	0.00112
7487.11912	0.00112
7485.19044	0.00111
7483.26177	0.00111
7481.33309	0.00113
7479.40441	0.00115
7477.47574	0.00117
7475.54706	0.00116
7473.61839	0.00115
7471.68971	0.00114
7469.76104	0.00114
7467.83236	0.00115
7465.90368	0.00117
7463.97501	0.00117
7462.04633	0.00116
7460.11766	0.00115
7458.18898	0.00116
7456.26031	0.00117
7454.33163	0.00118
7452.40295	0.00118
7450.47428	0.00119
7448.54560	0.00120
7446.61693	0.00120
7444.68825	0.00119
7442.75958	0.00118
7440.83090	0.00118
7438.90222	0.00118
7436.97355	0.00120
7435.04487	0.00121
7433.11620	0.00122
7431.18752	0.00122
7429.25885	0.00122
7427.33017	0.00121
7425.40149	0.00122
7423.47282	0.00123
7421.54414	0.00123
7419.61547	0.00122
7417.68679	0.00121
7415.75812	0.00121
7413.82944	0.00122
7411.90076	0.00124
7409.97209	0.00125
7408.04341	0.00125
7406.11474	0.00124
7404.18606	0.00124
7402.25739	0.00124
7400.32871	0.00124
7398.40003	0.00124
7396.47136	0.00124
7394.54268	0.00125
7392.61401	0.00126
7390.68533	0.00127
7388.75666	0.00129
7386.82798	0.00130
7384.89930	0.00131
7382.97063	0.00131
7381.04195	0.00131
7379.11328	0.00132
7377.18460	0.00133
7375.25593	0.00132
7373.32725	0.00130
7371.39857	0.00129
7369.46990	0.00130
7367.54122	0.00131
7365.61255	0.00133
7363.68387	0.00134
7361.75520	0.00134
7359.82652	0.00134
7357.89784	0.00134
7355.96917	0.00134
7354.04049	0.00134
7352.11182	0.00134
7350.18314	0.00134
7348.25447	0.00135
7346.32579	0.00136
7344.39711	0.00137
7342.46844	0.00136
7340.53976	0.00136
7338.61109	0.00136
7336.68241	0.00137
7334.75374	0.00137
7332.82506	0.00137
7330.89638	0.00138
7328.96771	0.00139
7327.03903	0.00140
7325.11036	0.00139
7323.18168	0.00139
7321.25301	0.00140
7319.32433	0.00142
7317.39565	0.00143
7315.46698	0.00143
7313.53830	0.00143
7311.60963	0.00142
7309.68095	0.00141
7307.75228	0.00142
7305.82360	0.00142
7303.89492	0.00142
7301.96625	0.00143
7300.03757	0.00144
7298.10890	0.00145
7296.18022	0.00145
7294.25155	0.00145
7292.32287	0.00145
7290.39419	0.00146
7288.46552	0.00147
7286.53684	0.00147
7284.60817	0.00147
7282.67949	0.00147
7280.75082	0.00147
7278.82214	0.00147
7276.89346	0.00147
7274.96479	0.00147
7273.03611	0.00149
7271.10744	0.00150
7269.17876	0.00151
7267.25009	0.00151
7265.32141	0.00152
7263.39273	0.00153
7261.46406	0.00153
7259.53538	0.00153
7257.60671	0.00152
7255.67803	0.00151
7253.74936	0.00151
7251.82068	0.00151
7249.89200	0.00151
7247.96333	0.00153
7246.03465	0.00155
7244.10598	0.00155
7242.17730	0.00155
7240.24863	0.00155
7238.31995	0.00155
7236.39127	0.00155
7234.46260	0.00156
7232.53392	0.00156
7230.60525	0.00155
7228.67657	0.00157
7226.74790	0.00158
7224.81922	0.00158
7222.89054	0.00158
7220.96187	0.00159
7219.03319	0.00159
7217.10452	0.00160
7215.17584	0.00161
7213.24717	0.00161
7211.31849	0.00162
7209.38981	0.00163
7207.46114	0.00162
7205.53246	0.00162
7203.60379	0.00162
7201.67511	0.00163
7199.74644	0.00162
7197.81776	0.00162
7195.88908	0.00162
7193.96041	0.00162
7192.03173	0.00163
7190.10306	0.00164
7188.17438	0.00165
7186.24571	0.00165
7184.31703	0.00163
7182.38835	0.00162
7180.45968	0.00164
7178.53100	0.00166
7176.60233	0.00168
7174.67365	0.00168
7172.74498	0.00168
7170.81630	0.00168
7168.88762	0.00168
7166.95895	0.00169
7165.03027	0.00169
7163.10160	0.00169
7161.17292	0.00169
7159.24425	0.00168
7157.31557	0.00168
7155.38689	0.00169
7153.45822	0.00172
7151.52954	0.00174
7149.60087	0.00173
7147.67219	0.00172
7145.74352	0.00172
7143.81484	0.00174
7141.88616	0.00174
7139.95749	0.00173
7138.02881	0.00173
7136.10014	0.00174
7134.17146	0.00176
7132.24279	0.00177
7130.31411	0.00177
7128.38543	0.00177
7126.45676	0.00178
7124.52808	0.00179
7122.59941	0.00180
7120.67073	0.00180
7118.74206	0.00179
7116.81338	0.00178
7114.88470	0.00177
7112.95603	0.00178
7111.02735	0.00178
7109.09868	0.00179
7107.17000	0.00179
7105.24133	0.00179
7103.31265	0.00180
7101.38397	0.00181
7099.45530	0.00182
7097.52662	0.00184
7095.59795	0.00185
7093.66927	0.00184
7091.74060	0.00183
7089.81192	0.00183
7087.88324	0.00183
7085.95457	0.00185
7084.02589	0.00185
7082.09722	0.00185
7080.16854	0.00185
7078.23987	0.00186
7076.31119	0.00187
7074.38251	0.00187
7072.45384	0.00187
7070.52516	0.00186
7068.59649	0.00187
7066.66781	0.00188
7064.73914	0.00190
7062.81046	0.00191
7060.88178	0.00192
7058.95311	0.00192
7057.02443	0.00192
7055.09576	0.00191
7053.16708	0.00191
7051.23841	0.00191
7049.30973	0.00192
7047.38105	0.00192
7045.45238	0.00192
7043.52370	0.00193
7041.59503	0.00195
7039.66635	0.00197
7037.73768	0.00197
7035.80900	0.00195
7033.88032	0.00194
7031.95165	0.00194
7030.02297	0.00194
7028.09430	0.00195
7026.16562	0.00196
7024.23695	0.00198
7022.30827	0.00198
7020.37959	0.00199
7018.45092	0.00200
7016.52224	0.00201
7014.59357	0.00200
7012.66489	0.00199
7010.73622	0.00199
7008.80754	0.00200
7006.87886	0.00201
7004.95019	0.00201
7003.02151	0.00201
7001.09284	0.00202
6999.16416	0.00203
6997.23549	0.00202
6995.30681	0.00203
6993.37813	0.00204
6991.44946	0.00205
6989.52078	0.00206
6987.59211	0.00206
6985.66343	0.00205
6983.73476	0.00205
6981.80608	0.00206
6979.87740	0.00207
6977.94873	0.00207
6976.02005	0.00207
6974.09138	0.00208
6972.16270	0.00210
6970.23403	0.00211
6968.30535	0.00212
6966.37667	0.00212
6964.44800	0.00211
6962.51932	0.00211
6960.59065	0.00212
6958.66197	0.00214
6956.73330	0.00215
6954.80462	0.00214
6952.87594	0.00214
6950.94727	0.00214
6949.01859	0.00213
6947.08992	0.00214
6945.16124	0.00216
6943.23257	0.00218
6941.30389	0.00218
6939.37521	0.00218
6937.44654	0.00218
6935.51786	0.00218
6933.58919	0.00217
6931.66051	0.00216
6929.73184	0.00216
6927.80316	0.00216
6925.87448	0.00217
6923.94581	0.00219
6922.01713	0.00221
6920.08846	0.00223
6918.15978	0.00222
6916.23111	0.00221
6914.30243	0.00220
6912.37375	0.00221
6910.44508	0.00222
6908.51640	0.00224
6906.58773	0.00226
6904.65905	0.00227
6902.73038	0.00228
6900.80170	0.00228
6898.87302	0.00228
6896.94435	0.00228
6895.01567	0.00229
6893.08700	0.00230
6891.15832	0.00231
6889.22965	0.00231
6887.30097	0.00230
6885.37229	0.00228
6883.44362	0.00230
6881.51494	0.00232
6879.58627	0.00233
6877.65759	0.00234
6875.72892	0.00235
6873.80024	0.00236
6871.87156	0.00234
6869.94289	0.00232
6868.01421	0.00231
6866.08554	0.00232
6864.15686	0.00233
6862.22819	0.00234
6860.29951	0.00235
6858.37083	0.00235
6856.44216	0.00235
6854.51348	0.00235
6852.58481	0.00237
6850.65613	0.00240
6848.72746	0.00240
6846.79878	0.00239
6844.87010	0.00238
6842.94143	0.00238
6841.01275	0.00240
6839.08408	0.00240
6837.15540	0.00241
6835.22673	0.00243
6833.29805	0.00245
6831.36937	0.00244
6829.44070	0.00243
6827.51202	0.00244
6825.58335	0.00245
6823.65467	0.00245
6821.72600	0.00245
6819.79732	0.00245
6817.86864	0.00247
6815.93997	0.00249
6814.01129	0.00250
6812.08262	0.00250
6810.15394	0.00250
6808.22527	0.00251
6806.29659	0.00252
6804.36791	0.00252
6802.43924	0.00252
6800.51056	0.00253
6798.58189	0.00253
6796.65321	0.00252
6794.72454	0.00251
6792.79586	0.00252
6790.86718	0.00254
6788.93851	0.00256
6787.00983	0.00256
6785.08116	0.00257
6783.15248	0.00257
6781.22381	0.00258
6779.29513	0.00258
6777.36645	0.00259
6775.43778	0.00259
6773.50910	0.00259
6771.58043	0.00260
6769.65175	0.00261
6767.72308	0.00261
6765.79440	0.00260
6763.86572	0.00260
6761.93705	0.00262
6760.00837	0.00264
6758.07970	0.00263
6756.15102	0.00262
6754.22235	0.00262
6752.29367	0.00263
6750.36499	0.00264
6748.43632	0.00265
6746.50764	0.00267
6744.57897	0.00268
6742.65029	0.00268
6740.72162	0.00266
6738.79294	0.00267
6736.86426	0.00270
6734.93559	0.00272
6733.00691	0.00272
6731.07824	0.00272
6729.14956	0.00273
6727.22089	0.00274
6725.29221	0.00275
6723.36353	0.00276
6721.43486	0.00277
6719.50618	0.00278
6717.57751	0.00278
6715.64883	0.00278
6713.72016	0.00279
6711.79148	0.00280
6709.86280	0.00281
6707.93413	0.00280
6706.00545	0.00280
6704.07678	0.00281
6702.14810	0.00281
6700.21943	0.00281
6698.29075	0.00282
6696.36207	0.00283
6694.43340	0.00283
6692.50472	0.00283
6690.57605	0.00284
6688.64737	0.00285
6686.71870	0.00285
6684.79002	0.00286
6682.86134	0.00287
6680.93267	0.00288
6679.00399	0.00288
6677.07532	0.00288
6675.14664	0.00288
6673.21797	0.00289
6671.28929	0.00289
6669.36061	0.00289
6667.43194	0.00289
6665.50326	0.00291
6663.57459	0.00292
6661.64591	0.00293
6659.71724	0.00293
6657.78856	0.00294
6655.85988	0.00295
6653.93121	0.00296
6652.00253	0.00297
6650.07386	0.00298
6648.14518	0.00299
6646.21651	0.00298
6644.28783	0.00298
6642.35915	0.00299
6640.43048	0.00299
6638.50180	0.00299
6636.57313	0.00299
6634.64445	0.00300
6632.71578	0.00301
6630.78710	0.00302
6628.85842	0.00302
6626.92975	0.00302
6625.00107	0.00304
6623.07240	0.00306
6621.14372	0.00308
6619.21505	0.00308
6617.28637	0.00309
6615.35769	0.00309
6613.42902	0.00308
6611.50034	0.00308
6609.57167	0.00309
6607.64299	0.00309
6605.71432	0.00310
6603.78564	0.00311
6601.85696	0.00311
6599.92829	0.00312
6597.99961	0.00313
6596.07094	0.00313
6594.14226	0.00313
6592.21359	0.00313
6590.28491	0.00314
6588.35623	0.00315
6586.42756	0.00315
6584.49888	0.00316
6582.57021	0.00318
6580.64153	0.00318
6578.71286	0.00319
6576.78418	0.00320
6574.85550	0.00321
6572.92683	0.00322
6570.99815	0.00323
6569.06948	0.00324
6567.14080	0.00324
6565.21213	0.00324
6563.28345	0.00323
6561.35477	0.00324
6559.42610	0.00326
6557.49742	0.00328
6555.56875	0.00329
6553.64007	0.00329
6551.71140	0.00328
6549.78272	0.00328
6547.85404	0.00328
6545.92537	0.00330
6543.99669	0.00332
6542.06802	0.00334
6540.13934	0.00335
6538.21067	0.00335
6536.28199	0.00334
6534.35331	0.00334
6532.42464	0.00335
6530.49596	0.00337
6528.56729	0.00337
6526.63861	0.00337
6524.70994	0.00338
6522.78126	0.00339
6520.85258	0.00340
6518.92391	0.00342
6516.99523	0.00344
6515.06656	0.00345
6513.13788	0.00345
6511.20921	0.00345
6509.28053	0.00347
6507.35185	0.00347
6505.42318	0.00347
6503.49450	0.00347
6501.56583	0.00347
6499.63715	0.00348
6497.70848	0.00348
6495.77980	0.00348
6493.85112	0.00349
6491.92245	0.00350
6489.99377	0.00352
6488.06510	0.00353
6486.13642	0.00351
6484.20775	0.00350
6482.27907	0.00351
6480.35039	0.00353
6478.42172	0.00356
6476.49304	0.00357
6474.56437	0.00358
6472.63569	0.00359
6470.70702	0.00360
6468.77834	0.00360
6466.84966	0.00360
6464.92099	0.00360
6462.99231	0.00361
6461.06364	0.00361
6459.13496	0.00361
6457.20629	0.00362
6455.27761	0.00364
6453.34893	0.00367
6451.42026	0.00369
6449.49158	0.00369
6447.56291	0.00367
6445.63423	0.00366
6443.70556	0.00368
6441.77688	0.00368
6439.84820	0.00368
6437.91953	0.00369
6435.99085	0.00371
6434.06218	0.00371
6432.13350	0.00372
6430.20483	0.00374
6428.27615	0.00376
6426.34747	0.00376
6424.41880	0.00376
6422.49012	0.00376
6420.56145	0.00378
6418.63277	0.00380
6416.70410	0.00380
6414.77542	0.00381
6412.84674	0.00382
6410.91807	0.00382
6408.98939	0.00383
6407.06072	0.00384
6405.13204	0.00386
6403.20337	0.00386
6401.27469	0.00385
6399.34601	0.00385
6397.41734	0.00386
6395.48866	0.00387
6393.55999	0.00388
6391.63131	0.00389
6389.70264	0.00390
6387.77396	0.00391
6385.84528	0.00392
6383.91661	0.00394
6381.98793	0.00395
6380.05926	0.00396
6378.13058	0.00397
6376.20191	0.00399
6374.27323	0.00400
6372.34455	0.00400
6370.41588	0.00400
6368.48720	0.00401
6366.55853	0.00401
6364.62985	0.00402
6362.70118	0.00403
6360.77250	0.00404
6358.84382	0.00405
6356.91515	0.00406
6354.98647	0.00405
6353.05780	0.00404
6351.12912	0.00406
6349.20045	0.00408
6347.27177	0.00411
6345.34309	0.00412
6343.41442	0.00413
6341.48574	0.00414
6339.55707	0.00416
6337.62839	0.00416
6335.69972	0.00415
6333.77104	0.00415
6331.84236	0.00418
6329.91369	0.00419
6327.98501	0.00417
6326.05634	0.00414
6324.12766	0.00416
6322.19899	0.00419
6320.27031	0.00421
6318.34163	0.00422
6316.41296	0.00423
6314.48428	0.00422
6312.55561	0.00423
6310.62693	0.00425
6308.69826	0.00424
6306.76958	0.00424
6304.84090	0.00427
6302.91223	0.00430
6300.98355	0.00432
6299.05488	0.00432
6297.12620	0.00433
6295.19753	0.00434
6293.26885	0.00435
6291.34017	0.00435
6289.41150	0.00435
6287.48282	0.00435
6285.55415	0.00436
6283.62547	0.00438
6281.69680	0.00440
6279.76812	0.00440
6277.83944	0.00439
6275.91077	0.00440
6273.98209	0.00442
6272.05342	0.00443
6270.12474	0.00443
6268.19607	0.00445
6266.26739	0.00447
6264.33871	0.00447
6262.41004	0.00447
6260.48136	0.00449
6258.55269	0.00452
6256.62401	0.00452
6254.69534	0.00452
6252.76666	0.00453
6250.83798	0.00454
6248.90931	0.00455
6246.98063	0.00455
6245.05196	0.00455
6243.12328	0.00457
6241.19461	0.00459
6239.26593	0.00462
6237.33725	0.00462
6235.40858	0.00462
6233.47990	0.00462
6231.55123	0.00464
6229.62255	0.00465
6227.69388	0.00465
6225.76520	0.00464
6223.83652	0.00465
6221.90785	0.00468
6219.97917	0.00469
6218.05050	0.00469
6216.12182	0.00469
6214.19315	0.00471
6212.26447	0.00473
6210.33579	0.00474
6208.40712	0.00476
6206.47844	0.00478
6204.54977	0.00479
6202.62109	0.00478
6200.69242	0.00478
6198.76374	0.00479
6196.83506	0.00482
6194.90639	0.00483
6192.97771	0.00484
6191.04904	0.00484
6189.12036	0.00485
6187.19169	0.00486
6185.26301	0.00487
6183.33433	0.00487
6181.40566	0.00488
6179.47698	0.00490
6177.54831	0.00492
6175.61963	0.00492
6173.69096	0.00492
6171.76228	0.00494
6169.83360	0.00497
6167.90493	0.00499
6165.97625	0.00500
6164.04758	0.00500
6162.11890	0.00501
6160.19023	0.00502
6158.26155	0.00504
6156.33287	0.00505
6154.40420	0.00504
6152.47552	0.00503
6150.54685	0.00504
6148.61817	0.00504
6146.68950	0.00504
6144.76082	0.00506
6142.83214	0.00510
6140.90347	0.00512
6138.97479	0.00513
6137.04612	0.00514
6135.11744	0.00515
6133.18877	0.00516
6131.26009	0.00515
6129.33141	0.00517
6127.40274	0.00519
6125.47406	0.00520
6123.54539	0.00520
6121.61671	0.00521
6119.68804	0.00523
6117.75936	0.00525
6115.83068	0.00526
6113.90201	0.00526
6111.97333	0.00525
6110.04466	0.00526
6108.11598	0.00528
6106.18731	0.00529
6104.25863	0.00529
6102.32995	0.00531
6100.40128	0.00532
6098.47260	0.00532
6096.54393	0.00533
6094.61525	0.00534
6092.68658	0.00536
6090.75790	0.00538
6088.82922	0.00540
6086.90055	0.00541
6084.97187	0.00541
6083.04320	0.00543
6081.11452	0.00546
6079.18585	0.00548
6077.25717	0.00547
6075.32849	0.00546
6073.39982	0.00546
6071.47114	0.00548
6069.54247	0.00551
6067.61379	0.00552
6065.68512	0.00553
6063.75644	0.00555
6061.82776	0.00559
6059.89909	0.00560
6057.97041	0.00559
6056.04174	0.00559
6054.11306	0.00560
6052.18439	0.00562
6050.25571	0.00563
6048.32703	0.00563
6046.39836	0.00564
6044.46968	0.00564
6042.54101	0.00565
6040.61233	0.00567
6038.68366	0.00570
6036.75498	0.00572
6034.82630	0.00574
6032.89763	0.00574
6030.96895	0.00575
6029.04028	0.00576
6027.11160	0.00577
6025.18293	0.00578
6023.25425	0.00579
6021.32557	0.00580
6019.39690	0.00581
6017.46822	0.00583
6015.53955	0.00584
6013.61087	0.00585
6011.68220	0.00587
6009.75352	0.00589
6007.82484	0.00590
6005.89617	0.00590
6003.96749	0.00591
6002.03882	0.00592
6000.11014	0.00592
5998.18147	0.00593
5996.25279	0.00594
5994.32411	0.00595
5992.39544	0.00595
5990.46676	0.00596
5988.53809	0.00598
5986.60941	0.00602
5984.68074	0.00604
5982.75206	0.00604
5980.82338	0.00604
5978.89471	0.00606
5976.96603	0.00608
5975.03736	0.00607
5973.10868	0.00607
5971.18001	0.00610
5969.25133	0.00613
5967.32265	0.00615
5965.39398	0.00615
5963.46530	0.00616
5961.53663	0.00616
5959.60795	0.00617
5957.67928	0.00619
5955.75060	0.00621
5953.82192	0.00622
5951.89325	0.00625
5949.96457	0.00628
5948.03590	0.00630
5946.10722	0.00630
5944.17855	0.00631
5942.24987	0.00633
5940.32119	0.00636
5938.39252	0.00637
5936.46384	0.00638
5934.53517	0.00639
5932.60649	0.00640
5930.67782	0.00638
5928.74914	0.00637
5926.82046	0.00638
5924.89179	0.00641
5922.96311	0.00642
5921.03444	0.00643
5919.10576	0.00642
5917.17709	0.00643
5915.24841	0.00645
5913.31973	0.00648
5911.39106	0.00650
5909.46238	0.00653
5907.53371	0.00654
5905.60503	0.00655
5903.67636	0.00655
5901.74768	0.00656
5899.81900	0.00658
5897.89033	0.00661
5895.96165	0.00663
5894.03298	0.00665
5892.10430	0.00666
5890.17563	0.00667
5888.24695	0.00670
5886.31827	0.00671
5884.38960	0.00671
5882.46092	0.00672
5880.53225	0.00675
5878.60357	0.00677
5876.67490	0.00679
5874.74622	0.00681
5872.81755	0.00683
5870.88887	0.00683
5868.96019	0.00682
5867.03152	0.00682
5865.10284	0.00682
5863.17417	0.00684
5861.24549	0.00685
5859.31682	0.00687
5857.38814	0.00690
5855.45946	0.00693
5853.53079	0.00694
5851.60211	0.00692
5849.67344	0.00692
5847.74476	0.00693
5845.81609	0.00696
5843.88741	0.00699
5841.95873	0.00700
5840.03006	0.00700
5838.10138	0.00702
5836.17271	0.00705
5834.24403	0.00707
5832.31536	0.00708
5830.38668	0.00709
5828.45800	0.00710
5826.52933	0.00711
5824.60065	0.00713
5822.67198	0.00715
5820.74330	0.00716
5818.81463	0.00717
5816.88595	0.00719
5814.95727	0.00721
5813.02860	0.00724
5811.09992	0.00726
5809.17125	0.00728
5807.24257	0.00728
5805.31390	0.00730
5803.38522	0.00732
5801.45654	0.00733
5799.52787	0.00734
5797.59919	0.00736
5795.67052	0.00737
5793.74184	0.00738
5791.81317	0.00739
5789.88449	0.00742
5787.95581	0.00744
5786.02714	0.00745
5784.09846	0.00746
5782.16979	0.00745
5780.24111	0.00746
5778.31244	0.00747
5776.38376	0.00749
5774.45508	0.00753
5772.52641	0.00756
5770.59773	0.00758
5768.66906	0.00758
5766.74038	0.00758
5764.81171	0.00757
5762.88303	0.00757
5760.95435	0.00758
5759.02568	0.00760
5757.09700	0.00762
5755.16833	0.00766
5753.23965	0.00770
5751.31098	0.00772
5749.38230	0.00773
5747.45362	0.00775
5745.52495	0.00775
5743.59627	0.00777
5741.66760	0.00779
5739.73892	0.00780
5737.81025	0.00782
5735.88157	0.00785
5733.95289	0.00787
5732.02422	0.00787
5730.09554	0.00787
5728.16687	0.00790
5726.23819	0.00793
5724.30952	0.00794
5722.38084	0.00794
5720.45216	0.00795
5718.52349	0.00795
5716.59481	0.00797
5714.66614	0.00800
5712.73746	0.00802
5710.80879	0.00803
5708.88011	0.00804
5706.95143	0.00805
5705.02276	0.00806
5703.09408	0.00808
5701.16541	0.00810
5699.23673	0.00811
5697.30806	0.00813
5695.37938	0.00815
5693.45070	0.00817
5691.52203	0.00820
5689.59335	0.00822
5687.66468	0.00822
5685.73600	0.00823
5683.80733	0.00825
5681.87865	0.00828
5679.94997	0.00830
5678.02130	0.00831
5676.09262	0.00832
5674.16395	0.00833
5672.23527	0.00835
5670.30660	0.00837
5668.37792	0.00838
5666.44924	0.00839
5664.52057	0.00839
5662.59189	0.00841
5660.66322	0.00844
5658.73454	0.00848
5656.80587	0.00850
5654.87719	0.00851
5652.94851	0.00853
5651.01984	0.00855
5649.09116	0.00856
5647.16249	0.00856
5645.23381	0.00857
5643.30514	0.00859
5641.37646	0.00861
5639.44778	0.00864
5637.51911	0.00867
5635.59043	0.00868
5633.66176	0.00868
5631.73308	0.00870
5629.80441	0.00872
5627.87573	0.00874
5625.94705	0.00876
5624.01838	0.00879
5622.08970	0.00880
5620.16103	0.00881
5618.23235	0.00882
5616.30368	0.00885
5614.37500	0.00888
5612.44632	0.00889
5610.51765	0.00890
5608.58897	0.00893
5606.66030	0.00895
5604.73162	0.00896
5602.80295	0.00896
5600.87427	0.00898
5598.94559	0.00901
5597.01692	0.00902
5595.08824	0.00902
5593.15957	0.00903
5591.23089	0.00906
5589.30222	0.00909
5587.37354	0.00911
5585.44486	0.00913
5583.51619	0.00915
5581.58751	0.00917
5579.65884	0.00919
5577.73016	0.00921
5575.80149	0.00922
5573.87281	0.00923
5571.94413	0.00924
5570.01546	0.00926
5568.08678	0.00927
5566.15811	0.00928
5564.22943	0.00930
5562.30076	0.00932
5560.37208	0.00936
5558.44340	0.00939
5556.51473	0.00942
5554.58605	0.00944
5552.65738	0.00944
5550.72870	0.00943
5548.80003	0.00944
5546.87135	0.00946
5544.94267	0.00949
5543.01400	0.00951
5541.08532	0.00954
5539.15665	0.00955
5537.22797	0.00955
5535.29930	0.00956
5533.37062	0.00960
5531.44194	0.00964
5529.51327	0.00967
5527.58459	0.00969
5525.65592	0.00970
5523.72724	0.00970
5521.79857	0.00971
5519.86989	0.00974
5517.94121	0.00976
5516.01254	0.00979
5514.08386	0.00980
5512.15519	0.00981
5510.22651	0.00983
5508.29784	0.00986
5506.36916	0.00988
5504.44048	0.00990
5502.51181	0.00991
5500.58313	0.00994
5498.65446	0.00997
5496.72578	0.00998
5494.79711	0.00998
5492.86843	0.00999
5490.93975	0.01001
5489.01108	0.01003
5487.08240	0.01006
5485.15373	0.01009
5483.22505	0.01011
5481.29638	0.01012
5479.36770	0.01013
5477.43902	0.01013
5475.51035	0.01014
5473.58167	0.01017
5471.65300	0.01020
5469.72432	0.01022
5467.79565	0.01025
5465.86697	0.01026
5463.93829	0.01027
5462.00962	0.01029
5460.08094	0.01033
5458.15227	0.01035
5456.22359	0.01037
5454.29492	0.01038
5452.36624	0.01040
5450.43756	0.01042
5448.50889	0.01042
5446.58021	0.01042
5444.65154	0.01044
5442.72286	0.01047
5440.79419	0.01050
5438.86551	0.01051
5436.93683	0.01052
5435.00816	0.01054
5433.07948	0.01058
5431.15081	0.01059
5429.22213	0.01058
5427.29346	0.01059
5425.36478	0.01064
5423.43610	0.01068
5421.50743	0.01070
5419.57875	0.01073
5417.65008	0.01077
5415.72140	0.01078
5413.79273	0.01076
5411.86405	0.01075
5409.93537	0.01080
5408.00670	0.01085
5406.07802	0.01088
5404.14935	0.01090
5402.22067	0.01092
5400.29200	0.01092
5398.36332	0.01092
5396.43464	0.01092
5394.50597	0.01095
5392.57729	0.01098
5390.64862	0.01102
5388.71994	0.01105
5386.79127	0.01107
5384.86259	0.01108
5382.93391	0.01109
5381.00524	0.01111
5379.07656	0.01113
5377.14789	0.01117
5375.21921	0.01119
5373.29054	0.01120
5371.36186	0.01122
5369.43318	0.01124
5367.50451	0.01124
5365.57583	0.01125
5363.64716	0.01129
5361.71848	0.01132
5359.78981	0.01133
5357.86113	0.01136
5355.93245	0.01138
5354.00378	0.01139
5352.07510	0.01140
5350.14643	0.01144
5348.21775	0.01147
5346.28908	0.01147
5344.36040	0.01147
5342.43172	0.01149
5340.50305	0.01152
5338.57437	0.01155
5336.64570	0.01158
5334.71702	0.01160
5332.78835	0.01161
5330.85967	0.01163
5328.93099	0.01166
5327.00232	0.01170
5325.07364	0.01174
5323.14497	0.01175
5321.21629	0.01175
5319.28762	0.01177
5317.35894	0.01180
5315.43026	0.01183
5313.50159	0.01186
5311.57291	0.01188
5309.64424	0.01188
5307.71556	0.01189
5305.78689	0.01192
5303.85821	0.01195
5301.92953	0.01197
5300.00086	0.01199
5298.07218	0.01202
5296.14351	0.01205
5294.21483	0.01207
5292.28616	0.01209
5290.35748	0.01211
5288.42880	0.01212
5286.50013	0.01214
5284.57145	0.01215
5282.64278	0.01219
5280.71410	0.01223
5278.78543	0.01225
5276.85675	0.01225
5274.92807	0.01225
5272.99940	0.01227
5271.07072	0.01230
5269.14205	0.01233
5267.21337	0.01234
5265.28470	0.01233
5263.35602	0.01234
5261.42734	0.01237
5259.49867	0.01241
5257.56999	0.01244
5255.64132	0.01245
5253.71264	0.01247
5251.78397	0.01249
5249.85529	0.01250
5247.92661	0.01251
5245.99794	0.01256
5244.06926	0.01260
5242.14059	0.01262
5240.21191	0.01263
5238.28324	0.01264
5236.35456	0.01267
5234.42588	0.01271
5232.49721	0.01274
5230.56853	0.01276
5228.63986	0.01277
5226.71118	0.01279
5224.78251	0.01281
5222.85383	0.01282
5220.92515	0.01283
5218.99648	0.01286
5217.06780	0.01290
5215.13913	0.01292
5213.21045	0.01295
5211.28178	0.01296
5209.35310	0.01296
5207.42442	0.01299
5205.49575	0.01304
5203.56707	0.01308
5201.63840	0.01310
5199.70972	0.01311
5197.78105	0.01313
5195.85237	0.01317
5193.92369	0.01320
5191.99502	0.01323
5190.06634	0.01325
5188.13767	0.01327
5186.20899	0.01327
5184.28032	0.01329
5182.35164	0.01333
5180.42296	0.01337
5178.49429	0.01338
5176.56561	0.01337
5174.63694	0.01338
5172.70826	0.01343
5170.77959	0.01348
5168.85091	0.01352
5166.92223	0.01353
5164.99356	0.01353
5163.06488	0.01354
5161.13621	0.01357
5159.20753	0.01359
5157.27886	0.01361
5155.35018	0.01363
5153.42150	0.01365
5151.49283	0.01368
5149.56415	0.01371
5147.63548	0.01374
5145.70680	0.01374
5143.77813	0.01376
5141.84945	0.01379
5139.92077	0.01383
5137.99210	0.01386
5136.06342	0.01389
5134.13475	0.01391
5132.20607	0.01392
5130.27740	0.01394
5128.34872	0.01396
5126.42004	0.01398
5124.49137	0.01400
5122.56269	0.01401
5120.63402	0.01401
5118.70534	0.01402
5116.77667	0.01406
5114.84799	0.01410
5112.91931	0.01412
5110.99064	0.01413
5109.06196	0.01415
5107.13329	0.01419
5105.20461	0.01422
5103.27594	0.01426
5101.34726	0.01428
5099.41858	0.01430
5097.48991	0.01433
5095.56123	0.01435
5093.63256	0.01437
5091.70388	0.01441
5089.77521	0.01445
5087.84653	0.01448
5085.91785	0.01450
5083.98918	0.01451
5082.06050	0.01450
5080.13183	0.01450
5078.20315	0.01453
5076.27448	0.01457
5074.34580	0.01462
5072.41712	0.01465
5070.48845	0.01467
5068.55977	0.01469
5066.63110	0.01470
5064.70242	0.01471
5062.77375	0.01472
5060.84507	0.01476
5058.91639	0.01481
5056.98772	0.01484
5055.05904	0.01486
5053.13037	0.01489
5051.20169	0.01491
5049.27302	0.01492
5047.34434	0.01495
5045.41566	0.01499
5043.48699	0.01501
5041.55831	0.01503
5039.62964	0.01505
5037.70096	0.01506
5035.77229	0.01508
5033.84361	0.01512
5031.91493	0.01515
5029.98626	0.01517
5028.05758	0.01519
5026.12891	0.01522
5024.20023	0.01524
5022.27156	0.01528
5020.34288	0.01532
5018.41420	0.01534
5016.48553	0.01535
5014.55685	0.01537
5012.62818	0.01538
5010.69950	0.01541
5008.77083	0.01544
5006.84215	0.01547
5004.91347	0.01548
5002.98480	0.01550
5001.05612	0.01553
4999.12745	0.01557
4997.19877	0.01560
4995.27010	0.01563
4993.34142	0.01565
4991.41274	0.01568
4989.48407	0.01571
4987.55539	0.01574
4985.62672	0.01577
4983.69804	0.01581
4981.76937	0.01583
4979.84069	0.01586
4977.91201	0.01587
4975.98334	0.01588
4974.05466	0.01589
4972.12599	0.01592
4970.19731	0.01596
4968.26864	0.01600
4966.33996	0.01602
4964.41128	0.01603
4962.48261	0.01604
4960.55393	0.01607
4958.62526	0.01608
4956.69658	0.01610
4954.76791	0.01614
4952.83923	0.01617
4950.91055	0.01619
4948.98188	0.01621
4947.05320	0.01623
4945.12453	0.01628
4943.19585	0.01633
4941.26718	0.01636
4939.33850	0.01637
4937.40982	0.01639
4935.48115	0.01643
4933.55247	0.01647
4931.62380	0.01647
4929.69512	0.01647
4927.76645	0.01648
4925.83777	0.01653
4923.90909	0.01659
4921.98042	0.01664
4920.05174	0.01667
4918.12307	0.01668
4916.19439	0.01669
4914.26572	0.01670
4912.33704	0.01671
4910.40836	0.01674
4908.47969	0.01678
4906.55101	0.01682
4904.62234	0.01685
4902.69366	0.01686
4900.76499	0.01687
4898.83631	0.01689
4896.90763	0.01691
4894.97896	0.01695
4893.05028	0.01697
4891.12161	0.01699
4889.19293	0.01701
4887.26426	0.01706
4885.33558	0.01709
4883.40690	0.01713
4881.47823	0.01717
4879.54955	0.01721
4877.62088	0.01723
4875.69220	0.01723
4873.76353	0.01724
4871.83485	0.01726
4869.90617	0.01730
4867.97750	0.01733
4866.04882	0.01734
4864.12015	0.01738
4862.19147	0.01742
4860.26280	0.01746
4858.33412	0.01747
4856.40544	0.01748
4854.47677	0.01749
4852.54809	0.01752
4850.61942	0.01756
4848.69074	0.01759
4846.76207	0.01764
4844.83339	0.01768
4842.90471	0.01772
4840.97604	0.01773
4839.04736	0.01775
4837.11869	0.01778
4835.19001	0.01781
4833.26134	0.01783
4831.33266	0.01783
4829.40398	0.01784
4827.47531	0.01789
4825.54663	0.01796
4823.61796	0.01801
4821.68928	0.01804
4819.76061	0.01806
4817.83193	0.01807
4815.90325	0.01809
4813.97458	0.01812
4812.04590	0.01816
4810.11723	0.01819
4808.18855	0.01821
4806.25988	0.01822
4804.33120	0.01825
4802.40252	0.01829
4800.47385	0.01833
4798.54517	0.01837
4796.61650	0.01840
4794.68782	0.01842
4792.75915	0.01845
4790.83047	0.01848
4788.90179	0.01850
4786.97312	0.01853
4785.04444	0.01857
4783.11577	0.01859
4781.18709	0.01862
4779.25842	0.01864
4777.32974	0.01866
4775.40106	0.01869
4773.47239	0.01873
4771.54371	0.01878
4769.61504	0.01883
4767.68636	0.01887
4765.75769	0.01891
4763.82901	0.01892
4761.90033	0.01893
4759.97166	0.01894
4758.04298	0.01896
4756.11431	0.01899
4754.18563	0.01903
4752.25696	0.01907
4750.32828	0.01910
4748.39960	0.01913
4746.47093	0.01917
4744.54225	0.01920
4742.61358	0.01925
4740.68490	0.01930
4738.75623	0.01934
4736.82755	0.01936
4734.89887	0.01936
4732.97020	0.01936
4731.04152	0.01938
4729.11285	0.01942
4727.18417	0.01947
4725.25550	0.01951
4723.32682	0.01953
4721.39814	0.01955
4719.46947	0.01958
4717.54079	0.01962
4715.61212	0.01966
4713.68344	0.01970
4711.75477	0.01973
4709.82609	0.01975
4707.89741	0.01977
4705.96874	0.01979
4704.04006	0.01983
4702.11139	0.01987
4700.18271	0.01990
4698.25404	0.01993
4696.32536	0.01996
4694.39668	0.01998
4692.46801	0.02001
4690.53933	0.02004
4688.61066	0.02008
4686.68198	0.02012
4684.75331	0.02015
4682.82463	0.02018
4680.89595	0.02022
4678.96728	0.02026
4677.03860	0.02029
4675.10993	0.02031
4673.18125	0.02034
4671.25258	0.02035
4669.32390	0.02036
4667.39522	0.02041
4665.46655	0.02046
4663.53787	0.02051
4661.60920	0.02053
4659.68052	0.02054
4657.75185	0.02055
4655.82317	0.02057
4653.89449	0.02061
4651.96582	0.02067
4650.03714	0.02072
4648.10847	0.02075
4646.17979	0.02078
4644.25112	0.02084
4642.32244	0.02090
4640.39376	0.02093
4638.46509	0.02096
4636.53641	0.02099
4634.60774	0.02102
4632.67906	0.02104
4630.75039	0.02107
4628.82171	0.02111
4626.89303	0.02115
4624.96436	0.02119
4623.03568	0.02122
4621.10701	0.02125
4619.17833	0.02129
4617.24966	0.02133
4615.32098	0.02137
4613.39230	0.02139
4611.46363	0.02139
4609.53495	0.02142
4607.60628	0.02147
4605.67760	0.02154
4603.74893	0.02158
4601.82025	0.02159
4599.89157	0.02162
4597.96290	0.02167
4596.03422	0.02172
4594.10555	0.02176
4592.17687	0.02180
4590.24820	0.02181
4588.31952	0.02181
4586.39084	0.02182
4584.46217	0.02187
4582.53349	0.02193
4580.60482	0.02198
4578.67614	0.02200
4576.74747	0.02204
4574.81879	0.02209
4572.89011	0.02214
4570.96144	0.02217
4569.03276	0.02221
4567.10409	0.02226
4565.17541	0.02229
4563.24674	0.02231
4561.31806	0.02234
4559.38938	0.02239
4557.46071	0.02243
4555.53203	0.02247
4553.60336	0.02248
4551.67468	0.02248
4549.74601	0.02252
4547.81733	0.02257
4545.88865	0.02263
4543.95998	0.02269
4542.03130	0.02273
4540.10263	0.02274
4538.17395	0.02275
4536.24528	0.02279
4534.31660	0.02285
4532.38792	0.02290
4530.45925	0.02294
4528.53057	0.02297
4526.60190	0.02302
4524.67322	0.02305
4522.74455	0.02308
4520.81587	0.02311
4518.88719	0.02316
4516.95852	0.02321
4515.02984	0.02325
4513.10117	0.02329
4511.17249	0.02333
4509.24382	0.02338
4507.31514	0.02342
4505.38646	0.02344
4503.45779	0.02348
4501.52911	0.02355
4499.60044	0.02362
4497.67176	0.02365
4495.74309	0.02365
4493.81441	0.02366
4491.88573	0.02370
4489.95706	0.02376
4488.02838	0.02381
4486.09971	0.02386
4484.17103	0.02391
4482.24236	0.02395
4480.31368	0.02397
4478.38500	0.02399
4476.45633	0.02403
4474.52765	0.02408
4472.59898	0.02412
4470.67030	0.02415
4468.74163	0.02419
4466.81295	0.02424
4464.88427	0.02427
4462.95560	0.02429
4461.02692	0.02432
4459.09825	0.02438
4457.16957	0.02447
4455.24090	0.02454
4453.31222	0.02458
4451.38354	0.02461
4449.45487	0.02466
4447.52619	0.02469
4445.59752	0.02470
4443.66884	0.02472
4441.74017	0.02478
4439.81149	0.02484
4437.88281	0.02490
4435.95414	0.02495
4434.02546	0.02499
4432.09679	0.02503
4430.16811	0.02506
4428.23944	0.02509
4426.31076	0.02513
4424.38208	0.02518
4422.45341	0.02523
4420.52473	0.02528
4418.59606	0.02531
4416.66738	0.02532
4414.73871	0.02536
4412.81003	0.02541
4410.88135	0.02545
4408.95268	0.02549
4407.02400	0.02556
4405.09533	0.02563
4403.16665	0.02568
4401.23798	0.02573
4399.30930	0.02579
4397.38062	0.02583
4395.45195	0.02585
4393.52327	0.02588
4391.59460	0.02595
4389.66592	0.02601
4387.73725	0.02605
4385.80857	0.02608
4383.87989	0.02611
4381.95122	0.02616
4380.02254	0.02621
4378.09387	0.02627
4376.16519	0.02632
4374.23652	0.02636
4372.30784	0.02639
4370.37916	0.02645
4368.45049	0.02651
4366.52181	0.02657
4364.59314	0.02662
4362.66446	0.02666
4360.73579	0.02668
4358.80711	0.02672
4356.87843	0.02676
4354.94976	0.02679
4353.02108	0.02683
4351.09241	0.02688
4349.16373	0.02692
4347.23506	0.02696
4345.30638	0.02702
4343.37770	0.02710
4341.44903	0.02716
4339.52035	0.02722
4337.59168	0.02727
4335.66300	0.02732
4333.73433	0.02736
4331.80565	0.02739
4329.87697	0.02741
4327.94830	0.02743
4326.01962	0.02749
4324.09095	0.02757
4322.16227	0.02763
4320.23360	0.02768
4318.30492	0.02774
4316.37624	0.02780
4314.44757	0.02783
4312.51889	0.02787
4310.59022	0.02794
4308.66154	0.02801
4306.73287	0.02806
4304.80419	0.02811
4302.87551	0.02816
4300.94684	0.02818
4299.01816	0.02821
4297.08949	0.02825
4295.16081	0.02832
4293.23214	0.02839
4291.30346	0.02848
4289.37478	0.02855
4287.44611	0.02862
4285.51743	0.02867
4283.58876	0.02870
4281.66008	0.02873
4279.73141	0.02879
4277.80273	0.02885
4275.87405	0.02890
4273.94538	0.02896
4272.01670	0.02901
4270.08803	0.02905
4268.15935	0.02909
4266.23068	0.02915
4264.30200	0.02921
4262.37332	0.02927
4260.44465	0.02933
4258.51597	0.02937
4256.58730	0.02941
4254.65862	0.02946
4252.72995	0.02952
4250.80127	0.02958
4248.87259	0.02963
4246.94392	0.02968
4245.01524	0.02974
4243.08657	0.02979
4241.15789	0.02986
4239.22922	0.02991
4237.30054	0.02997
4235.37186	0.03002
4233.44319	0.03006
4231.51451	0.03010
4229.58584	0.03016
4227.65716	0.03023
4225.72849	0.03030
4223.79981	0.03035
4221.87113	0.03040
4219.94246	0.03045
4218.01378	0.03051
4216.08511	0.03058
4214.15643	0.03064
4212.22776	0.03069
4210.29908	0.03074
4208.37040	0.03079
4206.44173	0.03085
4204.51305	0.03092
4202.58438	0.03098
4200.65570	0.03103
4198.72703	0.03109
4196.79835	0.03115
4194.86968	0.03122
4192.94100	0.03128
4191.01232	0.03134
4189.08365	0.03139
4187.15497	0.03144
4185.22630	0.03149
4183.29762	0.03154
4181.36895	0.03158
4179.44027	0.03164
4177.51159	0.03171
4175.58292	0.03178
4173.65424	0.03185
4171.72557	0.03191
4169.79689	0.03198
4167.86822	0.03205
4165.93954	0.03211
4164.01086	0.03215
4162.08219	0.03221
4160.15351	0.03226
4158.22484	0.03231
4156.29616	0.03237
4154.36749	0.03245
4152.43881	0.03251
4150.51013	0.03257
4148.58146	0.03263
4146.65278	0.03269
4144.72411	0.03275
4142.79543	0.03282
4140.86676	0.03289
4138.93808	0.03294
4137.00940	0.03300
4135.08073	0.03306
4133.15205	0.03311
4131.22338	0.03315
4129.29470	0.03320
4127.36603	0.03329
4125.43735	0.03336
4123.50867	0.03341
4121.58000	0.03347
4119.65132	0.03355
4117.72265	0.03363
4115.79397	0.03370
4113.86530	0.03376
4111.93662	0.03383
4110.00794	0.03390
4108.07927	0.03397
4106.15059	0.03404
4104.22192	0.03412
4102.29324	0.03417
4100.36457	0.03420
4098.43589	0.03423
4096.50721	0.03428
4094.57854	0.03432
4092.64986	0.03437
4090.72119	0.03444
4088.79251	0.03451
4086.86384	0.03459
4084.93516	0.03467
4083.00648	0.03475
4081.07781	0.03483
4079.14913	0.03490
4077.22046	0.03499
4075.29178	0.03505
4073.36311	0.03510
4071.43443	0.03515
4069.50575	0.03520
4067.57708	0.03527
4065.64840	0.03535
4063.71973	0.03543
4061.79105	0.03551
4059.86238	0.03558
4057.93370	0.03564
4056.00502	0.03572
4054.07635	0.03581
4052.14767	0.03589
4050.21900	0.03596
4048.29032	0.03601
4046.36165	0.03606
4044.43297	0.03611
4042.50429	0.03616
4040.57562	0.03624
4038.64694	0.03634
4036.71827	0.03645
4034.78959	0.03653
4032.86092	0.03660
4030.93224	0.03665
4029.00356	0.03668
4027.07489	0.03673
4025.14621	0.03681
4023.21754	0.03688
4021.28886	0.03694
4019.36019	0.03701
4017.43151	0.03710
4015.50283	0.03716
4013.57416	0.03720
4011.64548	0.03725
4009.71681	0.03732
4007.78813	0.03741
4005.85946	0.03752
4003.93078	0.03760
4002.00210	0.03766
4000.07343	0.03771
3998.14475	0.03778
3996.21608	0.03785
3994.28740	0.03793
3992.35873	0.03800
3990.43005	0.03807
3988.50137	0.03813
3986.57270	0.03822
3984.64402	0.03831
3982.71535	0.03838
3980.78667	0.03844
3978.85800	0.03849
3976.92932	0.03855
3975.00064	0.03865
3973.07197	0.03876
3971.14329	0.03886
3969.21462	0.03892
3967.28594	0.03897
3965.35727	0.03903
3963.42859	0.03910
3961.49991	0.03916
3959.57124	0.03922
3957.64256	0.03928
3955.71389	0.03936
3953.78521	0.03943
3951.85654	0.03949
3949.92786	0.03954
3947.99918	0.03963
3946.07051	0.03973
3944.14183	0.03982
3942.21316	0.03989
3940.28448	0.03996
3938.35581	0.04003
3936.42713	0.04009
3934.49845	0.04013
3932.56978	0.04020
3930.64110	0.04030
3928.71243	0.04040
3926.78375	0.04047
3924.85508	0.04054
3922.92640	0.04062
3920.99772	0.04069
3919.06905	0.04072
3917.14037	0.04078
3915.21170	0.04090
3913.28302	0.04103
3911.35435	0.04114
3909.42567	0.04120
3907.49699	0.04116
3905.56832	0.04104
3903.63964	0.04102
3901.71097	0.04115
3899.78229	0.04135
3897.85362	0.04158
3895.92494	0.04175
3893.99626	0.04179
3892.06759	0.04178
3890.13891	0.04184
3888.21024	0.04188
3886.28156	0.04189
3884.35289	0.04198
3882.42421	0.04209
3880.49553	0.04218
3878.56686	0.04230
3876.63818	0.04237
3874.70951	0.04236
3872.78083	0.04236
3870.85216	0.04239
3868.92348	0.04251
3866.99480	0.04270
3865.06613	0.04284
3863.13745	0.04295
3861.20878	0.04306
3859.28010	0.04313
3857.35143	0.04305
3855.42275	0.04284
3853.49407	0.04282
3851.56540	0.04312
3849.63672	0.04350
3847.70805	0.04371
3845.77937	0.04373
3843.85070	0.04368
3841.92202	0.04368
3839.99334	0.04372
3838.06467	0.04383
3836.13599	0.04396
3834.20732	0.04407
3832.27864	0.04418
3830.34997	0.04434
3828.42129	0.04451
3826.49261	0.04459
3824.56394	0.04455
3822.63526	0.04445
3820.70659	0.04449
3818.77791	0.04470
3816.84924	0.04488
3814.92056	0.04503
3812.99188	0.04519
3811.06321	0.04529
3809.13453	0.04527
3807.20586	0.04525
3805.27718	0.04532
3803.34851	0.04541
3801.41983	0.04551
3799.49115	0.04565
3797.56248	0.04578
3795.63380	0.04591
3793.70513	0.04606
3791.77645	0.04620
3789.84778	0.04628
3787.91910	0.04633
3785.99042	0.04638
3784.06175	0.04646
3782.13307	0.04650
3780.20440	0.04653
3778.27572	0.04665
3776.34705	0.04684
3774.41837	0.04695
3772.48969	0.04696
3770.56102	0.04695
3768.63234	0.04699
3766.70367	0.04708
3764.77499	0.04722
3762.84632	0.04735
3760.91764	0.04742
3758.98896	0.04747
3757.06029	0.04754
3755.13161	0.04757
3753.20294	0.04751
3751.27426	0.04741
3749.34559	0.04745
3747.41691	0.04761
3745.48823	0.04772
3743.55956	0.04788
3741.63088	0.04812
3739.70221	0.04822
3737.77353	0.04812
3735.84486	0.04802
3733.91618	0.04816
3731.98750	0.04845
3730.05883	0.04866
3728.13015	0.04874
3726.20148	0.04882
3724.27280	0.04894
3722.34413	0.04908
3720.41545	0.04920
3718.48677	0.04931
3716.55810	0.04939
3714.62942	0.04934
3712.70075	0.04923
3710.77207	0.04930
3708.84340	0.04954
3706.91472	0.04980
3704.98604	0.04995
3703.05737	0.04999
3701.12869	0.05006
3699.20002	0.05020
3697.27134	0.05033
3695.34267	0.05040
3693.41399	0.05042
3691.48531	0.05041
3689.55664	0.05046
3687.62796	0.05064
3685.69929	0.05084
3683.77061	0.05096
3681.84194	0.05102
3679.91326	0.05102
3677.98458	0.05091
3676.05591	0.05079
3674.12723	0.05083
3672.19856	0.05098
3670.26988	0.05115
3668.34121	0.05142
3666.41253	0.05168
3664.48385	0.05184
3662.55518	0.05193
3660.62650	0.05196
3658.69783	0.05190
3656.76915	0.05185
3654.84048	0.05190
3652.91180	0.05194
3650.98312	0.05183
3649.05445	0.05176
3647.12577	0.05190
3645.19710	0.05218
3643.26842	0.05244
3641.33975	0.05262
3639.41107	0.05274
3637.48239	0.05282
3635.55372	0.05284
3633.62504	0.05281
3631.69637	0.05266
3629.76769	0.05254
3627.83902	0.05271
3625.91034	0.05306
3623.98166	0.05327
3622.05299	0.05332
3620.12431	0.05329
3618.19564	0.05329
3616.26696	0.05336
3614.33829	0.05344
3612.40961	0.05353
3610.48093	0.05356
3608.55226	0.05357
3606.62358	0.05368
3604.69491	0.05385
3602.76623	0.05397
3600.83756	0.05401
3598.90888	0.05403
3596.98020	0.05404
3595.05153	0.05412
3593.12285	0.05423
3591.19418	0.05423
3589.26550	0.05414
3587.33683	0.05420
3585.40815	0.05442
3583.47947	0.05463
3581.55080	0.05473
3579.62212	0.05479
3577.69345	0.05483
3575.76477	0.05490
3573.83610	0.05501
3571.90742	0.05509
3569.97874	0.05508
3568.05007	0.05502
3566.12139	0.05507
3564.19272	0.05524
3562.26404	0.05540
3560.33537	0.05550
3558.40669	0.05556
3556.47801	0.05561
3554.54934	0.05568
3552.62066	0.05578
3550.69199	0.05585
3548.76331	0.05584
3546.83464	0.05582
3544.90596	0.05591
3542.97728	0.05605
3541.04861	0.05616
3539.11993	0.05622
3537.19126	0.05626
3535.26258	0.05630
3533.33391	0.05634
3531.40523	0.05637
3529.47655	0.05639
3527.54788	0.05643
3525.61920	0.05647
3523.69053	0.05652
3521.76185	0.05662
3519.83318	0.05672
3517.90450	0.05675
3515.97582	0.05678
3514.04715	0.05681
3512.11847	0.05681
3510.18980	0.05681
3508.26112	0.05684
3506.33245	0.05685
3504.40377	0.05688
3502.47509	0.05694
3500.54642	0.05702
3498.61774	0.05708
3496.68907	0.05708
3494.76039	0.05709
3492.83172	0.05714
3490.90304	0.05717
3488.97436	0.05718
3487.04569	0.05721
3485.11701	0.05725
3483.18834	0.05728
3481.25966	0.05733
3479.33099	0.05740
3477.40231	0.05744
3475.47363	0.05748
3473.54496	0.05755
3471.61628	0.05764
3469.68761	0.05772
3467.75893	0.05781
3465.83026	0.05790
3463.90158	0.05801
3461.97290	0.05813
3460.04423	0.05824
3458.11555	0.05835
3456.18688	0.05846
3454.25820	0.05856
3452.32953	0.05864
3450.40085	0.05870
3448.47217	0.05875
3446.54350	0.05884
3444.61482	0.05896
3442.68615	0.05906
3440.75747	0.05915
3438.82880	0.05929
3436.90012	0.05948
3434.97144	0.05966
3433.04277	0.05983
3431.11409	0.06001
3429.18542	0.06021
3427.25674	0.06038
3425.32807	0.06052
3423.39939	0.06068
3421.47071	0.06085
3419.54204	0.06101
3417.61336	0.06116
3415.68469	0.06130
3413.75601	0.06145
3411.82734	0.06160
3409.89866	0.06174
3407.96998	0.06187
3406.04131	0.06201
3404.11263	0.06215
3402.18396	0.06227
3400.25528	0.06237
3398.32661	0.06246
3396.39793	0.06259
3394.46925	0.06272
3392.54058	0.06284
3390.61190	0.06296
3388.68323	0.06311
3386.75455	0.06325
3384.82588	0.06339
3382.89720	0.06352
3380.96852	0.06366
3379.03985	0.06377
3377.11117	0.06389
3375.18250	0.06401
3373.25382	0.06413
3371.32515	0.06420
3369.39647	0.06429
3367.46779	0.06443
3365.53912	0.06459
3363.61044	0.06471
3361.68177	0.06481
3359.75309	0.06492
3357.82442	0.06504
3355.89574	0.06517
3353.96706	0.06530
3352.03839	0.06542
3350.10971	0.06554
3348.18104	0.06566
3346.25236	0.06580
3344.32369	0.06594
3342.39501	0.06603
3340.46633	0.06614
3338.53766	0.06628
3336.60898	0.06640
3334.68031	0.06648
3332.75163	0.06658
3330.82296	0.06673
3328.89428	0.06686
3326.96560	0.06695
3325.03693	0.06704
3323.10825	0.06715
3321.17958	0.06727
3319.25090	0.06741
3317.32223	0.06757
3315.39355	0.06772
3313.46487	0.06786
3311.53620	0.06798
3309.60752	0.06809
3307.67885	0.06818
3305.75017	0.06828
3303.82150	0.06840
3301.89282	0.06853
3299.96414	0.06866
3298.03547	0.06876
3296.10679	0.06887
3294.17812	0.06902
3292.24944	0.06918
3290.32077	0.06932
3288.39209	0.06945
3286.46341	0.06958
3284.53474	0.06971
3282.60606	0.06983
3280.67739	0.06994
3278.74871	0.07003
3276.82004	0.07013
3274.89136	0.07026
3272.96268	0.07037
3271.03401	0.07047
3269.10533	0.07061
3267.17666	0.07077
3265.24798	0.07094
3263.31931	0.07108
3261.39063	0.07120
3259.46195	0.07132
3257.53328	0.07145
3255.60460	0.07156
3253.67593	0.07168
3251.74725	0.07182
3249.81858	0.07197
3247.88990	0.07208
3245.96122	0.07217
3244.03255	0.07228
3242.10387	0.07241
3240.17520	0.07254
3238.24652	0.07267
3236.31785	0.07279
3234.38917	0.07290
3232.46049	0.07305
3230.53182	0.07320
3228.60314	0.07334
3226.67447	0.07349
3224.74579	0.07363
3222.81712	0.07379
3220.88844	0.07393
3218.95976	0.07404
3217.03109	0.07416
3215.10241	0.07428
3213.17374	0.07439
3211.24506	0.07449
3209.31639	0.07462
3207.38771	0.07477
3205.45903	0.07491
3203.53036	0.07504
3201.60168	0.07516
3199.67301	0.07530
3197.74433	0.07545
3195.81566	0.07561
3193.88698	0.07574
3191.95830	0.07586
3190.02963	0.07599
3188.10095	0.07613
3186.17228	0.07628
3184.24360	0.07640
3182.31493	0.07653
3180.38625	0.07667
3178.45757	0.07679
3176.52890	0.07692
3174.60022	0.07707
3172.67155	0.07723
3170.74287	0.07737
3168.81420	0.07748
3166.88552	0.07759
3164.95684	0.07771
3163.02817	0.07784
3161.09949	0.07799
3159.17082	0.07815
3157.24214	0.07830
3155.31347	0.07845
3153.38479	0.07859
3151.45611	0.07870
3149.52744	0.07882
3147.59876	0.07896
3145.67009	0.07910
3143.74141	0.07921
3141.81274	0.07934
3139.88406	0.07949
3137.95538	0.07960
3136.02671	0.07969
3134.09803	0.07982
3132.16936	0.07999
3130.24068	0.08014
3128.31201	0.08027
3126.38333	0.08039
3124.45465	0.08053
3122.52598	0.08068
3120.59730	0.08082
3118.66863	0.08093
3116.73995	0.08105
3114.81128	0.08116
3112.88260	0.08126
3110.95392	0.08139
3109.02525	0.08155
3107.09657	0.08172
3105.16790	0.08186
3103.23922	0.08198
3101.31055	0.08212
3099.38187	0.08227
3097.45319	0.08242
3095.52452	0.08256
3093.59584	0.08268
3091.66717	0.08280
3089.73849	0.08292
3087.80982	0.08305
3085.88114	0.08318
3083.95246	0.08332
3082.02379	0.08347
3080.09511	0.08361
3078.16644	0.08374
3076.23776	0.08387
3074.30909	0.08401
3072.38041	0.08417
3070.45173	0.08431
3068.52306	0.08442
3066.59438	0.08454
3064.66571	0.08467
3062.73703	0.08480
3060.80836	0.08493
3058.87968	0.08506
3056.95100	0.08518
3055.02233	0.08533
3053.09365	0.08549
3051.16498	0.08564
3049.23630	0.08576
3047.30763	0.08589
3045.37895	0.08602
3043.45027	0.08613
3041.52160	0.08623
3039.59292	0.08636
3037.66425	0.08652
3035.73557	0.08667
3033.80690	0.08678
3031.87822	0.08688
3029.94954	0.08699
3028.02087	0.08712
3026.09219	0.08728
3024.16352	0.08746
3022.23484	0.08760
3020.30617	0.08772
3018.37749	0.08784
3016.44881	0.08797
3014.52014	0.08810
3012.59146	0.08822
3010.66279	0.08836
3008.73411	0.08850
3006.80544	0.08864
3004.87676	0.08880
3002.94808	0.08893
3001.01941	0.08904
2999.09073	0.08917
2997.16206	0.08930
2995.23338	0.08940
2993.30471	0.08948
2991.37603	0.08959
2989.44735	0.08972
2987.51868	0.08983
2985.59000	0.08991
2983.66133	0.08998
2981.73265	0.09006
2979.80398	0.09017
2977.87530	0.09024
2975.94662	0.09028
2974.01795	0.09029
2972.08927	0.09029
2970.16060	0.09029
2968.23192	0.09030
2966.30325	0.09030
2964.37457	0.09032
2962.44589	0.09039
2960.51722	0.09053
2958.58854	0.09072
2956.65987	0.09093
2954.73119	0.09111
2952.80252	0.09126
2950.87384	0.09139
2948.94516	0.09152
2947.01649	0.09164
2945.08781	0.09175
2943.15914	0.09183
2941.23046	0.09186
2939.30179	0.09187
2937.37311	0.09186
2935.44443	0.09183
2933.51576	0.09181
2931.58708	0.09182
2929.65841	0.09181
2927.72973	0.09177
2925.80106	0.09174
2923.87238	0.09175
2921.94370	0.09180
2920.01503	0.09188
2918.08635	0.09201
2916.15768	0.09229
2914.22900	0.09272
2912.30033	0.09318
2910.37165	0.09358
2908.44297	0.09390
2906.51430	0.09414
2904.58562	0.09435
2902.65695	0.09457
2900.72827	0.09476
2898.79960	0.09491
2896.87092	0.09508
2894.94224	0.09529
2893.01357	0.09551
2891.08489	0.09572
2889.15622	0.09590
2887.22754	0.09607
2885.29887	0.09622
2883.37019	0.09637
2881.44151	0.09652
2879.51284	0.09667
2877.58416	0.09680
2875.65549	0.09692
2873.72681	0.09704
2871.79814	0.09716
2869.86946	0.09727
2867.94078	0.09738
2866.01211	0.09748
2864.08343	0.09755
2862.15476	0.09763
2860.22608	0.09773
2858.29741	0.09777
2856.36873	0.09775
2854.44005	0.09771
2852.51138	0.09768
2850.58270	0.09774
2848.65403	0.09799
2846.72535	0.09842
2844.79668	0.09890
2842.86800	0.09931
2840.93932	0.09962
2839.01065	0.09985
2837.08197	0.10003
2835.15330	0.10020
2833.22462	0.10039
2831.29595	0.10057
2829.36727	0.10075
2827.43859	0.10093
2825.50992	0.10109
2823.58124	0.10126
2821.65257	0.10144
2819.72389	0.10161
2817.79522	0.10176
2815.86654	0.10191
2813.93786	0.10203
2812.00919	0.10215
2810.08051	0.10230
2808.15184	0.10247
2806.22316	0.10263
2804.29449	0.10278
2802.36581	0.10293
2800.43713	0.10311
2798.50846	0.10329
2796.57978	0.10344
2794.65111	0.10355
2792.72243	0.10366
2790.79376	0.10379
2788.86508	0.10395
2786.93640	0.10410
2785.00773	0.10424
2783.07905	0.10439
2781.15038	0.10455
2779.22170	0.10466
2777.29303	0.10478
2775.36435	0.10495
2773.43567	0.10512
2771.50700	0.10526
2769.57832	0.10539
2767.64965	0.10553
2765.72097	0.10568
2763.79230	0.10583
2761.86362	0.10595
2759.93494	0.10606
2758.00627	0.10621
2756.07759	0.10637
2754.14892	0.10649
2752.22024	0.10660
2750.29157	0.10676
2748.36289	0.10692
2746.43421	0.10703
2744.50554	0.10714
2742.57686	0.10730
2740.64819	0.10747
2738.71951	0.10763
2736.79084	0.10777
2734.86216	0.10790
2732.93348	0.10802
2731.00481	0.10816
2729.07613	0.10834
2727.14746	0.10849
2725.21878	0.10860
2723.29011	0.10871
2721.36143	0.10883
2719.43275	0.10894
2717.50408	0.10906
2715.57540	0.10919
2713.64673	0.10933
2711.71805	0.10947
2709.78938	0.10962
2707.86070	0.10977
2705.93202	0.10994
2704.00335	0.11010
2702.07467	0.11022
2700.14600	0.11033
2698.21732	0.11047
2696.28865	0.11064
2694.35997	0.11079
2692.43129	0.11092
2690.50262	0.11105
2688.57394	0.11117
2686.64527	0.11125
2684.71659	0.11134
2682.78792	0.11148
2680.85924	0.11164
2678.93056	0.11177
2677.00189	0.11191
2675.07321	0.11206
2673.14454	0.11222
2671.21586	0.11236
2669.28719	0.11248
2667.35851	0.11259
2665.42983	0.11274
2663.50116	0.11290
2661.57248	0.11304
2659.64381	0.11318
2657.71513	0.11332
2655.78646	0.11349
2653.85778	0.11364
2651.92910	0.11378
2650.00043	0.11388
2648.07175	0.11399
2646.14308	0.11415
2644.21440	0.11435
2642.28573	0.11454
2640.35705	0.11470
2638.42837	0.11482
2636.49970	0.11492
2634.57102	0.11504
2632.64235	0.11520
2630.71367	0.11535
2628.78500	0.11550
2626.85632	0.11566
2624.92764	0.11581
2622.99897	0.11597
2621.07029	0.11612
2619.14162	0.11627
2617.21294	0.11644
2615.28427	0.11661
2613.35559	0.11677
2611.42691	0.11690
2609.49824	0.11701
2607.56956	0.11714
2605.64089	0.11734
2603.71221	0.11753
2601.78354	0.11765
2599.85486	0.11776
2597.92618	0.11792
2595.99751	0.11810
2594.06883	0.11822
2592.14016	0.11834
2590.21148	0.11848
2588.28281	0.11865
2586.35413	0.11880
2584.42545	0.11893
2582.49678	0.11907
2580.56810	0.11922
2578.63943	0.11936
2576.71075	0.11949
2574.78208	0.11963
2572.85340	0.11978
2570.92472	0.11991
2568.99605	0.12006
2567.06737	0.12021
2565.13870	0.12036
2563.21002	0.12050
2561.28135	0.12063
2559.35267	0.12076
2557.42399	0.12089
2555.49532	0.12103
2553.56664	0.12118
2551.63797	0.12133
2549.70929	0.12145
2547.78062	0.12155
2545.85194	0.12165
2543.92326	0.12180
2541.99459	0.12199
2540.06591	0.12218
2538.13724	0.12231
2536.20856	0.12242
2534.27989	0.12256
2532.35121	0.12272
2530.42253	0.12286
2528.49386	0.12300
2526.56518	0.12314
2524.63651	0.12328
2522.70783	0.12343
2520.77916	0.12359
2518.85048	0.12374
2516.92181	0.12390
2514.99313	0.12410
2513.06445	0.12427
2511.13578	0.12437
2509.20710	0.12450
2507.27843	0.12467
2505.34975	0.12484
2503.42108	0.12500
2501.49240	0.12518
2499.56372	0.12534
2497.63505	0.12549
2495.70637	0.12565
2493.77770	0.12584
2491.84902	0.12603
2489.92035	0.12617
2487.99167	0.12630
2486.06299	0.12645
2484.13432	0.12662
2482.20564	0.12680
2480.27697	0.12694
2478.34829	0.12704
2476.41962	0.12718
2474.49094	0.12735
2472.56226	0.12753
2470.63359	0.12768
2468.70491	0.12782
2466.77624	0.12796
2464.84756	0.12813
2462.91889	0.12831
2460.99021	0.12848
2459.06153	0.12864
2457.13286	0.12878
2455.20418	0.12892
2453.27551	0.12907
2451.34683	0.12924
2449.41816	0.12941
2447.48948	0.12956
2445.56080	0.12972
2443.63213	0.12989
2441.70345	0.13005
2439.77478	0.13019
2437.84610	0.13032
2435.91743	0.13044
2433.98875	0.13057
2432.06007	0.13072
2430.13140	0.13086
2428.20272	0.13102
2426.27405	0.13119
2424.34537	0.13137
2422.41670	0.13153
2420.48802	0.13167
2418.55934	0.13183
2416.63067	0.13200
2414.70199	0.13215
2412.77332	0.13230
2410.84464	0.13245
2408.91597	0.13257
2406.98729	0.13269
2405.05861	0.13283
2403.12994	0.13300
2401.20126	0.13317
2399.27259	0.13335
2397.34391	0.13352
2395.41524	0.13365
2393.48656	0.13376
2391.55788	0.13389
2389.62921	0.13403
2387.70053	0.13417
2385.77186	0.13432
2383.84318	0.13447
2381.91451	0.13458
2379.98583	0.13465
2378.05715	0.13471
2376.12848	0.13476
2374.19980	0.13481
2372.27113	0.13485
2370.34245	0.13489
2368.41378	0.13496
2366.48510	0.13506
2364.55642	0.13513
2362.62775	0.13522
2360.69907	0.13538
2358.77040	0.13559
2356.84172	0.13582
2354.91305	0.13607
2352.98437	0.13635
2351.05569	0.13663
2349.12702	0.13685
2347.19834	0.13697
2345.26967	0.13703
2343.34099	0.13712
2341.41232	0.13722
2339.48364	0.13728
2337.55496	0.13735
2335.62629	0.13750
2333.69761	0.13770
2331.76894	0.13789
2329.84026	0.13806
2327.91159	0.13820
2325.98291	0.13835
2324.05423	0.13856
2322.12556	0.13880
2320.19688	0.13905
2318.26821	0.13927
2316.33953	0.13947
2314.41086	0.13965
2312.48218	0.13984
2310.55350	0.14003
2308.62483	0.14021
2306.69615	0.14039
2304.76748	0.14056
2302.83880	0.14070
2300.91013	0.14085
2298.98145	0.14102
2297.05277	0.14121
2295.12410	0.14139
2293.19542	0.14150
2291.26675	0.14161
2289.33807	0.14176
2287.40940	0.14195
2285.48072	0.14214
2283.55204	0.14229
2281.62337	0.14243
2279.69469	0.14259
2277.76602	0.14275
2275.83734	0.14288
2273.90867	0.14302
2271.97999	0.14321
2270.05131	0.14339
2268.12264	0.14354
2266.19396	0.14367
2264.26529	0.14378
2262.33661	0.14391
2260.40794	0.14409
2258.47926	0.14429
2256.55058	0.14446
2254.62191	0.14458
2252.69323	0.14472
2250.76456	0.14491
2248.83588	0.14510
2246.90721	0.14527
2244.97853	0.14543
2243.04985	0.14557
2241.12118	0.14569
2239.19250	0.14578
2237.26383	0.14590
2235.33515	0.14606
2233.40648	0.14621
2231.47780	0.14637
2229.54912	0.14655
2227.62045	0.14671
2225.69177	0.14684
2223.76310	0.14700
2221.83442	0.14715
2219.90575	0.14727
2217.97707	0.14740
2216.04839	0.14756
2214.11972	0.14772
2212.19104	0.14788
2210.26237	0.14804
2208.33369	0.14816
2206.40502	0.14824
2204.47634	0.14836
2202.54766	0.14857
2200.61899	0.14879
2198.69031	0.14893
2196.76164	0.14901
2194.83296	0.14911
2192.90429	0.14926
2190.97561	0.14945
2189.04693	0.14963
2187.11826	0.14979
2185.18958	0.14993
2183.26091	0.15006
2181.33223	0.15019
2179.40356	0.15036
2177.47488	0.15054
2175.54620	0.15069
2173.61753	0.15082
2171.68885	0.15093
2169.76018	0.15104
2167.83150	0.15122
2165.90283	0.15143
2163.97415	0.15162
2162.04547	0.15176
2160.11680	0.15191
2158.18812	0.15209
2156.25945	0.15225
2154.33077	0.15240
2152.40210	0.15255
2150.47342	0.15269
2148.54474	0.15282
2146.61607	0.15296
2144.68739	0.15313
2142.75872	0.15327
2140.83004	0.15339
2138.90137	0.15355
2136.97269	0.15375
2135.04401	0.15392
2133.11534	0.15408
2131.18666	0.15424
2129.25799	0.15441
2127.32931	0.15455
2125.40064	0.15466
2123.47196	0.15475
2121.54328	0.15488
2119.61461	0.15503
2117.68593	0.15517
2115.75726	0.15529
2113.82858	0.15543
2111.89991	0.15562
2109.97123	0.15583
2108.04255	0.15602
2106.11388	0.15617
2104.18520	0.15629
2102.25653	0.15643
2100.32785	0.15659
2098.39918	0.15678
2096.47050	0.15697
2094.54182	0.15715
2092.61315	0.15729
2090.68447	0.15738
2088.75580	0.15748
2086.82712	0.15764
2084.89845	0.15782
2082.96977	0.15797
2081.04109	0.15810
2079.11242	0.15827
2077.18374	0.15845
2075.25507	0.15860
2073.32639	0.15873
2071.39772	0.15887
2069.46904	0.15901
2067.54036	0.15914
2065.61169	0.15929
2063.68301	0.15950
2061.75434	0.15970
2059.82566	0.15985
2057.89699	0.15997
2055.96831	0.16011
2054.03963	0.16023
2052.11096	0.16037
2050.18228	0.16055
2048.25361	0.16072
2046.32493	0.16090
2044.39626	0.16108
2042.46758	0.16126
2040.53890	0.16142
2038.61023	0.16156
2036.68155	0.16169
2034.75288	0.16185
2032.82420	0.16201
2030.89553	0.16214
2028.96685	0.16226
2027.03817	0.16240
2025.10950	0.16256
2023.18082	0.16274
2021.25215	0.16288
2019.32347	0.16299
2017.39480	0.16308
2015.46612	0.16324
2013.53744	0.16346
2011.60877	0.16367
2009.68009	0.16385
2007.75142	0.16404
2005.82274	0.16421
2003.89407	0.16435
2001.96539	0.16449
2000.03671	0.16463
1998.10804	0.16476
1996.17936	0.16484
1994.25069	0.16491
1992.32201	0.16507
1990.39334	0.16528
1988.46466	0.16548
1986.53598	0.16562
1984.60731	0.16571
1982.67863	0.16583
1980.74996	0.16597
1978.82128	0.16611
1976.89261	0.16624
1974.96393	0.16638
1973.03525	0.16650
1971.10658	0.16658
1969.17790	0.16661
1967.24923	0.16670
1965.32055	0.16690
1963.39188	0.16712
1961.46320	0.16729
1959.53452	0.16744
1957.60585	0.16761
1955.67717	0.16779
1953.74850	0.16797
1951.81982	0.16811
1949.89115	0.16822
1947.96247	0.16834
1946.03379	0.16845
1944.10512	0.16852
1942.17644	0.16865
1940.24777	0.16885
1938.31909	0.16906
1936.39042	0.16925
1934.46174	0.16940
1932.53306	0.16950
1930.60439	0.16962
1928.67571	0.16978
1926.74704	0.16995
1924.81836	0.17007
1922.88969	0.17017
1920.96101	0.17021
1919.03233	0.17016
1917.10366	0.17032
1915.17498	0.17072
1913.24631	0.17099
1911.31763	0.17105
1909.38896	0.17114
1907.46028	0.17137
1905.53160	0.17162
1903.60293	0.17178
1901.67425	0.17189
1899.74558	0.17201
1897.81690	0.17214
1895.88823	0.17225
1893.95955	0.17241
1892.03087	0.17255
1890.10220	0.17264
1888.17352	0.17280
1886.24485	0.17301
1884.31617	0.17319
1882.38750	0.17335
1880.45882	0.17350
1878.53014	0.17364
1876.60147	0.17380
1874.67279	0.17397
1872.74412	0.17406
1870.81544	0.17400
1868.88677	0.17396
1866.95809	0.17417
1865.02941	0.17452
1863.10074	0.17478
1861.17206	0.17498
1859.24339	0.17519
1857.31471	0.17538
1855.38604	0.17553
1853.45736	0.17567
1851.52868	0.17583
1849.60001	0.17590
1847.67133	0.17581
1845.74266	0.17570
1843.81398	0.17586
1841.88531	0.17628
1839.95663	0.17662
1838.02795	0.17679
1836.09928	0.17696
1834.17060	0.17709
1832.24193	0.17698
1830.31325	0.17687
1828.38458	0.17710
1826.45590	0.17742
1824.52722	0.17766
1822.59855	0.17797
1820.66987	0.17825
1818.74120	0.17839
1816.81252	0.17849
1814.88385	0.17856
1812.95517	0.17855
1811.02649	0.17857
1809.09782	0.17881
1807.16914	0.17912
1805.24047	0.17926
1803.31179	0.17916
1801.38312	0.17901
1799.45444	0.17906
1797.52576	0.17930
1795.59709	0.17943
1793.66841	0.17941
1791.73974	0.17953
1789.81106	0.17993
1787.88239	0.18027
1785.95371	0.18031
1784.02503	0.18028
1782.09636	0.18031
1780.16768	0.18042
1778.23901	0.18065
1776.31033	0.18070
1774.38166	0.18040
1772.45298	0.18025
1770.52430	0.18054
1768.59563	0.18095
1766.66695	0.18126
1764.73828	0.18139
1762.80960	0.18128
1760.88093	0.18130
1758.95225	0.18150
1757.02357	0.18166
1755.09490	0.18175
1753.16622	0.18164
1751.23755	0.18141
1749.30887	0.18138
1747.38020	0.18151
1745.45152	0.18161
1743.52284	0.18164
1741.59417	0.18166
1739.66549	0.18171
1737.73682	0.18152
1735.80814	0.18096
1733.87947	0.18081
1731.95079	0.18143
1730.02211	0.18210
1728.09344	0.18249
1726.16476	0.18271
1724.23609	0.18277
1722.30741	0.18279
1720.37874	0.18267
1718.45006	0.18247
1716.52138	0.18248
1714.59271	0.18282
1712.66403	0.18331
1710.73536	0.18364
1708.80668	0.18366
1706.87801	0.18345
1704.94933	0.18320
1703.02065	0.18265
1701.09198	0.18199
1699.16330	0.18213
1697.23463	0.18282
1695.30595	0.18340
1693.37728	0.18394
1691.44860	0.18423
1689.51992	0.18413
1687.59125	0.18374
1685.66257	0.18324
1683.73390	0.18325
1681.80522	0.18384
1679.87655	0.18431
1677.94787	0.18440
1676.01919	0.18433
1674.09052	0.18428
1672.16184	0.18410
1670.23317	0.18387
1668.30449	0.18406
1666.37582	0.18445
1664.44714	0.18446
1662.51846	0.18438
1660.58979	0.18463
1658.66111	0.18477
1656.73244	0.18435
1654.80376	0.18371
1652.87509	0.18371
1650.94641	0.18424
1649.01773	0.18438
1647.08906	0.18427
1645.16038	0.18458
1643.23171	0.18506
1641.30303	0.18525
1639.37436	0.18504
1637.44568	0.18448
1635.51700	0.18422
1633.58833	0.18475
1631.65965	0.18532
1629.73098	0.18529
1627.80230	0.18507
1625.87363	0.18493
1623.94495	0.18470
1622.01627	0.18450
1620.08760	0.18438
1618.15892	0.18433
1616.23025	0.18475
1614.30157	0.18571
1612.37290	0.18646
1610.44422	0.18675
1608.51554	0.18696
1606.58687	0.18727
1604.65819	0.18755
1602.72952	0.18774
1600.80084	0.18793
1598.87217	0.18815
1596.94349	0.18830
1595.01481	0.18840
1593.08614	0.18851
1591.15746	0.18868
1589.22879	0.18889
1587.30011	0.18907
1585.37144	0.18923
1583.44276	0.18941
1581.51408	0.18957
1579.58541	0.18958
1577.65673	0.18951
1575.72806	0.18963
1573.79938	0.18993
1571.87071	0.19001
1569.94203	0.18992
1568.01335	0.19003
1566.08468	0.19032
1564.15600	0.19042
1562.22733	0.18998
1560.29865	0.18923
1558.36998	0.18917
1556.44130	0.18993
1554.51262	0.19068
1552.58395	0.19106
1550.65527	0.19123
1548.72660	0.19130
1546.79792	0.19117
1544.86925	0.19084
1542.94057	0.19045
1541.01189	0.19020
1539.08322	0.19054
1537.15454	0.19124
1535.22587	0.19154
1533.29719	0.19153
1531.36852	0.19169
1529.43984	0.19178
1527.51116	0.19162
1525.58249	0.19137
1523.65381	0.19094
1521.72514	0.19046
1519.79646	0.19054
1517.86779	0.19104
1515.93911	0.19161
1514.01043	0.19206
1512.08176	0.19203
1510.15308	0.19163
1508.22441	0.19128
1506.29573	0.19139
1504.36706	0.19205
1502.43838	0.19259
1500.50970	0.19255
1498.58103	0.19241
1496.65235	0.19262
1494.72368	0.19284
1492.79500	0.19258
1490.86633	0.19204
1488.93765	0.19185
1487.00897	0.19209
1485.08030	0.19241
1483.15162	0.19253
1481.22295	0.19246
1479.29427	0.19218
1477.36560	0.19168
1475.43692	0.19110
1473.50824	0.19059
1471.57957	0.19037
1469.65089	0.19045
1467.72222	0.19039
1465.79354	0.19011
1463.86487	0.18995
1461.93619	0.18982
1460.00751	0.18920
1458.07884	0.18825
1456.15016	0.18801
1454.22149	0.18867
1452.29281	0.18928
1450.36414	0.18943
1448.43546	0.18945
1446.50678	0.18961
1444.57811	0.18980
1442.64943	0.18989
1440.72076	0.18979
1438.79208	0.18935
1436.86341	0.18906
1434.93473	0.18949
1433.00605	0.19003
1431.07738	0.19021
1429.14870	0.19041
1427.22003	0.19071
1425.29135	0.19084
1423.36268	0.19080
1421.43400	0.19058
1419.50532	0.19029
1417.57665	0.19033
1415.64797	0.19067
1413.71930	0.19093
1411.79062	0.19100
1409.86195	0.19099
1407.93327	0.19094
1406.00459	0.19090
1404.07592	0.19092
1402.14724	0.19082
1400.21857	0.19045
1398.28989	0.19014
1396.36122	0.19007
1394.43254	0.19020
1392.50386	0.19042
1390.57519	0.19033
1388.64651	0.18984
1386.71784	0.18949
1384.78916	0.18957
1382.86049	0.18977
1380.93181	0.18990
1379.00313	0.18994
1377.07446	0.18987
1375.14578	0.18976
1373.21711	0.18972
1371.28843	0.18974
1369.35976	0.18970
1367.43108	0.18965
1365.50240	0.18955
1363.57373	0.18938
1361.64505	0.18933
1359.71638	0.18952
1357.78770	0.18973
1355.85903	0.18983
1353.93035	0.18988
1352.00167	0.18996
1350.07300	0.19005
1348.14432	0.19014
1346.21565	0.19020
1344.28697	0.19021
1342.35830	0.19013
1340.42962	0.18998
1338.50094	0.18990
1336.57227	0.18995
1334.64359	0.18999
1332.71492	0.18994
1330.78624	0.18981
1328.85757	0.18964
1326.92889	0.18950
1325.00021	0.18934
1323.07154	0.18915
1321.14286	0.18893
1319.21419	0.18872
1317.28551	0.18858
1315.35684	0.18852
1313.42816	0.18841
1311.49948	0.18820
1309.57081	0.18797
1307.64213	0.18776
1305.71346	0.18759
1303.78478	0.18742
1301.85611	0.18724
1299.92743	0.18702
1297.99875	0.18677
1296.07008	0.18654
1294.14140	0.18636
1292.21273	0.18621
1290.28405	0.18603
1288.35538	0.18582
1286.42670	0.18558
1284.49802	0.18531
1282.56935	0.18510
1280.64067	0.18492
1278.71200	0.18472
1276.78332	0.18445
1274.85465	0.18406
1272.92597	0.18354
1270.99729	0.18292
1269.06862	0.18217
1267.13994	0.18129
1265.21127	0.18046
1263.28259	0.17990
1261.35392	0.17971
1259.42524	0.17980
1257.49656	0.18001
1255.56789	0.18023
1253.63921	0.18028
1251.71054	0.18010
1249.78186	0.17981
1247.85319	0.17952
1245.92451	0.17919
1243.99583	0.17881
1242.06716	0.17837
1240.13848	0.17791
1238.20981	0.17746
1236.28113	0.17699
1234.35246	0.17650
1232.42378	0.17599
1230.49510	0.17545
1228.56643	0.17485
1226.63775	0.17431
1224.70908	0.17387
1222.78040	0.17345
1220.85173	0.17300
1218.92305	0.17257
1216.99437	0.17209
1215.06570	0.17156
1213.13702	0.17103
1211.20835	0.17057
1209.27967	0.17009
1207.35100	0.16950
1205.42232	0.16884
1203.49364	0.16828
1201.56497	0.16783
1199.63629	0.16734
1197.70762	0.16676
1195.77894	0.16615
1193.85027	0.16555
1191.92159	0.16492
1189.99291	0.16426
1188.06424	0.16362
1186.13556	0.16295
1184.20689	0.16221
1182.27821	0.16140
1180.34954	0.16062
1178.42086	0.15990
1176.49218	0.15917
1174.56351	0.15837
1172.63483	0.15756
1170.70616	0.15675
1168.77748	0.15588
1166.84881	0.15502
1164.92013	0.15423
1162.99145	0.15350
1161.06278	0.15274
1159.13410	0.15196
1157.20543	0.15120
1155.27675	0.15046
1153.34808	0.14972
1151.41940	0.14900
1149.49072	0.14826
1147.56205	0.14747
1145.63337	0.14667
1143.70470	0.14585
1141.77602	0.14500
1139.84735	0.14411
1137.91867	0.14314
1135.98999	0.14199
1134.06132	0.14066
1132.13264	0.13917
1130.20397	0.13750
1128.27529	0.13564
1126.34662	0.13360
1124.41794	0.13142
1122.48926	0.12923
1120.56059	0.12709
1118.63191	0.12501
1116.70324	0.12305
1114.77456	0.12128
1112.84589	0.11978
1110.91721	0.11858
1108.98853	0.11758
1107.05986	0.11684
1105.13118	0.11642
1103.20251	0.11629
1101.27383	0.11637
1099.34516	0.11670
1097.41648	0.11728
1095.48780	0.11801
1093.55913	0.11877
1091.63045	0.11953
1089.70178	0.12028
1087.77310	0.12094
1085.84443	0.12150
1083.91575	0.12198
1081.98707	0.12233
1080.05840	0.12258
1078.12972	0.12281
1076.20105	0.12300
1074.27237	0.12316
1072.34370	0.12329
1070.41502	0.12335
1068.48634	0.12337
1066.55767	0.12348
1064.62899	0.12369
1062.70032	0.12393
1060.77164	0.12412
1058.84297	0.12429
1056.91429	0.12455
1054.98561	0.12489
1053.05694	0.12520
1051.12826	0.12547
1049.19959	0.12570
1047.27091	0.12598
1045.34224	0.12631
1043.41356	0.12669
1041.48488	0.12715
1039.55621	0.12762
1037.62753	0.12798
1035.69886	0.12826
1033.77018	0.12857
1031.84151	0.12897
1029.91283	0.12938
1027.98415	0.12970
1026.05548	0.12998
1024.12680	0.13027
1022.19813	0.13056
1020.26945	0.13093
1018.34078	0.13134
1016.41210	0.13170
1014.48342	0.13206
1012.55475	0.13255
1010.62607	0.13317
1008.69740	0.13381
1006.76872	0.13440
1004.84005	0.13493
1002.91137	0.13535
1000.98269	0.13562
999.05402	0.13579
997.12534	0.13597
995.19667	0.13619
993.26799	0.13637
991.33932	0.13651
989.41064	0.13665
987.48196	0.13676
985.55329	0.13678
983.62461	0.13672
981.69594	0.13660
979.76726	0.13647
977.83859	0.13634
975.90991	0.13622
973.98123	0.13609
972.05256	0.13592
970.12388	0.13578
968.19521	0.13566
966.26653	0.13548
964.33786	0.13531
962.40918	0.13521
960.48050	0.13510
958.55183	0.13492
956.62315	0.13474
954.69448	0.13462
952.76580	0.13448
950.83713	0.13427
948.90845	0.13403
946.97977	0.13378
945.05110	0.13354
943.12242	0.13333
941.19375	0.13310
939.26507	0.13277
937.33640	0.13235
935.40772	0.13188
933.47904	0.13140
931.55037	0.13090
929.62169	0.13044
927.69302	0.13004
925.76434	0.12961
923.83567	0.12914
921.90699	0.12862
919.97831	0.12800
918.04964	0.12730
916.12096	0.12660
914.19229	0.12594
912.26361	0.12530
910.33494	0.12466
908.40626	0.12403
906.47758	0.12338
904.54891	0.12270
902.62023	0.12208
900.69156	0.12154
898.76288	0.12106
896.83421	0.12062
894.90553	0.12020
892.97685	0.11977
891.04818	0.11931
889.11950	0.11882
887.19083	0.11836
885.26215	0.11800
883.33348	0.11765
881.40480	0.11728
879.47612	0.11701
877.54745	0.11684
875.61877	0.11670
873.69010	0.11650
871.76142	0.11628
869.83275	0.11602
867.90407	0.11569
865.97539	0.11541
864.04672	0.11530
862.11804	0.11527
860.18937	0.11516
858.26069	0.11502
856.33202	0.11489
854.40334	0.11472
852.47466	0.11449
850.54599	0.11428
848.61731	0.11410
846.68864	0.11386
844.75996	0.11355
842.83129	0.11322
840.90261	0.11290
838.97394	0.11256
837.04526	0.11217
835.11658	0.11166
833.18791	0.11093
831.25923	0.11000
829.33056	0.10903
827.40188	0.10808
825.47321	0.10707
823.54453	0.10606
821.61585	0.10523
819.68718	0.10462
817.75850	0.10413
815.82983	0.10370
813.90115	0.10337
811.97248	0.10313
810.04380	0.10290
808.11512	0.10269
806.18645	0.10258
804.25777	0.10254
802.32910	0.10253
800.40042	0.10236
798.47175	0.10190
796.54307	0.10125
794.61439	0.10061
792.68572	0.10014
790.75704	0.09988
788.82837	0.09971
786.89969	0.09948
784.97102	0.09919
783.04234	0.09895
781.11366	0.09877
779.18499	0.09859
777.25631	0.09833
775.32764	0.09800
773.39896	0.09762
771.47029	0.09724
769.54161	0.09692
767.61293	0.09659
765.68426	0.09619
763.75558	0.09571
761.82691	0.09524
759.89823	0.09483
757.96956	0.09442
756.04088	0.09398
754.11220	0.09345
752.18353	0.09282
750.25485	0.09211
748.32618	0.09135
746.39750	0.09060
744.46883	0.08983
742.54015	0.08901
740.61147	0.08829
738.68280	0.08778
736.75412	0.08752
734.82545	0.08744
732.89677	0.08741
730.96810	0.08739
729.03942	0.08743
727.11074	0.08757
725.18207	0.08775
723.25339	0.08789
721.32472	0.08801
719.39604	0.08819
717.46737	0.08849
715.53869	0.08890
713.61001	0.08935
711.68134	0.08968
709.75266	0.08983
707.82399	0.08991
705.89531	0.08987
703.96664	0.08965
702.03796	0.08931
700.10928	0.08894
698.18061	0.08854
696.25193	0.08809
694.32326	0.08761
692.39458	0.08711
690.46591	0.08660
688.53723	0.08605
686.60855	0.08549
684.67988	0.08498
682.75120	0.08454
680.82253	0.08410
678.89385	0.08357
676.96518	0.08291
675.03650	0.08216
673.10782	0.08143
671.17915	0.08074
669.25047	0.08003
667.32180	0.07938
665.39312	0.07875
663.46445	0.07798
661.53577	0.07708
659.60709	0.07622
657.67842	0.07551
655.74974	0.07480
653.82107	0.07397
651.89239	0.07318
649.96372	0.07253
648.03504	0.07189
646.10636	0.07111
644.17769	0.07017
642.24901	0.06916
640.32034	0.06817
638.39166	0.06721
636.46299	0.06623
634.53431	0.06519
632.60563	0.06396
630.67696	0.06187
628.74828	0.05852
626.81961	0.05434
624.89093	0.05013
622.96226	0.04681
621.03358	0.04470
619.10490	0.04347
617.17623	0.04266
615.24755	0.04186
613.31888	0.04089
611.39020	0.03995
609.46153	0.03946
607.53285	0.03957
605.60417	0.04001
603.67550	0.04061
601.74682	0.04136
599.81815	0.04222
597.88947	0.04304
595.96080	0.04364
594.03212	0.04399
592.10344	0.04422
590.17477	0.04436
588.24609	0.04437
586.31742	0.04429
584.38874	0.04411
582.46007	0.04377
580.53139	0.04335
578.60271	0.04295
576.67404	0.04254
574.74536	0.04200
572.81669	0.04131
570.88801	0.04058
568.95934	0.04005
567.03066	0.03972
565.10198	0.03936
563.17331	0.03899
561.24463	0.03876
559.31596	0.03859
557.38728	0.03838
555.45861	0.03819
553.52993	0.03804
551.60125	0.03788
549.67258	0.03773
547.74390	0.03757
545.81523	0.03737
543.88655	0.03723
541.95788	0.03715
540.02920	0.03705
538.10052	0.03678
536.17185	0.03638
534.24317	0.03610
532.31450	0.03604
530.38582	0.03601
528.45715	0.03587
526.52847	0.03566
524.59979	0.03535
522.67112	0.03493
520.74244	0.03449
518.81377	0.03400
516.88509	0.03335
514.95642	0.03268
513.02774	0.03226
511.09906	0.03210
509.17039	0.03197
507.24171	0.03173
505.31304	0.03145
503.38436	0.03111
501.45569	0.03070
499.52701	0.03021
497.59833	0.02968
495.66966	0.02918
493.74098	0.02869
491.81231	0.02818
489.88363	0.02765
487.95496	0.02710
486.02628	0.02660
484.09760	0.02618
482.16893	0.02576
480.24025	0.02522
478.31158	0.02465
476.38290	0.02409
474.45423	0.02350
472.52555	0.02302
470.59687	0.02272
468.66820	0.02236
466.73952	0.02191
464.81085	0.02158
462.88217	0.02141
460.95350	0.02132
459.02482	0.02127
457.09614	0.02125
455.16747	0.02123
453.23879	0.02125
451.31012	0.02131
449.38144	0.02127
447.45277	0.02107
445.52409	0.02086
443.59541	0.02070
441.66674	0.02048
439.73806	0.02013
437.80939	0.01968
435.88071	0.01922
433.95204	0.01873
432.02336	0.01822
430.09468	0.01771
428.16601	0.01716
426.23733	0.01657
424.30866	0.01595
422.37998	0.01533
420.45131	0.01468
418.52263	0.01404
416.59395	0.01347
414.66528	0.01288
412.73660	0.01224
410.80793	0.01167
408.87925	0.01124
406.95058	0.01073
405.02190	0.01007
403.09322	0.00941
401.16455	0.00889
399.23587	0.00831
397.30720	0.00765
395.37852	0.00717
393.44985	0.00694
391.52117	0.00663
389.59249	0.00609
387.66382	0.00550
385.73514	0.00506
383.80647	0.00471
381.87779	0.00437
379.94912	0.00405
378.02044	0.00378
376.09176	0.00357
374.16309	0.00345
372.23441	0.00329
370.30574	0.00293
368.37706	0.00245
