7496.76250	0.00211
7494.83382	0.00210
7492.90514	0.00210
7490.97647	0.00211
7489.04779	0.00212
7487.11912	0.00213
7485.19044	0.00214
7483.26177	0.00215
7481.33309	0.00215
7479.40441	0.00216
7477.47574	0.00218
7475.54706	0.00218
7473.61839	0.00217
7471.68971	0.00216
7469.76104	0.00216
7467.83236	0.00216
7465.90368	0.00217
7463.97501	0.00219
7462.04633	0.00220
7460.11766	0.00221
7458.18898	0.00223
7456.26031	0.00223
7454.33163	0.00223
7452.40295	0.00223
7450.47428	0.00225
7448.54560	0.00227
7446.61693	0.00227
7444.68825	0.00226
7442.75958	0.00226
7440.83090	0.00227
7438.90222	0.00227
7436.97355	0.00227
7435.04487	0.00228
7433.11620	0.00229
7431.18752	0.00230
7429.25885	0.00229
7427.33017	0.00230
7425.40149	0.00232
7423.47282	0.00233
7421.54414	0.00233
7419.61547	0.00234
7417.68679	0.00234
7415.75812	0.00235
7413.82944	0.00236
7411.90076	0.00237
7409.97209	0.00238
7408.04341	0.00239
7406.11474	0.00241
7404.18606	0.00241
7402.25739	0.00241
7400.32871	0.00241
7398.40003	0.00240
7396.47136	0.00240
7394.54268	0.00240
7392.61401	0.00241
7390.68533	0.00241
7388.75666	0.00242
7386.82798	0.00243
7384.89930	0.00244
7382.97063	0.00245
7381.04195	0.00246
7379.11328	0.00247
7377.18460	0.00248
7375.25593	0.00249
7373.32725	0.00251
7371.39857	0.00252
7369.46990	0.00252
7367.54122	0.00251
7365.61255	0.00251
7363.68387	0.00252
7361.75520	0.00253
7359.82652	0.00254
7357.89784	0.00254
7355.96917	0.00255
7354.04049	0.00258
7352.11182	0.00260
7350.18314	0.00261
7348.25447	0.00260
7346.32579	0.00258
7344.39711	0.00256
7342.46844	0.00256
7340.53976	0.00258
7338.61109	0.00259
7336.68241	0.00259
7334.75374	0.00259
7332.82506	0.00259
7330.89638	0.00259
7328.96771	0.00260
7327.03903	0.00261
7325.11036	0.00261
7323.18168	0.00263
7321.25301	0.00265
7319.32433	0.00266
7317.39565	0.00265
7315.46698	0.00266
7313.53830	0.00267
7311.60963	0.00268
7309.68095	0.00268
7307.75228	0.00270
7305.82360	0.00271
7303.89492	0.00271
7301.96625	0.00270
7300.03757	0.00270
7298.10890	0.00272
7296.18022	0.00272
7294.25155	0.00273
7292.32287	0.00275
7290.39419	0.00277
7288.46552	0.00278
7286.53684	0.00280
7284.60817	0.00281
7282.67949	0.00281
7280.75082	0.00280
7278.82214	0.00280
7276.89346	0.00281
7274.96479	0.00282
7273.03611	0.00281
7271.10744	0.00281
7269.17876	0.00282
7267.25009	0.00283
7265.32141	0.00283
7263.39273	0.00284
7261.46406	0.00285
7259.53538	0.00285
7257.60671	0.00286
7255.67803	0.00286
7253.74936	0.00288
7251.82068	0.00289
7249.89200	0.00292
7247.96333	0.00294
7246.03465	0.00294
7244.10598	0.00292
7242.17730	0.00292
7240.24863	0.00295
7238.31995	0.00296
7236.39127	0.00295
7234.46260	0.00296
7232.53392	0.00298
7230.60525	0.00298
7228.67657	0.00297
7226.74790	0.00298
7224.81922	0.00299
7222.89054	0.00300
7220.96187	0.00300
7219.03319	0.00301
7217.10452	0.00300
7215.17584	0.00300
7213.24717	0.00301
7211.31849	0.00302
7209.38981	0.00303
7207.46114	0.00304
7205.53246	0.00306
7203.60379	0.00307
7201.67511	0.00308
7199.74644	0.00309
7197.81776	0.00310
7195.88908	0.00309
7193.96041	0.00309
7192.03173	0.00310
7190.10306	0.00310
7188.17438	0.00310
7186.24571	0.00311
7184.31703	0.00312
7182.38835	0.00313
7180.45968	0.00315
7178.53100	0.00316
7176.60233	0.00316
7174.67365	0.00317
7172.74498	0.00317
7170.81630	0.00319
7168.88762	0.00320
7166.95895	0.00322
7165.03027	0.00322
7163.10160	0.00322
7161.17292	0.00322
7159.24425	0.00323
7157.31557	0.00323
7155.38689	0.00325
7153.45822	0.00325
7151.52954	0.00324
7149.60087	0.00325
7147.67219	0.00326
7145.74352	0.00327
7143.81484	0.00327
7141.88616	0.00328
7139.95749	0.00329
7138.02881	0.00331
7136.10014	0.00332
7134.17146	0.00334
7132.24279	0.00333
7130.31411	0.00332
7128.38543	0.00332
7126.45676	0.00334
7124.52808	0.00335
7122.59941	0.00335
7120.67073	0.00337
7118.74206	0.00338
7116.81338	0.00338
7114.88470	0.00338
7112.95603	0.00340
7111.02735	0.00341
7109.09868	0.00342
7107.17000	0.00343
7105.24133	0.00344
7103.31265	0.00344
7101.38397	0.00343
7099.45530	0.00343
7097.52662	0.00343
7095.59795	0.00345
7093.66927	0.00348
7091.74060	0.00350
7089.81192	0.00350
7087.88324	0.00351
7085.95457	0.00351
7084.02589	0.00351
7082.09722	0.00349
7080.16854	0.00349
7078.23987	0.00351
7076.31119	0.00353
7074.38251	0.00354
7072.45384	0.00355
7070.52516	0.00355
7068.59649	0.00357
7066.66781	0.00358
7064.73914	0.00359
7062.81046	0.00360
7060.88178	0.00362
7058.95311	0.00363
7057.02443	0.00364
7055.09576	0.00365
7053.16708	0.00364
7051.23841	0.00363
7049.30973	0.00364
7047.38105	0.00365
7045.45238	0.00367
7043.52370	0.00368
7041.59503	0.00369
7039.66635	0.00369
7037.73768	0.00369
7035.80900	0.00369
7033.88032	0.00371
7031.95165	0.00373
7030.02297	0.00374
7028.09430	0.00374
7026.16562	0.00375
7024.23695	0.00376
7022.30827	0.00377
7020.37959	0.00377
7018.45092	0.00378
7016.52224	0.00378
7014.59357	0.00379
7012.66489	0.00379
7010.73622	0.00379
7008.80754	0.00380
7006.87886	0.00380
7004.95019	0.00380
7003.02151	0.00383
7001.09284	0.00385
6999.16416	0.00387
6997.23549	0.00387
6995.30681	0.00388
6993.37813	0.00389
6991.44946	0.00390
6989.52078	0.00391
6987.59211	0.00392
6985.66343	0.00393
6983.73476	0.00393
6981.80608	0.00393
6979.87740	0.00394
6977.94873	0.00395
6976.02005	0.00395
6974.09138	0.00395
6972.16270	0.00395
6970.23403	0.00397
6968.30535	0.00397
6966.37667	0.00397
6964.44800	0.00398
6962.51932	0.00401
6960.59065	0.00403
6958.66197	0.00403
6956.73330	0.00403
6954.80462	0.00403
6952.87594	0.00404
6950.94727	0.00405
6949.01859	0.00405
6947.08992	0.00407
6945.16124	0.00408
6943.23257	0.00410
6941.30389	0.00411
6939.37521	0.00412
6937.44654	0.00411
6935.51786	0.00411
6933.58919	0.00412
6931.66051	0.00413
6929.73184	0.00416
6927.80316	0.00419
6925.87448	0.00420
6923.94581	0.00419
6922.01713	0.00418
6920.08846	0.00417
6918.15978	0.00418
6916.23111	0.00420
6914.30243	0.00420
6912.37375	0.00422
6910.44508	0.00424
6908.51640	0.00425
6906.58773	0.00427
6904.65905	0.00428
6902.73038	0.00428
6900.80170	0.00428
6898.87302	0.00430
6896.94435	0.00431
6895.01567	0.00432
6893.08700	0.00433
6891.15832	0.00433
6889.22965	0.00434
6887.30097	0.00434
6885.37229	0.00435
6883.44362	0.00437
6881.51494	0.00438
6879.58627	0.00439
6877.65759	0.00440
6875.72892	0.00441
6873.80024	0.00442
6871.87156	0.00443
6869.94289	0.00444
6868.01421	0.00445
6866.08554	0.00445
6864.15686	0.00445
6862.22819	0.00447
6860.29951	0.00449
6858.37083	0.00450
6856.44216	0.00450
6854.51348	0.00451
6852.58481	0.00451
6850.65613	0.00452
6848.72746	0.00453
6846.79878	0.00454
6844.87010	0.00455
6842.94143	0.00455
6841.01275	0.00455
6839.08408	0.00456
6837.15540	0.00459
6835.22673	0.00462
6833.29805	0.00462
6831.36937	0.00461
6829.44070	0.00460
6827.51202	0.00461
6825.58335	0.00463
6823.65467	0.00465
6821.72600	0.00466
6819.79732	0.00468
6817.86864	0.00469
6815.93997	0.00470
6814.01129	0.00470
6812.08262	0.00471
6810.15394	0.00471
6808.22527	0.00473
6806.29659	0.00474
6804.36791	0.00475
6802.43924	0.00476
6800.51056	0.00478
6798.58189	0.00478
6796.65321	0.00479
6794.72454	0.00480
6792.79586	0.00481
6790.86718	0.00482
6788.93851	0.00482
6787.00983	0.00483
6785.08116	0.00486
6783.15248	0.00487
6781.22381	0.00489
6779.29513	0.00491
6777.36645	0.00493
6775.43778	0.00494
6773.50910	0.00493
6771.58043	0.00492
6769.65175	0.00490
6767.72308	0.00491
6765.79440	0.00492
6763.86572	0.00494
6761.93705	0.00497
6760.00837	0.00500
6758.07970	0.00501
6756.15102	0.00502
6754.22235	0.00505
6752.29367	0.00506
6750.36499	0.00507
6748.43632	0.00507
6746.50764	0.00508
6744.57897	0.00509
6742.65029	0.00509
6740.72162	0.00510
6738.79294	0.00511
6736.86426	0.00511
6734.93559	0.00511
6733.00691	0.00512
6731.07824	0.00514
6729.14956	0.00516
6727.22089	0.00518
6725.29221	0.00519
6723.36353	0.00519
6721.43486	0.00520
6719.50618	0.00521
6717.57751	0.00521
6715.64883	0.00521
6713.72016	0.00521
6711.79148	0.00523
6709.86280	0.00525
6707.93413	0.00527
6706.00545	0.00528
6704.07678	0.00529
6702.14810	0.00531
6700.21943	0.00531
6698.29075	0.00533
6696.36207	0.00536
6694.43340	0.00538
6692.50472	0.00539
6690.57605	0.00539
6688.64737	0.00539
6686.71870	0.00540
6684.79002	0.00541
6682.86134	0.00542
6680.93267	0.00543
6679.00399	0.00544
6677.07532	0.00545
6675.14664	0.00547
6673.21797	0.00547
6671.28929	0.00546
6669.36061	0.00547
6667.43194	0.00550
6665.50326	0.00552
6663.57459	0.00553
6661.64591	0.00554
6659.71724	0.00555
6657.78856	0.00556
6655.85988	0.00558
6653.93121	0.00558
6652.00253	0.00558
6650.07386	0.00559
6648.14518	0.00561
6646.21651	0.00563
6644.28783	0.00564
6642.35915	0.00566
6640.43048	0.00567
6638.50180	0.00569
6636.57313	0.00570
6634.64445	0.00570
6632.71578	0.00571
6630.78710	0.00572
6628.85842	0.00574
6626.92975	0.00576
6625.00107	0.00577
6623.07240	0.00577
6621.14372	0.00578
6619.21505	0.00579
6617.28637	0.00581
6615.35769	0.00584
6613.42902	0.00585
6611.50034	0.00585
6609.57167	0.00584
6607.64299	0.00585
6605.71432	0.00588
6603.78564	0.00591
6601.85696	0.00593
6599.92829	0.00594
6597.99961	0.00593
6596.07094	0.00592
6594.14226	0.00593
6592.21359	0.00595
6590.28491	0.00598
6588.35623	0.00602
6586.42756	0.00603
6584.49888	0.00604
6582.57021	0.00604
6580.64153	0.00605
6578.71286	0.00607
6576.78418	0.00608
6574.85550	0.00609
6572.92683	0.00610
6570.99815	0.00612
6569.06948	0.00615
6567.14080	0.00616
6565.21213	0.00616
6563.28345	0.00616
6561.35477	0.00617
6559.42610	0.00618
6557.49742	0.00618
6555.56875	0.00618
6553.64007	0.00619
6551.71140	0.00621
6549.78272	0.00623
6547.85404	0.00624
6545.92537	0.00626
6543.99669	0.00629
6542.06802	0.00629
6540.13934	0.00630
6538.21067	0.00633
6536.28199	0.00636
6534.35331	0.00639
6532.42464	0.00640
6530.49596	0.00639
6528.56729	0.00638
6526.63861	0.00640
6524.70994	0.00643
6522.78126	0.00644
6520.85258	0.00644
6518.92391	0.00644
6516.99523	0.00645
6515.06656	0.00646
6513.13788	0.00648
6511.20921	0.00651
6509.28053	0.00653
6507.35185	0.00654
6505.42318	0.00655
6503.49450	0.00656
6501.56583	0.00658
6499.63715	0.00659
6497.70848	0.00659
6495.77980	0.00659
6493.85112	0.00660
6491.92245	0.00663
6489.99377	0.00666
6488.06510	0.00667
6486.13642	0.00668
6484.20775	0.00669
6482.27907	0.00670
6480.35039	0.00671
6478.42172	0.00671
6476.49304	0.00674
6474.56437	0.00677
6472.63569	0.00678
6470.70702	0.00678
6468.77834	0.00679
6466.84966	0.00680
6464.92099	0.00682
6462.99231	0.00683
6461.06364	0.00685
6459.13496	0.00687
6457.20629	0.00690
6455.27761	0.00692
6453.34893	0.00694
6451.42026	0.00696
6449.49158	0.00698
6447.56291	0.00699
6445.63423	0.00700
6443.70556	0.00700
6441.77688	0.00701
6439.84820	0.00703
6437.91953	0.00704
6435.99085	0.00705
6434.06218	0.00707
6432.13350	0.00709
6430.20483	0.00711
6428.27615	0.00713
6426.34747	0.00714
6424.41880	0.00716
6422.49012	0.00718
6420.56145	0.00719
6418.63277	0.00719
6416.70410	0.00719
6414.77542	0.00721
6412.84674	0.00724
6410.91807	0.00726
6408.98939	0.00726
6407.06072	0.00727
6405.13204	0.00730
6403.20337	0.00732
6401.27469	0.00733
6399.34601	0.00734
6397.41734	0.00735
6395.48866	0.00735
6393.55999	0.00737
6391.63131	0.00739
6389.70264	0.00740
6387.77396	0.00741
6385.84528	0.00743
6383.91661	0.00745
6381.98793	0.00748
6380.05926	0.00750
6378.13058	0.00749
6376.20191	0.00748
6374.27323	0.00748
6372.34455	0.00751
6370.41588	0.00755
6368.48720	0.00759
6366.55853	0.00761
6364.62985	0.00764
6362.70118	0.00765
6360.77250	0.00766
6358.84382	0.00766
6356.91515	0.00767
6354.98647	0.00768
6353.05780	0.00770
6351.12912	0.00771
6349.20045	0.00772
6347.27177	0.00773
6345.34309	0.00775
6343.41442	0.00777
6341.48574	0.00778
6339.55707	0.00778
6337.62839	0.00779
6335.69972	0.00781
6333.77104	0.00784
6331.84236	0.00786
6329.91369	0.00788
6327.98501	0.00790
6326.05634	0.00792
6324.12766	0.00794
6322.19899	0.00795
6320.27031	0.00795
6318.34163	0.00796
6316.41296	0.00798
6314.48428	0.00802
6312.55561	0.00805
6310.62693	0.00808
6308.69826	0.00810
6306.76958	0.00811
6304.84090	0.00811
6302.91223	0.00812
6300.98355	0.00814
6299.05488	0.00815
6297.12620	0.00816
6295.19753	0.00817
6293.26885	0.00819
6291.34017	0.00821
6289.41150	0.00823
6287.48282	0.00825
6285.55415	0.00827
6283.62547	0.00830
6281.69680	0.00832
6279.76812	0.00834
6277.83944	0.00835
6275.91077	0.00836
6273.98209	0.00839
6272.05342	0.00840
6270.12474	0.00841
6268.19607	0.00844
6266.26739	0.00847
6264.33871	0.00850
6262.41004	0.00851
6260.48136	0.00851
6258.55269	0.00853
6256.62401	0.00854
6254.69534	0.00855
6252.76666	0.00856
6250.83798	0.00858
6248.90931	0.00861
6246.98063	0.00864
6245.05196	0.00865
6243.12328	0.00866
6241.19461	0.00869
6239.26593	0.00871
6237.33725	0.00873
6235.40858	0.00875
6233.47990	0.00876
6231.55123	0.00877
6229.62255	0.00877
6227.69388	0.00878
6225.76520	0.00881
6223.83652	0.00883
6221.90785	0.00885
6219.97917	0.00888
6218.05050	0.00891
6216.12182	0.00891
6214.19315	0.00892
6212.26447	0.00895
6210.33579	0.00898
6208.40712	0.00900
6206.47844	0.00902
6204.54977	0.00904
6202.62109	0.00905
6200.69242	0.00906
6198.76374	0.00907
6196.83506	0.00909
6194.90639	0.00912
6192.97771	0.00913
6191.04904	0.00915
6189.12036	0.00916
6187.19169	0.00919
6185.26301	0.00921
6183.33433	0.00922
6181.40566	0.00923
6179.47698	0.00924
6177.54831	0.00927
6175.61963	0.00932
6173.69096	0.00934
6171.76228	0.00935
6169.83360	0.00937
6167.90493	0.00940
6165.97625	0.00943
6164.04758	0.00946
6162.11890	0.00948
6160.19023	0.00950
6158.26155	0.00950
6156.33287	0.00950
6154.40420	0.00951
6152.47552	0.00954
6150.54685	0.00957
6148.61817	0.00960
6146.68950	0.00962
6144.76082	0.00964
6142.83214	0.00966
6140.90347	0.00968
6138.97479	0.00969
6137.04612	0.00970
6135.11744	0.00971
6133.18877	0.00973
6131.26009	0.00976
6129.33141	0.00978
6127.40274	0.00981
6125.47406	0.00982
6123.54539	0.00983
6121.61671	0.00985
6119.68804	0.00988
6117.75936	0.00993
6115.83068	0.00997
6113.90201	0.00999
6111.97333	0.00998
6110.04466	0.00998
6108.11598	0.00999
6106.18731	0.01002
6104.25863	0.01005
6102.32995	0.01007
6100.40128	0.01010
6098.47260	0.01012
6096.54393	0.01014
6094.61525	0.01016
6092.68658	0.01018
6090.75790	0.01020
6088.82922	0.01022
6086.90055	0.01024
6084.97187	0.01028
6083.04320	0.01030
6081.11452	0.01031
6079.18585	0.01032
6077.25717	0.01033
6075.32849	0.01034
6073.39982	0.01036
6071.47114	0.01039
6069.54247	0.01043
6067.61379	0.01046
6065.68512	0.01048
6063.75644	0.01050
6061.82776	0.01051
6059.89909	0.01054
6057.97041	0.01057
6056.04174	0.01058
6054.11306	0.01058
6052.18439	0.01059
6050.25571	0.01062
6048.32703	0.01065
6046.39836	0.01068
6044.46968	0.01070
6042.54101	0.01071
6040.61233	0.01073
6038.68366	0.01076
6036.75498	0.01078
6034.82630	0.01079
6032.89763	0.01082
6030.96895	0.01085
6029.04028	0.01088
6027.11160	0.01089
6025.18293	0.01090
6023.25425	0.01092
6021.32557	0.01095
6019.39690	0.01099
6017.46822	0.01102
6015.53955	0.01103
6013.61087	0.01104
6011.68220	0.01108
6009.75352	0.01112
6007.82484	0.01114
6005.89617	0.01115
6003.96749	0.01117
6002.03882	0.01119
6000.11014	0.01121
5998.18147	0.01124
5996.25279	0.01127
5994.32411	0.01130
5992.39544	0.01134
5990.46676	0.01136
5988.53809	0.01137
5986.60941	0.01138
5984.68074	0.01141
5982.75206	0.01144
5980.82338	0.01146
5978.89471	0.01149
5976.96603	0.01151
5975.03736	0.01154
5973.10868	0.01155
5971.18001	0.01156
5969.25133	0.01156
5967.32265	0.01158
5965.39398	0.01161
5963.46530	0.01166
5961.53663	0.01169
5959.60795	0.01170
5957.67928	0.01171
5955.75060	0.01175
5953.82192	0.01179
5951.89325	0.01182
5949.96457	0.01184
5948.03590	0.01187
5946.10722	0.01189
5944.17855	0.01189
5942.24987	0.01190
5940.32119	0.01193
5938.39252	0.01197
5936.46384	0.01201
5934.53517	0.01205
5932.60649	0.01208
5930.67782	0.01209
5928.74914	0.01209
5926.82046	0.01212
5924.89179	0.01216
5922.96311	0.01218
5921.03444	0.01219
5919.10576	0.01221
5917.17709	0.01225
5915.24841	0.01228
5913.31973	0.01230
5911.39106	0.01234
5909.46238	0.01239
5907.53371	0.01241
5905.60503	0.01241
5903.67636	0.01241
5901.74768	0.01243
5899.81900	0.01248
5897.89033	0.01252
5895.96165	0.01254
5894.03298	0.01255
5892.10430	0.01258
5890.17563	0.01261
5888.24695	0.01264
5886.31827	0.01267
5884.38960	0.01269
5882.46092	0.01271
5880.53225	0.01275
5878.60357	0.01278
5876.67490	0.01281
5874.74622	0.01283
5872.81755	0.01283
5870.88887	0.01284
5868.96019	0.01287
5867.03152	0.01292
5865.10284	0.01295
5863.17417	0.01297
5861.24549	0.01299
5859.31682	0.01301
5857.38814	0.01305
5855.45946	0.01309
5853.53079	0.01312
5851.60211	0.01314
5849.67344	0.01315
5847.74476	0.01317
5845.81609	0.01320
5843.88741	0.01323
5841.95873	0.01327
5840.03006	0.01329
5838.10138	0.01330
5836.17271	0.01332
5834.24403	0.01334
5832.31536	0.01337
5830.38668	0.01339
5828.45800	0.01343
5826.52933	0.01349
5824.60065	0.01353
5822.67198	0.01354
5820.74330	0.01356
5818.81463	0.01358
5816.88595	0.01360
5814.95727	0.01361
5813.02860	0.01363
5811.09992	0.01368
5809.17125	0.01372
5807.24257	0.01374
5805.31390	0.01376
5803.38522	0.01378
5801.45654	0.01380
5799.52787	0.01384
5797.59919	0.01389
5795.67052	0.01391
5793.74184	0.01392
5791.81317	0.01394
5789.88449	0.01397
5787.95581	0.01400
5786.02714	0.01403
5784.09846	0.01408
5782.16979	0.01413
5780.24111	0.01416
5778.31244	0.01418
5776.38376	0.01419
5774.45508	0.01421
5772.52641	0.01425
5770.59773	0.01429
5768.66906	0.01432
5766.74038	0.01435
5764.81171	0.01437
5762.88303	0.01439
5760.95435	0.01441
5759.02568	0.01444
5757.09700	0.01448
5755.16833	0.01451
5753.23965	0.01454
5751.31098	0.01456
5749.38230	0.01457
5747.45362	0.01458
5745.52495	0.01460
5743.59627	0.01464
5741.66760	0.01468
5739.73892	0.01472
5737.81025	0.01477
5735.88157	0.01482
5733.95289	0.01485
5732.02422	0.01485
5730.09554	0.01486
5728.16687	0.01486
5726.23819	0.01490
5724.30952	0.01496
5722.38084	0.01500
5720.45216	0.01501
5718.52349	0.01503
5716.59481	0.01506
5714.66614	0.01510
5712.73746	0.01514
5710.80879	0.01519
5708.88011	0.01522
5706.95143	0.01525
5705.02276	0.01527
5703.09408	0.01530
5701.16541	0.01534
5699.23673	0.01538
5697.30806	0.01541
5695.37938	0.01543
5693.45070	0.01546
5691.52203	0.01549
5689.59335	0.01550
5687.66468	0.01553
5685.73600	0.01557
5683.80733	0.01561
5681.87865	0.01563
5679.94997	0.01567
5678.02130	0.01570
5676.09262	0.01573
5674.16395	0.01575
5672.23527	0.01578
5670.30660	0.01580
5668.37792	0.01583
5666.44924	0.01588
5664.52057	0.01592
5662.59189	0.01596
5660.66322	0.01598
5658.73454	0.01600
5656.80587	0.01605
5654.87719	0.01610
5652.94851	0.01614
5651.01984	0.01616
5649.09116	0.01618
5647.16249	0.01620
5645.23381	0.01623
5643.30514	0.01628
5641.37646	0.01632
5639.44778	0.01633
5637.51911	0.01635
5635.59043	0.01638
5633.66176	0.01642
5631.73308	0.01645
5629.80441	0.01649
5627.87573	0.01652
5625.94705	0.01655
5624.01838	0.01657
5622.08970	0.01659
5620.16103	0.01662
5618.23235	0.01668
5616.30368	0.01672
5614.37500	0.01674
5612.44632	0.01675
5610.51765	0.01679
5608.58897	0.01683
5606.66030	0.01687
5604.73162	0.01692
5602.80295	0.01695
5600.87427	0.01698
5598.94559	0.01700
5597.01692	0.01702
5595.08824	0.01706
5593.15957	0.01709
5591.23089	0.01711
5589.30222	0.01713
5587.37354	0.01716
5585.44486	0.01720
5583.51619	0.01725
5581.58751	0.01729
5579.65884	0.01733
5577.73016	0.01736
5575.80149	0.01739
5573.87281	0.01743
5571.94413	0.01747
5570.01546	0.01751
5568.08678	0.01754
5566.15811	0.01758
5564.22943	0.01761
5562.30076	0.01764
5560.37208	0.01767
5558.44340	0.01771
5556.51473	0.01774
5554.58605	0.01778
5552.65738	0.01781
5550.72870	0.01783
5548.80003	0.01785
5546.87135	0.01788
5544.94267	0.01792
5543.01400	0.01796
5541.08532	0.01801
5539.15665	0.01805
5537.22797	0.01808
5535.29930	0.01811
5533.37062	0.01816
5531.44194	0.01819
5529.51327	0.01821
5527.58459	0.01824
5525.65592	0.01829
5523.72724	0.01833
5521.79857	0.01835
5519.86989	0.01838
5517.94121	0.01842
5516.01254	0.01846
5514.08386	0.01849
5512.15519	0.01851
5510.22651	0.01853
5508.29784	0.01854
5506.36916	0.01857
5504.44048	0.01863
5502.51181	0.01869
5500.58313	0.01873
5498.65446	0.01877
5496.72578	0.01881
5494.79711	0.01883
5492.86843	0.01885
5490.93975	0.01887
5489.01108	0.01890
5487.08240	0.01895
5485.15373	0.01902
5483.22505	0.01908
5481.29638	0.01911
5479.36770	0.01913
5477.43902	0.01915
5475.51035	0.01918
5473.58167	0.01921
5471.65300	0.01924
5469.72432	0.01926
5467.79565	0.01929
5465.86697	0.01934
5463.93829	0.01938
5462.00962	0.01940
5460.08094	0.01943
5458.15227	0.01947
5456.22359	0.01951
5454.29492	0.01956
5452.36624	0.01960
5450.43756	0.01961
5448.50889	0.01963
5446.58021	0.01967
5444.65154	0.01971
5442.72286	0.01974
5440.79419	0.01979
5438.86551	0.01984
5436.93683	0.01988
5435.00816	0.01992
5433.07948	0.01996
5431.15081	0.01999
5429.22213	0.02000
5427.29346	0.02003
5425.36478	0.02008
5423.43610	0.02013
5421.50743	0.02019
5419.57875	0.02024
5417.65008	0.02027
5415.72140	0.02028
5413.79273	0.02030
5411.86405	0.02034
5409.93537	0.02041
5408.00670	0.02047
5406.07802	0.02050
5404.14935	0.02051
5402.22067	0.02052
5400.29200	0.02055
5398.36332	0.02061
5396.43464	0.02066
5394.50597	0.02070
5392.57729	0.02074
5390.64862	0.02079
5388.71994	0.02082
5386.79127	0.02085
5384.86259	0.02090
5382.93391	0.02096
5381.00524	0.02100
5379.07656	0.02101
5377.14789	0.02101
5375.21921	0.02106
5373.29054	0.02112
5371.36186	0.02117
5369.43318	0.02121
5367.50451	0.02125
5365.57583	0.02130
5363.64716	0.02133
5361.71848	0.02136
5359.78981	0.02139
5357.86113	0.02143
5355.93245	0.02146
5354.00378	0.02149
5352.07510	0.02153
5350.14643	0.02158
5348.21775	0.02161
5346.28908	0.02163
5344.36040	0.02167
5342.43172	0.02173
5340.50305	0.02177
5338.57437	0.02178
5336.64570	0.02183
5334.71702	0.02188
5332.78835	0.02193
5330.85967	0.02196
5328.93099	0.02200
5327.00232	0.02205
5325.07364	0.02211
5323.14497	0.02216
5321.21629	0.02219
5319.28762	0.02221
5317.35894	0.02225
5315.43026	0.02230
5313.50159	0.02234
5311.57291	0.02238
5309.64424	0.02241
5307.71556	0.02244
5305.78689	0.02246
5303.85821	0.02248
5301.92953	0.02252
5300.00086	0.02257
5298.07218	0.02265
5296.14351	0.02270
5294.21483	0.02273
5292.28616	0.02275
5290.35748	0.02279
5288.42880	0.02286
5286.50013	0.02291
5284.57145	0.02294
5282.64278	0.02296
5280.71410	0.02298
5278.78543	0.02303
5276.85675	0.02309
5274.92807	0.02315
5272.99940	0.02318
5271.07072	0.02318
5269.14205	0.02319
5267.21337	0.02323
5265.28470	0.02329
5263.35602	0.02334
5261.42734	0.02341
5259.49867	0.02348
5257.56999	0.02351
5255.64132	0.02353
5253.71264	0.02355
5251.78397	0.02358
5249.85529	0.02361
5247.92661	0.02366
5245.99794	0.02372
5244.06926	0.02375
5242.14059	0.02377
5240.21191	0.02381
5238.28324	0.02387
5236.35456	0.02393
5234.42588	0.02399
5232.49721	0.02402
5230.56853	0.02407
5228.63986	0.02411
5226.71118	0.02414
5224.78251	0.02418
5222.85383	0.02423
5220.92515	0.02428
5218.99648	0.02430
5217.06780	0.02433
5215.13913	0.02436
5213.21045	0.02440
5211.28178	0.02445
5209.35310	0.02450
5207.42442	0.02453
5205.49575	0.02458
5203.56707	0.02462
5201.63840	0.02466
5199.70972	0.02468
5197.78105	0.02471
5195.85237	0.02476
5193.92369	0.02482
5191.99502	0.02489
5190.06634	0.02494
5188.13767	0.02498
5186.20899	0.02502
5184.28032	0.02506
5182.35164	0.02511
5180.42296	0.02517
5178.49429	0.02521
5176.56561	0.02523
5174.63694	0.02524
5172.70826	0.02528
5170.77959	0.02534
5168.85091	0.02541
5166.92223	0.02546
5164.99356	0.02547
5163.06488	0.02550
5161.13621	0.02556
5159.20753	0.02561
5157.27886	0.02565
5155.35018	0.02571
5153.42150	0.02578
5151.49283	0.02584
5149.56415	0.02589
5147.63548	0.02592
5145.70680	0.02594
5143.77813	0.02596
5141.84945	0.02601
5139.92077	0.02605
5137.99210	0.02608
5136.06342	0.02611
5134.13475	0.02614
5132.20607	0.02620
5130.27740	0.02626
5128.34872	0.02631
5126.42004	0.02635
5124.49137	0.02639
5122.56269	0.02641
5120.63402	0.02644
5118.70534	0.02649
5116.77667	0.02655
5114.84799	0.02661
5112.91931	0.02665
5110.99064	0.02670
5109.06196	0.02675
5107.13329	0.02680
5105.20461	0.02684
5103.27594	0.02688
5101.34726	0.02691
5099.41858	0.02694
5097.48991	0.02698
5095.56123	0.02702
5093.63256	0.02706
5091.70388	0.02709
5089.77521	0.02714
5087.84653	0.02722
5085.91785	0.02727
5083.98918	0.02729
5082.06050	0.02731
5080.13183	0.02737
5078.20315	0.02743
5076.27448	0.02748
5074.34580	0.02752
5072.41712	0.02757
5070.48845	0.02762
5068.55977	0.02766
5066.63110	0.02770
5064.70242	0.02774
5062.77375	0.02780
5060.84507	0.02786
5058.91639	0.02792
5056.98772	0.02797
5055.05904	0.02803
5053.13037	0.02807
5051.20169	0.02812
5049.27302	0.02816
5047.34434	0.02818
5045.41566	0.02821
5043.48699	0.02824
5041.55831	0.02828
5039.62964	0.02832
5037.70096	0.02836
5035.77229	0.02842
5033.84361	0.02845
5031.91493	0.02849
5029.98626	0.02855
5028.05758	0.02862
5026.12891	0.02867
5024.20023	0.02870
5022.27156	0.02874
5020.34288	0.02880
5018.41420	0.02887
5016.48553	0.02891
5014.55685	0.02894
5012.62818	0.02899
5010.69950	0.02906
5008.77083	0.02910
5006.84215	0.02914
5004.91347	0.02918
5002.98480	0.02922
5001.05612	0.02926
4999.12745	0.02930
4997.19877	0.02935
4995.27010	0.02941
4993.34142	0.02948
4991.41274	0.02954
4989.48407	0.02957
4987.55539	0.02960
4985.62672	0.02962
4983.69804	0.02968
4981.76937	0.02974
4979.84069	0.02979
4977.91201	0.02983
4975.98334	0.02989
4974.05466	0.02994
4972.12599	0.02998
4970.19731	0.03003
4968.26864	0.03008
4966.33996	0.03013
4964.41128	0.03016
4962.48261	0.03020
4960.55393	0.03025
4958.62526	0.03030
4956.69658	0.03035
4954.76791	0.03038
4952.83923	0.03042
4950.91055	0.03047
4948.98188	0.03052
4947.05320	0.03056
4945.12453	0.03062
4943.19585	0.03070
4941.26718	0.03076
4939.33850	0.03078
4937.40982	0.03084
4935.48115	0.03091
4933.55247	0.03098
4931.62380	0.03102
4929.69512	0.03107
4927.76645	0.03112
4925.83777	0.03119
4923.90909	0.03125
4921.98042	0.03129
4920.05174	0.03133
4918.12307	0.03137
4916.19439	0.03141
4914.26572	0.03145
4912.33704	0.03150
4910.40836	0.03155
4908.47969	0.03161
4906.55101	0.03165
4904.62234	0.03168
4902.69366	0.03171
4900.76499	0.03176
4898.83631	0.03181
4896.90763	0.03187
4894.97896	0.03194
4893.05028	0.03200
4891.12161	0.03206
4889.19293	0.03212
4887.26426	0.03216
4885.33558	0.03220
4883.40690	0.03223
4881.47823	0.03228
4879.54955	0.03233
4877.62088	0.03237
4875.69220	0.03240
4873.76353	0.03245
4871.83485	0.03251
4869.90617	0.03257
4867.97750	0.03263
4866.04882	0.03268
4864.12015	0.03274
4862.19147	0.03279
4860.26280	0.03286
4858.33412	0.03293
4856.40544	0.03298
4854.47677	0.03301
4852.54809	0.03303
4850.61942	0.03307
4848.69074	0.03313
4846.76207	0.03319
4844.83339	0.03325
4842.90471	0.03330
4840.97604	0.03334
4839.04736	0.03338
4837.11869	0.03345
4835.19001	0.03352
4833.26134	0.03359
4831.33266	0.03365
4829.40398	0.03371
4827.47531	0.03375
4825.54663	0.03377
4823.61796	0.03381
4821.68928	0.03387
4819.76061	0.03395
4817.83193	0.03401
4815.90325	0.03404
4813.97458	0.03407
4812.04590	0.03412
4810.11723	0.03417
4808.18855	0.03423
4806.25988	0.03429
4804.33120	0.03435
4802.40252	0.03441
4800.47385	0.03448
4798.54517	0.03452
4796.61650	0.03458
4794.68782	0.03464
4792.75915	0.03469
4790.83047	0.03473
4788.90179	0.03476
4786.97312	0.03481
4785.04444	0.03487
4783.11577	0.03492
4781.18709	0.03497
4779.25842	0.03504
4777.32974	0.03511
4775.40106	0.03518
4773.47239	0.03525
4771.54371	0.03531
4769.61504	0.03538
4767.68636	0.03545
4765.75769	0.03551
4763.82901	0.03554
4761.90033	0.03557
4759.97166	0.03560
4758.04298	0.03564
4756.11431	0.03570
4754.18563	0.03577
4752.25696	0.03585
4750.32828	0.03592
4748.39960	0.03598
4746.47093	0.03604
4744.54225	0.03611
4742.61358	0.03616
4740.68490	0.03621
4738.75623	0.03625
4736.82755	0.03627
4734.89887	0.03630
4732.97020	0.03636
4731.04152	0.03644
4729.11285	0.03650
4727.18417	0.03656
4725.25550	0.03663
4723.32682	0.03671
4721.39814	0.03678
4719.46947	0.03684
4717.54079	0.03689
4715.61212	0.03695
4713.68344	0.03700
4711.75477	0.03706
4709.82609	0.03711
4707.89741	0.03716
4705.96874	0.03722
4704.04006	0.03728
4702.11139	0.03734
4700.18271	0.03740
4698.25404	0.03747
4696.32536	0.03754
4694.39668	0.03758
4692.46801	0.03763
4690.53933	0.03770
4688.61066	0.03777
4686.68198	0.03784
4684.75331	0.03790
4682.82463	0.03795
4680.89595	0.03800
4678.96728	0.03806
4677.03860	0.03814
4675.10993	0.03820
4673.18125	0.03824
4671.25258	0.03828
4669.32390	0.03834
4667.39522	0.03841
4665.46655	0.03849
4663.53787	0.03857
4661.60920	0.03862
4659.68052	0.03867
4657.75185	0.03876
4655.82317	0.03885
4653.89449	0.03891
4651.96582	0.03894
4650.03714	0.03897
4648.10847	0.03901
4646.17979	0.03907
4644.25112	0.03914
4642.32244	0.03920
4640.39376	0.03925
4638.46509	0.03931
4636.53641	0.03939
4634.60774	0.03948
4632.67906	0.03956
4630.75039	0.03962
4628.82171	0.03968
4626.89303	0.03973
4624.96436	0.03979
4623.03568	0.03984
4621.10701	0.03991
4619.17833	0.03999
4617.24966	0.04007
4615.32098	0.04012
4613.39230	0.04018
4611.46363	0.04025
4609.53495	0.04032
4607.60628	0.04039
4605.67760	0.04049
4603.74893	0.04057
4601.82025	0.04063
4599.89157	0.04067
4597.96290	0.04073
4596.03422	0.04077
4594.10555	0.04081
4592.17687	0.04088
4590.24820	0.04098
4588.31952	0.04107
4586.39084	0.04115
4584.46217	0.04122
4582.53349	0.04128
4580.60482	0.04133
4578.67614	0.04136
4576.74747	0.04140
4574.81879	0.04148
4572.89011	0.04156
4570.96144	0.04164
4569.03276	0.04172
4567.10409	0.04180
4565.17541	0.04187
4563.24674	0.04194
4561.31806	0.04202
4559.38938	0.04210
4557.46071	0.04216
4555.53203	0.04224
4553.60336	0.04231
4551.67468	0.04237
4549.74601	0.04243
4547.81733	0.04251
4545.88865	0.04258
4543.95998	0.04265
4542.03130	0.04272
4540.10263	0.04279
4538.17395	0.04284
4536.24528	0.04289
4534.31660	0.04296
4532.38792	0.04303
4530.45925	0.04312
4528.53057	0.04320
4526.60190	0.04327
4524.67322	0.04336
4522.74455	0.04343
4520.81587	0.04349
4518.88719	0.04354
4516.95852	0.04360
4515.02984	0.04368
4513.10117	0.04377
4511.17249	0.04384
4509.24382	0.04394
4507.31514	0.04404
4505.38646	0.04412
4503.45779	0.04416
4501.52911	0.04421
4499.60044	0.04427
4497.67176	0.04434
4495.74309	0.04442
4493.81441	0.04451
4491.88573	0.04459
4489.95706	0.04467
4488.02838	0.04473
4486.09971	0.04479
4484.17103	0.04486
4482.24236	0.04494
4480.31368	0.04504
4478.38500	0.04513
4476.45633	0.04520
4474.52765	0.04527
4472.59898	0.04534
4470.67030	0.04541
4468.74163	0.04548
4466.81295	0.04555
4464.88427	0.04562
4462.95560	0.04569
4461.02692	0.04576
4459.09825	0.04584
4457.16957	0.04593
4455.24090	0.04602
4453.31222	0.04610
4451.38354	0.04618
4449.45487	0.04627
4447.52619	0.04636
4445.59752	0.04645
4443.66884	0.04652
4441.74017	0.04657
4439.81149	0.04663
4437.88281	0.04670
4435.95414	0.04679
4434.02546	0.04690
4432.09679	0.04700
4430.16811	0.04706
4428.23944	0.04712
4426.31076	0.04720
4424.38208	0.04729
4422.45341	0.04739
4420.52473	0.04748
4418.59606	0.04757
4416.66738	0.04764
4414.73871	0.04771
4412.81003	0.04780
4410.88135	0.04789
4408.95268	0.04796
4407.02400	0.04805
4405.09533	0.04813
4403.16665	0.04820
4401.23798	0.04827
4399.30930	0.04835
4397.38062	0.04844
4395.45195	0.04854
4393.52327	0.04863
4391.59460	0.04872
4389.66592	0.04881
4387.73725	0.04890
4385.80857	0.04898
4383.87989	0.04906
4381.95122	0.04914
4380.02254	0.04923
4378.09387	0.04931
4376.16519	0.04939
4374.23652	0.04949
4372.30784	0.04959
4370.37916	0.04968
4368.45049	0.04978
4366.52181	0.04987
4364.59314	0.04995
4362.66446	0.05003
4360.73579	0.05013
4358.80711	0.05022
4356.87843	0.05030
4354.94976	0.05038
4353.02108	0.05045
4351.09241	0.05053
4349.16373	0.05063
4347.23506	0.05074
4345.30638	0.05082
4343.37770	0.05090
4341.44903	0.05097
4339.52035	0.05105
4337.59168	0.05115
4335.66300	0.05126
4333.73433	0.05136
4331.80565	0.05146
4329.87697	0.05154
4327.94830	0.05162
4326.01962	0.05171
4324.09095	0.05182
4322.16227	0.05194
4320.23360	0.05204
4318.30492	0.05213
4316.37624	0.05222
4314.44757	0.05230
4312.51889	0.05237
4310.59022	0.05246
4308.66154	0.05257
4306.73287	0.05268
4304.80419	0.05280
4302.87551	0.05290
4300.94684	0.05297
4299.01816	0.05304
4297.08949	0.05314
4295.16081	0.05326
4293.23214	0.05338
4291.30346	0.05349
4289.37478	0.05359
4287.44611	0.05368
4285.51743	0.05377
4283.58876	0.05387
4281.66008	0.05396
4279.73141	0.05403
4277.80273	0.05412
4275.87405	0.05423
4273.94538	0.05434
4272.01670	0.05444
4270.08803	0.05452
4268.15935	0.05462
4266.23068	0.05472
4264.30200	0.05483
4262.37332	0.05492
4260.44465	0.05501
4258.51597	0.05510
4256.58730	0.05520
4254.65862	0.05531
4252.72995	0.05542
4250.80127	0.05554
4248.87259	0.05564
4246.94392	0.05572
4245.01524	0.05582
4243.08657	0.05594
4241.15789	0.05604
4239.22922	0.05613
4237.30054	0.05622
4235.37186	0.05631
4233.44319	0.05640
4231.51451	0.05651
4229.58584	0.05662
4227.65716	0.05673
4225.72849	0.05685
4223.79981	0.05697
4221.87113	0.05706
4219.94246	0.05713
4218.01378	0.05722
4216.08511	0.05733
4214.15643	0.05744
4212.22776	0.05754
4210.29908	0.05766
4208.37040	0.05780
4206.44173	0.05791
4204.51305	0.05799
4202.58438	0.05810
4200.65570	0.05821
4198.72703	0.05831
4196.79835	0.05840
4194.86968	0.05852
4192.94100	0.05865
4191.01232	0.05876
4189.08365	0.05886
4187.15497	0.05897
4185.22630	0.05910
4183.29762	0.05923
4181.36895	0.05934
4179.44027	0.05944
4177.51159	0.05955
4175.58292	0.05965
4173.65424	0.05977
4171.72557	0.05989
4169.79689	0.05999
4167.86822	0.06008
4165.93954	0.06017
4164.01086	0.06028
4162.08219	0.06040
4160.15351	0.06051
4158.22484	0.06064
4156.29616	0.06076
4154.36749	0.06087
4152.43881	0.06096
4150.51013	0.06107
4148.58146	0.06119
4146.65278	0.06132
4144.72411	0.06146
4142.79543	0.06158
4140.86676	0.06168
4138.93808	0.06176
4137.00940	0.06187
4135.08073	0.06200
4133.15205	0.06212
4131.22338	0.06223
4129.29470	0.06233
4127.36603	0.06244
4125.43735	0.06258
4123.50867	0.06272
4121.58000	0.06283
4119.65132	0.06294
4117.72265	0.06306
4115.79397	0.06317
4113.86530	0.06327
4111.93662	0.06339
4110.00794	0.06352
4108.07927	0.06366
4106.15059	0.06377
4104.22192	0.06387
4102.29324	0.06397
4100.36457	0.06409
4098.43589	0.06424
4096.50721	0.06440
4094.57854	0.06453
4092.64986	0.06464
4090.72119	0.06475
4088.79251	0.06487
4086.86384	0.06500
4084.93516	0.06513
4083.00648	0.06525
4081.07781	0.06537
4079.14913	0.06550
4077.22046	0.06561
4075.29178	0.06573
4073.36311	0.06586
4071.43443	0.06598
4069.50575	0.06610
4067.57708	0.06621
4065.64840	0.06632
4063.71973	0.06645
4061.79105	0.06659
4059.86238	0.06672
4057.93370	0.06685
4056.00502	0.06698
4054.07635	0.06713
4052.14767	0.06726
4050.21900	0.06739
4048.29032	0.06751
4046.36165	0.06762
4044.43297	0.06776
4042.50429	0.06791
4040.57562	0.06802
4038.64694	0.06813
4036.71827	0.06826
4034.78959	0.06838
4032.86092	0.06851
4030.93224	0.06863
4029.00356	0.06875
4027.07489	0.06888
4025.14621	0.06900
4023.21754	0.06912
4021.28886	0.06924
4019.36019	0.06935
4017.43151	0.06947
4015.50283	0.06962
4013.57416	0.06978
4011.64548	0.06994
4009.71681	0.07007
4007.78813	0.07020
4005.85946	0.07033
4003.93078	0.07044
4002.00210	0.07055
4000.07343	0.07069
3998.14475	0.07084
3996.21608	0.07100
3994.28740	0.07114
3992.35873	0.07125
3990.43005	0.07137
3988.50137	0.07151
3986.57270	0.07167
3984.64402	0.07183
3982.71535	0.07197
3980.78667	0.07209
3978.85800	0.07220
3976.92932	0.07232
3975.00064	0.07243
3973.07197	0.07257
3971.14329	0.07271
3969.21462	0.07287
3967.28594	0.07304
3965.35727	0.07319
3963.42859	0.07330
3961.49991	0.07339
3959.57124	0.07351
3957.64256	0.07366
3955.71389	0.07380
3953.78521	0.07394
3951.85654	0.07406
3949.92786	0.07416
3947.99918	0.07431
3946.07051	0.07447
3944.14183	0.07459
3942.21316	0.07473
3940.28448	0.07492
3938.35581	0.07510
3936.42713	0.07523
3934.49845	0.07531
3932.56978	0.07539
3930.64110	0.07554
3928.71243	0.07573
3926.78375	0.07585
3924.85508	0.07596
3922.92640	0.07610
3920.99772	0.07623
3919.06905	0.07631
3917.14037	0.07644
3915.21170	0.07667
3913.28302	0.07692
3911.35435	0.07711
3909.42567	0.07723
3907.49699	0.07724
3905.56832	0.07716
3903.63964	0.07713
3901.71097	0.07726
3899.78229	0.07754
3897.85362	0.07789
3895.92494	0.07818
3893.99626	0.07827
3892.06759	0.07831
3890.13891	0.07846
3888.21024	0.07857
3886.28156	0.07859
3884.35289	0.07871
3882.42421	0.07889
3880.49553	0.07907
3878.56686	0.07934
3876.63818	0.07955
3874.70951	0.07959
3872.78083	0.07961
3870.85216	0.07966
3868.92348	0.07983
3866.99480	0.08006
3865.06613	0.08023
3863.13745	0.08042
3861.20878	0.08068
3859.28010	0.08087
3857.35143	0.08075
3855.42275	0.08039
3853.49407	0.08034
3851.56540	0.08089
3849.63672	0.08154
3847.70805	0.08188
3845.77937	0.08198
3843.85070	0.08200
3841.92202	0.08201
3839.99334	0.08205
3838.06467	0.08216
3836.13599	0.08240
3834.20732	0.08269
3832.27864	0.08295
3830.34997	0.08319
3828.42129	0.08338
3826.49261	0.08351
3824.56394	0.08355
3822.63526	0.08348
3820.70659	0.08354
3818.77791	0.08378
3816.84924	0.08400
3814.92056	0.08428
3812.99188	0.08467
3811.06321	0.08492
3809.13453	0.08497
3807.20586	0.08498
3805.27718	0.08507
3803.34851	0.08511
3801.41983	0.08521
3799.49115	0.08551
3797.56248	0.08580
3795.63380	0.08603
3793.70513	0.08630
3791.77645	0.08655
3789.84778	0.08672
3787.91910	0.08684
3785.99042	0.08694
3784.06175	0.08706
3782.13307	0.08718
3780.20440	0.08728
3778.27572	0.08748
3776.34705	0.08773
3774.41837	0.08790
3772.48969	0.08795
3770.56102	0.08799
3768.63234	0.08812
3766.70367	0.08833
3764.77499	0.08858
3762.84632	0.08880
3760.91764	0.08889
3758.98896	0.08897
3757.06029	0.08912
3755.13161	0.08917
3753.20294	0.08899
3751.27426	0.08887
3749.34559	0.08904
3747.41691	0.08921
3745.48823	0.08919
3743.55956	0.08946
3741.63088	0.09008
3739.70221	0.09039
3737.77353	0.09027
3735.84486	0.09021
3733.91618	0.09047
3731.98750	0.09092
3730.05883	0.09132
3728.13015	0.09148
3726.20148	0.09155
3724.27280	0.09171
3722.34413	0.09196
3720.41545	0.09223
3718.48677	0.09249
3716.55810	0.09265
3714.62942	0.09265
3712.70075	0.09258
3710.77207	0.09270
3708.84340	0.09306
3706.91472	0.09346
3704.98604	0.09367
3703.05737	0.09372
3701.12869	0.09386
3699.20002	0.09412
3697.27134	0.09434
3695.34267	0.09446
3693.41399	0.09448
3691.48531	0.09442
3689.55664	0.09445
3687.62796	0.09473
3685.69929	0.09514
3683.77061	0.09544
3681.84194	0.09558
3679.91326	0.09559
3677.98458	0.09545
3676.05591	0.09536
3674.12723	0.09557
3672.19856	0.09585
3670.26988	0.09603
3668.34121	0.09636
3666.41253	0.09680
3664.48385	0.09710
3662.55518	0.09727
3660.62650	0.09739
3658.69783	0.09741
3656.76915	0.09741
3654.84048	0.09750
3652.91180	0.09744
3650.98312	0.09714
3649.05445	0.09699
3647.12577	0.09728
3645.19710	0.09784
3643.26842	0.09835
3641.33975	0.09864
3639.41107	0.09882
3637.48239	0.09897
3635.55372	0.09910
3633.62504	0.09914
3631.69637	0.09899
3629.76769	0.09882
3627.83902	0.09905
3625.91034	0.09955
3623.98166	0.09985
3622.05299	0.09984
3620.12431	0.09975
3618.19564	0.09982
3616.26696	0.10002
3614.33829	0.10016
3612.40961	0.10024
3610.48093	0.10031
3608.55226	0.10045
3606.62358	0.10074
3604.69491	0.10100
3602.76623	0.10113
3600.83756	0.10121
3598.90888	0.10135
3596.98020	0.10147
3595.05153	0.10158
3593.12285	0.10171
3591.19418	0.10174
3589.26550	0.10164
3587.33683	0.10167
3585.40815	0.10198
3583.47947	0.10235
3581.55080	0.10259
3579.62212	0.10275
3577.69345	0.10289
3575.76477	0.10302
3573.83610	0.10314
3571.90742	0.10321
3569.97874	0.10315
3568.05007	0.10307
3566.12139	0.10321
3564.19272	0.10355
3562.26404	0.10383
3560.33537	0.10399
3558.40669	0.10413
3556.47801	0.10429
3554.54934	0.10441
3552.62066	0.10449
3550.69199	0.10458
3548.76331	0.10465
3546.83464	0.10470
3544.90596	0.10484
3542.97728	0.10506
3541.04861	0.10525
3539.11993	0.10535
3537.19126	0.10542
3535.26258	0.10551
3533.33391	0.10564
3531.40523	0.10572
3529.47655	0.10577
3527.54788	0.10581
3525.61920	0.10588
3523.69053	0.10597
3521.76185	0.10611
3519.83318	0.10625
3517.90450	0.10635
3515.97582	0.10639
3514.04715	0.10642
3512.11847	0.10646
3510.18980	0.10652
3508.26112	0.10658
3506.33245	0.10662
3504.40377	0.10663
3502.47509	0.10670
3500.54642	0.10681
3498.61774	0.10691
3496.68907	0.10698
3494.76039	0.10703
3492.83172	0.10709
3490.90304	0.10714
3488.97436	0.10718
3487.04569	0.10724
3485.11701	0.10732
3483.18834	0.10738
3481.25966	0.10746
3479.33099	0.10756
3477.40231	0.10765
3475.47363	0.10774
3473.54496	0.10788
3471.61628	0.10805
3469.68761	0.10821
3467.75893	0.10837
3465.83026	0.10855
3463.90158	0.10873
3461.97290	0.10890
3460.04423	0.10905
3458.11555	0.10923
3456.18688	0.10942
3454.25820	0.10958
3452.32953	0.10974
3450.40085	0.10990
3448.47217	0.11004
3446.54350	0.11020
3444.61482	0.11038
3442.68615	0.11057
3440.75747	0.11080
3438.82880	0.11105
3436.90012	0.11133
3434.97144	0.11163
3433.04277	0.11195
3431.11409	0.11232
3429.18542	0.11270
3427.25674	0.11306
3425.32807	0.11334
3423.39939	0.11362
3421.47071	0.11393
3419.54204	0.11426
3417.61336	0.11459
3415.68469	0.11490
3413.75601	0.11520
3411.82734	0.11547
3409.89866	0.11569
3407.96998	0.11591
3406.04131	0.11616
3404.11263	0.11639
3402.18396	0.11660
3400.25528	0.11682
3398.32661	0.11706
3396.39793	0.11732
3394.46925	0.11758
3392.54058	0.11783
3390.61190	0.11806
3388.68323	0.11828
3386.75455	0.11849
3384.82588	0.11873
3382.89720	0.11898
3380.96852	0.11921
3379.03985	0.11942
3377.11117	0.11965
3375.18250	0.11991
3373.25382	0.12015
3371.32515	0.12037
3369.39647	0.12059
3367.46779	0.12079
3365.53912	0.12098
3363.61044	0.12118
3361.68177	0.12141
3359.75309	0.12166
3357.82442	0.12191
3355.89574	0.12212
3353.96706	0.12233
3352.03839	0.12254
3350.10971	0.12275
3348.18104	0.12298
3346.25236	0.12322
3344.32369	0.12344
3342.39501	0.12367
3340.46633	0.12390
3338.53766	0.12409
3336.60898	0.12426
3334.68031	0.12445
3332.75163	0.12468
3330.82296	0.12494
3328.89428	0.12518
3326.96560	0.12541
3325.03693	0.12563
3323.10825	0.12586
3321.17958	0.12609
3319.25090	0.12632
3317.32223	0.12654
3315.39355	0.12676
3313.46487	0.12698
3311.53620	0.12721
3309.60752	0.12745
3307.67885	0.12768
3305.75017	0.12789
3303.82150	0.12811
3301.89282	0.12835
3299.96414	0.12861
3298.03547	0.12885
3296.10679	0.12906
3294.17812	0.12927
3292.24944	0.12953
3290.32077	0.12978
3288.39209	0.13003
3286.46341	0.13026
3284.53474	0.13048
3282.60606	0.13071
3280.67739	0.13097
3278.74871	0.13122
3276.82004	0.13144
3274.89136	0.13166
3272.96268	0.13188
3271.03401	0.13211
3269.10533	0.13235
3267.17666	0.13259
3265.24798	0.13284
3263.31931	0.13310
3261.39063	0.13334
3259.46195	0.13357
3257.53328	0.13379
3255.60460	0.13402
3253.67593	0.13426
3251.74725	0.13453
3249.81858	0.13480
3247.88990	0.13504
3245.96122	0.13526
3244.03255	0.13548
3242.10387	0.13573
3240.17520	0.13597
3238.24652	0.13619
3236.31785	0.13644
3234.38917	0.13670
3232.46049	0.13694
3230.53182	0.13715
3228.60314	0.13738
3226.67447	0.13765
3224.74579	0.13792
3222.81712	0.13816
3220.88844	0.13839
3218.95976	0.13862
3217.03109	0.13886
3215.10241	0.13908
3213.17374	0.13929
3211.24506	0.13949
3209.31639	0.13973
3207.38771	0.14001
3205.45903	0.14027
3203.53036	0.14051
3201.60168	0.14077
3199.67301	0.14105
3197.74433	0.14129
3195.81566	0.14152
3193.88698	0.14177
3191.95830	0.14204
3190.02963	0.14231
3188.10095	0.14255
3186.17228	0.14279
3184.24360	0.14309
3182.31493	0.14337
3180.38625	0.14362
3178.45757	0.14386
3176.52890	0.14411
3174.60022	0.14438
3172.67155	0.14464
3170.74287	0.14487
3168.81420	0.14510
3166.88552	0.14534
3164.95684	0.14559
3163.02817	0.14583
3161.09949	0.14607
3159.17082	0.14632
3157.24214	0.14658
3155.31347	0.14684
3153.38479	0.14710
3151.45611	0.14736
3149.52744	0.14762
3147.59876	0.14788
3145.67009	0.14812
3143.74141	0.14835
3141.81274	0.14858
3139.88406	0.14882
3137.95538	0.14907
3136.02671	0.14932
3134.09803	0.14955
3132.16936	0.14977
3130.24068	0.15002
3128.31201	0.15031
3126.38333	0.15059
3124.45465	0.15084
3122.52598	0.15106
3120.59730	0.15131
3118.66863	0.15155
3116.73995	0.15177
3114.81128	0.15201
3112.88260	0.15227
3110.95392	0.15253
3109.02525	0.15277
3107.09657	0.15302
3105.16790	0.15327
3103.23922	0.15352
3101.31055	0.15375
3099.38187	0.15399
3097.45319	0.15426
3095.52452	0.15453
3093.59584	0.15479
3091.66717	0.15505
3089.73849	0.15528
3087.80982	0.15549
3085.88114	0.15569
3083.95246	0.15594
3082.02379	0.15621
3080.09511	0.15648
3078.16644	0.15675
3076.23776	0.15699
3074.30909	0.15723
3072.38041	0.15747
3070.45173	0.15772
3068.52306	0.15798
3066.59438	0.15823
3064.66571	0.15847
3062.73703	0.15871
3060.80836	0.15896
3058.87968	0.15919
3056.95100	0.15945
3055.02233	0.15973
3053.09365	0.15998
3051.16498	0.16019
3049.23630	0.16041
3047.30763	0.16064
3045.37895	0.16090
3043.45027	0.16117
3041.52160	0.16141
3039.59292	0.16162
3037.66425	0.16186
3035.73557	0.16213
3033.80690	0.16239
3031.87822	0.16262
3029.94954	0.16285
3028.02087	0.16310
3026.09219	0.16338
3024.16352	0.16365
3022.23484	0.16388
3020.30617	0.16410
3018.37749	0.16432
3016.44881	0.16456
3014.52014	0.16481
3012.59146	0.16508
3010.66279	0.16535
3008.73411	0.16559
3006.80544	0.16581
3004.87676	0.16605
3002.94808	0.16631
3001.01941	0.16656
2999.09073	0.16678
2997.16206	0.16701
2995.23338	0.16726
2993.30471	0.16751
2991.37603	0.16774
2989.44735	0.16795
2987.51868	0.16815
2985.59000	0.16831
2983.66133	0.16846
2981.73265	0.16860
2979.80398	0.16871
2977.87530	0.16880
2975.94662	0.16887
2974.01795	0.16893
2972.08927	0.16897
2970.16060	0.16896
2968.23192	0.16893
2966.30325	0.16895
2964.37457	0.16904
2962.44589	0.16922
2960.51722	0.16945
2958.58854	0.16974
2956.65987	0.17005
2954.73119	0.17039
2952.80252	0.17073
2950.87384	0.17104
2948.94516	0.17131
2947.01649	0.17153
2945.08781	0.17170
2943.15914	0.17183
2941.23046	0.17192
2939.30179	0.17195
2937.37311	0.17195
2935.44443	0.17191
2933.51576	0.17187
2931.58708	0.17181
2929.65841	0.17177
2927.72973	0.17175
2925.80106	0.17176
2923.87238	0.17180
2921.94370	0.17185
2920.01503	0.17197
2918.08635	0.17221
2916.15768	0.17269
2914.22900	0.17343
2912.30033	0.17428
2910.37165	0.17506
2908.44297	0.17567
2906.51430	0.17616
2904.58562	0.17659
2902.65695	0.17700
2900.72827	0.17740
2898.79960	0.17775
2896.87092	0.17809
2894.94224	0.17842
2893.01357	0.17877
2891.08489	0.17911
2889.15622	0.17943
2887.22754	0.17973
2885.29887	0.18003
2883.37019	0.18030
2881.44151	0.18057
2879.51284	0.18082
2877.58416	0.18105
2875.65549	0.18128
2873.72681	0.18152
2871.79814	0.18175
2869.86946	0.18198
2867.94078	0.18222
2866.01211	0.18247
2864.08343	0.18267
2862.15476	0.18278
2860.22608	0.18281
2858.29741	0.18279
2856.36873	0.18276
2854.44005	0.18269
2852.51138	0.18265
2850.58270	0.18279
2848.65403	0.18328
2846.72535	0.18407
2844.79668	0.18495
2842.86800	0.18573
2840.93932	0.18632
2839.01065	0.18679
2837.08197	0.18721
2835.15330	0.18760
2833.22462	0.18793
2831.29595	0.18824
2829.36727	0.18855
2827.43859	0.18886
2825.50992	0.18918
2823.58124	0.18949
2821.65257	0.18977
2819.72389	0.19001
2817.79522	0.19027
2815.86654	0.19056
2813.93786	0.19087
2812.00919	0.19116
2810.08051	0.19142
2808.15184	0.19167
2806.22316	0.19193
2804.29449	0.19220
2802.36581	0.19246
2800.43713	0.19272
2798.50846	0.19302
2796.57978	0.19334
2794.65111	0.19362
2792.72243	0.19386
2790.79376	0.19410
2788.86508	0.19437
2786.93640	0.19466
2785.00773	0.19492
2783.07905	0.19517
2781.15038	0.19544
2779.22170	0.19571
2777.29303	0.19601
2775.36435	0.19633
2773.43567	0.19664
2771.50700	0.19689
2769.57832	0.19712
2767.64965	0.19736
2765.72097	0.19760
2763.79230	0.19785
2761.86362	0.19812
2759.93494	0.19843
2758.00627	0.19872
2756.07759	0.19896
2754.14892	0.19919
2752.22024	0.19944
2750.29157	0.19972
2748.36289	0.19999
2746.43421	0.20027
2744.50554	0.20054
2742.57686	0.20078
2740.64819	0.20100
2738.71951	0.20123
2736.79084	0.20146
2734.86216	0.20170
2732.93348	0.20199
2731.00481	0.20228
2729.07613	0.20255
2727.14746	0.20279
2725.21878	0.20302
2723.29011	0.20327
2721.36143	0.20352
2719.43275	0.20376
2717.50408	0.20401
2715.57540	0.20428
2713.64673	0.20456
2711.71805	0.20482
2709.78938	0.20509
2707.86070	0.20534
2705.93202	0.20559
2704.00335	0.20584
2702.07467	0.20607
2700.14600	0.20630
2698.21732	0.20655
2696.28865	0.20679
2694.35997	0.20701
2692.43129	0.20724
2690.50262	0.20751
2688.57394	0.20780
2686.64527	0.20807
2684.71659	0.20830
2682.78792	0.20852
2680.85924	0.20881
2678.93056	0.20912
2677.00189	0.20938
2675.07321	0.20959
2673.14454	0.20983
2671.21586	0.21010
2669.28719	0.21035
2667.35851	0.21061
2665.42983	0.21089
2663.50116	0.21118
2661.57248	0.21145
2659.64381	0.21170
2657.71513	0.21194
2655.78646	0.21218
2653.85778	0.21244
2651.92910	0.21273
2650.00043	0.21302
2648.07175	0.21330
2646.14308	0.21357
2644.21440	0.21385
2642.28573	0.21414
2640.35705	0.21441
2638.42837	0.21467
2636.49970	0.21493
2634.57102	0.21520
2632.64235	0.21548
2630.71367	0.21578
2628.78500	0.21607
2626.85632	0.21632
2624.92764	0.21658
2622.99897	0.21685
2621.07029	0.21713
2619.14162	0.21743
2617.21294	0.21774
2615.28427	0.21805
2613.35559	0.21832
2611.42691	0.21854
2609.49824	0.21878
2607.56956	0.21905
2605.64089	0.21933
2603.71221	0.21962
2601.78354	0.21990
2599.85486	0.22017
2597.92618	0.22046
2595.99751	0.22074
2594.06883	0.22101
2592.14016	0.22128
2590.21148	0.22157
2588.28281	0.22187
2586.35413	0.22217
2584.42545	0.22241
2582.49678	0.22263
2580.56810	0.22290
2578.63943	0.22320
2576.71075	0.22345
2574.78208	0.22369
2572.85340	0.22396
2570.92472	0.22421
2568.99605	0.22445
2567.06737	0.22468
2565.13870	0.22492
2563.21002	0.22515
2561.28135	0.22541
2559.35267	0.22568
2557.42399	0.22596
2555.49532	0.22626
2553.56664	0.22657
2551.63797	0.22685
2549.70929	0.22708
2547.78062	0.22731
2545.85194	0.22758
2543.92326	0.22787
2541.99459	0.22812
2540.06591	0.22837
2538.13724	0.22864
2536.20856	0.22892
2534.27989	0.22917
2532.35121	0.22943
2530.42253	0.22971
2528.49386	0.22996
2526.56518	0.23023
2524.63651	0.23054
2522.70783	0.23084
2520.77916	0.23110
2518.85048	0.23132
2516.92181	0.23159
2514.99313	0.23191
2513.06445	0.23224
2511.13578	0.23257
2509.20710	0.23290
2507.27843	0.23320
2505.34975	0.23348
2503.42108	0.23376
2501.49240	0.23404
2499.56372	0.23436
2497.63505	0.23469
2495.70637	0.23499
2493.77770	0.23527
2491.84902	0.23557
2489.92035	0.23586
2487.99167	0.23612
2486.06299	0.23637
2484.13432	0.23666
2482.20564	0.23696
2480.27697	0.23725
2478.34829	0.23755
2476.41962	0.23786
2474.49094	0.23815
2472.56226	0.23843
2470.63359	0.23870
2468.70491	0.23896
2466.77624	0.23921
2464.84756	0.23949
2462.91889	0.23980
2460.99021	0.24012
2459.06153	0.24042
2457.13286	0.24069
2455.20418	0.24096
2453.27551	0.24125
2451.34683	0.24152
2449.41816	0.24178
2447.48948	0.24204
2445.56080	0.24233
2443.63213	0.24266
2441.70345	0.24297
2439.77478	0.24323
2437.84610	0.24349
2435.91743	0.24380
2433.98875	0.24413
2432.06007	0.24441
2430.13140	0.24466
2428.20272	0.24494
2426.27405	0.24524
2424.34537	0.24553
2422.41670	0.24582
2420.48802	0.24613
2418.55934	0.24643
2416.63067	0.24668
2414.70199	0.24691
2412.77332	0.24719
2410.84464	0.24747
2408.91597	0.24774
2406.98729	0.24802
2405.05861	0.24830
2403.12994	0.24858
2401.20126	0.24886
2399.27259	0.24912
2397.34391	0.24938
2395.41524	0.24966
2393.48656	0.24995
2391.55788	0.25024
2389.62921	0.25051
2387.70053	0.25078
2385.77186	0.25105
2383.84318	0.25133
2381.91451	0.25154
2379.98583	0.25170
2378.05715	0.25181
2376.12848	0.25189
2374.19980	0.25197
2372.27113	0.25204
2370.34245	0.25209
2368.41378	0.25217
2366.48510	0.25228
2364.55642	0.25247
2362.62775	0.25273
2360.69907	0.25302
2358.77040	0.25331
2356.84172	0.25369
2354.91305	0.25419
2352.98437	0.25476
2351.05569	0.25532
2349.12702	0.25573
2347.19834	0.25589
2345.26967	0.25593
2343.34099	0.25602
2341.41232	0.25621
2339.48364	0.25646
2337.55496	0.25671
2335.62629	0.25701
2333.69761	0.25734
2331.76894	0.25766
2329.84026	0.25794
2327.91159	0.25823
2325.98291	0.25858
2324.05423	0.25895
2322.12556	0.25933
2320.19688	0.25972
2318.26821	0.26012
2316.33953	0.26051
2314.41086	0.26085
2312.48218	0.26119
2310.55350	0.26153
2308.62483	0.26187
2306.69615	0.26222
2304.76748	0.26257
2302.83880	0.26289
2300.91013	0.26321
2298.98145	0.26353
2297.05277	0.26386
2295.12410	0.26418
2293.19542	0.26448
2291.26675	0.26476
2289.33807	0.26501
2287.40940	0.26527
2285.48072	0.26555
2283.55204	0.26586
2281.62337	0.26620
2279.69469	0.26652
2277.76602	0.26679
2275.83734	0.26703
2273.90867	0.26725
2271.97999	0.26751
2270.05131	0.26784
2268.12264	0.26817
2266.19396	0.26844
2264.26529	0.26868
2262.33661	0.26895
2260.40794	0.26924
2258.47926	0.26957
2256.55058	0.26988
2254.62191	0.27015
2252.69323	0.27039
2250.76456	0.27065
2248.83588	0.27092
2246.90721	0.27122
2244.97853	0.27153
2243.04985	0.27183
2241.12118	0.27208
2239.19250	0.27233
2237.26383	0.27262
2235.33515	0.27295
2233.40648	0.27328
2231.47780	0.27356
2229.54912	0.27382
2227.62045	0.27410
2225.69177	0.27442
2223.76310	0.27474
2221.83442	0.27499
2219.90575	0.27520
2217.97707	0.27544
2216.04839	0.27571
2214.11972	0.27599
2212.19104	0.27625
2210.26237	0.27651
2208.33369	0.27680
2206.40502	0.27710
2204.47634	0.27739
2202.54766	0.27768
2200.61899	0.27796
2198.69031	0.27823
2196.76164	0.27850
2194.83296	0.27881
2192.90429	0.27909
2190.97561	0.27935
2189.04693	0.27960
2187.11826	0.27985
2185.18958	0.28009
2183.26091	0.28037
2181.33223	0.28064
2179.40356	0.28089
2177.47488	0.28114
2175.54620	0.28145
2173.61753	0.28179
2171.68885	0.28209
2169.76018	0.28238
2167.83150	0.28268
2165.90283	0.28299
2163.97415	0.28326
2162.04547	0.28354
2160.11680	0.28385
2158.18812	0.28415
2156.25945	0.28442
2154.33077	0.28466
2152.40210	0.28494
2150.47342	0.28525
2148.54474	0.28557
2146.61607	0.28588
2144.68739	0.28616
2142.75872	0.28641
2140.83004	0.28666
2138.90137	0.28694
2136.97269	0.28723
2135.04401	0.28754
2133.11534	0.28786
2131.18666	0.28816
2129.25799	0.28846
2127.32931	0.28875
2125.40064	0.28901
2123.47196	0.28926
2121.54328	0.28952
2119.61461	0.28980
2117.68593	0.29008
2115.75726	0.29033
2113.82858	0.29061
2111.89991	0.29094
2109.97123	0.29126
2108.04255	0.29153
2106.11388	0.29179
2104.18520	0.29206
2102.25653	0.29232
2100.32785	0.29259
2098.39918	0.29294
2096.47050	0.29331
2094.54182	0.29362
2092.61315	0.29390
2090.68447	0.29415
2088.75580	0.29440
2086.82712	0.29464
2084.89845	0.29489
2082.96977	0.29516
2081.04109	0.29545
2079.11242	0.29576
2077.18374	0.29608
2075.25507	0.29640
2073.32639	0.29669
2071.39772	0.29697
2069.46904	0.29726
2067.54036	0.29755
2065.61169	0.29782
2063.68301	0.29811
2061.75434	0.29843
2059.82566	0.29873
2057.89699	0.29900
2055.96831	0.29929
2054.03963	0.29955
2052.11096	0.29980
2050.18228	0.30007
2048.25361	0.30034
2046.32493	0.30060
2044.39626	0.30087
2042.46758	0.30114
2040.53890	0.30141
2038.61023	0.30171
2036.68155	0.30206
2034.75288	0.30240
2032.82420	0.30269
2030.89553	0.30297
2028.96685	0.30326
2027.03817	0.30357
2025.10950	0.30388
2023.18082	0.30419
2021.25215	0.30446
2019.32347	0.30465
2017.39480	0.30486
2015.46612	0.30520
2013.53744	0.30558
2011.60877	0.30589
2009.68009	0.30618
2007.75142	0.30646
2005.82274	0.30676
2003.89407	0.30708
2001.96539	0.30738
2000.03671	0.30764
1998.10804	0.30792
1996.17936	0.30818
1994.25069	0.30830
1992.32201	0.30843
1990.39334	0.30874
1988.46466	0.30910
1986.53598	0.30942
1984.60731	0.30968
1982.67863	0.30990
1980.74996	0.31011
1978.82128	0.31037
1976.89261	0.31066
1974.96393	0.31094
1973.03525	0.31122
1971.10658	0.31146
1969.17790	0.31161
1967.24923	0.31179
1965.32055	0.31209
1963.39188	0.31244
1961.46320	0.31275
1959.53452	0.31302
1957.60585	0.31325
1955.67717	0.31350
1953.74850	0.31384
1951.81982	0.31419
1949.89115	0.31448
1947.96247	0.31471
1946.03379	0.31489
1944.10512	0.31499
1942.17644	0.31519
1940.24777	0.31561
1938.31909	0.31610
1936.39042	0.31645
1934.46174	0.31669
1932.53306	0.31691
1930.60439	0.31715
1928.67571	0.31744
1926.74704	0.31775
1924.81836	0.31795
1922.88969	0.31808
1920.96101	0.31821
1919.03233	0.31833
1917.10366	0.31866
1915.17498	0.31922
1913.24631	0.31967
1911.31763	0.31991
1909.38896	0.32014
1907.46028	0.32048
1905.53160	0.32081
1903.60293	0.32107
1901.67425	0.32131
1899.74558	0.32158
1897.81690	0.32184
1895.88823	0.32208
1893.95955	0.32233
1892.03087	0.32252
1890.10220	0.32265
1888.17352	0.32300
1886.24485	0.32348
1884.31617	0.32382
1882.38750	0.32407
1880.45882	0.32433
1878.53014	0.32460
1876.60147	0.32489
1874.67279	0.32515
1872.74412	0.32527
1870.81544	0.32516
1868.88677	0.32517
1866.95809	0.32567
1865.02941	0.32635
1863.10074	0.32683
1861.17206	0.32716
1859.24339	0.32749
1857.31471	0.32778
1855.38604	0.32805
1853.45736	0.32833
1851.52868	0.32860
1849.60001	0.32876
1847.67133	0.32868
1845.74266	0.32847
1843.81398	0.32869
1841.88531	0.32948
1839.95663	0.33021
1838.02795	0.33057
1836.09928	0.33081
1834.17060	0.33105
1832.24193	0.33108
1830.31325	0.33107
1828.38458	0.33133
1826.45590	0.33168
1824.52722	0.33206
1822.59855	0.33258
1820.66987	0.33307
1818.74120	0.33343
1816.81252	0.33373
1814.88385	0.33393
1812.95517	0.33397
1811.02649	0.33402
1809.09782	0.33429
1807.16914	0.33468
1805.24047	0.33490
1803.31179	0.33485
1801.38312	0.33480
1799.45444	0.33510
1797.52576	0.33558
1795.59709	0.33573
1793.66841	0.33553
1791.73974	0.33562
1789.81106	0.33625
1787.88239	0.33678
1785.95371	0.33693
1784.02503	0.33706
1782.09636	0.33728
1780.16768	0.33753
1778.23901	0.33783
1776.31033	0.33792
1774.38166	0.33766
1772.45298	0.33747
1770.52430	0.33768
1768.59563	0.33813
1766.66695	0.33873
1764.73828	0.33917
1762.80960	0.33922
1760.88093	0.33932
1758.95225	0.33956
1757.02357	0.33972
1755.09490	0.33976
1753.16622	0.33940
1751.23755	0.33884
1749.30887	0.33880
1747.38020	0.33923
1745.45152	0.33956
1743.52284	0.33964
1741.59417	0.33962
1739.66549	0.33970
1737.73682	0.33970
1735.80814	0.33919
1733.87947	0.33894
1731.95079	0.33971
1730.02211	0.34080
1728.09344	0.34160
1726.16476	0.34214
1724.23609	0.34243
1722.30741	0.34247
1720.37874	0.34205
1718.45006	0.34148
1716.52138	0.34154
1714.59271	0.34227
1712.66403	0.34310
1710.73536	0.34359
1708.80668	0.34360
1706.87801	0.34333
1704.94933	0.34313
1703.02065	0.34265
1701.09198	0.34191
1699.16330	0.34189
1697.23463	0.34242
1695.30595	0.34301
1693.37728	0.34382
1691.44860	0.34428
1689.51992	0.34416
1687.59125	0.34372
1685.66257	0.34297
1683.73390	0.34271
1681.80522	0.34339
1679.87655	0.34415
1677.94787	0.34425
1676.01919	0.34399
1674.09052	0.34396
1672.16184	0.34395
1670.23317	0.34381
1668.30449	0.34419
1666.37582	0.34490
1664.44714	0.34509
1662.51846	0.34506
1660.58979	0.34540
1658.66111	0.34566
1656.73244	0.34498
1654.80376	0.34349
1652.87509	0.34290
1650.94641	0.34380
1649.01773	0.34443
1647.08906	0.34444
1645.16038	0.34501
1643.23171	0.34593
1641.30303	0.34634
1639.37436	0.34605
1637.44568	0.34534
1635.51700	0.34511
1633.58833	0.34590
1631.65965	0.34675
1629.73098	0.34683
1627.80230	0.34653
1625.87363	0.34613
1623.94495	0.34558
1622.01627	0.34521
1620.08760	0.34519
1618.15892	0.34545
1616.23025	0.34637
1614.30157	0.34781
1612.37290	0.34887
1610.44422	0.34936
1608.51554	0.34975
1606.58687	0.35026
1604.65819	0.35068
1602.72952	0.35097
1600.80084	0.35129
1598.87217	0.35166
1596.94349	0.35198
1595.01481	0.35227
1593.08614	0.35259
1591.15746	0.35292
1589.22879	0.35323
1587.30011	0.35356
1585.37144	0.35389
1583.44276	0.35417
1581.51408	0.35436
1579.58541	0.35428
1577.65673	0.35394
1575.72806	0.35403
1573.79938	0.35470
1571.87071	0.35497
1569.94203	0.35488
1568.01335	0.35523
1566.08468	0.35580
1564.15600	0.35602
1562.22733	0.35544
1560.29865	0.35420
1558.36998	0.35383
1556.44130	0.35496
1554.51262	0.35632
1552.58395	0.35702
1550.65527	0.35730
1548.72660	0.35753
1546.79792	0.35755
1544.86925	0.35703
1542.94057	0.35627
1541.01189	0.35592
1539.08322	0.35658
1537.15454	0.35774
1535.22587	0.35822
1533.29719	0.35832
1531.36852	0.35878
1529.43984	0.35909
1527.51116	0.35895
1525.58249	0.35874
1523.65381	0.35826
1521.72514	0.35774
1519.79646	0.35794
1517.86779	0.35861
1515.93911	0.35924
1514.01043	0.35973
1512.08176	0.35982
1510.15308	0.35931
1508.22441	0.35866
1506.29573	0.35896
1504.36706	0.36037
1502.43838	0.36146
1500.50970	0.36148
1498.58103	0.36113
1496.65235	0.36124
1494.72368	0.36175
1492.79500	0.36186
1490.86633	0.36141
1488.93765	0.36124
1487.00897	0.36174
1485.08030	0.36237
1483.15162	0.36267
1481.22295	0.36270
1479.29427	0.36250
1477.36560	0.36195
1475.43692	0.36119
1473.50824	0.36063
1471.57957	0.36070
1469.65089	0.36119
1467.72222	0.36132
1465.79354	0.36107
1463.86487	0.36118
1461.93619	0.36133
1460.00751	0.36055
1458.07884	0.35935
1456.15016	0.35937
1454.22149	0.36067
1452.29281	0.36176
1450.36414	0.36209
1448.43546	0.36213
1446.50678	0.36239
1444.57811	0.36280
1442.64943	0.36309
1440.72076	0.36302
1438.79208	0.36236
1436.86341	0.36178
1434.93473	0.36212
1433.00605	0.36274
1431.07738	0.36290
1429.14870	0.36294
1427.22003	0.36300
1425.29135	0.36286
1423.36268	0.36254
1421.43400	0.36197
1419.50532	0.36136
1417.57665	0.36146
1415.64797	0.36213
1413.71930	0.36255
1411.79062	0.36259
1409.86195	0.36251
1407.93327	0.36241
1406.00459	0.36225
1404.07592	0.36219
1402.14724	0.36216
1400.21857	0.36185
1398.28989	0.36143
1396.36122	0.36114
1394.43254	0.36115
1392.50386	0.36149
1390.57519	0.36150
1388.64651	0.36085
1386.71784	0.36022
1384.78916	0.36010
1382.86049	0.36026
1380.93181	0.36044
1379.00313	0.36053
1377.07446	0.36041
1375.14578	0.36020
1373.21711	0.36021
1371.28843	0.36036
1369.35976	0.36041
1367.43108	0.36037
1365.50240	0.36013
1363.57373	0.35968
1361.64505	0.35950
1359.71638	0.35978
1357.78770	0.36009
1355.85903	0.36020
1353.93035	0.36026
1352.00167	0.36037
1350.07300	0.36046
1348.14432	0.36060
1346.21565	0.36078
1344.28697	0.36089
1342.35830	0.36077
1340.42962	0.36047
1338.50094	0.36031
1336.57227	0.36040
1334.64359	0.36057
1332.71492	0.36067
1330.78624	0.36066
1328.85757	0.36058
1326.92889	0.36044
1325.00021	0.36025
1323.07154	0.36004
1321.14286	0.35982
1319.21419	0.35964
1317.28551	0.35952
1315.35684	0.35938
1313.42816	0.35918
1311.49948	0.35901
1309.57081	0.35882
1307.64213	0.35853
1305.71346	0.35820
1303.78478	0.35784
1301.85611	0.35744
1299.92743	0.35707
1297.99875	0.35675
1296.07008	0.35646
1294.14140	0.35613
1292.21273	0.35569
1290.28405	0.35520
1288.35538	0.35475
1286.42670	0.35431
1284.49802	0.35382
1282.56935	0.35332
1280.64067	0.35284
1278.71200	0.35224
1276.78332	0.35144
1274.85465	0.35043
1272.92597	0.34929
1270.99729	0.34803
1269.06862	0.34653
1267.13994	0.34482
1265.21127	0.34324
1263.28259	0.34211
1261.35392	0.34155
1259.42524	0.34148
1257.49656	0.34169
1255.56789	0.34189
1253.63921	0.34186
1251.71054	0.34155
1249.78186	0.34108
1247.85319	0.34053
1245.92451	0.33988
1243.99583	0.33908
1242.06716	0.33819
1240.13848	0.33723
1238.20981	0.33626
1236.28113	0.33531
1234.35246	0.33432
1232.42378	0.33333
1230.49510	0.33236
1228.56643	0.33141
1226.63775	0.33052
1224.70908	0.32966
1222.78040	0.32879
1220.85173	0.32793
1218.92305	0.32712
1216.99437	0.32625
1215.06570	0.32529
1213.13702	0.32429
1211.20835	0.32336
1209.27967	0.32250
1207.35100	0.32166
1205.42232	0.32079
1203.49364	0.31990
1201.56497	0.31908
1199.63629	0.31831
1197.70762	0.31752
1195.77894	0.31664
1193.85027	0.31571
1191.92159	0.31473
1189.99291	0.31373
1188.06424	0.31271
1186.13556	0.31158
1184.20689	0.31033
1182.27821	0.30907
1180.34954	0.30780
1178.42086	0.30651
1176.49218	0.30525
1174.56351	0.30402
1172.63483	0.30277
1170.70616	0.30145
1168.77748	0.30007
1166.84881	0.29867
1164.92013	0.29728
1162.99145	0.29590
1161.06278	0.29458
1159.13410	0.29334
1157.20543	0.29217
1155.27675	0.29100
1153.34808	0.28984
1151.41940	0.28875
1149.49072	0.28770
1147.56205	0.28665
1145.63337	0.28558
1143.70470	0.28454
1141.77602	0.28350
1139.84735	0.28240
1137.91867	0.28127
1135.98999	0.28011
1134.06132	0.27893
1132.13264	0.27774
1130.20397	0.27647
1128.27529	0.27511
1126.34662	0.27375
1124.41794	0.27242
1122.48926	0.27102
1120.56059	0.26956
1118.63191	0.26810
1116.70324	0.26663
1114.77456	0.26511
1112.84589	0.26358
1110.91721	0.26210
1108.98853	0.26069
1107.05986	0.25935
1105.13118	0.25807
1103.20251	0.25682
1101.27383	0.25555
1099.34516	0.25428
1097.41648	0.25299
1095.48780	0.25170
1093.55913	0.25049
1091.63045	0.24939
1089.70178	0.24836
1087.77310	0.24732
1085.84443	0.24627
1083.91575	0.24528
1081.98707	0.24434
1080.05840	0.24339
1078.12972	0.24248
1076.20105	0.24167
1074.27237	0.24097
1072.34370	0.24036
1070.41502	0.23990
1068.48634	0.23963
1066.55767	0.23945
1064.62899	0.23936
1062.70032	0.23944
1060.77164	0.23963
1058.84297	0.23986
1056.91429	0.24013
1054.98561	0.24045
1053.05694	0.24080
1051.12826	0.24117
1049.19959	0.24159
1047.27091	0.24209
1045.34224	0.24269
1043.41356	0.24339
1041.48488	0.24416
1039.55621	0.24490
1037.62753	0.24562
1035.69886	0.24635
1033.77018	0.24706
1031.84151	0.24774
1029.91283	0.24845
1027.98415	0.24922
1026.05548	0.24999
1024.12680	0.25070
1022.19813	0.25143
1020.26945	0.25229
1018.34078	0.25331
1016.41210	0.25442
1014.48342	0.25557
1012.55475	0.25675
1010.62607	0.25804
1008.69740	0.25943
1006.76872	0.26080
1004.84005	0.26202
1002.91137	0.26308
1000.98269	0.26403
999.05402	0.26490
997.12534	0.26570
995.19667	0.26642
993.26799	0.26708
991.33932	0.26769
989.41064	0.26825
987.48196	0.26880
985.55329	0.26935
983.62461	0.26982
981.69594	0.27018
979.76726	0.27049
977.83859	0.27073
975.90991	0.27083
973.98123	0.27086
972.05256	0.27092
970.12388	0.27097
968.19521	0.27095
966.26653	0.27081
964.33786	0.27054
962.40918	0.27021
960.48050	0.26998
958.55183	0.26981
956.62315	0.26957
954.69448	0.26921
952.76580	0.26880
950.83713	0.26839
948.90845	0.26797
946.97977	0.26749
945.05110	0.26696
943.12242	0.26642
941.19375	0.26590
939.26507	0.26533
937.33640	0.26468
935.40772	0.26397
933.47904	0.26327
931.55037	0.26262
929.62169	0.26203
927.69302	0.26150
925.76434	0.26097
923.83567	0.26035
921.90699	0.25968
919.97831	0.25904
918.04964	0.25843
916.12096	0.25779
914.19229	0.25705
912.26361	0.25629
910.33494	0.25554
908.40626	0.25478
906.47758	0.25395
904.54891	0.25312
902.62023	0.25234
900.69156	0.25155
898.76288	0.25072
896.83421	0.24985
894.90553	0.24897
892.97685	0.24812
891.04818	0.24732
889.11950	0.24656
887.19083	0.24579
885.26215	0.24499
883.33348	0.24418
881.40480	0.24337
879.47612	0.24260
877.54745	0.24191
875.61877	0.24130
873.69010	0.24068
871.76142	0.23995
869.83275	0.23921
867.90407	0.23851
865.97539	0.23773
864.04672	0.23688
862.11804	0.23606
860.18937	0.23526
858.26069	0.23441
856.33202	0.23351
854.40334	0.23262
852.47466	0.23174
850.54599	0.23081
848.61731	0.22989
846.68864	0.22910
844.75996	0.22834
842.83129	0.22744
840.90261	0.22645
838.97394	0.22548
837.04526	0.22460
835.11658	0.22374
833.18791	0.22281
831.25923	0.22183
829.33056	0.22077
827.40188	0.21967
825.47321	0.21859
823.54453	0.21756
821.61585	0.21654
819.68718	0.21556
817.75850	0.21456
815.82983	0.21354
813.90115	0.21256
811.97248	0.21159
810.04380	0.21062
808.11512	0.20971
806.18645	0.20888
804.25777	0.20811
802.32910	0.20738
800.40042	0.20670
798.47175	0.20610
796.54307	0.20564
794.61439	0.20529
792.68572	0.20498
790.75704	0.20469
788.82837	0.20441
786.89969	0.20411
784.97102	0.20375
783.04234	0.20329
781.11366	0.20283
779.18499	0.20242
777.25631	0.20198
775.32764	0.20153
773.39896	0.20109
771.47029	0.20061
769.54161	0.20010
767.61293	0.19954
765.68426	0.19887
763.75558	0.19821
761.82691	0.19756
759.89823	0.19683
757.96956	0.19601
756.04088	0.19518
754.11220	0.19435
752.18353	0.19346
750.25485	0.19247
748.32618	0.19152
746.39750	0.19069
744.46883	0.18988
742.54015	0.18899
740.61147	0.18818
738.68280	0.18756
736.75412	0.18698
734.82545	0.18625
732.89677	0.18544
730.96810	0.18473
729.03942	0.18412
727.11074	0.18353
725.18207	0.18287
723.25339	0.18214
721.32472	0.18139
719.39604	0.18067
717.46737	0.17997
715.53869	0.17927
713.61001	0.17857
711.68134	0.17790
709.75266	0.17722
707.82399	0.17649
705.89531	0.17574
703.96664	0.17503
702.03796	0.17436
700.10928	0.17355
698.18061	0.17265
696.25193	0.17182
694.32326	0.17109
692.39458	0.17035
690.46591	0.16954
688.53723	0.16868
686.60855	0.16781
684.67988	0.16693
682.75120	0.16595
680.82253	0.16490
678.89385	0.16386
676.96518	0.16277
675.03650	0.16156
673.10782	0.16027
671.17915	0.15890
669.25047	0.15739
667.32180	0.15597
665.39312	0.15474
663.46445	0.15345
661.53577	0.15196
659.60709	0.15040
657.67842	0.14896
655.74974	0.14764
653.82107	0.14627
651.89239	0.14486
649.96372	0.14352
648.03504	0.14219
646.10636	0.14074
644.17769	0.13920
642.24901	0.13764
640.32034	0.13602
638.39166	0.13432
636.46299	0.13255
634.53431	0.13080
632.60563	0.12917
630.67696	0.12758
628.74828	0.12598
626.81961	0.12439
624.89093	0.12279
622.96226	0.12119
621.03358	0.11960
619.10490	0.11802
617.17623	0.11643
615.24755	0.11480
613.31888	0.11312
611.39020	0.11149
609.46153	0.10998
607.53285	0.10847
605.60417	0.10694
603.67550	0.10539
601.74682	0.10383
599.81815	0.10235
597.88947	0.10105
595.96080	0.09995
594.03212	0.09893
592.10344	0.09791
590.17477	0.09689
588.24609	0.09588
586.31742	0.09485
584.38874	0.09377
582.46007	0.09264
580.53139	0.09152
578.60271	0.09050
576.67404	0.08958
574.74536	0.08867
572.81669	0.08768
570.88801	0.08664
568.95934	0.08573
567.03066	0.08495
565.10198	0.08418
563.17331	0.08339
561.24463	0.08273
559.31596	0.08223
557.38728	0.08174
555.45861	0.08105
553.52993	0.08023
551.60125	0.07948
549.67258	0.07890
547.74390	0.07850
545.81523	0.07819
543.88655	0.07784
541.95788	0.07734
540.02920	0.07680
538.10052	0.07631
536.17185	0.07583
534.24317	0.07537
532.31450	0.07490
530.38582	0.07431
528.45715	0.07364
526.52847	0.07305
524.59979	0.07251
522.67112	0.07182
520.74244	0.07096
518.81377	0.07010
516.88509	0.06932
514.95642	0.06856
513.02774	0.06778
511.09906	0.06700
509.17039	0.06617
507.24171	0.06531
505.31304	0.06449
503.38436	0.06365
501.45569	0.06263
499.52701	0.06154
497.59833	0.06046
495.66966	0.05929
493.74098	0.05805
491.81231	0.05687
489.88363	0.05583
487.95496	0.05484
486.02628	0.05379
484.09760	0.05265
482.16893	0.05148
480.24025	0.05027
478.31158	0.04901
476.38290	0.04774
474.45423	0.04655
472.52555	0.04551
470.59687	0.04462
468.66820	0.04387
466.73952	0.04325
464.81085	0.04267
462.88217	0.04214
460.95350	0.04174
459.02482	0.04149
457.09614	0.04130
455.16747	0.04121
453.23879	0.04120
451.31012	0.04116
449.38144	0.04107
447.45277	0.04090
445.52409	0.04057
443.59541	0.04014
441.66674	0.03962
439.73806	0.03889
437.80939	0.03801
435.88071	0.03713
433.95204	0.03626
432.02336	0.03529
430.09468	0.03420
428.16601	0.03303
426.23733	0.03177
424.30866	0.03044
422.37998	0.02910
420.45131	0.02783
418.52263	0.02666
416.59395	0.02554
414.66528	0.02444
412.73660	0.02345
410.80793	0.02252
408.87925	0.02142
406.95058	0.02017
405.02190	0.01900
403.09322	0.01796
401.16455	0.01698
399.23587	0.01600
397.30720	0.01499
395.37852	0.01404
393.44985	0.01323
391.52117	0.01243
389.59249	0.01152
387.66382	0.01064
385.73514	0.00989
383.80647	0.00917
381.87779	0.00843
379.94912	0.00775
378.02044	0.00714
376.09176	0.00658
374.16309	0.00606
372.23441	0.00549
370.30574	0.00485
368.37706	0.00424
