7496.76250	0.00205
7494.83382	0.00205
7492.90514	0.00205
7490.97647	0.00205
7489.04779	0.00207
7487.11912	0.00208
7485.19044	0.00209
7483.26177	0.00209
7481.33309	0.00209
7479.40441	0.00209
7477.47574	0.00211
7475.54706	0.00211
7473.61839	0.00211
7471.68971	0.00211
7469.76104	0.00211
7467.83236	0.00212
7465.90368	0.00213
7463.97501	0.00215
7462.04633	0.00215
7460.11766	0.00216
7458.18898	0.00216
7456.26031	0.00217
7454.33163	0.00218
7452.40295	0.00218
7450.47428	0.00218
7448.54560	0.00219
7446.61693	0.00219
7444.68825	0.00221
7442.75958	0.00222
7440.83090	0.00222
7438.90222	0.00222
7436.97355	0.00221
7435.04487	0.00222
7433.11620	0.00224
7431.18752	0.00225
7429.25885	0.00225
7427.33017	0.00224
7425.40149	0.00225
7423.47282	0.00227
7421.54414	0.00228
7419.61547	0.00228
7417.68679	0.00226
7415.75812	0.00226
7413.82944	0.00228
7411.90076	0.00230
7409.97209	0.00231
7408.04341	0.00231
7406.11474	0.00231
7404.18606	0.00231
7402.25739	0.00232
7400.32871	0.00233
7398.40003	0.00233
7396.47136	0.00233
7394.54268	0.00234
7392.61401	0.00235
7390.68533	0.00236
7388.75666	0.00237
7386.82798	0.00238
7384.89930	0.00238
7382.97063	0.00238
7381.04195	0.00239
7379.11328	0.00240
7377.18460	0.00241
7375.25593	0.00243
7373.32725	0.00244
7371.39857	0.00245
7369.46990	0.00244
7367.54122	0.00242
7365.61255	0.00242
7363.68387	0.00244
7361.75520	0.00245
7359.82652	0.00246
7357.89784	0.00246
7355.96917	0.00247
7354.04049	0.00248
7352.11182	0.00248
7350.18314	0.00247
7348.25447	0.00248
7346.32579	0.00249
7344.39711	0.00252
7342.46844	0.00254
7340.53976	0.00254
7338.61109	0.00254
7336.68241	0.00255
7334.75374	0.00255
7332.82506	0.00254
7330.89638	0.00255
7328.96771	0.00256
7327.03903	0.00257
7325.11036	0.00258
7323.18168	0.00258
7321.25301	0.00258
7319.32433	0.00257
7317.39565	0.00258
7315.46698	0.00258
7313.53830	0.00258
7311.60963	0.00259
7309.68095	0.00260
7307.75228	0.00261
7305.82360	0.00262
7303.89492	0.00265
7301.96625	0.00265
7300.03757	0.00264
7298.10890	0.00263
7296.18022	0.00264
7294.25155	0.00266
7292.32287	0.00267
7290.39419	0.00267
7288.46552	0.00269
7286.53684	0.00271
7284.60817	0.00272
7282.67949	0.00272
7280.75082	0.00271
7278.82214	0.00271
7276.89346	0.00271
7274.96479	0.00271
7273.03611	0.00271
7271.10744	0.00272
7269.17876	0.00274
7267.25009	0.00275
7265.32141	0.00277
7263.39273	0.00278
7261.46406	0.00280
7259.53538	0.00281
7257.60671	0.00282
7255.67803	0.00283
7253.74936	0.00284
7251.82068	0.00284
7249.89200	0.00283
7247.96333	0.00282
7246.03465	0.00283
7244.10598	0.00283
7242.17730	0.00284
7240.24863	0.00284
7238.31995	0.00285
7236.39127	0.00286
7234.46260	0.00287
7232.53392	0.00288
7230.60525	0.00288
7228.67657	0.00289
7226.74790	0.00289
7224.81922	0.00291
7222.89054	0.00292
7220.96187	0.00293
7219.03319	0.00294
7217.10452	0.00294
7215.17584	0.00295
7213.24717	0.00296
7211.31849	0.00296
7209.38981	0.00296
7207.46114	0.00296
7205.53246	0.00297
7203.60379	0.00297
7201.67511	0.00297
7199.74644	0.00299
7197.81776	0.00301
7195.88908	0.00302
7193.96041	0.00304
7192.03173	0.00304
7190.10306	0.00304
7188.17438	0.00304
7186.24571	0.00303
7184.31703	0.00303
7182.38835	0.00304
7180.45968	0.00305
7178.53100	0.00306
7176.60233	0.00308
7174.67365	0.00309
7172.74498	0.00310
7170.81630	0.00311
7168.88762	0.00311
7166.95895	0.00312
7165.03027	0.00312
7163.10160	0.00311
7161.17292	0.00310
7159.24425	0.00313
7157.31557	0.00316
7155.38689	0.00316
7153.45822	0.00316
7151.52954	0.00315
7149.60087	0.00314
7147.67219	0.00315
7145.74352	0.00317
7143.81484	0.00317
7141.88616	0.00318
7139.95749	0.00318
7138.02881	0.00319
7136.10014	0.00320
7134.17146	0.00321
7132.24279	0.00322
7130.31411	0.00324
7128.38543	0.00326
7126.45676	0.00328
7124.52808	0.00328
7122.59941	0.00327
7120.67073	0.00327
7118.74206	0.00327
7116.81338	0.00328
7114.88470	0.00329
7112.95603	0.00330
7111.02735	0.00331
7109.09868	0.00332
7107.17000	0.00334
7105.24133	0.00335
7103.31265	0.00335
7101.38397	0.00336
7099.45530	0.00336
7097.52662	0.00337
7095.59795	0.00337
7093.66927	0.00338
7091.74060	0.00340
7089.81192	0.00341
7087.88324	0.00342
7085.95457	0.00342
7084.02589	0.00342
7082.09722	0.00342
7080.16854	0.00342
7078.23987	0.00342
7076.31119	0.00343
7074.38251	0.00344
7072.45384	0.00345
7070.52516	0.00347
7068.59649	0.00348
7066.66781	0.00348
7064.73914	0.00348
7062.81046	0.00350
7060.88178	0.00350
7058.95311	0.00350
7057.02443	0.00351
7055.09576	0.00352
7053.16708	0.00352
7051.23841	0.00351
7049.30973	0.00352
7047.38105	0.00354
7045.45238	0.00355
7043.52370	0.00356
7041.59503	0.00358
7039.66635	0.00359
7037.73768	0.00360
7035.80900	0.00361
7033.88032	0.00363
7031.95165	0.00363
7030.02297	0.00362
7028.09430	0.00361
7026.16562	0.00363
7024.23695	0.00365
7022.30827	0.00367
7020.37959	0.00367
7018.45092	0.00366
7016.52224	0.00366
7014.59357	0.00368
7012.66489	0.00369
7010.73622	0.00369
7008.80754	0.00370
7006.87886	0.00370
7004.95019	0.00372
7003.02151	0.00373
7001.09284	0.00375
6999.16416	0.00376
6997.23549	0.00377
6995.30681	0.00377
6993.37813	0.00378
6991.44946	0.00379
6989.52078	0.00380
6987.59211	0.00380
6985.66343	0.00380
6983.73476	0.00381
6981.80608	0.00383
6979.87740	0.00384
6977.94873	0.00384
6976.02005	0.00384
6974.09138	0.00386
6972.16270	0.00387
6970.23403	0.00387
6968.30535	0.00388
6966.37667	0.00390
6964.44800	0.00390
6962.51932	0.00389
6960.59065	0.00389
6958.66197	0.00391
6956.73330	0.00393
6954.80462	0.00396
6952.87594	0.00397
6950.94727	0.00397
6949.01859	0.00397
6947.08992	0.00397
6945.16124	0.00397
6943.23257	0.00397
6941.30389	0.00398
6939.37521	0.00400
6937.44654	0.00401
6935.51786	0.00401
6933.58919	0.00401
6931.66051	0.00402
6929.73184	0.00403
6927.80316	0.00404
6925.87448	0.00405
6923.94581	0.00407
6922.01713	0.00409
6920.08846	0.00409
6918.15978	0.00410
6916.23111	0.00410
6914.30243	0.00412
6912.37375	0.00414
6910.44508	0.00415
6908.51640	0.00416
6906.58773	0.00416
6904.65905	0.00416
6902.73038	0.00416
6900.80170	0.00417
6898.87302	0.00418
6896.94435	0.00419
6895.01567	0.00421
6893.08700	0.00423
6891.15832	0.00425
6889.22965	0.00426
6887.30097	0.00426
6885.37229	0.00426
6883.44362	0.00426
6881.51494	0.00426
6879.58627	0.00427
6877.65759	0.00429
6875.72892	0.00429
6873.80024	0.00430
6871.87156	0.00431
6869.94289	0.00433
6868.01421	0.00434
6866.08554	0.00435
6864.15686	0.00437
6862.22819	0.00439
6860.29951	0.00438
6858.37083	0.00436
6856.44216	0.00436
6854.51348	0.00439
6852.58481	0.00441
6850.65613	0.00442
6848.72746	0.00443
6846.79878	0.00444
6844.87010	0.00445
6842.94143	0.00446
6841.01275	0.00445
6839.08408	0.00446
6837.15540	0.00448
6835.22673	0.00449
6833.29805	0.00448
6831.36937	0.00448
6829.44070	0.00450
6827.51202	0.00453
6825.58335	0.00455
6823.65467	0.00455
6821.72600	0.00455
6819.79732	0.00455
6817.86864	0.00455
6815.93997	0.00456
6814.01129	0.00457
6812.08262	0.00458
6810.15394	0.00458
6808.22527	0.00460
6806.29659	0.00463
6804.36791	0.00465
6802.43924	0.00465
6800.51056	0.00466
6798.58189	0.00466
6796.65321	0.00467
6794.72454	0.00468
6792.79586	0.00470
6790.86718	0.00471
6788.93851	0.00472
6787.00983	0.00472
6785.08116	0.00473
6783.15248	0.00475
6781.22381	0.00477
6779.29513	0.00478
6777.36645	0.00480
6775.43778	0.00480
6773.50910	0.00481
6771.58043	0.00482
6769.65175	0.00482
6767.72308	0.00481
6765.79440	0.00481
6763.86572	0.00482
6761.93705	0.00484
6760.00837	0.00486
6758.07970	0.00488
6756.15102	0.00490
6754.22235	0.00492
6752.29367	0.00494
6750.36499	0.00494
6748.43632	0.00493
6746.50764	0.00494
6744.57897	0.00496
6742.65029	0.00498
6740.72162	0.00500
6738.79294	0.00501
6736.86426	0.00501
6734.93559	0.00502
6733.00691	0.00503
6731.07824	0.00503
6729.14956	0.00502
6727.22089	0.00503
6725.29221	0.00504
6723.36353	0.00505
6721.43486	0.00507
6719.50618	0.00508
6717.57751	0.00509
6715.64883	0.00510
6713.72016	0.00510
6711.79148	0.00511
6709.86280	0.00512
6707.93413	0.00514
6706.00545	0.00517
6704.07678	0.00519
6702.14810	0.00520
6700.21943	0.00522
6698.29075	0.00523
6696.36207	0.00522
6694.43340	0.00522
6692.50472	0.00522
6690.57605	0.00524
6688.64737	0.00526
6686.71870	0.00526
6684.79002	0.00526
6682.86134	0.00526
6680.93267	0.00527
6679.00399	0.00529
6677.07532	0.00532
6675.14664	0.00533
6673.21797	0.00533
6671.28929	0.00534
6669.36061	0.00536
6667.43194	0.00539
6665.50326	0.00540
6663.57459	0.00541
6661.64591	0.00541
6659.71724	0.00542
6657.78856	0.00544
6655.85988	0.00545
6653.93121	0.00544
6652.00253	0.00544
6650.07386	0.00546
6648.14518	0.00548
6646.21651	0.00549
6644.28783	0.00550
6642.35915	0.00552
6640.43048	0.00553
6638.50180	0.00556
6636.57313	0.00559
6634.64445	0.00561
6632.71578	0.00560
6630.78710	0.00560
6628.85842	0.00559
6626.92975	0.00560
6625.00107	0.00562
6623.07240	0.00565
6621.14372	0.00566
6619.21505	0.00565
6617.28637	0.00564
6615.35769	0.00565
6613.42902	0.00567
6611.50034	0.00568
6609.57167	0.00569
6607.64299	0.00571
6605.71432	0.00572
6603.78564	0.00574
6601.85696	0.00575
6599.92829	0.00575
6597.99961	0.00575
6596.07094	0.00577
6594.14226	0.00580
6592.21359	0.00583
6590.28491	0.00585
6588.35623	0.00585
6586.42756	0.00585
6584.49888	0.00586
6582.57021	0.00587
6580.64153	0.00589
6578.71286	0.00591
6576.78418	0.00593
6574.85550	0.00594
6572.92683	0.00595
6570.99815	0.00596
6569.06948	0.00599
6567.14080	0.00602
6565.21213	0.00603
6563.28345	0.00603
6561.35477	0.00604
6559.42610	0.00603
6557.49742	0.00603
6555.56875	0.00603
6553.64007	0.00605
6551.71140	0.00608
6549.78272	0.00611
6547.85404	0.00613
6545.92537	0.00615
6543.99669	0.00616
6542.06802	0.00616
6540.13934	0.00618
6538.21067	0.00619
6536.28199	0.00619
6534.35331	0.00619
6532.42464	0.00620
6530.49596	0.00622
6528.56729	0.00624
6526.63861	0.00626
6524.70994	0.00627
6522.78126	0.00630
6520.85258	0.00631
6518.92391	0.00632
6516.99523	0.00632
6515.06656	0.00631
6513.13788	0.00631
6511.20921	0.00632
6509.28053	0.00635
6507.35185	0.00637
6505.42318	0.00640
6503.49450	0.00642
6501.56583	0.00644
6499.63715	0.00645
6497.70848	0.00645
6495.77980	0.00646
6493.85112	0.00647
6491.92245	0.00650
6489.99377	0.00652
6488.06510	0.00652
6486.13642	0.00654
6484.20775	0.00655
6482.27907	0.00656
6480.35039	0.00657
6478.42172	0.00658
6476.49304	0.00660
6474.56437	0.00662
6472.63569	0.00664
6470.70702	0.00665
6468.77834	0.00664
6466.84966	0.00664
6464.92099	0.00667
6462.99231	0.00670
6461.06364	0.00671
6459.13496	0.00671
6457.20629	0.00671
6455.27761	0.00673
6453.34893	0.00677
6451.42026	0.00680
6449.49158	0.00680
6447.56291	0.00680
6445.63423	0.00681
6443.70556	0.00682
6441.77688	0.00682
6439.84820	0.00682
6437.91953	0.00684
6435.99085	0.00687
6434.06218	0.00691
6432.13350	0.00694
6430.20483	0.00695
6428.27615	0.00696
6426.34747	0.00697
6424.41880	0.00699
6422.49012	0.00701
6420.56145	0.00701
6418.63277	0.00701
6416.70410	0.00702
6414.77542	0.00704
6412.84674	0.00706
6410.91807	0.00707
6408.98939	0.00708
6407.06072	0.00708
6405.13204	0.00711
6403.20337	0.00713
6401.27469	0.00715
6399.34601	0.00717
6397.41734	0.00719
6395.48866	0.00720
6393.55999	0.00720
6391.63131	0.00721
6389.70264	0.00724
6387.77396	0.00727
6385.84528	0.00728
6383.91661	0.00729
6381.98793	0.00731
6380.05926	0.00733
6378.13058	0.00734
6376.20191	0.00735
6374.27323	0.00736
6372.34455	0.00738
6370.41588	0.00740
6368.48720	0.00741
6366.55853	0.00742
6364.62985	0.00744
6362.70118	0.00745
6360.77250	0.00746
6358.84382	0.00747
6356.91515	0.00749
6354.98647	0.00752
6353.05780	0.00754
6351.12912	0.00756
6349.20045	0.00757
6347.27177	0.00758
6345.34309	0.00760
6343.41442	0.00761
6341.48574	0.00762
6339.55707	0.00764
6337.62839	0.00766
6335.69972	0.00768
6333.77104	0.00771
6331.84236	0.00772
6329.91369	0.00773
6327.98501	0.00774
6326.05634	0.00775
6324.12766	0.00776
6322.19899	0.00778
6320.27031	0.00779
6318.34163	0.00781
6316.41296	0.00782
6314.48428	0.00784
6312.55561	0.00786
6310.62693	0.00788
6308.69826	0.00790
6306.76958	0.00792
6304.84090	0.00793
6302.91223	0.00794
6300.98355	0.00796
6299.05488	0.00798
6297.12620	0.00799
6295.19753	0.00800
6293.26885	0.00801
6291.34017	0.00802
6289.41150	0.00803
6287.48282	0.00806
6285.55415	0.00810
6283.62547	0.00812
6281.69680	0.00813
6279.76812	0.00815
6277.83944	0.00816
6275.91077	0.00817
6273.98209	0.00819
6272.05342	0.00820
6270.12474	0.00821
6268.19607	0.00822
6266.26739	0.00826
6264.33871	0.00830
6262.41004	0.00831
6260.48136	0.00832
6258.55269	0.00834
6256.62401	0.00835
6254.69534	0.00836
6252.76666	0.00838
6250.83798	0.00839
6248.90931	0.00838
6246.98063	0.00839
6245.05196	0.00843
6243.12328	0.00846
6241.19461	0.00850
6239.26593	0.00853
6237.33725	0.00856
6235.40858	0.00856
6233.47990	0.00857
6231.55123	0.00857
6229.62255	0.00859
6227.69388	0.00860
6225.76520	0.00861
6223.83652	0.00863
6221.90785	0.00867
6219.97917	0.00871
6218.05050	0.00873
6216.12182	0.00875
6214.19315	0.00876
6212.26447	0.00877
6210.33579	0.00876
6208.40712	0.00878
6206.47844	0.00880
6204.54977	0.00883
6202.62109	0.00885
6200.69242	0.00888
6198.76374	0.00890
6196.83506	0.00891
6194.90639	0.00892
6192.97771	0.00893
6191.04904	0.00895
6189.12036	0.00897
6187.19169	0.00899
6185.26301	0.00901
6183.33433	0.00902
6181.40566	0.00903
6179.47698	0.00904
6177.54831	0.00906
6175.61963	0.00908
6173.69096	0.00910
6171.76228	0.00912
6169.83360	0.00916
6167.90493	0.00919
6165.97625	0.00920
6164.04758	0.00920
6162.11890	0.00921
6160.19023	0.00923
6158.26155	0.00925
6156.33287	0.00927
6154.40420	0.00930
6152.47552	0.00932
6150.54685	0.00935
6148.61817	0.00937
6146.68950	0.00941
6144.76082	0.00945
6142.83214	0.00947
6140.90347	0.00947
6138.97479	0.00948
6137.04612	0.00949
6135.11744	0.00951
6133.18877	0.00953
6131.26009	0.00956
6129.33141	0.00958
6127.40274	0.00959
6125.47406	0.00958
6123.54539	0.00959
6121.61671	0.00961
6119.68804	0.00963
6117.75936	0.00965
6115.83068	0.00968
6113.90201	0.00972
6111.97333	0.00975
6110.04466	0.00977
6108.11598	0.00978
6106.18731	0.00980
6104.25863	0.00981
6102.32995	0.00983
6100.40128	0.00987
6098.47260	0.00991
6096.54393	0.00993
6094.61525	0.00993
6092.68658	0.00995
6090.75790	0.00998
6088.82922	0.01001
6086.90055	0.01002
6084.97187	0.01003
6083.04320	0.01004
6081.11452	0.01005
6079.18585	0.01007
6077.25717	0.01009
6075.32849	0.01013
6073.39982	0.01016
6071.47114	0.01018
6069.54247	0.01019
6067.61379	0.01024
6065.68512	0.01028
6063.75644	0.01030
6061.82776	0.01029
6059.89909	0.01030
6057.97041	0.01032
6056.04174	0.01034
6054.11306	0.01035
6052.18439	0.01037
6050.25571	0.01041
6048.32703	0.01045
6046.39836	0.01049
6044.46968	0.01050
6042.54101	0.01050
6040.61233	0.01052
6038.68366	0.01057
6036.75498	0.01059
6034.82630	0.01060
6032.89763	0.01061
6030.96895	0.01064
6029.04028	0.01066
6027.11160	0.01068
6025.18293	0.01071
6023.25425	0.01074
6021.32557	0.01076
6019.39690	0.01078
6017.46822	0.01080
6015.53955	0.01083
6013.61087	0.01086
6011.68220	0.01088
6009.75352	0.01089
6007.82484	0.01090
6005.89617	0.01092
6003.96749	0.01093
6002.03882	0.01095
6000.11014	0.01098
5998.18147	0.01102
5996.25279	0.01105
5994.32411	0.01106
5992.39544	0.01107
5990.46676	0.01108
5988.53809	0.01111
5986.60941	0.01115
5984.68074	0.01118
5982.75206	0.01120
5980.82338	0.01123
5978.89471	0.01125
5976.96603	0.01126
5975.03736	0.01128
5973.10868	0.01130
5971.18001	0.01132
5969.25133	0.01135
5967.32265	0.01136
5965.39398	0.01139
5963.46530	0.01142
5961.53663	0.01145
5959.60795	0.01147
5957.67928	0.01148
5955.75060	0.01150
5953.82192	0.01154
5951.89325	0.01158
5949.96457	0.01161
5948.03590	0.01162
5946.10722	0.01164
5944.17855	0.01167
5942.24987	0.01170
5940.32119	0.01173
5938.39252	0.01176
5936.46384	0.01177
5934.53517	0.01179
5932.60649	0.01182
5930.67782	0.01185
5928.74914	0.01187
5926.82046	0.01187
5924.89179	0.01188
5922.96311	0.01193
5921.03444	0.01198
5919.10576	0.01200
5917.17709	0.01201
5915.24841	0.01203
5913.31973	0.01204
5911.39106	0.01206
5909.46238	0.01209
5907.53371	0.01213
5905.60503	0.01216
5903.67636	0.01218
5901.74768	0.01220
5899.81900	0.01224
5897.89033	0.01229
5895.96165	0.01233
5894.03298	0.01234
5892.10430	0.01236
5890.17563	0.01238
5888.24695	0.01240
5886.31827	0.01240
5884.38960	0.01241
5882.46092	0.01243
5880.53225	0.01244
5878.60357	0.01248
5876.67490	0.01253
5874.74622	0.01256
5872.81755	0.01259
5870.88887	0.01262
5868.96019	0.01265
5867.03152	0.01267
5865.10284	0.01270
5863.17417	0.01272
5861.24549	0.01274
5859.31682	0.01277
5857.38814	0.01279
5855.45946	0.01281
5853.53079	0.01281
5851.60211	0.01283
5849.67344	0.01288
5847.74476	0.01292
5845.81609	0.01294
5843.88741	0.01296
5841.95873	0.01300
5840.03006	0.01304
5838.10138	0.01305
5836.17271	0.01306
5834.24403	0.01309
5832.31536	0.01313
5830.38668	0.01315
5828.45800	0.01319
5826.52933	0.01321
5824.60065	0.01322
5822.67198	0.01325
5820.74330	0.01329
5818.81463	0.01333
5816.88595	0.01336
5814.95727	0.01338
5813.02860	0.01340
5811.09992	0.01341
5809.17125	0.01343
5807.24257	0.01345
5805.31390	0.01349
5803.38522	0.01353
5801.45654	0.01357
5799.52787	0.01362
5797.59919	0.01366
5795.67052	0.01367
5793.74184	0.01367
5791.81317	0.01370
5789.88449	0.01374
5787.95581	0.01376
5786.02714	0.01378
5784.09846	0.01379
5782.16979	0.01383
5780.24111	0.01387
5778.31244	0.01391
5776.38376	0.01394
5774.45508	0.01396
5772.52641	0.01397
5770.59773	0.01399
5768.66906	0.01403
5766.74038	0.01407
5764.81171	0.01408
5762.88303	0.01409
5760.95435	0.01411
5759.02568	0.01415
5757.09700	0.01418
5755.16833	0.01420
5753.23965	0.01424
5751.31098	0.01429
5749.38230	0.01433
5747.45362	0.01436
5745.52495	0.01439
5743.59627	0.01442
5741.66760	0.01445
5739.73892	0.01447
5737.81025	0.01449
5735.88157	0.01451
5733.95289	0.01453
5732.02422	0.01456
5730.09554	0.01459
5728.16687	0.01461
5726.23819	0.01463
5724.30952	0.01466
5722.38084	0.01470
5720.45216	0.01474
5718.52349	0.01477
5716.59481	0.01478
5714.66614	0.01479
5712.73746	0.01482
5710.80879	0.01486
5708.88011	0.01489
5706.95143	0.01493
5705.02276	0.01496
5703.09408	0.01499
5701.16541	0.01503
5699.23673	0.01507
5697.30806	0.01510
5695.37938	0.01515
5693.45070	0.01520
5691.52203	0.01523
5689.59335	0.01524
5687.66468	0.01526
5685.73600	0.01528
5683.80733	0.01530
5681.87865	0.01532
5679.94997	0.01534
5678.02130	0.01539
5676.09262	0.01544
5674.16395	0.01550
5672.23527	0.01552
5670.30660	0.01553
5668.37792	0.01555
5666.44924	0.01557
5664.52057	0.01559
5662.59189	0.01561
5660.66322	0.01566
5658.73454	0.01571
5656.80587	0.01573
5654.87719	0.01573
5652.94851	0.01575
5651.01984	0.01580
5649.09116	0.01585
5647.16249	0.01588
5645.23381	0.01591
5643.30514	0.01594
5641.37646	0.01596
5639.44778	0.01598
5637.51911	0.01601
5635.59043	0.01604
5633.66176	0.01609
5631.73308	0.01615
5629.80441	0.01619
5627.87573	0.01621
5625.94705	0.01624
5624.01838	0.01626
5622.08970	0.01630
5620.16103	0.01634
5618.23235	0.01638
5616.30368	0.01640
5614.37500	0.01642
5612.44632	0.01644
5610.51765	0.01648
5608.58897	0.01652
5606.66030	0.01654
5604.73162	0.01656
5602.80295	0.01660
5600.87427	0.01664
5598.94559	0.01668
5597.01692	0.01672
5595.08824	0.01675
5593.15957	0.01678
5591.23089	0.01681
5589.30222	0.01685
5587.37354	0.01689
5585.44486	0.01693
5583.51619	0.01696
5581.58751	0.01697
5579.65884	0.01699
5577.73016	0.01702
5575.80149	0.01705
5573.87281	0.01708
5571.94413	0.01713
5570.01546	0.01717
5568.08678	0.01720
5566.15811	0.01722
5564.22943	0.01727
5562.30076	0.01731
5560.37208	0.01735
5558.44340	0.01738
5556.51473	0.01741
5554.58605	0.01744
5552.65738	0.01746
5550.72870	0.01749
5548.80003	0.01753
5546.87135	0.01755
5544.94267	0.01758
5543.01400	0.01763
5541.08532	0.01767
5539.15665	0.01770
5537.22797	0.01773
5535.29930	0.01777
5533.37062	0.01780
5531.44194	0.01784
5529.51327	0.01788
5527.58459	0.01789
5525.65592	0.01791
5523.72724	0.01795
5521.79857	0.01799
5519.86989	0.01803
5517.94121	0.01806
5516.01254	0.01810
5514.08386	0.01813
5512.15519	0.01815
5510.22651	0.01818
5508.29784	0.01823
5506.36916	0.01826
5504.44048	0.01830
5502.51181	0.01833
5500.58313	0.01837
5498.65446	0.01839
5496.72578	0.01844
5494.79711	0.01848
5492.86843	0.01851
5490.93975	0.01854
5489.01108	0.01856
5487.08240	0.01860
5485.15373	0.01864
5483.22505	0.01868
5481.29638	0.01871
5479.36770	0.01873
5477.43902	0.01874
5475.51035	0.01878
5473.58167	0.01886
5471.65300	0.01892
5469.72432	0.01894
5467.79565	0.01895
5465.86697	0.01899
5463.93829	0.01902
5462.00962	0.01903
5460.08094	0.01906
5458.15227	0.01911
5456.22359	0.01915
5454.29492	0.01920
5452.36624	0.01924
5450.43756	0.01928
5448.50889	0.01930
5446.58021	0.01933
5444.65154	0.01935
5442.72286	0.01938
5440.79419	0.01943
5438.86551	0.01950
5436.93683	0.01953
5435.00816	0.01953
5433.07948	0.01956
5431.15081	0.01960
5429.22213	0.01964
5427.29346	0.01968
5425.36478	0.01972
5423.43610	0.01976
5421.50743	0.01979
5419.57875	0.01984
5417.65008	0.01988
5415.72140	0.01991
5413.79273	0.01991
5411.86405	0.01995
5409.93537	0.02002
5408.00670	0.02010
5406.07802	0.02014
5404.14935	0.02018
5402.22067	0.02023
5400.29200	0.02027
5398.36332	0.02027
5396.43464	0.02025
5394.50597	0.02027
5392.57729	0.02033
5390.64862	0.02040
5388.71994	0.02044
5386.79127	0.02046
5384.86259	0.02051
5382.93391	0.02058
5381.00524	0.02063
5379.07656	0.02065
5377.14789	0.02066
5375.21921	0.02070
5373.29054	0.02076
5371.36186	0.02082
5369.43318	0.02087
5367.50451	0.02090
5365.57583	0.02094
5363.64716	0.02097
5361.71848	0.02100
5359.78981	0.02104
5357.86113	0.02105
5355.93245	0.02103
5354.00378	0.02103
5352.07510	0.02107
5350.14643	0.02112
5348.21775	0.02117
5346.28908	0.02120
5344.36040	0.02125
5342.43172	0.02132
5340.50305	0.02136
5338.57437	0.02138
5336.64570	0.02143
5334.71702	0.02150
5332.78835	0.02154
5330.85967	0.02157
5328.93099	0.02161
5327.00232	0.02166
5325.07364	0.02170
5323.14497	0.02174
5321.21629	0.02178
5319.28762	0.02183
5317.35894	0.02186
5315.43026	0.02190
5313.50159	0.02196
5311.57291	0.02200
5309.64424	0.02201
5307.71556	0.02203
5305.78689	0.02206
5303.85821	0.02210
5301.92953	0.02215
5300.00086	0.02220
5298.07218	0.02224
5296.14351	0.02228
5294.21483	0.02232
5292.28616	0.02235
5290.35748	0.02239
5288.42880	0.02245
5286.50013	0.02249
5284.57145	0.02252
5282.64278	0.02255
5280.71410	0.02258
5278.78543	0.02261
5276.85675	0.02266
5274.92807	0.02270
5272.99940	0.02274
5271.07072	0.02278
5269.14205	0.02284
5267.21337	0.02288
5265.28470	0.02288
5263.35602	0.02288
5261.42734	0.02291
5259.49867	0.02298
5257.56999	0.02304
5255.64132	0.02309
5253.71264	0.02314
5251.78397	0.02318
5249.85529	0.02318
5247.92661	0.02318
5245.99794	0.02323
5244.06926	0.02329
5242.14059	0.02336
5240.21191	0.02342
5238.28324	0.02348
5236.35456	0.02352
5234.42588	0.02355
5232.49721	0.02357
5230.56853	0.02361
5228.63986	0.02364
5226.71118	0.02365
5224.78251	0.02370
5222.85383	0.02377
5220.92515	0.02382
5218.99648	0.02385
5217.06780	0.02389
5215.13913	0.02395
5213.21045	0.02401
5211.28178	0.02405
5209.35310	0.02406
5207.42442	0.02407
5205.49575	0.02412
5203.56707	0.02421
5201.63840	0.02427
5199.70972	0.02430
5197.78105	0.02433
5195.85237	0.02439
5193.92369	0.02443
5191.99502	0.02446
5190.06634	0.02447
5188.13767	0.02450
5186.20899	0.02455
5184.28032	0.02460
5182.35164	0.02465
5180.42296	0.02470
5178.49429	0.02475
5176.56561	0.02480
5174.63694	0.02486
5172.70826	0.02491
5170.77959	0.02495
5168.85091	0.02497
5166.92223	0.02500
5164.99356	0.02505
5163.06488	0.02511
5161.13621	0.02515
5159.20753	0.02518
5157.27886	0.02522
5155.35018	0.02526
5153.42150	0.02532
5151.49283	0.02536
5149.56415	0.02539
5147.63548	0.02542
5145.70680	0.02546
5143.77813	0.02550
5141.84945	0.02553
5139.92077	0.02558
5137.99210	0.02563
5136.06342	0.02569
5134.13475	0.02575
5132.20607	0.02580
5130.27740	0.02584
5128.34872	0.02587
5126.42004	0.02590
5124.49137	0.02593
5122.56269	0.02597
5120.63402	0.02602
5118.70534	0.02608
5116.77667	0.02614
5114.84799	0.02618
5112.91931	0.02621
5110.99064	0.02624
5109.06196	0.02629
5107.13329	0.02633
5105.20461	0.02638
5103.27594	0.02643
5101.34726	0.02647
5099.41858	0.02653
5097.48991	0.02657
5095.56123	0.02659
5093.63256	0.02662
5091.70388	0.02667
5089.77521	0.02673
5087.84653	0.02678
5085.91785	0.02681
5083.98918	0.02684
5082.06050	0.02688
5080.13183	0.02694
5078.20315	0.02698
5076.27448	0.02701
5074.34580	0.02704
5072.41712	0.02709
5070.48845	0.02714
5068.55977	0.02718
5066.63110	0.02724
5064.70242	0.02731
5062.77375	0.02735
5060.84507	0.02739
5058.91639	0.02742
5056.98772	0.02746
5055.05904	0.02750
5053.13037	0.02754
5051.20169	0.02758
5049.27302	0.02761
5047.34434	0.02766
5045.41566	0.02772
5043.48699	0.02778
5041.55831	0.02782
5039.62964	0.02787
5037.70096	0.02793
5035.77229	0.02799
5033.84361	0.02804
5031.91493	0.02807
5029.98626	0.02810
5028.05758	0.02815
5026.12891	0.02821
5024.20023	0.02825
5022.27156	0.02828
5020.34288	0.02832
5018.41420	0.02837
5016.48553	0.02842
5014.55685	0.02847
5012.62818	0.02853
5010.69950	0.02859
5008.77083	0.02863
5006.84215	0.02867
5004.91347	0.02871
5002.98480	0.02876
5001.05612	0.02882
4999.12745	0.02888
4997.19877	0.02892
4995.27010	0.02896
4993.34142	0.02899
4991.41274	0.02902
4989.48407	0.02907
4987.55539	0.02912
4985.62672	0.02917
4983.69804	0.02923
4981.76937	0.02928
4979.84069	0.02932
4977.91201	0.02935
4975.98334	0.02940
4974.05466	0.02944
4972.12599	0.02949
4970.19731	0.02955
4968.26864	0.02962
4966.33996	0.02966
4964.41128	0.02970
4962.48261	0.02973
4960.55393	0.02977
4958.62526	0.02982
4956.69658	0.02988
4954.76791	0.02994
4952.83923	0.02999
4950.91055	0.03002
4948.98188	0.03006
4947.05320	0.03011
4945.12453	0.03016
4943.19585	0.03023
4941.26718	0.03029
4939.33850	0.03034
4937.40982	0.03038
4935.48115	0.03043
4933.55247	0.03047
4931.62380	0.03051
4929.69512	0.03056
4927.76645	0.03063
4925.83777	0.03069
4923.90909	0.03073
4921.98042	0.03077
4920.05174	0.03082
4918.12307	0.03086
4916.19439	0.03088
4914.26572	0.03092
4912.33704	0.03095
4910.40836	0.03100
4908.47969	0.03106
4906.55101	0.03113
4904.62234	0.03120
4902.69366	0.03125
4900.76499	0.03130
4898.83631	0.03135
4896.90763	0.03141
4894.97896	0.03147
4893.05028	0.03151
4891.12161	0.03155
4889.19293	0.03159
4887.26426	0.03164
4885.33558	0.03168
4883.40690	0.03174
4881.47823	0.03179
4879.54955	0.03185
4877.62088	0.03193
4875.69220	0.03201
4873.76353	0.03205
4871.83485	0.03207
4869.90617	0.03210
4867.97750	0.03215
4866.04882	0.03218
4864.12015	0.03222
4862.19147	0.03228
4860.26280	0.03234
4858.33412	0.03238
4856.40544	0.03243
4854.47677	0.03249
4852.54809	0.03255
4850.61942	0.03260
4848.69074	0.03265
4846.76207	0.03271
4844.83339	0.03277
4842.90471	0.03282
4840.97604	0.03288
4839.04736	0.03294
4837.11869	0.03298
4835.19001	0.03301
4833.26134	0.03304
4831.33266	0.03309
4829.40398	0.03314
4827.47531	0.03319
4825.54663	0.03327
4823.61796	0.03335
4821.68928	0.03341
4819.76061	0.03346
4817.83193	0.03351
4815.90325	0.03354
4813.97458	0.03357
4812.04590	0.03363
4810.11723	0.03370
4808.18855	0.03377
4806.25988	0.03382
4804.33120	0.03386
4802.40252	0.03391
4800.47385	0.03397
4798.54517	0.03401
4796.61650	0.03405
4794.68782	0.03412
4792.75915	0.03420
4790.83047	0.03425
4788.90179	0.03428
4786.97312	0.03432
4785.04444	0.03438
4783.11577	0.03444
4781.18709	0.03448
4779.25842	0.03451
4777.32974	0.03458
4775.40106	0.03466
4773.47239	0.03473
4771.54371	0.03480
4769.61504	0.03484
4767.68636	0.03488
4765.75769	0.03493
4763.82901	0.03500
4761.90033	0.03506
4759.97166	0.03512
4758.04298	0.03519
4756.11431	0.03525
4754.18563	0.03528
4752.25696	0.03531
4750.32828	0.03536
4748.39960	0.03542
4746.47093	0.03549
4744.54225	0.03554
4742.61358	0.03560
4740.68490	0.03567
4738.75623	0.03574
4736.82755	0.03580
4734.89887	0.03584
4732.97020	0.03590
4731.04152	0.03596
4729.11285	0.03603
4727.18417	0.03611
4725.25550	0.03618
4723.32682	0.03624
4721.39814	0.03629
4719.46947	0.03631
4717.54079	0.03634
4715.61212	0.03639
4713.68344	0.03645
4711.75477	0.03651
4709.82609	0.03657
4707.89741	0.03663
4705.96874	0.03670
4704.04006	0.03676
4702.11139	0.03682
4700.18271	0.03687
4698.25404	0.03691
4696.32536	0.03694
4694.39668	0.03700
4692.46801	0.03708
4690.53933	0.03716
4688.61066	0.03722
4686.68198	0.03726
4684.75331	0.03729
4682.82463	0.03734
4680.89595	0.03743
4678.96728	0.03750
4677.03860	0.03756
4675.10993	0.03762
4673.18125	0.03769
4671.25258	0.03776
4669.32390	0.03783
4667.39522	0.03790
4665.46655	0.03795
4663.53787	0.03799
4661.60920	0.03803
4659.68052	0.03810
4657.75185	0.03817
4655.82317	0.03824
4653.89449	0.03830
4651.96582	0.03837
4650.03714	0.03843
4648.10847	0.03849
4646.17979	0.03855
4644.25112	0.03862
4642.32244	0.03869
4640.39376	0.03875
4638.46509	0.03880
4636.53641	0.03885
4634.60774	0.03890
4632.67906	0.03895
4630.75039	0.03902
4628.82171	0.03910
4626.89303	0.03917
4624.96436	0.03922
4623.03568	0.03928
4621.10701	0.03937
4619.17833	0.03945
4617.24966	0.03952
4615.32098	0.03959
4613.39230	0.03967
4611.46363	0.03973
4609.53495	0.03978
4607.60628	0.03984
4605.67760	0.03990
4603.74893	0.03995
4601.82025	0.04001
4599.89157	0.04007
4597.96290	0.04015
4596.03422	0.04022
4594.10555	0.04030
4592.17687	0.04036
4590.24820	0.04043
4588.31952	0.04049
4586.39084	0.04055
4584.46217	0.04060
4582.53349	0.04067
4580.60482	0.04074
4578.67614	0.04082
4576.74747	0.04090
4574.81879	0.04097
4572.89011	0.04102
4570.96144	0.04109
4569.03276	0.04117
4567.10409	0.04124
4565.17541	0.04129
4563.24674	0.04134
4561.31806	0.04141
4559.38938	0.04149
4557.46071	0.04156
4555.53203	0.04162
4553.60336	0.04168
4551.67468	0.04177
4549.74601	0.04185
4547.81733	0.04193
4545.88865	0.04200
4543.95998	0.04205
4542.03130	0.04211
4540.10263	0.04219
4538.17395	0.04228
4536.24528	0.04236
4534.31660	0.04241
4532.38792	0.04247
4530.45925	0.04251
4528.53057	0.04256
4526.60190	0.04262
4524.67322	0.04271
4522.74455	0.04281
4520.81587	0.04289
4518.88719	0.04296
4516.95852	0.04302
4515.02984	0.04307
4513.10117	0.04314
4511.17249	0.04323
4509.24382	0.04333
4507.31514	0.04343
4505.38646	0.04351
4503.45779	0.04356
4501.52911	0.04362
4499.60044	0.04371
4497.67176	0.04379
4495.74309	0.04384
4493.81441	0.04389
4491.88573	0.04396
4489.95706	0.04404
4488.02838	0.04414
4486.09971	0.04424
4484.17103	0.04432
4482.24236	0.04438
4480.31368	0.04443
4478.38500	0.04450
4476.45633	0.04460
4474.52765	0.04468
4472.59898	0.04474
4470.67030	0.04481
4468.74163	0.04489
4466.81295	0.04497
4464.88427	0.04505
4462.95560	0.04511
4461.02692	0.04517
4459.09825	0.04524
4457.16957	0.04535
4455.24090	0.04544
4453.31222	0.04549
4451.38354	0.04556
4449.45487	0.04565
4447.52619	0.04574
4445.59752	0.04582
4443.66884	0.04590
4441.74017	0.04598
4439.81149	0.04606
4437.88281	0.04613
4435.95414	0.04622
4434.02546	0.04632
4432.09679	0.04640
4430.16811	0.04647
4428.23944	0.04653
4426.31076	0.04659
4424.38208	0.04668
4422.45341	0.04679
4420.52473	0.04689
4418.59606	0.04696
4416.66738	0.04703
4414.73871	0.04710
4412.81003	0.04718
4410.88135	0.04728
4408.95268	0.04738
4407.02400	0.04748
4405.09533	0.04755
4403.16665	0.04760
4401.23798	0.04768
4399.30930	0.04778
4397.38062	0.04787
4395.45195	0.04794
4393.52327	0.04801
4391.59460	0.04807
4389.66592	0.04816
4387.73725	0.04826
4385.80857	0.04838
4383.87989	0.04848
4381.95122	0.04855
4380.02254	0.04863
4378.09387	0.04873
4376.16519	0.04882
4374.23652	0.04890
4372.30784	0.04896
4370.37916	0.04902
4368.45049	0.04911
4366.52181	0.04922
4364.59314	0.04933
4362.66446	0.04942
4360.73579	0.04951
4358.80711	0.04959
4356.87843	0.04966
4354.94976	0.04974
4353.02108	0.04983
4351.09241	0.04993
4349.16373	0.05003
4347.23506	0.05012
4345.30638	0.05020
4343.37770	0.05028
4341.44903	0.05037
4339.52035	0.05046
4337.59168	0.05053
4335.66300	0.05060
4333.73433	0.05070
4331.80565	0.05081
4329.87697	0.05092
4327.94830	0.05103
4326.01962	0.05114
4324.09095	0.05121
4322.16227	0.05127
4320.23360	0.05134
4318.30492	0.05143
4316.37624	0.05153
4314.44757	0.05162
4312.51889	0.05171
4310.59022	0.05182
4308.66154	0.05193
4306.73287	0.05204
4304.80419	0.05213
4302.87551	0.05219
4300.94684	0.05226
4299.01816	0.05236
4297.08949	0.05248
4295.16081	0.05259
4293.23214	0.05271
4291.30346	0.05281
4289.37478	0.05289
4287.44611	0.05298
4285.51743	0.05307
4283.58876	0.05316
4281.66008	0.05327
4279.73141	0.05340
4277.80273	0.05351
4275.87405	0.05358
4273.94538	0.05368
4272.01670	0.05381
4270.08803	0.05392
4268.15935	0.05402
4266.23068	0.05410
4264.30200	0.05418
4262.37332	0.05427
4260.44465	0.05437
4258.51597	0.05449
4256.58730	0.05459
4254.65862	0.05469
4252.72995	0.05479
4250.80127	0.05489
4248.87259	0.05498
4246.94392	0.05505
4245.01524	0.05512
4243.08657	0.05521
4241.15789	0.05534
4239.22922	0.05547
4237.30054	0.05557
4235.37186	0.05564
4233.44319	0.05573
4231.51451	0.05586
4229.58584	0.05598
4227.65716	0.05607
4225.72849	0.05617
4223.79981	0.05629
4221.87113	0.05641
4219.94246	0.05648
4218.01378	0.05655
4216.08511	0.05664
4214.15643	0.05676
4212.22776	0.05690
4210.29908	0.05704
4208.37040	0.05715
4206.44173	0.05726
4204.51305	0.05737
4202.58438	0.05747
4200.65570	0.05756
4198.72703	0.05766
4196.79835	0.05776
4194.86968	0.05786
4192.94100	0.05796
4191.01232	0.05807
4189.08365	0.05818
4187.15497	0.05829
4185.22630	0.05840
4183.29762	0.05850
4181.36895	0.05861
4179.44027	0.05874
4177.51159	0.05887
4175.58292	0.05897
4173.65424	0.05906
4171.72557	0.05917
4169.79689	0.05930
4167.86822	0.05942
4165.93954	0.05953
4164.01086	0.05963
4162.08219	0.05973
4160.15351	0.05985
4158.22484	0.05996
4156.29616	0.06008
4154.36749	0.06020
4152.43881	0.06032
4150.51013	0.06043
4148.58146	0.06054
4146.65278	0.06066
4144.72411	0.06078
4142.79543	0.06089
4140.86676	0.06100
4138.93808	0.06110
4137.00940	0.06120
4135.08073	0.06130
4133.15205	0.06141
4131.22338	0.06153
4129.29470	0.06164
4127.36603	0.06176
4125.43735	0.06188
4123.50867	0.06199
4121.58000	0.06211
4119.65132	0.06224
4117.72265	0.06236
4115.79397	0.06246
4113.86530	0.06258
4111.93662	0.06271
4110.00794	0.06283
4108.07927	0.06295
4106.15059	0.06308
4104.22192	0.06321
4102.29324	0.06332
4100.36457	0.06342
4098.43589	0.06354
4096.50721	0.06367
4094.57854	0.06379
4092.64986	0.06391
4090.72119	0.06401
4088.79251	0.06413
4086.86384	0.06428
4084.93516	0.06442
4083.00648	0.06456
4081.07781	0.06467
4079.14913	0.06478
4077.22046	0.06491
4075.29178	0.06504
4073.36311	0.06515
4071.43443	0.06526
4069.50575	0.06538
4067.57708	0.06551
4065.64840	0.06565
4063.71973	0.06580
4061.79105	0.06592
4059.86238	0.06604
4057.93370	0.06617
4056.00502	0.06628
4054.07635	0.06638
4052.14767	0.06650
4050.21900	0.06663
4048.29032	0.06676
4046.36165	0.06686
4044.43297	0.06696
4042.50429	0.06710
4040.57562	0.06726
4038.64694	0.06740
4036.71827	0.06751
4034.78959	0.06761
4032.86092	0.06773
4030.93224	0.06788
4029.00356	0.06803
4027.07489	0.06816
4025.14621	0.06828
4023.21754	0.06841
4021.28886	0.06853
4019.36019	0.06865
4017.43151	0.06878
4015.50283	0.06893
4013.57416	0.06907
4011.64548	0.06920
4009.71681	0.06933
4007.78813	0.06945
4005.85946	0.06960
4003.93078	0.06976
4002.00210	0.06991
4000.07343	0.07003
3998.14475	0.07012
3996.21608	0.07023
3994.28740	0.07037
3992.35873	0.07051
3990.43005	0.07065
3988.50137	0.07079
3986.57270	0.07092
3984.64402	0.07105
3982.71535	0.07118
3980.78667	0.07131
3978.85800	0.07145
3976.92932	0.07157
3975.00064	0.07169
3973.07197	0.07182
3971.14329	0.07195
3969.21462	0.07209
3967.28594	0.07226
3965.35727	0.07242
3963.42859	0.07253
3961.49991	0.07265
3959.57124	0.07282
3957.64256	0.07298
3955.71389	0.07311
3953.78521	0.07321
3951.85654	0.07326
3949.92786	0.07331
3947.99918	0.07344
3946.07051	0.07362
3944.14183	0.07376
3942.21316	0.07393
3940.28448	0.07417
3938.35581	0.07437
3936.42713	0.07445
3934.49845	0.07445
3932.56978	0.07447
3930.64110	0.07464
3928.71243	0.07486
3926.78375	0.07499
3924.85508	0.07508
3922.92640	0.07525
3920.99772	0.07537
3919.06905	0.07539
3917.14037	0.07551
3915.21170	0.07583
3913.28302	0.07617
3911.35435	0.07638
3909.42567	0.07645
3907.49699	0.07636
3905.56832	0.07616
3903.63964	0.07604
3901.71097	0.07613
3899.78229	0.07642
3897.85362	0.07688
3895.92494	0.07728
3893.99626	0.07741
3892.06759	0.07744
3890.13891	0.07759
3888.21024	0.07768
3886.28156	0.07765
3884.35289	0.07775
3882.42421	0.07790
3880.49553	0.07806
3878.56686	0.07841
3876.63818	0.07868
3874.70951	0.07871
3872.78083	0.07869
3870.85216	0.07870
3868.92348	0.07889
3866.99480	0.07914
3865.06613	0.07929
3863.13745	0.07947
3861.20878	0.07979
3859.28010	0.08001
3857.35143	0.07983
3855.42275	0.07935
3853.49407	0.07926
3851.56540	0.07991
3849.63672	0.08069
3847.70805	0.08109
3845.77937	0.08112
3843.85070	0.08104
3841.92202	0.08101
3839.99334	0.08106
3838.06467	0.08120
3836.13599	0.08146
3834.20732	0.08174
3832.27864	0.08204
3830.34997	0.08232
3828.42129	0.08250
3826.49261	0.08261
3824.56394	0.08263
3822.63526	0.08252
3820.70659	0.08256
3818.77791	0.08283
3816.84924	0.08310
3814.92056	0.08344
3812.99188	0.08389
3811.06321	0.08413
3809.13453	0.08410
3807.20586	0.08410
3805.27718	0.08423
3803.34851	0.08425
3801.41983	0.08427
3799.49115	0.08451
3797.56248	0.08479
3795.63380	0.08507
3793.70513	0.08544
3791.77645	0.08574
3789.84778	0.08592
3787.91910	0.08602
3785.99042	0.08610
3784.06175	0.08622
3782.13307	0.08631
3780.20440	0.08637
3778.27572	0.08660
3776.34705	0.08696
3774.41837	0.08716
3772.48969	0.08712
3770.56102	0.08706
3768.63234	0.08718
3766.70367	0.08739
3764.77499	0.08764
3762.84632	0.08786
3760.91764	0.08791
3758.98896	0.08794
3757.06029	0.08810
3755.13161	0.08816
3753.20294	0.08796
3751.27426	0.08781
3749.34559	0.08798
3747.41691	0.08808
3745.48823	0.08793
3743.55956	0.08821
3741.63088	0.08896
3739.70221	0.08931
3737.77353	0.08906
3735.84486	0.08889
3733.91618	0.08922
3731.98750	0.08987
3730.05883	0.09036
3728.13015	0.09051
3726.20148	0.09052
3724.27280	0.09067
3722.34413	0.09096
3720.41545	0.09127
3718.48677	0.09155
3716.55810	0.09172
3714.62942	0.09167
3712.70075	0.09154
3710.77207	0.09165
3708.84340	0.09207
3706.91472	0.09255
3704.98604	0.09278
3703.05737	0.09277
3701.12869	0.09289
3699.20002	0.09322
3697.27134	0.09351
3695.34267	0.09361
3693.41399	0.09354
3691.48531	0.09339
3689.55664	0.09342
3687.62796	0.09381
3685.69929	0.09432
3683.77061	0.09465
3681.84194	0.09474
3679.91326	0.09466
3677.98458	0.09442
3676.05591	0.09426
3674.12723	0.09449
3672.19856	0.09482
3670.26988	0.09502
3668.34121	0.09541
3666.41253	0.09594
3664.48385	0.09627
3662.55518	0.09641
3660.62650	0.09649
3658.69783	0.09650
3656.76915	0.09651
3654.84048	0.09657
3652.91180	0.09642
3650.98312	0.09600
3649.05445	0.09578
3647.12577	0.09611
3645.19710	0.09679
3643.26842	0.09739
3641.33975	0.09775
3639.41107	0.09796
3637.48239	0.09808
3635.55372	0.09814
3633.62504	0.09811
3631.69637	0.09788
3629.76769	0.09764
3627.83902	0.09791
3625.91034	0.09853
3623.98166	0.09890
3622.05299	0.09885
3620.12431	0.09867
3618.19564	0.09867
3616.26696	0.09881
3614.33829	0.09891
3612.40961	0.09896
3610.48093	0.09901
3608.55226	0.09917
3606.62358	0.09954
3604.69491	0.09991
3602.76623	0.10007
3600.83756	0.10014
3598.90888	0.10023
3596.98020	0.10031
3595.05153	0.10042
3593.12285	0.10060
3591.19418	0.10061
3589.26550	0.10035
3587.33683	0.10032
3585.40815	0.10076
3583.47947	0.10125
3581.55080	0.10151
3579.62212	0.10167
3577.69345	0.10182
3575.76477	0.10196
3573.83610	0.10208
3571.90742	0.10210
3569.97874	0.10186
3568.05007	0.10159
3566.12139	0.10174
3564.19272	0.10226
3562.26404	0.10269
3560.33537	0.10293
3558.40669	0.10312
3556.47801	0.10327
3554.54934	0.10332
3552.62066	0.10336
3550.69199	0.10347
3548.76331	0.10349
3546.83464	0.10347
3544.90596	0.10361
3542.97728	0.10392
3541.04861	0.10416
3539.11993	0.10427
3537.19126	0.10432
3535.26258	0.10443
3533.33391	0.10459
3531.40523	0.10466
3529.47655	0.10465
3527.54788	0.10463
3525.61920	0.10466
3523.69053	0.10475
3521.76185	0.10491
3519.83318	0.10505
3517.90450	0.10515
3515.97582	0.10524
3514.04715	0.10531
3512.11847	0.10532
3510.18980	0.10535
3508.26112	0.10545
3506.33245	0.10554
3504.40377	0.10554
3502.47509	0.10558
3500.54642	0.10571
3498.61774	0.10581
3496.68907	0.10586
3494.76039	0.10589
3492.83172	0.10594
3490.90304	0.10597
3488.97436	0.10600
3487.04569	0.10606
3485.11701	0.10611
3483.18834	0.10616
3481.25966	0.10625
3479.33099	0.10642
3477.40231	0.10660
3475.47363	0.10674
3473.54496	0.10684
3471.61628	0.10697
3469.68761	0.10712
3467.75893	0.10727
3465.83026	0.10742
3463.90158	0.10759
3461.97290	0.10779
3460.04423	0.10800
3458.11555	0.10820
3456.18688	0.10840
3454.25820	0.10857
3452.32953	0.10872
3450.40085	0.10882
3448.47217	0.10890
3446.54350	0.10903
3444.61482	0.10924
3442.68615	0.10948
3440.75747	0.10973
3438.82880	0.10998
3436.90012	0.11024
3434.97144	0.11053
3433.04277	0.11086
3431.11409	0.11122
3429.18542	0.11160
3427.25674	0.11196
3425.32807	0.11229
3423.39939	0.11257
3421.47071	0.11285
3419.54204	0.11318
3417.61336	0.11351
3415.68469	0.11379
3413.75601	0.11404
3411.82734	0.11431
3409.89866	0.11457
3407.96998	0.11481
3406.04131	0.11503
3404.11263	0.11527
3402.18396	0.11552
3400.25528	0.11575
3398.32661	0.11597
3396.39793	0.11621
3394.46925	0.11644
3392.54058	0.11669
3390.61190	0.11695
3388.68323	0.11721
3386.75455	0.11744
3384.82588	0.11766
3382.89720	0.11790
3380.96852	0.11815
3379.03985	0.11839
3377.11117	0.11861
3375.18250	0.11884
3373.25382	0.11909
3371.32515	0.11933
3369.39647	0.11953
3367.46779	0.11970
3365.53912	0.11989
3363.61044	0.12010
3361.68177	0.12032
3359.75309	0.12055
3357.82442	0.12078
3355.89574	0.12098
3353.96706	0.12120
3352.03839	0.12144
3350.10971	0.12166
3348.18104	0.12189
3346.25236	0.12213
3344.32369	0.12235
3342.39501	0.12257
3340.46633	0.12281
3338.53766	0.12303
3336.60898	0.12324
3334.68031	0.12346
3332.75163	0.12370
3330.82296	0.12396
3328.89428	0.12421
3326.96560	0.12444
3325.03693	0.12464
3323.10825	0.12485
3321.17958	0.12508
3319.25090	0.12530
3317.32223	0.12550
3315.39355	0.12571
3313.46487	0.12594
3311.53620	0.12614
3309.60752	0.12636
3307.67885	0.12661
3305.75017	0.12686
3303.82150	0.12711
3301.89282	0.12735
3299.96414	0.12758
3298.03547	0.12781
3296.10679	0.12802
3294.17812	0.12824
3292.24944	0.12848
3290.32077	0.12872
3288.39209	0.12897
3286.46341	0.12923
3284.53474	0.12947
3282.60606	0.12968
3280.67739	0.12991
3278.74871	0.13017
3276.82004	0.13041
3274.89136	0.13063
3272.96268	0.13087
3271.03401	0.13112
3269.10533	0.13136
3267.17666	0.13159
3265.24798	0.13183
3263.31931	0.13207
3261.39063	0.13232
3259.46195	0.13254
3257.53328	0.13274
3255.60460	0.13295
3253.67593	0.13320
3251.74725	0.13350
3249.81858	0.13379
3247.88990	0.13403
3245.96122	0.13422
3244.03255	0.13442
3242.10387	0.13466
3240.17520	0.13492
3238.24652	0.13519
3236.31785	0.13543
3234.38917	0.13564
3232.46049	0.13586
3230.53182	0.13610
3228.60314	0.13635
3226.67447	0.13660
3224.74579	0.13684
3222.81712	0.13707
3220.88844	0.13732
3218.95976	0.13756
3217.03109	0.13781
3215.10241	0.13805
3213.17374	0.13829
3211.24506	0.13851
3209.31639	0.13872
3207.38771	0.13894
3205.45903	0.13918
3203.53036	0.13946
3201.60168	0.13974
3199.67301	0.14002
3197.74433	0.14028
3195.81566	0.14055
3193.88698	0.14082
3191.95830	0.14108
3190.02963	0.14134
3188.10095	0.14161
3186.17228	0.14186
3184.24360	0.14211
3182.31493	0.14238
3180.38625	0.14265
3178.45757	0.14290
3176.52890	0.14317
3174.60022	0.14342
3172.67155	0.14366
3170.74287	0.14392
3168.81420	0.14415
3166.88552	0.14435
3164.95684	0.14457
3163.02817	0.14484
3161.09949	0.14512
3159.17082	0.14539
3157.24214	0.14567
3155.31347	0.14593
3153.38479	0.14615
3151.45611	0.14637
3149.52744	0.14662
3147.59876	0.14688
3145.67009	0.14713
3143.74141	0.14736
3141.81274	0.14758
3139.88406	0.14784
3137.95538	0.14813
3136.02671	0.14840
3134.09803	0.14865
3132.16936	0.14891
3130.24068	0.14917
3128.31201	0.14940
3126.38333	0.14962
3124.45465	0.14985
3122.52598	0.15007
3120.59730	0.15031
3118.66863	0.15055
3116.73995	0.15079
3114.81128	0.15103
3112.88260	0.15129
3110.95392	0.15157
3109.02525	0.15185
3107.09657	0.15209
3105.16790	0.15232
3103.23922	0.15256
3101.31055	0.15280
3099.38187	0.15305
3097.45319	0.15331
3095.52452	0.15355
3093.59584	0.15382
3091.66717	0.15409
3089.73849	0.15434
3087.80982	0.15457
3085.88114	0.15483
3083.95246	0.15509
3082.02379	0.15533
3080.09511	0.15558
3078.16644	0.15586
3076.23776	0.15613
3074.30909	0.15637
3072.38041	0.15659
3070.45173	0.15680
3068.52306	0.15701
3066.59438	0.15725
3064.66571	0.15752
3062.73703	0.15779
3060.80836	0.15803
3058.87968	0.15826
3056.95100	0.15847
3055.02233	0.15870
3053.09365	0.15896
3051.16498	0.15922
3049.23630	0.15946
3047.30763	0.15973
3045.37895	0.15999
3043.45027	0.16023
3041.52160	0.16047
3039.59292	0.16072
3037.66425	0.16094
3035.73557	0.16116
3033.80690	0.16142
3031.87822	0.16172
3029.94954	0.16200
3028.02087	0.16223
3026.09219	0.16242
3024.16352	0.16265
3022.23484	0.16293
3020.30617	0.16319
3018.37749	0.16342
3016.44881	0.16364
3014.52014	0.16388
3012.59146	0.16413
3010.66279	0.16437
3008.73411	0.16461
3006.80544	0.16485
3004.87676	0.16512
3002.94808	0.16537
3001.01941	0.16561
2999.09073	0.16585
2997.16206	0.16611
2995.23338	0.16639
2993.30471	0.16666
2991.37603	0.16686
2989.44735	0.16704
2987.51868	0.16726
2985.59000	0.16748
2983.66133	0.16766
2981.73265	0.16779
2979.80398	0.16788
2977.87530	0.16796
2975.94662	0.16805
2974.01795	0.16811
2972.08927	0.16810
2970.16060	0.16806
2968.23192	0.16806
2966.30325	0.16812
2964.37457	0.16823
2962.44589	0.16838
2960.51722	0.16859
2958.58854	0.16885
2956.65987	0.16918
2954.73119	0.16954
2952.80252	0.16986
2950.87384	0.17013
2948.94516	0.17038
2947.01649	0.17061
2945.08781	0.17080
2943.15914	0.17094
2941.23046	0.17103
2939.30179	0.17107
2937.37311	0.17107
2935.44443	0.17103
2933.51576	0.17099
2931.58708	0.17098
2929.65841	0.17098
2927.72973	0.17095
2925.80106	0.17092
2923.87238	0.17089
2921.94370	0.17095
2920.01503	0.17112
2918.08635	0.17144
2916.15768	0.17198
2914.22900	0.17270
2912.30033	0.17349
2910.37165	0.17425
2908.44297	0.17488
2906.51430	0.17536
2904.58562	0.17577
2902.65695	0.17615
2900.72827	0.17652
2898.79960	0.17688
2896.87092	0.17722
2894.94224	0.17756
2893.01357	0.17790
2891.08489	0.17824
2889.15622	0.17859
2887.22754	0.17890
2885.29887	0.17918
2883.37019	0.17945
2881.44151	0.17974
2879.51284	0.18002
2877.58416	0.18027
2875.65549	0.18049
2873.72681	0.18070
2871.79814	0.18091
2869.86946	0.18115
2867.94078	0.18140
2866.01211	0.18160
2864.08343	0.18174
2862.15476	0.18185
2860.22608	0.18195
2858.29741	0.18201
2856.36873	0.18202
2854.44005	0.18199
2852.51138	0.18200
2850.58270	0.18216
2848.65403	0.18264
2846.72535	0.18340
2844.79668	0.18423
2842.86800	0.18495
2840.93932	0.18553
2839.01065	0.18603
2837.08197	0.18645
2835.15330	0.18682
2833.22462	0.18714
2831.29595	0.18745
2829.36727	0.18776
2827.43859	0.18807
2825.50992	0.18839
2823.58124	0.18870
2821.65257	0.18897
2819.72389	0.18923
2817.79522	0.18948
2815.86654	0.18973
2813.93786	0.19002
2812.00919	0.19034
2810.08051	0.19065
2808.15184	0.19094
2806.22316	0.19120
2804.29449	0.19146
2802.36581	0.19174
2800.43713	0.19201
2798.50846	0.19228
2796.57978	0.19256
2794.65111	0.19283
2792.72243	0.19309
2790.79376	0.19336
2788.86508	0.19364
2786.93640	0.19392
2785.00773	0.19420
2783.07905	0.19449
2781.15038	0.19478
2779.22170	0.19505
2777.29303	0.19531
2775.36435	0.19558
2773.43567	0.19585
2771.50700	0.19611
2769.57832	0.19635
2767.64965	0.19659
2765.72097	0.19683
2763.79230	0.19711
2761.86362	0.19739
2759.93494	0.19766
2758.00627	0.19795
2756.07759	0.19823
2754.14892	0.19847
2752.22024	0.19869
2750.29157	0.19894
2748.36289	0.19921
2746.43421	0.19949
2744.50554	0.19975
2742.57686	0.20001
2740.64819	0.20024
2738.71951	0.20047
2736.79084	0.20073
2734.86216	0.20099
2732.93348	0.20125
2731.00481	0.20150
2729.07613	0.20175
2727.14746	0.20199
2725.21878	0.20223
2723.29011	0.20249
2721.36143	0.20275
2719.43275	0.20302
2717.50408	0.20330
2715.57540	0.20355
2713.64673	0.20378
2711.71805	0.20403
2709.78938	0.20429
2707.86070	0.20454
2705.93202	0.20478
2704.00335	0.20501
2702.07467	0.20525
2700.14600	0.20551
2698.21732	0.20579
2696.28865	0.20607
2694.35997	0.20633
2692.43129	0.20658
2690.50262	0.20682
2688.57394	0.20705
2686.64527	0.20730
2684.71659	0.20758
2682.78792	0.20788
2680.85924	0.20816
2678.93056	0.20844
2677.00189	0.20870
2675.07321	0.20890
2673.14454	0.20910
2671.21586	0.20935
2669.28719	0.20964
2667.35851	0.20989
2665.42983	0.21011
2663.50116	0.21035
2661.57248	0.21065
2659.64381	0.21098
2657.71513	0.21127
2655.78646	0.21153
2653.85778	0.21180
2651.92910	0.21206
2650.00043	0.21231
2648.07175	0.21257
2646.14308	0.21286
2644.21440	0.21313
2642.28573	0.21341
2640.35705	0.21370
2638.42837	0.21402
2636.49970	0.21430
2634.57102	0.21455
2632.64235	0.21482
2630.71367	0.21510
2628.78500	0.21537
2626.85632	0.21564
2624.92764	0.21592
2622.99897	0.21621
2621.07029	0.21650
2619.14162	0.21681
2617.21294	0.21709
2615.28427	0.21735
2613.35559	0.21762
2611.42691	0.21788
2609.49824	0.21818
2607.56956	0.21848
2605.64089	0.21877
2603.71221	0.21903
2601.78354	0.21928
2599.85486	0.21951
2597.92618	0.21978
2595.99751	0.22007
2594.06883	0.22036
2592.14016	0.22063
2590.21148	0.22089
2588.28281	0.22114
2586.35413	0.22138
2584.42545	0.22165
2582.49678	0.22194
2580.56810	0.22221
2578.63943	0.22246
2576.71075	0.22271
2574.78208	0.22298
2572.85340	0.22326
2570.92472	0.22353
2568.99605	0.22379
2567.06737	0.22406
2565.13870	0.22436
2563.21002	0.22464
2561.28135	0.22490
2559.35267	0.22513
2557.42399	0.22536
2555.49532	0.22561
2553.56664	0.22587
2551.63797	0.22614
2549.70929	0.22641
2547.78062	0.22667
2545.85194	0.22694
2543.92326	0.22721
2541.99459	0.22748
2540.06591	0.22778
2538.13724	0.22805
2536.20856	0.22829
2534.27989	0.22854
2532.35121	0.22881
2530.42253	0.22910
2528.49386	0.22937
2526.56518	0.22963
2524.63651	0.22988
2522.70783	0.23013
2520.77916	0.23040
2518.85048	0.23073
2516.92181	0.23106
2514.99313	0.23133
2513.06445	0.23157
2511.13578	0.23187
2509.20710	0.23220
2507.27843	0.23252
2505.34975	0.23280
2503.42108	0.23309
2501.49240	0.23338
2499.56372	0.23367
2497.63505	0.23398
2495.70637	0.23430
2493.77770	0.23459
2491.84902	0.23487
2489.92035	0.23515
2487.99167	0.23545
2486.06299	0.23577
2484.13432	0.23607
2482.20564	0.23638
2480.27697	0.23670
2478.34829	0.23699
2476.41962	0.23727
2474.49094	0.23755
2472.56226	0.23781
2470.63359	0.23805
2468.70491	0.23832
2466.77624	0.23860
2464.84756	0.23888
2462.91889	0.23916
2460.99021	0.23944
2459.06153	0.23973
2457.13286	0.24002
2455.20418	0.24031
2453.27551	0.24061
2451.34683	0.24092
2449.41816	0.24123
2447.48948	0.24154
2445.56080	0.24185
2443.63213	0.24213
2441.70345	0.24238
2439.77478	0.24266
2437.84610	0.24297
2435.91743	0.24327
2433.98875	0.24355
2432.06007	0.24384
2430.13140	0.24412
2428.20272	0.24438
2426.27405	0.24464
2424.34537	0.24491
2422.41670	0.24521
2420.48802	0.24549
2418.55934	0.24575
2416.63067	0.24604
2414.70199	0.24639
2412.77332	0.24672
2410.84464	0.24699
2408.91597	0.24722
2406.98729	0.24745
2405.05861	0.24771
2403.12994	0.24795
2401.20126	0.24819
2399.27259	0.24847
2397.34391	0.24879
2395.41524	0.24912
2393.48656	0.24942
2391.55788	0.24969
2389.62921	0.24994
2387.70053	0.25021
2385.77186	0.25047
2383.84318	0.25070
2381.91451	0.25091
2379.98583	0.25111
2378.05715	0.25125
2376.12848	0.25131
2374.19980	0.25136
2372.27113	0.25144
2370.34245	0.25154
2368.41378	0.25165
2366.48510	0.25181
2364.55642	0.25201
2362.62775	0.25225
2360.69907	0.25252
2358.77040	0.25281
2356.84172	0.25318
2354.91305	0.25365
2352.98437	0.25420
2351.05569	0.25476
2349.12702	0.25516
2347.19834	0.25532
2345.26967	0.25535
2343.34099	0.25542
2341.41232	0.25559
2339.48364	0.25583
2337.55496	0.25611
2335.62629	0.25642
2333.69761	0.25675
2331.76894	0.25708
2329.84026	0.25740
2327.91159	0.25775
2325.98291	0.25809
2324.05423	0.25845
2322.12556	0.25886
2320.19688	0.25929
2318.26821	0.25970
2316.33953	0.26005
2314.41086	0.26039
2312.48218	0.26076
2310.55350	0.26113
2308.62483	0.26147
2306.69615	0.26179
2304.76748	0.26212
2302.83880	0.26244
2300.91013	0.26278
2298.98145	0.26311
2297.05277	0.26337
2295.12410	0.26361
2293.19542	0.26388
2291.26675	0.26418
2289.33807	0.26449
2287.40940	0.26480
2285.48072	0.26510
2283.55204	0.26538
2281.62337	0.26564
2279.69469	0.26590
2277.76602	0.26618
2275.83734	0.26650
2273.90867	0.26683
2271.97999	0.26715
2270.05131	0.26746
2268.12264	0.26777
2266.19396	0.26808
2264.26529	0.26834
2262.33661	0.26855
2260.40794	0.26880
2258.47926	0.26910
2256.55058	0.26942
2254.62191	0.26973
2252.69323	0.27000
2250.76456	0.27023
2248.83588	0.27047
2246.90721	0.27076
2244.97853	0.27106
2243.04985	0.27133
2241.12118	0.27160
2239.19250	0.27188
2237.26383	0.27214
2235.33515	0.27244
2233.40648	0.27274
2231.47780	0.27302
2229.54912	0.27329
2227.62045	0.27359
2225.69177	0.27388
2223.76310	0.27417
2221.83442	0.27449
2219.90575	0.27478
2217.97707	0.27503
2216.04839	0.27529
2214.11972	0.27555
2212.19104	0.27577
2210.26237	0.27601
2208.33369	0.27630
2206.40502	0.27664
2204.47634	0.27696
2202.54766	0.27722
2200.61899	0.27746
2198.69031	0.27774
2196.76164	0.27805
2194.83296	0.27831
2192.90429	0.27853
2190.97561	0.27879
2189.04693	0.27907
2187.11826	0.27934
2185.18958	0.27964
2183.26091	0.27996
2181.33223	0.28028
2179.40356	0.28056
2177.47488	0.28082
2175.54620	0.28113
2173.61753	0.28145
2171.68885	0.28173
2169.76018	0.28200
2167.83150	0.28229
2165.90283	0.28254
2163.97415	0.28277
2162.04547	0.28305
2160.11680	0.28337
2158.18812	0.28369
2156.25945	0.28399
2154.33077	0.28429
2152.40210	0.28457
2150.47342	0.28486
2148.54474	0.28518
2146.61607	0.28548
2144.68739	0.28574
2142.75872	0.28600
2140.83004	0.28630
2138.90137	0.28660
2136.97269	0.28686
2135.04401	0.28708
2133.11534	0.28736
2131.18666	0.28768
2129.25799	0.28800
2127.32931	0.28828
2125.40064	0.28855
2123.47196	0.28881
2121.54328	0.28908
2119.61461	0.28939
2117.68593	0.28974
2115.75726	0.29007
2113.82858	0.29039
2111.89991	0.29070
2109.97123	0.29098
2108.04255	0.29122
2106.11388	0.29146
2104.18520	0.29174
2102.25653	0.29204
2100.32785	0.29233
2098.39918	0.29260
2096.47050	0.29287
2094.54182	0.29316
2092.61315	0.29345
2090.68447	0.29373
2088.75580	0.29402
2086.82712	0.29429
2084.89845	0.29455
2082.96977	0.29480
2081.04109	0.29505
2079.11242	0.29533
2077.18374	0.29567
2075.25507	0.29602
2073.32639	0.29635
2071.39772	0.29667
2069.46904	0.29695
2067.54036	0.29716
2065.61169	0.29737
2063.68301	0.29764
2061.75434	0.29794
2059.82566	0.29824
2057.89699	0.29856
2055.96831	0.29886
2054.03963	0.29916
2052.11096	0.29947
2050.18228	0.29976
2048.25361	0.30003
2046.32493	0.30032
2044.39626	0.30060
2042.46758	0.30086
2040.53890	0.30111
2038.61023	0.30138
2036.68155	0.30169
2034.75288	0.30203
2032.82420	0.30234
2030.89553	0.30263
2028.96685	0.30291
2027.03817	0.30320
2025.10950	0.30352
2023.18082	0.30384
2021.25215	0.30410
2019.32347	0.30428
2017.39480	0.30450
2015.46612	0.30488
2013.53744	0.30529
2011.60877	0.30564
2009.68009	0.30595
2007.75142	0.30622
2005.82274	0.30648
2003.89407	0.30676
2001.96539	0.30704
2000.03671	0.30732
1998.10804	0.30758
1996.17936	0.30782
1994.25069	0.30790
1992.32201	0.30798
1990.39334	0.30827
1988.46466	0.30870
1986.53598	0.30910
1984.60731	0.30943
1982.67863	0.30972
1980.74996	0.31000
1978.82128	0.31024
1976.89261	0.31043
1974.96393	0.31063
1973.03525	0.31083
1971.10658	0.31100
1969.17790	0.31112
1967.24923	0.31132
1965.32055	0.31169
1963.39188	0.31207
1961.46320	0.31237
1959.53452	0.31265
1957.60585	0.31292
1955.67717	0.31315
1953.74850	0.31341
1951.81982	0.31373
1949.89115	0.31409
1947.96247	0.31437
1946.03379	0.31446
1944.10512	0.31442
1942.17644	0.31462
1940.24777	0.31519
1938.31909	0.31576
1936.39042	0.31614
1934.46174	0.31643
1932.53306	0.31667
1930.60439	0.31691
1928.67571	0.31718
1926.74704	0.31740
1924.81836	0.31746
1922.88969	0.31759
1920.96101	0.31779
1919.03233	0.31792
1917.10366	0.31831
1915.17498	0.31901
1913.24631	0.31946
1911.31763	0.31957
1909.38896	0.31972
1907.46028	0.32009
1905.53160	0.32055
1903.60293	0.32093
1901.67425	0.32122
1899.74558	0.32142
1897.81690	0.32153
1895.88823	0.32168
1893.95955	0.32197
1892.03087	0.32216
1890.10220	0.32228
1888.17352	0.32265
1886.24485	0.32315
1884.31617	0.32351
1882.38750	0.32379
1880.45882	0.32410
1878.53014	0.32442
1876.60147	0.32473
1874.67279	0.32499
1872.74412	0.32499
1870.81544	0.32461
1868.88677	0.32438
1866.95809	0.32492
1865.02941	0.32584
1863.10074	0.32652
1861.17206	0.32695
1859.24339	0.32729
1857.31471	0.32760
1855.38604	0.32793
1853.45736	0.32825
1851.52868	0.32848
1849.60001	0.32850
1847.67133	0.32826
1845.74266	0.32785
1843.81398	0.32799
1841.88531	0.32894
1839.95663	0.32983
1838.02795	0.33022
1836.09928	0.33052
1834.17060	0.33080
1832.24193	0.33071
1830.31325	0.33051
1828.38458	0.33070
1826.45590	0.33105
1824.52722	0.33151
1822.59855	0.33225
1820.66987	0.33286
1818.74120	0.33313
1816.81252	0.33336
1814.88385	0.33359
1812.95517	0.33363
1811.02649	0.33366
1809.09782	0.33400
1807.16914	0.33449
1805.24047	0.33471
1803.31179	0.33448
1801.38312	0.33428
1799.45444	0.33460
1797.52576	0.33509
1795.59709	0.33514
1793.66841	0.33490
1791.73974	0.33507
1789.81106	0.33585
1787.88239	0.33642
1785.95371	0.33643
1784.02503	0.33648
1782.09636	0.33673
1780.16768	0.33708
1778.23901	0.33754
1776.31033	0.33768
1774.38166	0.33731
1772.45298	0.33697
1770.52430	0.33714
1768.59563	0.33769
1766.66695	0.33844
1764.73828	0.33892
1762.80960	0.33888
1760.88093	0.33892
1758.95225	0.33914
1757.02357	0.33931
1755.09490	0.33942
1753.16622	0.33895
1751.23755	0.33811
1749.30887	0.33793
1747.38020	0.33840
1745.45152	0.33878
1743.52284	0.33893
1741.59417	0.33905
1739.66549	0.33933
1737.73682	0.33943
1735.80814	0.33882
1733.87947	0.33838
1731.95079	0.33906
1730.02211	0.34019
1728.09344	0.34116
1726.16476	0.34179
1724.23609	0.34205
1722.30741	0.34207
1720.37874	0.34151
1718.45006	0.34071
1716.52138	0.34071
1714.59271	0.34159
1712.66403	0.34261
1710.73536	0.34324
1708.80668	0.34322
1706.87801	0.34285
1704.94933	0.34264
1703.02065	0.34203
1701.09198	0.34100
1699.16330	0.34086
1697.23463	0.34150
1695.30595	0.34233
1693.37728	0.34344
1691.44860	0.34398
1689.51992	0.34376
1687.59125	0.34321
1685.66257	0.34229
1683.73390	0.34193
1681.80522	0.34276
1679.87655	0.34374
1677.94787	0.34391
1676.01919	0.34352
1674.09052	0.34336
1672.16184	0.34326
1670.23317	0.34304
1668.30449	0.34356
1666.37582	0.34456
1664.44714	0.34486
1662.51846	0.34481
1660.58979	0.34518
1658.66111	0.34543
1656.73244	0.34449
1654.80376	0.34252
1652.87509	0.34174
1650.94641	0.34294
1649.01773	0.34380
1647.08906	0.34377
1645.16038	0.34437
1643.23171	0.34543
1641.30303	0.34590
1639.37436	0.34555
1637.44568	0.34471
1635.51700	0.34452
1633.58833	0.34554
1631.65965	0.34652
1629.73098	0.34653
1627.80230	0.34615
1625.87363	0.34572
1623.94495	0.34511
1622.01627	0.34479
1620.08760	0.34486
1618.15892	0.34506
1616.23025	0.34593
1614.30157	0.34750
1612.37290	0.34864
1610.44422	0.34906
1608.51554	0.34938
1606.58687	0.34992
1604.65819	0.35047
1602.72952	0.35092
1600.80084	0.35136
1598.87217	0.35174
1596.94349	0.35193
1595.01481	0.35210
1593.08614	0.35243
1591.15746	0.35284
1589.22879	0.35321
1587.30011	0.35359
1585.37144	0.35395
1583.44276	0.35424
1581.51408	0.35443
1579.58541	0.35423
1577.65673	0.35373
1575.72806	0.35383
1573.79938	0.35459
1571.87071	0.35477
1569.94203	0.35451
1568.01335	0.35486
1566.08468	0.35555
1564.15600	0.35582
1562.22733	0.35507
1560.29865	0.35343
1558.36998	0.35286
1556.44130	0.35423
1554.51262	0.35594
1552.58395	0.35684
1550.65527	0.35715
1548.72660	0.35733
1546.79792	0.35720
1544.86925	0.35642
1542.94057	0.35553
1541.01189	0.35522
1539.08322	0.35602
1537.15454	0.35733
1535.22587	0.35785
1533.29719	0.35791
1531.36852	0.35842
1529.43984	0.35876
1527.51116	0.35853
1525.58249	0.35821
1523.65381	0.35757
1521.72514	0.35687
1519.79646	0.35704
1517.86779	0.35779
1515.93911	0.35858
1514.01043	0.35926
1512.08176	0.35926
1510.15308	0.35833
1508.22441	0.35736
1506.29573	0.35789
1504.36706	0.35984
1502.43838	0.36122
1500.50970	0.36119
1498.58103	0.36077
1496.65235	0.36100
1494.72368	0.36175
1492.79500	0.36191
1490.86633	0.36121
1488.93765	0.36087
1487.00897	0.36153
1485.08030	0.36244
1483.15162	0.36286
1481.22295	0.36284
1479.29427	0.36254
1477.36560	0.36182
1475.43692	0.36094
1473.50824	0.36040
1471.57957	0.36062
1469.65089	0.36131
1467.72222	0.36148
1465.79354	0.36115
1463.86487	0.36120
1461.93619	0.36130
1460.00751	0.36030
1458.07884	0.35882
1456.15016	0.35886
1454.22149	0.36043
1452.29281	0.36177
1450.36414	0.36220
1448.43546	0.36227
1446.50678	0.36261
1444.57811	0.36315
1442.64943	0.36348
1440.72076	0.36326
1438.79208	0.36223
1436.86341	0.36136
1434.93473	0.36188
1433.00605	0.36287
1431.07738	0.36314
1429.14870	0.36313
1427.22003	0.36315
1425.29135	0.36294
1423.36268	0.36255
1421.43400	0.36181
1419.50532	0.36094
1417.57665	0.36106
1415.64797	0.36205
1413.71930	0.36272
1411.79062	0.36283
1409.86195	0.36280
1407.93327	0.36265
1406.00459	0.36237
1404.07592	0.36228
1402.14724	0.36225
1400.21857	0.36187
1398.28989	0.36136
1396.36122	0.36103
1394.43254	0.36116
1392.50386	0.36167
1390.57519	0.36167
1388.64651	0.36087
1386.71784	0.36029
1384.78916	0.36043
1382.86049	0.36074
1380.93181	0.36084
1379.00313	0.36073
1377.07446	0.36045
1375.14578	0.36018
1373.21711	0.36027
1371.28843	0.36059
1369.35976	0.36067
1367.43108	0.36055
1365.50240	0.36017
1363.57373	0.35955
1361.64505	0.35942
1359.71638	0.35994
1357.78770	0.36044
1355.85903	0.36061
1353.93035	0.36066
1352.00167	0.36074
1350.07300	0.36086
1348.14432	0.36103
1346.21565	0.36122
1344.28697	0.36128
1342.35830	0.36095
1340.42962	0.36039
1338.50094	0.36024
1336.57227	0.36064
1334.64359	0.36108
1332.71492	0.36118
1330.78624	0.36106
1328.85757	0.36093
1326.92889	0.36083
1325.00021	0.36069
1323.07154	0.36048
1321.14286	0.36016
1319.21419	0.35990
1317.28551	0.35981
1315.35684	0.35976
1313.42816	0.35963
1311.49948	0.35949
1309.57081	0.35930
1307.64213	0.35904
1305.71346	0.35876
1303.78478	0.35844
1301.85611	0.35807
1299.92743	0.35767
1297.99875	0.35730
1296.07008	0.35698
1294.14140	0.35662
1292.21273	0.35616
1290.28405	0.35563
1288.35538	0.35512
1286.42670	0.35469
1284.49802	0.35428
1282.56935	0.35379
1280.64067	0.35321
1278.71200	0.35254
1276.78332	0.35176
1274.85465	0.35083
1272.92597	0.34976
1270.99729	0.34851
1269.06862	0.34697
1267.13994	0.34520
1265.21127	0.34360
1263.28259	0.34247
1261.35392	0.34186
1259.42524	0.34177
1257.49656	0.34202
1255.56789	0.34225
1253.63921	0.34223
1251.71054	0.34194
1249.78186	0.34144
1247.85319	0.34082
1245.92451	0.34011
1243.99583	0.33929
1242.06716	0.33843
1240.13848	0.33757
1238.20981	0.33668
1236.28113	0.33575
1234.35246	0.33479
1232.42378	0.33382
1230.49510	0.33283
1228.56643	0.33185
1226.63775	0.33088
1224.70908	0.32992
1222.78040	0.32902
1220.85173	0.32818
1218.92305	0.32733
1216.99437	0.32643
1215.06570	0.32551
1213.13702	0.32459
1211.20835	0.32368
1209.27967	0.32279
1207.35100	0.32191
1205.42232	0.32105
1203.49364	0.32019
1201.56497	0.31936
1199.63629	0.31856
1197.70762	0.31778
1195.77894	0.31695
1193.85027	0.31606
1191.92159	0.31515
1189.99291	0.31416
1188.06424	0.31304
1186.13556	0.31186
1184.20689	0.31067
1182.27821	0.30945
1180.34954	0.30821
1178.42086	0.30697
1176.49218	0.30568
1174.56351	0.30435
1172.63483	0.30300
1170.70616	0.30162
1168.77748	0.30020
1166.84881	0.29881
1164.92013	0.29749
1162.99145	0.29620
1161.06278	0.29492
1159.13410	0.29367
1157.20543	0.29246
1155.27675	0.29129
1153.34808	0.29013
1151.41940	0.28900
1149.49072	0.28792
1147.56205	0.28690
1145.63337	0.28591
1143.70470	0.28489
1141.77602	0.28386
1139.84735	0.28277
1137.91867	0.28156
1135.98999	0.28033
1134.06132	0.27915
1132.13264	0.27798
1130.20397	0.27676
1128.27529	0.27546
1126.34662	0.27410
1124.41794	0.27268
1122.48926	0.27126
1120.56059	0.26982
1118.63191	0.26837
1116.70324	0.26690
1114.77456	0.26540
1112.84589	0.26393
1110.91721	0.26252
1108.98853	0.26114
1107.05986	0.25972
1105.13118	0.25829
1103.20251	0.25690
1101.27383	0.25555
1099.34516	0.25421
1097.41648	0.25294
1095.48780	0.25179
1093.55913	0.25070
1091.63045	0.24962
1089.70178	0.24857
1087.77310	0.24756
1085.84443	0.24654
1083.91575	0.24550
1081.98707	0.24450
1080.05840	0.24356
1078.12972	0.24269
1076.20105	0.24192
1074.27237	0.24124
1072.34370	0.24067
1070.41502	0.24024
1068.48634	0.23994
1066.55767	0.23973
1064.62899	0.23963
1062.70032	0.23965
1060.77164	0.23978
1058.84297	0.24002
1056.91429	0.24033
1054.98561	0.24065
1053.05694	0.24098
1051.12826	0.24142
1049.19959	0.24194
1047.27091	0.24249
1045.34224	0.24312
1043.41356	0.24384
1041.48488	0.24457
1039.55621	0.24526
1037.62753	0.24596
1035.69886	0.24669
1033.77018	0.24744
1031.84151	0.24819
1029.91283	0.24894
1027.98415	0.24969
1026.05548	0.25042
1024.12680	0.25116
1022.19813	0.25198
1020.26945	0.25290
1018.34078	0.25388
1016.41210	0.25487
1014.48342	0.25600
1012.55475	0.25733
1010.62607	0.25870
1008.69740	0.26003
1006.76872	0.26134
1004.84005	0.26260
1002.91137	0.26370
1000.98269	0.26461
999.05402	0.26541
997.12534	0.26621
995.19667	0.26700
993.26799	0.26766
991.33932	0.26821
989.41064	0.26876
987.48196	0.26935
985.55329	0.26998
983.62461	0.27054
981.69594	0.27095
979.76726	0.27125
977.83859	0.27142
975.90991	0.27146
973.98123	0.27148
972.05256	0.27154
970.12388	0.27158
968.19521	0.27153
966.26653	0.27139
964.33786	0.27122
962.40918	0.27101
960.48050	0.27073
958.55183	0.27041
956.62315	0.27014
954.69448	0.26982
952.76580	0.26940
950.83713	0.26898
948.90845	0.26861
946.97977	0.26817
945.05110	0.26762
943.12242	0.26704
941.19375	0.26647
939.26507	0.26588
937.33640	0.26527
935.40772	0.26469
933.47904	0.26413
931.55037	0.26352
929.62169	0.26280
927.69302	0.26206
925.76434	0.26145
923.83567	0.26094
921.90699	0.26038
919.97831	0.25970
918.04964	0.25895
916.12096	0.25821
914.19229	0.25750
912.26361	0.25676
910.33494	0.25595
908.40626	0.25516
906.47758	0.25443
904.54891	0.25372
902.62023	0.25294
900.69156	0.25210
898.76288	0.25124
896.83421	0.25041
894.90553	0.24960
892.97685	0.24876
891.04818	0.24796
889.11950	0.24717
887.19083	0.24632
885.26215	0.24545
883.33348	0.24462
881.40480	0.24384
879.47612	0.24307
877.54745	0.24232
875.61877	0.24160
873.69010	0.24096
871.76142	0.24037
869.83275	0.23970
867.90407	0.23892
865.97539	0.23813
864.04672	0.23734
862.11804	0.23653
860.18937	0.23570
858.26069	0.23490
856.33202	0.23408
854.40334	0.23319
852.47466	0.23232
850.54599	0.23148
848.61731	0.23059
846.68864	0.22966
844.75996	0.22873
842.83129	0.22780
840.90261	0.22687
838.97394	0.22600
837.04526	0.22516
835.11658	0.22426
833.18791	0.22335
831.25923	0.22242
829.33056	0.22140
827.40188	0.22025
825.47321	0.21907
823.54453	0.21797
821.61585	0.21693
819.68718	0.21595
817.75850	0.21501
815.82983	0.21403
813.90115	0.21298
811.97248	0.21195
810.04380	0.21102
808.11512	0.21017
806.18645	0.20935
804.25777	0.20854
802.32910	0.20773
800.40042	0.20698
798.47175	0.20638
796.54307	0.20594
794.61439	0.20562
792.68572	0.20544
790.75704	0.20525
788.82837	0.20494
786.89969	0.20459
784.97102	0.20423
783.04234	0.20383
781.11366	0.20341
779.18499	0.20294
777.25631	0.20240
775.32764	0.20183
773.39896	0.20133
771.47029	0.20093
769.54161	0.20046
767.61293	0.19984
765.68426	0.19920
763.75558	0.19856
761.82691	0.19782
759.89823	0.19703
757.96956	0.19624
756.04088	0.19543
754.11220	0.19460
752.18353	0.19373
750.25485	0.19279
748.32618	0.19183
746.39750	0.19089
744.46883	0.19005
742.54015	0.18932
740.61147	0.18862
738.68280	0.18798
736.75412	0.18735
734.82545	0.18662
732.89677	0.18589
730.96810	0.18528
729.03942	0.18476
727.11074	0.18417
725.18207	0.18347
723.25339	0.18272
721.32472	0.18201
719.39604	0.18133
717.46737	0.18060
715.53869	0.17982
713.61001	0.17904
711.68134	0.17827
709.75266	0.17746
707.82399	0.17665
705.89531	0.17590
703.96664	0.17518
702.03796	0.17443
700.10928	0.17366
698.18061	0.17293
696.25193	0.17220
694.32326	0.17145
692.39458	0.17065
690.46591	0.16975
688.53723	0.16883
686.60855	0.16801
684.67988	0.16724
682.75120	0.16633
680.82253	0.16527
678.89385	0.16416
676.96518	0.16299
675.03650	0.16172
673.10782	0.16042
671.17915	0.15907
669.25047	0.15761
667.32180	0.15615
665.39312	0.15486
663.46445	0.15355
661.53577	0.15215
659.60709	0.15076
657.67842	0.14938
655.74974	0.14799
653.82107	0.14662
651.89239	0.14526
649.96372	0.14388
648.03504	0.14246
646.10636	0.14104
644.17769	0.13958
642.24901	0.13795
640.32034	0.13617
638.39166	0.13444
636.46299	0.13282
634.53431	0.13116
632.60563	0.12943
630.67696	0.12773
628.74828	0.12609
626.81961	0.12446
624.89093	0.12288
622.96226	0.12136
621.03358	0.11983
619.10490	0.11831
617.17623	0.11677
615.24755	0.11514
613.31888	0.11342
611.39020	0.11167
609.46153	0.11000
607.53285	0.10844
605.60417	0.10698
603.67550	0.10560
601.74682	0.10423
599.81815	0.10281
597.88947	0.10143
595.96080	0.10023
594.03212	0.09912
592.10344	0.09802
590.17477	0.09700
588.24609	0.09605
586.31742	0.09501
584.38874	0.09387
582.46007	0.09278
580.53139	0.09177
578.60271	0.09079
576.67404	0.08982
574.74536	0.08880
572.81669	0.08779
570.88801	0.08686
568.95934	0.08598
567.03066	0.08514
565.10198	0.08439
563.17331	0.08372
561.24463	0.08305
559.31596	0.08239
557.38728	0.08170
555.45861	0.08096
553.52993	0.08024
551.60125	0.07961
549.67258	0.07908
547.74390	0.07860
545.81523	0.07813
543.88655	0.07766
541.95788	0.07722
540.02920	0.07675
538.10052	0.07623
536.17185	0.07581
534.24317	0.07549
532.31450	0.07505
530.38582	0.07447
528.45715	0.07390
526.52847	0.07331
524.59979	0.07263
522.67112	0.07187
520.74244	0.07108
518.81377	0.07025
516.88509	0.06940
514.95642	0.06865
513.02774	0.06803
511.09906	0.06734
509.17039	0.06651
507.24171	0.06564
505.31304	0.06473
503.38436	0.06372
501.45569	0.06268
499.52701	0.06168
497.59833	0.06065
495.66966	0.05959
493.74098	0.05859
491.81231	0.05746
489.88363	0.05609
487.95496	0.05472
486.02628	0.05352
484.09760	0.05244
482.16893	0.05138
480.24025	0.05035
478.31158	0.04931
476.38290	0.04820
474.45423	0.04702
472.52555	0.04583
470.59687	0.04476
468.66820	0.04391
466.73952	0.04320
464.81085	0.04256
462.88217	0.04203
460.95350	0.04165
459.02482	0.04141
457.09614	0.04139
455.16747	0.04153
453.23879	0.04152
451.31012	0.04135
449.38144	0.04121
447.45277	0.04099
445.52409	0.04059
443.59541	0.04010
441.66674	0.03960
439.73806	0.03909
437.80939	0.03848
435.88071	0.03764
433.95204	0.03662
432.02336	0.03550
430.09468	0.03431
428.16601	0.03314
426.23733	0.03198
424.30866	0.03081
422.37998	0.02957
420.45131	0.02827
418.52263	0.02703
416.59395	0.02585
414.66528	0.02467
412.73660	0.02350
410.80793	0.02233
408.87925	0.02114
406.95058	0.02003
405.02190	0.01894
403.09322	0.01778
401.16455	0.01667
399.23587	0.01574
397.30720	0.01490
395.37852	0.01405
393.44985	0.01319
391.52117	0.01233
389.59249	0.01148
387.66382	0.01059
385.73514	0.00974
383.80647	0.00896
381.87779	0.00820
379.94912	0.00755
378.02044	0.00697
376.09176	0.00637
374.16309	0.00578
372.23441	0.00523
370.30574	0.00478
368.37706	0.00447
