7496.76250	0.00207
7494.83382	0.00208
7492.90514	0.00208
7490.97647	0.00209
7489.04779	0.00210
7487.11912	0.00210
7485.19044	0.00210
7483.26177	0.00210
7481.33309	0.00211
7479.40441	0.00212
7477.47574	0.00213
7475.54706	0.00213
7473.61839	0.00214
7471.68971	0.00216
7469.76104	0.00217
7467.83236	0.00217
7465.90368	0.00218
7463.97501	0.00218
7462.04633	0.00219
7460.11766	0.00219
7458.18898	0.00218
7456.26031	0.00218
7454.33163	0.00219
7452.40295	0.00219
7450.47428	0.00219
7448.54560	0.00220
7446.61693	0.00222
7444.68825	0.00224
7442.75958	0.00224
7440.83090	0.00223
7438.90222	0.00222
7436.97355	0.00222
7435.04487	0.00222
7433.11620	0.00224
7431.18752	0.00226
7429.25885	0.00228
7427.33017	0.00229
7425.40149	0.00229
7423.47282	0.00228
7421.54414	0.00229
7419.61547	0.00231
7417.68679	0.00233
7415.75812	0.00233
7413.82944	0.00233
7411.90076	0.00234
7409.97209	0.00235
7408.04341	0.00235
7406.11474	0.00235
7404.18606	0.00236
7402.25739	0.00236
7400.32871	0.00236
7398.40003	0.00237
7396.47136	0.00237
7394.54268	0.00239
7392.61401	0.00240
7390.68533	0.00241
7388.75666	0.00241
7386.82798	0.00241
7384.89930	0.00241
7382.97063	0.00242
7381.04195	0.00241
7379.11328	0.00241
7377.18460	0.00241
7375.25593	0.00241
7373.32725	0.00243
7371.39857	0.00244
7369.46990	0.00246
7367.54122	0.00248
7365.61255	0.00250
7363.68387	0.00250
7361.75520	0.00249
7359.82652	0.00248
7357.89784	0.00248
7355.96917	0.00250
7354.04049	0.00252
7352.11182	0.00253
7350.18314	0.00254
7348.25447	0.00253
7346.32579	0.00253
7344.39711	0.00253
7342.46844	0.00254
7340.53976	0.00255
7338.61109	0.00256
7336.68241	0.00257
7334.75374	0.00258
7332.82506	0.00258
7330.89638	0.00258
7328.96771	0.00258
7327.03903	0.00259
7325.11036	0.00261
7323.18168	0.00262
7321.25301	0.00262
7319.32433	0.00263
7317.39565	0.00264
7315.46698	0.00265
7313.53830	0.00265
7311.60963	0.00265
7309.68095	0.00266
7307.75228	0.00265
7305.82360	0.00265
7303.89492	0.00266
7301.96625	0.00266
7300.03757	0.00267
7298.10890	0.00269
7296.18022	0.00271
7294.25155	0.00272
7292.32287	0.00273
7290.39419	0.00274
7288.46552	0.00275
7286.53684	0.00277
7284.60817	0.00277
7282.67949	0.00275
7280.75082	0.00275
7278.82214	0.00276
7276.89346	0.00276
7274.96479	0.00276
7273.03611	0.00277
7271.10744	0.00278
7269.17876	0.00278
7267.25009	0.00279
7265.32141	0.00280
7263.39273	0.00281
7261.46406	0.00282
7259.53538	0.00282
7257.60671	0.00282
7255.67803	0.00283
7253.74936	0.00282
7251.82068	0.00282
7249.89200	0.00283
7247.96333	0.00285
7246.03465	0.00287
7244.10598	0.00288
7242.17730	0.00289
7240.24863	0.00291
7238.31995	0.00292
7236.39127	0.00292
7234.46260	0.00291
7232.53392	0.00290
7230.60525	0.00291
7228.67657	0.00292
7226.74790	0.00293
7224.81922	0.00293
7222.89054	0.00293
7220.96187	0.00293
7219.03319	0.00293
7217.10452	0.00295
7215.17584	0.00297
7213.24717	0.00298
7211.31849	0.00298
7209.38981	0.00299
7207.46114	0.00300
7205.53246	0.00301
7203.60379	0.00302
7201.67511	0.00303
7199.74644	0.00304
7197.81776	0.00304
7195.88908	0.00304
7193.96041	0.00304
7192.03173	0.00304
7190.10306	0.00304
7188.17438	0.00305
7186.24571	0.00307
7184.31703	0.00308
7182.38835	0.00309
7180.45968	0.00310
7178.53100	0.00312
7176.60233	0.00313
7174.67365	0.00313
7172.74498	0.00313
7170.81630	0.00312
7168.88762	0.00312
7166.95895	0.00314
7165.03027	0.00315
7163.10160	0.00316
7161.17292	0.00317
7159.24425	0.00316
7157.31557	0.00317
7155.38689	0.00317
7153.45822	0.00318
7151.52954	0.00320
7149.60087	0.00321
7147.67219	0.00320
7145.74352	0.00319
7143.81484	0.00320
7141.88616	0.00322
7139.95749	0.00323
7138.02881	0.00323
7136.10014	0.00324
7134.17146	0.00327
7132.24279	0.00330
7130.31411	0.00330
7128.38543	0.00329
7126.45676	0.00328
7124.52808	0.00329
7122.59941	0.00330
7120.67073	0.00330
7118.74206	0.00329
7116.81338	0.00330
7114.88470	0.00332
7112.95603	0.00335
7111.02735	0.00336
7109.09868	0.00336
7107.17000	0.00337
7105.24133	0.00338
7103.31265	0.00338
7101.38397	0.00338
7099.45530	0.00338
7097.52662	0.00339
7095.59795	0.00341
7093.66927	0.00343
7091.74060	0.00343
7089.81192	0.00343
7087.88324	0.00344
7085.95457	0.00344
7084.02589	0.00346
7082.09722	0.00348
7080.16854	0.00350
7078.23987	0.00350
7076.31119	0.00349
7074.38251	0.00350
7072.45384	0.00351
7070.52516	0.00352
7068.59649	0.00353
7066.66781	0.00353
7064.73914	0.00353
7062.81046	0.00352
7060.88178	0.00352
7058.95311	0.00354
7057.02443	0.00356
7055.09576	0.00357
7053.16708	0.00357
7051.23841	0.00357
7049.30973	0.00358
7047.38105	0.00359
7045.45238	0.00359
7043.52370	0.00360
7041.59503	0.00361
7039.66635	0.00363
7037.73768	0.00364
7035.80900	0.00365
7033.88032	0.00366
7031.95165	0.00367
7030.02297	0.00368
7028.09430	0.00369
7026.16562	0.00370
7024.23695	0.00371
7022.30827	0.00372
7020.37959	0.00373
7018.45092	0.00373
7016.52224	0.00373
7014.59357	0.00373
7012.66489	0.00373
7010.73622	0.00373
7008.80754	0.00374
7006.87886	0.00375
7004.95019	0.00376
7003.02151	0.00377
7001.09284	0.00378
6999.16416	0.00379
6997.23549	0.00380
6995.30681	0.00381
6993.37813	0.00382
6991.44946	0.00383
6989.52078	0.00384
6987.59211	0.00384
6985.66343	0.00385
6983.73476	0.00385
6981.80608	0.00385
6979.87740	0.00386
6977.94873	0.00388
6976.02005	0.00391
6974.09138	0.00393
6972.16270	0.00393
6970.23403	0.00392
6968.30535	0.00391
6966.37667	0.00392
6964.44800	0.00394
6962.51932	0.00395
6960.59065	0.00396
6958.66197	0.00396
6956.73330	0.00397
6954.80462	0.00398
6952.87594	0.00400
6950.94727	0.00400
6949.01859	0.00401
6947.08992	0.00401
6945.16124	0.00401
6943.23257	0.00403
6941.30389	0.00404
6939.37521	0.00405
6937.44654	0.00406
6935.51786	0.00408
6933.58919	0.00409
6931.66051	0.00410
6929.73184	0.00409
6927.80316	0.00408
6925.87448	0.00408
6923.94581	0.00410
6922.01713	0.00413
6920.08846	0.00415
6918.15978	0.00416
6916.23111	0.00415
6914.30243	0.00416
6912.37375	0.00417
6910.44508	0.00418
6908.51640	0.00418
6906.58773	0.00417
6904.65905	0.00418
6902.73038	0.00421
6900.80170	0.00423
6898.87302	0.00423
6896.94435	0.00422
6895.01567	0.00422
6893.08700	0.00423
6891.15832	0.00425
6889.22965	0.00428
6887.30097	0.00429
6885.37229	0.00429
6883.44362	0.00429
6881.51494	0.00430
6879.58627	0.00432
6877.65759	0.00433
6875.72892	0.00434
6873.80024	0.00435
6871.87156	0.00438
6869.94289	0.00439
6868.01421	0.00439
6866.08554	0.00439
6864.15686	0.00440
6862.22819	0.00441
6860.29951	0.00442
6858.37083	0.00443
6856.44216	0.00443
6854.51348	0.00445
6852.58481	0.00447
6850.65613	0.00449
6848.72746	0.00450
6846.79878	0.00450
6844.87010	0.00449
6842.94143	0.00449
6841.01275	0.00449
6839.08408	0.00451
6837.15540	0.00452
6835.22673	0.00453
6833.29805	0.00454
6831.36937	0.00455
6829.44070	0.00455
6827.51202	0.00455
6825.58335	0.00457
6823.65467	0.00460
6821.72600	0.00463
6819.79732	0.00464
6817.86864	0.00463
6815.93997	0.00464
6814.01129	0.00465
6812.08262	0.00466
6810.15394	0.00467
6808.22527	0.00468
6806.29659	0.00469
6804.36791	0.00470
6802.43924	0.00470
6800.51056	0.00471
6798.58189	0.00472
6796.65321	0.00474
6794.72454	0.00474
6792.79586	0.00475
6790.86718	0.00475
6788.93851	0.00477
6787.00983	0.00478
6785.08116	0.00478
6783.15248	0.00479
6781.22381	0.00481
6779.29513	0.00484
6777.36645	0.00485
6775.43778	0.00485
6773.50910	0.00486
6771.58043	0.00487
6769.65175	0.00487
6767.72308	0.00488
6765.79440	0.00487
6763.86572	0.00487
6761.93705	0.00488
6760.00837	0.00491
6758.07970	0.00492
6756.15102	0.00492
6754.22235	0.00493
6752.29367	0.00494
6750.36499	0.00497
6748.43632	0.00498
6746.50764	0.00500
6744.57897	0.00500
6742.65029	0.00500
6740.72162	0.00501
6738.79294	0.00503
6736.86426	0.00505
6734.93559	0.00506
6733.00691	0.00508
6731.07824	0.00510
6729.14956	0.00511
6727.22089	0.00511
6725.29221	0.00511
6723.36353	0.00513
6721.43486	0.00514
6719.50618	0.00514
6717.57751	0.00514
6715.64883	0.00515
6713.72016	0.00515
6711.79148	0.00516
6709.86280	0.00517
6707.93413	0.00521
6706.00545	0.00523
6704.07678	0.00524
6702.14810	0.00524
6700.21943	0.00526
6698.29075	0.00526
6696.36207	0.00526
6694.43340	0.00527
6692.50472	0.00528
6690.57605	0.00529
6688.64737	0.00531
6686.71870	0.00533
6684.79002	0.00533
6682.86134	0.00533
6680.93267	0.00534
6679.00399	0.00535
6677.07532	0.00537
6675.14664	0.00539
6673.21797	0.00539
6671.28929	0.00540
6669.36061	0.00541
6667.43194	0.00541
6665.50326	0.00543
6663.57459	0.00545
6661.64591	0.00547
6659.71724	0.00548
6657.78856	0.00549
6655.85988	0.00550
6653.93121	0.00552
6652.00253	0.00552
6650.07386	0.00552
6648.14518	0.00553
6646.21651	0.00553
6644.28783	0.00555
6642.35915	0.00557
6640.43048	0.00559
6638.50180	0.00559
6636.57313	0.00560
6634.64445	0.00562
6632.71578	0.00563
6630.78710	0.00565
6628.85842	0.00566
6626.92975	0.00567
6625.00107	0.00568
6623.07240	0.00570
6621.14372	0.00572
6619.21505	0.00574
6617.28637	0.00574
6615.35769	0.00573
6613.42902	0.00573
6611.50034	0.00575
6609.57167	0.00578
6607.64299	0.00581
6605.71432	0.00583
6603.78564	0.00584
6601.85696	0.00582
6599.92829	0.00582
6597.99961	0.00583
6596.07094	0.00584
6594.14226	0.00586
6592.21359	0.00589
6590.28491	0.00591
6588.35623	0.00592
6586.42756	0.00593
6584.49888	0.00594
6582.57021	0.00595
6580.64153	0.00595
6578.71286	0.00596
6576.78418	0.00599
6574.85550	0.00600
6572.92683	0.00600
6570.99815	0.00600
6569.06948	0.00602
6567.14080	0.00604
6565.21213	0.00606
6563.28345	0.00606
6561.35477	0.00607
6559.42610	0.00610
6557.49742	0.00613
6555.56875	0.00614
6553.64007	0.00616
6551.71140	0.00618
6549.78272	0.00618
6547.85404	0.00619
6545.92537	0.00620
6543.99669	0.00620
6542.06802	0.00621
6540.13934	0.00623
6538.21067	0.00624
6536.28199	0.00625
6534.35331	0.00626
6532.42464	0.00628
6530.49596	0.00629
6528.56729	0.00630
6526.63861	0.00631
6524.70994	0.00634
6522.78126	0.00637
6520.85258	0.00638
6518.92391	0.00638
6516.99523	0.00639
6515.06656	0.00640
6513.13788	0.00641
6511.20921	0.00642
6509.28053	0.00643
6507.35185	0.00643
6505.42318	0.00643
6503.49450	0.00644
6501.56583	0.00647
6499.63715	0.00650
6497.70848	0.00651
6495.77980	0.00653
6493.85112	0.00655
6491.92245	0.00656
6489.99377	0.00657
6488.06510	0.00659
6486.13642	0.00659
6484.20775	0.00660
6482.27907	0.00660
6480.35039	0.00662
6478.42172	0.00664
6476.49304	0.00666
6474.56437	0.00668
6472.63569	0.00670
6470.70702	0.00672
6468.77834	0.00671
6466.84966	0.00671
6464.92099	0.00672
6462.99231	0.00673
6461.06364	0.00674
6459.13496	0.00676
6457.20629	0.00680
6455.27761	0.00683
6453.34893	0.00685
6451.42026	0.00686
6449.49158	0.00688
6447.56291	0.00689
6445.63423	0.00691
6443.70556	0.00691
6441.77688	0.00692
6439.84820	0.00693
6437.91953	0.00695
6435.99085	0.00696
6434.06218	0.00698
6432.13350	0.00700
6430.20483	0.00701
6428.27615	0.00701
6426.34747	0.00701
6424.41880	0.00703
6422.49012	0.00706
6420.56145	0.00709
6418.63277	0.00709
6416.70410	0.00709
6414.77542	0.00710
6412.84674	0.00713
6410.91807	0.00716
6408.98939	0.00719
6407.06072	0.00721
6405.13204	0.00722
6403.20337	0.00723
6401.27469	0.00725
6399.34601	0.00726
6397.41734	0.00726
6395.48866	0.00727
6393.55999	0.00728
6391.63131	0.00729
6389.70264	0.00730
6387.77396	0.00731
6385.84528	0.00734
6383.91661	0.00737
6381.98793	0.00739
6380.05926	0.00740
6378.13058	0.00742
6376.20191	0.00745
6374.27323	0.00747
6372.34455	0.00750
6370.41588	0.00750
6368.48720	0.00749
6366.55853	0.00749
6364.62985	0.00752
6362.70118	0.00755
6360.77250	0.00756
6358.84382	0.00758
6356.91515	0.00760
6354.98647	0.00761
6353.05780	0.00762
6351.12912	0.00763
6349.20045	0.00763
6347.27177	0.00764
6345.34309	0.00767
6343.41442	0.00770
6341.48574	0.00770
6339.55707	0.00769
6337.62839	0.00770
6335.69972	0.00773
6333.77104	0.00776
6331.84236	0.00778
6329.91369	0.00779
6327.98501	0.00780
6326.05634	0.00781
6324.12766	0.00781
6322.19899	0.00783
6320.27031	0.00787
6318.34163	0.00790
6316.41296	0.00791
6314.48428	0.00793
6312.55561	0.00794
6310.62693	0.00796
6308.69826	0.00798
6306.76958	0.00800
6304.84090	0.00801
6302.91223	0.00802
6300.98355	0.00804
6299.05488	0.00806
6297.12620	0.00807
6295.19753	0.00808
6293.26885	0.00810
6291.34017	0.00812
6289.41150	0.00814
6287.48282	0.00816
6285.55415	0.00818
6283.62547	0.00819
6281.69680	0.00820
6279.76812	0.00823
6277.83944	0.00827
6275.91077	0.00828
6273.98209	0.00827
6272.05342	0.00826
6270.12474	0.00828
6268.19607	0.00831
6266.26739	0.00834
6264.33871	0.00835
6262.41004	0.00837
6260.48136	0.00839
6258.55269	0.00841
6256.62401	0.00842
6254.69534	0.00843
6252.76666	0.00845
6250.83798	0.00847
6248.90931	0.00850
6246.98063	0.00853
6245.05196	0.00855
6243.12328	0.00858
6241.19461	0.00859
6239.26593	0.00859
6237.33725	0.00860
6235.40858	0.00861
6233.47990	0.00863
6231.55123	0.00865
6229.62255	0.00869
6227.69388	0.00871
6225.76520	0.00873
6223.83652	0.00875
6221.90785	0.00877
6219.97917	0.00879
6218.05050	0.00880
6216.12182	0.00879
6214.19315	0.00879
6212.26447	0.00882
6210.33579	0.00886
6208.40712	0.00889
6206.47844	0.00891
6204.54977	0.00892
6202.62109	0.00893
6200.69242	0.00895
6198.76374	0.00897
6196.83506	0.00899
6194.90639	0.00901
6192.97771	0.00903
6191.04904	0.00905
6189.12036	0.00907
6187.19169	0.00909
6185.26301	0.00910
6183.33433	0.00909
6181.40566	0.00911
6179.47698	0.00914
6177.54831	0.00919
6175.61963	0.00922
6173.69096	0.00923
6171.76228	0.00923
6169.83360	0.00924
6167.90493	0.00927
6165.97625	0.00930
6164.04758	0.00933
6162.11890	0.00934
6160.19023	0.00935
6158.26155	0.00936
6156.33287	0.00939
6154.40420	0.00941
6152.47552	0.00942
6150.54685	0.00944
6148.61817	0.00947
6146.68950	0.00950
6144.76082	0.00952
6142.83214	0.00954
6140.90347	0.00954
6138.97479	0.00955
6137.04612	0.00956
6135.11744	0.00959
6133.18877	0.00961
6131.26009	0.00962
6129.33141	0.00966
6127.40274	0.00970
6125.47406	0.00973
6123.54539	0.00975
6121.61671	0.00978
6119.68804	0.00979
6117.75936	0.00980
6115.83068	0.00981
6113.90201	0.00982
6111.97333	0.00984
6110.04466	0.00986
6108.11598	0.00988
6106.18731	0.00990
6104.25863	0.00993
6102.32995	0.00997
6100.40128	0.00998
6098.47260	0.00998
6096.54393	0.00999
6094.61525	0.01003
6092.68658	0.01007
6090.75790	0.01010
6088.82922	0.01011
6086.90055	0.01012
6084.97187	0.01012
6083.04320	0.01012
6081.11452	0.01013
6079.18585	0.01017
6077.25717	0.01021
6075.32849	0.01024
6073.39982	0.01025
6071.47114	0.01026
6069.54247	0.01027
6067.61379	0.01031
6065.68512	0.01035
6063.75644	0.01037
6061.82776	0.01039
6059.89909	0.01040
6057.97041	0.01041
6056.04174	0.01044
6054.11306	0.01046
6052.18439	0.01049
6050.25571	0.01053
6048.32703	0.01057
6046.39836	0.01060
6044.46968	0.01060
6042.54101	0.01060
6040.61233	0.01062
6038.68366	0.01065
6036.75498	0.01069
6034.82630	0.01071
6032.89763	0.01073
6030.96895	0.01076
6029.04028	0.01078
6027.11160	0.01079
6025.18293	0.01080
6023.25425	0.01083
6021.32557	0.01085
6019.39690	0.01086
6017.46822	0.01089
6015.53955	0.01091
6013.61087	0.01094
6011.68220	0.01096
6009.75352	0.01099
6007.82484	0.01102
6005.89617	0.01105
6003.96749	0.01107
6002.03882	0.01110
6000.11014	0.01113
5998.18147	0.01115
5996.25279	0.01116
5994.32411	0.01118
5992.39544	0.01119
5990.46676	0.01119
5988.53809	0.01122
5986.60941	0.01126
5984.68074	0.01128
5982.75206	0.01129
5980.82338	0.01131
5978.89471	0.01133
5976.96603	0.01136
5975.03736	0.01140
5973.10868	0.01143
5971.18001	0.01145
5969.25133	0.01148
5967.32265	0.01151
5965.39398	0.01153
5963.46530	0.01154
5961.53663	0.01156
5959.60795	0.01159
5957.67928	0.01161
5955.75060	0.01164
5953.82192	0.01166
5951.89325	0.01168
5949.96457	0.01168
5948.03590	0.01170
5946.10722	0.01174
5944.17855	0.01177
5942.24987	0.01179
5940.32119	0.01182
5938.39252	0.01185
5936.46384	0.01186
5934.53517	0.01187
5932.60649	0.01189
5930.67782	0.01193
5928.74914	0.01196
5926.82046	0.01200
5924.89179	0.01202
5922.96311	0.01203
5921.03444	0.01206
5919.10576	0.01211
5917.17709	0.01214
5915.24841	0.01216
5913.31973	0.01217
5911.39106	0.01219
5909.46238	0.01219
5907.53371	0.01220
5905.60503	0.01223
5903.67636	0.01227
5901.74768	0.01230
5899.81900	0.01232
5897.89033	0.01235
5895.96165	0.01239
5894.03298	0.01242
5892.10430	0.01244
5890.17563	0.01247
5888.24695	0.01248
5886.31827	0.01250
5884.38960	0.01251
5882.46092	0.01253
5880.53225	0.01256
5878.60357	0.01261
5876.67490	0.01267
5874.74622	0.01271
5872.81755	0.01272
5870.88887	0.01274
5868.96019	0.01276
5867.03152	0.01277
5865.10284	0.01279
5863.17417	0.01280
5861.24549	0.01283
5859.31682	0.01288
5857.38814	0.01291
5855.45946	0.01292
5853.53079	0.01295
5851.60211	0.01300
5849.67344	0.01302
5847.74476	0.01303
5845.81609	0.01304
5843.88741	0.01307
5841.95873	0.01309
5840.03006	0.01313
5838.10138	0.01316
5836.17271	0.01319
5834.24403	0.01322
5832.31536	0.01325
5830.38668	0.01327
5828.45800	0.01330
5826.52933	0.01333
5824.60065	0.01335
5822.67198	0.01336
5820.74330	0.01338
5818.81463	0.01343
5816.88595	0.01347
5814.95727	0.01349
5813.02860	0.01351
5811.09992	0.01354
5809.17125	0.01356
5807.24257	0.01359
5805.31390	0.01363
5803.38522	0.01365
5801.45654	0.01367
5799.52787	0.01370
5797.59919	0.01373
5795.67052	0.01374
5793.74184	0.01376
5791.81317	0.01379
5789.88449	0.01383
5787.95581	0.01386
5786.02714	0.01388
5784.09846	0.01391
5782.16979	0.01394
5780.24111	0.01397
5778.31244	0.01399
5776.38376	0.01402
5774.45508	0.01405
5772.52641	0.01407
5770.59773	0.01411
5768.66906	0.01416
5766.74038	0.01420
5764.81171	0.01423
5762.88303	0.01424
5760.95435	0.01426
5759.02568	0.01429
5757.09700	0.01432
5755.16833	0.01435
5753.23965	0.01437
5751.31098	0.01438
5749.38230	0.01442
5747.45362	0.01447
5745.52495	0.01452
5743.59627	0.01455
5741.66760	0.01457
5739.73892	0.01457
5737.81025	0.01459
5735.88157	0.01463
5733.95289	0.01466
5732.02422	0.01468
5730.09554	0.01469
5728.16687	0.01472
5726.23819	0.01477
5724.30952	0.01480
5722.38084	0.01483
5720.45216	0.01486
5718.52349	0.01490
5716.59481	0.01493
5714.66614	0.01495
5712.73746	0.01497
5710.80879	0.01499
5708.88011	0.01502
5706.95143	0.01506
5705.02276	0.01510
5703.09408	0.01515
5701.16541	0.01518
5699.23673	0.01521
5697.30806	0.01522
5695.37938	0.01525
5693.45070	0.01528
5691.52203	0.01532
5689.59335	0.01534
5687.66468	0.01536
5685.73600	0.01540
5683.80733	0.01544
5681.87865	0.01546
5679.94997	0.01549
5678.02130	0.01553
5676.09262	0.01558
5674.16395	0.01561
5672.23527	0.01563
5670.30660	0.01564
5668.37792	0.01568
5666.44924	0.01572
5664.52057	0.01575
5662.59189	0.01577
5660.66322	0.01581
5658.73454	0.01585
5656.80587	0.01587
5654.87719	0.01589
5652.94851	0.01591
5651.01984	0.01594
5649.09116	0.01598
5647.16249	0.01601
5645.23381	0.01605
5643.30514	0.01609
5641.37646	0.01612
5639.44778	0.01616
5637.51911	0.01618
5635.59043	0.01623
5633.66176	0.01627
5631.73308	0.01629
5629.80441	0.01630
5627.87573	0.01633
5625.94705	0.01638
5624.01838	0.01642
5622.08970	0.01646
5620.16103	0.01649
5618.23235	0.01651
5616.30368	0.01652
5614.37500	0.01655
5612.44632	0.01659
5610.51765	0.01663
5608.58897	0.01668
5606.66030	0.01672
5604.73162	0.01674
5602.80295	0.01676
5600.87427	0.01679
5598.94559	0.01682
5597.01692	0.01683
5595.08824	0.01685
5593.15957	0.01688
5591.23089	0.01692
5589.30222	0.01697
5587.37354	0.01701
5585.44486	0.01705
5583.51619	0.01708
5581.58751	0.01712
5579.65884	0.01716
5577.73016	0.01720
5575.80149	0.01723
5573.87281	0.01726
5571.94413	0.01727
5570.01546	0.01729
5568.08678	0.01732
5566.15811	0.01736
5564.22943	0.01740
5562.30076	0.01744
5560.37208	0.01746
5558.44340	0.01749
5556.51473	0.01753
5554.58605	0.01757
5552.65738	0.01761
5550.72870	0.01765
5548.80003	0.01768
5546.87135	0.01771
5544.94267	0.01776
5543.01400	0.01780
5541.08532	0.01783
5539.15665	0.01786
5537.22797	0.01789
5535.29930	0.01791
5533.37062	0.01792
5531.44194	0.01795
5529.51327	0.01799
5527.58459	0.01804
5525.65592	0.01808
5523.72724	0.01812
5521.79857	0.01816
5519.86989	0.01820
5517.94121	0.01823
5516.01254	0.01825
5514.08386	0.01826
5512.15519	0.01830
5510.22651	0.01835
5508.29784	0.01837
5506.36916	0.01840
5504.44048	0.01845
5502.51181	0.01849
5500.58313	0.01851
5498.65446	0.01853
5496.72578	0.01856
5494.79711	0.01862
5492.86843	0.01868
5490.93975	0.01872
5489.01108	0.01873
5487.08240	0.01874
5485.15373	0.01877
5483.22505	0.01882
5481.29638	0.01887
5479.36770	0.01889
5477.43902	0.01890
5475.51035	0.01893
5473.58167	0.01898
5471.65300	0.01904
5469.72432	0.01909
5467.79565	0.01914
5465.86697	0.01918
5463.93829	0.01919
5462.00962	0.01920
5460.08094	0.01922
5458.15227	0.01928
5456.22359	0.01936
5454.29492	0.01940
5452.36624	0.01941
5450.43756	0.01941
5448.50889	0.01945
5446.58021	0.01949
5444.65154	0.01953
5442.72286	0.01956
5440.79419	0.01960
5438.86551	0.01964
5436.93683	0.01967
5435.00816	0.01968
5433.07948	0.01972
5431.15081	0.01977
5429.22213	0.01980
5427.29346	0.01983
5425.36478	0.01988
5423.43610	0.01993
5421.50743	0.01999
5419.57875	0.02005
5417.65008	0.02009
5415.72140	0.02009
5413.79273	0.02008
5411.86405	0.02010
5409.93537	0.02014
5408.00670	0.02018
5406.07802	0.02023
5404.14935	0.02028
5402.22067	0.02033
5400.29200	0.02038
5398.36332	0.02042
5396.43464	0.02044
5394.50597	0.02046
5392.57729	0.02050
5390.64862	0.02055
5388.71994	0.02059
5386.79127	0.02062
5384.86259	0.02067
5382.93391	0.02074
5381.00524	0.02079
5379.07656	0.02081
5377.14789	0.02083
5375.21921	0.02087
5373.29054	0.02092
5371.36186	0.02097
5369.43318	0.02101
5367.50451	0.02104
5365.57583	0.02106
5363.64716	0.02109
5361.71848	0.02114
5359.78981	0.02118
5357.86113	0.02121
5355.93245	0.02123
5354.00378	0.02125
5352.07510	0.02129
5350.14643	0.02134
5348.21775	0.02137
5346.28908	0.02138
5344.36040	0.02140
5342.43172	0.02147
5340.50305	0.02153
5338.57437	0.02156
5336.64570	0.02159
5334.71702	0.02164
5332.78835	0.02169
5330.85967	0.02173
5328.93099	0.02176
5327.00232	0.02180
5325.07364	0.02187
5323.14497	0.02194
5321.21629	0.02199
5319.28762	0.02202
5317.35894	0.02203
5315.43026	0.02205
5313.50159	0.02209
5311.57291	0.02215
5309.64424	0.02217
5307.71556	0.02219
5305.78689	0.02223
5303.85821	0.02230
5301.92953	0.02236
5300.00086	0.02239
5298.07218	0.02242
5296.14351	0.02246
5294.21483	0.02251
5292.28616	0.02256
5290.35748	0.02259
5288.42880	0.02262
5286.50013	0.02265
5284.57145	0.02268
5282.64278	0.02273
5280.71410	0.02277
5278.78543	0.02279
5276.85675	0.02282
5274.92807	0.02287
5272.99940	0.02293
5271.07072	0.02297
5269.14205	0.02299
5267.21337	0.02301
5265.28470	0.02305
5263.35602	0.02311
5261.42734	0.02317
5259.49867	0.02323
5257.56999	0.02326
5255.64132	0.02326
5253.71264	0.02329
5251.78397	0.02333
5249.85529	0.02335
5247.92661	0.02338
5245.99794	0.02345
5244.06926	0.02352
5242.14059	0.02357
5240.21191	0.02362
5238.28324	0.02366
5236.35456	0.02369
5234.42588	0.02372
5232.49721	0.02376
5230.56853	0.02382
5228.63986	0.02386
5226.71118	0.02386
5224.78251	0.02387
5222.85383	0.02392
5220.92515	0.02398
5218.99648	0.02404
5217.06780	0.02410
5215.13913	0.02417
5213.21045	0.02423
5211.28178	0.02424
5209.35310	0.02424
5207.42442	0.02425
5205.49575	0.02429
5203.56707	0.02435
5201.63840	0.02442
5199.70972	0.02449
5197.78105	0.02452
5195.85237	0.02455
5193.92369	0.02458
5191.99502	0.02462
5190.06634	0.02466
5188.13767	0.02469
5186.20899	0.02473
5184.28032	0.02479
5182.35164	0.02485
5180.42296	0.02489
5178.49429	0.02493
5176.56561	0.02498
5174.63694	0.02504
5172.70826	0.02509
5170.77959	0.02513
5168.85091	0.02515
5166.92223	0.02518
5164.99356	0.02525
5163.06488	0.02530
5161.13621	0.02534
5159.20753	0.02537
5157.27886	0.02541
5155.35018	0.02545
5153.42150	0.02549
5151.49283	0.02552
5149.56415	0.02554
5147.63548	0.02558
5145.70680	0.02562
5143.77813	0.02567
5141.84945	0.02572
5139.92077	0.02578
5137.99210	0.02582
5136.06342	0.02585
5134.13475	0.02589
5132.20607	0.02595
5130.27740	0.02601
5128.34872	0.02605
5126.42004	0.02608
5124.49137	0.02612
5122.56269	0.02617
5120.63402	0.02621
5118.70534	0.02627
5116.77667	0.02632
5114.84799	0.02637
5112.91931	0.02640
5110.99064	0.02646
5109.06196	0.02651
5107.13329	0.02654
5105.20461	0.02656
5103.27594	0.02660
5101.34726	0.02666
5099.41858	0.02672
5097.48991	0.02677
5095.56123	0.02682
5093.63256	0.02686
5091.70388	0.02690
5089.77521	0.02693
5087.84653	0.02696
5085.91785	0.02699
5083.98918	0.02702
5082.06050	0.02706
5080.13183	0.02711
5078.20315	0.02716
5076.27448	0.02721
5074.34580	0.02726
5072.41712	0.02730
5070.48845	0.02736
5068.55977	0.02740
5066.63110	0.02744
5064.70242	0.02750
5062.77375	0.02756
5060.84507	0.02760
5058.91639	0.02765
5056.98772	0.02770
5055.05904	0.02775
5053.13037	0.02781
5051.20169	0.02787
5049.27302	0.02790
5047.34434	0.02791
5045.41566	0.02792
5043.48699	0.02795
5041.55831	0.02800
5039.62964	0.02805
5037.70096	0.02812
5035.77229	0.02819
5033.84361	0.02823
5031.91493	0.02826
5029.98626	0.02830
5028.05758	0.02834
5026.12891	0.02839
5024.20023	0.02845
5022.27156	0.02851
5020.34288	0.02854
5018.41420	0.02857
5016.48553	0.02860
5014.55685	0.02863
5012.62818	0.02867
5010.69950	0.02874
5008.77083	0.02882
5006.84215	0.02887
5004.91347	0.02891
5002.98480	0.02897
5001.05612	0.02903
4999.12745	0.02908
4997.19877	0.02911
4995.27010	0.02915
4993.34142	0.02920
4991.41274	0.02925
4989.48407	0.02930
4987.55539	0.02934
4985.62672	0.02938
4983.69804	0.02943
4981.76937	0.02947
4979.84069	0.02951
4977.91201	0.02955
4975.98334	0.02960
4974.05466	0.02964
4972.12599	0.02968
4970.19731	0.02972
4968.26864	0.02978
4966.33996	0.02983
4964.41128	0.02988
4962.48261	0.02992
4960.55393	0.02996
4958.62526	0.03001
4956.69658	0.03005
4954.76791	0.03011
4952.83923	0.03017
4950.91055	0.03024
4948.98188	0.03030
4947.05320	0.03034
4945.12453	0.03038
4943.19585	0.03041
4941.26718	0.03044
4939.33850	0.03049
4937.40982	0.03054
4935.48115	0.03060
4933.55247	0.03069
4931.62380	0.03075
4929.69512	0.03078
4927.76645	0.03080
4925.83777	0.03084
4923.90909	0.03089
4921.98042	0.03094
4920.05174	0.03099
4918.12307	0.03105
4916.19439	0.03110
4914.26572	0.03114
4912.33704	0.03119
4910.40836	0.03124
4908.47969	0.03128
4906.55101	0.03131
4904.62234	0.03136
4902.69366	0.03142
4900.76499	0.03148
4898.83631	0.03154
4896.90763	0.03158
4894.97896	0.03163
4893.05028	0.03167
4891.12161	0.03171
4889.19293	0.03176
4887.26426	0.03183
4885.33558	0.03188
4883.40690	0.03193
4881.47823	0.03198
4879.54955	0.03204
4877.62088	0.03209
4875.69220	0.03215
4873.76353	0.03220
4871.83485	0.03225
4869.90617	0.03232
4867.97750	0.03239
4866.04882	0.03243
4864.12015	0.03246
4862.19147	0.03249
4860.26280	0.03253
4858.33412	0.03258
4856.40544	0.03263
4854.47677	0.03270
4852.54809	0.03277
4850.61942	0.03284
4848.69074	0.03287
4846.76207	0.03291
4844.83339	0.03295
4842.90471	0.03299
4840.97604	0.03303
4839.04736	0.03309
4837.11869	0.03317
4835.19001	0.03325
4833.26134	0.03330
4831.33266	0.03334
4829.40398	0.03338
4827.47531	0.03343
4825.54663	0.03349
4823.61796	0.03353
4821.68928	0.03356
4819.76061	0.03361
4817.83193	0.03368
4815.90325	0.03376
4813.97458	0.03383
4812.04590	0.03389
4810.11723	0.03394
4808.18855	0.03399
4806.25988	0.03402
4804.33120	0.03404
4802.40252	0.03407
4800.47385	0.03413
4798.54517	0.03420
4796.61650	0.03425
4794.68782	0.03431
4792.75915	0.03439
4790.83047	0.03447
4788.90179	0.03453
4786.97312	0.03458
4785.04444	0.03463
4783.11577	0.03471
4781.18709	0.03479
4779.25842	0.03484
4777.32974	0.03488
4775.40106	0.03491
4773.47239	0.03496
4771.54371	0.03503
4769.61504	0.03509
4767.68636	0.03514
4765.75769	0.03518
4763.82901	0.03522
4761.90033	0.03527
4759.97166	0.03531
4758.04298	0.03535
4756.11431	0.03540
4754.18563	0.03547
4752.25696	0.03551
4750.32828	0.03555
4748.39960	0.03560
4746.47093	0.03568
4744.54225	0.03575
4742.61358	0.03581
4740.68490	0.03586
4738.75623	0.03592
4736.82755	0.03596
4734.89887	0.03600
4732.97020	0.03607
4731.04152	0.03615
4729.11285	0.03622
4727.18417	0.03628
4725.25550	0.03635
4723.32682	0.03642
4721.39814	0.03648
4719.46947	0.03653
4717.54079	0.03657
4715.61212	0.03661
4713.68344	0.03666
4711.75477	0.03672
4709.82609	0.03677
4707.89741	0.03682
4705.96874	0.03688
4704.04006	0.03694
4702.11139	0.03699
4700.18271	0.03706
4698.25404	0.03713
4696.32536	0.03719
4694.39668	0.03723
4692.46801	0.03727
4690.53933	0.03733
4688.61066	0.03741
4686.68198	0.03747
4684.75331	0.03754
4682.82463	0.03760
4680.89595	0.03767
4678.96728	0.03774
4677.03860	0.03781
4675.10993	0.03786
4673.18125	0.03790
4671.25258	0.03796
4669.32390	0.03803
4667.39522	0.03811
4665.46655	0.03817
4663.53787	0.03822
4661.60920	0.03827
4659.68052	0.03832
4657.75185	0.03840
4655.82317	0.03848
4653.89449	0.03856
4651.96582	0.03862
4650.03714	0.03866
4648.10847	0.03871
4646.17979	0.03878
4644.25112	0.03884
4642.32244	0.03891
4640.39376	0.03898
4638.46509	0.03904
4636.53641	0.03911
4634.60774	0.03917
4632.67906	0.03923
4630.75039	0.03929
4628.82171	0.03934
4626.89303	0.03940
4624.96436	0.03947
4623.03568	0.03955
4621.10701	0.03962
4619.17833	0.03968
4617.24966	0.03972
4615.32098	0.03977
4613.39230	0.03984
4611.46363	0.03992
4609.53495	0.04001
4607.60628	0.04010
4605.67760	0.04017
4603.74893	0.04021
4601.82025	0.04022
4599.89157	0.04025
4597.96290	0.04033
4596.03422	0.04043
4594.10555	0.04052
4592.17687	0.04058
4590.24820	0.04065
4588.31952	0.04072
4586.39084	0.04078
4584.46217	0.04083
4582.53349	0.04089
4580.60482	0.04094
4578.67614	0.04102
4576.74747	0.04111
4574.81879	0.04119
4572.89011	0.04125
4570.96144	0.04131
4569.03276	0.04138
4567.10409	0.04146
4565.17541	0.04151
4563.24674	0.04156
4561.31806	0.04162
4559.38938	0.04170
4557.46071	0.04177
4555.53203	0.04183
4553.60336	0.04189
4551.67468	0.04197
4549.74601	0.04206
4547.81733	0.04213
4545.88865	0.04221
4543.95998	0.04230
4542.03130	0.04238
4540.10263	0.04244
4538.17395	0.04250
4536.24528	0.04258
4534.31660	0.04267
4532.38792	0.04275
4530.45925	0.04281
4528.53057	0.04287
4526.60190	0.04292
4524.67322	0.04298
4522.74455	0.04306
4520.81587	0.04312
4518.88719	0.04319
4516.95852	0.04327
4515.02984	0.04336
4513.10117	0.04343
4511.17249	0.04349
4509.24382	0.04356
4507.31514	0.04365
4505.38646	0.04372
4503.45779	0.04378
4501.52911	0.04383
4499.60044	0.04390
4497.67176	0.04399
4495.74309	0.04408
4493.81441	0.04418
4491.88573	0.04426
4489.95706	0.04432
4488.02838	0.04438
4486.09971	0.04444
4484.17103	0.04449
4482.24236	0.04454
4480.31368	0.04460
4478.38500	0.04469
4476.45633	0.04479
4474.52765	0.04489
4472.59898	0.04496
4470.67030	0.04501
4468.74163	0.04508
4466.81295	0.04516
4464.88427	0.04524
4462.95560	0.04534
4461.02692	0.04543
4459.09825	0.04549
4457.16957	0.04554
4455.24090	0.04562
4453.31222	0.04572
4451.38354	0.04581
4449.45487	0.04590
4447.52619	0.04599
4445.59752	0.04606
4443.66884	0.04613
4441.74017	0.04618
4439.81149	0.04625
4437.88281	0.04635
4435.95414	0.04647
4434.02546	0.04655
4432.09679	0.04661
4430.16811	0.04668
4428.23944	0.04679
4426.31076	0.04688
4424.38208	0.04697
4422.45341	0.04705
4420.52473	0.04714
4418.59606	0.04722
4416.66738	0.04730
4414.73871	0.04738
4412.81003	0.04747
4410.88135	0.04757
4408.95268	0.04764
4407.02400	0.04770
4405.09533	0.04776
4403.16665	0.04784
4401.23798	0.04793
4399.30930	0.04803
4397.38062	0.04813
4395.45195	0.04822
4393.52327	0.04829
4391.59460	0.04836
4389.66592	0.04843
4387.73725	0.04851
4385.80857	0.04859
4383.87989	0.04867
4381.95122	0.04873
4380.02254	0.04881
4378.09387	0.04890
4376.16519	0.04899
4374.23652	0.04909
4372.30784	0.04920
4370.37916	0.04929
4368.45049	0.04937
4366.52181	0.04946
4364.59314	0.04955
4362.66446	0.04964
4360.73579	0.04973
4358.80711	0.04981
4356.87843	0.04990
4354.94976	0.05000
4353.02108	0.05010
4351.09241	0.05017
4349.16373	0.05024
4347.23506	0.05033
4345.30638	0.05043
4343.37770	0.05054
4341.44903	0.05062
4339.52035	0.05070
4337.59168	0.05078
4335.66300	0.05087
4333.73433	0.05098
4331.80565	0.05109
4329.87697	0.05119
4327.94830	0.05128
4326.01962	0.05135
4324.09095	0.05142
4322.16227	0.05150
4320.23360	0.05159
4318.30492	0.05169
4316.37624	0.05178
4314.44757	0.05188
4312.51889	0.05199
4310.59022	0.05208
4308.66154	0.05216
4306.73287	0.05226
4304.80419	0.05237
4302.87551	0.05247
4300.94684	0.05257
4299.01816	0.05267
4297.08949	0.05277
4295.16081	0.05285
4293.23214	0.05295
4291.30346	0.05305
4289.37478	0.05316
4287.44611	0.05328
4285.51743	0.05339
4283.58876	0.05349
4281.66008	0.05358
4279.73141	0.05367
4277.80273	0.05376
4275.87405	0.05385
4273.94538	0.05395
4272.01670	0.05403
4270.08803	0.05411
4268.15935	0.05421
4266.23068	0.05433
4264.30200	0.05444
4262.37332	0.05453
4260.44465	0.05462
4258.51597	0.05471
4256.58730	0.05480
4254.65862	0.05489
4252.72995	0.05498
4250.80127	0.05509
4248.87259	0.05520
4246.94392	0.05532
4245.01524	0.05542
4243.08657	0.05553
4241.15789	0.05565
4239.22922	0.05575
4237.30054	0.05583
4235.37186	0.05593
4233.44319	0.05603
4231.51451	0.05614
4229.58584	0.05623
4227.65716	0.05631
4225.72849	0.05640
4223.79981	0.05649
4221.87113	0.05659
4219.94246	0.05672
4218.01378	0.05683
4216.08511	0.05693
4214.15643	0.05703
4212.22776	0.05715
4210.29908	0.05727
4208.37040	0.05739
4206.44173	0.05751
4204.51305	0.05762
4202.58438	0.05772
4200.65570	0.05781
4198.72703	0.05789
4196.79835	0.05798
4194.86968	0.05810
4192.94100	0.05821
4191.01232	0.05832
4189.08365	0.05842
4187.15497	0.05854
4185.22630	0.05865
4183.29762	0.05876
4181.36895	0.05887
4179.44027	0.05898
4177.51159	0.05910
4175.58292	0.05922
4173.65424	0.05934
4171.72557	0.05945
4169.79689	0.05955
4167.86822	0.05965
4165.93954	0.05976
4164.01086	0.05989
4162.08219	0.06001
4160.15351	0.06012
4158.22484	0.06022
4156.29616	0.06033
4154.36749	0.06045
4152.43881	0.06057
4150.51013	0.06069
4148.58146	0.06080
4146.65278	0.06091
4144.72411	0.06103
4142.79543	0.06116
4140.86676	0.06127
4138.93808	0.06137
4137.00940	0.06147
4135.08073	0.06157
4133.15205	0.06166
4131.22338	0.06179
4129.29470	0.06194
4127.36603	0.06208
4125.43735	0.06219
4123.50867	0.06228
4121.58000	0.06239
4119.65132	0.06253
4117.72265	0.06267
4115.79397	0.06278
4113.86530	0.06290
4111.93662	0.06301
4110.00794	0.06311
4108.07927	0.06323
4106.15059	0.06336
4104.22192	0.06349
4102.29324	0.06357
4100.36457	0.06366
4098.43589	0.06380
4096.50721	0.06396
4094.57854	0.06409
4092.64986	0.06420
4090.72119	0.06432
4088.79251	0.06442
4086.86384	0.06453
4084.93516	0.06464
4083.00648	0.06476
4081.07781	0.06489
4079.14913	0.06502
4077.22046	0.06513
4075.29178	0.06524
4073.36311	0.06538
4071.43443	0.06552
4069.50575	0.06564
4067.57708	0.06579
4065.64840	0.06595
4063.71973	0.06608
4061.79105	0.06620
4059.86238	0.06633
4057.93370	0.06646
4056.00502	0.06658
4054.07635	0.06670
4052.14767	0.06684
4050.21900	0.06696
4048.29032	0.06708
4046.36165	0.06718
4044.43297	0.06729
4042.50429	0.06743
4040.57562	0.06757
4038.64694	0.06768
4036.71827	0.06780
4034.78959	0.06794
4032.86092	0.06808
4030.93224	0.06820
4029.00356	0.06831
4027.07489	0.06843
4025.14621	0.06857
4023.21754	0.06871
4021.28886	0.06885
4019.36019	0.06899
4017.43151	0.06911
4015.50283	0.06924
4013.57416	0.06937
4011.64548	0.06948
4009.71681	0.06960
4007.78813	0.06974
4005.85946	0.06987
4003.93078	0.07001
4002.00210	0.07016
4000.07343	0.07030
3998.14475	0.07043
3996.21608	0.07053
3994.28740	0.07064
3992.35873	0.07076
3990.43005	0.07091
3988.50137	0.07107
3986.57270	0.07122
3984.64402	0.07134
3982.71535	0.07145
3980.78667	0.07157
3978.85800	0.07172
3976.92932	0.07186
3975.00064	0.07198
3973.07197	0.07212
3971.14329	0.07229
3969.21462	0.07245
3967.28594	0.07259
3965.35727	0.07268
3963.42859	0.07278
3961.49991	0.07291
3959.57124	0.07306
3957.64256	0.07321
3955.71389	0.07334
3953.78521	0.07344
3951.85654	0.07354
3949.92786	0.07368
3947.99918	0.07383
3946.07051	0.07394
3944.14183	0.07404
3942.21316	0.07423
3940.28448	0.07447
3938.35581	0.07466
3936.42713	0.07475
3934.49845	0.07475
3932.56978	0.07477
3930.64110	0.07494
3928.71243	0.07516
3926.78375	0.07529
3924.85508	0.07539
3922.92640	0.07557
3920.99772	0.07572
3919.06905	0.07577
3917.14037	0.07589
3915.21170	0.07617
3913.28302	0.07648
3911.35435	0.07667
3909.42567	0.07675
3907.49699	0.07671
3905.56832	0.07654
3903.63964	0.07642
3901.71097	0.07652
3899.78229	0.07683
3897.85362	0.07725
3895.92494	0.07759
3893.99626	0.07771
3892.06759	0.07777
3890.13891	0.07792
3888.21024	0.07803
3886.28156	0.07805
3884.35289	0.07820
3882.42421	0.07836
3880.49553	0.07851
3878.56686	0.07879
3876.63818	0.07900
3874.70951	0.07904
3872.78083	0.07906
3870.85216	0.07908
3868.92348	0.07925
3866.99480	0.07951
3865.06613	0.07967
3863.13745	0.07986
3861.20878	0.08015
3859.28010	0.08035
3857.35143	0.08021
3855.42275	0.07978
3853.49407	0.07969
3851.56540	0.08027
3849.63672	0.08099
3847.70805	0.08139
3845.77937	0.08150
3843.85070	0.08147
3841.92202	0.08143
3839.99334	0.08143
3838.06467	0.08156
3836.13599	0.08182
3834.20732	0.08212
3832.27864	0.08239
3830.34997	0.08265
3828.42129	0.08284
3826.49261	0.08294
3824.56394	0.08297
3822.63526	0.08289
3820.70659	0.08295
3818.77791	0.08322
3816.84924	0.08346
3814.92056	0.08377
3812.99188	0.08417
3811.06321	0.08441
3809.13453	0.08443
3807.20586	0.08443
3805.27718	0.08454
3803.34851	0.08457
3801.41983	0.08463
3799.49115	0.08491
3797.56248	0.08521
3795.63380	0.08546
3793.70513	0.08576
3791.77645	0.08601
3789.84778	0.08619
3787.91910	0.08632
3785.99042	0.08639
3784.06175	0.08649
3782.13307	0.08660
3780.20440	0.08669
3778.27572	0.08690
3776.34705	0.08720
3774.41837	0.08740
3772.48969	0.08742
3770.56102	0.08742
3768.63234	0.08756
3766.70367	0.08779
3764.77499	0.08801
3762.84632	0.08818
3760.91764	0.08822
3758.98896	0.08826
3757.06029	0.08842
3755.13161	0.08848
3753.20294	0.08831
3751.27426	0.08819
3749.34559	0.08836
3747.41691	0.08849
3745.48823	0.08839
3743.55956	0.08867
3741.63088	0.08936
3739.70221	0.08969
3737.77353	0.08950
3735.84486	0.08939
3733.91618	0.08971
3731.98750	0.09027
3730.05883	0.09073
3728.13015	0.09090
3726.20148	0.09096
3724.27280	0.09111
3722.34413	0.09137
3720.41545	0.09166
3718.48677	0.09194
3716.55810	0.09211
3714.62942	0.09209
3712.70075	0.09197
3710.77207	0.09206
3708.84340	0.09244
3706.91472	0.09288
3704.98604	0.09310
3703.05737	0.09315
3701.12869	0.09330
3699.20002	0.09362
3697.27134	0.09388
3695.34267	0.09397
3693.41399	0.09391
3691.48531	0.09377
3689.55664	0.09378
3687.62796	0.09412
3685.69929	0.09461
3683.77061	0.09492
3681.84194	0.09502
3679.91326	0.09499
3677.98458	0.09480
3676.05591	0.09466
3674.12723	0.09488
3672.19856	0.09519
3670.26988	0.09538
3668.34121	0.09576
3666.41253	0.09628
3664.48385	0.09662
3662.55518	0.09681
3660.62650	0.09692
3658.69783	0.09691
3656.76915	0.09688
3654.84048	0.09694
3652.91180	0.09681
3650.98312	0.09642
3649.05445	0.09620
3647.12577	0.09648
3645.19710	0.09711
3643.26842	0.09770
3641.33975	0.09807
3639.41107	0.09831
3637.48239	0.09846
3635.55372	0.09852
3633.62504	0.09849
3631.69637	0.09827
3629.76769	0.09805
3627.83902	0.09831
3625.91034	0.09892
3623.98166	0.09931
3622.05299	0.09929
3620.12431	0.09912
3618.19564	0.09914
3616.26696	0.09932
3614.33829	0.09946
3612.40961	0.09953
3610.48093	0.09957
3608.55226	0.09971
3606.62358	0.10004
3604.69491	0.10039
3602.76623	0.10056
3600.83756	0.10063
3598.90888	0.10071
3596.98020	0.10077
3595.05153	0.10087
3593.12285	0.10104
3591.19418	0.10107
3589.26550	0.10090
3587.33683	0.10091
3585.40815	0.10127
3583.47947	0.10167
3581.55080	0.10190
3579.62212	0.10207
3577.69345	0.10223
3575.76477	0.10238
3573.83610	0.10252
3571.90742	0.10258
3569.97874	0.10243
3568.05007	0.10224
3566.12139	0.10238
3564.19272	0.10281
3562.26404	0.10315
3560.33537	0.10336
3558.40669	0.10354
3556.47801	0.10370
3554.54934	0.10378
3552.62066	0.10383
3550.69199	0.10396
3548.76331	0.10406
3546.83464	0.10408
3544.90596	0.10419
3542.97728	0.10444
3541.04861	0.10470
3539.11993	0.10485
3537.19126	0.10490
3535.26258	0.10498
3533.33391	0.10508
3531.40523	0.10512
3529.47655	0.10510
3527.54788	0.10510
3525.61920	0.10517
3523.69053	0.10526
3521.76185	0.10538
3519.83318	0.10550
3517.90450	0.10563
3515.97582	0.10574
3514.04715	0.10581
3512.11847	0.10585
3510.18980	0.10589
3508.26112	0.10595
3506.33245	0.10598
3504.40377	0.10600
3502.47509	0.10606
3500.54642	0.10619
3498.61774	0.10629
3496.68907	0.10635
3494.76039	0.10640
3492.83172	0.10646
3490.90304	0.10649
3488.97436	0.10650
3487.04569	0.10656
3485.11701	0.10665
3483.18834	0.10674
3481.25966	0.10685
3479.33099	0.10698
3477.40231	0.10709
3475.47363	0.10719
3473.54496	0.10729
3471.61628	0.10745
3469.68761	0.10763
3467.75893	0.10781
3465.83026	0.10796
3463.90158	0.10810
3461.97290	0.10825
3460.04423	0.10844
3458.11555	0.10866
3456.18688	0.10887
3454.25820	0.10903
3452.32953	0.10915
3450.40085	0.10928
3448.47217	0.10940
3446.54350	0.10957
3444.61482	0.10977
3442.68615	0.10996
3440.75747	0.11016
3438.82880	0.11040
3436.90012	0.11068
3434.97144	0.11098
3433.04277	0.11134
3431.11409	0.11171
3429.18542	0.11209
3427.25674	0.11244
3425.32807	0.11276
3423.39939	0.11307
3421.47071	0.11338
3419.54204	0.11371
3417.61336	0.11403
3415.68469	0.11432
3413.75601	0.11457
3411.82734	0.11481
3409.89866	0.11506
3407.96998	0.11530
3406.04131	0.11554
3404.11263	0.11576
3402.18396	0.11598
3400.25528	0.11621
3398.32661	0.11644
3396.39793	0.11669
3394.46925	0.11696
3392.54058	0.11722
3390.61190	0.11747
3388.68323	0.11771
3386.75455	0.11795
3384.82588	0.11818
3382.89720	0.11839
3380.96852	0.11859
3379.03985	0.11882
3377.11117	0.11907
3375.18250	0.11932
3373.25382	0.11954
3371.32515	0.11975
3369.39647	0.11996
3367.46779	0.12015
3365.53912	0.12036
3363.61044	0.12056
3361.68177	0.12077
3359.75309	0.12102
3357.82442	0.12128
3355.89574	0.12150
3353.96706	0.12169
3352.03839	0.12191
3350.10971	0.12215
3348.18104	0.12236
3346.25236	0.12255
3344.32369	0.12274
3342.39501	0.12295
3340.46633	0.12318
3338.53766	0.12342
3336.60898	0.12365
3334.68031	0.12389
3332.75163	0.12416
3330.82296	0.12440
3328.89428	0.12461
3326.96560	0.12482
3325.03693	0.12502
3323.10825	0.12523
3321.17958	0.12547
3319.25090	0.12570
3317.32223	0.12590
3315.39355	0.12611
3313.46487	0.12635
3311.53620	0.12661
3309.60752	0.12687
3307.67885	0.12711
3305.75017	0.12735
3303.82150	0.12757
3301.89282	0.12778
3299.96414	0.12802
3298.03547	0.12827
3296.10679	0.12850
3294.17812	0.12870
3292.24944	0.12890
3290.32077	0.12914
3288.39209	0.12939
3286.46341	0.12963
3284.53474	0.12987
3282.60606	0.13008
3280.67739	0.13030
3278.74871	0.13054
3276.82004	0.13078
3274.89136	0.13103
3272.96268	0.13127
3271.03401	0.13152
3269.10533	0.13174
3267.17666	0.13198
3265.24798	0.13222
3263.31931	0.13247
3261.39063	0.13272
3259.46195	0.13294
3257.53328	0.13314
3255.60460	0.13336
3253.67593	0.13362
3251.74725	0.13391
3249.81858	0.13418
3247.88990	0.13440
3245.96122	0.13459
3244.03255	0.13482
3242.10387	0.13508
3240.17520	0.13533
3238.24652	0.13556
3236.31785	0.13580
3234.38917	0.13603
3232.46049	0.13627
3230.53182	0.13651
3228.60314	0.13676
3226.67447	0.13702
3224.74579	0.13727
3222.81712	0.13749
3220.88844	0.13769
3218.95976	0.13791
3217.03109	0.13813
3215.10241	0.13836
3213.17374	0.13862
3211.24506	0.13889
3209.31639	0.13913
3207.38771	0.13935
3205.45903	0.13958
3203.53036	0.13983
3201.60168	0.14008
3199.67301	0.14034
3197.74433	0.14060
3195.81566	0.14090
3193.88698	0.14120
3191.95830	0.14149
3190.02963	0.14174
3188.10095	0.14197
3186.17228	0.14222
3184.24360	0.14246
3182.31493	0.14270
3180.38625	0.14293
3178.45757	0.14315
3176.52890	0.14339
3174.60022	0.14368
3172.67155	0.14398
3170.74287	0.14425
3168.81420	0.14451
3166.88552	0.14477
3164.95684	0.14500
3163.02817	0.14523
3161.09949	0.14546
3159.17082	0.14569
3157.24214	0.14592
3155.31347	0.14615
3153.38479	0.14640
3151.45611	0.14664
3149.52744	0.14689
3147.59876	0.14717
3145.67009	0.14746
3143.74141	0.14775
3141.81274	0.14801
3139.88406	0.14827
3137.95538	0.14849
3136.02671	0.14869
3134.09803	0.14888
3132.16936	0.14913
3130.24068	0.14940
3128.31201	0.14965
3126.38333	0.14990
3124.45465	0.15014
3122.52598	0.15039
3120.59730	0.15064
3118.66863	0.15087
3116.73995	0.15113
3114.81128	0.15141
3112.88260	0.15168
3110.95392	0.15194
3109.02525	0.15218
3107.09657	0.15242
3105.16790	0.15267
3103.23922	0.15291
3101.31055	0.15313
3099.38187	0.15336
3097.45319	0.15359
3095.52452	0.15385
3093.59584	0.15413
3091.66717	0.15440
3089.73849	0.15466
3087.80982	0.15491
3085.88114	0.15517
3083.95246	0.15542
3082.02379	0.15566
3080.09511	0.15589
3078.16644	0.15613
3076.23776	0.15636
3074.30909	0.15661
3072.38041	0.15685
3070.45173	0.15708
3068.52306	0.15732
3066.59438	0.15758
3064.66571	0.15787
3062.73703	0.15815
3060.80836	0.15837
3058.87968	0.15858
3056.95100	0.15880
3055.02233	0.15904
3053.09365	0.15927
3051.16498	0.15950
3049.23630	0.15974
3047.30763	0.15999
3045.37895	0.16025
3043.45027	0.16053
3041.52160	0.16079
3039.59292	0.16103
3037.66425	0.16127
3035.73557	0.16149
3033.80690	0.16168
3031.87822	0.16189
3029.94954	0.16216
3028.02087	0.16245
3026.09219	0.16274
3024.16352	0.16301
3022.23484	0.16328
3020.30617	0.16354
3018.37749	0.16378
3016.44881	0.16399
3014.52014	0.16422
3012.59146	0.16446
3010.66279	0.16470
3008.73411	0.16495
3006.80544	0.16520
3004.87676	0.16545
3002.94808	0.16569
3001.01941	0.16593
2999.09073	0.16619
2997.16206	0.16646
2995.23338	0.16668
2993.30471	0.16687
2991.37603	0.16707
2989.44735	0.16728
2987.51868	0.16747
2985.59000	0.16766
2983.66133	0.16785
2981.73265	0.16802
2979.80398	0.16816
2977.87530	0.16827
2975.94662	0.16835
2974.01795	0.16837
2972.08927	0.16836
2970.16060	0.16836
2968.23192	0.16836
2966.30325	0.16839
2964.37457	0.16849
2962.44589	0.16865
2960.51722	0.16888
2958.58854	0.16918
2956.65987	0.16949
2954.73119	0.16980
2952.80252	0.17010
2950.87384	0.17041
2948.94516	0.17070
2947.01649	0.17097
2945.08781	0.17119
2943.15914	0.17133
2941.23046	0.17138
2939.30179	0.17141
2937.37311	0.17140
2935.44443	0.17133
2933.51576	0.17126
2931.58708	0.17121
2929.65841	0.17116
2927.72973	0.17113
2925.80106	0.17114
2923.87238	0.17115
2921.94370	0.17118
2920.01503	0.17133
2918.08635	0.17161
2916.15768	0.17210
2914.22900	0.17285
2912.30033	0.17371
2910.37165	0.17446
2908.44297	0.17505
2906.51430	0.17553
2904.58562	0.17594
2902.65695	0.17632
2900.72827	0.17672
2898.79960	0.17713
2896.87092	0.17754
2894.94224	0.17791
2893.01357	0.17823
2891.08489	0.17853
2889.15622	0.17883
2887.22754	0.17913
2885.29887	0.17944
2883.37019	0.17973
2881.44151	0.18000
2879.51284	0.18026
2877.58416	0.18051
2875.65549	0.18076
2873.72681	0.18101
2871.79814	0.18124
2869.86946	0.18144
2867.94078	0.18162
2866.01211	0.18179
2864.08343	0.18196
2862.15476	0.18211
2860.22608	0.18221
2858.29741	0.18226
2856.36873	0.18225
2854.44005	0.18220
2852.51138	0.18216
2850.58270	0.18230
2848.65403	0.18277
2846.72535	0.18355
2844.79668	0.18442
2842.86800	0.18517
2840.93932	0.18575
2839.01065	0.18622
2837.08197	0.18661
2835.15330	0.18696
2833.22462	0.18729
2831.29595	0.18760
2829.36727	0.18788
2827.43859	0.18819
2825.50992	0.18853
2823.58124	0.18883
2821.65257	0.18909
2819.72389	0.18933
2817.79522	0.18958
2815.86654	0.18988
2813.93786	0.19018
2812.00919	0.19046
2810.08051	0.19076
2808.15184	0.19107
2806.22316	0.19134
2804.29449	0.19159
2802.36581	0.19186
2800.43713	0.19213
2798.50846	0.19242
2796.57978	0.19271
2794.65111	0.19302
2792.72243	0.19329
2790.79376	0.19357
2788.86508	0.19386
2786.93640	0.19412
2785.00773	0.19434
2783.07905	0.19457
2781.15038	0.19488
2779.22170	0.19517
2777.29303	0.19540
2775.36435	0.19564
2773.43567	0.19592
2771.50700	0.19617
2769.57832	0.19640
2767.64965	0.19666
2765.72097	0.19696
2763.79230	0.19723
2761.86362	0.19749
2759.93494	0.19776
2758.00627	0.19804
2756.07759	0.19830
2754.14892	0.19855
2752.22024	0.19882
2750.29157	0.19910
2748.36289	0.19937
2746.43421	0.19961
2744.50554	0.19985
2742.57686	0.20010
2740.64819	0.20034
2738.71951	0.20059
2736.79084	0.20085
2734.86216	0.20112
2732.93348	0.20138
2731.00481	0.20163
2729.07613	0.20188
2727.14746	0.20213
2725.21878	0.20239
2723.29011	0.20269
2721.36143	0.20298
2719.43275	0.20323
2717.50408	0.20344
2715.57540	0.20365
2713.64673	0.20389
2711.71805	0.20416
2709.78938	0.20442
2707.86070	0.20466
2705.93202	0.20488
2704.00335	0.20512
2702.07467	0.20540
2700.14600	0.20568
2698.21732	0.20594
2696.28865	0.20619
2694.35997	0.20644
2692.43129	0.20668
2690.50262	0.20694
2688.57394	0.20723
2686.64527	0.20750
2684.71659	0.20774
2682.78792	0.20797
2680.85924	0.20820
2678.93056	0.20846
2677.00189	0.20873
2675.07321	0.20899
2673.14454	0.20924
2671.21586	0.20950
2669.28719	0.20976
2667.35851	0.21001
2665.42983	0.21026
2663.50116	0.21052
2661.57248	0.21079
2659.64381	0.21105
2657.71513	0.21132
2655.78646	0.21161
2653.85778	0.21188
2651.92910	0.21212
2650.00043	0.21235
2648.07175	0.21261
2646.14308	0.21290
2644.21440	0.21320
2642.28573	0.21350
2640.35705	0.21379
2638.42837	0.21408
2636.49970	0.21437
2634.57102	0.21466
2632.64235	0.21493
2630.71367	0.21517
2628.78500	0.21543
2626.85632	0.21571
2624.92764	0.21601
2622.99897	0.21632
2621.07029	0.21661
2619.14162	0.21691
2617.21294	0.21717
2615.28427	0.21741
2613.35559	0.21765
2611.42691	0.21792
2609.49824	0.21820
2607.56956	0.21847
2605.64089	0.21873
2603.71221	0.21901
2601.78354	0.21931
2599.85486	0.21958
2597.92618	0.21984
2595.99751	0.22013
2594.06883	0.22045
2592.14016	0.22072
2590.21148	0.22099
2588.28281	0.22127
2586.35413	0.22153
2584.42545	0.22176
2582.49678	0.22200
2580.56810	0.22226
2578.63943	0.22253
2576.71075	0.22280
2574.78208	0.22310
2572.85340	0.22336
2570.92472	0.22360
2568.99605	0.22384
2567.06737	0.22411
2565.13870	0.22437
2563.21002	0.22461
2561.28135	0.22481
2559.35267	0.22504
2557.42399	0.22533
2555.49532	0.22563
2553.56664	0.22589
2551.63797	0.22616
2549.70929	0.22643
2547.78062	0.22668
2545.85194	0.22694
2543.92326	0.22721
2541.99459	0.22747
2540.06591	0.22770
2538.13724	0.22798
2536.20856	0.22828
2534.27989	0.22857
2532.35121	0.22885
2530.42253	0.22913
2528.49386	0.22941
2526.56518	0.22968
2524.63651	0.22997
2522.70783	0.23028
2520.77916	0.23058
2518.85048	0.23087
2516.92181	0.23114
2514.99313	0.23142
2513.06445	0.23172
2511.13578	0.23201
2509.20710	0.23227
2507.27843	0.23251
2505.34975	0.23281
2503.42108	0.23314
2501.49240	0.23344
2499.56372	0.23371
2497.63505	0.23402
2495.70637	0.23434
2493.77770	0.23466
2491.84902	0.23497
2489.92035	0.23528
2487.99167	0.23557
2486.06299	0.23586
2484.13432	0.23615
2482.20564	0.23641
2480.27697	0.23667
2478.34829	0.23694
2476.41962	0.23721
2474.49094	0.23748
2472.56226	0.23777
2470.63359	0.23809
2468.70491	0.23839
2466.77624	0.23865
2464.84756	0.23891
2462.91889	0.23919
2460.99021	0.23948
2459.06153	0.23975
2457.13286	0.24002
2455.20418	0.24030
2453.27551	0.24059
2451.34683	0.24089
2449.41816	0.24120
2447.48948	0.24150
2445.56080	0.24181
2443.63213	0.24210
2441.70345	0.24235
2439.77478	0.24261
2437.84610	0.24291
2435.91743	0.24323
2433.98875	0.24352
2432.06007	0.24379
2430.13140	0.24405
2428.20272	0.24433
2426.27405	0.24462
2424.34537	0.24491
2422.41670	0.24518
2420.48802	0.24547
2418.55934	0.24578
2416.63067	0.24610
2414.70199	0.24639
2412.77332	0.24667
2410.84464	0.24692
2408.91597	0.24716
2406.98729	0.24742
2405.05861	0.24772
2403.12994	0.24804
2401.20126	0.24835
2399.27259	0.24859
2397.34391	0.24882
2395.41524	0.24909
2393.48656	0.24940
2391.55788	0.24969
2389.62921	0.24994
2387.70053	0.25020
2385.77186	0.25047
2383.84318	0.25071
2381.91451	0.25091
2379.98583	0.25109
2378.05715	0.25121
2376.12848	0.25129
2374.19980	0.25134
2372.27113	0.25138
2370.34245	0.25144
2368.41378	0.25157
2366.48510	0.25174
2364.55642	0.25193
2362.62775	0.25216
2360.69907	0.25243
2358.77040	0.25276
2356.84172	0.25315
2354.91305	0.25362
2352.98437	0.25418
2351.05569	0.25471
2349.12702	0.25508
2347.19834	0.25526
2345.26967	0.25533
2343.34099	0.25546
2341.41232	0.25566
2339.48364	0.25590
2337.55496	0.25616
2335.62629	0.25644
2333.69761	0.25674
2331.76894	0.25706
2329.84026	0.25737
2327.91159	0.25770
2325.98291	0.25807
2324.05423	0.25846
2322.12556	0.25883
2320.19688	0.25919
2318.26821	0.25956
2316.33953	0.25994
2314.41086	0.26033
2312.48218	0.26070
2310.55350	0.26104
2308.62483	0.26137
2306.69615	0.26171
2304.76748	0.26203
2302.83880	0.26236
2300.91013	0.26268
2298.98145	0.26300
2297.05277	0.26331
2295.12410	0.26363
2293.19542	0.26392
2291.26675	0.26420
2289.33807	0.26450
2287.40940	0.26480
2285.48072	0.26505
2283.55204	0.26531
2281.62337	0.26559
2279.69469	0.26584
2277.76602	0.26609
2275.83734	0.26637
2273.90867	0.26668
2271.97999	0.26698
2270.05131	0.26729
2268.12264	0.26762
2266.19396	0.26793
2264.26529	0.26820
2262.33661	0.26844
2260.40794	0.26873
2258.47926	0.26906
2256.55058	0.26935
2254.62191	0.26958
2252.69323	0.26983
2250.76456	0.27014
2248.83588	0.27047
2246.90721	0.27076
2244.97853	0.27101
2243.04985	0.27130
2241.12118	0.27160
2239.19250	0.27186
2237.26383	0.27212
2235.33515	0.27241
2233.40648	0.27271
2231.47780	0.27297
2229.54912	0.27321
2227.62045	0.27350
2225.69177	0.27382
2223.76310	0.27413
2221.83442	0.27441
2219.90575	0.27469
2217.97707	0.27498
2216.04839	0.27525
2214.11972	0.27549
2212.19104	0.27574
2210.26237	0.27603
2208.33369	0.27629
2206.40502	0.27652
2204.47634	0.27680
2202.54766	0.27709
2200.61899	0.27736
2198.69031	0.27765
2196.76164	0.27796
2194.83296	0.27825
2192.90429	0.27850
2190.97561	0.27878
2189.04693	0.27911
2187.11826	0.27939
2185.18958	0.27960
2183.26091	0.27983
2181.33223	0.28010
2179.40356	0.28040
2177.47488	0.28070
2175.54620	0.28100
2173.61753	0.28129
2171.68885	0.28157
2169.76018	0.28186
2167.83150	0.28214
2165.90283	0.28240
2163.97415	0.28266
2162.04547	0.28294
2160.11680	0.28327
2158.18812	0.28364
2156.25945	0.28399
2154.33077	0.28426
2152.40210	0.28451
2150.47342	0.28478
2148.54474	0.28507
2146.61607	0.28534
2144.68739	0.28562
2142.75872	0.28592
2140.83004	0.28624
2138.90137	0.28651
2136.97269	0.28674
2135.04401	0.28699
2133.11534	0.28729
2131.18666	0.28760
2129.25799	0.28790
2127.32931	0.28818
2125.40064	0.28845
2123.47196	0.28873
2121.54328	0.28903
2119.61461	0.28930
2117.68593	0.28954
2115.75726	0.28981
2113.82858	0.29013
2111.89991	0.29047
2109.97123	0.29077
2108.04255	0.29103
2106.11388	0.29131
2104.18520	0.29164
2102.25653	0.29197
2100.32785	0.29226
2098.39918	0.29254
2096.47050	0.29281
2094.54182	0.29309
2092.61315	0.29339
2090.68447	0.29361
2088.75580	0.29376
2086.82712	0.29397
2084.89845	0.29428
2082.96977	0.29465
2081.04109	0.29499
2079.11242	0.29528
2077.18374	0.29555
2075.25507	0.29584
2073.32639	0.29616
2071.39772	0.29649
2069.46904	0.29677
2067.54036	0.29699
2065.61169	0.29722
2063.68301	0.29753
2061.75434	0.29784
2059.82566	0.29812
2057.89699	0.29841
2055.96831	0.29873
2054.03963	0.29902
2052.11096	0.29930
2050.18228	0.29958
2048.25361	0.29984
2046.32493	0.30009
2044.39626	0.30035
2042.46758	0.30064
2040.53890	0.30094
2038.61023	0.30124
2036.68155	0.30156
2034.75288	0.30191
2032.82420	0.30225
2030.89553	0.30255
2028.96685	0.30282
2027.03817	0.30305
2025.10950	0.30330
2023.18082	0.30361
2021.25215	0.30392
2019.32347	0.30415
2017.39480	0.30434
2015.46612	0.30463
2013.53744	0.30502
2011.60877	0.30540
2009.68009	0.30570
2007.75142	0.30597
2005.82274	0.30629
2003.89407	0.30663
2001.96539	0.30691
2000.03671	0.30712
1998.10804	0.30736
1996.17936	0.30762
1994.25069	0.30777
1992.32201	0.30788
1990.39334	0.30814
1988.46466	0.30854
1986.53598	0.30892
1984.60731	0.30924
1982.67863	0.30950
1980.74996	0.30972
1978.82128	0.30992
1976.89261	0.31016
1974.96393	0.31043
1973.03525	0.31068
1971.10658	0.31085
1969.17790	0.31095
1967.24923	0.31113
1965.32055	0.31149
1963.39188	0.31189
1961.46320	0.31219
1959.53452	0.31248
1957.60585	0.31277
1955.67717	0.31303
1953.74850	0.31330
1951.81982	0.31360
1949.89115	0.31388
1947.96247	0.31409
1946.03379	0.31423
1944.10512	0.31429
1942.17644	0.31451
1940.24777	0.31501
1938.31909	0.31553
1936.39042	0.31591
1934.46174	0.31619
1932.53306	0.31643
1930.60439	0.31666
1928.67571	0.31694
1926.74704	0.31719
1924.81836	0.31728
1922.88969	0.31733
1920.96101	0.31747
1919.03233	0.31763
1917.10366	0.31804
1915.17498	0.31870
1913.24631	0.31915
1911.31763	0.31933
1909.38896	0.31955
1907.46028	0.31994
1905.53160	0.32034
1903.60293	0.32065
1901.67425	0.32093
1899.74558	0.32121
1897.81690	0.32142
1895.88823	0.32162
1893.95955	0.32190
1892.03087	0.32209
1890.10220	0.32218
1888.17352	0.32248
1886.24485	0.32290
1884.31617	0.32324
1882.38750	0.32356
1880.45882	0.32387
1878.53014	0.32415
1876.60147	0.32444
1874.67279	0.32469
1872.74412	0.32474
1870.81544	0.32450
1868.88677	0.32443
1866.95809	0.32496
1865.02941	0.32576
1863.10074	0.32630
1861.17206	0.32661
1859.24339	0.32690
1857.31471	0.32726
1855.38604	0.32766
1853.45736	0.32798
1851.52868	0.32817
1849.60001	0.32822
1847.67133	0.32804
1845.74266	0.32773
1843.81398	0.32794
1841.88531	0.32887
1839.95663	0.32970
1838.02795	0.33002
1836.09928	0.33027
1834.17060	0.33052
1832.24193	0.33046
1830.31325	0.33031
1828.38458	0.33050
1826.45590	0.33084
1824.52722	0.33128
1822.59855	0.33195
1820.66987	0.33255
1818.74120	0.33286
1816.81252	0.33312
1814.88385	0.33334
1812.95517	0.33338
1811.02649	0.33343
1809.09782	0.33378
1807.16914	0.33422
1805.24047	0.33439
1803.31179	0.33421
1801.38312	0.33408
1799.45444	0.33439
1797.52576	0.33488
1795.59709	0.33505
1793.66841	0.33491
1791.73974	0.33504
1789.81106	0.33572
1787.88239	0.33627
1785.95371	0.33637
1784.02503	0.33643
1782.09636	0.33659
1780.16768	0.33686
1778.23901	0.33724
1776.31033	0.33735
1774.38166	0.33700
1772.45298	0.33673
1770.52430	0.33689
1768.59563	0.33737
1766.66695	0.33809
1764.73828	0.33862
1762.80960	0.33864
1760.88093	0.33870
1758.95225	0.33893
1757.02357	0.33909
1755.09490	0.33918
1753.16622	0.33878
1751.23755	0.33805
1749.30887	0.33791
1747.38020	0.33835
1745.45152	0.33875
1743.52284	0.33894
1741.59417	0.33902
1739.66549	0.33918
1737.73682	0.33917
1735.80814	0.33853
1733.87947	0.33819
1731.95079	0.33899
1730.02211	0.34016
1728.09344	0.34109
1726.16476	0.34172
1724.23609	0.34195
1722.30741	0.34190
1720.37874	0.34134
1718.45006	0.34057
1716.52138	0.34063
1714.59271	0.34158
1712.66403	0.34258
1710.73536	0.34311
1708.80668	0.34307
1706.87801	0.34274
1704.94933	0.34251
1703.02065	0.34191
1701.09198	0.34093
1699.16330	0.34081
1697.23463	0.34145
1695.30595	0.34228
1693.37728	0.34331
1691.44860	0.34380
1689.51992	0.34360
1687.59125	0.34307
1685.66257	0.34218
1683.73390	0.34187
1681.80522	0.34267
1679.87655	0.34359
1677.94787	0.34368
1676.01919	0.34328
1674.09052	0.34314
1672.16184	0.34306
1670.23317	0.34289
1668.30449	0.34344
1666.37582	0.34439
1664.44714	0.34464
1662.51846	0.34455
1660.58979	0.34485
1658.66111	0.34510
1656.73244	0.34433
1654.80376	0.34261
1652.87509	0.34193
1650.94641	0.34298
1649.01773	0.34371
1647.08906	0.34371
1645.16038	0.34436
1643.23171	0.34538
1641.30303	0.34578
1639.37436	0.34539
1637.44568	0.34457
1635.51700	0.34438
1633.58833	0.34532
1631.65965	0.34623
1629.73098	0.34626
1627.80230	0.34596
1625.87363	0.34559
1623.94495	0.34496
1622.01627	0.34452
1620.08760	0.34454
1618.15892	0.34482
1616.23025	0.34578
1614.30157	0.34734
1612.37290	0.34850
1610.44422	0.34896
1608.51554	0.34927
1606.58687	0.34974
1604.65819	0.35015
1602.72952	0.35047
1600.80084	0.35086
1598.87217	0.35129
1596.94349	0.35159
1595.01481	0.35184
1593.08614	0.35218
1591.15746	0.35254
1589.22879	0.35284
1587.30011	0.35310
1585.37144	0.35342
1583.44276	0.35377
1581.51408	0.35403
1579.58541	0.35393
1577.65673	0.35351
1575.72806	0.35356
1573.79938	0.35424
1571.87071	0.35449
1569.94203	0.35434
1568.01335	0.35469
1566.08468	0.35530
1564.15600	0.35554
1562.22733	0.35486
1560.29865	0.35335
1558.36998	0.35284
1556.44130	0.35413
1554.51262	0.35570
1552.58395	0.35652
1550.65527	0.35685
1548.72660	0.35711
1546.79792	0.35701
1544.86925	0.35627
1542.94057	0.35535
1541.01189	0.35497
1539.08322	0.35569
1537.15454	0.35695
1535.22587	0.35750
1533.29719	0.35761
1531.36852	0.35812
1529.43984	0.35845
1527.51116	0.35827
1525.58249	0.35799
1523.65381	0.35745
1521.72514	0.35684
1519.79646	0.35700
1517.86779	0.35770
1515.93911	0.35847
1514.01043	0.35913
1512.08176	0.35919
1510.15308	0.35842
1508.22441	0.35755
1506.29573	0.35794
1504.36706	0.35964
1502.43838	0.36086
1500.50970	0.36081
1498.58103	0.36045
1496.65235	0.36070
1494.72368	0.36135
1492.79500	0.36140
1490.86633	0.36075
1488.93765	0.36050
1487.00897	0.36115
1485.08030	0.36200
1483.15162	0.36238
1481.22295	0.36236
1479.29427	0.36214
1477.36560	0.36153
1475.43692	0.36066
1473.50824	0.36004
1471.57957	0.36015
1469.65089	0.36074
1467.72222	0.36090
1465.79354	0.36063
1463.86487	0.36068
1461.93619	0.36076
1460.00751	0.35986
1458.07884	0.35855
1456.15016	0.35864
1454.22149	0.36014
1452.29281	0.36137
1450.36414	0.36170
1448.43546	0.36171
1446.50678	0.36198
1444.57811	0.36244
1442.64943	0.36274
1440.72076	0.36262
1438.79208	0.36180
1436.86341	0.36107
1434.93473	0.36149
1433.00605	0.36228
1431.07738	0.36250
1429.14870	0.36260
1427.22003	0.36275
1425.29135	0.36258
1423.36268	0.36219
1421.43400	0.36147
1419.50532	0.36066
1417.57665	0.36081
1415.64797	0.36173
1413.71930	0.36227
1411.79062	0.36230
1409.86195	0.36222
1407.93327	0.36209
1406.00459	0.36189
1404.07592	0.36187
1402.14724	0.36185
1400.21857	0.36145
1398.28989	0.36092
1396.36122	0.36060
1394.43254	0.36073
1392.50386	0.36119
1390.57519	0.36121
1388.64651	0.36048
1386.71784	0.35983
1384.78916	0.35981
1382.86049	0.36009
1380.93181	0.36031
1379.00313	0.36030
1377.07446	0.36005
1375.14578	0.35976
1373.21711	0.35978
1371.28843	0.36000
1369.35976	0.36004
1367.43108	0.35991
1365.50240	0.35954
1363.57373	0.35903
1361.64505	0.35898
1359.71638	0.35946
1357.78770	0.35984
1355.85903	0.35993
1353.93035	0.35997
1352.00167	0.36008
1350.07300	0.36022
1348.14432	0.36039
1346.21565	0.36055
1344.28697	0.36061
1342.35830	0.36034
1340.42962	0.35987
1338.50094	0.35972
1336.57227	0.36004
1334.64359	0.36041
1332.71492	0.36055
1330.78624	0.36050
1328.85757	0.36032
1326.92889	0.36014
1325.00021	0.35999
1323.07154	0.35984
1321.14286	0.35961
1319.21419	0.35937
1317.28551	0.35924
1315.35684	0.35912
1313.42816	0.35894
1311.49948	0.35877
1309.57081	0.35859
1307.64213	0.35834
1305.71346	0.35806
1303.78478	0.35774
1301.85611	0.35735
1299.92743	0.35694
1297.99875	0.35657
1296.07008	0.35627
1294.14140	0.35596
1292.21273	0.35559
1290.28405	0.35510
1288.35538	0.35457
1286.42670	0.35413
1284.49802	0.35370
1282.56935	0.35317
1280.64067	0.35257
1278.71200	0.35192
1276.78332	0.35119
1274.85465	0.35034
1272.92597	0.34928
1270.99729	0.34792
1269.06862	0.34627
1267.13994	0.34450
1265.21127	0.34293
1263.28259	0.34179
1261.35392	0.34118
1259.42524	0.34111
1257.49656	0.34139
1255.56789	0.34168
1253.63921	0.34170
1251.71054	0.34136
1249.78186	0.34079
1247.85319	0.34012
1245.92451	0.33940
1243.99583	0.33864
1242.06716	0.33786
1240.13848	0.33704
1238.20981	0.33612
1236.28113	0.33512
1234.35246	0.33410
1232.42378	0.33309
1230.49510	0.33205
1228.56643	0.33103
1226.63775	0.33013
1224.70908	0.32932
1222.78040	0.32846
1220.85173	0.32757
1218.92305	0.32671
1216.99437	0.32588
1215.06570	0.32503
1213.13702	0.32410
1211.20835	0.32317
1209.27967	0.32231
1207.35100	0.32146
1205.42232	0.32061
1203.49364	0.31974
1201.56497	0.31885
1199.63629	0.31799
1197.70762	0.31714
1195.77894	0.31629
1193.85027	0.31547
1191.92159	0.31464
1189.99291	0.31371
1188.06424	0.31259
1186.13556	0.31133
1184.20689	0.31006
1182.27821	0.30881
1180.34954	0.30759
1178.42086	0.30645
1176.49218	0.30526
1174.56351	0.30395
1172.63483	0.30255
1170.70616	0.30112
1168.77748	0.29969
1166.84881	0.29831
1164.92013	0.29699
1162.99145	0.29572
1161.06278	0.29447
1159.13410	0.29321
1157.20543	0.29195
1155.27675	0.29075
1153.34808	0.28965
1151.41940	0.28858
1149.49072	0.28750
1147.56205	0.28643
1145.63337	0.28535
1143.70470	0.28425
1141.77602	0.28314
1139.84735	0.28206
1137.91867	0.28098
1135.98999	0.27985
1134.06132	0.27867
1132.13264	0.27743
1130.20397	0.27613
1128.27529	0.27481
1126.34662	0.27347
1124.41794	0.27205
1122.48926	0.27064
1120.56059	0.26930
1118.63191	0.26795
1116.70324	0.26647
1114.77456	0.26491
1112.84589	0.26337
1110.91721	0.26191
1108.98853	0.26056
1107.05986	0.25922
1105.13118	0.25784
1103.20251	0.25648
1101.27383	0.25521
1099.34516	0.25398
1097.41648	0.25271
1095.48780	0.25140
1093.55913	0.25019
1091.63045	0.24912
1089.70178	0.24812
1087.77310	0.24711
1085.84443	0.24607
1083.91575	0.24505
1081.98707	0.24408
1080.05840	0.24317
1078.12972	0.24227
1076.20105	0.24144
1074.27237	0.24072
1072.34370	0.24019
1070.41502	0.23982
1068.48634	0.23957
1066.55767	0.23944
1064.62899	0.23940
1062.70032	0.23945
1060.77164	0.23958
1058.84297	0.23974
1056.91429	0.23993
1054.98561	0.24018
1053.05694	0.24056
1051.12826	0.24106
1049.19959	0.24161
1047.27091	0.24220
1045.34224	0.24284
1043.41356	0.24347
1041.48488	0.24412
1039.55621	0.24483
1037.62753	0.24559
1035.69886	0.24633
1033.77018	0.24703
1031.84151	0.24773
1029.91283	0.24846
1027.98415	0.24924
1026.05548	0.25000
1024.12680	0.25071
1022.19813	0.25143
1020.26945	0.25227
1018.34078	0.25326
1016.41210	0.25439
1014.48342	0.25557
1012.55475	0.25677
1010.62607	0.25802
1008.69740	0.25935
1006.76872	0.26069
1004.84005	0.26195
1002.91137	0.26306
1000.98269	0.26399
999.05402	0.26481
997.12534	0.26558
995.19667	0.26631
993.26799	0.26695
991.33932	0.26757
989.41064	0.26819
987.48196	0.26880
985.55329	0.26942
983.62461	0.27002
981.69594	0.27049
979.76726	0.27072
977.83859	0.27076
975.90991	0.27078
973.98123	0.27083
972.05256	0.27088
970.12388	0.27090
968.19521	0.27083
966.26653	0.27065
964.33786	0.27044
962.40918	0.27029
960.48050	0.27017
958.55183	0.27000
956.62315	0.26972
954.69448	0.26935
952.76580	0.26889
950.83713	0.26845
948.90845	0.26803
946.97977	0.26752
945.05110	0.26694
943.12242	0.26638
941.19375	0.26583
939.26507	0.26521
937.33640	0.26453
935.40772	0.26389
933.47904	0.26334
931.55037	0.26286
929.62169	0.26238
927.69302	0.26179
925.76434	0.26111
923.83567	0.26045
921.90699	0.25981
919.97831	0.25916
918.04964	0.25847
916.12096	0.25771
914.19229	0.25695
912.26361	0.25622
910.33494	0.25546
908.40626	0.25470
906.47758	0.25396
904.54891	0.25321
902.62023	0.25240
900.69156	0.25157
898.76288	0.25077
896.83421	0.25000
894.90553	0.24919
892.97685	0.24833
891.04818	0.24747
889.11950	0.24664
887.19083	0.24579
885.26215	0.24497
883.33348	0.24422
881.40480	0.24347
879.47612	0.24267
877.54745	0.24186
875.61877	0.24112
873.69010	0.24052
871.76142	0.23993
869.83275	0.23926
867.90407	0.23860
865.97539	0.23792
864.04672	0.23707
862.11804	0.23614
860.18937	0.23526
858.26069	0.23444
856.33202	0.23361
854.40334	0.23277
852.47466	0.23190
850.54599	0.23098
848.61731	0.23001
846.68864	0.22910
844.75996	0.22824
842.83129	0.22738
840.90261	0.22651
838.97394	0.22563
837.04526	0.22472
835.11658	0.22381
833.18791	0.22292
831.25923	0.22201
829.33056	0.22096
827.40188	0.21977
825.47321	0.21858
823.54453	0.21743
821.61585	0.21642
819.68718	0.21557
817.75850	0.21476
815.82983	0.21382
813.90115	0.21276
811.97248	0.21168
810.04380	0.21069
808.11512	0.20980
806.18645	0.20900
804.25777	0.20823
802.32910	0.20748
800.40042	0.20676
798.47175	0.20612
796.54307	0.20561
794.61439	0.20529
792.68572	0.20508
790.75704	0.20488
788.82837	0.20467
786.89969	0.20437
784.97102	0.20390
783.04234	0.20338
781.11366	0.20290
779.18499	0.20242
777.25631	0.20191
775.32764	0.20142
773.39896	0.20095
771.47029	0.20046
769.54161	0.19996
767.61293	0.19947
765.68426	0.19894
763.75558	0.19832
761.82691	0.19761
759.89823	0.19688
757.96956	0.19612
756.04088	0.19529
754.11220	0.19436
752.18353	0.19345
750.25485	0.19258
748.32618	0.19165
746.39750	0.19076
744.46883	0.18996
742.54015	0.18915
740.61147	0.18833
738.68280	0.18754
736.75412	0.18685
734.82545	0.18626
732.89677	0.18567
730.96810	0.18504
729.03942	0.18442
727.11074	0.18378
725.18207	0.18308
723.25339	0.18238
721.32472	0.18168
719.39604	0.18091
717.46737	0.18010
715.53869	0.17938
713.61001	0.17868
711.68134	0.17790
709.75266	0.17709
707.82399	0.17638
705.89531	0.17572
703.96664	0.17500
702.03796	0.17427
700.10928	0.17362
698.18061	0.17294
696.25193	0.17213
694.32326	0.17128
692.39458	0.17044
690.46591	0.16955
688.53723	0.16872
686.60855	0.16794
684.67988	0.16709
682.75120	0.16611
680.82253	0.16501
678.89385	0.16385
676.96518	0.16269
675.03650	0.16152
673.10782	0.16028
671.17915	0.15884
669.25047	0.15727
667.32180	0.15589
665.39312	0.15472
663.46445	0.15342
661.53577	0.15193
659.60709	0.15042
657.67842	0.14898
655.74974	0.14766
653.82107	0.14639
651.89239	0.14511
649.96372	0.14375
648.03504	0.14228
646.10636	0.14077
644.17769	0.13923
642.24901	0.13766
640.32034	0.13601
638.39166	0.13422
636.46299	0.13244
634.53431	0.13082
632.60563	0.12929
630.67696	0.12770
628.74828	0.12604
626.81961	0.12437
624.89093	0.12270
622.96226	0.12106
621.03358	0.11950
619.10490	0.11800
617.17623	0.11648
615.24755	0.11487
613.31888	0.11314
611.39020	0.11139
609.46153	0.10972
607.53285	0.10817
605.60417	0.10677
603.67550	0.10540
601.74682	0.10398
599.81815	0.10257
597.88947	0.10130
595.96080	0.10014
594.03212	0.09900
592.10344	0.09794
590.17477	0.09696
588.24609	0.09596
586.31742	0.09488
584.38874	0.09377
582.46007	0.09263
580.53139	0.09151
578.60271	0.09050
576.67404	0.08960
574.74536	0.08870
572.81669	0.08772
570.88801	0.08668
568.95934	0.08571
567.03066	0.08486
565.10198	0.08408
563.17331	0.08335
561.24463	0.08269
559.31596	0.08205
557.38728	0.08142
555.45861	0.08088
553.52993	0.08041
551.60125	0.07988
549.67258	0.07924
547.74390	0.07863
545.81523	0.07814
543.88655	0.07774
541.95788	0.07734
540.02920	0.07682
538.10052	0.07622
536.17185	0.07568
534.24317	0.07524
532.31450	0.07485
530.38582	0.07440
528.45715	0.07380
526.52847	0.07305
524.59979	0.07231
522.67112	0.07162
520.74244	0.07093
518.81377	0.07022
516.88509	0.06952
514.95642	0.06878
513.02774	0.06795
511.09906	0.06712
509.17039	0.06632
507.24171	0.06552
505.31304	0.06473
503.38436	0.06390
501.45569	0.06291
499.52701	0.06181
497.59833	0.06068
495.66966	0.05949
493.74098	0.05822
491.81231	0.05694
489.88363	0.05577
487.95496	0.05468
486.02628	0.05353
484.09760	0.05238
482.16893	0.05135
480.24025	0.05029
478.31158	0.04906
476.38290	0.04774
474.45423	0.04653
472.52555	0.04553
470.59687	0.04474
468.66820	0.04401
466.73952	0.04327
464.81085	0.04266
462.88217	0.04219
460.95350	0.04178
459.02482	0.04148
457.09614	0.04144
455.16747	0.04153
453.23879	0.04152
451.31012	0.04138
449.38144	0.04126
447.45277	0.04110
445.52409	0.04069
443.59541	0.04013
441.66674	0.03960
439.73806	0.03902
437.80939	0.03826
435.88071	0.03737
433.95204	0.03636
432.02336	0.03528
430.09468	0.03421
428.16601	0.03312
426.23733	0.03192
424.30866	0.03062
422.37998	0.02936
420.45131	0.02814
418.52263	0.02686
416.59395	0.02555
414.66528	0.02432
412.73660	0.02316
410.80793	0.02207
408.87925	0.02110
406.95058	0.02013
405.02190	0.01902
403.09322	0.01789
401.16455	0.01679
399.23587	0.01568
397.30720	0.01472
395.37852	0.01389
393.44985	0.01294
391.52117	0.01191
389.59249	0.01104
387.66382	0.01036
385.73514	0.00970
383.80647	0.00895
381.87779	0.00815
379.94912	0.00741
378.02044	0.00685
376.09176	0.00640
374.16309	0.00595
372.23441	0.00543
370.30574	0.00482
368.37706	0.00418
