7496.76250	0.00121
7494.83382	0.00121
7492.90514	0.00122
7490.97647	0.00123
7489.04779	0.00125
7487.11912	0.00125
7485.19044	0.00124
7483.26177	0.00122
7481.33309	0.00122
7479.40441	0.00123
7477.47574	0.00125
7475.54706	0.00126
7473.61839	0.00127
7471.68971	0.00127
7469.76104	0.00127
7467.83236	0.00128
7465.90368	0.00129
7463.97501	0.00131
7462.04633	0.00131
7460.11766	0.00129
7458.18898	0.00128
7456.26031	0.00128
7454.33163	0.00128
7452.40295	0.00129
7450.47428	0.00130
7448.54560	0.00131
7446.61693	0.00133
7444.68825	0.00133
7442.75958	0.00134
7440.83090	0.00135
7438.90222	0.00135
7436.97355	0.00135
7435.04487	0.00134
7433.11620	0.00133
7431.18752	0.00134
7429.25885	0.00134
7427.33017	0.00135
7425.40149	0.00134
7423.47282	0.00134
7421.54414	0.00135
7419.61547	0.00137
7417.68679	0.00138
7415.75812	0.00138
7413.82944	0.00139
7411.90076	0.00139
7409.97209	0.00138
7408.04341	0.00138
7406.11474	0.00139
7404.18606	0.00140
7402.25739	0.00141
7400.32871	0.00141
7398.40003	0.00140
7396.47136	0.00140
7394.54268	0.00141
7392.61401	0.00141
7390.68533	0.00140
7388.75666	0.00140
7386.82798	0.00142
7384.89930	0.00143
7382.97063	0.00144
7381.04195	0.00143
7379.11328	0.00144
7377.18460	0.00144
7375.25593	0.00142
7373.32725	0.00142
7371.39857	0.00144
7369.46990	0.00146
7367.54122	0.00146
7365.61255	0.00146
7363.68387	0.00146
7361.75520	0.00146
7359.82652	0.00146
7357.89784	0.00147
7355.96917	0.00149
7354.04049	0.00149
7352.11182	0.00150
7350.18314	0.00150
7348.25447	0.00150
7346.32579	0.00150
7344.39711	0.00149
7342.46844	0.00150
7340.53976	0.00151
7338.61109	0.00152
7336.68241	0.00151
7334.75374	0.00150
7332.82506	0.00150
7330.89638	0.00151
7328.96771	0.00152
7327.03903	0.00153
7325.11036	0.00154
7323.18168	0.00154
7321.25301	0.00154
7319.32433	0.00154
7317.39565	0.00153
7315.46698	0.00153
7313.53830	0.00154
7311.60963	0.00154
7309.68095	0.00154
7307.75228	0.00154
7305.82360	0.00155
7303.89492	0.00156
7301.96625	0.00158
7300.03757	0.00158
7298.10890	0.00158
7296.18022	0.00158
7294.25155	0.00158
7292.32287	0.00159
7290.39419	0.00161
7288.46552	0.00162
7286.53684	0.00161
7284.60817	0.00160
7282.67949	0.00161
7280.75082	0.00163
7278.82214	0.00164
7276.89346	0.00163
7274.96479	0.00161
7273.03611	0.00162
7271.10744	0.00163
7269.17876	0.00163
7267.25009	0.00163
7265.32141	0.00163
7263.39273	0.00164
7261.46406	0.00165
7259.53538	0.00164
7257.60671	0.00165
7255.67803	0.00166
7253.74936	0.00168
7251.82068	0.00168
7249.89200	0.00168
7247.96333	0.00168
7246.03465	0.00168
7244.10598	0.00168
7242.17730	0.00169
7240.24863	0.00170
7238.31995	0.00170
7236.39127	0.00169
7234.46260	0.00167
7232.53392	0.00166
7230.60525	0.00168
7228.67657	0.00172
7226.74790	0.00174
7224.81922	0.00173
7222.89054	0.00172
7220.96187	0.00172
7219.03319	0.00173
7217.10452	0.00174
7215.17584	0.00174
7213.24717	0.00174
7211.31849	0.00173
7209.38981	0.00173
7207.46114	0.00174
7205.53246	0.00175
7203.60379	0.00177
7201.67511	0.00178
7199.74644	0.00179
7197.81776	0.00179
7195.88908	0.00178
7193.96041	0.00178
7192.03173	0.00179
7190.10306	0.00181
7188.17438	0.00183
7186.24571	0.00183
7184.31703	0.00183
7182.38835	0.00183
7180.45968	0.00184
7178.53100	0.00183
7176.60233	0.00183
7174.67365	0.00182
7172.74498	0.00181
7170.81630	0.00183
7168.88762	0.00185
7166.95895	0.00186
7165.03027	0.00186
7163.10160	0.00186
7161.17292	0.00187
7159.24425	0.00185
7157.31557	0.00184
7155.38689	0.00186
7153.45822	0.00188
7151.52954	0.00189
7149.60087	0.00189
7147.67219	0.00189
7145.74352	0.00189
7143.81484	0.00190
7141.88616	0.00190
7139.95749	0.00190
7138.02881	0.00191
7136.10014	0.00193
7134.17146	0.00193
7132.24279	0.00192
7130.31411	0.00191
7128.38543	0.00192
7126.45676	0.00193
7124.52808	0.00194
7122.59941	0.00193
7120.67073	0.00191
7118.74206	0.00192
7116.81338	0.00194
7114.88470	0.00196
7112.95603	0.00197
7111.02735	0.00198
7109.09868	0.00197
7107.17000	0.00196
7105.24133	0.00197
7103.31265	0.00199
7101.38397	0.00198
7099.45530	0.00198
7097.52662	0.00198
7095.59795	0.00200
7093.66927	0.00201
7091.74060	0.00202
7089.81192	0.00202
7087.88324	0.00203
7085.95457	0.00204
7084.02589	0.00203
7082.09722	0.00203
7080.16854	0.00202
7078.23987	0.00203
7076.31119	0.00204
7074.38251	0.00206
7072.45384	0.00206
7070.52516	0.00205
7068.59649	0.00205
7066.66781	0.00206
7064.73914	0.00208
7062.81046	0.00207
7060.88178	0.00207
7058.95311	0.00207
7057.02443	0.00208
7055.09576	0.00208
7053.16708	0.00208
7051.23841	0.00209
7049.30973	0.00209
7047.38105	0.00210
7045.45238	0.00210
7043.52370	0.00212
7041.59503	0.00213
7039.66635	0.00213
7037.73768	0.00214
7035.80900	0.00215
7033.88032	0.00217
7031.95165	0.00217
7030.02297	0.00216
7028.09430	0.00214
7026.16562	0.00214
7024.23695	0.00216
7022.30827	0.00217
7020.37959	0.00217
7018.45092	0.00215
7016.52224	0.00215
7014.59357	0.00217
7012.66489	0.00219
7010.73622	0.00221
7008.80754	0.00221
7006.87886	0.00221
7004.95019	0.00220
7003.02151	0.00220
7001.09284	0.00220
6999.16416	0.00220
6997.23549	0.00220
6995.30681	0.00221
6993.37813	0.00224
6991.44946	0.00225
6989.52078	0.00225
6987.59211	0.00225
6985.66343	0.00225
6983.73476	0.00227
6981.80608	0.00229
6979.87740	0.00229
6977.94873	0.00227
6976.02005	0.00227
6974.09138	0.00228
6972.16270	0.00230
6970.23403	0.00230
6968.30535	0.00230
6966.37667	0.00229
6964.44800	0.00230
6962.51932	0.00231
6960.59065	0.00231
6958.66197	0.00232
6956.73330	0.00234
6954.80462	0.00234
6952.87594	0.00234
6950.94727	0.00234
6949.01859	0.00235
6947.08992	0.00235
6945.16124	0.00236
6943.23257	0.00238
6941.30389	0.00239
6939.37521	0.00239
6937.44654	0.00238
6935.51786	0.00238
6933.58919	0.00239
6931.66051	0.00240
6929.73184	0.00239
6927.80316	0.00238
6925.87448	0.00238
6923.94581	0.00240
6922.01713	0.00241
6920.08846	0.00241
6918.15978	0.00241
6916.23111	0.00241
6914.30243	0.00242
6912.37375	0.00242
6910.44508	0.00242
6908.51640	0.00243
6906.58773	0.00245
6904.65905	0.00246
6902.73038	0.00247
6900.80170	0.00247
6898.87302	0.00248
6896.94435	0.00247
6895.01567	0.00247
6893.08700	0.00249
6891.15832	0.00251
6889.22965	0.00253
6887.30097	0.00253
6885.37229	0.00251
6883.44362	0.00250
6881.51494	0.00251
6879.58627	0.00253
6877.65759	0.00254
6875.72892	0.00254
6873.80024	0.00255
6871.87156	0.00256
6869.94289	0.00256
6868.01421	0.00256
6866.08554	0.00257
6864.15686	0.00257
6862.22819	0.00257
6860.29951	0.00257
6858.37083	0.00257
6856.44216	0.00258
6854.51348	0.00259
6852.58481	0.00261
6850.65613	0.00262
6848.72746	0.00263
6846.79878	0.00264
6844.87010	0.00266
6842.94143	0.00265
6841.01275	0.00264
6839.08408	0.00265
6837.15540	0.00267
6835.22673	0.00267
6833.29805	0.00268
6831.36937	0.00268
6829.44070	0.00268
6827.51202	0.00268
6825.58335	0.00269
6823.65467	0.00270
6821.72600	0.00269
6819.79732	0.00269
6817.86864	0.00271
6815.93997	0.00272
6814.01129	0.00272
6812.08262	0.00273
6810.15394	0.00274
6808.22527	0.00273
6806.29659	0.00272
6804.36791	0.00274
6802.43924	0.00276
6800.51056	0.00276
6798.58189	0.00276
6796.65321	0.00275
6794.72454	0.00277
6792.79586	0.00278
6790.86718	0.00279
6788.93851	0.00279
6787.00983	0.00281
6785.08116	0.00283
6783.15248	0.00284
6781.22381	0.00284
6779.29513	0.00285
6777.36645	0.00288
6775.43778	0.00287
6773.50910	0.00284
6771.58043	0.00284
6769.65175	0.00285
6767.72308	0.00286
6765.79440	0.00286
6763.86572	0.00285
6761.93705	0.00284
6760.00837	0.00286
6758.07970	0.00289
6756.15102	0.00292
6754.22235	0.00293
6752.29367	0.00293
6750.36499	0.00293
6748.43632	0.00293
6746.50764	0.00293
6744.57897	0.00294
6742.65029	0.00295
6740.72162	0.00296
6738.79294	0.00295
6736.86426	0.00295
6734.93559	0.00295
6733.00691	0.00296
6731.07824	0.00296
6729.14956	0.00296
6727.22089	0.00298
6725.29221	0.00299
6723.36353	0.00300
6721.43486	0.00299
6719.50618	0.00298
6717.57751	0.00300
6715.64883	0.00303
6713.72016	0.00305
6711.79148	0.00306
6709.86280	0.00305
6707.93413	0.00305
6706.00545	0.00306
6704.07678	0.00308
6702.14810	0.00309
6700.21943	0.00309
6698.29075	0.00310
6696.36207	0.00311
6694.43340	0.00311
6692.50472	0.00311
6690.57605	0.00312
6688.64737	0.00314
6686.71870	0.00316
6684.79002	0.00317
6682.86134	0.00317
6680.93267	0.00317
6679.00399	0.00316
6677.07532	0.00315
6675.14664	0.00315
6673.21797	0.00315
6671.28929	0.00316
6669.36061	0.00317
6667.43194	0.00318
6665.50326	0.00318
6663.57459	0.00319
6661.64591	0.00321
6659.71724	0.00324
6657.78856	0.00324
6655.85988	0.00324
6653.93121	0.00324
6652.00253	0.00325
6650.07386	0.00326
6648.14518	0.00326
6646.21651	0.00325
6644.28783	0.00327
6642.35915	0.00330
6640.43048	0.00331
6638.50180	0.00331
6636.57313	0.00331
6634.64445	0.00333
6632.71578	0.00334
6630.78710	0.00334
6628.85842	0.00333
6626.92975	0.00333
6625.00107	0.00332
6623.07240	0.00333
6621.14372	0.00334
6619.21505	0.00336
6617.28637	0.00338
6615.35769	0.00340
6613.42902	0.00341
6611.50034	0.00342
6609.57167	0.00342
6607.64299	0.00341
6605.71432	0.00341
6603.78564	0.00342
6601.85696	0.00342
6599.92829	0.00342
6597.99961	0.00344
6596.07094	0.00345
6594.14226	0.00346
6592.21359	0.00345
6590.28491	0.00346
6588.35623	0.00347
6586.42756	0.00348
6584.49888	0.00351
6582.57021	0.00353
6580.64153	0.00354
6578.71286	0.00356
6576.78418	0.00355
6574.85550	0.00354
6572.92683	0.00354
6570.99815	0.00355
6569.06948	0.00356
6567.14080	0.00356
6565.21213	0.00358
6563.28345	0.00359
6561.35477	0.00359
6559.42610	0.00360
6557.49742	0.00361
6555.56875	0.00362
6553.64007	0.00362
6551.71140	0.00362
6549.78272	0.00362
6547.85404	0.00363
6545.92537	0.00365
6543.99669	0.00368
6542.06802	0.00370
6540.13934	0.00370
6538.21067	0.00370
6536.28199	0.00369
6534.35331	0.00369
6532.42464	0.00371
6530.49596	0.00373
6528.56729	0.00374
6526.63861	0.00374
6524.70994	0.00374
6522.78126	0.00375
6520.85258	0.00376
6518.92391	0.00377
6516.99523	0.00377
6515.06656	0.00377
6513.13788	0.00379
6511.20921	0.00379
6509.28053	0.00380
6507.35185	0.00381
6505.42318	0.00382
6503.49450	0.00383
6501.56583	0.00383
6499.63715	0.00384
6497.70848	0.00385
6495.77980	0.00386
6493.85112	0.00388
6491.92245	0.00390
6489.99377	0.00391
6488.06510	0.00391
6486.13642	0.00390
6484.20775	0.00390
6482.27907	0.00392
6480.35039	0.00394
6478.42172	0.00396
6476.49304	0.00397
6474.56437	0.00396
6472.63569	0.00396
6470.70702	0.00397
6468.77834	0.00398
6466.84966	0.00400
6464.92099	0.00400
6462.99231	0.00399
6461.06364	0.00399
6459.13496	0.00401
6457.20629	0.00403
6455.27761	0.00406
6453.34893	0.00407
6451.42026	0.00407
6449.49158	0.00408
6447.56291	0.00410
6445.63423	0.00412
6443.70556	0.00411
6441.77688	0.00411
6439.84820	0.00412
6437.91953	0.00413
6435.99085	0.00415
6434.06218	0.00416
6432.13350	0.00416
6430.20483	0.00415
6428.27615	0.00416
6426.34747	0.00418
6424.41880	0.00422
6422.49012	0.00424
6420.56145	0.00423
6418.63277	0.00422
6416.70410	0.00424
6414.77542	0.00425
6412.84674	0.00425
6410.91807	0.00426
6408.98939	0.00427
6407.06072	0.00428
6405.13204	0.00428
6403.20337	0.00428
6401.27469	0.00428
6399.34601	0.00430
6397.41734	0.00433
6395.48866	0.00434
6393.55999	0.00435
6391.63131	0.00436
6389.70264	0.00438
6387.77396	0.00439
6385.84528	0.00439
6383.91661	0.00439
6381.98793	0.00440
6380.05926	0.00441
6378.13058	0.00440
6376.20191	0.00441
6374.27323	0.00444
6372.34455	0.00446
6370.41588	0.00446
6368.48720	0.00446
6366.55853	0.00445
6364.62985	0.00446
6362.70118	0.00448
6360.77250	0.00448
6358.84382	0.00450
6356.91515	0.00452
6354.98647	0.00453
6353.05780	0.00453
6351.12912	0.00454
6349.20045	0.00455
6347.27177	0.00457
6345.34309	0.00458
6343.41442	0.00458
6341.48574	0.00459
6339.55707	0.00460
6337.62839	0.00461
6335.69972	0.00461
6333.77104	0.00461
6331.84236	0.00462
6329.91369	0.00464
6327.98501	0.00466
6326.05634	0.00468
6324.12766	0.00471
6322.19899	0.00473
6320.27031	0.00473
6318.34163	0.00473
6316.41296	0.00473
6314.48428	0.00473
6312.55561	0.00473
6310.62693	0.00474
6308.69826	0.00476
6306.76958	0.00478
6304.84090	0.00479
6302.91223	0.00480
6300.98355	0.00482
6299.05488	0.00484
6297.12620	0.00485
6295.19753	0.00486
6293.26885	0.00487
6291.34017	0.00489
6289.41150	0.00491
6287.48282	0.00492
6285.55415	0.00493
6283.62547	0.00493
6281.69680	0.00494
6279.76812	0.00494
6277.83944	0.00495
6275.91077	0.00498
6273.98209	0.00499
6272.05342	0.00499
6270.12474	0.00499
6268.19607	0.00500
6266.26739	0.00502
6264.33871	0.00504
6262.41004	0.00505
6260.48136	0.00505
6258.55269	0.00507
6256.62401	0.00508
6254.69534	0.00507
6252.76666	0.00507
6250.83798	0.00508
6248.90931	0.00510
6246.98063	0.00513
6245.05196	0.00514
6243.12328	0.00514
6241.19461	0.00515
6239.26593	0.00516
6237.33725	0.00518
6235.40858	0.00519
6233.47990	0.00520
6231.55123	0.00523
6229.62255	0.00525
6227.69388	0.00525
6225.76520	0.00524
6223.83652	0.00524
6221.90785	0.00526
6219.97917	0.00527
6218.05050	0.00528
6216.12182	0.00530
6214.19315	0.00531
6212.26447	0.00531
6210.33579	0.00532
6208.40712	0.00534
6206.47844	0.00537
6204.54977	0.00541
6202.62109	0.00543
6200.69242	0.00543
6198.76374	0.00542
6196.83506	0.00541
6194.90639	0.00542
6192.97771	0.00544
6191.04904	0.00546
6189.12036	0.00547
6187.19169	0.00550
6185.26301	0.00552
6183.33433	0.00553
6181.40566	0.00553
6179.47698	0.00553
6177.54831	0.00555
6175.61963	0.00558
6173.69096	0.00560
6171.76228	0.00561
6169.83360	0.00561
6167.90493	0.00562
6165.97625	0.00565
6164.04758	0.00567
6162.11890	0.00567
6160.19023	0.00566
6158.26155	0.00567
6156.33287	0.00569
6154.40420	0.00571
6152.47552	0.00572
6150.54685	0.00572
6148.61817	0.00573
6146.68950	0.00575
6144.76082	0.00578
6142.83214	0.00580
6140.90347	0.00581
6138.97479	0.00581
6137.04612	0.00581
6135.11744	0.00582
6133.18877	0.00582
6131.26009	0.00584
6129.33141	0.00587
6127.40274	0.00590
6125.47406	0.00591
6123.54539	0.00592
6121.61671	0.00592
6119.68804	0.00593
6117.75936	0.00594
6115.83068	0.00596
6113.90201	0.00597
6111.97333	0.00599
6110.04466	0.00601
6108.11598	0.00604
6106.18731	0.00605
6104.25863	0.00606
6102.32995	0.00606
6100.40128	0.00606
6098.47260	0.00607
6096.54393	0.00606
6094.61525	0.00607
6092.68658	0.00611
6090.75790	0.00613
6088.82922	0.00613
6086.90055	0.00613
6084.97187	0.00614
6083.04320	0.00614
6081.11452	0.00615
6079.18585	0.00618
6077.25717	0.00621
6075.32849	0.00624
6073.39982	0.00626
6071.47114	0.00627
6069.54247	0.00628
6067.61379	0.00630
6065.68512	0.00631
6063.75644	0.00632
6061.82776	0.00633
6059.89909	0.00635
6057.97041	0.00636
6056.04174	0.00637
6054.11306	0.00639
6052.18439	0.00640
6050.25571	0.00642
6048.32703	0.00643
6046.39836	0.00644
6044.46968	0.00645
6042.54101	0.00646
6040.61233	0.00648
6038.68366	0.00651
6036.75498	0.00651
6034.82630	0.00651
6032.89763	0.00654
6030.96895	0.00657
6029.04028	0.00658
6027.11160	0.00659
6025.18293	0.00661
6023.25425	0.00663
6021.32557	0.00666
6019.39690	0.00668
6017.46822	0.00668
6015.53955	0.00670
6013.61087	0.00672
6011.68220	0.00674
6009.75352	0.00676
6007.82484	0.00678
6005.89617	0.00679
6003.96749	0.00680
6002.03882	0.00679
6000.11014	0.00679
5998.18147	0.00680
5996.25279	0.00683
5994.32411	0.00685
5992.39544	0.00686
5990.46676	0.00687
5988.53809	0.00688
5986.60941	0.00691
5984.68074	0.00694
5982.75206	0.00697
5980.82338	0.00699
5978.89471	0.00701
5976.96603	0.00702
5975.03736	0.00702
5973.10868	0.00703
5971.18001	0.00704
5969.25133	0.00704
5967.32265	0.00706
5965.39398	0.00707
5963.46530	0.00709
5961.53663	0.00709
5959.60795	0.00710
5957.67928	0.00712
5955.75060	0.00713
5953.82192	0.00715
5951.89325	0.00717
5949.96457	0.00720
5948.03590	0.00723
5946.10722	0.00724
5944.17855	0.00724
5942.24987	0.00727
5940.32119	0.00731
5938.39252	0.00733
5936.46384	0.00732
5934.53517	0.00732
5932.60649	0.00735
5930.67782	0.00738
5928.74914	0.00740
5926.82046	0.00742
5924.89179	0.00741
5922.96311	0.00741
5921.03444	0.00743
5919.10576	0.00744
5917.17709	0.00744
5915.24841	0.00746
5913.31973	0.00750
5911.39106	0.00754
5909.46238	0.00756
5907.53371	0.00756
5905.60503	0.00757
5903.67636	0.00760
5901.74768	0.00763
5899.81900	0.00765
5897.89033	0.00767
5895.96165	0.00769
5894.03298	0.00769
5892.10430	0.00769
5890.17563	0.00771
5888.24695	0.00773
5886.31827	0.00776
5884.38960	0.00778
5882.46092	0.00780
5880.53225	0.00780
5878.60357	0.00780
5876.67490	0.00782
5874.74622	0.00786
5872.81755	0.00789
5870.88887	0.00790
5868.96019	0.00790
5867.03152	0.00791
5865.10284	0.00792
5863.17417	0.00794
5861.24549	0.00795
5859.31682	0.00797
5857.38814	0.00800
5855.45946	0.00804
5853.53079	0.00806
5851.60211	0.00805
5849.67344	0.00804
5847.74476	0.00805
5845.81609	0.00809
5843.88741	0.00814
5841.95873	0.00817
5840.03006	0.00817
5838.10138	0.00819
5836.17271	0.00821
5834.24403	0.00821
5832.31536	0.00822
5830.38668	0.00824
5828.45800	0.00827
5826.52933	0.00829
5824.60065	0.00831
5822.67198	0.00832
5820.74330	0.00835
5818.81463	0.00838
5816.88595	0.00840
5814.95727	0.00842
5813.02860	0.00844
5811.09992	0.00847
5809.17125	0.00849
5807.24257	0.00850
5805.31390	0.00851
5803.38522	0.00852
5801.45654	0.00854
5799.52787	0.00856
5797.59919	0.00858
5795.67052	0.00860
5793.74184	0.00861
5791.81317	0.00862
5789.88449	0.00864
5787.95581	0.00865
5786.02714	0.00865
5784.09846	0.00866
5782.16979	0.00868
5780.24111	0.00871
5778.31244	0.00875
5776.38376	0.00878
5774.45508	0.00881
5772.52641	0.00883
5770.59773	0.00883
5768.66906	0.00883
5766.74038	0.00884
5764.81171	0.00886
5762.88303	0.00890
5760.95435	0.00894
5759.02568	0.00896
5757.09700	0.00899
5755.16833	0.00901
5753.23965	0.00901
5751.31098	0.00902
5749.38230	0.00903
5747.45362	0.00906
5745.52495	0.00909
5743.59627	0.00913
5741.66760	0.00915
5739.73892	0.00915
5737.81025	0.00915
5735.88157	0.00917
5733.95289	0.00920
5732.02422	0.00922
5730.09554	0.00924
5728.16687	0.00926
5726.23819	0.00928
5724.30952	0.00930
5722.38084	0.00932
5720.45216	0.00934
5718.52349	0.00936
5716.59481	0.00939
5714.66614	0.00941
5712.73746	0.00944
5710.80879	0.00947
5708.88011	0.00949
5706.95143	0.00950
5705.02276	0.00952
5703.09408	0.00954
5701.16541	0.00955
5699.23673	0.00958
5697.30806	0.00962
5695.37938	0.00965
5693.45070	0.00966
5691.52203	0.00967
5689.59335	0.00969
5687.66468	0.00972
5685.73600	0.00974
5683.80733	0.00975
5681.87865	0.00977
5679.94997	0.00979
5678.02130	0.00982
5676.09262	0.00987
5674.16395	0.00989
5672.23527	0.00989
5670.30660	0.00990
5668.37792	0.00993
5666.44924	0.00995
5664.52057	0.00996
5662.59189	0.00997
5660.66322	0.01000
5658.73454	0.01002
5656.80587	0.01003
5654.87719	0.01006
5652.94851	0.01009
5651.01984	0.01012
5649.09116	0.01014
5647.16249	0.01016
5645.23381	0.01018
5643.30514	0.01021
5641.37646	0.01023
5639.44778	0.01025
5637.51911	0.01026
5635.59043	0.01029
5633.66176	0.01032
5631.73308	0.01034
5629.80441	0.01035
5627.87573	0.01037
5625.94705	0.01039
5624.01838	0.01043
5622.08970	0.01046
5620.16103	0.01048
5618.23235	0.01050
5616.30368	0.01053
5614.37500	0.01054
5612.44632	0.01055
5610.51765	0.01057
5608.58897	0.01059
5606.66030	0.01061
5604.73162	0.01063
5602.80295	0.01065
5600.87427	0.01066
5598.94559	0.01068
5597.01692	0.01070
5595.08824	0.01073
5593.15957	0.01077
5591.23089	0.01081
5589.30222	0.01084
5587.37354	0.01085
5585.44486	0.01086
5583.51619	0.01089
5581.58751	0.01091
5579.65884	0.01094
5577.73016	0.01098
5575.80149	0.01101
5573.87281	0.01103
5571.94413	0.01104
5570.01546	0.01104
5568.08678	0.01106
5566.15811	0.01110
5564.22943	0.01114
5562.30076	0.01118
5560.37208	0.01120
5558.44340	0.01121
5556.51473	0.01122
5554.58605	0.01124
5552.65738	0.01126
5550.72870	0.01129
5548.80003	0.01132
5546.87135	0.01136
5544.94267	0.01138
5543.01400	0.01139
5541.08532	0.01141
5539.15665	0.01143
5537.22797	0.01146
5535.29930	0.01149
5533.37062	0.01150
5531.44194	0.01152
5529.51327	0.01156
5527.58459	0.01159
5525.65592	0.01160
5523.72724	0.01162
5521.79857	0.01165
5519.86989	0.01168
5517.94121	0.01170
5516.01254	0.01172
5514.08386	0.01174
5512.15519	0.01176
5510.22651	0.01177
5508.29784	0.01179
5506.36916	0.01182
5504.44048	0.01186
5502.51181	0.01191
5500.58313	0.01196
5498.65446	0.01199
5496.72578	0.01200
5494.79711	0.01201
5492.86843	0.01202
5490.93975	0.01204
5489.01108	0.01206
5487.08240	0.01208
5485.15373	0.01212
5483.22505	0.01215
5481.29638	0.01218
5479.36770	0.01220
5477.43902	0.01221
5475.51035	0.01223
5473.58167	0.01226
5471.65300	0.01230
5469.72432	0.01234
5467.79565	0.01234
5465.86697	0.01235
5463.93829	0.01238
5462.00962	0.01242
5460.08094	0.01244
5458.15227	0.01246
5456.22359	0.01250
5454.29492	0.01254
5452.36624	0.01258
5450.43756	0.01261
5448.50889	0.01263
5446.58021	0.01265
5444.65154	0.01267
5442.72286	0.01268
5440.79419	0.01269
5438.86551	0.01272
5436.93683	0.01274
5435.00816	0.01277
5433.07948	0.01281
5431.15081	0.01283
5429.22213	0.01285
5427.29346	0.01288
5425.36478	0.01292
5423.43610	0.01295
5421.50743	0.01297
5419.57875	0.01300
5417.65008	0.01304
5415.72140	0.01305
5413.79273	0.01306
5411.86405	0.01309
5409.93537	0.01312
5408.00670	0.01314
5406.07802	0.01317
5404.14935	0.01321
5402.22067	0.01325
5400.29200	0.01328
5398.36332	0.01330
5396.43464	0.01332
5394.50597	0.01333
5392.57729	0.01335
5390.64862	0.01339
5388.71994	0.01343
5386.79127	0.01345
5384.86259	0.01347
5382.93391	0.01350
5381.00524	0.01354
5379.07656	0.01357
5377.14789	0.01360
5375.21921	0.01363
5373.29054	0.01365
5371.36186	0.01367
5369.43318	0.01369
5367.50451	0.01371
5365.57583	0.01375
5363.64716	0.01378
5361.71848	0.01381
5359.78981	0.01383
5357.86113	0.01385
5355.93245	0.01387
5354.00378	0.01388
5352.07510	0.01390
5350.14643	0.01393
5348.21775	0.01397
5346.28908	0.01399
5344.36040	0.01402
5342.43172	0.01406
5340.50305	0.01409
5338.57437	0.01412
5336.64570	0.01415
5334.71702	0.01419
5332.78835	0.01421
5330.85967	0.01423
5328.93099	0.01427
5327.00232	0.01431
5325.07364	0.01435
5323.14497	0.01438
5321.21629	0.01441
5319.28762	0.01445
5317.35894	0.01448
5315.43026	0.01451
5313.50159	0.01454
5311.57291	0.01458
5309.64424	0.01461
5307.71556	0.01462
5305.78689	0.01464
5303.85821	0.01467
5301.92953	0.01470
5300.00086	0.01472
5298.07218	0.01474
5296.14351	0.01478
5294.21483	0.01481
5292.28616	0.01483
5290.35748	0.01485
5288.42880	0.01487
5286.50013	0.01489
5284.57145	0.01492
5282.64278	0.01497
5280.71410	0.01501
5278.78543	0.01506
5276.85675	0.01510
5274.92807	0.01511
5272.99940	0.01513
5271.07072	0.01516
5269.14205	0.01519
5267.21337	0.01520
5265.28470	0.01521
5263.35602	0.01525
5261.42734	0.01530
5259.49867	0.01532
5257.56999	0.01532
5255.64132	0.01534
5253.71264	0.01539
5251.78397	0.01543
5249.85529	0.01546
5247.92661	0.01549
5245.99794	0.01551
5244.06926	0.01553
5242.14059	0.01556
5240.21191	0.01560
5238.28324	0.01564
5236.35456	0.01568
5234.42588	0.01571
5232.49721	0.01574
5230.56853	0.01577
5228.63986	0.01579
5226.71118	0.01581
5224.78251	0.01584
5222.85383	0.01587
5220.92515	0.01591
5218.99648	0.01594
5217.06780	0.01597
5215.13913	0.01602
5213.21045	0.01607
5211.28178	0.01610
5209.35310	0.01611
5207.42442	0.01614
5205.49575	0.01620
5203.56707	0.01627
5201.63840	0.01629
5199.70972	0.01629
5197.78105	0.01630
5195.85237	0.01634
5193.92369	0.01638
5191.99502	0.01642
5190.06634	0.01644
5188.13767	0.01646
5186.20899	0.01648
5184.28032	0.01650
5182.35164	0.01653
5180.42296	0.01658
5178.49429	0.01663
5176.56561	0.01665
5174.63694	0.01667
5172.70826	0.01670
5170.77959	0.01675
5168.85091	0.01679
5166.92223	0.01681
5164.99356	0.01683
5163.06488	0.01687
5161.13621	0.01691
5159.20753	0.01695
5157.27886	0.01698
5155.35018	0.01700
5153.42150	0.01704
5151.49283	0.01707
5149.56415	0.01710
5147.63548	0.01711
5145.70680	0.01714
5143.77813	0.01719
5141.84945	0.01723
5139.92077	0.01725
5137.99210	0.01727
5136.06342	0.01730
5134.13475	0.01734
5132.20607	0.01739
5130.27740	0.01743
5128.34872	0.01746
5126.42004	0.01748
5124.49137	0.01751
5122.56269	0.01755
5120.63402	0.01758
5118.70534	0.01760
5116.77667	0.01763
5114.84799	0.01766
5112.91931	0.01771
5110.99064	0.01776
5109.06196	0.01780
5107.13329	0.01782
5105.20461	0.01784
5103.27594	0.01787
5101.34726	0.01790
5099.41858	0.01793
5097.48991	0.01796
5095.56123	0.01801
5093.63256	0.01806
5091.70388	0.01808
5089.77521	0.01811
5087.84653	0.01814
5085.91785	0.01818
5083.98918	0.01821
5082.06050	0.01823
5080.13183	0.01826
5078.20315	0.01829
5076.27448	0.01835
5074.34580	0.01840
5072.41712	0.01843
5070.48845	0.01845
5068.55977	0.01848
5066.63110	0.01853
5064.70242	0.01857
5062.77375	0.01859
5060.84507	0.01861
5058.91639	0.01863
5056.98772	0.01867
5055.05904	0.01869
5053.13037	0.01871
5051.20169	0.01873
5049.27302	0.01876
5047.34434	0.01880
5045.41566	0.01886
5043.48699	0.01891
5041.55831	0.01894
5039.62964	0.01899
5037.70096	0.01904
5035.77229	0.01907
5033.84361	0.01908
5031.91493	0.01909
5029.98626	0.01914
5028.05758	0.01920
5026.12891	0.01925
5024.20023	0.01929
5022.27156	0.01932
5020.34288	0.01936
5018.41420	0.01938
5016.48553	0.01942
5014.55685	0.01944
5012.62818	0.01946
5010.69950	0.01947
5008.77083	0.01951
5006.84215	0.01956
5004.91347	0.01961
5002.98480	0.01964
5001.05612	0.01966
4999.12745	0.01969
4997.19877	0.01974
4995.27010	0.01979
4993.34142	0.01984
4991.41274	0.01988
4989.48407	0.01990
4987.55539	0.01993
4985.62672	0.01996
4983.69804	0.02001
4981.76937	0.02006
4979.84069	0.02011
4977.91201	0.02014
4975.98334	0.02016
4974.05466	0.02017
4972.12599	0.02020
4970.19731	0.02025
4968.26864	0.02030
4966.33996	0.02035
4964.41128	0.02039
4962.48261	0.02040
4960.55393	0.02042
4958.62526	0.02046
4956.69658	0.02050
4954.76791	0.02054
4952.83923	0.02058
4950.91055	0.02062
4948.98188	0.02065
4947.05320	0.02070
4945.12453	0.02074
4943.19585	0.02078
4941.26718	0.02081
4939.33850	0.02086
4937.40982	0.02090
4935.48115	0.02094
4933.55247	0.02099
4931.62380	0.02102
4929.69512	0.02104
4927.76645	0.02108
4925.83777	0.02112
4923.90909	0.02115
4921.98042	0.02117
4920.05174	0.02121
4918.12307	0.02126
4916.19439	0.02132
4914.26572	0.02135
4912.33704	0.02137
4910.40836	0.02139
4908.47969	0.02142
4906.55101	0.02148
4904.62234	0.02154
4902.69366	0.02159
4900.76499	0.02162
4898.83631	0.02163
4896.90763	0.02163
4894.97896	0.02166
4893.05028	0.02172
4891.12161	0.02179
4889.19293	0.02183
4887.26426	0.02186
4885.33558	0.02189
4883.40690	0.02193
4881.47823	0.02199
4879.54955	0.02204
4877.62088	0.02209
4875.69220	0.02210
4873.76353	0.02211
4871.83485	0.02213
4869.90617	0.02219
4867.97750	0.02224
4866.04882	0.02228
4864.12015	0.02230
4862.19147	0.02232
4860.26280	0.02236
4858.33412	0.02242
4856.40544	0.02248
4854.47677	0.02253
4852.54809	0.02258
4850.61942	0.02264
4848.69074	0.02270
4846.76207	0.02273
4844.83339	0.02274
4842.90471	0.02276
4840.97604	0.02279
4839.04736	0.02286
4837.11869	0.02291
4835.19001	0.02294
4833.26134	0.02295
4831.33266	0.02300
4829.40398	0.02307
4827.47531	0.02311
4825.54663	0.02314
4823.61796	0.02318
4821.68928	0.02323
4819.76061	0.02326
4817.83193	0.02329
4815.90325	0.02331
4813.97458	0.02334
4812.04590	0.02339
4810.11723	0.02345
4808.18855	0.02350
4806.25988	0.02354
4804.33120	0.02358
4802.40252	0.02362
4800.47385	0.02366
4798.54517	0.02369
4796.61650	0.02372
4794.68782	0.02378
4792.75915	0.02383
4790.83047	0.02386
4788.90179	0.02389
4786.97312	0.02392
4785.04444	0.02396
4783.11577	0.02401
4781.18709	0.02405
4779.25842	0.02410
4777.32974	0.02416
4775.40106	0.02423
4773.47239	0.02428
4771.54371	0.02430
4769.61504	0.02431
4767.68636	0.02434
4765.75769	0.02441
4763.82901	0.02447
4761.90033	0.02452
4759.97166	0.02456
4758.04298	0.02460
4756.11431	0.02466
4754.18563	0.02471
4752.25696	0.02474
4750.32828	0.02478
4748.39960	0.02481
4746.47093	0.02487
4744.54225	0.02492
4742.61358	0.02496
4740.68490	0.02500
4738.75623	0.02505
4736.82755	0.02510
4734.89887	0.02514
4732.97020	0.02516
4731.04152	0.02519
4729.11285	0.02524
4727.18417	0.02531
4725.25550	0.02537
4723.32682	0.02541
4721.39814	0.02543
4719.46947	0.02546
4717.54079	0.02551
4715.61212	0.02556
4713.68344	0.02559
4711.75477	0.02563
4709.82609	0.02570
4707.89741	0.02576
4705.96874	0.02580
4704.04006	0.02583
4702.11139	0.02586
4700.18271	0.02591
4698.25404	0.02597
4696.32536	0.02601
4694.39668	0.02604
4692.46801	0.02607
4690.53933	0.02611
4688.61066	0.02615
4686.68198	0.02618
4684.75331	0.02623
4682.82463	0.02631
4680.89595	0.02639
4678.96728	0.02644
4677.03860	0.02647
4675.10993	0.02650
4673.18125	0.02656
4671.25258	0.02663
4669.32390	0.02668
4667.39522	0.02672
4665.46655	0.02678
4663.53787	0.02681
4661.60920	0.02684
4659.68052	0.02689
4657.75185	0.02696
4655.82317	0.02702
4653.89449	0.02705
4651.96582	0.02707
4650.03714	0.02711
4648.10847	0.02718
4646.17979	0.02723
4644.25112	0.02725
4642.32244	0.02726
4640.39376	0.02730
4638.46509	0.02734
4636.53641	0.02739
4634.60774	0.02744
4632.67906	0.02754
4630.75039	0.02763
4628.82171	0.02769
4626.89303	0.02774
4624.96436	0.02780
4623.03568	0.02787
4621.10701	0.02792
4619.17833	0.02795
4617.24966	0.02797
4615.32098	0.02801
4613.39230	0.02806
4611.46363	0.02810
4609.53495	0.02812
4607.60628	0.02818
4605.67760	0.02825
4603.74893	0.02830
4601.82025	0.02833
4599.89157	0.02838
4597.96290	0.02845
4596.03422	0.02852
4594.10555	0.02855
4592.17687	0.02858
4590.24820	0.02862
4588.31952	0.02870
4586.39084	0.02878
4584.46217	0.02883
4582.53349	0.02887
4580.60482	0.02892
4578.67614	0.02896
4576.74747	0.02902
4574.81879	0.02908
4572.89011	0.02913
4570.96144	0.02918
4569.03276	0.02922
4567.10409	0.02927
4565.17541	0.02934
4563.24674	0.02941
4561.31806	0.02947
4559.38938	0.02953
4557.46071	0.02957
4555.53203	0.02959
4553.60336	0.02962
4551.67468	0.02967
4549.74601	0.02974
4547.81733	0.02982
4545.88865	0.02987
4543.95998	0.02991
4542.03130	0.02996
4540.10263	0.03001
4538.17395	0.03007
4536.24528	0.03014
4534.31660	0.03020
4532.38792	0.03027
4530.45925	0.03034
4528.53057	0.03040
4526.60190	0.03045
4524.67322	0.03049
4522.74455	0.03053
4520.81587	0.03056
4518.88719	0.03062
4516.95852	0.03068
4515.02984	0.03075
4513.10117	0.03081
4511.17249	0.03085
4509.24382	0.03089
4507.31514	0.03093
4505.38646	0.03099
4503.45779	0.03104
4501.52911	0.03110
4499.60044	0.03117
4497.67176	0.03125
4495.74309	0.03132
4493.81441	0.03139
4491.88573	0.03145
4489.95706	0.03149
4488.02838	0.03154
4486.09971	0.03160
4484.17103	0.03166
4482.24236	0.03172
4480.31368	0.03178
4478.38500	0.03182
4476.45633	0.03187
4474.52765	0.03193
4472.59898	0.03201
4470.67030	0.03209
4468.74163	0.03215
4466.81295	0.03220
4464.88427	0.03225
4462.95560	0.03231
4461.02692	0.03236
4459.09825	0.03240
4457.16957	0.03244
4455.24090	0.03249
4453.31222	0.03254
4451.38354	0.03260
4449.45487	0.03266
4447.52619	0.03275
4445.59752	0.03285
4443.66884	0.03293
4441.74017	0.03296
4439.81149	0.03299
4437.88281	0.03304
4435.95414	0.03310
4434.02546	0.03318
4432.09679	0.03326
4430.16811	0.03332
4428.23944	0.03337
4426.31076	0.03342
4424.38208	0.03348
4422.45341	0.03355
4420.52473	0.03362
4418.59606	0.03367
4416.66738	0.03372
4414.73871	0.03378
4412.81003	0.03386
4410.88135	0.03393
4408.95268	0.03400
4407.02400	0.03406
4405.09533	0.03411
4403.16665	0.03417
4401.23798	0.03424
4399.30930	0.03431
4397.38062	0.03438
4395.45195	0.03445
4393.52327	0.03451
4391.59460	0.03456
4389.66592	0.03462
4387.73725	0.03468
4385.80857	0.03475
4383.87989	0.03483
4381.95122	0.03489
4380.02254	0.03495
4378.09387	0.03501
4376.16519	0.03506
4374.23652	0.03511
4372.30784	0.03517
4370.37916	0.03522
4368.45049	0.03528
4366.52181	0.03535
4364.59314	0.03544
4362.66446	0.03553
4360.73579	0.03559
4358.80711	0.03564
4356.87843	0.03568
4354.94976	0.03574
4353.02108	0.03582
4351.09241	0.03591
4349.16373	0.03599
4347.23506	0.03605
4345.30638	0.03611
4343.37770	0.03617
4341.44903	0.03625
4339.52035	0.03633
4337.59168	0.03641
4335.66300	0.03651
4333.73433	0.03660
4331.80565	0.03668
4329.87697	0.03674
4327.94830	0.03680
4326.01962	0.03685
4324.09095	0.03690
4322.16227	0.03698
4320.23360	0.03705
4318.30492	0.03712
4316.37624	0.03719
4314.44757	0.03728
4312.51889	0.03737
4310.59022	0.03745
4308.66154	0.03751
4306.73287	0.03758
4304.80419	0.03766
4302.87551	0.03773
4300.94684	0.03780
4299.01816	0.03786
4297.08949	0.03790
4295.16081	0.03797
4293.23214	0.03805
4291.30346	0.03813
4289.37478	0.03822
4287.44611	0.03832
4285.51743	0.03841
4283.58876	0.03850
4281.66008	0.03858
4279.73141	0.03862
4277.80273	0.03868
4275.87405	0.03875
4273.94538	0.03882
4272.01670	0.03891
4270.08803	0.03899
4268.15935	0.03907
4266.23068	0.03916
4264.30200	0.03923
4262.37332	0.03930
4260.44465	0.03936
4258.51597	0.03941
4256.58730	0.03947
4254.65862	0.03957
4252.72995	0.03966
4250.80127	0.03972
4248.87259	0.03976
4246.94392	0.03982
4245.01524	0.03992
4243.08657	0.04001
4241.15789	0.04008
4239.22922	0.04015
4237.30054	0.04022
4235.37186	0.04031
4233.44319	0.04039
4231.51451	0.04047
4229.58584	0.04056
4227.65716	0.04065
4225.72849	0.04073
4223.79981	0.04078
4221.87113	0.04085
4219.94246	0.04094
4218.01378	0.04102
4216.08511	0.04111
4214.15643	0.04119
4212.22776	0.04127
4210.29908	0.04135
4208.37040	0.04141
4206.44173	0.04147
4204.51305	0.04155
4202.58438	0.04166
4200.65570	0.04176
4198.72703	0.04185
4196.79835	0.04193
4194.86968	0.04199
4192.94100	0.04206
4191.01232	0.04213
4189.08365	0.04220
4187.15497	0.04229
4185.22630	0.04241
4183.29762	0.04254
4181.36895	0.04264
4179.44027	0.04270
4177.51159	0.04275
4175.58292	0.04281
4173.65424	0.04290
4171.72557	0.04301
4169.79689	0.04309
4167.86822	0.04316
4165.93954	0.04322
4164.01086	0.04329
4162.08219	0.04337
4160.15351	0.04348
4158.22484	0.04361
4156.29616	0.04371
4154.36749	0.04377
4152.43881	0.04381
4150.51013	0.04388
4148.58146	0.04397
4146.65278	0.04408
4144.72411	0.04420
4142.79543	0.04431
4140.86676	0.04442
4138.93808	0.04449
4137.00940	0.04454
4135.08073	0.04461
4133.15205	0.04470
4131.22338	0.04479
4129.29470	0.04487
4127.36603	0.04496
4125.43735	0.04506
4123.50867	0.04516
4121.58000	0.04526
4119.65132	0.04533
4117.72265	0.04541
4115.79397	0.04550
4113.86530	0.04559
4111.93662	0.04568
4110.00794	0.04579
4108.07927	0.04589
4106.15059	0.04598
4104.22192	0.04606
4102.29324	0.04612
4100.36457	0.04619
4098.43589	0.04626
4096.50721	0.04634
4094.57854	0.04646
4092.64986	0.04658
4090.72119	0.04667
4088.79251	0.04676
4086.86384	0.04685
4084.93516	0.04694
4083.00648	0.04703
4081.07781	0.04711
4079.14913	0.04719
4077.22046	0.04727
4075.29178	0.04737
4073.36311	0.04747
4071.43443	0.04757
4069.50575	0.04767
4067.57708	0.04776
4065.64840	0.04786
4063.71973	0.04798
4061.79105	0.04809
4059.86238	0.04818
4057.93370	0.04824
4056.00502	0.04831
4054.07635	0.04841
4052.14767	0.04852
4050.21900	0.04863
4048.29032	0.04872
4046.36165	0.04880
4044.43297	0.04890
4042.50429	0.04899
4040.57562	0.04908
4038.64694	0.04916
4036.71827	0.04925
4034.78959	0.04935
4032.86092	0.04945
4030.93224	0.04955
4029.00356	0.04963
4027.07489	0.04972
4025.14621	0.04984
4023.21754	0.04996
4021.28886	0.05004
4019.36019	0.05012
4017.43151	0.05022
4015.50283	0.05032
4013.57416	0.05041
4011.64548	0.05052
4009.71681	0.05063
4007.78813	0.05074
4005.85946	0.05085
4003.93078	0.05096
4002.00210	0.05107
4000.07343	0.05116
3998.14475	0.05124
3996.21608	0.05133
3994.28740	0.05142
3992.35873	0.05151
3990.43005	0.05161
3988.50137	0.05171
3986.57270	0.05181
3984.64402	0.05191
3982.71535	0.05202
3980.78667	0.05212
3978.85800	0.05222
3976.92932	0.05232
3975.00064	0.05241
3973.07197	0.05252
3971.14329	0.05265
3969.21462	0.05276
3967.28594	0.05285
3965.35727	0.05295
3963.42859	0.05304
3961.49991	0.05312
3959.57124	0.05323
3957.64256	0.05335
3955.71389	0.05347
3953.78521	0.05355
3951.85654	0.05362
3949.92786	0.05371
3947.99918	0.05380
3946.07051	0.05389
3944.14183	0.05399
3942.21316	0.05409
3940.28448	0.05423
3938.35581	0.05437
3936.42713	0.05447
3934.49845	0.05454
3932.56978	0.05461
3930.64110	0.05474
3928.71243	0.05488
3926.78375	0.05497
3924.85508	0.05504
3922.92640	0.05514
3920.99772	0.05523
3919.06905	0.05530
3917.14037	0.05539
3915.21170	0.05555
3913.28302	0.05573
3911.35435	0.05587
3909.42567	0.05596
3907.49699	0.05598
3905.56832	0.05593
3903.63964	0.05592
3901.71097	0.05603
3899.78229	0.05624
3897.85362	0.05648
3895.92494	0.05667
3893.99626	0.05674
3892.06759	0.05676
3890.13891	0.05685
3888.21024	0.05693
3886.28156	0.05697
3884.35289	0.05708
3882.42421	0.05722
3880.49553	0.05735
3878.56686	0.05753
3876.63818	0.05765
3874.70951	0.05768
3872.78083	0.05769
3870.85216	0.05773
3868.92348	0.05788
3866.99480	0.05808
3865.06613	0.05822
3863.13745	0.05836
3861.20878	0.05855
3859.28010	0.05869
3857.35143	0.05862
3855.42275	0.05836
3853.49407	0.05832
3851.56540	0.05870
3849.63672	0.05914
3847.70805	0.05936
3845.77937	0.05943
3843.85070	0.05945
3841.92202	0.05950
3839.99334	0.05956
3838.06467	0.05963
3836.13599	0.05977
3834.20732	0.05996
3832.27864	0.06017
3830.34997	0.06036
3828.42129	0.06049
3826.49261	0.06059
3824.56394	0.06063
3822.63526	0.06059
3820.70659	0.06064
3818.77791	0.06084
3816.84924	0.06100
3814.92056	0.06118
3812.99188	0.06141
3811.06321	0.06154
3809.13453	0.06155
3807.20586	0.06156
3805.27718	0.06164
3803.34851	0.06170
3801.41983	0.06182
3799.49115	0.06207
3797.56248	0.06231
3795.63380	0.06246
3793.70513	0.06259
3791.77645	0.06271
3789.84778	0.06283
3787.91910	0.06294
3785.99042	0.06305
3784.06175	0.06316
3782.13307	0.06324
3780.20440	0.06331
3778.27572	0.06345
3776.34705	0.06363
3774.41837	0.06375
3772.48969	0.06377
3770.56102	0.06382
3768.63234	0.06396
3766.70367	0.06412
3764.77499	0.06427
3762.84632	0.06440
3760.91764	0.06446
3758.98896	0.06451
3757.06029	0.06463
3755.13161	0.06470
3753.20294	0.06461
3751.27426	0.06452
3749.34559	0.06462
3747.41691	0.06474
3745.48823	0.06475
3743.55956	0.06493
3741.63088	0.06530
3739.70221	0.06547
3737.77353	0.06542
3735.84486	0.06540
3733.91618	0.06557
3731.98750	0.06587
3730.05883	0.06616
3728.13015	0.06633
3726.20148	0.06642
3724.27280	0.06656
3722.34413	0.06669
3720.41545	0.06681
3718.48677	0.06696
3716.55810	0.06706
3714.62942	0.06703
3712.70075	0.06695
3710.77207	0.06702
3708.84340	0.06726
3706.91472	0.06751
3704.98604	0.06762
3703.05737	0.06764
3701.12869	0.06773
3699.20002	0.06789
3697.27134	0.06803
3695.34267	0.06810
3693.41399	0.06809
3691.48531	0.06805
3689.55664	0.06808
3687.62796	0.06830
3685.69929	0.06858
3683.77061	0.06878
3681.84194	0.06889
3679.91326	0.06891
3677.98458	0.06881
3676.05591	0.06873
3674.12723	0.06885
3672.19856	0.06903
3670.26988	0.06918
3668.34121	0.06943
3666.41253	0.06972
3664.48385	0.06989
3662.55518	0.06999
3660.62650	0.07006
3658.69783	0.07006
3656.76915	0.07008
3654.84048	0.07015
3652.91180	0.07011
3650.98312	0.06992
3649.05445	0.06986
3647.12577	0.07011
3645.19710	0.07049
3643.26842	0.07082
3641.33975	0.07101
3639.41107	0.07114
3637.48239	0.07124
3635.55372	0.07132
3633.62504	0.07134
3631.69637	0.07121
3629.76769	0.07107
3627.83902	0.07122
3625.91034	0.07158
3623.98166	0.07182
3622.05299	0.07184
3620.12431	0.07180
3618.19564	0.07185
3616.26696	0.07198
3614.33829	0.07208
3612.40961	0.07213
3610.48093	0.07215
3608.55226	0.07222
3606.62358	0.07242
3604.69491	0.07263
3602.76623	0.07272
3600.83756	0.07277
3598.90888	0.07283
3596.98020	0.07287
3595.05153	0.07292
3593.12285	0.07302
3591.19418	0.07304
3589.26550	0.07298
3587.33683	0.07304
3585.40815	0.07328
3583.47947	0.07352
3581.55080	0.07366
3579.62212	0.07374
3577.69345	0.07381
3575.76477	0.07389
3573.83610	0.07398
3571.90742	0.07404
3569.97874	0.07399
3568.05007	0.07392
3566.12139	0.07401
3564.19272	0.07424
3562.26404	0.07444
3560.33537	0.07457
3558.40669	0.07467
3556.47801	0.07474
3554.54934	0.07481
3552.62066	0.07489
3550.69199	0.07495
3548.76331	0.07498
3546.83464	0.07500
3544.90596	0.07508
3542.97728	0.07522
3541.04861	0.07533
3539.11993	0.07540
3537.19126	0.07545
3535.26258	0.07552
3533.33391	0.07558
3531.40523	0.07561
3529.47655	0.07562
3527.54788	0.07565
3525.61920	0.07569
3523.69053	0.07573
3521.76185	0.07580
3519.83318	0.07587
3517.90450	0.07592
3515.97582	0.07595
3514.04715	0.07598
3512.11847	0.07599
3510.18980	0.07601
3508.26112	0.07606
3506.33245	0.07610
3504.40377	0.07613
3502.47509	0.07617
3500.54642	0.07623
3498.61774	0.07626
3496.68907	0.07627
3494.76039	0.07628
3492.83172	0.07630
3490.90304	0.07633
3488.97436	0.07635
3487.04569	0.07636
3485.11701	0.07639
3483.18834	0.07646
3481.25966	0.07654
3479.33099	0.07662
3477.40231	0.07670
3475.47363	0.07677
3473.54496	0.07686
3471.61628	0.07696
3469.68761	0.07708
3467.75893	0.07718
3465.83026	0.07729
3463.90158	0.07740
3461.97290	0.07751
3460.04423	0.07764
3458.11555	0.07779
3456.18688	0.07792
3454.25820	0.07805
3452.32953	0.07818
3450.40085	0.07829
3448.47217	0.07839
3446.54350	0.07850
3444.61482	0.07862
3442.68615	0.07874
3440.75747	0.07889
3438.82880	0.07907
3436.90012	0.07928
3434.97144	0.07950
3433.04277	0.07972
3431.11409	0.07997
3429.18542	0.08024
3427.25674	0.08052
3425.32807	0.08077
3423.39939	0.08098
3421.47071	0.08119
3419.54204	0.08144
3417.61336	0.08167
3415.68469	0.08188
3413.75601	0.08211
3411.82734	0.08232
3409.89866	0.08250
3407.96998	0.08267
3406.04131	0.08284
3404.11263	0.08300
3402.18396	0.08316
3400.25528	0.08334
3398.32661	0.08353
3396.39793	0.08370
3394.46925	0.08384
3392.54058	0.08398
3390.61190	0.08418
3388.68323	0.08440
3386.75455	0.08457
3384.82588	0.08470
3382.89720	0.08485
3380.96852	0.08503
3379.03985	0.08521
3377.11117	0.08539
3375.18250	0.08557
3373.25382	0.08574
3371.32515	0.08590
3369.39647	0.08603
3367.46779	0.08617
3365.53912	0.08633
3363.61044	0.08651
3361.68177	0.08669
3359.75309	0.08689
3357.82442	0.08706
3355.89574	0.08720
3353.96706	0.08733
3352.03839	0.08749
3350.10971	0.08766
3348.18104	0.08780
3346.25236	0.08794
3344.32369	0.08808
3342.39501	0.08824
3340.46633	0.08838
3338.53766	0.08853
3336.60898	0.08869
3334.68031	0.08886
3332.75163	0.08903
3330.82296	0.08922
3328.89428	0.08940
3326.96560	0.08956
3325.03693	0.08973
3323.10825	0.08990
3321.17958	0.09007
3319.25090	0.09024
3317.32223	0.09042
3315.39355	0.09059
3313.46487	0.09074
3311.53620	0.09089
3309.60752	0.09107
3307.67885	0.09125
3305.75017	0.09141
3303.82150	0.09157
3301.89282	0.09174
3299.96414	0.09192
3298.03547	0.09210
3296.10679	0.09227
3294.17812	0.09244
3292.24944	0.09261
3290.32077	0.09276
3288.39209	0.09292
3286.46341	0.09310
3284.53474	0.09330
3282.60606	0.09349
3280.67739	0.09365
3278.74871	0.09377
3276.82004	0.09392
3274.89136	0.09411
3272.96268	0.09431
3271.03401	0.09449
3269.10533	0.09466
3267.17666	0.09482
3265.24798	0.09498
3263.31931	0.09514
3261.39063	0.09532
3259.46195	0.09551
3257.53328	0.09571
3255.60460	0.09590
3253.67593	0.09609
3251.74725	0.09627
3249.81858	0.09641
3247.88990	0.09655
3245.96122	0.09670
3244.03255	0.09688
3242.10387	0.09708
3240.17520	0.09727
3238.24652	0.09743
3236.31785	0.09759
3234.38917	0.09774
3232.46049	0.09791
3230.53182	0.09811
3228.60314	0.09829
3226.67447	0.09845
3224.74579	0.09861
3222.81712	0.09880
3220.88844	0.09897
3218.95976	0.09914
3217.03109	0.09930
3215.10241	0.09944
3213.17374	0.09958
3211.24506	0.09975
3209.31639	0.09994
3207.38771	0.10010
3205.45903	0.10027
3203.53036	0.10048
3201.60168	0.10069
3199.67301	0.10085
3197.74433	0.10102
3195.81566	0.10121
3193.88698	0.10142
3191.95830	0.10159
3190.02963	0.10176
3188.10095	0.10192
3186.17228	0.10208
3184.24360	0.10228
3182.31493	0.10250
3180.38625	0.10270
3178.45757	0.10285
3176.52890	0.10301
3174.60022	0.10320
3172.67155	0.10340
3170.74287	0.10357
3168.81420	0.10372
3166.88552	0.10387
3164.95684	0.10404
3163.02817	0.10421
3161.09949	0.10438
3159.17082	0.10455
3157.24214	0.10473
3155.31347	0.10490
3153.38479	0.10508
3151.45611	0.10527
3149.52744	0.10548
3147.59876	0.10568
3145.67009	0.10584
3143.74141	0.10599
3141.81274	0.10614
3139.88406	0.10630
3137.95538	0.10648
3136.02671	0.10666
3134.09803	0.10680
3132.16936	0.10692
3130.24068	0.10709
3128.31201	0.10728
3126.38333	0.10746
3124.45465	0.10762
3122.52598	0.10777
3120.59730	0.10794
3118.66863	0.10812
3116.73995	0.10828
3114.81128	0.10846
3112.88260	0.10865
3110.95392	0.10885
3109.02525	0.10904
3107.09657	0.10921
3105.16790	0.10936
3103.23922	0.10950
3101.31055	0.10964
3099.38187	0.10982
3097.45319	0.11001
3095.52452	0.11019
3093.59584	0.11035
3091.66717	0.11049
3089.73849	0.11063
3087.80982	0.11080
3085.88114	0.11098
3083.95246	0.11114
3082.02379	0.11130
3080.09511	0.11149
3078.16644	0.11165
3076.23776	0.11179
3074.30909	0.11193
3072.38041	0.11209
3070.45173	0.11226
3068.52306	0.11242
3066.59438	0.11257
3064.66571	0.11275
3062.73703	0.11296
3060.80836	0.11315
3058.87968	0.11330
3056.95100	0.11342
3055.02233	0.11356
3053.09365	0.11373
3051.16498	0.11390
3049.23630	0.11410
3047.30763	0.11429
3045.37895	0.11443
3043.45027	0.11454
3041.52160	0.11465
3039.59292	0.11479
3037.66425	0.11495
3035.73557	0.11513
3033.80690	0.11532
3031.87822	0.11552
3029.94954	0.11571
3028.02087	0.11586
3026.09219	0.11598
3024.16352	0.11607
3022.23484	0.11617
3020.30617	0.11630
3018.37749	0.11642
3016.44881	0.11656
3014.52014	0.11671
3012.59146	0.11684
3010.66279	0.11697
3008.73411	0.11709
3006.80544	0.11720
3004.87676	0.11730
3002.94808	0.11739
3001.01941	0.11747
2999.09073	0.11753
2997.16206	0.11757
2995.23338	0.11762
2993.30471	0.11766
2991.37603	0.11764
2989.44735	0.11755
2987.51868	0.11743
2985.59000	0.11730
2983.66133	0.11714
2981.73265	0.11692
2979.80398	0.11664
2977.87530	0.11631
2975.94662	0.11594
2974.01795	0.11555
2972.08927	0.11512
2970.16060	0.11462
2968.23192	0.11410
2966.30325	0.11366
2964.37457	0.11337
2962.44589	0.11325
2960.51722	0.11333
2958.58854	0.11363
2956.65987	0.11418
2954.73119	0.11494
2952.80252	0.11581
2950.87384	0.11668
2948.94516	0.11750
2947.01649	0.11822
2945.08781	0.11884
2943.15914	0.11930
2941.23046	0.11958
2939.30179	0.11970
2937.37311	0.11976
2935.44443	0.11982
2933.51576	0.11988
2931.58708	0.11990
2929.65841	0.11986
2927.72973	0.11980
2925.80106	0.11975
2923.87238	0.11973
2921.94370	0.11969
2920.01503	0.11969
2918.08635	0.11979
2916.15768	0.12003
2914.22900	0.12045
2912.30033	0.12093
2910.37165	0.12135
2908.44297	0.12171
2906.51430	0.12201
2904.58562	0.12229
2902.65695	0.12257
2900.72827	0.12285
2898.79960	0.12315
2896.87092	0.12353
2894.94224	0.12393
2893.01357	0.12430
2891.08489	0.12463
2889.15622	0.12495
2887.22754	0.12526
2885.29887	0.12554
2883.37019	0.12578
2881.44151	0.12598
2879.51284	0.12616
2877.58416	0.12634
2875.65549	0.12653
2873.72681	0.12677
2871.79814	0.12705
2869.86946	0.12732
2867.94078	0.12757
2866.01211	0.12780
2864.08343	0.12798
2862.15476	0.12809
2860.22608	0.12815
2858.29741	0.12820
2856.36873	0.12827
2854.44005	0.12830
2852.51138	0.12831
2850.58270	0.12842
2848.65403	0.12878
2846.72535	0.12939
2844.79668	0.13007
2842.86800	0.13063
2840.93932	0.13102
2839.01065	0.13132
2837.08197	0.13159
2835.15330	0.13186
2833.22462	0.13212
2831.29595	0.13234
2829.36727	0.13252
2827.43859	0.13270
2825.50992	0.13289
2823.58124	0.13310
2821.65257	0.13330
2819.72389	0.13351
2817.79522	0.13371
2815.86654	0.13390
2813.93786	0.13408
2812.00919	0.13425
2810.08051	0.13443
2808.15184	0.13462
2806.22316	0.13481
2804.29449	0.13499
2802.36581	0.13515
2800.43713	0.13534
2798.50846	0.13555
2796.57978	0.13575
2794.65111	0.13594
2792.72243	0.13612
2790.79376	0.13630
2788.86508	0.13649
2786.93640	0.13671
2785.00773	0.13692
2783.07905	0.13709
2781.15038	0.13727
2779.22170	0.13748
2777.29303	0.13768
2775.36435	0.13787
2773.43567	0.13806
2771.50700	0.13826
2769.57832	0.13846
2767.64965	0.13866
2765.72097	0.13883
2763.79230	0.13897
2761.86362	0.13913
2759.93494	0.13931
2758.00627	0.13949
2756.07759	0.13964
2754.14892	0.13977
2752.22024	0.13993
2750.29157	0.14008
2748.36289	0.14024
2746.43421	0.14040
2744.50554	0.14057
2742.57686	0.14073
2740.64819	0.14090
2738.71951	0.14108
2736.79084	0.14125
2734.86216	0.14142
2732.93348	0.14157
2731.00481	0.14171
2729.07613	0.14187
2727.14746	0.14207
2725.21878	0.14223
2723.29011	0.14235
2721.36143	0.14247
2719.43275	0.14264
2717.50408	0.14284
2715.57540	0.14304
2713.64673	0.14321
2711.71805	0.14334
2709.78938	0.14345
2707.86070	0.14358
2705.93202	0.14373
2704.00335	0.14390
2702.07467	0.14407
2700.14600	0.14424
2698.21732	0.14442
2696.28865	0.14461
2694.35997	0.14476
2692.43129	0.14487
2690.50262	0.14497
2688.57394	0.14512
2686.64527	0.14529
2684.71659	0.14546
2682.78792	0.14562
2680.85924	0.14578
2678.93056	0.14592
2677.00189	0.14608
2675.07321	0.14627
2673.14454	0.14644
2671.21586	0.14657
2669.28719	0.14671
2667.35851	0.14689
2665.42983	0.14705
2663.50116	0.14718
2661.57248	0.14731
2659.64381	0.14747
2657.71513	0.14765
2655.78646	0.14782
2653.85778	0.14798
2651.92910	0.14816
2650.00043	0.14833
2648.07175	0.14848
2646.14308	0.14863
2644.21440	0.14880
2642.28573	0.14899
2640.35705	0.14914
2638.42837	0.14927
2636.49970	0.14939
2634.57102	0.14955
2632.64235	0.14974
2630.71367	0.14993
2628.78500	0.15011
2626.85632	0.15029
2624.92764	0.15046
2622.99897	0.15063
2621.07029	0.15080
2619.14162	0.15096
2617.21294	0.15112
2615.28427	0.15130
2613.35559	0.15150
2611.42691	0.15170
2609.49824	0.15188
2607.56956	0.15203
2605.64089	0.15219
2603.71221	0.15236
2601.78354	0.15253
2599.85486	0.15270
2597.92618	0.15288
2595.99751	0.15305
2594.06883	0.15320
2592.14016	0.15336
2590.21148	0.15351
2588.28281	0.15367
2586.35413	0.15381
2584.42545	0.15395
2582.49678	0.15412
2580.56810	0.15432
2578.63943	0.15451
2576.71075	0.15468
2574.78208	0.15484
2572.85340	0.15498
2570.92472	0.15507
2568.99605	0.15517
2567.06737	0.15531
2565.13870	0.15548
2563.21002	0.15565
2561.28135	0.15585
2559.35267	0.15601
2557.42399	0.15614
2555.49532	0.15629
2553.56664	0.15645
2551.63797	0.15660
2549.70929	0.15675
2547.78062	0.15691
2545.85194	0.15707
2543.92326	0.15724
2541.99459	0.15738
2540.06591	0.15750
2538.13724	0.15763
2536.20856	0.15778
2534.27989	0.15796
2532.35121	0.15815
2530.42253	0.15832
2528.49386	0.15848
2526.56518	0.15862
2524.63651	0.15877
2522.70783	0.15896
2520.77916	0.15917
2518.85048	0.15935
2516.92181	0.15949
2514.99313	0.15964
2513.06445	0.15979
2511.13578	0.15996
2509.20710	0.16012
2507.27843	0.16031
2505.34975	0.16053
2503.42108	0.16073
2501.49240	0.16089
2499.56372	0.16106
2497.63505	0.16124
2495.70637	0.16141
2493.77770	0.16156
2491.84902	0.16172
2489.92035	0.16186
2487.99167	0.16199
2486.06299	0.16214
2484.13432	0.16233
2482.20564	0.16251
2480.27697	0.16266
2478.34829	0.16280
2476.41962	0.16299
2474.49094	0.16323
2472.56226	0.16345
2470.63359	0.16363
2468.70491	0.16375
2466.77624	0.16386
2464.84756	0.16399
2462.91889	0.16417
2460.99021	0.16436
2459.06153	0.16456
2457.13286	0.16473
2455.20418	0.16486
2453.27551	0.16501
2451.34683	0.16522
2449.41816	0.16542
2447.48948	0.16557
2445.56080	0.16571
2443.63213	0.16586
2441.70345	0.16602
2439.77478	0.16619
2437.84610	0.16636
2435.91743	0.16654
2433.98875	0.16673
2432.06007	0.16690
2430.13140	0.16704
2428.20272	0.16718
2426.27405	0.16730
2424.34537	0.16743
2422.41670	0.16760
2420.48802	0.16779
2418.55934	0.16799
2416.63067	0.16818
2414.70199	0.16834
2412.77332	0.16848
2410.84464	0.16863
2408.91597	0.16878
2406.98729	0.16896
2405.05861	0.16914
2403.12994	0.16928
2401.20126	0.16939
2399.27259	0.16951
2397.34391	0.16966
2395.41524	0.16983
2393.48656	0.17000
2391.55788	0.17018
2389.62921	0.17034
2387.70053	0.17049
2385.77186	0.17064
2383.84318	0.17074
2381.91451	0.17082
2379.98583	0.17090
2378.05715	0.17098
2376.12848	0.17101
2374.19980	0.17103
2372.27113	0.17105
2370.34245	0.17104
2368.41378	0.17103
2366.48510	0.17105
2364.55642	0.17111
2362.62775	0.17121
2360.69907	0.17133
2358.77040	0.17149
2356.84172	0.17172
2354.91305	0.17202
2352.98437	0.17240
2351.05569	0.17282
2349.12702	0.17307
2347.19834	0.17312
2345.26967	0.17311
2343.34099	0.17313
2341.41232	0.17319
2339.48364	0.17330
2337.55496	0.17346
2335.62629	0.17365
2333.69761	0.17383
2331.76894	0.17402
2329.84026	0.17421
2327.91159	0.17442
2325.98291	0.17464
2324.05423	0.17487
2322.12556	0.17507
2320.19688	0.17526
2318.26821	0.17546
2316.33953	0.17565
2314.41086	0.17584
2312.48218	0.17609
2310.55350	0.17635
2308.62483	0.17651
2306.69615	0.17661
2304.76748	0.17676
2302.83880	0.17698
2300.91013	0.17721
2298.98145	0.17743
2297.05277	0.17759
2295.12410	0.17770
2293.19542	0.17784
2291.26675	0.17802
2289.33807	0.17819
2287.40940	0.17833
2285.48072	0.17845
2283.55204	0.17857
2281.62337	0.17871
2279.69469	0.17885
2277.76602	0.17897
2275.83734	0.17912
2273.90867	0.17928
2271.97999	0.17944
2270.05131	0.17959
2268.12264	0.17973
2266.19396	0.17984
2264.26529	0.17991
2262.33661	0.18003
2260.40794	0.18018
2258.47926	0.18034
2256.55058	0.18047
2254.62191	0.18059
2252.69323	0.18069
2250.76456	0.18081
2248.83588	0.18094
2246.90721	0.18107
2244.97853	0.18117
2243.04985	0.18126
2241.12118	0.18139
2239.19250	0.18154
2237.26383	0.18168
2235.33515	0.18177
2233.40648	0.18186
2231.47780	0.18196
2229.54912	0.18205
2227.62045	0.18214
2225.69177	0.18225
2223.76310	0.18237
2221.83442	0.18247
2219.90575	0.18257
2217.97707	0.18266
2216.04839	0.18276
2214.11972	0.18289
2212.19104	0.18305
2210.26237	0.18317
2208.33369	0.18324
2206.40502	0.18332
2204.47634	0.18340
2202.54766	0.18349
2200.61899	0.18359
2198.69031	0.18368
2196.76164	0.18372
2194.83296	0.18376
2192.90429	0.18385
2190.97561	0.18396
2189.04693	0.18401
2187.11826	0.18404
2185.18958	0.18407
2183.26091	0.18411
2181.33223	0.18415
2179.40356	0.18422
2177.47488	0.18430
2175.54620	0.18439
2173.61753	0.18447
2171.68885	0.18453
2169.76018	0.18459
2167.83150	0.18470
2165.90283	0.18481
2163.97415	0.18490
2162.04547	0.18498
2160.11680	0.18511
2158.18812	0.18528
2156.25945	0.18541
2154.33077	0.18551
2152.40210	0.18563
2150.47342	0.18577
2148.54474	0.18594
2146.61607	0.18611
2144.68739	0.18626
2142.75872	0.18638
2140.83004	0.18652
2138.90137	0.18670
2136.97269	0.18689
2135.04401	0.18704
2133.11534	0.18721
2131.18666	0.18741
2129.25799	0.18761
2127.32931	0.18783
2125.40064	0.18808
2123.47196	0.18830
2121.54328	0.18850
2119.61461	0.18873
2117.68593	0.18901
2115.75726	0.18927
2113.82858	0.18950
2111.89991	0.18973
2109.97123	0.18998
2108.04255	0.19026
2106.11388	0.19058
2104.18520	0.19088
2102.25653	0.19112
2100.32785	0.19134
2098.39918	0.19159
2096.47050	0.19187
2094.54182	0.19213
2092.61315	0.19239
2090.68447	0.19269
2088.75580	0.19296
2086.82712	0.19321
2084.89845	0.19346
2082.96977	0.19370
2081.04109	0.19392
2079.11242	0.19411
2077.18374	0.19431
2075.25507	0.19455
2073.32639	0.19482
2071.39772	0.19506
2069.46904	0.19525
2067.54036	0.19543
2065.61169	0.19559
2063.68301	0.19576
2061.75434	0.19596
2059.82566	0.19616
2057.89699	0.19634
2055.96831	0.19649
2054.03963	0.19666
2052.11096	0.19685
2050.18228	0.19704
2048.25361	0.19721
2046.32493	0.19737
2044.39626	0.19753
2042.46758	0.19765
2040.53890	0.19777
2038.61023	0.19794
2036.68155	0.19814
2034.75288	0.19830
2032.82420	0.19843
2030.89553	0.19858
2028.96685	0.19874
2027.03817	0.19889
2025.10950	0.19904
2023.18082	0.19921
2021.25215	0.19939
2019.32347	0.19954
2017.39480	0.19963
2015.46612	0.19972
2013.53744	0.19988
2011.60877	0.20011
2009.68009	0.20033
2007.75142	0.20049
2005.82274	0.20058
2003.89407	0.20066
2001.96539	0.20079
2000.03671	0.20097
1998.10804	0.20114
1996.17936	0.20127
1994.25069	0.20134
1992.32201	0.20141
1990.39334	0.20151
1988.46466	0.20162
1986.53598	0.20176
1984.60731	0.20192
1982.67863	0.20207
1980.74996	0.20219
1978.82128	0.20228
1976.89261	0.20239
1974.96393	0.20251
1973.03525	0.20261
1971.10658	0.20268
1969.17790	0.20272
1967.24923	0.20279
1965.32055	0.20295
1963.39188	0.20319
1961.46320	0.20340
1959.53452	0.20354
1957.60585	0.20362
1955.67717	0.20370
1953.74850	0.20382
1951.81982	0.20394
1949.89115	0.20406
1947.96247	0.20417
1946.03379	0.20426
1944.10512	0.20433
1942.17644	0.20445
1940.24777	0.20465
1938.31909	0.20484
1936.39042	0.20498
1934.46174	0.20510
1932.53306	0.20521
1930.60439	0.20532
1928.67571	0.20548
1926.74704	0.20563
1924.81836	0.20573
1922.88969	0.20579
1920.96101	0.20588
1919.03233	0.20597
1917.10366	0.20617
1915.17498	0.20647
1913.24631	0.20667
1911.31763	0.20675
1909.38896	0.20686
1907.46028	0.20703
1905.53160	0.20719
1903.60293	0.20730
1901.67425	0.20742
1899.74558	0.20757
1897.81690	0.20770
1895.88823	0.20782
1893.95955	0.20795
1892.03087	0.20803
1890.10220	0.20808
1888.17352	0.20824
1886.24485	0.20847
1884.31617	0.20863
1882.38750	0.20875
1880.45882	0.20886
1878.53014	0.20899
1876.60147	0.20912
1874.67279	0.20923
1872.74412	0.20926
1870.81544	0.20918
1868.88677	0.20914
1866.95809	0.20936
1865.02941	0.20973
1863.10074	0.21000
1861.17206	0.21020
1859.24339	0.21044
1857.31471	0.21064
1855.38604	0.21076
1853.45736	0.21086
1851.52868	0.21098
1849.60001	0.21104
1847.67133	0.21094
1845.74266	0.21073
1843.81398	0.21082
1841.88531	0.21132
1839.95663	0.21172
1838.02795	0.21184
1836.09928	0.21196
1834.17060	0.21208
1832.24193	0.21201
1830.31325	0.21191
1828.38458	0.21200
1826.45590	0.21215
1824.52722	0.21236
1822.59855	0.21271
1820.66987	0.21304
1818.74120	0.21321
1816.81252	0.21329
1814.88385	0.21333
1812.95517	0.21332
1811.02649	0.21333
1809.09782	0.21348
1807.16914	0.21368
1805.24047	0.21376
1803.31179	0.21369
1801.38312	0.21362
1799.45444	0.21372
1797.52576	0.21392
1795.59709	0.21399
1793.66841	0.21392
1791.73974	0.21398
1789.81106	0.21429
1787.88239	0.21454
1785.95371	0.21456
1784.02503	0.21451
1782.09636	0.21452
1780.16768	0.21461
1778.23901	0.21475
1776.31033	0.21471
1774.38166	0.21440
1772.45298	0.21422
1770.52430	0.21436
1768.59563	0.21464
1766.66695	0.21497
1764.73828	0.21514
1762.80960	0.21500
1760.88093	0.21491
1758.95225	0.21496
1757.02357	0.21500
1755.09490	0.21507
1753.16622	0.21494
1751.23755	0.21462
1749.30887	0.21450
1747.38020	0.21459
1745.45152	0.21461
1743.52284	0.21450
1741.59417	0.21435
1739.66549	0.21421
1737.73682	0.21387
1735.80814	0.21321
1733.87947	0.21292
1731.95079	0.21341
1730.02211	0.21402
1728.09344	0.21438
1726.16476	0.21454
1724.23609	0.21453
1722.30741	0.21444
1720.37874	0.21413
1718.45006	0.21376
1716.52138	0.21375
1714.59271	0.21417
1712.66403	0.21474
1710.73536	0.21511
1708.80668	0.21510
1706.87801	0.21490
1704.94933	0.21470
1703.02065	0.21424
1701.09198	0.21360
1699.16330	0.21361
1697.23463	0.21411
1695.30595	0.21463
1693.37728	0.21526
1691.44860	0.21567
1689.51992	0.21565
1687.59125	0.21529
1685.66257	0.21473
1683.73390	0.21464
1681.80522	0.21522
1679.87655	0.21582
1677.94787	0.21600
1676.01919	0.21595
1674.09052	0.21593
1672.16184	0.21576
1670.23317	0.21548
1668.30449	0.21568
1666.37582	0.21616
1664.44714	0.21627
1662.51846	0.21619
1660.58979	0.21635
1658.66111	0.21647
1656.73244	0.21605
1654.80376	0.21530
1652.87509	0.21519
1650.94641	0.21577
1649.01773	0.21596
1647.08906	0.21578
1645.16038	0.21603
1643.23171	0.21653
1641.30303	0.21673
1639.37436	0.21650
1637.44568	0.21594
1635.51700	0.21568
1633.58833	0.21617
1631.65965	0.21672
1629.73098	0.21669
1627.80230	0.21641
1625.87363	0.21613
1623.94495	0.21573
1622.01627	0.21541
1620.08760	0.21531
1618.15892	0.21536
1616.23025	0.21583
1614.30157	0.21672
1612.37290	0.21746
1610.44422	0.21781
1608.51554	0.21805
1606.58687	0.21829
1604.65819	0.21854
1602.72952	0.21875
1600.80084	0.21893
1598.87217	0.21910
1596.94349	0.21922
1595.01481	0.21936
1593.08614	0.21951
1591.15746	0.21961
1589.22879	0.21972
1587.30011	0.21989
1585.37144	0.22006
1583.44276	0.22020
1581.51408	0.22031
1579.58541	0.22032
1577.65673	0.22022
1575.72806	0.22026
1573.79938	0.22045
1571.87071	0.22047
1569.94203	0.22040
1568.01335	0.22055
1566.08468	0.22084
1564.15600	0.22099
1562.22733	0.22064
1560.29865	0.21988
1558.36998	0.21971
1556.44130	0.22045
1554.51262	0.22122
1552.58395	0.22159
1550.65527	0.22176
1548.72660	0.22189
1546.79792	0.22185
1544.86925	0.22152
1542.94057	0.22105
1541.01189	0.22075
1539.08322	0.22102
1537.15454	0.22164
1535.22587	0.22188
1533.29719	0.22186
1531.36852	0.22200
1529.43984	0.22211
1527.51116	0.22206
1525.58249	0.22198
1523.65381	0.22163
1521.72514	0.22112
1519.79646	0.22105
1517.86779	0.22140
1515.93911	0.22189
1514.01043	0.22229
1512.08176	0.22228
1510.15308	0.22187
1508.22441	0.22141
1506.29573	0.22137
1504.36706	0.22192
1502.43838	0.22243
1500.50970	0.22241
1498.58103	0.22219
1496.65235	0.22222
1494.72368	0.22235
1492.79500	0.22213
1490.86633	0.22164
1488.93765	0.22141
1487.00897	0.22161
1485.08030	0.22187
1483.15162	0.22184
1481.22295	0.22153
1479.29427	0.22105
1477.36560	0.22042
1475.43692	0.21970
1473.50824	0.21905
1471.57957	0.21870
1469.65089	0.21861
1467.72222	0.21838
1465.79354	0.21796
1463.86487	0.21766
1461.93619	0.21741
1460.00751	0.21675
1458.07884	0.21583
1456.15016	0.21556
1454.22149	0.21605
1452.29281	0.21647
1450.36414	0.21651
1448.43546	0.21640
1446.50678	0.21645
1444.57811	0.21666
1442.64943	0.21684
1440.72076	0.21676
1438.79208	0.21628
1436.86341	0.21592
1434.93473	0.21623
1433.00605	0.21670
1431.07738	0.21681
1429.14870	0.21683
1427.22003	0.21689
1425.29135	0.21681
1423.36268	0.21654
1421.43400	0.21602
1419.50532	0.21538
1417.57665	0.21508
1415.64797	0.21516
1413.71930	0.21524
1411.79062	0.21521
1409.86195	0.21519
1407.93327	0.21521
1406.00459	0.21524
1404.07592	0.21532
1402.14724	0.21538
1400.21857	0.21532
1398.28989	0.21534
1396.36122	0.21550
1394.43254	0.21578
1392.50386	0.21609
1390.57519	0.21601
1388.64651	0.21553
1386.71784	0.21521
1384.78916	0.21526
1382.86049	0.21541
1380.93181	0.21551
1379.00313	0.21546
1377.07446	0.21529
1375.14578	0.21512
1373.21711	0.21504
1371.28843	0.21500
1369.35976	0.21495
1367.43108	0.21490
1365.50240	0.21470
1363.57373	0.21428
1361.64505	0.21397
1359.71638	0.21399
1357.78770	0.21410
1355.85903	0.21408
1353.93035	0.21410
1352.00167	0.21425
1350.07300	0.21447
1348.14432	0.21475
1346.21565	0.21502
1344.28697	0.21513
1342.35830	0.21502
1340.42962	0.21483
1338.50094	0.21472
1336.57227	0.21468
1334.64359	0.21463
1332.71492	0.21454
1330.78624	0.21439
1328.85757	0.21415
1326.92889	0.21390
1325.00021	0.21369
1323.07154	0.21345
1321.14286	0.21318
1319.21419	0.21290
1317.28551	0.21263
1315.35684	0.21236
1313.42816	0.21210
1311.49948	0.21181
1309.57081	0.21149
1307.64213	0.21115
1305.71346	0.21080
1303.78478	0.21040
1301.85611	0.21000
1299.92743	0.20964
1297.99875	0.20927
1296.07008	0.20888
1294.14140	0.20850
1292.21273	0.20808
1290.28405	0.20756
1288.35538	0.20704
1286.42670	0.20652
1284.49802	0.20594
1282.56935	0.20526
1280.64067	0.20441
1278.71200	0.20321
1276.78332	0.20157
1274.85465	0.19951
1272.92597	0.19704
1270.99729	0.19423
1269.06862	0.19108
1267.13994	0.18765
1265.21127	0.18432
1263.28259	0.18158
1261.35392	0.17990
1259.42524	0.17952
1257.49656	0.18022
1255.56789	0.18156
1253.63921	0.18326
1251.71054	0.18529
1249.78186	0.18771
1247.85319	0.19033
1245.92451	0.19275
1243.99583	0.19469
1242.06716	0.19604
1240.13848	0.19677
1238.20981	0.19700
1236.28113	0.19692
1234.35246	0.19662
1232.42378	0.19612
1230.49510	0.19550
1228.56643	0.19490
1226.63775	0.19434
1224.70908	0.19382
1222.78040	0.19329
1220.85173	0.19269
1218.92305	0.19203
1216.99437	0.19135
1215.06570	0.19066
1213.13702	0.18996
1211.20835	0.18924
1209.27967	0.18847
1207.35100	0.18772
1205.42232	0.18700
1203.49364	0.18627
1201.56497	0.18553
1199.63629	0.18478
1197.70762	0.18403
1195.77894	0.18330
1193.85027	0.18253
1191.92159	0.18168
1189.99291	0.18073
1188.06424	0.17974
1186.13556	0.17872
1184.20689	0.17769
1182.27821	0.17664
1180.34954	0.17557
1178.42086	0.17449
1176.49218	0.17342
1174.56351	0.17235
1172.63483	0.17121
1170.70616	0.17002
1168.77748	0.16882
1166.84881	0.16763
1164.92013	0.16645
1162.99145	0.16528
1161.06278	0.16410
1159.13410	0.16291
1157.20543	0.16171
1155.27675	0.16049
1153.34808	0.15923
1151.41940	0.15797
1149.49072	0.15675
1147.56205	0.15552
1145.63337	0.15420
1143.70470	0.15281
1141.77602	0.15138
1139.84735	0.14990
1137.91867	0.14838
1135.98999	0.14674
1134.06132	0.14492
1132.13264	0.14286
1130.20397	0.14057
1128.27529	0.13811
1126.34662	0.13550
1124.41794	0.13274
1122.48926	0.12998
1120.56059	0.12728
1118.63191	0.12466
1116.70324	0.12225
1114.77456	0.12009
1112.84589	0.11812
1110.91721	0.11640
1108.98853	0.11501
1107.05986	0.11389
1105.13118	0.11295
1103.20251	0.11223
1101.27383	0.11186
1099.34516	0.11176
1097.41648	0.11176
1095.48780	0.11183
1093.55913	0.11193
1091.63045	0.11207
1089.70178	0.11219
1087.77310	0.11224
1085.84443	0.11219
1083.91575	0.11200
1081.98707	0.11169
1080.05840	0.11134
1078.12972	0.11101
1076.20105	0.11064
1074.27237	0.11019
1072.34370	0.10976
1070.41502	0.10941
1068.48634	0.10908
1066.55767	0.10874
1064.62899	0.10845
1062.70032	0.10822
1060.77164	0.10802
1058.84297	0.10790
1056.91429	0.10784
1054.98561	0.10776
1053.05694	0.10766
1051.12826	0.10762
1049.19959	0.10765
1047.27091	0.10775
1045.34224	0.10788
1043.41356	0.10807
1041.48488	0.10834
1039.55621	0.10862
1037.62753	0.10882
1035.69886	0.10907
1033.77018	0.10948
1031.84151	0.10998
1029.91283	0.11044
1027.98415	0.11091
1026.05548	0.11147
1024.12680	0.11211
1022.19813	0.11286
1020.26945	0.11378
1018.34078	0.11480
1016.41210	0.11584
1014.48342	0.11694
1012.55475	0.11815
1010.62607	0.11939
1008.69740	0.12063
1006.76872	0.12191
1004.84005	0.12322
1002.91137	0.12451
1000.98269	0.12570
999.05402	0.12682
997.12534	0.12792
995.19667	0.12902
993.26799	0.13005
991.33932	0.13102
989.41064	0.13196
987.48196	0.13284
985.55329	0.13373
983.62461	0.13460
981.69594	0.13539
979.76726	0.13612
977.83859	0.13686
975.90991	0.13752
973.98123	0.13801
972.05256	0.13848
970.12388	0.13899
968.19521	0.13947
966.26653	0.13988
964.33786	0.14019
962.40918	0.14049
960.48050	0.14082
958.55183	0.14109
956.62315	0.14127
954.69448	0.14142
952.76580	0.14149
950.83713	0.14144
948.90845	0.14138
946.97977	0.14132
945.05110	0.14118
943.12242	0.14095
941.19375	0.14064
939.26507	0.14028
937.33640	0.13984
935.40772	0.13935
933.47904	0.13883
931.55037	0.13828
929.62169	0.13768
927.69302	0.13702
925.76434	0.13638
923.83567	0.13568
921.90699	0.13485
919.97831	0.13389
918.04964	0.13286
916.12096	0.13179
914.19229	0.13071
912.26361	0.12965
910.33494	0.12863
908.40626	0.12770
906.47758	0.12685
904.54891	0.12609
902.62023	0.12538
900.69156	0.12469
898.76288	0.12405
896.83421	0.12346
894.90553	0.12290
892.97685	0.12232
891.04818	0.12169
889.11950	0.12109
887.19083	0.12055
885.26215	0.12001
883.33348	0.11949
881.40480	0.11903
879.47612	0.11860
877.54745	0.11817
875.61877	0.11772
873.69010	0.11725
871.76142	0.11679
869.83275	0.11632
867.90407	0.11581
865.97539	0.11523
864.04672	0.11464
862.11804	0.11411
860.18937	0.11362
858.26069	0.11303
856.33202	0.11231
854.40334	0.11147
852.47466	0.11052
850.54599	0.10948
848.61731	0.10837
846.68864	0.10724
844.75996	0.10616
842.83129	0.10526
840.90261	0.10465
838.97394	0.10438
837.04526	0.10435
835.11658	0.10435
833.18791	0.10421
831.25923	0.10392
829.33056	0.10346
827.40188	0.10282
825.47321	0.10216
823.54453	0.10159
821.61585	0.10103
819.68718	0.10037
817.75850	0.09964
815.82983	0.09890
813.90115	0.09816
811.97248	0.09735
810.04380	0.09653
808.11512	0.09576
806.18645	0.09512
804.25777	0.09457
802.32910	0.09401
800.40042	0.09343
798.47175	0.09286
796.54307	0.09238
794.61439	0.09208
792.68572	0.09204
790.75704	0.09226
788.82837	0.09262
786.89969	0.09291
784.97102	0.09305
783.04234	0.09314
781.11366	0.09334
779.18499	0.09359
777.25631	0.09377
775.32764	0.09384
773.39896	0.09390
771.47029	0.09398
769.54161	0.09407
767.61293	0.09416
765.68426	0.09417
763.75558	0.09411
761.82691	0.09408
759.89823	0.09405
757.96956	0.09394
756.04088	0.09375
754.11220	0.09358
752.18353	0.09344
750.25485	0.09336
748.32618	0.09330
746.39750	0.09306
744.46883	0.09254
742.54015	0.09193
740.61147	0.09153
738.68280	0.09143
736.75412	0.09149
734.82545	0.09160
732.89677	0.09180
730.96810	0.09205
729.03942	0.09227
727.11074	0.09248
725.18207	0.09275
723.25339	0.09304
721.32472	0.09332
719.39604	0.09359
717.46737	0.09386
715.53869	0.09423
713.61001	0.09475
711.68134	0.09530
709.75266	0.09564
707.82399	0.09572
705.89531	0.09562
703.96664	0.09545
702.03796	0.09528
700.10928	0.09499
698.18061	0.09450
696.25193	0.09383
694.32326	0.09320
692.39458	0.09271
690.46591	0.09225
688.53723	0.09176
686.60855	0.09129
684.67988	0.09086
682.75120	0.09043
680.82253	0.08995
678.89385	0.08944
676.96518	0.08893
675.03650	0.08838
673.10782	0.08777
671.17915	0.08703
669.25047	0.08615
667.32180	0.08532
665.39312	0.08465
663.46445	0.08397
661.53577	0.08323
659.60709	0.08244
657.67842	0.08160
655.74974	0.08075
653.82107	0.07995
651.89239	0.07914
649.96372	0.07829
648.03504	0.07743
646.10636	0.07661
644.17769	0.07580
642.24901	0.07487
640.32034	0.07379
638.39166	0.07266
636.46299	0.07154
634.53431	0.07038
632.60563	0.06896
630.67696	0.06674
628.74828	0.06328
626.81961	0.05883
624.89093	0.05427
622.96226	0.05074
621.03358	0.04861
619.10490	0.04737
617.17623	0.04653
615.24755	0.04572
613.31888	0.04468
611.39020	0.04363
609.46153	0.04310
607.53285	0.04322
605.60417	0.04366
603.67550	0.04417
601.74682	0.04486
599.81815	0.04577
597.88947	0.04671
595.96080	0.04748
594.03212	0.04794
592.10344	0.04813
590.17477	0.04820
588.24609	0.04819
586.31742	0.04806
584.38874	0.04783
582.46007	0.04751
580.53139	0.04711
578.60271	0.04663
576.67404	0.04611
574.74536	0.04556
572.81669	0.04497
570.88801	0.04435
568.95934	0.04377
567.03066	0.04325
565.10198	0.04283
563.17331	0.04252
561.24463	0.04227
559.31596	0.04203
557.38728	0.04176
555.45861	0.04145
553.52993	0.04125
551.60125	0.04117
549.67258	0.04105
547.74390	0.04083
545.81523	0.04063
543.88655	0.04048
541.95788	0.04033
540.02920	0.04012
538.10052	0.03991
536.17185	0.03975
534.24317	0.03957
532.31450	0.03932
530.38582	0.03900
528.45715	0.03858
526.52847	0.03815
524.59979	0.03779
522.67112	0.03745
520.74244	0.03702
518.81377	0.03649
516.88509	0.03595
514.95642	0.03539
513.02774	0.03497
511.09906	0.03484
509.17039	0.03473
507.24171	0.03444
505.31304	0.03407
503.38436	0.03372
501.45569	0.03329
499.52701	0.03276
497.59833	0.03222
495.66966	0.03181
493.74098	0.03143
491.81231	0.03088
489.88363	0.03016
487.95496	0.02951
486.02628	0.02897
484.09760	0.02845
482.16893	0.02788
480.24025	0.02727
478.31158	0.02660
476.38290	0.02586
474.45423	0.02525
472.52555	0.02487
470.59687	0.02456
468.66820	0.02417
466.73952	0.02374
464.81085	0.02335
462.88217	0.02304
460.95350	0.02293
459.02482	0.02295
457.09614	0.02291
455.16747	0.02288
453.23879	0.02296
451.31012	0.02298
449.38144	0.02288
447.45277	0.02273
445.52409	0.02248
443.59541	0.02213
441.66674	0.02180
439.73806	0.02154
437.80939	0.02121
435.88071	0.02073
433.95204	0.02013
432.02336	0.01955
430.09468	0.01898
428.16601	0.01838
426.23733	0.01780
424.30866	0.01722
422.37998	0.01650
420.45131	0.01563
418.52263	0.01486
416.59395	0.01426
414.66528	0.01367
412.73660	0.01301
410.80793	0.01237
408.87925	0.01178
406.95058	0.01120
405.02190	0.01063
403.09322	0.01014
401.16455	0.00968
399.23587	0.00913
397.30720	0.00851
395.37852	0.00789
393.44985	0.00733
391.52117	0.00687
389.59249	0.00648
387.66382	0.00603
385.73514	0.00553
383.80647	0.00513
381.87779	0.00477
379.94912	0.00429
378.02044	0.00384
376.09176	0.00358
374.16309	0.00342
372.23441	0.00314
370.30574	0.00278
368.37706	0.00239
