7496.76250	0.00124
7494.83382	0.00123
7492.90514	0.00122
7490.97647	0.00123
7489.04779	0.00125
7487.11912	0.00125
7485.19044	0.00125
7483.26177	0.00123
7481.33309	0.00122
7479.40441	0.00123
7477.47574	0.00124
7475.54706	0.00126
7473.61839	0.00126
7471.68971	0.00126
7469.76104	0.00126
7467.83236	0.00126
7465.90368	0.00127
7463.97501	0.00128
7462.04633	0.00129
7460.11766	0.00129
7458.18898	0.00128
7456.26031	0.00128
7454.33163	0.00128
7452.40295	0.00129
7450.47428	0.00130
7448.54560	0.00131
7446.61693	0.00130
7444.68825	0.00129
7442.75958	0.00129
7440.83090	0.00129
7438.90222	0.00130
7436.97355	0.00131
7435.04487	0.00133
7433.11620	0.00134
7431.18752	0.00134
7429.25885	0.00134
7427.33017	0.00134
7425.40149	0.00135
7423.47282	0.00136
7421.54414	0.00136
7419.61547	0.00136
7417.68679	0.00136
7415.75812	0.00138
7413.82944	0.00138
7411.90076	0.00137
7409.97209	0.00136
7408.04341	0.00136
7406.11474	0.00137
7404.18606	0.00137
7402.25739	0.00137
7400.32871	0.00138
7398.40003	0.00139
7396.47136	0.00140
7394.54268	0.00140
7392.61401	0.00141
7390.68533	0.00141
7388.75666	0.00140
7386.82798	0.00139
7384.89930	0.00139
7382.97063	0.00141
7381.04195	0.00142
7379.11328	0.00142
7377.18460	0.00142
7375.25593	0.00141
7373.32725	0.00142
7371.39857	0.00143
7369.46990	0.00143
7367.54122	0.00143
7365.61255	0.00142
7363.68387	0.00142
7361.75520	0.00143
7359.82652	0.00144
7357.89784	0.00145
7355.96917	0.00146
7354.04049	0.00146
7352.11182	0.00147
7350.18314	0.00147
7348.25447	0.00147
7346.32579	0.00148
7344.39711	0.00149
7342.46844	0.00148
7340.53976	0.00148
7338.61109	0.00149
7336.68241	0.00149
7334.75374	0.00149
7332.82506	0.00151
7330.89638	0.00153
7328.96771	0.00154
7327.03903	0.00154
7325.11036	0.00153
7323.18168	0.00153
7321.25301	0.00153
7319.32433	0.00154
7317.39565	0.00153
7315.46698	0.00153
7313.53830	0.00152
7311.60963	0.00152
7309.68095	0.00152
7307.75228	0.00153
7305.82360	0.00154
7303.89492	0.00154
7301.96625	0.00156
7300.03757	0.00157
7298.10890	0.00158
7296.18022	0.00159
7294.25155	0.00160
7292.32287	0.00161
7290.39419	0.00161
7288.46552	0.00160
7286.53684	0.00158
7284.60817	0.00158
7282.67949	0.00160
7280.75082	0.00162
7278.82214	0.00162
7276.89346	0.00161
7274.96479	0.00162
7273.03611	0.00163
7271.10744	0.00164
7269.17876	0.00164
7267.25009	0.00164
7265.32141	0.00163
7263.39273	0.00163
7261.46406	0.00163
7259.53538	0.00164
7257.60671	0.00164
7255.67803	0.00163
7253.74936	0.00165
7251.82068	0.00167
7249.89200	0.00168
7247.96333	0.00167
7246.03465	0.00166
7244.10598	0.00165
7242.17730	0.00165
7240.24863	0.00168
7238.31995	0.00169
7236.39127	0.00169
7234.46260	0.00169
7232.53392	0.00169
7230.60525	0.00169
7228.67657	0.00168
7226.74790	0.00169
7224.81922	0.00171
7222.89054	0.00171
7220.96187	0.00171
7219.03319	0.00170
7217.10452	0.00170
7215.17584	0.00172
7213.24717	0.00173
7211.31849	0.00173
7209.38981	0.00174
7207.46114	0.00175
7205.53246	0.00175
7203.60379	0.00174
7201.67511	0.00174
7199.74644	0.00176
7197.81776	0.00177
7195.88908	0.00178
7193.96041	0.00178
7192.03173	0.00177
7190.10306	0.00178
7188.17438	0.00179
7186.24571	0.00180
7184.31703	0.00181
7182.38835	0.00182
7180.45968	0.00181
7178.53100	0.00179
7176.60233	0.00179
7174.67365	0.00181
7172.74498	0.00182
7170.81630	0.00183
7168.88762	0.00182
7166.95895	0.00181
7165.03027	0.00183
7163.10160	0.00185
7161.17292	0.00186
7159.24425	0.00184
7157.31557	0.00184
7155.38689	0.00185
7153.45822	0.00185
7151.52954	0.00185
7149.60087	0.00186
7147.67219	0.00188
7145.74352	0.00189
7143.81484	0.00189
7141.88616	0.00190
7139.95749	0.00190
7138.02881	0.00190
7136.10014	0.00191
7134.17146	0.00191
7132.24279	0.00191
7130.31411	0.00190
7128.38543	0.00190
7126.45676	0.00189
7124.52808	0.00190
7122.59941	0.00191
7120.67073	0.00192
7118.74206	0.00193
7116.81338	0.00193
7114.88470	0.00193
7112.95603	0.00193
7111.02735	0.00194
7109.09868	0.00196
7107.17000	0.00197
7105.24133	0.00198
7103.31265	0.00199
7101.38397	0.00200
7099.45530	0.00200
7097.52662	0.00198
7095.59795	0.00197
7093.66927	0.00197
7091.74060	0.00197
7089.81192	0.00198
7087.88324	0.00198
7085.95457	0.00198
7084.02589	0.00199
7082.09722	0.00199
7080.16854	0.00199
7078.23987	0.00198
7076.31119	0.00198
7074.38251	0.00198
7072.45384	0.00200
7070.52516	0.00203
7068.59649	0.00206
7066.66781	0.00206
7064.73914	0.00205
7062.81046	0.00205
7060.88178	0.00207
7058.95311	0.00207
7057.02443	0.00207
7055.09576	0.00207
7053.16708	0.00208
7051.23841	0.00209
7049.30973	0.00210
7047.38105	0.00210
7045.45238	0.00209
7043.52370	0.00209
7041.59503	0.00209
7039.66635	0.00211
7037.73768	0.00212
7035.80900	0.00212
7033.88032	0.00211
7031.95165	0.00212
7030.02297	0.00215
7028.09430	0.00217
7026.16562	0.00218
7024.23695	0.00217
7022.30827	0.00217
7020.37959	0.00216
7018.45092	0.00216
7016.52224	0.00217
7014.59357	0.00218
7012.66489	0.00219
7010.73622	0.00218
7008.80754	0.00219
7006.87886	0.00220
7004.95019	0.00221
7003.02151	0.00221
7001.09284	0.00221
6999.16416	0.00221
6997.23549	0.00221
6995.30681	0.00221
6993.37813	0.00222
6991.44946	0.00223
6989.52078	0.00223
6987.59211	0.00225
6985.66343	0.00226
6983.73476	0.00225
6981.80608	0.00224
6979.87740	0.00222
6977.94873	0.00223
6976.02005	0.00224
6974.09138	0.00225
6972.16270	0.00227
6970.23403	0.00229
6968.30535	0.00230
6966.37667	0.00231
6964.44800	0.00231
6962.51932	0.00232
6960.59065	0.00233
6958.66197	0.00234
6956.73330	0.00235
6954.80462	0.00235
6952.87594	0.00235
6950.94727	0.00235
6949.01859	0.00234
6947.08992	0.00235
6945.16124	0.00235
6943.23257	0.00236
6941.30389	0.00235
6939.37521	0.00234
6937.44654	0.00234
6935.51786	0.00235
6933.58919	0.00236
6931.66051	0.00237
6929.73184	0.00237
6927.80316	0.00239
6925.87448	0.00241
6923.94581	0.00241
6922.01713	0.00240
6920.08846	0.00241
6918.15978	0.00243
6916.23111	0.00244
6914.30243	0.00244
6912.37375	0.00244
6910.44508	0.00245
6908.51640	0.00246
6906.58773	0.00246
6904.65905	0.00246
6902.73038	0.00246
6900.80170	0.00246
6898.87302	0.00247
6896.94435	0.00247
6895.01567	0.00247
6893.08700	0.00247
6891.15832	0.00248
6889.22965	0.00250
6887.30097	0.00250
6885.37229	0.00250
6883.44362	0.00250
6881.51494	0.00251
6879.58627	0.00253
6877.65759	0.00255
6875.72892	0.00255
6873.80024	0.00256
6871.87156	0.00257
6869.94289	0.00256
6868.01421	0.00256
6866.08554	0.00256
6864.15686	0.00256
6862.22819	0.00256
6860.29951	0.00257
6858.37083	0.00258
6856.44216	0.00258
6854.51348	0.00257
6852.58481	0.00257
6850.65613	0.00258
6848.72746	0.00259
6846.79878	0.00260
6844.87010	0.00262
6842.94143	0.00263
6841.01275	0.00264
6839.08408	0.00264
6837.15540	0.00263
6835.22673	0.00263
6833.29805	0.00263
6831.36937	0.00264
6829.44070	0.00265
6827.51202	0.00265
6825.58335	0.00266
6823.65467	0.00267
6821.72600	0.00268
6819.79732	0.00268
6817.86864	0.00269
6815.93997	0.00269
6814.01129	0.00270
6812.08262	0.00272
6810.15394	0.00272
6808.22527	0.00272
6806.29659	0.00272
6804.36791	0.00273
6802.43924	0.00275
6800.51056	0.00276
6798.58189	0.00277
6796.65321	0.00277
6794.72454	0.00278
6792.79586	0.00278
6790.86718	0.00277
6788.93851	0.00278
6787.00983	0.00279
6785.08116	0.00280
6783.15248	0.00279
6781.22381	0.00279
6779.29513	0.00279
6777.36645	0.00280
6775.43778	0.00283
6773.50910	0.00284
6771.58043	0.00284
6769.65175	0.00285
6767.72308	0.00286
6765.79440	0.00286
6763.86572	0.00285
6761.93705	0.00286
6760.00837	0.00287
6758.07970	0.00288
6756.15102	0.00289
6754.22235	0.00290
6752.29367	0.00290
6750.36499	0.00290
6748.43632	0.00289
6746.50764	0.00289
6744.57897	0.00290
6742.65029	0.00291
6740.72162	0.00292
6738.79294	0.00292
6736.86426	0.00292
6734.93559	0.00293
6733.00691	0.00296
6731.07824	0.00298
6729.14956	0.00299
6727.22089	0.00299
6725.29221	0.00300
6723.36353	0.00300
6721.43486	0.00299
6719.50618	0.00297
6717.57751	0.00297
6715.64883	0.00300
6713.72016	0.00304
6711.79148	0.00305
6709.86280	0.00305
6707.93413	0.00305
6706.00545	0.00305
6704.07678	0.00305
6702.14810	0.00306
6700.21943	0.00307
6698.29075	0.00307
6696.36207	0.00307
6694.43340	0.00306
6692.50472	0.00307
6690.57605	0.00309
6688.64737	0.00311
6686.71870	0.00311
6684.79002	0.00311
6682.86134	0.00312
6680.93267	0.00313
6679.00399	0.00315
6677.07532	0.00316
6675.14664	0.00316
6673.21797	0.00316
6671.28929	0.00315
6669.36061	0.00314
6667.43194	0.00316
6665.50326	0.00318
6663.57459	0.00320
6661.64591	0.00320
6659.71724	0.00320
6657.78856	0.00321
6655.85988	0.00323
6653.93121	0.00324
6652.00253	0.00324
6650.07386	0.00324
6648.14518	0.00325
6646.21651	0.00325
6644.28783	0.00325
6642.35915	0.00326
6640.43048	0.00328
6638.50180	0.00328
6636.57313	0.00328
6634.64445	0.00329
6632.71578	0.00331
6630.78710	0.00332
6628.85842	0.00332
6626.92975	0.00332
6625.00107	0.00332
6623.07240	0.00334
6621.14372	0.00336
6619.21505	0.00337
6617.28637	0.00337
6615.35769	0.00338
6613.42902	0.00339
6611.50034	0.00340
6609.57167	0.00340
6607.64299	0.00342
6605.71432	0.00343
6603.78564	0.00343
6601.85696	0.00343
6599.92829	0.00342
6597.99961	0.00343
6596.07094	0.00344
6594.14226	0.00344
6592.21359	0.00344
6590.28491	0.00346
6588.35623	0.00347
6586.42756	0.00349
6584.49888	0.00351
6582.57021	0.00351
6580.64153	0.00351
6578.71286	0.00353
6576.78418	0.00355
6574.85550	0.00356
6572.92683	0.00356
6570.99815	0.00355
6569.06948	0.00355
6567.14080	0.00355
6565.21213	0.00355
6563.28345	0.00355
6561.35477	0.00357
6559.42610	0.00359
6557.49742	0.00359
6555.56875	0.00359
6553.64007	0.00359
6551.71140	0.00359
6549.78272	0.00361
6547.85404	0.00363
6545.92537	0.00364
6543.99669	0.00364
6542.06802	0.00363
6540.13934	0.00364
6538.21067	0.00366
6536.28199	0.00368
6534.35331	0.00369
6532.42464	0.00370
6530.49596	0.00371
6528.56729	0.00372
6526.63861	0.00372
6524.70994	0.00372
6522.78126	0.00371
6520.85258	0.00371
6518.92391	0.00374
6516.99523	0.00377
6515.06656	0.00379
6513.13788	0.00379
6511.20921	0.00380
6509.28053	0.00379
6507.35185	0.00379
6505.42318	0.00379
6503.49450	0.00379
6501.56583	0.00380
6499.63715	0.00381
6497.70848	0.00382
6495.77980	0.00383
6493.85112	0.00384
6491.92245	0.00386
6489.99377	0.00388
6488.06510	0.00390
6486.13642	0.00392
6484.20775	0.00393
6482.27907	0.00393
6480.35039	0.00393
6478.42172	0.00394
6476.49304	0.00394
6474.56437	0.00395
6472.63569	0.00396
6470.70702	0.00396
6468.77834	0.00397
6466.84966	0.00399
6464.92099	0.00400
6462.99231	0.00400
6461.06364	0.00400
6459.13496	0.00401
6457.20629	0.00402
6455.27761	0.00401
6453.34893	0.00401
6451.42026	0.00403
6449.49158	0.00405
6447.56291	0.00406
6445.63423	0.00408
6443.70556	0.00409
6441.77688	0.00409
6439.84820	0.00410
6437.91953	0.00410
6435.99085	0.00410
6434.06218	0.00412
6432.13350	0.00414
6430.20483	0.00414
6428.27615	0.00413
6426.34747	0.00414
6424.41880	0.00416
6422.49012	0.00420
6420.56145	0.00421
6418.63277	0.00421
6416.70410	0.00422
6414.77542	0.00422
6412.84674	0.00423
6410.91807	0.00423
6408.98939	0.00424
6407.06072	0.00426
6405.13204	0.00428
6403.20337	0.00429
6401.27469	0.00430
6399.34601	0.00431
6397.41734	0.00431
6395.48866	0.00431
6393.55999	0.00432
6391.63131	0.00434
6389.70264	0.00433
6387.77396	0.00432
6385.84528	0.00434
6383.91661	0.00437
6381.98793	0.00439
6380.05926	0.00441
6378.13058	0.00441
6376.20191	0.00440
6374.27323	0.00441
6372.34455	0.00443
6370.41588	0.00445
6368.48720	0.00445
6366.55853	0.00445
6364.62985	0.00446
6362.70118	0.00447
6360.77250	0.00449
6358.84382	0.00450
6356.91515	0.00451
6354.98647	0.00451
6353.05780	0.00451
6351.12912	0.00452
6349.20045	0.00453
6347.27177	0.00455
6345.34309	0.00456
6343.41442	0.00458
6341.48574	0.00459
6339.55707	0.00460
6337.62839	0.00459
6335.69972	0.00459
6333.77104	0.00461
6331.84236	0.00463
6329.91369	0.00464
6327.98501	0.00465
6326.05634	0.00467
6324.12766	0.00468
6322.19899	0.00468
6320.27031	0.00468
6318.34163	0.00470
6316.41296	0.00471
6314.48428	0.00472
6312.55561	0.00474
6310.62693	0.00476
6308.69826	0.00477
6306.76958	0.00478
6304.84090	0.00479
6302.91223	0.00480
6300.98355	0.00481
6299.05488	0.00481
6297.12620	0.00482
6295.19753	0.00482
6293.26885	0.00482
6291.34017	0.00482
6289.41150	0.00484
6287.48282	0.00487
6285.55415	0.00489
6283.62547	0.00491
6281.69680	0.00492
6279.76812	0.00493
6277.83944	0.00494
6275.91077	0.00494
6273.98209	0.00494
6272.05342	0.00495
6270.12474	0.00498
6268.19607	0.00498
6266.26739	0.00498
6264.33871	0.00498
6262.41004	0.00500
6260.48136	0.00502
6258.55269	0.00503
6256.62401	0.00504
6254.69534	0.00504
6252.76666	0.00506
6250.83798	0.00508
6248.90931	0.00508
6246.98063	0.00509
6245.05196	0.00510
6243.12328	0.00512
6241.19461	0.00513
6239.26593	0.00515
6237.33725	0.00517
6235.40858	0.00519
6233.47990	0.00520
6231.55123	0.00520
6229.62255	0.00519
6227.69388	0.00520
6225.76520	0.00522
6223.83652	0.00522
6221.90785	0.00524
6219.97917	0.00526
6218.05050	0.00527
6216.12182	0.00528
6214.19315	0.00530
6212.26447	0.00531
6210.33579	0.00531
6208.40712	0.00532
6206.47844	0.00533
6204.54977	0.00536
6202.62109	0.00538
6200.69242	0.00538
6198.76374	0.00539
6196.83506	0.00541
6194.90639	0.00543
6192.97771	0.00545
6191.04904	0.00545
6189.12036	0.00547
6187.19169	0.00548
6185.26301	0.00548
6183.33433	0.00548
6181.40566	0.00550
6179.47698	0.00553
6177.54831	0.00555
6175.61963	0.00555
6173.69096	0.00554
6171.76228	0.00554
6169.83360	0.00556
6167.90493	0.00558
6165.97625	0.00560
6164.04758	0.00562
6162.11890	0.00565
6160.19023	0.00567
6158.26155	0.00568
6156.33287	0.00568
6154.40420	0.00568
6152.47552	0.00568
6150.54685	0.00569
6148.61817	0.00571
6146.68950	0.00573
6144.76082	0.00574
6142.83214	0.00574
6140.90347	0.00575
6138.97479	0.00577
6137.04612	0.00579
6135.11744	0.00581
6133.18877	0.00583
6131.26009	0.00584
6129.33141	0.00585
6127.40274	0.00585
6125.47406	0.00587
6123.54539	0.00589
6121.61671	0.00591
6119.68804	0.00592
6117.75936	0.00592
6115.83068	0.00592
6113.90201	0.00594
6111.97333	0.00595
6110.04466	0.00596
6108.11598	0.00598
6106.18731	0.00600
6104.25863	0.00601
6102.32995	0.00602
6100.40128	0.00604
6098.47260	0.00606
6096.54393	0.00607
6094.61525	0.00607
6092.68658	0.00609
6090.75790	0.00611
6088.82922	0.00613
6086.90055	0.00614
6084.97187	0.00615
6083.04320	0.00615
6081.11452	0.00617
6079.18585	0.00617
6077.25717	0.00618
6075.32849	0.00620
6073.39982	0.00621
6071.47114	0.00622
6069.54247	0.00624
6067.61379	0.00627
6065.68512	0.00630
6063.75644	0.00631
6061.82776	0.00632
6059.89909	0.00633
6057.97041	0.00634
6056.04174	0.00635
6054.11306	0.00637
6052.18439	0.00639
6050.25571	0.00641
6048.32703	0.00640
6046.39836	0.00640
6044.46968	0.00641
6042.54101	0.00643
6040.61233	0.00645
6038.68366	0.00648
6036.75498	0.00650
6034.82630	0.00650
6032.89763	0.00651
6030.96895	0.00653
6029.04028	0.00655
6027.11160	0.00658
6025.18293	0.00659
6023.25425	0.00659
6021.32557	0.00658
6019.39690	0.00658
6017.46822	0.00662
6015.53955	0.00666
6013.61087	0.00667
6011.68220	0.00667
6009.75352	0.00669
6007.82484	0.00670
6005.89617	0.00670
6003.96749	0.00670
6002.03882	0.00672
6000.11014	0.00675
5998.18147	0.00678
5996.25279	0.00680
5994.32411	0.00682
5992.39544	0.00684
5990.46676	0.00686
5988.53809	0.00690
5986.60941	0.00691
5984.68074	0.00691
5982.75206	0.00691
5980.82338	0.00692
5978.89471	0.00692
5976.96603	0.00693
5975.03736	0.00696
5973.10868	0.00699
5971.18001	0.00700
5969.25133	0.00701
5967.32265	0.00702
5965.39398	0.00702
5963.46530	0.00703
5961.53663	0.00706
5959.60795	0.00710
5957.67928	0.00710
5955.75060	0.00711
5953.82192	0.00712
5951.89325	0.00715
5949.96457	0.00718
5948.03590	0.00719
5946.10722	0.00720
5944.17855	0.00722
5942.24987	0.00724
5940.32119	0.00726
5938.39252	0.00728
5936.46384	0.00729
5934.53517	0.00730
5932.60649	0.00733
5930.67782	0.00737
5928.74914	0.00738
5926.82046	0.00738
5924.89179	0.00739
5922.96311	0.00740
5921.03444	0.00741
5919.10576	0.00742
5917.17709	0.00744
5915.24841	0.00745
5913.31973	0.00747
5911.39106	0.00748
5909.46238	0.00751
5907.53371	0.00754
5905.60503	0.00757
5903.67636	0.00759
5901.74768	0.00760
5899.81900	0.00761
5897.89033	0.00763
5895.96165	0.00765
5894.03298	0.00767
5892.10430	0.00769
5890.17563	0.00771
5888.24695	0.00771
5886.31827	0.00771
5884.38960	0.00772
5882.46092	0.00771
5880.53225	0.00772
5878.60357	0.00775
5876.67490	0.00777
5874.74622	0.00780
5872.81755	0.00781
5870.88887	0.00783
5868.96019	0.00786
5867.03152	0.00788
5865.10284	0.00789
5863.17417	0.00791
5861.24549	0.00793
5859.31682	0.00794
5857.38814	0.00797
5855.45946	0.00800
5853.53079	0.00803
5851.60211	0.00803
5849.67344	0.00802
5847.74476	0.00803
5845.81609	0.00806
5843.88741	0.00810
5841.95873	0.00813
5840.03006	0.00814
5838.10138	0.00815
5836.17271	0.00818
5834.24403	0.00821
5832.31536	0.00823
5830.38668	0.00824
5828.45800	0.00824
5826.52933	0.00825
5824.60065	0.00827
5822.67198	0.00828
5820.74330	0.00830
5818.81463	0.00832
5816.88595	0.00835
5814.95727	0.00837
5813.02860	0.00839
5811.09992	0.00841
5809.17125	0.00843
5807.24257	0.00844
5805.31390	0.00846
5803.38522	0.00849
5801.45654	0.00852
5799.52787	0.00855
5797.59919	0.00857
5795.67052	0.00859
5793.74184	0.00862
5791.81317	0.00864
5789.88449	0.00866
5787.95581	0.00866
5786.02714	0.00866
5784.09846	0.00866
5782.16979	0.00867
5780.24111	0.00869
5778.31244	0.00872
5776.38376	0.00875
5774.45508	0.00877
5772.52641	0.00878
5770.59773	0.00879
5768.66906	0.00881
5766.74038	0.00883
5764.81171	0.00884
5762.88303	0.00884
5760.95435	0.00888
5759.02568	0.00893
5757.09700	0.00897
5755.16833	0.00897
5753.23965	0.00897
5751.31098	0.00898
5749.38230	0.00901
5747.45362	0.00903
5745.52495	0.00905
5743.59627	0.00905
5741.66760	0.00907
5739.73892	0.00910
5737.81025	0.00913
5735.88157	0.00915
5733.95289	0.00917
5732.02422	0.00920
5730.09554	0.00923
5728.16687	0.00924
5726.23819	0.00925
5724.30952	0.00928
5722.38084	0.00930
5720.45216	0.00930
5718.52349	0.00930
5716.59481	0.00933
5714.66614	0.00938
5712.73746	0.00942
5710.80879	0.00941
5708.88011	0.00941
5706.95143	0.00944
5705.02276	0.00949
5703.09408	0.00951
5701.16541	0.00952
5699.23673	0.00955
5697.30806	0.00959
5695.37938	0.00962
5693.45070	0.00963
5691.52203	0.00963
5689.59335	0.00964
5687.66468	0.00966
5685.73600	0.00968
5683.80733	0.00970
5681.87865	0.00971
5679.94997	0.00972
5678.02130	0.00974
5676.09262	0.00976
5674.16395	0.00980
5672.23527	0.00983
5670.30660	0.00986
5668.37792	0.00990
5666.44924	0.00994
5664.52057	0.00994
5662.59189	0.00995
5660.66322	0.00996
5658.73454	0.00998
5656.80587	0.01001
5654.87719	0.01003
5652.94851	0.01005
5651.01984	0.01007
5649.09116	0.01009
5647.16249	0.01011
5645.23381	0.01012
5643.30514	0.01014
5641.37646	0.01016
5639.44778	0.01019
5637.51911	0.01020
5635.59043	0.01021
5633.66176	0.01023
5631.73308	0.01027
5629.80441	0.01032
5627.87573	0.01036
5625.94705	0.01037
5624.01838	0.01038
5622.08970	0.01038
5620.16103	0.01040
5618.23235	0.01043
5616.30368	0.01046
5614.37500	0.01050
5612.44632	0.01053
5610.51765	0.01056
5608.58897	0.01057
5606.66030	0.01057
5604.73162	0.01058
5602.80295	0.01061
5600.87427	0.01065
5598.94559	0.01067
5597.01692	0.01069
5595.08824	0.01072
5593.15957	0.01074
5591.23089	0.01075
5589.30222	0.01077
5587.37354	0.01078
5585.44486	0.01081
5583.51619	0.01085
5581.58751	0.01088
5579.65884	0.01090
5577.73016	0.01091
5575.80149	0.01095
5573.87281	0.01099
5571.94413	0.01101
5570.01546	0.01102
5568.08678	0.01103
5566.15811	0.01104
5564.22943	0.01108
5562.30076	0.01113
5560.37208	0.01116
5558.44340	0.01119
5556.51473	0.01122
5554.58605	0.01124
5552.65738	0.01124
5550.72870	0.01126
5548.80003	0.01129
5546.87135	0.01131
5544.94267	0.01132
5543.01400	0.01135
5541.08532	0.01137
5539.15665	0.01140
5537.22797	0.01142
5535.29930	0.01145
5533.37062	0.01147
5531.44194	0.01150
5529.51327	0.01151
5527.58459	0.01154
5525.65592	0.01158
5523.72724	0.01161
5521.79857	0.01161
5519.86989	0.01161
5517.94121	0.01163
5516.01254	0.01168
5514.08386	0.01170
5512.15519	0.01171
5510.22651	0.01174
5508.29784	0.01179
5506.36916	0.01182
5504.44048	0.01185
5502.51181	0.01187
5500.58313	0.01188
5498.65446	0.01190
5496.72578	0.01192
5494.79711	0.01194
5492.86843	0.01195
5490.93975	0.01198
5489.01108	0.01203
5487.08240	0.01206
5485.15373	0.01208
5483.22505	0.01209
5481.29638	0.01210
5479.36770	0.01212
5477.43902	0.01215
5475.51035	0.01217
5473.58167	0.01219
5471.65300	0.01223
5469.72432	0.01228
5467.79565	0.01233
5465.86697	0.01235
5463.93829	0.01235
5462.00962	0.01236
5460.08094	0.01238
5458.15227	0.01242
5456.22359	0.01244
5454.29492	0.01246
5452.36624	0.01249
5450.43756	0.01252
5448.50889	0.01255
5446.58021	0.01256
5444.65154	0.01258
5442.72286	0.01260
5440.79419	0.01264
5438.86551	0.01269
5436.93683	0.01273
5435.00816	0.01275
5433.07948	0.01277
5431.15081	0.01278
5429.22213	0.01277
5427.29346	0.01279
5425.36478	0.01286
5423.43610	0.01292
5421.50743	0.01295
5419.57875	0.01296
5417.65008	0.01297
5415.72140	0.01299
5413.79273	0.01300
5411.86405	0.01304
5409.93537	0.01307
5408.00670	0.01309
5406.07802	0.01313
5404.14935	0.01318
5402.22067	0.01323
5400.29200	0.01325
5398.36332	0.01326
5396.43464	0.01327
5394.50597	0.01328
5392.57729	0.01333
5390.64862	0.01336
5388.71994	0.01336
5386.79127	0.01336
5384.86259	0.01338
5382.93391	0.01344
5381.00524	0.01348
5379.07656	0.01350
5377.14789	0.01352
5375.21921	0.01355
5373.29054	0.01357
5371.36186	0.01359
5369.43318	0.01362
5367.50451	0.01366
5365.57583	0.01370
5363.64716	0.01374
5361.71848	0.01377
5359.78981	0.01381
5357.86113	0.01383
5355.93245	0.01385
5354.00378	0.01385
5352.07510	0.01386
5350.14643	0.01387
5348.21775	0.01388
5346.28908	0.01390
5344.36040	0.01394
5342.43172	0.01399
5340.50305	0.01403
5338.57437	0.01405
5336.64570	0.01410
5334.71702	0.01415
5332.78835	0.01419
5330.85967	0.01422
5328.93099	0.01423
5327.00232	0.01424
5325.07364	0.01426
5323.14497	0.01431
5321.21629	0.01436
5319.28762	0.01439
5317.35894	0.01442
5315.43026	0.01444
5313.50159	0.01447
5311.57291	0.01449
5309.64424	0.01450
5307.71556	0.01452
5305.78689	0.01455
5303.85821	0.01460
5301.92953	0.01464
5300.00086	0.01467
5298.07218	0.01469
5296.14351	0.01472
5294.21483	0.01476
5292.28616	0.01478
5290.35748	0.01478
5288.42880	0.01477
5286.50013	0.01481
5284.57145	0.01486
5282.64278	0.01491
5280.71410	0.01495
5278.78543	0.01498
5276.85675	0.01500
5274.92807	0.01503
5272.99940	0.01506
5271.07072	0.01510
5269.14205	0.01514
5267.21337	0.01519
5265.28470	0.01522
5263.35602	0.01523
5261.42734	0.01524
5259.49867	0.01525
5257.56999	0.01528
5255.64132	0.01531
5253.71264	0.01535
5251.78397	0.01540
5249.85529	0.01543
5247.92661	0.01544
5245.99794	0.01547
5244.06926	0.01551
5242.14059	0.01553
5240.21191	0.01554
5238.28324	0.01556
5236.35456	0.01559
5234.42588	0.01563
5232.49721	0.01566
5230.56853	0.01569
5228.63986	0.01572
5226.71118	0.01575
5224.78251	0.01577
5222.85383	0.01581
5220.92515	0.01588
5218.99648	0.01592
5217.06780	0.01594
5215.13913	0.01596
5213.21045	0.01599
5211.28178	0.01601
5209.35310	0.01604
5207.42442	0.01607
5205.49575	0.01611
5203.56707	0.01615
5201.63840	0.01618
5199.70972	0.01620
5197.78105	0.01623
5195.85237	0.01627
5193.92369	0.01630
5191.99502	0.01633
5190.06634	0.01639
5188.13767	0.01643
5186.20899	0.01644
5184.28032	0.01644
5182.35164	0.01646
5180.42296	0.01648
5178.49429	0.01653
5176.56561	0.01659
5174.63694	0.01663
5172.70826	0.01666
5170.77959	0.01668
5168.85091	0.01670
5166.92223	0.01674
5164.99356	0.01679
5163.06488	0.01683
5161.13621	0.01683
5159.20753	0.01684
5157.27886	0.01688
5155.35018	0.01694
5153.42150	0.01700
5151.49283	0.01704
5149.56415	0.01705
5147.63548	0.01705
5145.70680	0.01708
5143.77813	0.01713
5141.84945	0.01717
5139.92077	0.01719
5137.99210	0.01721
5136.06342	0.01724
5134.13475	0.01728
5132.20607	0.01731
5130.27740	0.01734
5128.34872	0.01737
5126.42004	0.01741
5124.49137	0.01746
5122.56269	0.01751
5120.63402	0.01753
5118.70534	0.01755
5116.77667	0.01759
5114.84799	0.01764
5112.91931	0.01769
5110.99064	0.01772
5109.06196	0.01774
5107.13329	0.01775
5105.20461	0.01778
5103.27594	0.01783
5101.34726	0.01787
5099.41858	0.01789
5097.48991	0.01791
5095.56123	0.01792
5093.63256	0.01793
5091.70388	0.01796
5089.77521	0.01802
5087.84653	0.01808
5085.91785	0.01813
5083.98918	0.01814
5082.06050	0.01816
5080.13183	0.01818
5078.20315	0.01823
5076.27448	0.01827
5074.34580	0.01830
5072.41712	0.01833
5070.48845	0.01838
5068.55977	0.01842
5066.63110	0.01844
5064.70242	0.01846
5062.77375	0.01848
5060.84507	0.01851
5058.91639	0.01853
5056.98772	0.01857
5055.05904	0.01863
5053.13037	0.01869
5051.20169	0.01871
5049.27302	0.01873
5047.34434	0.01878
5045.41566	0.01885
5043.48699	0.01890
5041.55831	0.01893
5039.62964	0.01894
5037.70096	0.01896
5035.77229	0.01899
5033.84361	0.01902
5031.91493	0.01905
5029.98626	0.01907
5028.05758	0.01910
5026.12891	0.01913
5024.20023	0.01917
5022.27156	0.01921
5020.34288	0.01925
5018.41420	0.01930
5016.48553	0.01935
5014.55685	0.01938
5012.62818	0.01942
5010.69950	0.01948
5008.77083	0.01952
5006.84215	0.01955
5004.91347	0.01957
5002.98480	0.01959
5001.05612	0.01961
4999.12745	0.01965
4997.19877	0.01969
4995.27010	0.01973
4993.34142	0.01976
4991.41274	0.01979
4989.48407	0.01983
4987.55539	0.01989
4985.62672	0.01994
4983.69804	0.01997
4981.76937	0.01998
4979.84069	0.02001
4977.91201	0.02004
4975.98334	0.02007
4974.05466	0.02008
4972.12599	0.02012
4970.19731	0.02017
4968.26864	0.02021
4966.33996	0.02024
4964.41128	0.02029
4962.48261	0.02035
4960.55393	0.02040
4958.62526	0.02042
4956.69658	0.02045
4954.76791	0.02050
4952.83923	0.02053
4950.91055	0.02054
4948.98188	0.02056
4947.05320	0.02059
4945.12453	0.02062
4943.19585	0.02067
4941.26718	0.02072
4939.33850	0.02077
4937.40982	0.02081
4935.48115	0.02085
4933.55247	0.02089
4931.62380	0.02093
4929.69512	0.02098
4927.76645	0.02103
4925.83777	0.02106
4923.90909	0.02109
4921.98042	0.02113
4920.05174	0.02117
4918.12307	0.02119
4916.19439	0.02122
4914.26572	0.02125
4912.33704	0.02126
4910.40836	0.02128
4908.47969	0.02134
4906.55101	0.02141
4904.62234	0.02144
4902.69366	0.02145
4900.76499	0.02148
4898.83631	0.02153
4896.90763	0.02158
4894.97896	0.02164
4893.05028	0.02169
4891.12161	0.02173
4889.19293	0.02177
4887.26426	0.02181
4885.33558	0.02184
4883.40690	0.02188
4881.47823	0.02191
4879.54955	0.02195
4877.62088	0.02199
4875.69220	0.02202
4873.76353	0.02206
4871.83485	0.02212
4869.90617	0.02217
4867.97750	0.02221
4866.04882	0.02225
4864.12015	0.02229
4862.19147	0.02231
4860.26280	0.02233
4858.33412	0.02235
4856.40544	0.02237
4854.47677	0.02239
4852.54809	0.02243
4850.61942	0.02248
4848.69074	0.02254
4846.76207	0.02260
4844.83339	0.02267
4842.90471	0.02271
4840.97604	0.02274
4839.04736	0.02277
4837.11869	0.02282
4835.19001	0.02286
4833.26134	0.02290
4831.33266	0.02292
4829.40398	0.02295
4827.47531	0.02301
4825.54663	0.02307
4823.61796	0.02312
4821.68928	0.02316
4819.76061	0.02321
4817.83193	0.02325
4815.90325	0.02328
4813.97458	0.02330
4812.04590	0.02334
4810.11723	0.02338
4808.18855	0.02344
4806.25988	0.02348
4804.33120	0.02352
4802.40252	0.02354
4800.47385	0.02358
4798.54517	0.02363
4796.61650	0.02368
4794.68782	0.02372
4792.75915	0.02373
4790.83047	0.02374
4788.90179	0.02378
4786.97312	0.02385
4785.04444	0.02392
4783.11577	0.02396
4781.18709	0.02400
4779.25842	0.02407
4777.32974	0.02411
4775.40106	0.02414
4773.47239	0.02416
4771.54371	0.02420
4769.61504	0.02425
4767.68636	0.02429
4765.75769	0.02433
4763.82901	0.02438
4761.90033	0.02444
4759.97166	0.02450
4758.04298	0.02454
4756.11431	0.02456
4754.18563	0.02458
4752.25696	0.02463
4750.32828	0.02469
4748.39960	0.02473
4746.47093	0.02477
4744.54225	0.02483
4742.61358	0.02488
4740.68490	0.02491
4738.75623	0.02494
4736.82755	0.02498
4734.89887	0.02503
4732.97020	0.02509
4731.04152	0.02513
4729.11285	0.02516
4727.18417	0.02520
4725.25550	0.02524
4723.32682	0.02527
4721.39814	0.02530
4719.46947	0.02534
4717.54079	0.02540
4715.61212	0.02546
4713.68344	0.02553
4711.75477	0.02559
4709.82609	0.02562
4707.89741	0.02566
4705.96874	0.02572
4704.04006	0.02577
4702.11139	0.02579
4700.18271	0.02582
4698.25404	0.02587
4696.32536	0.02593
4694.39668	0.02598
4692.46801	0.02603
4690.53933	0.02607
4688.61066	0.02610
4686.68198	0.02614
4684.75331	0.02618
4682.82463	0.02621
4680.89595	0.02626
4678.96728	0.02631
4677.03860	0.02635
4675.10993	0.02641
4673.18125	0.02649
4671.25258	0.02654
4669.32390	0.02657
4667.39522	0.02660
4665.46655	0.02666
4663.53787	0.02672
4661.60920	0.02677
4659.68052	0.02680
4657.75185	0.02683
4655.82317	0.02688
4653.89449	0.02694
4651.96582	0.02700
4650.03714	0.02705
4648.10847	0.02709
4646.17979	0.02712
4644.25112	0.02717
4642.32244	0.02724
4640.39376	0.02730
4638.46509	0.02735
4636.53641	0.02739
4634.60774	0.02742
4632.67906	0.02745
4630.75039	0.02748
4628.82171	0.02753
4626.89303	0.02758
4624.96436	0.02764
4623.03568	0.02771
4621.10701	0.02777
4619.17833	0.02782
4617.24966	0.02785
4615.32098	0.02788
4613.39230	0.02792
4611.46363	0.02797
4609.53495	0.02803
4607.60628	0.02810
4605.67760	0.02814
4603.74893	0.02818
4601.82025	0.02825
4599.89157	0.02831
4597.96290	0.02837
4596.03422	0.02842
4594.10555	0.02846
4592.17687	0.02850
4590.24820	0.02856
4588.31952	0.02861
4586.39084	0.02865
4584.46217	0.02870
4582.53349	0.02875
4580.60482	0.02881
4578.67614	0.02887
4576.74747	0.02893
4574.81879	0.02899
4572.89011	0.02903
4570.96144	0.02906
4569.03276	0.02911
4567.10409	0.02916
4565.17541	0.02920
4563.24674	0.02923
4561.31806	0.02929
4559.38938	0.02939
4557.46071	0.02947
4555.53203	0.02954
4553.60336	0.02957
4551.67468	0.02961
4549.74601	0.02966
4547.81733	0.02972
4545.88865	0.02978
4543.95998	0.02984
4542.03130	0.02989
4540.10263	0.02990
4538.17395	0.02995
4536.24528	0.03002
4534.31660	0.03007
4532.38792	0.03012
4530.45925	0.03019
4528.53057	0.03027
4526.60190	0.03034
4524.67322	0.03041
4522.74455	0.03047
4520.81587	0.03051
4518.88719	0.03053
4516.95852	0.03056
4515.02984	0.03061
4513.10117	0.03069
4511.17249	0.03076
4509.24382	0.03082
4507.31514	0.03088
4505.38646	0.03093
4503.45779	0.03098
4501.52911	0.03104
4499.60044	0.03111
4497.67176	0.03118
4495.74309	0.03123
4493.81441	0.03128
4491.88573	0.03132
4489.95706	0.03135
4488.02838	0.03139
4486.09971	0.03144
4484.17103	0.03152
4482.24236	0.03159
4480.31368	0.03164
4478.38500	0.03169
4476.45633	0.03174
4474.52765	0.03180
4472.59898	0.03187
4470.67030	0.03193
4468.74163	0.03200
4466.81295	0.03205
4464.88427	0.03210
4462.95560	0.03216
4461.02692	0.03224
4459.09825	0.03232
4457.16957	0.03239
4455.24090	0.03245
4453.31222	0.03251
4451.38354	0.03256
4449.45487	0.03261
4447.52619	0.03268
4445.59752	0.03274
4443.66884	0.03279
4441.74017	0.03284
4439.81149	0.03291
4437.88281	0.03298
4435.95414	0.03304
4434.02546	0.03311
4432.09679	0.03319
4430.16811	0.03326
4428.23944	0.03330
4426.31076	0.03333
4424.38208	0.03337
4422.45341	0.03343
4420.52473	0.03351
4418.59606	0.03359
4416.66738	0.03365
4414.73871	0.03371
4412.81003	0.03376
4410.88135	0.03382
4408.95268	0.03388
4407.02400	0.03394
4405.09533	0.03400
4403.16665	0.03408
4401.23798	0.03415
4399.30930	0.03421
4397.38062	0.03425
4395.45195	0.03429
4393.52327	0.03436
4391.59460	0.03443
4389.66592	0.03451
4387.73725	0.03458
4385.80857	0.03465
4383.87989	0.03471
4381.95122	0.03477
4380.02254	0.03484
4378.09387	0.03490
4376.16519	0.03495
4374.23652	0.03499
4372.30784	0.03505
4370.37916	0.03515
4368.45049	0.03525
4366.52181	0.03532
4364.59314	0.03536
4362.66446	0.03539
4360.73579	0.03545
4358.80711	0.03553
4356.87843	0.03559
4354.94976	0.03563
4353.02108	0.03570
4351.09241	0.03581
4349.16373	0.03590
4347.23506	0.03598
4345.30638	0.03606
4343.37770	0.03613
4341.44903	0.03620
4339.52035	0.03626
4337.59168	0.03633
4335.66300	0.03640
4333.73433	0.03646
4331.80565	0.03652
4329.87697	0.03656
4327.94830	0.03662
4326.01962	0.03671
4324.09095	0.03680
4322.16227	0.03687
4320.23360	0.03694
4318.30492	0.03702
4316.37624	0.03709
4314.44757	0.03716
4312.51889	0.03724
4310.59022	0.03731
4308.66154	0.03736
4306.73287	0.03742
4304.80419	0.03749
4302.87551	0.03757
4300.94684	0.03766
4299.01816	0.03774
4297.08949	0.03779
4295.16081	0.03785
4293.23214	0.03791
4291.30346	0.03800
4289.37478	0.03810
4287.44611	0.03819
4285.51743	0.03826
4283.58876	0.03833
4281.66008	0.03840
4279.73141	0.03847
4277.80273	0.03855
4275.87405	0.03864
4273.94538	0.03872
4272.01670	0.03880
4270.08803	0.03887
4268.15935	0.03895
4266.23068	0.03903
4264.30200	0.03909
4262.37332	0.03916
4260.44465	0.03923
4258.51597	0.03931
4256.58730	0.03938
4254.65862	0.03943
4252.72995	0.03949
4250.80127	0.03956
4248.87259	0.03964
4246.94392	0.03970
4245.01524	0.03979
4243.08657	0.03988
4241.15789	0.03996
4239.22922	0.04002
4237.30054	0.04009
4235.37186	0.04017
4233.44319	0.04027
4231.51451	0.04036
4229.58584	0.04044
4227.65716	0.04051
4225.72849	0.04061
4223.79981	0.04069
4221.87113	0.04075
4219.94246	0.04081
4218.01378	0.04087
4216.08511	0.04095
4214.15643	0.04106
4212.22776	0.04115
4210.29908	0.04122
4208.37040	0.04127
4206.44173	0.04135
4204.51305	0.04146
4202.58438	0.04158
4200.65570	0.04166
4198.72703	0.04174
4196.79835	0.04183
4194.86968	0.04192
4192.94100	0.04198
4191.01232	0.04203
4189.08365	0.04211
4187.15497	0.04220
4185.22630	0.04228
4183.29762	0.04236
4181.36895	0.04246
4179.44027	0.04256
4177.51159	0.04263
4175.58292	0.04269
4173.65424	0.04278
4171.72557	0.04288
4169.79689	0.04296
4167.86822	0.04303
4165.93954	0.04311
4164.01086	0.04319
4162.08219	0.04328
4160.15351	0.04338
4158.22484	0.04349
4156.29616	0.04358
4154.36749	0.04365
4152.43881	0.04373
4150.51013	0.04383
4148.58146	0.04393
4146.65278	0.04400
4144.72411	0.04404
4142.79543	0.04410
4140.86676	0.04418
4138.93808	0.04429
4137.00940	0.04440
4135.08073	0.04451
4133.15205	0.04460
4131.22338	0.04468
4129.29470	0.04475
4127.36603	0.04482
4125.43735	0.04491
4123.50867	0.04501
4121.58000	0.04511
4119.65132	0.04521
4117.72265	0.04531
4115.79397	0.04540
4113.86530	0.04547
4111.93662	0.04555
4110.00794	0.04563
4108.07927	0.04572
4106.15059	0.04581
4104.22192	0.04590
4102.29324	0.04601
4100.36457	0.04611
4098.43589	0.04620
4096.50721	0.04628
4094.57854	0.04638
4092.64986	0.04647
4090.72119	0.04655
4088.79251	0.04664
4086.86384	0.04674
4084.93516	0.04683
4083.00648	0.04691
4081.07781	0.04698
4079.14913	0.04705
4077.22046	0.04715
4075.29178	0.04726
4073.36311	0.04736
4071.43443	0.04745
4069.50575	0.04755
4067.57708	0.04764
4065.64840	0.04772
4063.71973	0.04782
4061.79105	0.04792
4059.86238	0.04804
4057.93370	0.04817
4056.00502	0.04826
4054.07635	0.04833
4052.14767	0.04839
4050.21900	0.04846
4048.29032	0.04854
4046.36165	0.04864
4044.43297	0.04874
4042.50429	0.04884
4040.57562	0.04894
4038.64694	0.04905
4036.71827	0.04917
4034.78959	0.04927
4032.86092	0.04935
4030.93224	0.04944
4029.00356	0.04953
4027.07489	0.04962
4025.14621	0.04971
4023.21754	0.04979
4021.28886	0.04991
4019.36019	0.05004
4017.43151	0.05016
4015.50283	0.05026
4013.57416	0.05035
4011.64548	0.05042
4009.71681	0.05051
4007.78813	0.05061
4005.85946	0.05073
4003.93078	0.05085
4002.00210	0.05095
4000.07343	0.05102
3998.14475	0.05109
3996.21608	0.05120
3994.28740	0.05131
3992.35873	0.05140
3990.43005	0.05146
3988.50137	0.05154
3986.57270	0.05163
3984.64402	0.05174
3982.71535	0.05188
3980.78667	0.05201
3978.85800	0.05211
3976.92932	0.05219
3975.00064	0.05228
3973.07197	0.05240
3971.14329	0.05250
3969.21462	0.05258
3967.28594	0.05267
3965.35727	0.05275
3963.42859	0.05282
3961.49991	0.05293
3959.57124	0.05307
3957.64256	0.05319
3955.71389	0.05330
3953.78521	0.05339
3951.85654	0.05346
3949.92786	0.05353
3947.99918	0.05364
3946.07051	0.05376
3944.14183	0.05386
3942.21316	0.05396
3940.28448	0.05411
3938.35581	0.05424
3936.42713	0.05434
3934.49845	0.05442
3932.56978	0.05448
3930.64110	0.05456
3928.71243	0.05468
3926.78375	0.05479
3924.85508	0.05489
3922.92640	0.05499
3920.99772	0.05508
3919.06905	0.05513
3917.14037	0.05524
3915.21170	0.05542
3913.28302	0.05559
3911.35435	0.05573
3909.42567	0.05583
3907.49699	0.05584
3905.56832	0.05579
3903.63964	0.05576
3901.71097	0.05583
3899.78229	0.05598
3897.85362	0.05623
3895.92494	0.05645
3893.99626	0.05655
3892.06759	0.05660
3890.13891	0.05669
3888.21024	0.05676
3886.28156	0.05680
3884.35289	0.05696
3882.42421	0.05715
3880.49553	0.05728
3878.56686	0.05741
3876.63818	0.05752
3874.70951	0.05758
3872.78083	0.05760
3870.85216	0.05764
3868.92348	0.05777
3866.99480	0.05793
3865.06613	0.05803
3863.13745	0.05817
3861.20878	0.05836
3859.28010	0.05851
3857.35143	0.05848
3855.42275	0.05827
3853.49407	0.05822
3851.56540	0.05856
3849.63672	0.05902
3847.70805	0.05929
3845.77937	0.05936
3843.85070	0.05935
3841.92202	0.05936
3839.99334	0.05938
3838.06467	0.05943
3836.13599	0.05957
3834.20732	0.05978
3832.27864	0.05999
3830.34997	0.06019
3828.42129	0.06035
3826.49261	0.06046
3824.56394	0.06050
3822.63526	0.06047
3820.70659	0.06054
3818.77791	0.06071
3816.84924	0.06085
3814.92056	0.06103
3812.99188	0.06127
3811.06321	0.06141
3809.13453	0.06142
3807.20586	0.06143
3805.27718	0.06153
3803.34851	0.06162
3801.41983	0.06170
3799.49115	0.06187
3797.56248	0.06206
3795.63380	0.06224
3793.70513	0.06245
3791.77645	0.06263
3789.84778	0.06277
3787.91910	0.06285
3785.99042	0.06290
3784.06175	0.06299
3782.13307	0.06308
3780.20440	0.06316
3778.27572	0.06328
3776.34705	0.06347
3774.41837	0.06364
3772.48969	0.06371
3770.56102	0.06370
3768.63234	0.06377
3766.70367	0.06392
3764.77499	0.06409
3762.84632	0.06421
3760.91764	0.06425
3758.98896	0.06432
3757.06029	0.06445
3755.13161	0.06451
3753.20294	0.06444
3751.27426	0.06441
3749.34559	0.06454
3747.41691	0.06464
3745.48823	0.06463
3743.55956	0.06483
3741.63088	0.06524
3739.70221	0.06541
3737.77353	0.06530
3735.84486	0.06527
3733.91618	0.06545
3731.98750	0.06575
3730.05883	0.06604
3728.13015	0.06623
3726.20148	0.06632
3724.27280	0.06642
3722.34413	0.06656
3720.41545	0.06674
3718.48677	0.06691
3716.55810	0.06697
3714.62942	0.06691
3712.70075	0.06684
3710.77207	0.06690
3708.84340	0.06711
3706.91472	0.06734
3704.98604	0.06746
3703.05737	0.06749
3701.12869	0.06756
3699.20002	0.06774
3697.27134	0.06792
3695.34267	0.06802
3693.41399	0.06799
3691.48531	0.06791
3689.55664	0.06793
3687.62796	0.06813
3685.69929	0.06839
3683.77061	0.06858
3681.84194	0.06867
3679.91326	0.06868
3677.98458	0.06860
3676.05591	0.06854
3674.12723	0.06868
3672.19856	0.06887
3670.26988	0.06900
3668.34121	0.06924
3666.41253	0.06954
3664.48385	0.06973
3662.55518	0.06984
3660.62650	0.06992
3658.69783	0.06993
3656.76915	0.06995
3654.84048	0.07006
3652.91180	0.07005
3650.98312	0.06984
3649.05445	0.06972
3647.12577	0.06995
3645.19710	0.07033
3643.26842	0.07062
3641.33975	0.07082
3639.41107	0.07097
3637.48239	0.07107
3635.55372	0.07113
3633.62504	0.07113
3631.69637	0.07101
3629.76769	0.07090
3627.83902	0.07108
3625.91034	0.07145
3623.98166	0.07168
3622.05299	0.07168
3620.12431	0.07162
3618.19564	0.07169
3616.26696	0.07184
3614.33829	0.07191
3612.40961	0.07193
3610.48093	0.07194
3608.55226	0.07201
3606.62358	0.07220
3604.69491	0.07240
3602.76623	0.07252
3600.83756	0.07257
3598.90888	0.07263
3596.98020	0.07269
3595.05153	0.07277
3593.12285	0.07286
3591.19418	0.07288
3589.26550	0.07281
3587.33683	0.07285
3585.40815	0.07306
3583.47947	0.07328
3581.55080	0.07342
3579.62212	0.07354
3577.69345	0.07366
3575.76477	0.07377
3573.83610	0.07387
3571.90742	0.07392
3569.97874	0.07385
3568.05007	0.07377
3566.12139	0.07386
3564.19272	0.07406
3562.26404	0.07423
3560.33537	0.07437
3558.40669	0.07448
3556.47801	0.07456
3554.54934	0.07461
3552.62066	0.07466
3550.69199	0.07473
3548.76331	0.07478
3546.83464	0.07482
3544.90596	0.07490
3542.97728	0.07503
3541.04861	0.07515
3539.11993	0.07521
3537.19126	0.07524
3535.26258	0.07529
3533.33391	0.07536
3531.40523	0.07541
3529.47655	0.07544
3527.54788	0.07547
3525.61920	0.07553
3523.69053	0.07558
3521.76185	0.07561
3519.83318	0.07567
3517.90450	0.07573
3515.97582	0.07578
3514.04715	0.07582
3512.11847	0.07585
3510.18980	0.07588
3508.26112	0.07593
3506.33245	0.07596
3504.40377	0.07596
3502.47509	0.07600
3500.54642	0.07607
3498.61774	0.07609
3496.68907	0.07608
3494.76039	0.07608
3492.83172	0.07610
3490.90304	0.07611
3488.97436	0.07613
3487.04569	0.07618
3485.11701	0.07626
3483.18834	0.07633
3481.25966	0.07639
3479.33099	0.07646
3477.40231	0.07655
3475.47363	0.07662
3473.54496	0.07670
3471.61628	0.07679
3469.68761	0.07690
3467.75893	0.07700
3465.83026	0.07712
3463.90158	0.07725
3461.97290	0.07740
3460.04423	0.07754
3458.11555	0.07767
3456.18688	0.07778
3454.25820	0.07790
3452.32953	0.07801
3450.40085	0.07808
3448.47217	0.07815
3446.54350	0.07826
3444.61482	0.07840
3442.68615	0.07853
3440.75747	0.07867
3438.82880	0.07887
3436.90012	0.07911
3434.97144	0.07938
3433.04277	0.07963
3431.11409	0.07988
3429.18542	0.08013
3427.25674	0.08039
3425.32807	0.08062
3423.39939	0.08085
3421.47071	0.08109
3419.54204	0.08131
3417.61336	0.08151
3415.68469	0.08170
3413.75601	0.08189
3411.82734	0.08211
3409.89866	0.08233
3407.96998	0.08252
3406.04131	0.08265
3404.11263	0.08278
3402.18396	0.08296
3400.25528	0.08315
3398.32661	0.08331
3396.39793	0.08345
3394.46925	0.08363
3392.54058	0.08383
3390.61190	0.08401
3388.68323	0.08418
3386.75455	0.08435
3384.82588	0.08452
3382.89720	0.08470
3380.96852	0.08490
3379.03985	0.08509
3377.11117	0.08525
3375.18250	0.08539
3373.25382	0.08553
3371.32515	0.08569
3369.39647	0.08585
3367.46779	0.08601
3365.53912	0.08617
3363.61044	0.08632
3361.68177	0.08649
3359.75309	0.08668
3357.82442	0.08689
3355.89574	0.08708
3353.96706	0.08724
3352.03839	0.08737
3350.10971	0.08749
3348.18104	0.08763
3346.25236	0.08779
3344.32369	0.08796
3342.39501	0.08808
3340.46633	0.08820
3338.53766	0.08836
3336.60898	0.08852
3334.68031	0.08868
3332.75163	0.08887
3330.82296	0.08908
3328.89428	0.08928
3326.96560	0.08945
3325.03693	0.08959
3323.10825	0.08971
3321.17958	0.08985
3319.25090	0.09003
3317.32223	0.09022
3315.39355	0.09039
3313.46487	0.09055
3311.53620	0.09072
3309.60752	0.09088
3307.67885	0.09104
3305.75017	0.09120
3303.82150	0.09136
3301.89282	0.09154
3299.96414	0.09173
3298.03547	0.09191
3296.10679	0.09206
3294.17812	0.09221
3292.24944	0.09237
3290.32077	0.09254
3288.39209	0.09272
3286.46341	0.09291
3284.53474	0.09308
3282.60606	0.09325
3280.67739	0.09344
3278.74871	0.09362
3276.82004	0.09380
3274.89136	0.09399
3272.96268	0.09417
3271.03401	0.09432
3269.10533	0.09445
3267.17666	0.09460
3265.24798	0.09475
3263.31931	0.09491
3261.39063	0.09509
3259.46195	0.09527
3257.53328	0.09543
3255.60460	0.09560
3253.67593	0.09579
3251.74725	0.09600
3249.81858	0.09619
3247.88990	0.09638
3245.96122	0.09653
3244.03255	0.09668
3242.10387	0.09686
3240.17520	0.09706
3238.24652	0.09725
3236.31785	0.09742
3234.38917	0.09756
3232.46049	0.09770
3230.53182	0.09786
3228.60314	0.09804
3226.67447	0.09821
3224.74579	0.09837
3222.81712	0.09852
3220.88844	0.09868
3218.95976	0.09884
3217.03109	0.09901
3215.10241	0.09917
3213.17374	0.09932
3211.24506	0.09949
3209.31639	0.09968
3207.38771	0.09987
3205.45903	0.10006
3203.53036	0.10025
3201.60168	0.10041
3199.67301	0.10057
3197.74433	0.10075
3195.81566	0.10093
3193.88698	0.10111
3191.95830	0.10131
3190.02963	0.10152
3188.10095	0.10171
3186.17228	0.10188
3184.24360	0.10205
3182.31493	0.10221
3180.38625	0.10238
3178.45757	0.10257
3176.52890	0.10278
3174.60022	0.10296
3172.67155	0.10313
3170.74287	0.10330
3168.81420	0.10347
3166.88552	0.10363
3164.95684	0.10380
3163.02817	0.10399
3161.09949	0.10416
3159.17082	0.10431
3157.24214	0.10448
3155.31347	0.10466
3153.38479	0.10485
3151.45611	0.10502
3149.52744	0.10518
3147.59876	0.10534
3145.67009	0.10549
3143.74141	0.10566
3141.81274	0.10585
3139.88406	0.10604
3137.95538	0.10620
3136.02671	0.10633
3134.09803	0.10647
3132.16936	0.10667
3130.24068	0.10688
3128.31201	0.10704
3126.38333	0.10718
3124.45465	0.10737
3122.52598	0.10755
3120.59730	0.10769
3118.66863	0.10785
3116.73995	0.10803
3114.81128	0.10819
3112.88260	0.10836
3110.95392	0.10854
3109.02525	0.10872
3107.09657	0.10888
3105.16790	0.10904
3103.23922	0.10921
3101.31055	0.10940
3099.38187	0.10960
3097.45319	0.10977
3095.52452	0.10990
3093.59584	0.11005
3091.66717	0.11024
3089.73849	0.11043
3087.80982	0.11059
3085.88114	0.11074
3083.95246	0.11089
3082.02379	0.11103
3080.09511	0.11116
3078.16644	0.11131
3076.23776	0.11149
3074.30909	0.11169
3072.38041	0.11189
3070.45173	0.11206
3068.52306	0.11222
3066.59438	0.11237
3064.66571	0.11250
3062.73703	0.11262
3060.80836	0.11276
3058.87968	0.11294
3056.95100	0.11314
3055.02233	0.11336
3053.09365	0.11355
3051.16498	0.11369
3049.23630	0.11386
3047.30763	0.11407
3045.37895	0.11422
3043.45027	0.11433
3041.52160	0.11446
3039.59292	0.11462
3037.66425	0.11477
3035.73557	0.11490
3033.80690	0.11506
3031.87822	0.11523
3029.94954	0.11539
3028.02087	0.11552
3026.09219	0.11565
3024.16352	0.11579
3022.23484	0.11595
3020.30617	0.11611
3018.37749	0.11624
3016.44881	0.11636
3014.52014	0.11646
3012.59146	0.11657
3010.66279	0.11669
3008.73411	0.11684
3006.80544	0.11696
3004.87676	0.11704
3002.94808	0.11713
3001.01941	0.11721
2999.09073	0.11727
2997.16206	0.11729
2995.23338	0.11731
2993.30471	0.11733
2991.37603	0.11734
2989.44735	0.11733
2987.51868	0.11726
2985.59000	0.11713
2983.66133	0.11693
2981.73265	0.11667
2979.80398	0.11635
2977.87530	0.11602
2975.94662	0.11568
2974.01795	0.11529
2972.08927	0.11482
2970.16060	0.11430
2968.23192	0.11382
2966.30325	0.11342
2964.37457	0.11316
2962.44589	0.11308
2960.51722	0.11320
2958.58854	0.11352
2956.65987	0.11402
2954.73119	0.11470
2952.80252	0.11552
2950.87384	0.11641
2948.94516	0.11724
2947.01649	0.11796
2945.08781	0.11854
2943.15914	0.11897
2941.23046	0.11927
2939.30179	0.11948
2937.37311	0.11962
2935.44443	0.11970
2933.51576	0.11973
2931.58708	0.11970
2929.65841	0.11963
2927.72973	0.11952
2925.80106	0.11941
2923.87238	0.11936
2921.94370	0.11936
2920.01503	0.11939
2918.08635	0.11948
2916.15768	0.11973
2914.22900	0.12015
2912.30033	0.12065
2910.37165	0.12110
2908.44297	0.12145
2906.51430	0.12171
2904.58562	0.12195
2902.65695	0.12223
2900.72827	0.12255
2898.79960	0.12291
2896.87092	0.12328
2894.94224	0.12363
2893.01357	0.12397
2891.08489	0.12432
2889.15622	0.12464
2887.22754	0.12490
2885.29887	0.12514
2883.37019	0.12539
2881.44151	0.12564
2879.51284	0.12586
2877.58416	0.12605
2875.65549	0.12623
2873.72681	0.12646
2871.79814	0.12673
2869.86946	0.12701
2867.94078	0.12725
2866.01211	0.12745
2864.08343	0.12762
2862.15476	0.12776
2860.22608	0.12788
2858.29741	0.12793
2856.36873	0.12792
2854.44005	0.12790
2852.51138	0.12794
2850.58270	0.12809
2848.65403	0.12845
2846.72535	0.12904
2844.79668	0.12966
2842.86800	0.13018
2840.93932	0.13062
2839.01065	0.13097
2837.08197	0.13125
2835.15330	0.13151
2833.22462	0.13178
2831.29595	0.13203
2829.36727	0.13224
2827.43859	0.13243
2825.50992	0.13262
2823.58124	0.13283
2821.65257	0.13305
2819.72389	0.13325
2817.79522	0.13342
2815.86654	0.13358
2813.93786	0.13376
2812.00919	0.13395
2810.08051	0.13414
2808.15184	0.13432
2806.22316	0.13449
2804.29449	0.13465
2802.36581	0.13481
2800.43713	0.13500
2798.50846	0.13521
2796.57978	0.13544
2794.65111	0.13567
2792.72243	0.13587
2790.79376	0.13603
2788.86508	0.13620
2786.93640	0.13640
2785.00773	0.13660
2783.07905	0.13679
2781.15038	0.13700
2779.22170	0.13721
2777.29303	0.13739
2775.36435	0.13759
2773.43567	0.13780
2771.50700	0.13797
2769.57832	0.13810
2767.64965	0.13824
2765.72097	0.13841
2763.79230	0.13859
2761.86362	0.13878
2759.93494	0.13899
2758.00627	0.13917
2756.07759	0.13932
2754.14892	0.13944
2752.22024	0.13955
2750.29157	0.13969
2748.36289	0.13986
2746.43421	0.14006
2744.50554	0.14027
2742.57686	0.14046
2740.64819	0.14062
2738.71951	0.14076
2736.79084	0.14091
2734.86216	0.14107
2732.93348	0.14123
2731.00481	0.14138
2729.07613	0.14154
2727.14746	0.14169
2725.21878	0.14181
2723.29011	0.14196
2721.36143	0.14216
2719.43275	0.14237
2717.50408	0.14255
2715.57540	0.14268
2713.64673	0.14281
2711.71805	0.14296
2709.78938	0.14311
2707.86070	0.14326
2705.93202	0.14341
2704.00335	0.14360
2702.07467	0.14378
2700.14600	0.14396
2698.21732	0.14410
2696.28865	0.14422
2694.35997	0.14435
2692.43129	0.14449
2690.50262	0.14464
2688.57394	0.14480
2686.64527	0.14497
2684.71659	0.14514
2682.78792	0.14530
2680.85924	0.14546
2678.93056	0.14562
2677.00189	0.14576
2675.07321	0.14591
2673.14454	0.14607
2671.21586	0.14621
2669.28719	0.14631
2667.35851	0.14641
2665.42983	0.14657
2663.50116	0.14677
2661.57248	0.14700
2659.64381	0.14722
2657.71513	0.14736
2655.78646	0.14746
2653.85778	0.14757
2651.92910	0.14772
2650.00043	0.14789
2648.07175	0.14806
2646.14308	0.14826
2644.21440	0.14847
2642.28573	0.14865
2640.35705	0.14881
2638.42837	0.14898
2636.49970	0.14915
2634.57102	0.14934
2632.64235	0.14952
2630.71367	0.14969
2628.78500	0.14986
2626.85632	0.15005
2624.92764	0.15024
2622.99897	0.15039
2621.07029	0.15052
2619.14162	0.15069
2617.21294	0.15088
2615.28427	0.15106
2613.35559	0.15123
2611.42691	0.15140
2609.49824	0.15156
2607.56956	0.15171
2605.64089	0.15187
2603.71221	0.15203
2601.78354	0.15221
2599.85486	0.15236
2597.92618	0.15251
2595.99751	0.15269
2594.06883	0.15287
2592.14016	0.15303
2590.21148	0.15316
2588.28281	0.15329
2586.35413	0.15344
2584.42545	0.15360
2582.49678	0.15378
2580.56810	0.15397
2578.63943	0.15415
2576.71075	0.15430
2574.78208	0.15442
2572.85340	0.15454
2570.92472	0.15469
2568.99605	0.15487
2567.06737	0.15504
2565.13870	0.15520
2563.21002	0.15534
2561.28135	0.15550
2559.35267	0.15568
2557.42399	0.15583
2555.49532	0.15597
2553.56664	0.15611
2551.63797	0.15625
2549.70929	0.15642
2547.78062	0.15661
2545.85194	0.15678
2543.92326	0.15690
2541.99459	0.15702
2540.06591	0.15716
2538.13724	0.15730
2536.20856	0.15746
2534.27989	0.15763
2532.35121	0.15781
2530.42253	0.15798
2528.49386	0.15815
2526.56518	0.15831
2524.63651	0.15845
2522.70783	0.15858
2520.77916	0.15874
2518.85048	0.15894
2516.92181	0.15912
2514.99313	0.15925
2513.06445	0.15938
2511.13578	0.15956
2509.20710	0.15976
2507.27843	0.15994
2505.34975	0.16011
2503.42108	0.16028
2501.49240	0.16043
2499.56372	0.16059
2497.63505	0.16075
2495.70637	0.16089
2493.77770	0.16105
2491.84902	0.16124
2489.92035	0.16142
2487.99167	0.16157
2486.06299	0.16173
2484.13432	0.16191
2482.20564	0.16209
2480.27697	0.16228
2478.34829	0.16245
2476.41962	0.16261
2474.49094	0.16280
2472.56226	0.16299
2470.63359	0.16316
2468.70491	0.16330
2466.77624	0.16345
2464.84756	0.16363
2462.91889	0.16383
2460.99021	0.16401
2459.06153	0.16415
2457.13286	0.16430
2455.20418	0.16447
2453.27551	0.16465
2451.34683	0.16480
2449.41816	0.16495
2447.48948	0.16513
2445.56080	0.16532
2443.63213	0.16548
2441.70345	0.16563
2439.77478	0.16578
2437.84610	0.16593
2435.91743	0.16607
2433.98875	0.16624
2432.06007	0.16639
2430.13140	0.16654
2428.20272	0.16671
2426.27405	0.16689
2424.34537	0.16705
2422.41670	0.16721
2420.48802	0.16739
2418.55934	0.16756
2416.63067	0.16772
2414.70199	0.16789
2412.77332	0.16805
2410.84464	0.16823
2408.91597	0.16838
2406.98729	0.16850
2405.05861	0.16864
2403.12994	0.16881
2401.20126	0.16901
2399.27259	0.16920
2397.34391	0.16937
2395.41524	0.16950
2393.48656	0.16961
2391.55788	0.16974
2389.62921	0.16992
2387.70053	0.17011
2385.77186	0.17027
2383.84318	0.17041
2381.91451	0.17051
2379.98583	0.17052
2378.05715	0.17050
2376.12848	0.17048
2374.19980	0.17049
2372.27113	0.17053
2370.34245	0.17058
2368.41378	0.17062
2366.48510	0.17069
2364.55642	0.17078
2362.62775	0.17088
2360.69907	0.17103
2358.77040	0.17123
2356.84172	0.17145
2354.91305	0.17172
2352.98437	0.17207
2351.05569	0.17243
2349.12702	0.17269
2347.19834	0.17277
2345.26967	0.17277
2343.34099	0.17276
2341.41232	0.17281
2339.48364	0.17294
2337.55496	0.17309
2335.62629	0.17322
2333.69761	0.17332
2331.76894	0.17348
2329.84026	0.17367
2327.91159	0.17390
2325.98291	0.17417
2324.05423	0.17443
2322.12556	0.17465
2320.19688	0.17484
2318.26821	0.17503
2316.33953	0.17526
2314.41086	0.17552
2312.48218	0.17573
2310.55350	0.17589
2308.62483	0.17605
2306.69615	0.17625
2304.76748	0.17645
2302.83880	0.17664
2300.91013	0.17681
2298.98145	0.17700
2297.05277	0.17721
2295.12410	0.17737
2293.19542	0.17746
2291.26675	0.17753
2289.33807	0.17761
2287.40940	0.17773
2285.48072	0.17793
2283.55204	0.17815
2281.62337	0.17833
2279.69469	0.17844
2277.76602	0.17854
2275.83734	0.17867
2273.90867	0.17885
2271.97999	0.17905
2270.05131	0.17921
2268.12264	0.17933
2266.19396	0.17944
2264.26529	0.17954
2262.33661	0.17965
2260.40794	0.17980
2258.47926	0.17994
2256.55058	0.18004
2254.62191	0.18016
2252.69323	0.18029
2250.76456	0.18041
2248.83588	0.18054
2246.90721	0.18065
2244.97853	0.18076
2243.04985	0.18087
2241.12118	0.18098
2239.19250	0.18109
2237.26383	0.18122
2235.33515	0.18135
2233.40648	0.18146
2231.47780	0.18157
2229.54912	0.18168
2227.62045	0.18179
2225.69177	0.18188
2223.76310	0.18199
2221.83442	0.18211
2219.90575	0.18220
2217.97707	0.18230
2216.04839	0.18242
2214.11972	0.18255
2212.19104	0.18266
2210.26237	0.18274
2208.33369	0.18280
2206.40502	0.18287
2204.47634	0.18298
2202.54766	0.18306
2200.61899	0.18312
2198.69031	0.18322
2196.76164	0.18333
2194.83296	0.18340
2192.90429	0.18347
2190.97561	0.18353
2189.04693	0.18359
2187.11826	0.18365
2185.18958	0.18372
2183.26091	0.18379
2181.33223	0.18386
2179.40356	0.18392
2177.47488	0.18400
2175.54620	0.18405
2173.61753	0.18408
2171.68885	0.18412
2169.76018	0.18419
2167.83150	0.18429
2165.90283	0.18438
2163.97415	0.18447
2162.04547	0.18459
2160.11680	0.18473
2158.18812	0.18486
2156.25945	0.18496
2154.33077	0.18505
2152.40210	0.18516
2150.47342	0.18529
2148.54474	0.18544
2146.61607	0.18558
2144.68739	0.18573
2142.75872	0.18586
2140.83004	0.18597
2138.90137	0.18612
2136.97269	0.18632
2135.04401	0.18651
2133.11534	0.18670
2131.18666	0.18693
2129.25799	0.18716
2127.32931	0.18737
2125.40064	0.18757
2123.47196	0.18777
2121.54328	0.18801
2119.61461	0.18828
2117.68593	0.18853
2115.75726	0.18874
2113.82858	0.18895
2111.89991	0.18921
2109.97123	0.18950
2108.04255	0.18980
2106.11388	0.19011
2104.18520	0.19040
2102.25653	0.19065
2100.32785	0.19088
2098.39918	0.19110
2096.47050	0.19132
2094.54182	0.19157
2092.61315	0.19186
2090.68447	0.19213
2088.75580	0.19237
2086.82712	0.19262
2084.89845	0.19288
2082.96977	0.19313
2081.04109	0.19338
2079.11242	0.19360
2077.18374	0.19381
2075.25507	0.19404
2073.32639	0.19432
2071.39772	0.19461
2069.46904	0.19485
2067.54036	0.19502
2065.61169	0.19517
2063.68301	0.19535
2061.75434	0.19553
2059.82566	0.19571
2057.89699	0.19590
2055.96831	0.19607
2054.03963	0.19620
2052.11096	0.19633
2050.18228	0.19647
2048.25361	0.19662
2046.32493	0.19681
2044.39626	0.19699
2042.46758	0.19717
2040.53890	0.19737
2038.61023	0.19759
2036.68155	0.19777
2034.75288	0.19788
2032.82420	0.19798
2030.89553	0.19812
2028.96685	0.19831
2027.03817	0.19849
2025.10950	0.19866
2023.18082	0.19881
2021.25215	0.19896
2019.32347	0.19907
2017.39480	0.19917
2015.46612	0.19930
2013.53744	0.19945
2011.60877	0.19959
2009.68009	0.19972
2007.75142	0.19986
2005.82274	0.20001
2003.89407	0.20016
2001.96539	0.20029
2000.03671	0.20041
1998.10804	0.20053
1996.17936	0.20063
1994.25069	0.20070
1992.32201	0.20081
1990.39334	0.20101
1988.46466	0.20122
1986.53598	0.20138
1984.60731	0.20150
1982.67863	0.20161
1980.74996	0.20174
1978.82128	0.20186
1976.89261	0.20196
1974.96393	0.20205
1973.03525	0.20213
1971.10658	0.20220
1969.17790	0.20224
1967.24923	0.20234
1965.32055	0.20251
1963.39188	0.20269
1961.46320	0.20282
1959.53452	0.20296
1957.60585	0.20309
1955.67717	0.20319
1953.74850	0.20331
1951.81982	0.20345
1949.89115	0.20356
1947.96247	0.20364
1946.03379	0.20371
1944.10512	0.20381
1942.17644	0.20400
1940.24777	0.20423
1938.31909	0.20442
1936.39042	0.20455
1934.46174	0.20467
1932.53306	0.20476
1930.60439	0.20486
1928.67571	0.20501
1926.74704	0.20519
1924.81836	0.20531
1922.88969	0.20540
1920.96101	0.20541
1919.03233	0.20536
1917.10366	0.20552
1915.17498	0.20589
1913.24631	0.20616
1911.31763	0.20625
1909.38896	0.20634
1907.46028	0.20652
1905.53160	0.20671
1903.60293	0.20686
1901.67425	0.20702
1899.74558	0.20717
1897.81690	0.20723
1895.88823	0.20726
1893.95955	0.20737
1892.03087	0.20749
1890.10220	0.20758
1888.17352	0.20773
1886.24485	0.20794
1884.31617	0.20814
1882.38750	0.20831
1880.45882	0.20844
1878.53014	0.20854
1876.60147	0.20864
1874.67279	0.20875
1872.74412	0.20878
1870.81544	0.20867
1868.88677	0.20868
1866.95809	0.20897
1865.02941	0.20929
1863.10074	0.20949
1861.17206	0.20967
1859.24339	0.20987
1857.31471	0.21007
1855.38604	0.21025
1853.45736	0.21039
1851.52868	0.21048
1849.60001	0.21053
1847.67133	0.21053
1845.74266	0.21049
1843.81398	0.21062
1841.88531	0.21097
1839.95663	0.21126
1838.02795	0.21140
1836.09928	0.21155
1834.17060	0.21164
1832.24193	0.21153
1830.31325	0.21142
1828.38458	0.21160
1826.45590	0.21184
1824.52722	0.21201
1822.59855	0.21225
1820.66987	0.21250
1818.74120	0.21264
1816.81252	0.21276
1814.88385	0.21289
1812.95517	0.21291
1811.02649	0.21292
1809.09782	0.21302
1807.16914	0.21317
1805.24047	0.21326
1803.31179	0.21320
1801.38312	0.21310
1799.45444	0.21313
1797.52576	0.21330
1795.59709	0.21333
1793.66841	0.21317
1791.73974	0.21323
1789.81106	0.21361
1787.88239	0.21387
1785.95371	0.21382
1784.02503	0.21378
1782.09636	0.21385
1780.16768	0.21404
1778.23901	0.21427
1776.31033	0.21428
1774.38166	0.21400
1772.45298	0.21382
1770.52430	0.21396
1768.59563	0.21420
1766.66695	0.21445
1764.73828	0.21455
1762.80960	0.21442
1760.88093	0.21444
1758.95225	0.21463
1757.02357	0.21470
1755.09490	0.21464
1753.16622	0.21435
1751.23755	0.21397
1749.30887	0.21388
1747.38020	0.21392
1745.45152	0.21384
1743.52284	0.21372
1741.59417	0.21364
1739.66549	0.21362
1737.73682	0.21344
1735.80814	0.21292
1733.87947	0.21270
1731.95079	0.21313
1730.02211	0.21365
1728.09344	0.21397
1726.16476	0.21414
1724.23609	0.21420
1722.30741	0.21414
1720.37874	0.21385
1718.45006	0.21349
1716.52138	0.21349
1714.59271	0.21390
1712.66403	0.21439
1710.73536	0.21471
1708.80668	0.21478
1706.87801	0.21463
1704.94933	0.21435
1703.02065	0.21379
1701.09198	0.21321
1699.16330	0.21337
1697.23463	0.21402
1695.30595	0.21459
1693.37728	0.21508
1691.44860	0.21532
1689.51992	0.21525
1687.59125	0.21499
1685.66257	0.21458
1683.73390	0.21455
1681.80522	0.21506
1679.87655	0.21551
1677.94787	0.21558
1676.01919	0.21548
1674.09052	0.21548
1672.16184	0.21544
1670.23317	0.21534
1668.30449	0.21552
1666.37582	0.21579
1664.44714	0.21572
1662.51846	0.21566
1660.58979	0.21596
1658.66111	0.21616
1656.73244	0.21577
1654.80376	0.21505
1652.87509	0.21488
1650.94641	0.21530
1649.01773	0.21545
1647.08906	0.21537
1645.16038	0.21567
1643.23171	0.21613
1641.30303	0.21631
1639.37436	0.21609
1637.44568	0.21553
1635.51700	0.21530
1633.58833	0.21580
1631.65965	0.21630
1629.73098	0.21624
1627.80230	0.21597
1625.87363	0.21570
1623.94495	0.21532
1622.01627	0.21498
1620.08760	0.21477
1618.15892	0.21469
1616.23025	0.21519
1614.30157	0.21623
1612.37290	0.21701
1610.44422	0.21726
1608.51554	0.21742
1606.58687	0.21769
1604.65819	0.21798
1602.72952	0.21820
1600.80084	0.21837
1598.87217	0.21849
1596.94349	0.21857
1595.01481	0.21868
1593.08614	0.21888
1591.15746	0.21908
1589.22879	0.21927
1587.30011	0.21945
1585.37144	0.21958
1583.44276	0.21969
1581.51408	0.21979
1579.58541	0.21977
1577.65673	0.21963
1575.72806	0.21970
1573.79938	0.21999
1571.87071	0.22010
1569.94203	0.22008
1568.01335	0.22021
1566.08468	0.22045
1564.15600	0.22050
1562.22733	0.22001
1560.29865	0.21929
1558.36998	0.21932
1556.44130	0.22011
1554.51262	0.22079
1552.58395	0.22111
1550.65527	0.22127
1548.72660	0.22133
1546.79792	0.22120
1544.86925	0.22089
1542.94057	0.22052
1541.01189	0.22027
1539.08322	0.22058
1537.15454	0.22119
1535.22587	0.22136
1533.29719	0.22129
1531.36852	0.22150
1529.43984	0.22165
1527.51116	0.22150
1525.58249	0.22122
1523.65381	0.22080
1521.72514	0.22042
1519.79646	0.22052
1517.86779	0.22093
1515.93911	0.22136
1514.01043	0.22169
1512.08176	0.22164
1510.15308	0.22120
1508.22441	0.22072
1506.29573	0.22073
1504.36706	0.22139
1502.43838	0.22195
1500.50970	0.22186
1498.58103	0.22159
1496.65235	0.22165
1494.72368	0.22183
1492.79500	0.22164
1490.86633	0.22115
1488.93765	0.22088
1487.00897	0.22099
1485.08030	0.22120
1483.15162	0.22116
1481.22295	0.22089
1479.29427	0.22050
1477.36560	0.21995
1475.43692	0.21926
1473.50824	0.21852
1471.57957	0.21807
1469.65089	0.21800
1467.72222	0.21782
1465.79354	0.21734
1463.86487	0.21698
1461.93619	0.21677
1460.00751	0.21616
1458.07884	0.21522
1456.15016	0.21497
1454.22149	0.21554
1452.29281	0.21600
1450.36414	0.21602
1448.43546	0.21595
1446.50678	0.21601
1444.57811	0.21620
1442.64943	0.21640
1440.72076	0.21638
1438.79208	0.21599
1436.86341	0.21567
1434.93473	0.21592
1433.00605	0.21628
1431.07738	0.21628
1429.14870	0.21622
1427.22003	0.21622
1425.29135	0.21611
1423.36268	0.21581
1421.43400	0.21526
1419.50532	0.21469
1417.57665	0.21456
1415.64797	0.21473
1413.71930	0.21479
1411.79062	0.21475
1409.86195	0.21473
1407.93327	0.21471
1406.00459	0.21471
1404.07592	0.21477
1402.14724	0.21476
1400.21857	0.21465
1398.28989	0.21471
1396.36122	0.21493
1394.43254	0.21524
1392.50386	0.21560
1390.57519	0.21564
1388.64651	0.21524
1386.71784	0.21484
1384.78916	0.21476
1382.86049	0.21490
1380.93181	0.21505
1379.00313	0.21508
1377.07446	0.21497
1375.14578	0.21480
1373.21711	0.21469
1371.28843	0.21462
1369.35976	0.21454
1367.43108	0.21442
1365.50240	0.21419
1363.57373	0.21380
1361.64505	0.21350
1359.71638	0.21345
1357.78770	0.21354
1355.85903	0.21361
1353.93035	0.21369
1352.00167	0.21384
1350.07300	0.21405
1348.14432	0.21432
1346.21565	0.21457
1344.28697	0.21469
1342.35830	0.21459
1340.42962	0.21438
1338.50094	0.21428
1336.57227	0.21432
1334.64359	0.21431
1332.71492	0.21418
1330.78624	0.21403
1328.85757	0.21385
1326.92889	0.21361
1325.00021	0.21332
1323.07154	0.21303
1321.14286	0.21276
1319.21419	0.21249
1317.28551	0.21222
1315.35684	0.21193
1313.42816	0.21165
1311.49948	0.21142
1309.57081	0.21114
1307.64213	0.21076
1305.71346	0.21035
1303.78478	0.20996
1301.85611	0.20961
1299.92743	0.20926
1297.99875	0.20889
1296.07008	0.20849
1294.14140	0.20804
1292.21273	0.20761
1290.28405	0.20718
1288.35538	0.20673
1286.42670	0.20619
1284.49802	0.20556
1282.56935	0.20482
1280.64067	0.20396
1278.71200	0.20281
1276.78332	0.20121
1274.85465	0.19917
1272.92597	0.19676
1270.99729	0.19396
1269.06862	0.19075
1267.13994	0.18730
1265.21127	0.18404
1263.28259	0.18142
1261.35392	0.17981
1259.42524	0.17938
1257.49656	0.17993
1255.56789	0.18112
1253.63921	0.18276
1251.71054	0.18479
1249.78186	0.18718
1247.85319	0.18974
1245.92451	0.19217
1243.99583	0.19416
1242.06716	0.19560
1240.13848	0.19643
1238.20981	0.19672
1236.28113	0.19663
1234.35246	0.19629
1232.42378	0.19577
1230.49510	0.19518
1228.56643	0.19459
1226.63775	0.19400
1224.70908	0.19338
1222.78040	0.19281
1220.85173	0.19227
1218.92305	0.19167
1216.99437	0.19098
1215.06570	0.19027
1213.13702	0.18957
1211.20835	0.18888
1209.27967	0.18821
1207.35100	0.18753
1205.42232	0.18680
1203.49364	0.18605
1201.56497	0.18529
1199.63629	0.18449
1197.70762	0.18368
1195.77894	0.18290
1193.85027	0.18210
1191.92159	0.18126
1189.99291	0.18041
1188.06424	0.17950
1186.13556	0.17846
1184.20689	0.17737
1182.27821	0.17627
1180.34954	0.17519
1178.42086	0.17413
1176.49218	0.17304
1174.56351	0.17192
1172.63483	0.17083
1170.70616	0.16970
1168.77748	0.16851
1166.84881	0.16731
1164.92013	0.16613
1162.99145	0.16492
1161.06278	0.16365
1159.13410	0.16240
1157.20543	0.16124
1155.27675	0.16012
1153.34808	0.15895
1151.41940	0.15774
1149.49072	0.15646
1147.56205	0.15513
1145.63337	0.15380
1143.70470	0.15248
1141.77602	0.15110
1139.84735	0.14962
1137.91867	0.14806
1135.98999	0.14639
1134.06132	0.14458
1132.13264	0.14256
1130.20397	0.14028
1128.27529	0.13782
1126.34662	0.13527
1124.41794	0.13263
1122.48926	0.12991
1120.56059	0.12721
1118.63191	0.12461
1116.70324	0.12214
1114.77456	0.11989
1112.84589	0.11796
1110.91721	0.11629
1108.98853	0.11485
1107.05986	0.11366
1105.13118	0.11274
1103.20251	0.11212
1101.27383	0.11175
1099.34516	0.11157
1097.41648	0.11155
1095.48780	0.11168
1093.55913	0.11183
1091.63045	0.11194
1089.70178	0.11202
1087.77310	0.11205
1085.84443	0.11198
1083.91575	0.11184
1081.98707	0.11166
1080.05840	0.11138
1078.12972	0.11100
1076.20105	0.11056
1074.27237	0.11009
1072.34370	0.10965
1070.41502	0.10924
1068.48634	0.10888
1066.55767	0.10861
1064.62899	0.10843
1062.70032	0.10822
1060.77164	0.10794
1058.84297	0.10771
1056.91429	0.10762
1054.98561	0.10759
1053.05694	0.10759
1051.12826	0.10759
1049.19959	0.10761
1047.27091	0.10768
1045.34224	0.10783
1043.41356	0.10801
1041.48488	0.10821
1039.55621	0.10843
1037.62753	0.10867
1035.69886	0.10896
1033.77018	0.10933
1031.84151	0.10977
1029.91283	0.11026
1027.98415	0.11079
1026.05548	0.11136
1024.12680	0.11204
1022.19813	0.11280
1020.26945	0.11360
1018.34078	0.11447
1016.41210	0.11547
1014.48342	0.11660
1012.55475	0.11779
1010.62607	0.11900
1008.69740	0.12023
1006.76872	0.12155
1004.84005	0.12294
1002.91137	0.12430
1000.98269	0.12554
999.05402	0.12668
997.12534	0.12778
995.19667	0.12881
993.26799	0.12980
991.33932	0.13081
989.41064	0.13180
987.48196	0.13271
985.55329	0.13359
983.62461	0.13446
981.69594	0.13524
979.76726	0.13594
977.83859	0.13659
975.90991	0.13719
973.98123	0.13777
972.05256	0.13834
970.12388	0.13885
968.19521	0.13927
966.26653	0.13963
964.33786	0.13999
962.40918	0.14028
960.48050	0.14049
958.55183	0.14072
956.62315	0.14099
954.69448	0.14120
952.76580	0.14129
950.83713	0.14130
948.90845	0.14127
946.97977	0.14117
945.05110	0.14099
943.12242	0.14076
941.19375	0.14045
939.26507	0.14006
937.33640	0.13966
935.40772	0.13923
933.47904	0.13867
931.55037	0.13803
929.62169	0.13744
927.69302	0.13684
925.76434	0.13618
923.83567	0.13542
921.90699	0.13457
919.97831	0.13360
918.04964	0.13261
916.12096	0.13165
914.19229	0.13064
912.26361	0.12954
910.33494	0.12847
908.40626	0.12755
906.47758	0.12671
904.54891	0.12590
902.62023	0.12511
900.69156	0.12439
898.76288	0.12380
896.83421	0.12328
894.90553	0.12275
892.97685	0.12214
891.04818	0.12153
889.11950	0.12099
887.19083	0.12045
885.26215	0.11990
883.33348	0.11941
881.40480	0.11899
879.47612	0.11857
877.54745	0.11807
875.61877	0.11751
873.69010	0.11702
871.76142	0.11661
869.83275	0.11620
867.90407	0.11574
865.97539	0.11520
864.04672	0.11464
862.11804	0.11410
860.18937	0.11354
858.26069	0.11291
856.33202	0.11218
854.40334	0.11132
852.47466	0.11034
850.54599	0.10926
848.61731	0.10807
846.68864	0.10686
844.75996	0.10585
842.83129	0.10518
840.90261	0.10472
838.97394	0.10437
837.04526	0.10417
835.11658	0.10405
833.18791	0.10385
831.25923	0.10358
829.33056	0.10324
827.40188	0.10279
825.47321	0.10225
823.54453	0.10161
821.61585	0.10090
819.68718	0.10018
817.75850	0.09944
815.82983	0.09870
813.90115	0.09796
811.97248	0.09722
810.04380	0.09648
808.11512	0.09576
806.18645	0.09509
804.25777	0.09450
802.32910	0.09396
800.40042	0.09339
798.47175	0.09276
796.54307	0.09224
794.61439	0.09198
792.68572	0.09201
790.75704	0.09226
788.82837	0.09261
786.89969	0.09289
784.97102	0.09303
783.04234	0.09310
781.11366	0.09319
779.18499	0.09334
777.25631	0.09349
775.32764	0.09364
773.39896	0.09377
771.47029	0.09387
769.54161	0.09396
767.61293	0.09402
765.68426	0.09400
763.75558	0.09387
761.82691	0.09375
759.89823	0.09372
757.96956	0.09369
756.04088	0.09362
754.11220	0.09352
752.18353	0.09341
750.25485	0.09329
748.32618	0.09318
746.39750	0.09299
744.46883	0.09257
742.54015	0.09199
740.61147	0.09151
738.68280	0.09128
736.75412	0.09135
734.82545	0.09160
732.89677	0.09184
730.96810	0.09206
729.03942	0.09229
727.11074	0.09252
725.18207	0.09277
723.25339	0.09299
721.32472	0.09317
719.39604	0.09339
717.46737	0.09367
715.53869	0.09406
713.61001	0.09455
711.68134	0.09503
709.75266	0.09536
707.82399	0.09546
705.89531	0.09536
703.96664	0.09522
702.03796	0.09506
700.10928	0.09471
698.18061	0.09414
696.25193	0.09348
694.32326	0.09287
692.39458	0.09237
690.46591	0.09195
688.53723	0.09155
686.60855	0.09113
684.67988	0.09071
682.75120	0.09030
680.82253	0.08984
678.89385	0.08932
676.96518	0.08876
675.03650	0.08820
673.10782	0.08761
671.17915	0.08688
669.25047	0.08609
667.32180	0.08536
665.39312	0.08469
663.46445	0.08396
661.53577	0.08309
659.60709	0.08217
657.67842	0.08129
655.74974	0.08047
653.82107	0.07970
651.89239	0.07896
649.96372	0.07821
648.03504	0.07739
646.10636	0.07649
644.17769	0.07552
642.24901	0.07457
640.32034	0.07360
638.39166	0.07260
636.46299	0.07155
634.53431	0.07037
632.60563	0.06889
630.67696	0.06656
628.74828	0.06296
626.81961	0.05847
624.89093	0.05400
622.96226	0.05052
621.03358	0.04839
619.10490	0.04721
617.17623	0.04642
615.24755	0.04563
613.31888	0.04464
611.39020	0.04362
609.46153	0.04305
607.53285	0.04314
605.60417	0.04361
603.67550	0.04420
601.74682	0.04500
599.81815	0.04602
597.88947	0.04695
595.96080	0.04754
594.03212	0.04782
592.10344	0.04801
590.17477	0.04818
588.24609	0.04823
586.31742	0.04808
584.38874	0.04778
582.46007	0.04741
580.53139	0.04699
578.60271	0.04646
576.67404	0.04589
574.74536	0.04541
572.81669	0.04492
570.88801	0.04426
568.95934	0.04357
567.03066	0.04310
565.10198	0.04274
563.17331	0.04237
561.24463	0.04207
559.31596	0.04189
557.38728	0.04168
555.45861	0.04140
553.52993	0.04119
551.60125	0.04103
549.67258	0.04083
547.74390	0.04055
545.81523	0.04026
543.88655	0.04013
541.95788	0.04017
540.02920	0.04018
538.10052	0.04000
536.17185	0.03974
534.24317	0.03955
532.31450	0.03932
530.38582	0.03898
528.45715	0.03863
526.52847	0.03832
524.59979	0.03802
522.67112	0.03775
520.74244	0.03739
518.81377	0.03682
516.88509	0.03610
514.95642	0.03545
513.02774	0.03502
511.09906	0.03487
509.17039	0.03476
507.24171	0.03453
505.31304	0.03419
503.38436	0.03379
501.45569	0.03337
499.52701	0.03293
497.59833	0.03243
495.66966	0.03192
493.74098	0.03136
491.81231	0.03066
489.88363	0.02991
487.95496	0.02931
486.02628	0.02886
484.09760	0.02840
482.16893	0.02789
480.24025	0.02734
478.31158	0.02672
476.38290	0.02600
474.45423	0.02533
472.52555	0.02483
470.59687	0.02440
468.66820	0.02397
466.73952	0.02360
464.81085	0.02334
462.88217	0.02317
460.95350	0.02304
459.02482	0.02292
457.09614	0.02289
455.16747	0.02296
453.23879	0.02294
451.31012	0.02280
449.38144	0.02264
447.45277	0.02248
445.52409	0.02231
443.59541	0.02213
441.66674	0.02179
439.73806	0.02131
437.80939	0.02091
435.88071	0.02065
433.95204	0.02024
432.02336	0.01957
430.09468	0.01883
428.16601	0.01812
426.23733	0.01750
424.30866	0.01704
422.37998	0.01656
420.45131	0.01582
418.52263	0.01495
416.59395	0.01418
414.66528	0.01351
412.73660	0.01294
410.80793	0.01243
408.87925	0.01190
406.95058	0.01133
405.02190	0.01073
403.09322	0.01004
401.16455	0.00932
399.23587	0.00875
397.30720	0.00839
395.37852	0.00804
393.44985	0.00760
391.52117	0.00711
389.59249	0.00659
387.66382	0.00604
385.73514	0.00554
383.80647	0.00509
381.87779	0.00467
379.94912	0.00428
378.02044	0.00393
376.09176	0.00363
374.16309	0.00338
372.23441	0.00314
370.30574	0.00295
368.37706	0.00274
