7496.76250	0.00123
7494.83382	0.00124
7492.90514	0.00124
7490.97647	0.00125
7489.04779	0.00125
7487.11912	0.00125
7485.19044	0.00125
7483.26177	0.00126
7481.33309	0.00128
7479.40441	0.00129
7477.47574	0.00129
7475.54706	0.00128
7473.61839	0.00127
7471.68971	0.00127
7469.76104	0.00128
7467.83236	0.00129
7465.90368	0.00129
7463.97501	0.00129
7462.04633	0.00129
7460.11766	0.00129
7458.18898	0.00130
7456.26031	0.00131
7454.33163	0.00131
7452.40295	0.00133
7450.47428	0.00134
7448.54560	0.00134
7446.61693	0.00134
7444.68825	0.00133
7442.75958	0.00133
7440.83090	0.00132
7438.90222	0.00133
7436.97355	0.00134
7435.04487	0.00134
7433.11620	0.00134
7431.18752	0.00133
7429.25885	0.00134
7427.33017	0.00135
7425.40149	0.00135
7423.47282	0.00135
7421.54414	0.00136
7419.61547	0.00137
7417.68679	0.00138
7415.75812	0.00138
7413.82944	0.00137
7411.90076	0.00136
7409.97209	0.00135
7408.04341	0.00135
7406.11474	0.00136
7404.18606	0.00138
7402.25739	0.00141
7400.32871	0.00142
7398.40003	0.00142
7396.47136	0.00142
7394.54268	0.00141
7392.61401	0.00141
7390.68533	0.00143
7388.75666	0.00143
7386.82798	0.00143
7384.89930	0.00142
7382.97063	0.00142
7381.04195	0.00142
7379.11328	0.00141
7377.18460	0.00141
7375.25593	0.00143
7373.32725	0.00144
7371.39857	0.00144
7369.46990	0.00146
7367.54122	0.00147
7365.61255	0.00149
7363.68387	0.00149
7361.75520	0.00148
7359.82652	0.00149
7357.89784	0.00149
7355.96917	0.00149
7354.04049	0.00148
7352.11182	0.00148
7350.18314	0.00150
7348.25447	0.00152
7346.32579	0.00153
7344.39711	0.00152
7342.46844	0.00151
7340.53976	0.00151
7338.61109	0.00152
7336.68241	0.00152
7334.75374	0.00152
7332.82506	0.00152
7330.89638	0.00154
7328.96771	0.00152
7327.03903	0.00151
7325.11036	0.00152
7323.18168	0.00154
7321.25301	0.00155
7319.32433	0.00155
7317.39565	0.00155
7315.46698	0.00155
7313.53830	0.00154
7311.60963	0.00155
7309.68095	0.00156
7307.75228	0.00157
7305.82360	0.00157
7303.89492	0.00157
7301.96625	0.00156
7300.03757	0.00155
7298.10890	0.00156
7296.18022	0.00158
7294.25155	0.00160
7292.32287	0.00161
7290.39419	0.00161
7288.46552	0.00161
7286.53684	0.00160
7284.60817	0.00159
7282.67949	0.00159
7280.75082	0.00160
7278.82214	0.00161
7276.89346	0.00162
7274.96479	0.00164
7273.03611	0.00164
7271.10744	0.00164
7269.17876	0.00164
7267.25009	0.00165
7265.32141	0.00165
7263.39273	0.00164
7261.46406	0.00164
7259.53538	0.00164
7257.60671	0.00165
7255.67803	0.00166
7253.74936	0.00167
7251.82068	0.00168
7249.89200	0.00168
7247.96333	0.00169
7246.03465	0.00169
7244.10598	0.00168
7242.17730	0.00167
7240.24863	0.00167
7238.31995	0.00167
7236.39127	0.00168
7234.46260	0.00169
7232.53392	0.00169
7230.60525	0.00169
7228.67657	0.00169
7226.74790	0.00171
7224.81922	0.00173
7222.89054	0.00174
7220.96187	0.00173
7219.03319	0.00171
7217.10452	0.00173
7215.17584	0.00175
7213.24717	0.00176
7211.31849	0.00176
7209.38981	0.00176
7207.46114	0.00175
7205.53246	0.00174
7203.60379	0.00174
7201.67511	0.00175
7199.74644	0.00177
7197.81776	0.00178
7195.88908	0.00178
7193.96041	0.00180
7192.03173	0.00181
7190.10306	0.00181
7188.17438	0.00180
7186.24571	0.00181
7184.31703	0.00184
7182.38835	0.00185
7180.45968	0.00185
7178.53100	0.00185
7176.60233	0.00185
7174.67365	0.00184
7172.74498	0.00184
7170.81630	0.00184
7168.88762	0.00183
7166.95895	0.00183
7165.03027	0.00184
7163.10160	0.00185
7161.17292	0.00186
7159.24425	0.00185
7157.31557	0.00186
7155.38689	0.00187
7153.45822	0.00188
7151.52954	0.00188
7149.60087	0.00188
7147.67219	0.00187
7145.74352	0.00186
7143.81484	0.00187
7141.88616	0.00189
7139.95749	0.00191
7138.02881	0.00190
7136.10014	0.00190
7134.17146	0.00191
7132.24279	0.00192
7130.31411	0.00194
7128.38543	0.00194
7126.45676	0.00194
7124.52808	0.00194
7122.59941	0.00193
7120.67073	0.00192
7118.74206	0.00192
7116.81338	0.00192
7114.88470	0.00193
7112.95603	0.00196
7111.02735	0.00199
7109.09868	0.00200
7107.17000	0.00200
7105.24133	0.00199
7103.31265	0.00199
7101.38397	0.00199
7099.45530	0.00199
7097.52662	0.00200
7095.59795	0.00200
7093.66927	0.00200
7091.74060	0.00201
7089.81192	0.00203
7087.88324	0.00203
7085.95457	0.00203
7084.02589	0.00202
7082.09722	0.00203
7080.16854	0.00203
7078.23987	0.00204
7076.31119	0.00204
7074.38251	0.00204
7072.45384	0.00204
7070.52516	0.00206
7068.59649	0.00208
7066.66781	0.00209
7064.73914	0.00210
7062.81046	0.00209
7060.88178	0.00208
7058.95311	0.00207
7057.02443	0.00209
7055.09576	0.00210
7053.16708	0.00211
7051.23841	0.00212
7049.30973	0.00213
7047.38105	0.00212
7045.45238	0.00211
7043.52370	0.00210
7041.59503	0.00211
7039.66635	0.00212
7037.73768	0.00212
7035.80900	0.00212
7033.88032	0.00213
7031.95165	0.00214
7030.02297	0.00214
7028.09430	0.00214
7026.16562	0.00215
7024.23695	0.00215
7022.30827	0.00215
7020.37959	0.00216
7018.45092	0.00217
7016.52224	0.00218
7014.59357	0.00220
7012.66489	0.00221
7010.73622	0.00222
7008.80754	0.00221
7006.87886	0.00221
7004.95019	0.00221
7003.02151	0.00222
7001.09284	0.00223
6999.16416	0.00224
6997.23549	0.00224
6995.30681	0.00224
6993.37813	0.00224
6991.44946	0.00223
6989.52078	0.00224
6987.59211	0.00226
6985.66343	0.00227
6983.73476	0.00228
6981.80608	0.00228
6979.87740	0.00229
6977.94873	0.00229
6976.02005	0.00228
6974.09138	0.00228
6972.16270	0.00229
6970.23403	0.00230
6968.30535	0.00230
6966.37667	0.00229
6964.44800	0.00231
6962.51932	0.00233
6960.59065	0.00234
6958.66197	0.00234
6956.73330	0.00233
6954.80462	0.00233
6952.87594	0.00233
6950.94727	0.00233
6949.01859	0.00233
6947.08992	0.00234
6945.16124	0.00237
6943.23257	0.00239
6941.30389	0.00239
6939.37521	0.00238
6937.44654	0.00238
6935.51786	0.00238
6933.58919	0.00237
6931.66051	0.00237
6929.73184	0.00237
6927.80316	0.00239
6925.87448	0.00241
6923.94581	0.00242
6922.01713	0.00244
6920.08846	0.00244
6918.15978	0.00244
6916.23111	0.00244
6914.30243	0.00245
6912.37375	0.00246
6910.44508	0.00246
6908.51640	0.00245
6906.58773	0.00245
6904.65905	0.00246
6902.73038	0.00247
6900.80170	0.00247
6898.87302	0.00248
6896.94435	0.00250
6895.01567	0.00252
6893.08700	0.00252
6891.15832	0.00251
6889.22965	0.00252
6887.30097	0.00253
6885.37229	0.00253
6883.44362	0.00252
6881.51494	0.00253
6879.58627	0.00255
6877.65759	0.00256
6875.72892	0.00256
6873.80024	0.00256
6871.87156	0.00257
6869.94289	0.00256
6868.01421	0.00256
6866.08554	0.00256
6864.15686	0.00257
6862.22819	0.00256
6860.29951	0.00256
6858.37083	0.00258
6856.44216	0.00259
6854.51348	0.00260
6852.58481	0.00259
6850.65613	0.00260
6848.72746	0.00262
6846.79878	0.00263
6844.87010	0.00263
6842.94143	0.00264
6841.01275	0.00265
6839.08408	0.00264
6837.15540	0.00265
6835.22673	0.00266
6833.29805	0.00267
6831.36937	0.00268
6829.44070	0.00267
6827.51202	0.00266
6825.58335	0.00267
6823.65467	0.00269
6821.72600	0.00270
6819.79732	0.00272
6817.86864	0.00273
6815.93997	0.00273
6814.01129	0.00274
6812.08262	0.00274
6810.15394	0.00275
6808.22527	0.00275
6806.29659	0.00276
6804.36791	0.00276
6802.43924	0.00277
6800.51056	0.00277
6798.58189	0.00277
6796.65321	0.00278
6794.72454	0.00277
6792.79586	0.00278
6790.86718	0.00279
6788.93851	0.00282
6787.00983	0.00283
6785.08116	0.00284
6783.15248	0.00285
6781.22381	0.00284
6779.29513	0.00283
6777.36645	0.00283
6775.43778	0.00284
6773.50910	0.00284
6771.58043	0.00285
6769.65175	0.00288
6767.72308	0.00290
6765.79440	0.00290
6763.86572	0.00289
6761.93705	0.00288
6760.00837	0.00290
6758.07970	0.00292
6756.15102	0.00292
6754.22235	0.00291
6752.29367	0.00290
6750.36499	0.00291
6748.43632	0.00291
6746.50764	0.00291
6744.57897	0.00291
6742.65029	0.00293
6740.72162	0.00295
6738.79294	0.00296
6736.86426	0.00296
6734.93559	0.00297
6733.00691	0.00298
6731.07824	0.00299
6729.14956	0.00300
6727.22089	0.00300
6725.29221	0.00301
6723.36353	0.00302
6721.43486	0.00302
6719.50618	0.00300
6717.57751	0.00300
6715.64883	0.00300
6713.72016	0.00301
6711.79148	0.00302
6709.86280	0.00304
6707.93413	0.00306
6706.00545	0.00307
6704.07678	0.00308
6702.14810	0.00308
6700.21943	0.00308
6698.29075	0.00309
6696.36207	0.00311
6694.43340	0.00312
6692.50472	0.00313
6690.57605	0.00312
6688.64737	0.00311
6686.71870	0.00310
6684.79002	0.00311
6682.86134	0.00313
6680.93267	0.00315
6679.00399	0.00316
6677.07532	0.00316
6675.14664	0.00317
6673.21797	0.00319
6671.28929	0.00320
6669.36061	0.00321
6667.43194	0.00321
6665.50326	0.00322
6663.57459	0.00323
6661.64591	0.00324
6659.71724	0.00324
6657.78856	0.00323
6655.85988	0.00323
6653.93121	0.00324
6652.00253	0.00326
6650.07386	0.00327
6648.14518	0.00328
6646.21651	0.00329
6644.28783	0.00331
6642.35915	0.00331
6640.43048	0.00332
6638.50180	0.00332
6636.57313	0.00331
6634.64445	0.00331
6632.71578	0.00331
6630.78710	0.00332
6628.85842	0.00334
6626.92975	0.00335
6625.00107	0.00336
6623.07240	0.00336
6621.14372	0.00337
6619.21505	0.00338
6617.28637	0.00337
6615.35769	0.00336
6613.42902	0.00338
6611.50034	0.00341
6609.57167	0.00341
6607.64299	0.00340
6605.71432	0.00340
6603.78564	0.00341
6601.85696	0.00342
6599.92829	0.00343
6597.99961	0.00344
6596.07094	0.00344
6594.14226	0.00346
6592.21359	0.00348
6590.28491	0.00349
6588.35623	0.00350
6586.42756	0.00351
6584.49888	0.00351
6582.57021	0.00351
6580.64153	0.00353
6578.71286	0.00355
6576.78418	0.00356
6574.85550	0.00355
6572.92683	0.00352
6570.99815	0.00353
6569.06948	0.00356
6567.14080	0.00358
6565.21213	0.00359
6563.28345	0.00359
6561.35477	0.00359
6559.42610	0.00360
6557.49742	0.00361
6555.56875	0.00362
6553.64007	0.00363
6551.71140	0.00364
6549.78272	0.00365
6547.85404	0.00366
6545.92537	0.00367
6543.99669	0.00368
6542.06802	0.00369
6540.13934	0.00368
6538.21067	0.00368
6536.28199	0.00369
6534.35331	0.00370
6532.42464	0.00371
6530.49596	0.00370
6528.56729	0.00369
6526.63861	0.00369
6524.70994	0.00371
6522.78126	0.00373
6520.85258	0.00376
6518.92391	0.00379
6516.99523	0.00380
6515.06656	0.00381
6513.13788	0.00381
6511.20921	0.00382
6509.28053	0.00383
6507.35185	0.00384
6505.42318	0.00385
6503.49450	0.00385
6501.56583	0.00385
6499.63715	0.00385
6497.70848	0.00385
6495.77980	0.00386
6493.85112	0.00386
6491.92245	0.00386
6489.99377	0.00387
6488.06510	0.00389
6486.13642	0.00390
6484.20775	0.00391
6482.27907	0.00391
6480.35039	0.00392
6478.42172	0.00394
6476.49304	0.00396
6474.56437	0.00397
6472.63569	0.00396
6470.70702	0.00396
6468.77834	0.00399
6466.84966	0.00401
6464.92099	0.00402
6462.99231	0.00403
6461.06364	0.00404
6459.13496	0.00405
6457.20629	0.00404
6455.27761	0.00405
6453.34893	0.00406
6451.42026	0.00407
6449.49158	0.00407
6447.56291	0.00408
6445.63423	0.00411
6443.70556	0.00412
6441.77688	0.00412
6439.84820	0.00413
6437.91953	0.00413
6435.99085	0.00412
6434.06218	0.00413
6432.13350	0.00415
6430.20483	0.00416
6428.27615	0.00416
6426.34747	0.00416
6424.41880	0.00417
6422.49012	0.00419
6420.56145	0.00423
6418.63277	0.00425
6416.70410	0.00426
6414.77542	0.00426
6412.84674	0.00424
6410.91807	0.00423
6408.98939	0.00424
6407.06072	0.00426
6405.13204	0.00428
6403.20337	0.00431
6401.27469	0.00432
6399.34601	0.00433
6397.41734	0.00434
6395.48866	0.00436
6393.55999	0.00436
6391.63131	0.00435
6389.70264	0.00434
6387.77396	0.00437
6385.84528	0.00440
6383.91661	0.00442
6381.98793	0.00444
6380.05926	0.00445
6378.13058	0.00445
6376.20191	0.00446
6374.27323	0.00447
6372.34455	0.00447
6370.41588	0.00447
6368.48720	0.00449
6366.55853	0.00450
6364.62985	0.00450
6362.70118	0.00450
6360.77250	0.00451
6358.84382	0.00452
6356.91515	0.00453
6354.98647	0.00453
6353.05780	0.00452
6351.12912	0.00452
6349.20045	0.00452
6347.27177	0.00453
6345.34309	0.00456
6343.41442	0.00460
6341.48574	0.00463
6339.55707	0.00466
6337.62839	0.00466
6335.69972	0.00466
6333.77104	0.00466
6331.84236	0.00465
6329.91369	0.00467
6327.98501	0.00469
6326.05634	0.00471
6324.12766	0.00472
6322.19899	0.00474
6320.27031	0.00475
6318.34163	0.00475
6316.41296	0.00475
6314.48428	0.00476
6312.55561	0.00479
6310.62693	0.00482
6308.69826	0.00484
6306.76958	0.00485
6304.84090	0.00485
6302.91223	0.00485
6300.98355	0.00485
6299.05488	0.00485
6297.12620	0.00484
6295.19753	0.00486
6293.26885	0.00487
6291.34017	0.00489
6289.41150	0.00490
6287.48282	0.00490
6285.55415	0.00492
6283.62547	0.00494
6281.69680	0.00496
6279.76812	0.00497
6277.83944	0.00498
6275.91077	0.00498
6273.98209	0.00498
6272.05342	0.00499
6270.12474	0.00500
6268.19607	0.00502
6266.26739	0.00504
6264.33871	0.00507
6262.41004	0.00508
6260.48136	0.00508
6258.55269	0.00508
6256.62401	0.00509
6254.69534	0.00510
6252.76666	0.00512
6250.83798	0.00513
6248.90931	0.00513
6246.98063	0.00513
6245.05196	0.00514
6243.12328	0.00515
6241.19461	0.00515
6239.26593	0.00516
6237.33725	0.00519
6235.40858	0.00521
6233.47990	0.00522
6231.55123	0.00523
6229.62255	0.00526
6227.69388	0.00528
6225.76520	0.00529
6223.83652	0.00528
6221.90785	0.00528
6219.97917	0.00528
6218.05050	0.00529
6216.12182	0.00531
6214.19315	0.00533
6212.26447	0.00533
6210.33579	0.00533
6208.40712	0.00534
6206.47844	0.00537
6204.54977	0.00540
6202.62109	0.00543
6200.69242	0.00545
6198.76374	0.00546
6196.83506	0.00546
6194.90639	0.00545
6192.97771	0.00545
6191.04904	0.00546
6189.12036	0.00548
6187.19169	0.00551
6185.26301	0.00553
6183.33433	0.00554
6181.40566	0.00555
6179.47698	0.00555
6177.54831	0.00555
6175.61963	0.00557
6173.69096	0.00561
6171.76228	0.00564
6169.83360	0.00565
6167.90493	0.00566
6165.97625	0.00567
6164.04758	0.00567
6162.11890	0.00568
6160.19023	0.00568
6158.26155	0.00570
6156.33287	0.00571
6154.40420	0.00572
6152.47552	0.00573
6150.54685	0.00575
6148.61817	0.00575
6146.68950	0.00576
6144.76082	0.00577
6142.83214	0.00580
6140.90347	0.00581
6138.97479	0.00582
6137.04612	0.00584
6135.11744	0.00585
6133.18877	0.00585
6131.26009	0.00585
6129.33141	0.00587
6127.40274	0.00588
6125.47406	0.00589
6123.54539	0.00591
6121.61671	0.00592
6119.68804	0.00594
6117.75936	0.00596
6115.83068	0.00599
6113.90201	0.00600
6111.97333	0.00600
6110.04466	0.00601
6108.11598	0.00602
6106.18731	0.00603
6104.25863	0.00604
6102.32995	0.00605
6100.40128	0.00607
6098.47260	0.00608
6096.54393	0.00609
6094.61525	0.00611
6092.68658	0.00613
6090.75790	0.00614
6088.82922	0.00614
6086.90055	0.00614
6084.97187	0.00616
6083.04320	0.00619
6081.11452	0.00622
6079.18585	0.00623
6077.25717	0.00624
6075.32849	0.00625
6073.39982	0.00625
6071.47114	0.00626
6069.54247	0.00628
6067.61379	0.00630
6065.68512	0.00632
6063.75644	0.00634
6061.82776	0.00636
6059.89909	0.00638
6057.97041	0.00638
6056.04174	0.00638
6054.11306	0.00638
6052.18439	0.00640
6050.25571	0.00643
6048.32703	0.00645
6046.39836	0.00645
6044.46968	0.00646
6042.54101	0.00649
6040.61233	0.00651
6038.68366	0.00652
6036.75498	0.00652
6034.82630	0.00651
6032.89763	0.00652
6030.96895	0.00655
6029.04028	0.00658
6027.11160	0.00660
6025.18293	0.00661
6023.25425	0.00663
6021.32557	0.00665
6019.39690	0.00665
6017.46822	0.00666
6015.53955	0.00668
6013.61087	0.00670
6011.68220	0.00673
6009.75352	0.00675
6007.82484	0.00675
6005.89617	0.00675
6003.96749	0.00678
6002.03882	0.00681
6000.11014	0.00683
5998.18147	0.00685
5996.25279	0.00687
5994.32411	0.00688
5992.39544	0.00689
5990.46676	0.00691
5988.53809	0.00691
5986.60941	0.00691
5984.68074	0.00692
5982.75206	0.00695
5980.82338	0.00697
5978.89471	0.00696
5976.96603	0.00695
5975.03736	0.00695
5973.10868	0.00697
5971.18001	0.00702
5969.25133	0.00704
5967.32265	0.00704
5965.39398	0.00704
5963.46530	0.00705
5961.53663	0.00709
5959.60795	0.00713
5957.67928	0.00716
5955.75060	0.00717
5953.82192	0.00718
5951.89325	0.00719
5949.96457	0.00721
5948.03590	0.00721
5946.10722	0.00722
5944.17855	0.00725
5942.24987	0.00728
5940.32119	0.00730
5938.39252	0.00730
5936.46384	0.00731
5934.53517	0.00733
5932.60649	0.00737
5930.67782	0.00740
5928.74914	0.00743
5926.82046	0.00744
5924.89179	0.00744
5922.96311	0.00745
5921.03444	0.00746
5919.10576	0.00746
5917.17709	0.00748
5915.24841	0.00751
5913.31973	0.00753
5911.39106	0.00754
5909.46238	0.00756
5907.53371	0.00757
5905.60503	0.00755
5903.67636	0.00756
5901.74768	0.00759
5899.81900	0.00761
5897.89033	0.00762
5895.96165	0.00764
5894.03298	0.00767
5892.10430	0.00769
5890.17563	0.00771
5888.24695	0.00772
5886.31827	0.00774
5884.38960	0.00776
5882.46092	0.00777
5880.53225	0.00779
5878.60357	0.00782
5876.67490	0.00786
5874.74622	0.00788
5872.81755	0.00788
5870.88887	0.00787
5868.96019	0.00789
5867.03152	0.00792
5865.10284	0.00793
5863.17417	0.00795
5861.24549	0.00797
5859.31682	0.00801
5857.38814	0.00803
5855.45946	0.00804
5853.53079	0.00804
5851.60211	0.00804
5849.67344	0.00805
5847.74476	0.00809
5845.81609	0.00812
5843.88741	0.00815
5841.95873	0.00817
5840.03006	0.00819
5838.10138	0.00820
5836.17271	0.00821
5834.24403	0.00822
5832.31536	0.00823
5830.38668	0.00825
5828.45800	0.00827
5826.52933	0.00828
5824.60065	0.00830
5822.67198	0.00832
5820.74330	0.00836
5818.81463	0.00838
5816.88595	0.00839
5814.95727	0.00839
5813.02860	0.00841
5811.09992	0.00844
5809.17125	0.00847
5807.24257	0.00850
5805.31390	0.00852
5803.38522	0.00853
5801.45654	0.00853
5799.52787	0.00855
5797.59919	0.00858
5795.67052	0.00861
5793.74184	0.00863
5791.81317	0.00863
5789.88449	0.00866
5787.95581	0.00869
5786.02714	0.00869
5784.09846	0.00871
5782.16979	0.00876
5780.24111	0.00879
5778.31244	0.00880
5776.38376	0.00881
5774.45508	0.00882
5772.52641	0.00884
5770.59773	0.00885
5768.66906	0.00887
5766.74038	0.00889
5764.81171	0.00891
5762.88303	0.00892
5760.95435	0.00893
5759.02568	0.00896
5757.09700	0.00899
5755.16833	0.00901
5753.23965	0.00902
5751.31098	0.00903
5749.38230	0.00904
5747.45362	0.00907
5745.52495	0.00909
5743.59627	0.00911
5741.66760	0.00915
5739.73892	0.00919
5737.81025	0.00921
5735.88157	0.00922
5733.95289	0.00924
5732.02422	0.00924
5730.09554	0.00925
5728.16687	0.00927
5726.23819	0.00932
5724.30952	0.00935
5722.38084	0.00938
5720.45216	0.00941
5718.52349	0.00942
5716.59481	0.00941
5714.66614	0.00940
5712.73746	0.00941
5710.80879	0.00945
5708.88011	0.00949
5706.95143	0.00952
5705.02276	0.00953
5703.09408	0.00955
5701.16541	0.00957
5699.23673	0.00959
5697.30806	0.00962
5695.37938	0.00965
5693.45070	0.00967
5691.52203	0.00968
5689.59335	0.00969
5687.66468	0.00971
5685.73600	0.00973
5683.80733	0.00975
5681.87865	0.00978
5679.94997	0.00981
5678.02130	0.00981
5676.09262	0.00982
5674.16395	0.00984
5672.23527	0.00986
5670.30660	0.00990
5668.37792	0.00995
5666.44924	0.00998
5664.52057	0.01000
5662.59189	0.01001
5660.66322	0.01002
5658.73454	0.01003
5656.80587	0.01005
5654.87719	0.01007
5652.94851	0.01009
5651.01984	0.01010
5649.09116	0.01014
5647.16249	0.01017
5645.23381	0.01020
5643.30514	0.01022
5641.37646	0.01024
5639.44778	0.01026
5637.51911	0.01030
5635.59043	0.01032
5633.66176	0.01032
5631.73308	0.01033
5629.80441	0.01035
5627.87573	0.01039
5625.94705	0.01042
5624.01838	0.01044
5622.08970	0.01045
5620.16103	0.01046
5618.23235	0.01048
5616.30368	0.01052
5614.37500	0.01056
5612.44632	0.01059
5610.51765	0.01061
5608.58897	0.01061
5606.66030	0.01062
5604.73162	0.01065
5602.80295	0.01067
5600.87427	0.01068
5598.94559	0.01071
5597.01692	0.01074
5595.08824	0.01077
5593.15957	0.01080
5591.23089	0.01083
5589.30222	0.01085
5587.37354	0.01085
5585.44486	0.01086
5583.51619	0.01088
5581.58751	0.01092
5579.65884	0.01096
5577.73016	0.01098
5575.80149	0.01100
5573.87281	0.01102
5571.94413	0.01102
5570.01546	0.01103
5568.08678	0.01106
5566.15811	0.01109
5564.22943	0.01112
5562.30076	0.01116
5560.37208	0.01118
5558.44340	0.01120
5556.51473	0.01122
5554.58605	0.01125
5552.65738	0.01128
5550.72870	0.01129
5548.80003	0.01132
5546.87135	0.01137
5544.94267	0.01141
5543.01400	0.01144
5541.08532	0.01146
5539.15665	0.01148
5537.22797	0.01149
5535.29930	0.01148
5533.37062	0.01149
5531.44194	0.01153
5529.51327	0.01157
5527.58459	0.01159
5525.65592	0.01161
5523.72724	0.01164
5521.79857	0.01167
5519.86989	0.01169
5517.94121	0.01170
5516.01254	0.01171
5514.08386	0.01174
5512.15519	0.01179
5510.22651	0.01183
5508.29784	0.01185
5506.36916	0.01186
5504.44048	0.01186
5502.51181	0.01186
5500.58313	0.01189
5498.65446	0.01194
5496.72578	0.01198
5494.79711	0.01201
5492.86843	0.01202
5490.93975	0.01205
5489.01108	0.01208
5487.08240	0.01211
5485.15373	0.01213
5483.22505	0.01217
5481.29638	0.01220
5479.36770	0.01223
5477.43902	0.01226
5475.51035	0.01227
5473.58167	0.01228
5471.65300	0.01230
5469.72432	0.01233
5467.79565	0.01235
5465.86697	0.01237
5463.93829	0.01239
5462.00962	0.01241
5460.08094	0.01243
5458.15227	0.01246
5456.22359	0.01250
5454.29492	0.01254
5452.36624	0.01255
5450.43756	0.01258
5448.50889	0.01261
5446.58021	0.01262
5444.65154	0.01264
5442.72286	0.01267
5440.79419	0.01271
5438.86551	0.01273
5436.93683	0.01275
5435.00816	0.01276
5433.07948	0.01280
5431.15081	0.01284
5429.22213	0.01286
5427.29346	0.01289
5425.36478	0.01293
5423.43610	0.01296
5421.50743	0.01298
5419.57875	0.01302
5417.65008	0.01306
5415.72140	0.01307
5413.79273	0.01306
5411.86405	0.01308
5409.93537	0.01312
5408.00670	0.01317
5406.07802	0.01321
5404.14935	0.01323
5402.22067	0.01327
5400.29200	0.01330
5398.36332	0.01332
5396.43464	0.01332
5394.50597	0.01334
5392.57729	0.01338
5390.64862	0.01342
5388.71994	0.01344
5386.79127	0.01345
5384.86259	0.01347
5382.93391	0.01351
5381.00524	0.01353
5379.07656	0.01355
5377.14789	0.01358
5375.21921	0.01363
5373.29054	0.01367
5371.36186	0.01369
5369.43318	0.01370
5367.50451	0.01373
5365.57583	0.01376
5363.64716	0.01378
5361.71848	0.01380
5359.78981	0.01382
5357.86113	0.01386
5355.93245	0.01389
5354.00378	0.01391
5352.07510	0.01394
5350.14643	0.01397
5348.21775	0.01399
5346.28908	0.01402
5344.36040	0.01404
5342.43172	0.01407
5340.50305	0.01410
5338.57437	0.01411
5336.64570	0.01414
5334.71702	0.01419
5332.78835	0.01424
5330.85967	0.01427
5328.93099	0.01428
5327.00232	0.01429
5325.07364	0.01432
5323.14497	0.01437
5321.21629	0.01443
5319.28762	0.01447
5317.35894	0.01448
5315.43026	0.01450
5313.50159	0.01454
5311.57291	0.01457
5309.64424	0.01458
5307.71556	0.01459
5305.78689	0.01463
5303.85821	0.01467
5301.92953	0.01471
5300.00086	0.01474
5298.07218	0.01476
5296.14351	0.01478
5294.21483	0.01482
5292.28616	0.01486
5290.35748	0.01490
5288.42880	0.01492
5286.50013	0.01494
5284.57145	0.01497
5282.64278	0.01500
5280.71410	0.01502
5278.78543	0.01504
5276.85675	0.01506
5274.92807	0.01509
5272.99940	0.01510
5271.07072	0.01511
5269.14205	0.01514
5267.21337	0.01518
5265.28470	0.01521
5263.35602	0.01524
5261.42734	0.01529
5259.49867	0.01534
5257.56999	0.01537
5255.64132	0.01537
5253.71264	0.01539
5251.78397	0.01542
5249.85529	0.01546
5247.92661	0.01550
5245.99794	0.01554
5244.06926	0.01557
5242.14059	0.01561
5240.21191	0.01563
5238.28324	0.01566
5236.35456	0.01569
5234.42588	0.01573
5232.49721	0.01577
5230.56853	0.01580
5228.63986	0.01582
5226.71118	0.01584
5224.78251	0.01587
5222.85383	0.01590
5220.92515	0.01592
5218.99648	0.01595
5217.06780	0.01599
5215.13913	0.01601
5213.21045	0.01605
5211.28178	0.01609
5209.35310	0.01613
5207.42442	0.01615
5205.49575	0.01617
5203.56707	0.01619
5201.63840	0.01622
5199.70972	0.01627
5197.78105	0.01632
5195.85237	0.01633
5193.92369	0.01635
5191.99502	0.01638
5190.06634	0.01642
5188.13767	0.01645
5186.20899	0.01648
5184.28032	0.01650
5182.35164	0.01654
5180.42296	0.01659
5178.49429	0.01662
5176.56561	0.01664
5174.63694	0.01667
5172.70826	0.01670
5170.77959	0.01673
5168.85091	0.01676
5166.92223	0.01680
5164.99356	0.01683
5163.06488	0.01686
5161.13621	0.01691
5159.20753	0.01695
5157.27886	0.01698
5155.35018	0.01699
5153.42150	0.01702
5151.49283	0.01706
5149.56415	0.01708
5147.63548	0.01711
5145.70680	0.01715
5143.77813	0.01719
5141.84945	0.01723
5139.92077	0.01726
5137.99210	0.01729
5136.06342	0.01731
5134.13475	0.01733
5132.20607	0.01736
5130.27740	0.01741
5128.34872	0.01743
5126.42004	0.01746
5124.49137	0.01751
5122.56269	0.01755
5120.63402	0.01756
5118.70534	0.01759
5116.77667	0.01764
5114.84799	0.01770
5112.91931	0.01774
5110.99064	0.01776
5109.06196	0.01779
5107.13329	0.01783
5105.20461	0.01785
5103.27594	0.01787
5101.34726	0.01791
5099.41858	0.01798
5097.48991	0.01802
5095.56123	0.01803
5093.63256	0.01804
5091.70388	0.01808
5089.77521	0.01814
5087.84653	0.01817
5085.91785	0.01819
5083.98918	0.01821
5082.06050	0.01824
5080.13183	0.01828
5078.20315	0.01832
5076.27448	0.01835
5074.34580	0.01838
5072.41712	0.01842
5070.48845	0.01845
5068.55977	0.01848
5066.63110	0.01851
5064.70242	0.01854
5062.77375	0.01855
5060.84507	0.01857
5058.91639	0.01861
5056.98772	0.01866
5055.05904	0.01872
5053.13037	0.01876
5051.20169	0.01879
5049.27302	0.01882
5047.34434	0.01886
5045.41566	0.01890
5043.48699	0.01892
5041.55831	0.01893
5039.62964	0.01895
5037.70096	0.01900
5035.77229	0.01904
5033.84361	0.01908
5031.91493	0.01912
5029.98626	0.01916
5028.05758	0.01920
5026.12891	0.01924
5024.20023	0.01928
5022.27156	0.01931
5020.34288	0.01934
5018.41420	0.01936
5016.48553	0.01939
5014.55685	0.01943
5012.62818	0.01948
5010.69950	0.01953
5008.77083	0.01956
5006.84215	0.01959
5004.91347	0.01962
5002.98480	0.01966
5001.05612	0.01972
4999.12745	0.01977
4997.19877	0.01980
4995.27010	0.01982
4993.34142	0.01985
4991.41274	0.01988
4989.48407	0.01991
4987.55539	0.01995
4985.62672	0.02000
4983.69804	0.02005
4981.76937	0.02008
4979.84069	0.02010
4977.91201	0.02013
4975.98334	0.02016
4974.05466	0.02020
4972.12599	0.02024
4970.19731	0.02027
4968.26864	0.02031
4966.33996	0.02036
4964.41128	0.02039
4962.48261	0.02041
4960.55393	0.02045
4958.62526	0.02049
4956.69658	0.02052
4954.76791	0.02055
4952.83923	0.02060
4950.91055	0.02064
4948.98188	0.02068
4947.05320	0.02071
4945.12453	0.02075
4943.19585	0.02078
4941.26718	0.02083
4939.33850	0.02087
4937.40982	0.02090
4935.48115	0.02095
4933.55247	0.02100
4931.62380	0.02103
4929.69512	0.02107
4927.76645	0.02112
4925.83777	0.02116
4923.90909	0.02118
4921.98042	0.02121
4920.05174	0.02126
4918.12307	0.02129
4916.19439	0.02132
4914.26572	0.02136
4912.33704	0.02139
4910.40836	0.02144
4908.47969	0.02148
4906.55101	0.02151
4904.62234	0.02154
4902.69366	0.02157
4900.76499	0.02162
4898.83631	0.02168
4896.90763	0.02171
4894.97896	0.02173
4893.05028	0.02176
4891.12161	0.02180
4889.19293	0.02183
4887.26426	0.02187
4885.33558	0.02192
4883.40690	0.02197
4881.47823	0.02202
4879.54955	0.02206
4877.62088	0.02208
4875.69220	0.02211
4873.76353	0.02214
4871.83485	0.02218
4869.90617	0.02223
4867.97750	0.02228
4866.04882	0.02231
4864.12015	0.02235
4862.19147	0.02240
4860.26280	0.02243
4858.33412	0.02246
4856.40544	0.02251
4854.47677	0.02256
4852.54809	0.02260
4850.61942	0.02263
4848.69074	0.02266
4846.76207	0.02268
4844.83339	0.02271
4842.90471	0.02277
4840.97604	0.02283
4839.04736	0.02286
4837.11869	0.02290
4835.19001	0.02294
4833.26134	0.02299
4831.33266	0.02303
4829.40398	0.02307
4827.47531	0.02309
4825.54663	0.02311
4823.61796	0.02314
4821.68928	0.02321
4819.76061	0.02329
4817.83193	0.02334
4815.90325	0.02336
4813.97458	0.02341
4812.04590	0.02346
4810.11723	0.02349
4808.18855	0.02350
4806.25988	0.02353
4804.33120	0.02357
4802.40252	0.02360
4800.47385	0.02363
4798.54517	0.02366
4796.61650	0.02372
4794.68782	0.02379
4792.75915	0.02385
4790.83047	0.02389
4788.90179	0.02392
4786.97312	0.02396
4785.04444	0.02399
4783.11577	0.02402
4781.18709	0.02406
4779.25842	0.02412
4777.32974	0.02418
4775.40106	0.02422
4773.47239	0.02424
4771.54371	0.02428
4769.61504	0.02433
4767.68636	0.02438
4765.75769	0.02443
4763.82901	0.02448
4761.90033	0.02452
4759.97166	0.02456
4758.04298	0.02460
4756.11431	0.02465
4754.18563	0.02469
4752.25696	0.02473
4750.32828	0.02477
4748.39960	0.02482
4746.47093	0.02486
4744.54225	0.02489
4742.61358	0.02493
4740.68490	0.02497
4738.75623	0.02503
4736.82755	0.02510
4734.89887	0.02516
4732.97020	0.02519
4731.04152	0.02520
4729.11285	0.02522
4727.18417	0.02526
4725.25550	0.02530
4723.32682	0.02535
4721.39814	0.02540
4719.46947	0.02545
4717.54079	0.02550
4715.61212	0.02555
4713.68344	0.02559
4711.75477	0.02562
4709.82609	0.02567
4707.89741	0.02573
4705.96874	0.02580
4704.04006	0.02587
4702.11139	0.02590
4700.18271	0.02593
4698.25404	0.02598
4696.32536	0.02603
4694.39668	0.02607
4692.46801	0.02612
4690.53933	0.02618
4688.61066	0.02622
4686.68198	0.02624
4684.75331	0.02628
4682.82463	0.02635
4680.89595	0.02642
4678.96728	0.02646
4677.03860	0.02647
4675.10993	0.02649
4673.18125	0.02654
4671.25258	0.02659
4669.32390	0.02665
4667.39522	0.02671
4665.46655	0.02677
4663.53787	0.02681
4661.60920	0.02685
4659.68052	0.02690
4657.75185	0.02694
4655.82317	0.02697
4653.89449	0.02701
4651.96582	0.02707
4650.03714	0.02714
4648.10847	0.02719
4646.17979	0.02723
4644.25112	0.02728
4642.32244	0.02733
4640.39376	0.02737
4638.46509	0.02743
4636.53641	0.02747
4634.60774	0.02750
4632.67906	0.02755
4630.75039	0.02763
4628.82171	0.02771
4626.89303	0.02778
4624.96436	0.02784
4623.03568	0.02788
4621.10701	0.02789
4619.17833	0.02790
4617.24966	0.02794
4615.32098	0.02801
4613.39230	0.02808
4611.46363	0.02814
4609.53495	0.02820
4607.60628	0.02825
4605.67760	0.02828
4603.74893	0.02833
4601.82025	0.02840
4599.89157	0.02845
4597.96290	0.02849
4596.03422	0.02852
4594.10555	0.02857
4592.17687	0.02864
4590.24820	0.02868
4588.31952	0.02872
4586.39084	0.02876
4584.46217	0.02883
4582.53349	0.02891
4580.60482	0.02897
4578.67614	0.02901
4576.74747	0.02905
4574.81879	0.02912
4572.89011	0.02917
4570.96144	0.02921
4569.03276	0.02926
4567.10409	0.02930
4565.17541	0.02933
4563.24674	0.02938
4561.31806	0.02943
4559.38938	0.02947
4557.46071	0.02954
4555.53203	0.02962
4553.60336	0.02968
4551.67468	0.02971
4549.74601	0.02977
4547.81733	0.02983
4545.88865	0.02988
4543.95998	0.02993
4542.03130	0.02999
4540.10263	0.03007
4538.17395	0.03014
4536.24528	0.03018
4534.31660	0.03022
4532.38792	0.03027
4530.45925	0.03033
4528.53057	0.03040
4526.60190	0.03046
4524.67322	0.03050
4522.74455	0.03053
4520.81587	0.03058
4518.88719	0.03067
4516.95852	0.03076
4515.02984	0.03082
4513.10117	0.03087
4511.17249	0.03093
4509.24382	0.03097
4507.31514	0.03100
4505.38646	0.03104
4503.45779	0.03109
4501.52911	0.03113
4499.60044	0.03117
4497.67176	0.03122
4495.74309	0.03129
4493.81441	0.03135
4491.88573	0.03142
4489.95706	0.03149
4488.02838	0.03157
4486.09971	0.03163
4484.17103	0.03167
4482.24236	0.03173
4480.31368	0.03181
4478.38500	0.03189
4476.45633	0.03193
4474.52765	0.03196
4472.59898	0.03202
4470.67030	0.03208
4468.74163	0.03213
4466.81295	0.03218
4464.88427	0.03225
4462.95560	0.03231
4461.02692	0.03237
4459.09825	0.03243
4457.16957	0.03250
4455.24090	0.03255
4453.31222	0.03259
4451.38354	0.03265
4449.45487	0.03274
4447.52619	0.03282
4445.59752	0.03286
4443.66884	0.03289
4441.74017	0.03294
4439.81149	0.03301
4437.88281	0.03308
4435.95414	0.03313
4434.02546	0.03318
4432.09679	0.03325
4430.16811	0.03331
4428.23944	0.03338
4426.31076	0.03345
4424.38208	0.03351
4422.45341	0.03356
4420.52473	0.03363
4418.59606	0.03370
4416.66738	0.03377
4414.73871	0.03385
4412.81003	0.03392
4410.88135	0.03398
4408.95268	0.03403
4407.02400	0.03408
4405.09533	0.03415
4403.16665	0.03422
4401.23798	0.03428
4399.30930	0.03435
4397.38062	0.03441
4395.45195	0.03448
4393.52327	0.03454
4391.59460	0.03461
4389.66592	0.03468
4387.73725	0.03473
4385.80857	0.03477
4383.87989	0.03481
4381.95122	0.03488
4380.02254	0.03496
4378.09387	0.03504
4376.16519	0.03510
4374.23652	0.03516
4372.30784	0.03522
4370.37916	0.03530
4368.45049	0.03537
4366.52181	0.03544
4364.59314	0.03551
4362.66446	0.03558
4360.73579	0.03564
4358.80711	0.03569
4356.87843	0.03574
4354.94976	0.03581
4353.02108	0.03589
4351.09241	0.03597
4349.16373	0.03604
4347.23506	0.03611
4345.30638	0.03619
4343.37770	0.03626
4341.44903	0.03633
4339.52035	0.03640
4337.59168	0.03648
4335.66300	0.03655
4333.73433	0.03661
4331.80565	0.03667
4329.87697	0.03674
4327.94830	0.03682
4326.01962	0.03690
4324.09095	0.03696
4322.16227	0.03702
4320.23360	0.03708
4318.30492	0.03716
4316.37624	0.03723
4314.44757	0.03728
4312.51889	0.03734
4310.59022	0.03743
4308.66154	0.03753
4306.73287	0.03761
4304.80419	0.03769
4302.87551	0.03775
4300.94684	0.03782
4299.01816	0.03788
4297.08949	0.03795
4295.16081	0.03803
4293.23214	0.03811
4291.30346	0.03818
4289.37478	0.03823
4287.44611	0.03830
4285.51743	0.03839
4283.58876	0.03845
4281.66008	0.03852
4279.73141	0.03862
4277.80273	0.03873
4275.87405	0.03883
4273.94538	0.03890
4272.01670	0.03897
4270.08803	0.03905
4268.15935	0.03913
4266.23068	0.03918
4264.30200	0.03923
4262.37332	0.03930
4260.44465	0.03939
4258.51597	0.03948
4256.58730	0.03955
4254.65862	0.03961
4252.72995	0.03969
4250.80127	0.03978
4248.87259	0.03984
4246.94392	0.03989
4245.01524	0.03995
4243.08657	0.04003
4241.15789	0.04012
4239.22922	0.04020
4237.30054	0.04027
4235.37186	0.04034
4233.44319	0.04041
4231.51451	0.04047
4229.58584	0.04055
4227.65716	0.04064
4225.72849	0.04072
4223.79981	0.04078
4221.87113	0.04086
4219.94246	0.04093
4218.01378	0.04102
4216.08511	0.04113
4214.15643	0.04120
4212.22776	0.04126
4210.29908	0.04135
4208.37040	0.04144
4206.44173	0.04151
4204.51305	0.04159
4202.58438	0.04168
4200.65570	0.04178
4198.72703	0.04188
4196.79835	0.04197
4194.86968	0.04206
4192.94100	0.04212
4191.01232	0.04218
4189.08365	0.04225
4187.15497	0.04236
4185.22630	0.04245
4183.29762	0.04252
4181.36895	0.04257
4179.44027	0.04265
4177.51159	0.04275
4175.58292	0.04286
4173.65424	0.04295
4171.72557	0.04303
4169.79689	0.04311
4167.86822	0.04321
4165.93954	0.04333
4164.01086	0.04343
4162.08219	0.04349
4160.15351	0.04355
4158.22484	0.04362
4156.29616	0.04370
4154.36749	0.04381
4152.43881	0.04391
4150.51013	0.04398
4148.58146	0.04404
4146.65278	0.04413
4144.72411	0.04422
4142.79543	0.04430
4140.86676	0.04437
4138.93808	0.04445
4137.00940	0.04455
4135.08073	0.04464
4133.15205	0.04471
4131.22338	0.04479
4129.29470	0.04488
4127.36603	0.04498
4125.43735	0.04508
4123.50867	0.04518
4121.58000	0.04527
4119.65132	0.04536
4117.72265	0.04545
4115.79397	0.04554
4113.86530	0.04564
4111.93662	0.04574
4110.00794	0.04582
4108.07927	0.04588
4106.15059	0.04595
4104.22192	0.04604
4102.29324	0.04614
4100.36457	0.04625
4098.43589	0.04636
4096.50721	0.04645
4094.57854	0.04652
4092.64986	0.04660
4090.72119	0.04671
4088.79251	0.04683
4086.86384	0.04693
4084.93516	0.04700
4083.00648	0.04707
4081.07781	0.04717
4079.14913	0.04728
4077.22046	0.04736
4075.29178	0.04743
4073.36311	0.04752
4071.43443	0.04762
4069.50575	0.04772
4067.57708	0.04783
4065.64840	0.04793
4063.71973	0.04802
4061.79105	0.04810
4059.86238	0.04820
4057.93370	0.04830
4056.00502	0.04841
4054.07635	0.04850
4052.14767	0.04857
4050.21900	0.04864
4048.29032	0.04873
4046.36165	0.04884
4044.43297	0.04894
4042.50429	0.04904
4040.57562	0.04914
4038.64694	0.04923
4036.71827	0.04931
4034.78959	0.04939
4032.86092	0.04949
4030.93224	0.04958
4029.00356	0.04969
4027.07489	0.04980
4025.14621	0.04989
4023.21754	0.04996
4021.28886	0.05004
4019.36019	0.05013
4017.43151	0.05024
4015.50283	0.05035
4013.57416	0.05045
4011.64548	0.05053
4009.71681	0.05064
4007.78813	0.05075
4005.85946	0.05086
4003.93078	0.05098
4002.00210	0.05109
4000.07343	0.05120
3998.14475	0.05131
3996.21608	0.05142
3994.28740	0.05150
3992.35873	0.05158
3990.43005	0.05168
3988.50137	0.05179
3986.57270	0.05190
3984.64402	0.05201
3982.71535	0.05211
3980.78667	0.05222
3978.85800	0.05232
3976.92932	0.05241
3975.00064	0.05251
3973.07197	0.05260
3971.14329	0.05270
3969.21462	0.05282
3967.28594	0.05293
3965.35727	0.05301
3963.42859	0.05309
3961.49991	0.05320
3959.57124	0.05333
3957.64256	0.05344
3955.71389	0.05352
3953.78521	0.05359
3951.85654	0.05366
3949.92786	0.05375
3947.99918	0.05387
3946.07051	0.05401
3944.14183	0.05410
3942.21316	0.05419
3940.28448	0.05433
3938.35581	0.05446
3936.42713	0.05456
3934.49845	0.05464
3932.56978	0.05472
3930.64110	0.05482
3928.71243	0.05494
3926.78375	0.05501
3924.85508	0.05508
3922.92640	0.05520
3920.99772	0.05531
3919.06905	0.05538
3917.14037	0.05547
3915.21170	0.05562
3913.28302	0.05578
3911.35435	0.05592
3909.42567	0.05601
3907.49699	0.05602
3905.56832	0.05597
3903.63964	0.05597
3901.71097	0.05610
3899.78229	0.05629
3897.85362	0.05652
3895.92494	0.05673
3893.99626	0.05684
3892.06759	0.05688
3890.13891	0.05698
3888.21024	0.05705
3886.28156	0.05706
3884.35289	0.05717
3882.42421	0.05732
3880.49553	0.05746
3878.56686	0.05764
3876.63818	0.05780
3874.70951	0.05786
3872.78083	0.05788
3870.85216	0.05791
3868.92348	0.05804
3866.99480	0.05820
3865.06613	0.05830
3863.13745	0.05842
3861.20878	0.05861
3859.28010	0.05876
3857.35143	0.05872
3855.42275	0.05849
3853.49407	0.05844
3851.56540	0.05878
3849.63672	0.05923
3847.70805	0.05949
3845.77937	0.05957
3843.85070	0.05959
3841.92202	0.05961
3839.99334	0.05963
3838.06467	0.05969
3836.13599	0.05983
3834.20732	0.06004
3832.27864	0.06025
3830.34997	0.06045
3828.42129	0.06060
3826.49261	0.06070
3824.56394	0.06073
3822.63526	0.06072
3820.70659	0.06078
3818.77791	0.06094
3816.84924	0.06109
3814.92056	0.06129
3812.99188	0.06155
3811.06321	0.06171
3809.13453	0.06174
3807.20586	0.06176
3805.27718	0.06184
3803.34851	0.06190
3801.41983	0.06195
3799.49115	0.06212
3797.56248	0.06231
3795.63380	0.06249
3793.70513	0.06268
3791.77645	0.06282
3789.84778	0.06295
3787.91910	0.06309
3785.99042	0.06319
3784.06175	0.06329
3782.13307	0.06337
3780.20440	0.06343
3778.27572	0.06356
3776.34705	0.06374
3774.41837	0.06386
3772.48969	0.06388
3770.56102	0.06391
3768.63234	0.06401
3766.70367	0.06416
3764.77499	0.06432
3762.84632	0.06446
3760.91764	0.06451
3758.98896	0.06456
3757.06029	0.06469
3755.13161	0.06476
3753.20294	0.06473
3751.27426	0.06470
3749.34559	0.06482
3747.41691	0.06490
3745.48823	0.06487
3743.55956	0.06506
3741.63088	0.06546
3739.70221	0.06566
3737.77353	0.06561
3735.84486	0.06558
3733.91618	0.06573
3731.98750	0.06600
3730.05883	0.06629
3728.13015	0.06647
3726.20148	0.06657
3724.27280	0.06669
3722.34413	0.06682
3720.41545	0.06697
3718.48677	0.06714
3716.55810	0.06724
3714.62942	0.06722
3712.70075	0.06715
3710.77207	0.06720
3708.84340	0.06744
3706.91472	0.06770
3704.98604	0.06784
3703.05737	0.06785
3701.12869	0.06791
3699.20002	0.06806
3697.27134	0.06820
3695.34267	0.06826
3693.41399	0.06825
3691.48531	0.06818
3689.55664	0.06818
3687.62796	0.06838
3685.69929	0.06868
3683.77061	0.06890
3681.84194	0.06900
3679.91326	0.06899
3677.98458	0.06888
3676.05591	0.06882
3674.12723	0.06897
3672.19856	0.06914
3670.26988	0.06925
3668.34121	0.06947
3666.41253	0.06979
3664.48385	0.07002
3662.55518	0.07014
3660.62650	0.07022
3658.69783	0.07023
3656.76915	0.07023
3654.84048	0.07028
3652.91180	0.07025
3650.98312	0.07007
3649.05445	0.06999
3647.12577	0.07022
3645.19710	0.07062
3643.26842	0.07096
3641.33975	0.07116
3639.41107	0.07128
3637.48239	0.07138
3635.55372	0.07142
3633.62504	0.07142
3631.69637	0.07135
3629.76769	0.07127
3627.83902	0.07141
3625.91034	0.07171
3623.98166	0.07191
3622.05299	0.07193
3620.12431	0.07189
3618.19564	0.07194
3616.26696	0.07205
3614.33829	0.07212
3612.40961	0.07217
3610.48093	0.07222
3608.55226	0.07231
3606.62358	0.07249
3604.69491	0.07267
3602.76623	0.07278
3600.83756	0.07285
3598.90888	0.07292
3596.98020	0.07293
3595.05153	0.07297
3593.12285	0.07307
3591.19418	0.07314
3589.26550	0.07312
3587.33683	0.07317
3585.40815	0.07340
3583.47947	0.07361
3581.55080	0.07371
3579.62212	0.07377
3577.69345	0.07386
3575.76477	0.07399
3573.83610	0.07410
3571.90742	0.07414
3569.97874	0.07409
3568.05007	0.07405
3566.12139	0.07418
3564.19272	0.07443
3562.26404	0.07462
3560.33537	0.07473
3558.40669	0.07480
3556.47801	0.07483
3554.54934	0.07486
3552.62066	0.07493
3550.69199	0.07503
3548.76331	0.07511
3546.83464	0.07516
3544.90596	0.07523
3542.97728	0.07532
3541.04861	0.07541
3539.11993	0.07550
3537.19126	0.07557
3535.26258	0.07562
3533.33391	0.07565
3531.40523	0.07567
3529.47655	0.07570
3527.54788	0.07576
3525.61920	0.07582
3523.69053	0.07588
3521.76185	0.07593
3519.83318	0.07597
3517.90450	0.07600
3515.97582	0.07606
3514.04715	0.07612
3512.11847	0.07616
3510.18980	0.07620
3508.26112	0.07624
3506.33245	0.07626
3504.40377	0.07626
3502.47509	0.07629
3500.54642	0.07636
3498.61774	0.07641
3496.68907	0.07642
3494.76039	0.07645
3492.83172	0.07648
3490.90304	0.07650
3488.97436	0.07651
3487.04569	0.07652
3485.11701	0.07654
3483.18834	0.07659
3481.25966	0.07666
3479.33099	0.07672
3477.40231	0.07679
3475.47363	0.07689
3473.54496	0.07701
3471.61628	0.07713
3469.68761	0.07724
3467.75893	0.07736
3465.83026	0.07749
3463.90158	0.07760
3461.97290	0.07771
3460.04423	0.07783
3458.11555	0.07795
3456.18688	0.07809
3454.25820	0.07822
3452.32953	0.07833
3450.40085	0.07844
3448.47217	0.07855
3446.54350	0.07866
3444.61482	0.07877
3442.68615	0.07890
3440.75747	0.07908
3438.82880	0.07931
3436.90012	0.07954
3434.97144	0.07974
3433.04277	0.07995
3431.11409	0.08019
3429.18542	0.08043
3427.25674	0.08069
3425.32807	0.08093
3423.39939	0.08117
3421.47071	0.08140
3419.54204	0.08162
3417.61336	0.08184
3415.68469	0.08206
3413.75601	0.08226
3411.82734	0.08247
3409.89866	0.08266
3407.96998	0.08283
3406.04131	0.08299
3404.11263	0.08314
3402.18396	0.08330
3400.25528	0.08348
3398.32661	0.08366
3396.39793	0.08385
3394.46925	0.08402
3392.54058	0.08417
3390.61190	0.08433
3388.68323	0.08450
3386.75455	0.08468
3384.82588	0.08489
3382.89720	0.08509
3380.96852	0.08526
3379.03985	0.08542
3377.11117	0.08558
3375.18250	0.08574
3373.25382	0.08588
3371.32515	0.08603
3369.39647	0.08618
3367.46779	0.08634
3365.53912	0.08650
3363.61044	0.08667
3361.68177	0.08684
3359.75309	0.08702
3357.82442	0.08719
3355.89574	0.08735
3353.96706	0.08752
3352.03839	0.08771
3350.10971	0.08788
3348.18104	0.08803
3346.25236	0.08820
3344.32369	0.08837
3342.39501	0.08853
3340.46633	0.08868
3338.53766	0.08882
3336.60898	0.08897
3334.68031	0.08910
3332.75163	0.08923
3330.82296	0.08941
3328.89428	0.08960
3326.96560	0.08978
3325.03693	0.08994
3323.10825	0.09010
3321.17958	0.09027
3319.25090	0.09043
3317.32223	0.09057
3315.39355	0.09073
3313.46487	0.09090
3311.53620	0.09107
3309.60752	0.09124
3307.67885	0.09143
3305.75017	0.09163
3303.82150	0.09180
3301.89282	0.09195
3299.96414	0.09212
3298.03547	0.09229
3296.10679	0.09244
3294.17812	0.09259
3292.24944	0.09277
3290.32077	0.09295
3288.39209	0.09313
3286.46341	0.09330
3284.53474	0.09346
3282.60606	0.09363
3280.67739	0.09380
3278.74871	0.09398
3276.82004	0.09417
3274.89136	0.09437
3272.96268	0.09455
3271.03401	0.09469
3269.10533	0.09484
3267.17666	0.09502
3265.24798	0.09520
3263.31931	0.09536
3261.39063	0.09553
3259.46195	0.09573
3257.53328	0.09594
3255.60460	0.09614
3253.67593	0.09629
3251.74725	0.09642
3249.81858	0.09658
3247.88990	0.09677
3245.96122	0.09695
3244.03255	0.09713
3242.10387	0.09732
3240.17520	0.09748
3238.24652	0.09763
3236.31785	0.09777
3234.38917	0.09792
3232.46049	0.09813
3230.53182	0.09836
3228.60314	0.09855
3226.67447	0.09869
3224.74579	0.09881
3222.81712	0.09895
3220.88844	0.09910
3218.95976	0.09926
3217.03109	0.09944
3215.10241	0.09965
3213.17374	0.09986
3211.24506	0.10003
3209.31639	0.10019
3207.38771	0.10037
3205.45903	0.10057
3203.53036	0.10074
3201.60168	0.10089
3199.67301	0.10106
3197.74433	0.10126
3195.81566	0.10147
3193.88698	0.10166
3191.95830	0.10183
3190.02963	0.10199
3188.10095	0.10216
3186.17228	0.10235
3184.24360	0.10253
3182.31493	0.10271
3180.38625	0.10287
3178.45757	0.10302
3176.52890	0.10318
3174.60022	0.10338
3172.67155	0.10360
3170.74287	0.10379
3168.81420	0.10397
3166.88552	0.10415
3164.95684	0.10432
3163.02817	0.10448
3161.09949	0.10465
3159.17082	0.10482
3157.24214	0.10499
3155.31347	0.10516
3153.38479	0.10531
3151.45611	0.10546
3149.52744	0.10563
3147.59876	0.10580
3145.67009	0.10597
3143.74141	0.10615
3141.81274	0.10634
3139.88406	0.10654
3137.95538	0.10672
3136.02671	0.10685
3134.09803	0.10698
3132.16936	0.10717
3130.24068	0.10738
3128.31201	0.10755
3126.38333	0.10768
3124.45465	0.10783
3122.52598	0.10802
3120.59730	0.10822
3118.66863	0.10838
3116.73995	0.10851
3114.81128	0.10866
3112.88260	0.10885
3110.95392	0.10904
3109.02525	0.10921
3107.09657	0.10938
3105.16790	0.10955
3103.23922	0.10970
3101.31055	0.10986
3099.38187	0.11003
3097.45319	0.11022
3095.52452	0.11039
3093.59584	0.11056
3091.66717	0.11072
3089.73849	0.11087
3087.80982	0.11103
3085.88114	0.11121
3083.95246	0.11138
3082.02379	0.11153
3080.09511	0.11168
3078.16644	0.11185
3076.23776	0.11203
3074.30909	0.11219
3072.38041	0.11235
3070.45173	0.11253
3068.52306	0.11271
3066.59438	0.11288
3064.66571	0.11303
3062.73703	0.11319
3060.80836	0.11336
3058.87968	0.11352
3056.95100	0.11367
3055.02233	0.11382
3053.09365	0.11399
3051.16498	0.11415
3049.23630	0.11434
3047.30763	0.11452
3045.37895	0.11467
3043.45027	0.11480
3041.52160	0.11494
3039.59292	0.11509
3037.66425	0.11524
3035.73557	0.11539
3033.80690	0.11554
3031.87822	0.11568
3029.94954	0.11580
3028.02087	0.11593
3026.09219	0.11607
3024.16352	0.11623
3022.23484	0.11639
3020.30617	0.11653
3018.37749	0.11666
3016.44881	0.11680
3014.52014	0.11694
3012.59146	0.11708
3010.66279	0.11721
3008.73411	0.11734
3006.80544	0.11745
3004.87676	0.11754
3002.94808	0.11761
3001.01941	0.11767
2999.09073	0.11772
2997.16206	0.11776
2995.23338	0.11780
2993.30471	0.11782
2991.37603	0.11778
2989.44735	0.11769
2987.51868	0.11758
2985.59000	0.11748
2983.66133	0.11736
2981.73265	0.11717
2979.80398	0.11688
2977.87530	0.11654
2975.94662	0.11617
2974.01795	0.11574
2972.08927	0.11524
2970.16060	0.11472
2968.23192	0.11423
2966.30325	0.11384
2964.37457	0.11360
2962.44589	0.11350
2960.51722	0.11357
2958.58854	0.11387
2956.65987	0.11442
2954.73119	0.11515
2952.80252	0.11596
2950.87384	0.11681
2948.94516	0.11763
2947.01649	0.11837
2945.08781	0.11899
2943.15914	0.11944
2941.23046	0.11976
2939.30179	0.11996
2937.37311	0.12004
2935.44443	0.12004
2933.51576	0.12003
2931.58708	0.12003
2929.65841	0.12003
2927.72973	0.12000
2925.80106	0.11994
2923.87238	0.11988
2921.94370	0.11985
2920.01503	0.11985
2918.08635	0.11991
2916.15768	0.12011
2914.22900	0.12051
2912.30033	0.12103
2910.37165	0.12154
2908.44297	0.12195
2906.51430	0.12225
2904.58562	0.12249
2902.65695	0.12274
2900.72827	0.12303
2898.79960	0.12335
2896.87092	0.12369
2894.94224	0.12408
2893.01357	0.12448
2891.08489	0.12486
2889.15622	0.12520
2887.22754	0.12550
2885.29887	0.12576
2883.37019	0.12596
2881.44151	0.12614
2879.51284	0.12632
2877.58416	0.12651
2875.65549	0.12673
2873.72681	0.12699
2871.79814	0.12726
2869.86946	0.12753
2867.94078	0.12778
2866.01211	0.12799
2864.08343	0.12816
2862.15476	0.12828
2860.22608	0.12837
2858.29741	0.12842
2856.36873	0.12847
2854.44005	0.12850
2852.51138	0.12854
2850.58270	0.12866
2848.65403	0.12900
2846.72535	0.12957
2844.79668	0.13020
2842.86800	0.13076
2840.93932	0.13120
2839.01065	0.13153
2837.08197	0.13180
2835.15330	0.13206
2833.22462	0.13231
2831.29595	0.13254
2829.36727	0.13274
2827.43859	0.13295
2825.50992	0.13318
2823.58124	0.13338
2821.65257	0.13351
2819.72389	0.13367
2817.79522	0.13389
2815.86654	0.13410
2813.93786	0.13429
2812.00919	0.13451
2810.08051	0.13472
2808.15184	0.13491
2806.22316	0.13508
2804.29449	0.13525
2802.36581	0.13545
2800.43713	0.13567
2798.50846	0.13585
2796.57978	0.13603
2794.65111	0.13620
2792.72243	0.13636
2790.79376	0.13653
2788.86508	0.13673
2786.93640	0.13695
2785.00773	0.13715
2783.07905	0.13735
2781.15038	0.13759
2779.22170	0.13781
2777.29303	0.13800
2775.36435	0.13817
2773.43567	0.13834
2771.50700	0.13851
2769.57832	0.13868
2767.64965	0.13886
2765.72097	0.13906
2763.79230	0.13924
2761.86362	0.13939
2759.93494	0.13954
2758.00627	0.13972
2756.07759	0.13991
2754.14892	0.14008
2752.22024	0.14023
2750.29157	0.14035
2748.36289	0.14047
2746.43421	0.14062
2744.50554	0.14083
2742.57686	0.14103
2740.64819	0.14118
2738.71951	0.14133
2736.79084	0.14150
2734.86216	0.14169
2732.93348	0.14188
2731.00481	0.14204
2729.07613	0.14217
2727.14746	0.14227
2725.21878	0.14242
2723.29011	0.14260
2721.36143	0.14279
2719.43275	0.14296
2717.50408	0.14313
2715.57540	0.14329
2713.64673	0.14344
2711.71805	0.14359
2709.78938	0.14374
2707.86070	0.14389
2705.93202	0.14405
2704.00335	0.14422
2702.07467	0.14437
2700.14600	0.14449
2698.21732	0.14463
2696.28865	0.14478
2694.35997	0.14493
2692.43129	0.14508
2690.50262	0.14524
2688.57394	0.14539
2686.64527	0.14553
2684.71659	0.14569
2682.78792	0.14589
2680.85924	0.14609
2678.93056	0.14626
2677.00189	0.14639
2675.07321	0.14653
2673.14454	0.14666
2671.21586	0.14678
2669.28719	0.14691
2667.35851	0.14707
2665.42983	0.14723
2663.50116	0.14738
2661.57248	0.14753
2659.64381	0.14771
2657.71513	0.14791
2655.78646	0.14812
2653.85778	0.14830
2651.92910	0.14844
2650.00043	0.14857
2648.07175	0.14873
2646.14308	0.14889
2644.21440	0.14905
2642.28573	0.14924
2640.35705	0.14944
2638.42837	0.14965
2636.49970	0.14983
2634.57102	0.14997
2632.64235	0.15010
2630.71367	0.15026
2628.78500	0.15044
2626.85632	0.15060
2624.92764	0.15078
2622.99897	0.15097
2621.07029	0.15117
2619.14162	0.15136
2617.21294	0.15156
2615.28427	0.15172
2613.35559	0.15185
2611.42691	0.15199
2609.49824	0.15216
2607.56956	0.15235
2605.64089	0.15253
2603.71221	0.15270
2601.78354	0.15286
2599.85486	0.15303
2597.92618	0.15319
2595.99751	0.15332
2594.06883	0.15346
2592.14016	0.15362
2590.21148	0.15378
2588.28281	0.15393
2586.35413	0.15408
2584.42545	0.15424
2582.49678	0.15440
2580.56810	0.15457
2578.63943	0.15475
2576.71075	0.15495
2574.78208	0.15514
2572.85340	0.15531
2570.92472	0.15547
2568.99605	0.15561
2567.06737	0.15573
2565.13870	0.15586
2563.21002	0.15603
2561.28135	0.15620
2559.35267	0.15634
2557.42399	0.15647
2555.49532	0.15661
2553.56664	0.15676
2551.63797	0.15692
2549.70929	0.15710
2547.78062	0.15727
2545.85194	0.15743
2543.92326	0.15757
2541.99459	0.15772
2540.06591	0.15786
2538.13724	0.15802
2536.20856	0.15819
2534.27989	0.15837
2532.35121	0.15851
2530.42253	0.15863
2528.49386	0.15877
2526.56518	0.15891
2524.63651	0.15905
2522.70783	0.15921
2520.77916	0.15940
2518.85048	0.15960
2516.92181	0.15975
2514.99313	0.15988
2513.06445	0.16004
2511.13578	0.16020
2509.20710	0.16037
2507.27843	0.16054
2505.34975	0.16074
2503.42108	0.16094
2501.49240	0.16112
2499.56372	0.16130
2497.63505	0.16146
2495.70637	0.16162
2493.77770	0.16179
2491.84902	0.16198
2489.92035	0.16217
2487.99167	0.16234
2486.06299	0.16247
2484.13432	0.16264
2482.20564	0.16284
2480.27697	0.16301
2478.34829	0.16319
2476.41962	0.16340
2474.49094	0.16359
2472.56226	0.16374
2470.63359	0.16391
2468.70491	0.16407
2466.77624	0.16419
2464.84756	0.16433
2462.91889	0.16450
2460.99021	0.16464
2459.06153	0.16473
2457.13286	0.16485
2455.20418	0.16504
2453.27551	0.16532
2451.34683	0.16557
2449.41816	0.16575
2447.48948	0.16585
2445.56080	0.16594
2443.63213	0.16608
2441.70345	0.16627
2439.77478	0.16649
2437.84610	0.16668
2435.91743	0.16684
2433.98875	0.16699
2432.06007	0.16717
2430.13140	0.16735
2428.20272	0.16751
2426.27405	0.16766
2424.34537	0.16783
2422.41670	0.16799
2420.48802	0.16811
2418.55934	0.16821
2416.63067	0.16835
2414.70199	0.16851
2412.77332	0.16870
2410.84464	0.16890
2408.91597	0.16908
2406.98729	0.16922
2405.05861	0.16934
2403.12994	0.16949
2401.20126	0.16966
2399.27259	0.16982
2397.34391	0.16999
2395.41524	0.17015
2393.48656	0.17028
2391.55788	0.17042
2389.62921	0.17054
2387.70053	0.17065
2385.77186	0.17077
2383.84318	0.17092
2381.91451	0.17106
2379.98583	0.17114
2378.05715	0.17118
2376.12848	0.17121
2374.19980	0.17122
2372.27113	0.17122
2370.34245	0.17124
2368.41378	0.17125
2366.48510	0.17129
2364.55642	0.17138
2362.62775	0.17152
2360.69907	0.17170
2358.77040	0.17192
2356.84172	0.17218
2354.91305	0.17243
2352.98437	0.17274
2351.05569	0.17309
2349.12702	0.17335
2347.19834	0.17341
2345.26967	0.17337
2343.34099	0.17339
2341.41232	0.17349
2339.48364	0.17362
2337.55496	0.17376
2335.62629	0.17390
2333.69761	0.17407
2331.76894	0.17423
2329.84026	0.17439
2327.91159	0.17459
2325.98291	0.17484
2324.05423	0.17510
2322.12556	0.17533
2320.19688	0.17554
2318.26821	0.17573
2316.33953	0.17595
2314.41086	0.17617
2312.48218	0.17639
2310.55350	0.17660
2308.62483	0.17680
2306.69615	0.17702
2304.76748	0.17722
2302.83880	0.17739
2300.91013	0.17755
2298.98145	0.17768
2297.05277	0.17780
2295.12410	0.17795
2293.19542	0.17815
2291.26675	0.17833
2289.33807	0.17846
2287.40940	0.17860
2285.48072	0.17876
2283.55204	0.17891
2281.62337	0.17903
2279.69469	0.17911
2277.76602	0.17920
2275.83734	0.17934
2273.90867	0.17953
2271.97999	0.17970
2270.05131	0.17985
2268.12264	0.17997
2266.19396	0.18011
2264.26529	0.18027
2262.33661	0.18043
2260.40794	0.18058
2258.47926	0.18069
2256.55058	0.18077
2254.62191	0.18090
2252.69323	0.18105
2250.76456	0.18118
2248.83588	0.18126
2246.90721	0.18135
2244.97853	0.18145
2243.04985	0.18156
2241.12118	0.18167
2239.19250	0.18178
2237.26383	0.18190
2235.33515	0.18204
2233.40648	0.18216
2231.47780	0.18227
2229.54912	0.18240
2227.62045	0.18254
2225.69177	0.18263
2223.76310	0.18268
2221.83442	0.18273
2219.90575	0.18283
2217.97707	0.18300
2216.04839	0.18314
2214.11972	0.18322
2212.19104	0.18329
2210.26237	0.18338
2208.33369	0.18345
2206.40502	0.18354
2204.47634	0.18366
2202.54766	0.18378
2200.61899	0.18389
2198.69031	0.18402
2196.76164	0.18412
2194.83296	0.18417
2192.90429	0.18419
2190.97561	0.18422
2189.04693	0.18427
2187.11826	0.18433
2185.18958	0.18437
2183.26091	0.18442
2181.33223	0.18448
2179.40356	0.18457
2177.47488	0.18466
2175.54620	0.18478
2173.61753	0.18491
2171.68885	0.18501
2169.76018	0.18507
2167.83150	0.18510
2165.90283	0.18511
2163.97415	0.18515
2162.04547	0.18525
2160.11680	0.18541
2158.18812	0.18552
2156.25945	0.18560
2154.33077	0.18571
2152.40210	0.18585
2150.47342	0.18600
2148.54474	0.18615
2146.61607	0.18635
2144.68739	0.18653
2142.75872	0.18666
2140.83004	0.18680
2138.90137	0.18695
2136.97269	0.18708
2135.04401	0.18724
2133.11534	0.18745
2131.18666	0.18767
2129.25799	0.18791
2127.32931	0.18816
2125.40064	0.18837
2123.47196	0.18858
2121.54328	0.18878
2119.61461	0.18899
2117.68593	0.18924
2115.75726	0.18951
2113.82858	0.18977
2111.89991	0.19004
2109.97123	0.19035
2108.04255	0.19060
2106.11388	0.19080
2104.18520	0.19103
2102.25653	0.19131
2100.32785	0.19160
2098.39918	0.19186
2096.47050	0.19212
2094.54182	0.19240
2092.61315	0.19266
2090.68447	0.19290
2088.75580	0.19315
2086.82712	0.19338
2084.89845	0.19363
2082.96977	0.19389
2081.04109	0.19415
2079.11242	0.19441
2077.18374	0.19467
2075.25507	0.19490
2073.32639	0.19507
2071.39772	0.19522
2069.46904	0.19536
2067.54036	0.19553
2065.61169	0.19576
2063.68301	0.19603
2061.75434	0.19627
2059.82566	0.19646
2057.89699	0.19661
2055.96831	0.19678
2054.03963	0.19695
2052.11096	0.19709
2050.18228	0.19721
2048.25361	0.19736
2046.32493	0.19754
2044.39626	0.19771
2042.46758	0.19787
2040.53890	0.19806
2038.61023	0.19827
2036.68155	0.19845
2034.75288	0.19860
2032.82420	0.19875
2030.89553	0.19889
2028.96685	0.19903
2027.03817	0.19918
2025.10950	0.19935
2023.18082	0.19952
2021.25215	0.19965
2019.32347	0.19977
2017.39480	0.19990
2015.46612	0.20007
2013.53744	0.20023
2011.60877	0.20034
2009.68009	0.20043
2007.75142	0.20057
2005.82274	0.20075
2003.89407	0.20093
2001.96539	0.20109
2000.03671	0.20124
1998.10804	0.20137
1996.17936	0.20149
1994.25069	0.20159
1992.32201	0.20170
1990.39334	0.20184
1988.46466	0.20196
1986.53598	0.20207
1984.60731	0.20216
1982.67863	0.20226
1980.74996	0.20237
1978.82128	0.20248
1976.89261	0.20259
1974.96393	0.20273
1973.03525	0.20290
1971.10658	0.20303
1969.17790	0.20307
1967.24923	0.20313
1965.32055	0.20328
1963.39188	0.20344
1961.46320	0.20355
1959.53452	0.20367
1957.60585	0.20384
1955.67717	0.20401
1953.74850	0.20415
1951.81982	0.20427
1949.89115	0.20441
1947.96247	0.20454
1946.03379	0.20459
1944.10512	0.20463
1942.17644	0.20477
1940.24777	0.20500
1938.31909	0.20517
1936.39042	0.20529
1934.46174	0.20541
1932.53306	0.20552
1930.60439	0.20563
1928.67571	0.20578
1926.74704	0.20596
1924.81836	0.20605
1922.88969	0.20609
1920.96101	0.20611
1919.03233	0.20611
1917.10366	0.20627
1915.17498	0.20661
1913.24631	0.20688
1911.31763	0.20699
1909.38896	0.20711
1907.46028	0.20730
1905.53160	0.20748
1903.60293	0.20762
1901.67425	0.20774
1899.74558	0.20787
1897.81690	0.20796
1895.88823	0.20803
1893.95955	0.20814
1892.03087	0.20827
1890.10220	0.20837
1888.17352	0.20849
1886.24485	0.20868
1884.31617	0.20887
1882.38750	0.20902
1880.45882	0.20913
1878.53014	0.20926
1876.60147	0.20944
1874.67279	0.20961
1872.74412	0.20966
1870.81544	0.20954
1868.88677	0.20950
1866.95809	0.20974
1865.02941	0.21008
1863.10074	0.21032
1861.17206	0.21050
1859.24339	0.21066
1857.31471	0.21081
1855.38604	0.21097
1853.45736	0.21113
1851.52868	0.21128
1849.60001	0.21135
1847.67133	0.21126
1845.74266	0.21105
1843.81398	0.21109
1841.88531	0.21151
1839.95663	0.21193
1838.02795	0.21214
1836.09928	0.21224
1834.17060	0.21226
1832.24193	0.21213
1830.31325	0.21205
1828.38458	0.21224
1826.45590	0.21250
1824.52722	0.21273
1822.59855	0.21301
1820.66987	0.21322
1818.74120	0.21334
1816.81252	0.21343
1814.88385	0.21352
1812.95517	0.21354
1811.02649	0.21357
1809.09782	0.21374
1807.16914	0.21394
1805.24047	0.21404
1803.31179	0.21400
1801.38312	0.21386
1799.45444	0.21386
1797.52576	0.21402
1795.59709	0.21408
1793.66841	0.21398
1791.73974	0.21407
1789.81106	0.21441
1787.88239	0.21463
1785.95371	0.21462
1784.02503	0.21461
1782.09636	0.21465
1780.16768	0.21480
1778.23901	0.21507
1776.31033	0.21515
1774.38166	0.21483
1772.45298	0.21455
1770.52430	0.21467
1768.59563	0.21496
1766.66695	0.21524
1764.73828	0.21534
1762.80960	0.21520
1760.88093	0.21516
1758.95225	0.21522
1757.02357	0.21524
1755.09490	0.21528
1753.16622	0.21514
1751.23755	0.21480
1749.30887	0.21467
1747.38020	0.21475
1745.45152	0.21478
1743.52284	0.21468
1741.59417	0.21454
1739.66549	0.21444
1737.73682	0.21416
1735.80814	0.21358
1733.87947	0.21335
1731.95079	0.21381
1730.02211	0.21434
1728.09344	0.21462
1726.16476	0.21477
1724.23609	0.21481
1722.30741	0.21477
1720.37874	0.21453
1718.45006	0.21424
1716.52138	0.21429
1714.59271	0.21467
1712.66403	0.21510
1710.73536	0.21539
1708.80668	0.21542
1706.87801	0.21525
1704.94933	0.21502
1703.02065	0.21451
1701.09198	0.21391
1699.16330	0.21401
1697.23463	0.21461
1695.30595	0.21515
1693.37728	0.21568
1691.44860	0.21595
1689.51992	0.21588
1687.59125	0.21560
1685.66257	0.21522
1683.73390	0.21527
1681.80522	0.21581
1679.87655	0.21625
1677.94787	0.21632
1676.01919	0.21624
1674.09052	0.21624
1672.16184	0.21620
1670.23317	0.21607
1668.30449	0.21626
1666.37582	0.21660
1664.44714	0.21656
1662.51846	0.21647
1660.58979	0.21673
1658.66111	0.21698
1656.73244	0.21666
1654.80376	0.21595
1652.87509	0.21573
1650.94641	0.21609
1649.01773	0.21616
1647.08906	0.21605
1645.16038	0.21638
1643.23171	0.21685
1641.30303	0.21706
1639.37436	0.21692
1637.44568	0.21641
1635.51700	0.21610
1633.58833	0.21650
1631.65965	0.21700
1629.73098	0.21702
1627.80230	0.21681
1625.87363	0.21655
1623.94495	0.21618
1622.01627	0.21585
1620.08760	0.21567
1618.15892	0.21566
1616.23025	0.21614
1614.30157	0.21708
1612.37290	0.21783
1610.44422	0.21816
1608.51554	0.21837
1606.58687	0.21863
1604.65819	0.21883
1602.72952	0.21898
1600.80084	0.21914
1598.87217	0.21931
1596.94349	0.21943
1595.01481	0.21954
1593.08614	0.21968
1591.15746	0.21986
1589.22879	0.22008
1587.30011	0.22027
1585.37144	0.22039
1583.44276	0.22048
1581.51408	0.22054
1579.58541	0.22050
1577.65673	0.22037
1575.72806	0.22047
1573.79938	0.22080
1571.87071	0.22090
1569.94203	0.22085
1568.01335	0.22100
1566.08468	0.22126
1564.15600	0.22137
1562.22733	0.22100
1560.29865	0.22029
1558.36998	0.22019
1556.44130	0.22094
1554.51262	0.22166
1552.58395	0.22199
1550.65527	0.22212
1548.72660	0.22216
1546.79792	0.22203
1544.86925	0.22171
1542.94057	0.22131
1541.01189	0.22107
1539.08322	0.22139
1537.15454	0.22203
1535.22587	0.22225
1533.29719	0.22221
1531.36852	0.22235
1529.43984	0.22243
1527.51116	0.22226
1525.58249	0.22205
1523.65381	0.22172
1521.72514	0.22136
1519.79646	0.22142
1517.86779	0.22177
1515.93911	0.22216
1514.01043	0.22252
1512.08176	0.22251
1510.15308	0.22209
1508.22441	0.22161
1506.29573	0.22160
1504.36706	0.22226
1502.43838	0.22283
1500.50970	0.22274
1498.58103	0.22247
1496.65235	0.22254
1494.72368	0.22271
1492.79500	0.22249
1490.86633	0.22200
1488.93765	0.22176
1487.00897	0.22186
1485.08030	0.22201
1483.15162	0.22199
1481.22295	0.22180
1479.29427	0.22142
1477.36560	0.22084
1475.43692	0.22012
1473.50824	0.21935
1471.57957	0.21887
1469.65089	0.21878
1467.72222	0.21859
1465.79354	0.21813
1463.86487	0.21781
1461.93619	0.21757
1460.00751	0.21687
1458.07884	0.21585
1456.15016	0.21559
1454.22149	0.21622
1452.29281	0.21679
1450.36414	0.21693
1448.43546	0.21691
1446.50678	0.21691
1444.57811	0.21699
1442.64943	0.21710
1440.72076	0.21709
1438.79208	0.21672
1436.86341	0.21640
1434.93473	0.21663
1433.00605	0.21696
1431.07738	0.21695
1429.14870	0.21692
1427.22003	0.21696
1425.29135	0.21685
1423.36268	0.21655
1421.43400	0.21596
1419.50532	0.21529
1417.57665	0.21513
1415.64797	0.21535
1413.71930	0.21546
1411.79062	0.21539
1409.86195	0.21533
1407.93327	0.21530
1406.00459	0.21534
1404.07592	0.21546
1402.14724	0.21552
1400.21857	0.21544
1398.28989	0.21540
1396.36122	0.21551
1394.43254	0.21574
1392.50386	0.21606
1390.57519	0.21611
1388.64651	0.21575
1386.71784	0.21544
1384.78916	0.21544
1382.86049	0.21554
1380.93181	0.21561
1379.00313	0.21564
1377.07446	0.21558
1375.14578	0.21545
1373.21711	0.21533
1371.28843	0.21521
1369.35976	0.21503
1367.43108	0.21486
1365.50240	0.21468
1363.57373	0.21438
1361.64505	0.21409
1359.71638	0.21400
1357.78770	0.21402
1355.85903	0.21407
1353.93035	0.21419
1352.00167	0.21437
1350.07300	0.21456
1348.14432	0.21478
1346.21565	0.21500
1344.28697	0.21515
1342.35830	0.21515
1340.42962	0.21500
1338.50094	0.21486
1336.57227	0.21484
1334.64359	0.21481
1332.71492	0.21470
1330.78624	0.21452
1328.85757	0.21428
1326.92889	0.21400
1325.00021	0.21371
1323.07154	0.21342
1321.14286	0.21314
1319.21419	0.21291
1317.28551	0.21272
1315.35684	0.21252
1313.42816	0.21227
1311.49948	0.21194
1309.57081	0.21157
1307.64213	0.21120
1305.71346	0.21082
1303.78478	0.21043
1301.85611	0.21006
1299.92743	0.20968
1297.99875	0.20930
1296.07008	0.20895
1294.14140	0.20860
1292.21273	0.20822
1290.28405	0.20776
1288.35538	0.20721
1286.42670	0.20666
1284.49802	0.20609
1282.56935	0.20536
1280.64067	0.20438
1278.71200	0.20312
1276.78332	0.20156
1274.85465	0.19960
1272.92597	0.19722
1270.99729	0.19443
1269.06862	0.19125
1267.13994	0.18780
1265.21127	0.18442
1263.28259	0.18165
1261.35392	0.18000
1259.42524	0.17964
1257.49656	0.18026
1255.56789	0.18152
1253.63921	0.18320
1251.71054	0.18524
1249.78186	0.18764
1247.85319	0.19024
1245.92451	0.19268
1243.99583	0.19462
1242.06716	0.19595
1240.13848	0.19669
1238.20981	0.19700
1236.28113	0.19700
1234.35246	0.19673
1232.42378	0.19626
1230.49510	0.19563
1228.56643	0.19495
1226.63775	0.19433
1224.70908	0.19378
1222.78040	0.19318
1220.85173	0.19252
1218.92305	0.19192
1216.99437	0.19137
1215.06570	0.19078
1213.13702	0.19007
1211.20835	0.18928
1209.27967	0.18852
1207.35100	0.18779
1205.42232	0.18707
1203.49364	0.18633
1201.56497	0.18557
1199.63629	0.18480
1197.70762	0.18403
1195.77894	0.18322
1193.85027	0.18241
1191.92159	0.18160
1189.99291	0.18070
1188.06424	0.17974
1186.13556	0.17879
1184.20689	0.17782
1182.27821	0.17680
1180.34954	0.17572
1178.42086	0.17464
1176.49218	0.17353
1174.56351	0.17242
1172.63483	0.17131
1170.70616	0.17016
1168.77748	0.16899
1166.84881	0.16781
1164.92013	0.16665
1162.99145	0.16544
1161.06278	0.16419
1159.13410	0.16295
1157.20543	0.16177
1155.27675	0.16061
1153.34808	0.15941
1151.41940	0.15821
1149.49072	0.15697
1147.56205	0.15566
1145.63337	0.15435
1143.70470	0.15306
1141.77602	0.15169
1139.84735	0.15015
1137.91867	0.14850
1135.98999	0.14679
1134.06132	0.14500
1132.13264	0.14301
1130.20397	0.14076
1128.27529	0.13829
1126.34662	0.13567
1124.41794	0.13296
1122.48926	0.13021
1120.56059	0.12752
1118.63191	0.12494
1116.70324	0.12252
1114.77456	0.12030
1112.84589	0.11827
1110.91721	0.11649
1108.98853	0.11507
1107.05986	0.11398
1105.13118	0.11312
1103.20251	0.11245
1101.27383	0.11203
1099.34516	0.11186
1097.41648	0.11184
1095.48780	0.11187
1093.55913	0.11193
1091.63045	0.11204
1089.70178	0.11216
1087.77310	0.11226
1085.84443	0.11228
1083.91575	0.11213
1081.98707	0.11189
1080.05840	0.11161
1078.12972	0.11124
1076.20105	0.11080
1074.27237	0.11039
1072.34370	0.10998
1070.41502	0.10959
1068.48634	0.10926
1066.55767	0.10893
1064.62899	0.10859
1062.70032	0.10832
1060.77164	0.10815
1058.84297	0.10807
1056.91429	0.10801
1054.98561	0.10791
1053.05694	0.10775
1051.12826	0.10765
1049.19959	0.10774
1047.27091	0.10787
1045.34224	0.10794
1043.41356	0.10806
1041.48488	0.10831
1039.55621	0.10863
1037.62753	0.10897
1035.69886	0.10932
1033.77018	0.10974
1031.84151	0.11022
1029.91283	0.11067
1027.98415	0.11108
1026.05548	0.11159
1024.12680	0.11227
1022.19813	0.11303
1020.26945	0.11385
1018.34078	0.11477
1016.41210	0.11578
1014.48342	0.11686
1012.55475	0.11804
1010.62607	0.11927
1008.69740	0.12052
1006.76872	0.12186
1004.84005	0.12321
1002.91137	0.12446
1000.98269	0.12566
999.05402	0.12687
997.12534	0.12807
995.19667	0.12917
993.26799	0.13016
991.33932	0.13106
989.41064	0.13194
987.48196	0.13287
985.55329	0.13384
983.62461	0.13476
981.69594	0.13557
979.76726	0.13626
977.83859	0.13690
975.90991	0.13754
973.98123	0.13814
972.05256	0.13868
970.12388	0.13913
968.19521	0.13953
966.26653	0.13997
964.33786	0.14037
962.40918	0.14068
960.48050	0.14090
958.55183	0.14109
956.62315	0.14126
954.69448	0.14139
952.76580	0.14151
950.83713	0.14166
948.90845	0.14169
946.97977	0.14158
945.05110	0.14140
943.12242	0.14115
941.19375	0.14082
939.26507	0.14047
937.33640	0.14005
935.40772	0.13952
933.47904	0.13892
931.55037	0.13833
929.62169	0.13773
927.69302	0.13709
925.76434	0.13645
923.83567	0.13576
921.90699	0.13493
919.97831	0.13400
918.04964	0.13305
916.12096	0.13205
914.19229	0.13097
912.26361	0.12982
910.33494	0.12869
908.40626	0.12764
906.47758	0.12672
904.54891	0.12596
902.62023	0.12534
900.69156	0.12475
898.76288	0.12416
896.83421	0.12358
894.90553	0.12300
892.97685	0.12242
891.04818	0.12188
889.11950	0.12132
887.19083	0.12078
885.26215	0.12026
883.33348	0.11975
881.40480	0.11930
879.47612	0.11884
877.54745	0.11830
875.61877	0.11780
873.69010	0.11737
871.76142	0.11696
869.83275	0.11652
867.90407	0.11600
865.97539	0.11539
864.04672	0.11482
862.11804	0.11433
860.18937	0.11381
858.26069	0.11322
856.33202	0.11255
854.40334	0.11174
852.47466	0.11074
850.54599	0.10958
848.61731	0.10839
846.68864	0.10721
844.75996	0.10610
842.83129	0.10526
840.90261	0.10479
838.97394	0.10454
837.04526	0.10436
835.11658	0.10421
833.18791	0.10408
831.25923	0.10390
829.33056	0.10352
827.40188	0.10300
825.47321	0.10245
823.54453	0.10182
821.61585	0.10106
819.68718	0.10027
817.75850	0.09949
815.82983	0.09878
813.90115	0.09810
811.97248	0.09742
810.04380	0.09669
808.11512	0.09589
806.18645	0.09507
804.25777	0.09434
802.32910	0.09382
800.40042	0.09341
798.47175	0.09294
796.54307	0.09245
794.61439	0.09218
792.68572	0.09218
790.75704	0.09236
788.82837	0.09261
786.89969	0.09286
784.97102	0.09313
783.04234	0.09336
781.11366	0.09349
779.18499	0.09355
777.25631	0.09361
775.32764	0.09369
773.39896	0.09381
771.47029	0.09392
769.54161	0.09397
767.61293	0.09399
765.68426	0.09403
763.75558	0.09403
761.82691	0.09390
759.89823	0.09372
757.96956	0.09361
756.04088	0.09355
754.11220	0.09353
752.18353	0.09354
750.25485	0.09347
748.32618	0.09326
746.39750	0.09294
744.46883	0.09253
742.54015	0.09209
740.61147	0.09171
738.68280	0.09150
736.75412	0.09147
734.82545	0.09162
732.89677	0.09186
730.96810	0.09216
729.03942	0.09244
727.11074	0.09263
725.18207	0.09275
723.25339	0.09291
721.32472	0.09312
719.39604	0.09336
717.46737	0.09369
715.53869	0.09414
713.61001	0.09468
711.68134	0.09522
709.75266	0.09554
707.82399	0.09561
705.89531	0.09556
703.96664	0.09540
702.03796	0.09511
700.10928	0.09473
698.18061	0.09433
696.25193	0.09384
694.32326	0.09331
692.39458	0.09279
690.46591	0.09225
688.53723	0.09170
686.60855	0.09123
684.67988	0.09080
682.75120	0.09035
680.82253	0.08991
678.89385	0.08948
676.96518	0.08899
675.03650	0.08841
673.10782	0.08777
671.17915	0.08702
669.25047	0.08617
667.32180	0.08539
665.39312	0.08478
663.46445	0.08414
661.53577	0.08338
659.60709	0.08262
657.67842	0.08188
655.74974	0.08110
653.82107	0.08027
651.89239	0.07939
649.96372	0.07849
648.03504	0.07760
646.10636	0.07667
644.17769	0.07568
642.24901	0.07465
640.32034	0.07353
638.39166	0.07242
636.46299	0.07143
634.53431	0.07042
632.60563	0.06902
630.67696	0.06667
628.74828	0.06310
626.81961	0.05868
624.89093	0.05423
622.96226	0.05069
621.03358	0.04852
619.10490	0.04740
617.17623	0.04666
615.24755	0.04572
613.31888	0.04451
611.39020	0.04342
609.46153	0.04288
607.53285	0.04295
605.60417	0.04341
603.67550	0.04410
601.74682	0.04493
599.81815	0.04581
597.88947	0.04667
595.96080	0.04738
594.03212	0.04784
592.10344	0.04806
590.17477	0.04807
588.24609	0.04795
586.31742	0.04782
584.38874	0.04765
582.46007	0.04736
580.53139	0.04699
578.60271	0.04658
576.67404	0.04603
574.74536	0.04535
572.81669	0.04464
570.88801	0.04398
568.95934	0.04345
567.03066	0.04304
565.10198	0.04269
563.17331	0.04239
561.24463	0.04218
559.31596	0.04204
557.38728	0.04188
555.45861	0.04169
553.52993	0.04149
551.60125	0.04125
549.67258	0.04099
547.74390	0.04072
545.81523	0.04050
543.88655	0.04036
541.95788	0.04021
540.02920	0.03997
538.10052	0.03968
536.17185	0.03942
534.24317	0.03921
532.31450	0.03906
530.38582	0.03893
528.45715	0.03873
526.52847	0.03850
524.59979	0.03821
522.67112	0.03777
520.74244	0.03719
518.81377	0.03654
516.88509	0.03588
514.95642	0.03531
513.02774	0.03496
511.09906	0.03479
509.17039	0.03461
507.24171	0.03437
505.31304	0.03410
503.38436	0.03374
501.45569	0.03326
499.52701	0.03273
497.59833	0.03221
495.66966	0.03166
493.74098	0.03110
491.81231	0.03055
489.88363	0.02998
487.95496	0.02941
486.02628	0.02889
484.09760	0.02842
482.16893	0.02796
480.24025	0.02747
478.31158	0.02691
476.38290	0.02625
474.45423	0.02559
472.52555	0.02500
470.59687	0.02452
468.66820	0.02417
466.73952	0.02379
464.81085	0.02339
462.88217	0.02314
460.95350	0.02304
459.02482	0.02296
457.09614	0.02291
455.16747	0.02290
453.23879	0.02289
451.31012	0.02288
449.38144	0.02280
447.45277	0.02268
445.52409	0.02251
443.59541	0.02230
441.66674	0.02199
439.73806	0.02160
437.80939	0.02111
435.88071	0.02048
433.95204	0.01986
432.02336	0.01935
430.09468	0.01887
428.16601	0.01834
426.23733	0.01777
424.30866	0.01717
422.37998	0.01655
420.45131	0.01587
418.52263	0.01510
416.59395	0.01431
414.66528	0.01362
412.73660	0.01302
410.80793	0.01241
408.87925	0.01179
406.95058	0.01120
405.02190	0.01062
403.09322	0.00999
401.16455	0.00939
399.23587	0.00895
397.30720	0.00859
395.37852	0.00813
393.44985	0.00760
391.52117	0.00709
389.59249	0.00659
387.66382	0.00608
385.73514	0.00558
383.80647	0.00517
381.87779	0.00485
379.94912	0.00456
378.02044	0.00420
376.09176	0.00383
374.16309	0.00358
372.23441	0.00339
370.30574	0.00309
368.37706	0.00264
