7496.76250	0.00122
7494.83382	0.00122
7492.90514	0.00123
7490.97647	0.00124
7489.04779	0.00123
7487.11912	0.00123
7485.19044	0.00124
7483.26177	0.00124
7481.33309	0.00124
7479.40441	0.00124
7477.47574	0.00125
7475.54706	0.00126
7473.61839	0.00128
7471.68971	0.00128
7469.76104	0.00128
7467.83236	0.00128
7465.90368	0.00127
7463.97501	0.00127
7462.04633	0.00128
7460.11766	0.00129
7458.18898	0.00128
7456.26031	0.00127
7454.33163	0.00129
7452.40295	0.00130
7450.47428	0.00130
7448.54560	0.00130
7446.61693	0.00131
7444.68825	0.00132
7442.75958	0.00131
7440.83090	0.00131
7438.90222	0.00132
7436.97355	0.00133
7435.04487	0.00134
7433.11620	0.00134
7431.18752	0.00135
7429.25885	0.00135
7427.33017	0.00135
7425.40149	0.00134
7423.47282	0.00134
7421.54414	0.00134
7419.61547	0.00135
7417.68679	0.00137
7415.75812	0.00137
7413.82944	0.00137
7411.90076	0.00135
7409.97209	0.00134
7408.04341	0.00136
7406.11474	0.00139
7404.18606	0.00139
7402.25739	0.00139
7400.32871	0.00138
7398.40003	0.00137
7396.47136	0.00136
7394.54268	0.00136
7392.61401	0.00137
7390.68533	0.00139
7388.75666	0.00141
7386.82798	0.00141
7384.89930	0.00143
7382.97063	0.00144
7381.04195	0.00144
7379.11328	0.00145
7377.18460	0.00144
7375.25593	0.00143
7373.32725	0.00144
7371.39857	0.00145
7369.46990	0.00144
7367.54122	0.00143
7365.61255	0.00144
7363.68387	0.00146
7361.75520	0.00146
7359.82652	0.00146
7357.89784	0.00146
7355.96917	0.00145
7354.04049	0.00145
7352.11182	0.00145
7350.18314	0.00147
7348.25447	0.00148
7346.32579	0.00148
7344.39711	0.00147
7342.46844	0.00147
7340.53976	0.00149
7338.61109	0.00150
7336.68241	0.00149
7334.75374	0.00149
7332.82506	0.00150
7330.89638	0.00152
7328.96771	0.00153
7327.03903	0.00152
7325.11036	0.00151
7323.18168	0.00151
7321.25301	0.00151
7319.32433	0.00152
7317.39565	0.00153
7315.46698	0.00153
7313.53830	0.00154
7311.60963	0.00156
7309.68095	0.00156
7307.75228	0.00155
7305.82360	0.00156
7303.89492	0.00157
7301.96625	0.00157
7300.03757	0.00156
7298.10890	0.00155
7296.18022	0.00155
7294.25155	0.00154
7292.32287	0.00155
7290.39419	0.00156
7288.46552	0.00158
7286.53684	0.00160
7284.60817	0.00160
7282.67949	0.00158
7280.75082	0.00159
7278.82214	0.00160
7276.89346	0.00161
7274.96479	0.00162
7273.03611	0.00164
7271.10744	0.00164
7269.17876	0.00162
7267.25009	0.00162
7265.32141	0.00163
7263.39273	0.00165
7261.46406	0.00166
7259.53538	0.00166
7257.60671	0.00165
7255.67803	0.00165
7253.74936	0.00165
7251.82068	0.00165
7249.89200	0.00166
7247.96333	0.00166
7246.03465	0.00167
7244.10598	0.00167
7242.17730	0.00168
7240.24863	0.00170
7238.31995	0.00170
7236.39127	0.00169
7234.46260	0.00168
7232.53392	0.00168
7230.60525	0.00170
7228.67657	0.00171
7226.74790	0.00172
7224.81922	0.00172
7222.89054	0.00172
7220.96187	0.00172
7219.03319	0.00171
7217.10452	0.00171
7215.17584	0.00172
7213.24717	0.00173
7211.31849	0.00173
7209.38981	0.00174
7207.46114	0.00174
7205.53246	0.00174
7203.60379	0.00174
7201.67511	0.00174
7199.74644	0.00174
7197.81776	0.00175
7195.88908	0.00177
7193.96041	0.00178
7192.03173	0.00179
7190.10306	0.00178
7188.17438	0.00177
7186.24571	0.00178
7184.31703	0.00180
7182.38835	0.00181
7180.45968	0.00181
7178.53100	0.00181
7176.60233	0.00182
7174.67365	0.00182
7172.74498	0.00182
7170.81630	0.00183
7168.88762	0.00184
7166.95895	0.00185
7165.03027	0.00185
7163.10160	0.00186
7161.17292	0.00188
7159.24425	0.00188
7157.31557	0.00188
7155.38689	0.00187
7153.45822	0.00186
7151.52954	0.00186
7149.60087	0.00187
7147.67219	0.00187
7145.74352	0.00187
7143.81484	0.00187
7141.88616	0.00187
7139.95749	0.00188
7138.02881	0.00189
7136.10014	0.00189
7134.17146	0.00189
7132.24279	0.00190
7130.31411	0.00192
7128.38543	0.00193
7126.45676	0.00193
7124.52808	0.00193
7122.59941	0.00192
7120.67073	0.00192
7118.74206	0.00193
7116.81338	0.00193
7114.88470	0.00193
7112.95603	0.00194
7111.02735	0.00194
7109.09868	0.00195
7107.17000	0.00197
7105.24133	0.00198
7103.31265	0.00198
7101.38397	0.00197
7099.45530	0.00197
7097.52662	0.00198
7095.59795	0.00198
7093.66927	0.00199
7091.74060	0.00200
7089.81192	0.00201
7087.88324	0.00201
7085.95457	0.00201
7084.02589	0.00201
7082.09722	0.00202
7080.16854	0.00203
7078.23987	0.00204
7076.31119	0.00205
7074.38251	0.00205
7072.45384	0.00204
7070.52516	0.00204
7068.59649	0.00204
7066.66781	0.00204
7064.73914	0.00205
7062.81046	0.00206
7060.88178	0.00205
7058.95311	0.00205
7057.02443	0.00206
7055.09576	0.00209
7053.16708	0.00210
7051.23841	0.00209
7049.30973	0.00209
7047.38105	0.00208
7045.45238	0.00207
7043.52370	0.00207
7041.59503	0.00210
7039.66635	0.00212
7037.73768	0.00211
7035.80900	0.00212
7033.88032	0.00214
7031.95165	0.00215
7030.02297	0.00215
7028.09430	0.00216
7026.16562	0.00217
7024.23695	0.00216
7022.30827	0.00214
7020.37959	0.00213
7018.45092	0.00212
7016.52224	0.00214
7014.59357	0.00215
7012.66489	0.00216
7010.73622	0.00217
7008.80754	0.00218
7006.87886	0.00219
7004.95019	0.00221
7003.02151	0.00222
7001.09284	0.00222
6999.16416	0.00221
6997.23549	0.00220
6995.30681	0.00220
6993.37813	0.00223
6991.44946	0.00225
6989.52078	0.00225
6987.59211	0.00225
6985.66343	0.00225
6983.73476	0.00225
6981.80608	0.00224
6979.87740	0.00223
6977.94873	0.00224
6976.02005	0.00227
6974.09138	0.00228
6972.16270	0.00228
6970.23403	0.00227
6968.30535	0.00228
6966.37667	0.00228
6964.44800	0.00229
6962.51932	0.00230
6960.59065	0.00230
6958.66197	0.00231
6956.73330	0.00231
6954.80462	0.00230
6952.87594	0.00230
6950.94727	0.00229
6949.01859	0.00228
6947.08992	0.00230
6945.16124	0.00233
6943.23257	0.00236
6941.30389	0.00237
6939.37521	0.00237
6937.44654	0.00236
6935.51786	0.00237
6933.58919	0.00237
6931.66051	0.00238
6929.73184	0.00239
6927.80316	0.00238
6925.87448	0.00238
6923.94581	0.00239
6922.01713	0.00241
6920.08846	0.00241
6918.15978	0.00241
6916.23111	0.00242
6914.30243	0.00243
6912.37375	0.00244
6910.44508	0.00244
6908.51640	0.00244
6906.58773	0.00244
6904.65905	0.00245
6902.73038	0.00246
6900.80170	0.00246
6898.87302	0.00246
6896.94435	0.00246
6895.01567	0.00247
6893.08700	0.00248
6891.15832	0.00249
6889.22965	0.00251
6887.30097	0.00252
6885.37229	0.00251
6883.44362	0.00251
6881.51494	0.00253
6879.58627	0.00254
6877.65759	0.00254
6875.72892	0.00253
6873.80024	0.00254
6871.87156	0.00254
6869.94289	0.00255
6868.01421	0.00255
6866.08554	0.00256
6864.15686	0.00258
6862.22819	0.00257
6860.29951	0.00256
6858.37083	0.00256
6856.44216	0.00258
6854.51348	0.00260
6852.58481	0.00262
6850.65613	0.00261
6848.72746	0.00260
6846.79878	0.00260
6844.87010	0.00261
6842.94143	0.00262
6841.01275	0.00263
6839.08408	0.00263
6837.15540	0.00264
6835.22673	0.00264
6833.29805	0.00264
6831.36937	0.00264
6829.44070	0.00265
6827.51202	0.00265
6825.58335	0.00265
6823.65467	0.00265
6821.72600	0.00267
6819.79732	0.00269
6817.86864	0.00270
6815.93997	0.00271
6814.01129	0.00272
6812.08262	0.00273
6810.15394	0.00272
6808.22527	0.00272
6806.29659	0.00274
6804.36791	0.00274
6802.43924	0.00274
6800.51056	0.00274
6798.58189	0.00273
6796.65321	0.00274
6794.72454	0.00275
6792.79586	0.00276
6790.86718	0.00277
6788.93851	0.00278
6787.00983	0.00278
6785.08116	0.00277
6783.15248	0.00278
6781.22381	0.00279
6779.29513	0.00280
6777.36645	0.00279
6775.43778	0.00279
6773.50910	0.00282
6771.58043	0.00284
6769.65175	0.00284
6767.72308	0.00285
6765.79440	0.00287
6763.86572	0.00287
6761.93705	0.00287
6760.00837	0.00288
6758.07970	0.00289
6756.15102	0.00288
6754.22235	0.00288
6752.29367	0.00288
6750.36499	0.00288
6748.43632	0.00289
6746.50764	0.00291
6744.57897	0.00294
6742.65029	0.00295
6740.72162	0.00295
6738.79294	0.00293
6736.86426	0.00293
6734.93559	0.00295
6733.00691	0.00298
6731.07824	0.00299
6729.14956	0.00299
6727.22089	0.00299
6725.29221	0.00300
6723.36353	0.00300
6721.43486	0.00301
6719.50618	0.00301
6717.57751	0.00302
6715.64883	0.00303
6713.72016	0.00303
6711.79148	0.00303
6709.86280	0.00304
6707.93413	0.00304
6706.00545	0.00303
6704.07678	0.00304
6702.14810	0.00305
6700.21943	0.00306
6698.29075	0.00307
6696.36207	0.00309
6694.43340	0.00310
6692.50472	0.00310
6690.57605	0.00309
6688.64737	0.00308
6686.71870	0.00309
6684.79002	0.00310
6682.86134	0.00311
6680.93267	0.00313
6679.00399	0.00313
6677.07532	0.00312
6675.14664	0.00312
6673.21797	0.00314
6671.28929	0.00316
6669.36061	0.00317
6667.43194	0.00316
6665.50326	0.00318
6663.57459	0.00320
6661.64591	0.00321
6659.71724	0.00322
6657.78856	0.00323
6655.85988	0.00323
6653.93121	0.00322
6652.00253	0.00322
6650.07386	0.00322
6648.14518	0.00322
6646.21651	0.00323
6644.28783	0.00325
6642.35915	0.00326
6640.43048	0.00326
6638.50180	0.00326
6636.57313	0.00327
6634.64445	0.00330
6632.71578	0.00331
6630.78710	0.00330
6628.85842	0.00329
6626.92975	0.00331
6625.00107	0.00332
6623.07240	0.00332
6621.14372	0.00332
6619.21505	0.00334
6617.28637	0.00336
6615.35769	0.00337
6613.42902	0.00338
6611.50034	0.00338
6609.57167	0.00339
6607.64299	0.00340
6605.71432	0.00342
6603.78564	0.00343
6601.85696	0.00343
6599.92829	0.00343
6597.99961	0.00344
6596.07094	0.00345
6594.14226	0.00344
6592.21359	0.00342
6590.28491	0.00340
6588.35623	0.00342
6586.42756	0.00346
6584.49888	0.00349
6582.57021	0.00351
6580.64153	0.00350
6578.71286	0.00349
6576.78418	0.00349
6574.85550	0.00350
6572.92683	0.00352
6570.99815	0.00353
6569.06948	0.00354
6567.14080	0.00355
6565.21213	0.00355
6563.28345	0.00355
6561.35477	0.00356
6559.42610	0.00356
6557.49742	0.00358
6555.56875	0.00360
6553.64007	0.00360
6551.71140	0.00360
6549.78272	0.00361
6547.85404	0.00362
6545.92537	0.00363
6543.99669	0.00366
6542.06802	0.00368
6540.13934	0.00369
6538.21067	0.00368
6536.28199	0.00367
6534.35331	0.00369
6532.42464	0.00370
6530.49596	0.00370
6528.56729	0.00371
6526.63861	0.00371
6524.70994	0.00372
6522.78126	0.00372
6520.85258	0.00372
6518.92391	0.00372
6516.99523	0.00373
6515.06656	0.00374
6513.13788	0.00375
6511.20921	0.00377
6509.28053	0.00377
6507.35185	0.00376
6505.42318	0.00376
6503.49450	0.00378
6501.56583	0.00380
6499.63715	0.00381
6497.70848	0.00382
6495.77980	0.00384
6493.85112	0.00386
6491.92245	0.00386
6489.99377	0.00386
6488.06510	0.00388
6486.13642	0.00388
6484.20775	0.00388
6482.27907	0.00389
6480.35039	0.00391
6478.42172	0.00393
6476.49304	0.00392
6474.56437	0.00392
6472.63569	0.00394
6470.70702	0.00396
6468.77834	0.00397
6466.84966	0.00398
6464.92099	0.00398
6462.99231	0.00398
6461.06364	0.00399
6459.13496	0.00401
6457.20629	0.00401
6455.27761	0.00402
6453.34893	0.00404
6451.42026	0.00408
6449.49158	0.00409
6447.56291	0.00408
6445.63423	0.00408
6443.70556	0.00409
6441.77688	0.00409
6439.84820	0.00410
6437.91953	0.00411
6435.99085	0.00411
6434.06218	0.00412
6432.13350	0.00414
6430.20483	0.00415
6428.27615	0.00414
6426.34747	0.00414
6424.41880	0.00415
6422.49012	0.00418
6420.56145	0.00420
6418.63277	0.00421
6416.70410	0.00421
6414.77542	0.00422
6412.84674	0.00422
6410.91807	0.00422
6408.98939	0.00423
6407.06072	0.00425
6405.13204	0.00427
6403.20337	0.00427
6401.27469	0.00427
6399.34601	0.00428
6397.41734	0.00429
6395.48866	0.00432
6393.55999	0.00435
6391.63131	0.00435
6389.70264	0.00436
6387.77396	0.00436
6385.84528	0.00436
6383.91661	0.00436
6381.98793	0.00437
6380.05926	0.00439
6378.13058	0.00442
6376.20191	0.00443
6374.27323	0.00444
6372.34455	0.00443
6370.41588	0.00442
6368.48720	0.00443
6366.55853	0.00445
6364.62985	0.00448
6362.70118	0.00449
6360.77250	0.00450
6358.84382	0.00449
6356.91515	0.00448
6354.98647	0.00449
6353.05780	0.00451
6351.12912	0.00453
6349.20045	0.00455
6347.27177	0.00456
6345.34309	0.00455
6343.41442	0.00455
6341.48574	0.00456
6339.55707	0.00457
6337.62839	0.00456
6335.69972	0.00456
6333.77104	0.00460
6331.84236	0.00462
6329.91369	0.00463
6327.98501	0.00463
6326.05634	0.00465
6324.12766	0.00467
6322.19899	0.00469
6320.27031	0.00470
6318.34163	0.00472
6316.41296	0.00475
6314.48428	0.00476
6312.55561	0.00475
6310.62693	0.00474
6308.69826	0.00475
6306.76958	0.00476
6304.84090	0.00477
6302.91223	0.00477
6300.98355	0.00477
6299.05488	0.00479
6297.12620	0.00481
6295.19753	0.00481
6293.26885	0.00481
6291.34017	0.00482
6289.41150	0.00485
6287.48282	0.00488
6285.55415	0.00489
6283.62547	0.00491
6281.69680	0.00491
6279.76812	0.00491
6277.83944	0.00492
6275.91077	0.00493
6273.98209	0.00494
6272.05342	0.00495
6270.12474	0.00496
6268.19607	0.00498
6266.26739	0.00499
6264.33871	0.00500
6262.41004	0.00501
6260.48136	0.00503
6258.55269	0.00505
6256.62401	0.00507
6254.69534	0.00507
6252.76666	0.00505
6250.83798	0.00506
6248.90931	0.00507
6246.98063	0.00509
6245.05196	0.00511
6243.12328	0.00512
6241.19461	0.00513
6239.26593	0.00515
6237.33725	0.00515
6235.40858	0.00515
6233.47990	0.00516
6231.55123	0.00518
6229.62255	0.00520
6227.69388	0.00521
6225.76520	0.00522
6223.83652	0.00524
6221.90785	0.00525
6219.97917	0.00525
6218.05050	0.00524
6216.12182	0.00524
6214.19315	0.00525
6212.26447	0.00528
6210.33579	0.00531
6208.40712	0.00533
6206.47844	0.00532
6204.54977	0.00532
6202.62109	0.00533
6200.69242	0.00535
6198.76374	0.00537
6196.83506	0.00537
6194.90639	0.00538
6192.97771	0.00540
6191.04904	0.00542
6189.12036	0.00544
6187.19169	0.00545
6185.26301	0.00545
6183.33433	0.00547
6181.40566	0.00549
6179.47698	0.00551
6177.54831	0.00552
6175.61963	0.00553
6173.69096	0.00555
6171.76228	0.00555
6169.83360	0.00556
6167.90493	0.00557
6165.97625	0.00559
6164.04758	0.00560
6162.11890	0.00560
6160.19023	0.00560
6158.26155	0.00562
6156.33287	0.00566
6154.40420	0.00570
6152.47552	0.00572
6150.54685	0.00571
6148.61817	0.00572
6146.68950	0.00573
6144.76082	0.00574
6142.83214	0.00575
6140.90347	0.00576
6138.97479	0.00576
6137.04612	0.00577
6135.11744	0.00579
6133.18877	0.00580
6131.26009	0.00582
6129.33141	0.00584
6127.40274	0.00585
6125.47406	0.00587
6123.54539	0.00589
6121.61671	0.00590
6119.68804	0.00589
6117.75936	0.00588
6115.83068	0.00590
6113.90201	0.00593
6111.97333	0.00597
6110.04466	0.00599
6108.11598	0.00599
6106.18731	0.00600
6104.25863	0.00603
6102.32995	0.00605
6100.40128	0.00604
6098.47260	0.00603
6096.54393	0.00602
6094.61525	0.00604
6092.68658	0.00607
6090.75790	0.00611
6088.82922	0.00612
6086.90055	0.00612
6084.97187	0.00614
6083.04320	0.00617
6081.11452	0.00619
6079.18585	0.00620
6077.25717	0.00620
6075.32849	0.00620
6073.39982	0.00620
6071.47114	0.00621
6069.54247	0.00624
6067.61379	0.00627
6065.68512	0.00629
6063.75644	0.00630
6061.82776	0.00630
6059.89909	0.00633
6057.97041	0.00635
6056.04174	0.00635
6054.11306	0.00634
6052.18439	0.00635
6050.25571	0.00638
6048.32703	0.00640
6046.39836	0.00642
6044.46968	0.00645
6042.54101	0.00646
6040.61233	0.00646
6038.68366	0.00646
6036.75498	0.00647
6034.82630	0.00649
6032.89763	0.00652
6030.96895	0.00654
6029.04028	0.00655
6027.11160	0.00656
6025.18293	0.00657
6023.25425	0.00659
6021.32557	0.00660
6019.39690	0.00662
6017.46822	0.00664
6015.53955	0.00664
6013.61087	0.00665
6011.68220	0.00666
6009.75352	0.00670
6007.82484	0.00673
6005.89617	0.00674
6003.96749	0.00673
6002.03882	0.00672
6000.11014	0.00674
5998.18147	0.00677
5996.25279	0.00680
5994.32411	0.00682
5992.39544	0.00683
5990.46676	0.00683
5988.53809	0.00682
5986.60941	0.00685
5984.68074	0.00689
5982.75206	0.00692
5980.82338	0.00692
5978.89471	0.00692
5976.96603	0.00692
5975.03736	0.00694
5973.10868	0.00695
5971.18001	0.00696
5969.25133	0.00698
5967.32265	0.00702
5965.39398	0.00707
5963.46530	0.00710
5961.53663	0.00710
5959.60795	0.00710
5957.67928	0.00712
5955.75060	0.00715
5953.82192	0.00715
5951.89325	0.00714
5949.96457	0.00715
5948.03590	0.00717
5946.10722	0.00720
5944.17855	0.00721
5942.24987	0.00722
5940.32119	0.00723
5938.39252	0.00724
5936.46384	0.00725
5934.53517	0.00727
5932.60649	0.00730
5930.67782	0.00732
5928.74914	0.00733
5926.82046	0.00736
5924.89179	0.00739
5922.96311	0.00740
5921.03444	0.00741
5919.10576	0.00743
5917.17709	0.00744
5915.24841	0.00745
5913.31973	0.00747
5911.39106	0.00749
5909.46238	0.00750
5907.53371	0.00750
5905.60503	0.00751
5903.67636	0.00754
5901.74768	0.00756
5899.81900	0.00758
5897.89033	0.00760
5895.96165	0.00762
5894.03298	0.00763
5892.10430	0.00765
5890.17563	0.00769
5888.24695	0.00772
5886.31827	0.00773
5884.38960	0.00773
5882.46092	0.00775
5880.53225	0.00777
5878.60357	0.00778
5876.67490	0.00778
5874.74622	0.00780
5872.81755	0.00783
5870.88887	0.00787
5868.96019	0.00789
5867.03152	0.00790
5865.10284	0.00790
5863.17417	0.00792
5861.24549	0.00795
5859.31682	0.00798
5857.38814	0.00799
5855.45946	0.00799
5853.53079	0.00799
5851.60211	0.00802
5849.67344	0.00805
5847.74476	0.00808
5845.81609	0.00809
5843.88741	0.00810
5841.95873	0.00811
5840.03006	0.00812
5838.10138	0.00815
5836.17271	0.00818
5834.24403	0.00819
5832.31536	0.00820
5830.38668	0.00823
5828.45800	0.00826
5826.52933	0.00827
5824.60065	0.00828
5822.67198	0.00830
5820.74330	0.00832
5818.81463	0.00835
5816.88595	0.00837
5814.95727	0.00838
5813.02860	0.00839
5811.09992	0.00841
5809.17125	0.00842
5807.24257	0.00843
5805.31390	0.00844
5803.38522	0.00846
5801.45654	0.00849
5799.52787	0.00853
5797.59919	0.00856
5795.67052	0.00856
5793.74184	0.00857
5791.81317	0.00858
5789.88449	0.00859
5787.95581	0.00862
5786.02714	0.00865
5784.09846	0.00866
5782.16979	0.00867
5780.24111	0.00868
5778.31244	0.00871
5776.38376	0.00872
5774.45508	0.00874
5772.52641	0.00876
5770.59773	0.00879
5768.66906	0.00881
5766.74038	0.00884
5764.81171	0.00885
5762.88303	0.00886
5760.95435	0.00888
5759.02568	0.00890
5757.09700	0.00892
5755.16833	0.00895
5753.23965	0.00898
5751.31098	0.00901
5749.38230	0.00904
5747.45362	0.00906
5745.52495	0.00909
5743.59627	0.00912
5741.66760	0.00914
5739.73892	0.00914
5737.81025	0.00915
5735.88157	0.00917
5733.95289	0.00919
5732.02422	0.00920
5730.09554	0.00921
5728.16687	0.00921
5726.23819	0.00923
5724.30952	0.00925
5722.38084	0.00927
5720.45216	0.00930
5718.52349	0.00931
5716.59481	0.00930
5714.66614	0.00931
5712.73746	0.00934
5710.80879	0.00937
5708.88011	0.00940
5706.95143	0.00943
5705.02276	0.00946
5703.09408	0.00948
5701.16541	0.00950
5699.23673	0.00953
5697.30806	0.00957
5695.37938	0.00959
5693.45070	0.00960
5691.52203	0.00960
5689.59335	0.00961
5687.66468	0.00963
5685.73600	0.00966
5683.80733	0.00969
5681.87865	0.00973
5679.94997	0.00976
5678.02130	0.00977
5676.09262	0.00977
5674.16395	0.00978
5672.23527	0.00981
5670.30660	0.00982
5668.37792	0.00983
5666.44924	0.00986
5664.52057	0.00988
5662.59189	0.00990
5660.66322	0.00994
5658.73454	0.00998
5656.80587	0.01003
5654.87719	0.01006
5652.94851	0.01008
5651.01984	0.01008
5649.09116	0.01010
5647.16249	0.01012
5645.23381	0.01013
5643.30514	0.01016
5641.37646	0.01019
5639.44778	0.01021
5637.51911	0.01023
5635.59043	0.01025
5633.66176	0.01027
5631.73308	0.01029
5629.80441	0.01031
5627.87573	0.01033
5625.94705	0.01036
5624.01838	0.01038
5622.08970	0.01039
5620.16103	0.01041
5618.23235	0.01043
5616.30368	0.01045
5614.37500	0.01047
5612.44632	0.01049
5610.51765	0.01052
5608.58897	0.01056
5606.66030	0.01059
5604.73162	0.01061
5602.80295	0.01062
5600.87427	0.01064
5598.94559	0.01068
5597.01692	0.01072
5595.08824	0.01075
5593.15957	0.01075
5591.23089	0.01076
5589.30222	0.01077
5587.37354	0.01079
5585.44486	0.01083
5583.51619	0.01086
5581.58751	0.01089
5579.65884	0.01091
5577.73016	0.01094
5575.80149	0.01098
5573.87281	0.01100
5571.94413	0.01102
5570.01546	0.01105
5568.08678	0.01107
5566.15811	0.01106
5564.22943	0.01105
5562.30076	0.01106
5560.37208	0.01110
5558.44340	0.01114
5556.51473	0.01116
5554.58605	0.01118
5552.65738	0.01121
5550.72870	0.01122
5548.80003	0.01122
5546.87135	0.01124
5544.94267	0.01127
5543.01400	0.01131
5541.08532	0.01136
5539.15665	0.01140
5537.22797	0.01141
5535.29930	0.01143
5533.37062	0.01146
5531.44194	0.01148
5529.51327	0.01150
5527.58459	0.01151
5525.65592	0.01153
5523.72724	0.01157
5521.79857	0.01162
5519.86989	0.01164
5517.94121	0.01166
5516.01254	0.01168
5514.08386	0.01172
5512.15519	0.01175
5510.22651	0.01177
5508.29784	0.01180
5506.36916	0.01182
5504.44048	0.01183
5502.51181	0.01184
5500.58313	0.01187
5498.65446	0.01190
5496.72578	0.01191
5494.79711	0.01193
5492.86843	0.01196
5490.93975	0.01197
5489.01108	0.01199
5487.08240	0.01200
5485.15373	0.01202
5483.22505	0.01204
5481.29638	0.01208
5479.36770	0.01212
5477.43902	0.01215
5475.51035	0.01219
5473.58167	0.01222
5471.65300	0.01224
5469.72432	0.01227
5467.79565	0.01230
5465.86697	0.01233
5463.93829	0.01235
5462.00962	0.01236
5460.08094	0.01238
5458.15227	0.01241
5456.22359	0.01244
5454.29492	0.01247
5452.36624	0.01250
5450.43756	0.01252
5448.50889	0.01253
5446.58021	0.01253
5444.65154	0.01255
5442.72286	0.01259
5440.79419	0.01264
5438.86551	0.01268
5436.93683	0.01268
5435.00816	0.01269
5433.07948	0.01271
5431.15081	0.01273
5429.22213	0.01276
5427.29346	0.01280
5425.36478	0.01286
5423.43610	0.01291
5421.50743	0.01294
5419.57875	0.01297
5417.65008	0.01300
5415.72140	0.01301
5413.79273	0.01301
5411.86405	0.01304
5409.93537	0.01307
5408.00670	0.01310
5406.07802	0.01312
5404.14935	0.01315
5402.22067	0.01320
5400.29200	0.01324
5398.36332	0.01327
5396.43464	0.01329
5394.50597	0.01331
5392.57729	0.01333
5390.64862	0.01335
5388.71994	0.01336
5386.79127	0.01339
5384.86259	0.01342
5382.93391	0.01347
5381.00524	0.01351
5379.07656	0.01353
5377.14789	0.01354
5375.21921	0.01356
5373.29054	0.01358
5371.36186	0.01361
5369.43318	0.01366
5367.50451	0.01371
5365.57583	0.01374
5363.64716	0.01375
5361.71848	0.01376
5359.78981	0.01378
5357.86113	0.01382
5355.93245	0.01385
5354.00378	0.01387
5352.07510	0.01387
5350.14643	0.01388
5348.21775	0.01391
5346.28908	0.01394
5344.36040	0.01398
5342.43172	0.01403
5340.50305	0.01407
5338.57437	0.01409
5336.64570	0.01411
5334.71702	0.01412
5332.78835	0.01414
5330.85967	0.01416
5328.93099	0.01417
5327.00232	0.01419
5325.07364	0.01424
5323.14497	0.01430
5321.21629	0.01433
5319.28762	0.01436
5317.35894	0.01439
5315.43026	0.01443
5313.50159	0.01447
5311.57291	0.01448
5309.64424	0.01449
5307.71556	0.01451
5305.78689	0.01453
5303.85821	0.01455
5301.92953	0.01458
5300.00086	0.01462
5298.07218	0.01466
5296.14351	0.01470
5294.21483	0.01474
5292.28616	0.01477
5290.35748	0.01481
5288.42880	0.01485
5286.50013	0.01487
5284.57145	0.01488
5282.64278	0.01490
5280.71410	0.01492
5278.78543	0.01494
5276.85675	0.01497
5274.92807	0.01501
5272.99940	0.01505
5271.07072	0.01509
5269.14205	0.01511
5267.21337	0.01513
5265.28470	0.01515
5263.35602	0.01518
5261.42734	0.01520
5259.49867	0.01523
5257.56999	0.01527
5255.64132	0.01529
5253.71264	0.01532
5251.78397	0.01535
5249.85529	0.01538
5247.92661	0.01541
5245.99794	0.01543
5244.06926	0.01547
5242.14059	0.01551
5240.21191	0.01554
5238.28324	0.01555
5236.35456	0.01559
5234.42588	0.01565
5232.49721	0.01567
5230.56853	0.01567
5228.63986	0.01568
5226.71118	0.01571
5224.78251	0.01577
5222.85383	0.01583
5220.92515	0.01587
5218.99648	0.01589
5217.06780	0.01591
5215.13913	0.01594
5213.21045	0.01597
5211.28178	0.01600
5209.35310	0.01602
5207.42442	0.01605
5205.49575	0.01609
5203.56707	0.01613
5201.63840	0.01618
5199.70972	0.01620
5197.78105	0.01622
5195.85237	0.01624
5193.92369	0.01628
5191.99502	0.01632
5190.06634	0.01635
5188.13767	0.01638
5186.20899	0.01640
5184.28032	0.01642
5182.35164	0.01645
5180.42296	0.01648
5178.49429	0.01653
5176.56561	0.01660
5174.63694	0.01666
5172.70826	0.01670
5170.77959	0.01671
5168.85091	0.01672
5166.92223	0.01673
5164.99356	0.01675
5163.06488	0.01679
5161.13621	0.01683
5159.20753	0.01685
5157.27886	0.01687
5155.35018	0.01689
5153.42150	0.01693
5151.49283	0.01699
5149.56415	0.01706
5147.63548	0.01709
5145.70680	0.01710
5143.77813	0.01711
5141.84945	0.01715
5139.92077	0.01718
5137.99210	0.01722
5136.06342	0.01726
5134.13475	0.01728
5132.20607	0.01729
5130.27740	0.01730
5128.34872	0.01733
5126.42004	0.01739
5124.49137	0.01745
5122.56269	0.01748
5120.63402	0.01750
5118.70534	0.01752
5116.77667	0.01754
5114.84799	0.01757
5112.91931	0.01760
5110.99064	0.01762
5109.06196	0.01767
5107.13329	0.01773
5105.20461	0.01778
5103.27594	0.01780
5101.34726	0.01781
5099.41858	0.01783
5097.48991	0.01787
5095.56123	0.01792
5093.63256	0.01797
5091.70388	0.01802
5089.77521	0.01804
5087.84653	0.01806
5085.91785	0.01808
5083.98918	0.01811
5082.06050	0.01814
5080.13183	0.01817
5078.20315	0.01820
5076.27448	0.01824
5074.34580	0.01827
5072.41712	0.01829
5070.48845	0.01833
5068.55977	0.01837
5066.63110	0.01841
5064.70242	0.01844
5062.77375	0.01849
5060.84507	0.01852
5058.91639	0.01853
5056.98772	0.01856
5055.05904	0.01860
5053.13037	0.01865
5051.20169	0.01870
5049.27302	0.01873
5047.34434	0.01877
5045.41566	0.01880
5043.48699	0.01883
5041.55831	0.01886
5039.62964	0.01891
5037.70096	0.01897
5035.77229	0.01901
5033.84361	0.01903
5031.91493	0.01906
5029.98626	0.01908
5028.05758	0.01910
5026.12891	0.01911
5024.20023	0.01914
5022.27156	0.01918
5020.34288	0.01923
5018.41420	0.01926
5016.48553	0.01928
5014.55685	0.01931
5012.62818	0.01936
5010.69950	0.01940
5008.77083	0.01945
5006.84215	0.01948
5004.91347	0.01951
5002.98480	0.01953
5001.05612	0.01955
4999.12745	0.01957
4997.19877	0.01963
4995.27010	0.01968
4993.34142	0.01972
4991.41274	0.01975
4989.48407	0.01979
4987.55539	0.01985
4985.62672	0.01990
4983.69804	0.01993
4981.76937	0.01996
4979.84069	0.02000
4977.91201	0.02005
4975.98334	0.02007
4974.05466	0.02009
4972.12599	0.02011
4970.19731	0.02015
4968.26864	0.02019
4966.33996	0.02024
4964.41128	0.02027
4962.48261	0.02030
4960.55393	0.02032
4958.62526	0.02037
4956.69658	0.02043
4954.76791	0.02050
4952.83923	0.02055
4950.91055	0.02058
4948.98188	0.02061
4947.05320	0.02064
4945.12453	0.02067
4943.19585	0.02071
4941.26718	0.02074
4939.33850	0.02078
4937.40982	0.02082
4935.48115	0.02086
4933.55247	0.02089
4931.62380	0.02093
4929.69512	0.02096
4927.76645	0.02098
4925.83777	0.02100
4923.90909	0.02106
4921.98042	0.02112
4920.05174	0.02115
4918.12307	0.02119
4916.19439	0.02123
4914.26572	0.02127
4912.33704	0.02129
4910.40836	0.02133
4908.47969	0.02138
4906.55101	0.02142
4904.62234	0.02146
4902.69366	0.02149
4900.76499	0.02152
4898.83631	0.02153
4896.90763	0.02155
4894.97896	0.02159
4893.05028	0.02164
4891.12161	0.02167
4889.19293	0.02169
4887.26426	0.02172
4885.33558	0.02177
4883.40690	0.02181
4881.47823	0.02184
4879.54955	0.02188
4877.62088	0.02194
4875.69220	0.02199
4873.76353	0.02202
4871.83485	0.02206
4869.90617	0.02213
4867.97750	0.02218
4866.04882	0.02220
4864.12015	0.02221
4862.19147	0.02224
4860.26280	0.02229
4858.33412	0.02234
4856.40544	0.02239
4854.47677	0.02243
4852.54809	0.02247
4850.61942	0.02251
4848.69074	0.02256
4846.76207	0.02260
4844.83339	0.02265
4842.90471	0.02267
4840.97604	0.02269
4839.04736	0.02273
4837.11869	0.02278
4835.19001	0.02282
4833.26134	0.02286
4831.33266	0.02289
4829.40398	0.02290
4827.47531	0.02293
4825.54663	0.02297
4823.61796	0.02302
4821.68928	0.02308
4819.76061	0.02314
4817.83193	0.02319
4815.90325	0.02325
4813.97458	0.02330
4812.04590	0.02336
4810.11723	0.02342
4808.18855	0.02347
4806.25988	0.02351
4804.33120	0.02351
4802.40252	0.02352
4800.47385	0.02355
4798.54517	0.02361
4796.61650	0.02366
4794.68782	0.02370
4792.75915	0.02374
4790.83047	0.02377
4788.90179	0.02381
4786.97312	0.02386
4785.04444	0.02392
4783.11577	0.02396
4781.18709	0.02399
4779.25842	0.02402
4777.32974	0.02405
4775.40106	0.02409
4773.47239	0.02415
4771.54371	0.02420
4769.61504	0.02426
4767.68636	0.02432
4765.75769	0.02436
4763.82901	0.02438
4761.90033	0.02439
4759.97166	0.02442
4758.04298	0.02448
4756.11431	0.02453
4754.18563	0.02457
4752.25696	0.02461
4750.32828	0.02464
4748.39960	0.02468
4746.47093	0.02474
4744.54225	0.02481
4742.61358	0.02487
4740.68490	0.02492
4738.75623	0.02496
4736.82755	0.02500
4734.89887	0.02502
4732.97020	0.02504
4731.04152	0.02509
4729.11285	0.02512
4727.18417	0.02514
4725.25550	0.02519
4723.32682	0.02526
4721.39814	0.02532
4719.46947	0.02536
4717.54079	0.02541
4715.61212	0.02546
4713.68344	0.02549
4711.75477	0.02552
4709.82609	0.02557
4707.89741	0.02564
4705.96874	0.02570
4704.04006	0.02575
4702.11139	0.02579
4700.18271	0.02580
4698.25404	0.02582
4696.32536	0.02585
4694.39668	0.02590
4692.46801	0.02596
4690.53933	0.02601
4688.61066	0.02606
4686.68198	0.02611
4684.75331	0.02615
4682.82463	0.02619
4680.89595	0.02623
4678.96728	0.02629
4677.03860	0.02635
4675.10993	0.02640
4673.18125	0.02644
4671.25258	0.02649
4669.32390	0.02654
4667.39522	0.02659
4665.46655	0.02664
4663.53787	0.02670
4661.60920	0.02676
4659.68052	0.02680
4657.75185	0.02684
4655.82317	0.02690
4653.89449	0.02696
4651.96582	0.02700
4650.03714	0.02704
4648.10847	0.02708
4646.17979	0.02711
4644.25112	0.02714
4642.32244	0.02718
4640.39376	0.02722
4638.46509	0.02729
4636.53641	0.02737
4634.60774	0.02743
4632.67906	0.02746
4630.75039	0.02750
4628.82171	0.02755
4626.89303	0.02761
4624.96436	0.02766
4623.03568	0.02771
4621.10701	0.02777
4619.17833	0.02783
4617.24966	0.02787
4615.32098	0.02790
4613.39230	0.02795
4611.46363	0.02801
4609.53495	0.02805
4607.60628	0.02808
4605.67760	0.02813
4603.74893	0.02819
4601.82025	0.02826
4599.89157	0.02831
4597.96290	0.02834
4596.03422	0.02839
4594.10555	0.02846
4592.17687	0.02850
4590.24820	0.02854
4588.31952	0.02859
4586.39084	0.02865
4584.46217	0.02871
4582.53349	0.02877
4580.60482	0.02882
4578.67614	0.02887
4576.74747	0.02892
4574.81879	0.02895
4572.89011	0.02899
4570.96144	0.02904
4569.03276	0.02911
4567.10409	0.02918
4565.17541	0.02922
4563.24674	0.02927
4561.31806	0.02931
4559.38938	0.02936
4557.46071	0.02943
4555.53203	0.02951
4553.60336	0.02956
4551.67468	0.02959
4549.74601	0.02964
4547.81733	0.02970
4545.88865	0.02975
4543.95998	0.02981
4542.03130	0.02986
4540.10263	0.02989
4538.17395	0.02992
4536.24528	0.02997
4534.31660	0.03004
4532.38792	0.03012
4530.45925	0.03018
4528.53057	0.03024
4526.60190	0.03030
4524.67322	0.03037
4522.74455	0.03043
4520.81587	0.03049
4518.88719	0.03053
4516.95852	0.03056
4515.02984	0.03060
4513.10117	0.03066
4511.17249	0.03073
4509.24382	0.03079
4507.31514	0.03085
4505.38646	0.03090
4503.45779	0.03094
4501.52911	0.03100
4499.60044	0.03106
4497.67176	0.03111
4495.74309	0.03116
4493.81441	0.03123
4491.88573	0.03131
4489.95706	0.03136
4488.02838	0.03140
4486.09971	0.03144
4484.17103	0.03149
4482.24236	0.03157
4480.31368	0.03164
4478.38500	0.03169
4476.45633	0.03174
4474.52765	0.03180
4472.59898	0.03186
4470.67030	0.03193
4468.74163	0.03199
4466.81295	0.03205
4464.88427	0.03209
4462.95560	0.03215
4461.02692	0.03220
4459.09825	0.03226
4457.16957	0.03232
4455.24090	0.03238
4453.31222	0.03244
4451.38354	0.03250
4449.45487	0.03255
4447.52619	0.03262
4445.59752	0.03269
4443.66884	0.03275
4441.74017	0.03280
4439.81149	0.03284
4437.88281	0.03289
4435.95414	0.03293
4434.02546	0.03300
4432.09679	0.03311
4430.16811	0.03320
4428.23944	0.03325
4426.31076	0.03327
4424.38208	0.03331
4422.45341	0.03339
4420.52473	0.03348
4418.59606	0.03354
4416.66738	0.03359
4414.73871	0.03363
4412.81003	0.03368
4410.88135	0.03375
4408.95268	0.03383
4407.02400	0.03392
4405.09533	0.03399
4403.16665	0.03405
4401.23798	0.03409
4399.30930	0.03414
4397.38062	0.03421
4395.45195	0.03429
4393.52327	0.03435
4391.59460	0.03439
4389.66592	0.03445
4387.73725	0.03453
4385.80857	0.03459
4383.87989	0.03464
4381.95122	0.03469
4380.02254	0.03476
4378.09387	0.03484
4376.16519	0.03492
4374.23652	0.03499
4372.30784	0.03504
4370.37916	0.03508
4368.45049	0.03514
4366.52181	0.03521
4364.59314	0.03529
4362.66446	0.03536
4360.73579	0.03544
4358.80711	0.03551
4356.87843	0.03555
4354.94976	0.03559
4353.02108	0.03565
4351.09241	0.03573
4349.16373	0.03582
4347.23506	0.03590
4345.30638	0.03596
4343.37770	0.03603
4341.44903	0.03611
4339.52035	0.03619
4337.59168	0.03626
4335.66300	0.03632
4333.73433	0.03640
4331.80565	0.03648
4329.87697	0.03654
4327.94830	0.03660
4326.01962	0.03667
4324.09095	0.03676
4322.16227	0.03684
4320.23360	0.03691
4318.30492	0.03697
4316.37624	0.03703
4314.44757	0.03709
4312.51889	0.03715
4310.59022	0.03722
4308.66154	0.03732
4306.73287	0.03743
4304.80419	0.03752
4302.87551	0.03760
4300.94684	0.03764
4299.01816	0.03769
4297.08949	0.03774
4295.16081	0.03782
4293.23214	0.03792
4291.30346	0.03802
4289.37478	0.03811
4287.44611	0.03819
4285.51743	0.03826
4283.58876	0.03833
4281.66008	0.03840
4279.73141	0.03846
4277.80273	0.03852
4275.87405	0.03859
4273.94538	0.03866
4272.01670	0.03874
4270.08803	0.03884
4268.15935	0.03891
4266.23068	0.03896
4264.30200	0.03900
4262.37332	0.03906
4260.44465	0.03914
4258.51597	0.03923
4256.58730	0.03932
4254.65862	0.03941
4252.72995	0.03949
4250.80127	0.03956
4248.87259	0.03963
4246.94392	0.03972
4245.01524	0.03982
4243.08657	0.03991
4241.15789	0.03997
4239.22922	0.04000
4237.30054	0.04004
4235.37186	0.04012
4233.44319	0.04020
4231.51451	0.04028
4229.58584	0.04035
4227.65716	0.04044
4225.72849	0.04054
4223.79981	0.04063
4221.87113	0.04070
4219.94246	0.04076
4218.01378	0.04084
4216.08511	0.04095
4214.15643	0.04106
4212.22776	0.04114
4210.29908	0.04121
4208.37040	0.04129
4206.44173	0.04137
4204.51305	0.04144
4202.58438	0.04150
4200.65570	0.04157
4198.72703	0.04167
4196.79835	0.04177
4194.86968	0.04186
4192.94100	0.04193
4191.01232	0.04200
4189.08365	0.04208
4187.15497	0.04215
4185.22630	0.04223
4183.29762	0.04231
4181.36895	0.04240
4179.44027	0.04249
4177.51159	0.04256
4175.58292	0.04264
4173.65424	0.04273
4171.72557	0.04282
4169.79689	0.04290
4167.86822	0.04297
4165.93954	0.04305
4164.01086	0.04314
4162.08219	0.04323
4160.15351	0.04331
4158.22484	0.04340
4156.29616	0.04349
4154.36749	0.04357
4152.43881	0.04364
4150.51013	0.04374
4148.58146	0.04383
4146.65278	0.04392
4144.72411	0.04400
4142.79543	0.04407
4140.86676	0.04415
4138.93808	0.04427
4137.00940	0.04438
4135.08073	0.04447
4133.15205	0.04456
4131.22338	0.04464
4129.29470	0.04471
4127.36603	0.04478
4125.43735	0.04487
4123.50867	0.04497
4121.58000	0.04507
4119.65132	0.04516
4117.72265	0.04523
4115.79397	0.04530
4113.86530	0.04539
4111.93662	0.04549
4110.00794	0.04558
4108.07927	0.04568
4106.15059	0.04578
4104.22192	0.04587
4102.29324	0.04596
4100.36457	0.04606
4098.43589	0.04616
4096.50721	0.04623
4094.57854	0.04630
4092.64986	0.04638
4090.72119	0.04647
4088.79251	0.04657
4086.86384	0.04666
4084.93516	0.04675
4083.00648	0.04684
4081.07781	0.04693
4079.14913	0.04703
4077.22046	0.04713
4075.29178	0.04722
4073.36311	0.04732
4071.43443	0.04742
4069.50575	0.04751
4067.57708	0.04760
4065.64840	0.04768
4063.71973	0.04778
4061.79105	0.04789
4059.86238	0.04799
4057.93370	0.04807
4056.00502	0.04814
4054.07635	0.04823
4052.14767	0.04832
4050.21900	0.04842
4048.29032	0.04852
4046.36165	0.04862
4044.43297	0.04872
4042.50429	0.04882
4040.57562	0.04893
4038.64694	0.04904
4036.71827	0.04912
4034.78959	0.04918
4032.86092	0.04927
4030.93224	0.04937
4029.00356	0.04946
4027.07489	0.04955
4025.14621	0.04966
4023.21754	0.04977
4021.28886	0.04987
4019.36019	0.04995
4017.43151	0.05004
4015.50283	0.05016
4013.57416	0.05028
4011.64548	0.05038
4009.71681	0.05044
4007.78813	0.05052
4005.85946	0.05063
4003.93078	0.05073
4002.00210	0.05081
4000.07343	0.05090
3998.14475	0.05100
3996.21608	0.05112
3994.28740	0.05124
3992.35873	0.05135
3990.43005	0.05144
3988.50137	0.05153
3986.57270	0.05163
3984.64402	0.05173
3982.71535	0.05184
3980.78667	0.05196
3978.85800	0.05208
3976.92932	0.05217
3975.00064	0.05225
3973.07197	0.05233
3971.14329	0.05243
3969.21462	0.05254
3967.28594	0.05266
3965.35727	0.05276
3963.42859	0.05286
3961.49991	0.05295
3959.57124	0.05302
3957.64256	0.05310
3955.71389	0.05320
3953.78521	0.05333
3951.85654	0.05344
3949.92786	0.05354
3947.99918	0.05364
3946.07051	0.05374
3944.14183	0.05381
3942.21316	0.05391
3940.28448	0.05405
3938.35581	0.05417
3936.42713	0.05425
3934.49845	0.05429
3932.56978	0.05434
3930.64110	0.05444
3928.71243	0.05458
3926.78375	0.05472
3924.85508	0.05484
3922.92640	0.05497
3920.99772	0.05508
3919.06905	0.05514
3917.14037	0.05524
3915.21170	0.05541
3913.28302	0.05556
3911.35435	0.05565
3909.42567	0.05569
3907.49699	0.05569
3905.56832	0.05568
3903.63964	0.05571
3901.71097	0.05579
3899.78229	0.05596
3897.85362	0.05620
3895.92494	0.05642
3893.99626	0.05649
3892.06759	0.05653
3890.13891	0.05665
3888.21024	0.05676
3886.28156	0.05679
3884.35289	0.05689
3882.42421	0.05700
3880.49553	0.05710
3878.56686	0.05728
3876.63818	0.05744
3874.70951	0.05750
3872.78083	0.05753
3870.85216	0.05757
3868.92348	0.05769
3866.99480	0.05784
3865.06613	0.05796
3863.13745	0.05810
3861.20878	0.05830
3859.28010	0.05844
3857.35143	0.05837
3855.42275	0.05812
3853.49407	0.05809
3851.56540	0.05849
3849.63672	0.05896
3847.70805	0.05920
3845.77937	0.05925
3843.85070	0.05927
3841.92202	0.05932
3839.99334	0.05937
3838.06467	0.05946
3836.13599	0.05962
3834.20732	0.05978
3832.27864	0.05994
3830.34997	0.06012
3828.42129	0.06027
3826.49261	0.06036
3824.56394	0.06037
3822.63526	0.06031
3820.70659	0.06037
3818.77791	0.06056
3816.84924	0.06072
3814.92056	0.06090
3812.99188	0.06115
3811.06321	0.06130
3809.13453	0.06134
3807.20586	0.06140
3805.27718	0.06151
3803.34851	0.06156
3801.41983	0.06160
3799.49115	0.06178
3797.56248	0.06198
3795.63380	0.06216
3793.70513	0.06236
3791.77645	0.06254
3789.84778	0.06265
3787.91910	0.06275
3785.99042	0.06286
3784.06175	0.06295
3782.13307	0.06302
3780.20440	0.06306
3778.27572	0.06317
3776.34705	0.06335
3774.41837	0.06349
3772.48969	0.06355
3770.56102	0.06357
3768.63234	0.06366
3766.70367	0.06382
3764.77499	0.06401
3762.84632	0.06416
3760.91764	0.06421
3758.98896	0.06424
3757.06029	0.06433
3755.13161	0.06439
3753.20294	0.06431
3751.27426	0.06424
3749.34559	0.06437
3747.41691	0.06450
3745.48823	0.06452
3743.55956	0.06472
3741.63088	0.06512
3739.70221	0.06532
3737.77353	0.06526
3735.84486	0.06523
3733.91618	0.06541
3731.98750	0.06570
3730.05883	0.06595
3728.13015	0.06608
3726.20148	0.06615
3724.27280	0.06627
3722.34413	0.06639
3720.41545	0.06652
3718.48677	0.06670
3716.55810	0.06683
3714.62942	0.06682
3712.70075	0.06675
3710.77207	0.06685
3708.84340	0.06708
3706.91472	0.06728
3704.98604	0.06738
3703.05737	0.06742
3701.12869	0.06750
3699.20002	0.06766
3697.27134	0.06780
3695.34267	0.06786
3693.41399	0.06785
3691.48531	0.06782
3689.55664	0.06786
3687.62796	0.06804
3685.69929	0.06828
3683.77061	0.06846
3681.84194	0.06857
3679.91326	0.06858
3677.98458	0.06849
3676.05591	0.06842
3674.12723	0.06854
3672.19856	0.06873
3670.26988	0.06887
3668.34121	0.06911
3666.41253	0.06942
3664.48385	0.06964
3662.55518	0.06977
3660.62650	0.06983
3658.69783	0.06981
3656.76915	0.06981
3654.84048	0.06988
3652.91180	0.06986
3650.98312	0.06965
3649.05445	0.06952
3647.12577	0.06972
3645.19710	0.07013
3643.26842	0.07050
3641.33975	0.07073
3639.41107	0.07087
3637.48239	0.07098
3635.55372	0.07104
3633.62504	0.07104
3631.69637	0.07093
3629.76769	0.07079
3627.83902	0.07094
3625.91034	0.07131
3623.98166	0.07154
3622.05299	0.07153
3620.12431	0.07148
3618.19564	0.07153
3616.26696	0.07165
3614.33829	0.07174
3612.40961	0.07181
3610.48093	0.07188
3608.55226	0.07200
3606.62358	0.07218
3604.69491	0.07233
3602.76623	0.07240
3600.83756	0.07245
3598.90888	0.07252
3596.98020	0.07259
3595.05153	0.07269
3593.12285	0.07282
3591.19418	0.07285
3589.26550	0.07278
3587.33683	0.07281
3585.40815	0.07300
3583.47947	0.07320
3581.55080	0.07334
3579.62212	0.07346
3577.69345	0.07357
3575.76477	0.07366
3573.83610	0.07374
3571.90742	0.07379
3569.97874	0.07375
3568.05007	0.07368
3566.12139	0.07377
3564.19272	0.07398
3562.26404	0.07414
3560.33537	0.07425
3558.40669	0.07435
3556.47801	0.07443
3554.54934	0.07450
3552.62066	0.07458
3550.69199	0.07464
3548.76331	0.07466
3546.83464	0.07469
3544.90596	0.07479
3542.97728	0.07494
3541.04861	0.07505
3539.11993	0.07512
3537.19126	0.07517
3535.26258	0.07523
3533.33391	0.07529
3531.40523	0.07533
3529.47655	0.07536
3527.54788	0.07540
3525.61920	0.07543
3523.69053	0.07547
3521.76185	0.07552
3519.83318	0.07558
3517.90450	0.07565
3515.97582	0.07569
3514.04715	0.07570
3512.11847	0.07571
3510.18980	0.07574
3508.26112	0.07580
3506.33245	0.07584
3504.40377	0.07585
3502.47509	0.07587
3500.54642	0.07589
3498.61774	0.07591
3496.68907	0.07594
3494.76039	0.07598
3492.83172	0.07601
3490.90304	0.07604
3488.97436	0.07609
3487.04569	0.07614
3485.11701	0.07617
3483.18834	0.07617
3481.25966	0.07621
3479.33099	0.07631
3477.40231	0.07642
3475.47363	0.07652
3473.54496	0.07661
3471.61628	0.07670
3469.68761	0.07678
3467.75893	0.07689
3465.83026	0.07702
3463.90158	0.07716
3461.97290	0.07732
3460.04423	0.07747
3458.11555	0.07758
3456.18688	0.07768
3454.25820	0.07781
3452.32953	0.07795
3450.40085	0.07806
3448.47217	0.07812
3446.54350	0.07818
3444.61482	0.07830
3442.68615	0.07846
3440.75747	0.07863
3438.82880	0.07880
3436.90012	0.07902
3434.97144	0.07926
3433.04277	0.07949
3431.11409	0.07971
3429.18542	0.07997
3427.25674	0.08024
3425.32807	0.08048
3423.39939	0.08069
3421.47071	0.08092
3419.54204	0.08117
3417.61336	0.08142
3415.68469	0.08165
3413.75601	0.08184
3411.82734	0.08201
3409.89866	0.08217
3407.96998	0.08233
3406.04131	0.08249
3404.11263	0.08266
3402.18396	0.08283
3400.25528	0.08300
3398.32661	0.08317
3396.39793	0.08336
3394.46925	0.08357
3392.54058	0.08378
3390.61190	0.08398
3388.68323	0.08414
3386.75455	0.08429
3384.82588	0.08446
3382.89720	0.08464
3380.96852	0.08480
3379.03985	0.08493
3377.11117	0.08508
3375.18250	0.08525
3373.25382	0.08543
3371.32515	0.08557
3369.39647	0.08569
3367.46779	0.08584
3365.53912	0.08602
3363.61044	0.08620
3361.68177	0.08636
3359.75309	0.08653
3357.82442	0.08668
3355.89574	0.08683
3353.96706	0.08698
3352.03839	0.08714
3350.10971	0.08734
3348.18104	0.08755
3346.25236	0.08772
3344.32369	0.08785
3342.39501	0.08800
3340.46633	0.08817
3338.53766	0.08833
3336.60898	0.08847
3334.68031	0.08859
3332.75163	0.08872
3330.82296	0.08888
3328.89428	0.08907
3326.96560	0.08925
3325.03693	0.08940
3323.10825	0.08956
3321.17958	0.08974
3319.25090	0.08994
3317.32223	0.09011
3315.39355	0.09026
3313.46487	0.09041
3311.53620	0.09060
3309.60752	0.09078
3307.67885	0.09093
3305.75017	0.09108
3303.82150	0.09122
3301.89282	0.09139
3299.96414	0.09157
3298.03547	0.09176
3296.10679	0.09193
3294.17812	0.09209
3292.24944	0.09228
3290.32077	0.09249
3288.39209	0.09265
3286.46341	0.09278
3284.53474	0.09292
3282.60606	0.09307
3280.67739	0.09323
3278.74871	0.09341
3276.82004	0.09363
3274.89136	0.09383
3272.96268	0.09402
3271.03401	0.09418
3269.10533	0.09435
3267.17666	0.09449
3265.24798	0.09464
3263.31931	0.09481
3261.39063	0.09500
3259.46195	0.09519
3257.53328	0.09534
3255.60460	0.09547
3253.67593	0.09565
3251.74725	0.09588
3249.81858	0.09608
3247.88990	0.09626
3245.96122	0.09643
3244.03255	0.09657
3242.10387	0.09673
3240.17520	0.09691
3238.24652	0.09710
3236.31785	0.09726
3234.38917	0.09741
3232.46049	0.09759
3230.53182	0.09779
3228.60314	0.09798
3226.67447	0.09815
3224.74579	0.09831
3222.81712	0.09845
3220.88844	0.09860
3218.95976	0.09875
3217.03109	0.09889
3215.10241	0.09900
3213.17374	0.09916
3211.24506	0.09935
3209.31639	0.09955
3207.38771	0.09976
3205.45903	0.09997
3203.53036	0.10016
3201.60168	0.10034
3199.67301	0.10050
3197.74433	0.10066
3195.81566	0.10083
3193.88698	0.10102
3191.95830	0.10124
3190.02963	0.10147
3188.10095	0.10169
3186.17228	0.10187
3184.24360	0.10202
3182.31493	0.10216
3180.38625	0.10229
3178.45757	0.10244
3176.52890	0.10262
3174.60022	0.10282
3172.67155	0.10302
3170.74287	0.10322
3168.81420	0.10341
3166.88552	0.10354
3164.95684	0.10366
3163.02817	0.10382
3161.09949	0.10401
3159.17082	0.10416
3157.24214	0.10429
3155.31347	0.10446
3153.38479	0.10467
3151.45611	0.10485
3149.52744	0.10500
3147.59876	0.10514
3145.67009	0.10532
3143.74141	0.10552
3141.81274	0.10570
3139.88406	0.10587
3137.95538	0.10605
3136.02671	0.10622
3134.09803	0.10635
3132.16936	0.10651
3130.24068	0.10669
3128.31201	0.10687
3126.38333	0.10703
3124.45465	0.10722
3122.52598	0.10742
3120.59730	0.10759
3118.66863	0.10774
3116.73995	0.10789
3114.81128	0.10807
3112.88260	0.10822
3110.95392	0.10836
3109.02525	0.10852
3107.09657	0.10871
3105.16790	0.10889
3103.23922	0.10902
3101.31055	0.10915
3099.38187	0.10932
3097.45319	0.10950
3095.52452	0.10968
3093.59584	0.10988
3091.66717	0.11009
3089.73849	0.11026
3087.80982	0.11040
3085.88114	0.11055
3083.95246	0.11073
3082.02379	0.11090
3080.09511	0.11106
3078.16644	0.11121
3076.23776	0.11136
3074.30909	0.11153
3072.38041	0.11172
3070.45173	0.11189
3068.52306	0.11203
3066.59438	0.11215
3064.66571	0.11229
3062.73703	0.11245
3060.80836	0.11261
3058.87968	0.11277
3056.95100	0.11295
3055.02233	0.11315
3053.09365	0.11334
3051.16498	0.11350
3049.23630	0.11366
3047.30763	0.11381
3045.37895	0.11397
3043.45027	0.11410
3041.52160	0.11423
3039.59292	0.11438
3037.66425	0.11453
3035.73557	0.11467
3033.80690	0.11480
3031.87822	0.11493
3029.94954	0.11507
3028.02087	0.11523
3026.09219	0.11541
3024.16352	0.11559
3022.23484	0.11576
3020.30617	0.11591
3018.37749	0.11602
3016.44881	0.11613
3014.52014	0.11627
3012.59146	0.11640
3010.66279	0.11650
3008.73411	0.11661
3006.80544	0.11673
3004.87676	0.11685
3002.94808	0.11693
3001.01941	0.11700
2999.09073	0.11706
2997.16206	0.11710
2995.23338	0.11713
2993.30471	0.11714
2991.37603	0.11712
2989.44735	0.11710
2987.51868	0.11703
2985.59000	0.11690
2983.66133	0.11670
2981.73265	0.11646
2979.80398	0.11619
2977.87530	0.11589
2975.94662	0.11551
2974.01795	0.11507
2972.08927	0.11460
2970.16060	0.11412
2968.23192	0.11364
2966.30325	0.11323
2964.37457	0.11295
2962.44589	0.11285
2960.51722	0.11295
2958.58854	0.11325
2956.65987	0.11376
2954.73119	0.11450
2952.80252	0.11537
2950.87384	0.11624
2948.94516	0.11705
2947.01649	0.11778
2945.08781	0.11836
2943.15914	0.11879
2941.23046	0.11910
2939.30179	0.11929
2937.37311	0.11943
2935.44443	0.11951
2933.51576	0.11951
2931.58708	0.11945
2929.65841	0.11939
2927.72973	0.11935
2925.80106	0.11933
2923.87238	0.11931
2921.94370	0.11927
2920.01503	0.11923
2918.08635	0.11928
2916.15768	0.11952
2914.22900	0.11997
2912.30033	0.12049
2910.37165	0.12090
2908.44297	0.12123
2906.51430	0.12153
2904.58562	0.12186
2902.65695	0.12216
2900.72827	0.12244
2898.79960	0.12274
2896.87092	0.12308
2894.94224	0.12342
2893.01357	0.12377
2891.08489	0.12411
2889.15622	0.12443
2887.22754	0.12473
2885.29887	0.12503
2883.37019	0.12529
2881.44151	0.12548
2879.51284	0.12562
2877.58416	0.12577
2875.65549	0.12598
2873.72681	0.12625
2871.79814	0.12656
2869.86946	0.12683
2867.94078	0.12706
2866.01211	0.12728
2864.08343	0.12750
2862.15476	0.12765
2860.22608	0.12772
2858.29741	0.12777
2856.36873	0.12778
2854.44005	0.12777
2852.51138	0.12778
2850.58270	0.12792
2848.65403	0.12828
2846.72535	0.12884
2844.79668	0.12946
2842.86800	0.12997
2840.93932	0.13039
2839.01065	0.13080
2837.08197	0.13116
2835.15330	0.13142
2833.22462	0.13163
2831.29595	0.13185
2829.36727	0.13205
2827.43859	0.13225
2825.50992	0.13244
2823.58124	0.13262
2821.65257	0.13282
2819.72389	0.13305
2817.79522	0.13327
2815.86654	0.13347
2813.93786	0.13365
2812.00919	0.13383
2810.08051	0.13402
2808.15184	0.13421
2806.22316	0.13437
2804.29449	0.13451
2802.36581	0.13467
2800.43713	0.13487
2798.50846	0.13508
2796.57978	0.13527
2794.65111	0.13544
2792.72243	0.13563
2790.79376	0.13583
2788.86508	0.13602
2786.93640	0.13621
2785.00773	0.13643
2783.07905	0.13666
2781.15038	0.13689
2779.22170	0.13710
2777.29303	0.13728
2775.36435	0.13745
2773.43567	0.13761
2771.50700	0.13775
2769.57832	0.13792
2767.64965	0.13812
2765.72097	0.13829
2763.79230	0.13846
2761.86362	0.13864
2759.93494	0.13880
2758.00627	0.13896
2756.07759	0.13914
2754.14892	0.13934
2752.22024	0.13953
2750.29157	0.13968
2748.36289	0.13979
2746.43421	0.13993
2744.50554	0.14012
2742.57686	0.14030
2740.64819	0.14044
2738.71951	0.14057
2736.79084	0.14072
2734.86216	0.14088
2732.93348	0.14102
2731.00481	0.14118
2729.07613	0.14136
2727.14746	0.14151
2725.21878	0.14165
2723.29011	0.14182
2721.36143	0.14202
2719.43275	0.14218
2717.50408	0.14229
2715.57540	0.14243
2713.64673	0.14259
2711.71805	0.14275
2709.78938	0.14291
2707.86070	0.14310
2705.93202	0.14327
2704.00335	0.14341
2702.07467	0.14355
2700.14600	0.14370
2698.21732	0.14384
2696.28865	0.14396
2694.35997	0.14409
2692.43129	0.14425
2690.50262	0.14443
2688.57394	0.14460
2686.64527	0.14478
2684.71659	0.14494
2682.78792	0.14506
2680.85924	0.14518
2678.93056	0.14533
2677.00189	0.14548
2675.07321	0.14563
2673.14454	0.14582
2671.21586	0.14603
2669.28719	0.14620
2667.35851	0.14633
2665.42983	0.14646
2663.50116	0.14659
2661.57248	0.14671
2659.64381	0.14689
2657.71513	0.14710
2655.78646	0.14728
2653.85778	0.14741
2651.92910	0.14753
2650.00043	0.14769
2648.07175	0.14789
2646.14308	0.14807
2644.21440	0.14825
2642.28573	0.14845
2640.35705	0.14864
2638.42837	0.14877
2636.49970	0.14890
2634.57102	0.14906
2632.64235	0.14923
2630.71367	0.14941
2628.78500	0.14960
2626.85632	0.14977
2624.92764	0.14989
2622.99897	0.15003
2621.07029	0.15022
2619.14162	0.15043
2617.21294	0.15064
2615.28427	0.15081
2613.35559	0.15095
2611.42691	0.15110
2609.49824	0.15125
2607.56956	0.15140
2605.64089	0.15157
2603.71221	0.15179
2601.78354	0.15203
2599.85486	0.15223
2597.92618	0.15236
2595.99751	0.15246
2594.06883	0.15259
2592.14016	0.15275
2590.21148	0.15291
2588.28281	0.15306
2586.35413	0.15321
2584.42545	0.15336
2582.49678	0.15353
2580.56810	0.15370
2578.63943	0.15385
2576.71075	0.15400
2574.78208	0.15416
2572.85340	0.15433
2570.92472	0.15450
2568.99605	0.15467
2567.06737	0.15484
2565.13870	0.15498
2563.21002	0.15509
2561.28135	0.15523
2559.35267	0.15543
2557.42399	0.15564
2555.49532	0.15579
2553.56664	0.15589
2551.63797	0.15601
2549.70929	0.15614
2547.78062	0.15630
2545.85194	0.15650
2543.92326	0.15670
2541.99459	0.15685
2540.06591	0.15698
2538.13724	0.15711
2536.20856	0.15724
2534.27989	0.15737
2532.35121	0.15751
2530.42253	0.15765
2528.49386	0.15781
2526.56518	0.15796
2524.63651	0.15812
2522.70783	0.15829
2520.77916	0.15845
2518.85048	0.15859
2516.92181	0.15874
2514.99313	0.15895
2513.06445	0.15915
2511.13578	0.15932
2509.20710	0.15946
2507.27843	0.15963
2505.34975	0.15981
2503.42108	0.15998
2501.49240	0.16014
2499.56372	0.16033
2497.63505	0.16053
2495.70637	0.16071
2493.77770	0.16086
2491.84902	0.16100
2489.92035	0.16118
2487.99167	0.16136
2486.06299	0.16150
2484.13432	0.16162
2482.20564	0.16181
2480.27697	0.16205
2478.34829	0.16225
2476.41962	0.16238
2474.49094	0.16253
2472.56226	0.16273
2470.63359	0.16293
2468.70491	0.16308
2466.77624	0.16321
2464.84756	0.16336
2462.91889	0.16354
2460.99021	0.16372
2459.06153	0.16391
2457.13286	0.16409
2455.20418	0.16424
2453.27551	0.16437
2451.34683	0.16451
2449.41816	0.16466
2447.48948	0.16479
2445.56080	0.16493
2443.63213	0.16512
2441.70345	0.16534
2439.77478	0.16553
2437.84610	0.16567
2435.91743	0.16584
2433.98875	0.16603
2432.06007	0.16617
2430.13140	0.16629
2428.20272	0.16646
2426.27405	0.16664
2424.34537	0.16679
2422.41670	0.16692
2420.48802	0.16708
2418.55934	0.16726
2416.63067	0.16743
2414.70199	0.16760
2412.77332	0.16778
2410.84464	0.16794
2408.91597	0.16806
2406.98729	0.16816
2405.05861	0.16831
2403.12994	0.16848
2401.20126	0.16863
2399.27259	0.16878
2397.34391	0.16895
2395.41524	0.16912
2393.48656	0.16931
2391.55788	0.16951
2389.62921	0.16968
2387.70053	0.16981
2385.77186	0.16992
2383.84318	0.17001
2381.91451	0.17010
2379.98583	0.17018
2378.05715	0.17024
2376.12848	0.17029
2374.19980	0.17028
2372.27113	0.17024
2370.34245	0.17023
2368.41378	0.17026
2366.48510	0.17029
2364.55642	0.17037
2362.62775	0.17051
2360.69907	0.17070
2358.77040	0.17090
2356.84172	0.17112
2354.91305	0.17142
2352.98437	0.17180
2351.05569	0.17220
2349.12702	0.17246
2347.19834	0.17250
2345.26967	0.17244
2343.34099	0.17243
2341.41232	0.17250
2339.48364	0.17263
2337.55496	0.17276
2335.62629	0.17290
2333.69761	0.17308
2331.76894	0.17329
2329.84026	0.17353
2327.91159	0.17376
2325.98291	0.17396
2324.05423	0.17414
2322.12556	0.17434
2320.19688	0.17455
2318.26821	0.17475
2316.33953	0.17494
2314.41086	0.17517
2312.48218	0.17544
2310.55350	0.17569
2308.62483	0.17588
2306.69615	0.17603
2304.76748	0.17618
2302.83880	0.17633
2300.91013	0.17646
2298.98145	0.17663
2297.05277	0.17683
2295.12410	0.17701
2293.19542	0.17714
2291.26675	0.17727
2289.33807	0.17742
2287.40940	0.17757
2285.48072	0.17774
2283.55204	0.17792
2281.62337	0.17805
2279.69469	0.17817
2277.76602	0.17831
2275.83734	0.17849
2273.90867	0.17866
2271.97999	0.17878
2270.05131	0.17893
2268.12264	0.17907
2266.19396	0.17917
2264.26529	0.17928
2262.33661	0.17939
2260.40794	0.17946
2258.47926	0.17955
2256.55058	0.17970
2254.62191	0.17987
2252.69323	0.18000
2250.76456	0.18011
2248.83588	0.18021
2246.90721	0.18031
2244.97853	0.18041
2243.04985	0.18053
2241.12118	0.18066
2239.19250	0.18078
2237.26383	0.18088
2235.33515	0.18099
2233.40648	0.18112
2231.47780	0.18123
2229.54912	0.18134
2227.62045	0.18145
2225.69177	0.18154
2223.76310	0.18163
2221.83442	0.18176
2219.90575	0.18193
2217.97707	0.18209
2216.04839	0.18218
2214.11972	0.18222
2212.19104	0.18228
2210.26237	0.18236
2208.33369	0.18247
2206.40502	0.18261
2204.47634	0.18273
2202.54766	0.18285
2200.61899	0.18295
2198.69031	0.18298
2196.76164	0.18301
2194.83296	0.18309
2192.90429	0.18319
2190.97561	0.18327
2189.04693	0.18332
2187.11826	0.18335
2185.18958	0.18338
2183.26091	0.18343
2181.33223	0.18350
2179.40356	0.18359
2177.47488	0.18366
2175.54620	0.18369
2173.61753	0.18372
2171.68885	0.18379
2169.76018	0.18394
2167.83150	0.18408
2165.90283	0.18418
2163.97415	0.18425
2162.04547	0.18435
2160.11680	0.18449
2158.18812	0.18462
2156.25945	0.18471
2154.33077	0.18480
2152.40210	0.18492
2150.47342	0.18508
2148.54474	0.18527
2146.61607	0.18544
2144.68739	0.18557
2142.75872	0.18572
2140.83004	0.18588
2138.90137	0.18603
2136.97269	0.18618
2135.04401	0.18634
2133.11534	0.18652
2131.18666	0.18673
2129.25799	0.18693
2127.32931	0.18712
2125.40064	0.18732
2123.47196	0.18754
2121.54328	0.18778
2119.61461	0.18803
2117.68593	0.18830
2115.75726	0.18855
2113.82858	0.18878
2111.89991	0.18905
2109.97123	0.18932
2108.04255	0.18956
2106.11388	0.18981
2104.18520	0.19008
2102.25653	0.19037
2100.32785	0.19066
2098.39918	0.19090
2096.47050	0.19113
2094.54182	0.19137
2092.61315	0.19163
2090.68447	0.19191
2088.75580	0.19221
2086.82712	0.19245
2084.89845	0.19265
2082.96977	0.19288
2081.04109	0.19314
2079.11242	0.19338
2077.18374	0.19361
2075.25507	0.19383
2073.32639	0.19402
2071.39772	0.19423
2069.46904	0.19447
2067.54036	0.19466
2065.61169	0.19481
2063.68301	0.19498
2061.75434	0.19518
2059.82566	0.19537
2057.89699	0.19556
2055.96831	0.19576
2054.03963	0.19593
2052.11096	0.19606
2050.18228	0.19617
2048.25361	0.19631
2046.32493	0.19649
2044.39626	0.19669
2042.46758	0.19689
2040.53890	0.19708
2038.61023	0.19724
2036.68155	0.19736
2034.75288	0.19748
2032.82420	0.19762
2030.89553	0.19783
2028.96685	0.19804
2027.03817	0.19819
2025.10950	0.19831
2023.18082	0.19844
2021.25215	0.19854
2019.32347	0.19859
2017.39480	0.19866
2015.46612	0.19883
2013.53744	0.19906
2011.60877	0.19926
2009.68009	0.19941
2007.75142	0.19958
2005.82274	0.19977
2003.89407	0.19991
2001.96539	0.19995
2000.03671	0.20002
1998.10804	0.20016
1996.17936	0.20034
1994.25069	0.20049
1992.32201	0.20059
1990.39334	0.20070
1988.46466	0.20085
1986.53598	0.20100
1984.60731	0.20111
1982.67863	0.20121
1980.74996	0.20131
1978.82128	0.20141
1976.89261	0.20152
1974.96393	0.20167
1973.03525	0.20183
1971.10658	0.20193
1969.17790	0.20197
1967.24923	0.20208
1965.32055	0.20227
1963.39188	0.20242
1961.46320	0.20250
1959.53452	0.20258
1957.60585	0.20269
1955.67717	0.20283
1953.74850	0.20296
1951.81982	0.20309
1949.89115	0.20322
1947.96247	0.20337
1946.03379	0.20351
1944.10512	0.20357
1942.17644	0.20364
1940.24777	0.20385
1938.31909	0.20411
1936.39042	0.20427
1934.46174	0.20435
1932.53306	0.20444
1930.60439	0.20454
1928.67571	0.20467
1926.74704	0.20483
1924.81836	0.20496
1922.88969	0.20505
1920.96101	0.20514
1919.03233	0.20519
1917.10366	0.20533
1915.17498	0.20560
1913.24631	0.20581
1911.31763	0.20591
1909.38896	0.20601
1907.46028	0.20618
1905.53160	0.20638
1903.60293	0.20653
1901.67425	0.20664
1899.74558	0.20677
1897.81690	0.20690
1895.88823	0.20700
1893.95955	0.20713
1892.03087	0.20726
1890.10220	0.20732
1888.17352	0.20743
1886.24485	0.20761
1884.31617	0.20780
1882.38750	0.20794
1880.45882	0.20806
1878.53014	0.20818
1876.60147	0.20831
1874.67279	0.20844
1872.74412	0.20853
1870.81544	0.20847
1868.88677	0.20841
1866.95809	0.20861
1865.02941	0.20899
1863.10074	0.20925
1861.17206	0.20937
1859.24339	0.20946
1857.31471	0.20960
1855.38604	0.20978
1853.45736	0.20999
1851.52868	0.21016
1849.60001	0.21024
1847.67133	0.21012
1845.74266	0.20984
1843.81398	0.20984
1841.88531	0.21034
1839.95663	0.21083
1838.02795	0.21103
1836.09928	0.21115
1834.17060	0.21123
1832.24193	0.21114
1830.31325	0.21103
1828.38458	0.21112
1826.45590	0.21128
1824.52722	0.21152
1822.59855	0.21188
1820.66987	0.21217
1818.74120	0.21230
1816.81252	0.21242
1814.88385	0.21252
1812.95517	0.21249
1811.02649	0.21242
1809.09782	0.21254
1807.16914	0.21275
1805.24047	0.21285
1803.31179	0.21282
1801.38312	0.21281
1799.45444	0.21293
1797.52576	0.21309
1795.59709	0.21312
1793.66841	0.21302
1791.73974	0.21306
1789.81106	0.21337
1787.88239	0.21365
1785.95371	0.21372
1784.02503	0.21376
1782.09636	0.21383
1780.16768	0.21391
1778.23901	0.21401
1776.31033	0.21393
1774.38166	0.21362
1772.45298	0.21340
1770.52430	0.21345
1768.59563	0.21365
1766.66695	0.21397
1764.73828	0.21424
1762.80960	0.21426
1760.88093	0.21427
1758.95225	0.21429
1757.02357	0.21426
1755.09490	0.21427
1753.16622	0.21412
1751.23755	0.21377
1749.30887	0.21359
1747.38020	0.21363
1745.45152	0.21367
1743.52284	0.21361
1741.59417	0.21351
1739.66549	0.21344
1737.73682	0.21316
1735.80814	0.21250
1733.87947	0.21217
1731.95079	0.21259
1730.02211	0.21317
1728.09344	0.21353
1726.16476	0.21373
1724.23609	0.21376
1722.30741	0.21365
1720.37874	0.21327
1718.45006	0.21287
1716.52138	0.21289
1714.59271	0.21331
1712.66403	0.21385
1710.73536	0.21421
1708.80668	0.21426
1706.87801	0.21417
1704.94933	0.21408
1703.02065	0.21365
1701.09198	0.21298
1699.16330	0.21289
1697.23463	0.21324
1695.30595	0.21369
1693.37728	0.21436
1691.44860	0.21477
1689.51992	0.21471
1687.59125	0.21441
1685.66257	0.21394
1683.73390	0.21394
1681.80522	0.21455
1679.87655	0.21506
1677.94787	0.21516
1676.01919	0.21510
1674.09052	0.21507
1672.16184	0.21488
1670.23317	0.21458
1668.30449	0.21480
1666.37582	0.21538
1664.44714	0.21561
1662.51846	0.21558
1660.58979	0.21572
1658.66111	0.21580
1656.73244	0.21532
1654.80376	0.21446
1652.87509	0.21427
1650.94641	0.21486
1649.01773	0.21510
1647.08906	0.21493
1645.16038	0.21517
1643.23171	0.21570
1641.30303	0.21599
1639.37436	0.21582
1637.44568	0.21521
1635.51700	0.21482
1633.58833	0.21525
1631.65965	0.21585
1629.73098	0.21588
1627.80230	0.21560
1625.87363	0.21525
1623.94495	0.21481
1622.01627	0.21454
1620.08760	0.21449
1618.15892	0.21457
1616.23025	0.21511
1614.30157	0.21606
1612.37290	0.21677
1610.44422	0.21707
1608.51554	0.21726
1606.58687	0.21751
1604.65819	0.21771
1602.72952	0.21786
1600.80084	0.21804
1598.87217	0.21821
1596.94349	0.21831
1595.01481	0.21843
1593.08614	0.21861
1591.15746	0.21874
1589.22879	0.21881
1587.30011	0.21894
1585.37144	0.21912
1583.44276	0.21932
1581.51408	0.21948
1579.58541	0.21946
1577.65673	0.21930
1575.72806	0.21936
1573.79938	0.21962
1571.87071	0.21960
1569.94203	0.21948
1568.01335	0.21972
1566.08468	0.22007
1564.15600	0.22018
1562.22733	0.21982
1560.29865	0.21906
1558.36998	0.21886
1556.44130	0.21952
1554.51262	0.22027
1552.58395	0.22071
1550.65527	0.22097
1548.72660	0.22109
1546.79792	0.22101
1544.86925	0.22064
1542.94057	0.22011
1541.01189	0.21976
1539.08322	0.22003
1537.15454	0.22074
1535.22587	0.22114
1533.29719	0.22119
1531.36852	0.22124
1529.43984	0.22120
1527.51116	0.22106
1525.58249	0.22094
1523.65381	0.22061
1521.72514	0.22016
1519.79646	0.22015
1517.86779	0.22051
1515.93911	0.22098
1514.01043	0.22140
1512.08176	0.22144
1510.15308	0.22106
1508.22441	0.22056
1506.29573	0.22050
1504.36706	0.22109
1502.43838	0.22166
1500.50970	0.22163
1498.58103	0.22139
1496.65235	0.22138
1494.72368	0.22147
1492.79500	0.22120
1490.86633	0.22068
1488.93765	0.22048
1487.00897	0.22067
1485.08030	0.22083
1483.15162	0.22077
1481.22295	0.22055
1479.29427	0.22024
1477.36560	0.21977
1475.43692	0.21914
1473.50824	0.21845
1471.57957	0.21798
1469.65089	0.21776
1467.72222	0.21748
1465.79354	0.21708
1463.86487	0.21679
1461.93619	0.21649
1460.00751	0.21581
1458.07884	0.21497
1456.15016	0.21475
1454.22149	0.21524
1452.29281	0.21565
1450.36414	0.21566
1448.43546	0.21554
1446.50678	0.21563
1444.57811	0.21589
1442.64943	0.21605
1440.72076	0.21591
1438.79208	0.21537
1436.86341	0.21500
1434.93473	0.21538
1433.00605	0.21590
1431.07738	0.21598
1429.14870	0.21593
1427.22003	0.21591
1425.29135	0.21576
1423.36268	0.21547
1421.43400	0.21496
1419.50532	0.21437
1417.57665	0.21413
1415.64797	0.21427
1413.71930	0.21437
1411.79062	0.21436
1409.86195	0.21438
1407.93327	0.21443
1406.00459	0.21451
1404.07592	0.21459
1402.14724	0.21458
1400.21857	0.21447
1398.28989	0.21444
1396.36122	0.21451
1394.43254	0.21470
1392.50386	0.21506
1390.57519	0.21515
1388.64651	0.21476
1386.71784	0.21443
1384.78916	0.21443
1382.86049	0.21448
1380.93181	0.21448
1379.00313	0.21444
1377.07446	0.21434
1375.14578	0.21425
1373.21711	0.21424
1371.28843	0.21419
1369.35976	0.21403
1367.43108	0.21388
1365.50240	0.21373
1363.57373	0.21348
1361.64505	0.21323
1359.71638	0.21312
1357.78770	0.21305
1355.85903	0.21302
1353.93035	0.21312
1352.00167	0.21337
1350.07300	0.21366
1348.14432	0.21388
1346.21565	0.21408
1344.28697	0.21422
1342.35830	0.21421
1340.42962	0.21408
1338.50094	0.21395
1336.57227	0.21387
1334.64359	0.21381
1332.71492	0.21371
1330.78624	0.21358
1328.85757	0.21337
1326.92889	0.21306
1325.00021	0.21274
1323.07154	0.21245
1321.14286	0.21216
1319.21419	0.21188
1317.28551	0.21166
1315.35684	0.21149
1313.42816	0.21130
1311.49948	0.21101
1309.57081	0.21062
1307.64213	0.21020
1305.71346	0.20980
1303.78478	0.20940
1301.85611	0.20903
1299.92743	0.20868
1297.99875	0.20830
1296.07008	0.20792
1294.14140	0.20759
1292.21273	0.20724
1290.28405	0.20678
1288.35538	0.20623
1286.42670	0.20567
1284.49802	0.20506
1282.56935	0.20429
1280.64067	0.20327
1278.71200	0.20206
1276.78332	0.20055
1274.85465	0.19860
1272.92597	0.19615
1270.99729	0.19328
1269.06862	0.19011
1267.13994	0.18675
1265.21127	0.18353
1263.28259	0.18090
1261.35392	0.17928
1259.42524	0.17885
1257.49656	0.17940
1255.56789	0.18063
1253.63921	0.18235
1251.71054	0.18448
1249.78186	0.18698
1247.85319	0.18957
1245.92451	0.19191
1243.99583	0.19377
1242.06716	0.19512
1240.13848	0.19596
1238.20981	0.19628
1236.28113	0.19615
1234.35246	0.19576
1232.42378	0.19529
1230.49510	0.19475
1228.56643	0.19418
1226.63775	0.19359
1224.70908	0.19302
1222.78040	0.19247
1220.85173	0.19186
1218.92305	0.19119
1216.99437	0.19052
1215.06570	0.18984
1213.13702	0.18911
1211.20835	0.18842
1209.27967	0.18781
1207.35100	0.18716
1205.42232	0.18643
1203.49364	0.18563
1201.56497	0.18477
1199.63629	0.18394
1197.70762	0.18320
1195.77894	0.18242
1193.85027	0.18158
1191.92159	0.18076
1189.99291	0.17995
1188.06424	0.17905
1186.13556	0.17809
1184.20689	0.17706
1182.27821	0.17596
1180.34954	0.17486
1178.42086	0.17376
1176.49218	0.17267
1174.56351	0.17164
1172.63483	0.17056
1170.70616	0.16938
1168.77748	0.16818
1166.84881	0.16701
1164.92013	0.16585
1162.99145	0.16464
1161.06278	0.16341
1159.13410	0.16220
1157.20543	0.16099
1155.27675	0.15978
1153.34808	0.15859
1151.41940	0.15741
1149.49072	0.15621
1147.56205	0.15494
1145.63337	0.15359
1143.70470	0.15221
1141.77602	0.15076
1139.84735	0.14925
1137.91867	0.14773
1135.98999	0.14615
1134.06132	0.14437
1132.13264	0.14231
1130.20397	0.13997
1128.27529	0.13744
1126.34662	0.13481
1124.41794	0.13213
1122.48926	0.12941
1120.56059	0.12671
1118.63191	0.12413
1116.70324	0.12176
1114.77456	0.11960
1112.84589	0.11763
1110.91721	0.11591
1108.98853	0.11451
1107.05986	0.11339
1105.13118	0.11250
1103.20251	0.11185
1101.27383	0.11143
1099.34516	0.11119
1097.41648	0.11112
1095.48780	0.11122
1093.55913	0.11140
1091.63045	0.11157
1089.70178	0.11168
1087.77310	0.11169
1085.84443	0.11167
1083.91575	0.11161
1081.98707	0.11140
1080.05840	0.11103
1078.12972	0.11062
1076.20105	0.11021
1074.27237	0.10979
1072.34370	0.10939
1070.41502	0.10904
1068.48634	0.10874
1066.55767	0.10846
1064.62899	0.10823
1062.70032	0.10800
1060.77164	0.10774
1058.84297	0.10755
1056.91429	0.10748
1054.98561	0.10743
1053.05694	0.10734
1051.12826	0.10728
1049.19959	0.10730
1047.27091	0.10739
1045.34224	0.10754
1043.41356	0.10770
1041.48488	0.10780
1039.55621	0.10796
1037.62753	0.10830
1035.69886	0.10877
1033.77018	0.10924
1031.84151	0.10960
1029.91283	0.10995
1027.98415	0.11049
1026.05548	0.11115
1024.12680	0.11182
1022.19813	0.11254
1020.26945	0.11338
1018.34078	0.11432
1016.41210	0.11533
1014.48342	0.11639
1012.55475	0.11758
1010.62607	0.11886
1008.69740	0.12010
1006.76872	0.12133
1004.84005	0.12263
1002.91137	0.12394
1000.98269	0.12519
999.05402	0.12634
997.12534	0.12739
995.19667	0.12842
993.26799	0.12942
991.33932	0.13043
989.41064	0.13146
987.48196	0.13242
985.55329	0.13330
983.62461	0.13414
981.69594	0.13492
979.76726	0.13564
977.83859	0.13630
975.90991	0.13694
973.98123	0.13758
972.05256	0.13816
970.12388	0.13870
968.19521	0.13921
966.26653	0.13962
964.33786	0.13986
962.40918	0.14004
960.48050	0.14025
958.55183	0.14048
956.62315	0.14071
954.69448	0.14090
952.76580	0.14100
950.83713	0.14102
948.90845	0.14102
946.97977	0.14101
945.05110	0.14088
943.12242	0.14058
941.19375	0.14024
939.26507	0.13985
937.33640	0.13936
935.40772	0.13887
933.47904	0.13844
931.55037	0.13792
929.62169	0.13729
927.69302	0.13666
925.76434	0.13602
923.83567	0.13531
921.90699	0.13449
919.97831	0.13353
918.04964	0.13244
916.12096	0.13132
914.19229	0.13017
912.26361	0.12903
910.33494	0.12800
908.40626	0.12708
906.47758	0.12627
904.54891	0.12555
902.62023	0.12484
900.69156	0.12413
898.76288	0.12348
896.83421	0.12292
894.90553	0.12237
892.97685	0.12174
891.04818	0.12114
889.11950	0.12067
887.19083	0.12021
885.26215	0.11966
883.33348	0.11913
881.40480	0.11868
879.47612	0.11828
877.54745	0.11781
875.61877	0.11727
873.69010	0.11681
871.76142	0.11645
869.83275	0.11602
867.90407	0.11546
865.97539	0.11488
864.04672	0.11434
862.11804	0.11386
860.18937	0.11341
858.26069	0.11290
856.33202	0.11220
854.40334	0.11127
852.47466	0.11022
850.54599	0.10909
848.61731	0.10789
846.68864	0.10670
844.75996	0.10562
842.83129	0.10476
840.90261	0.10427
838.97394	0.10410
837.04526	0.10398
835.11658	0.10386
833.18791	0.10375
831.25923	0.10349
829.33056	0.10297
827.40188	0.10233
825.47321	0.10175
823.54453	0.10122
821.61585	0.10063
819.68718	0.09992
817.75850	0.09919
815.82983	0.09857
813.90115	0.09795
811.97248	0.09717
810.04380	0.09632
808.11512	0.09555
806.18645	0.09491
804.25777	0.09436
802.32910	0.09383
800.40042	0.09324
798.47175	0.09263
796.54307	0.09217
794.61439	0.09194
792.68572	0.09190
790.75704	0.09207
788.82837	0.09237
786.89969	0.09264
784.97102	0.09284
783.04234	0.09298
781.11366	0.09312
779.18499	0.09333
777.25631	0.09356
775.32764	0.09369
773.39896	0.09368
771.47029	0.09363
769.54161	0.09366
767.61293	0.09368
765.68426	0.09364
763.75558	0.09361
761.82691	0.09357
759.89823	0.09347
757.96956	0.09340
756.04088	0.09339
754.11220	0.09335
752.18353	0.09324
750.25485	0.09308
748.32618	0.09293
746.39750	0.09272
744.46883	0.09235
742.54015	0.09185
740.61147	0.09139
738.68280	0.09114
736.75412	0.09119
734.82545	0.09135
732.89677	0.09147
730.96810	0.09167
729.03942	0.09200
727.11074	0.09233
725.18207	0.09259
723.25339	0.09279
721.32472	0.09297
719.39604	0.09324
717.46737	0.09363
715.53869	0.09401
713.61001	0.09438
711.68134	0.09477
709.75266	0.09507
707.82399	0.09521
705.89531	0.09521
703.96664	0.09508
702.03796	0.09475
700.10928	0.09431
698.18061	0.09388
696.25193	0.09338
694.32326	0.09277
692.39458	0.09223
690.46591	0.09181
688.53723	0.09139
686.60855	0.09100
684.67988	0.09064
682.75120	0.09022
680.82253	0.08975
678.89385	0.08925
676.96518	0.08876
675.03650	0.08825
673.10782	0.08763
671.17915	0.08679
669.25047	0.08583
667.32180	0.08502
665.39312	0.08434
663.46445	0.08360
661.53577	0.08280
659.60709	0.08198
657.67842	0.08117
655.74974	0.08039
653.82107	0.07966
651.89239	0.07896
649.96372	0.07820
648.03504	0.07731
646.10636	0.07632
644.17769	0.07529
642.24901	0.07436
640.32034	0.07350
638.39166	0.07256
636.46299	0.07151
634.53431	0.07033
632.60563	0.06884
630.67696	0.06648
628.74828	0.06287
626.81961	0.05846
624.89093	0.05403
622.96226	0.05044
621.03358	0.04822
619.10490	0.04706
617.17623	0.04627
615.24755	0.04542
613.31888	0.04442
611.39020	0.04352
609.46153	0.04305
607.53285	0.04303
605.60417	0.04328
603.67550	0.04378
601.74682	0.04459
599.81815	0.04564
597.88947	0.04663
595.96080	0.04727
594.03212	0.04758
592.10344	0.04775
590.17477	0.04792
588.24609	0.04797
586.31742	0.04778
584.38874	0.04746
582.46007	0.04716
580.53139	0.04683
578.60271	0.04647
576.67404	0.04606
574.74536	0.04552
572.81669	0.04486
570.88801	0.04413
568.95934	0.04344
567.03066	0.04291
565.10198	0.04256
563.17331	0.04233
561.24463	0.04212
559.31596	0.04184
557.38728	0.04147
555.45861	0.04120
553.52993	0.04108
551.60125	0.04093
549.67258	0.04064
547.74390	0.04031
545.81523	0.04005
543.88655	0.03992
541.95788	0.03990
540.02920	0.03983
538.10052	0.03963
536.17185	0.03943
534.24317	0.03923
532.31450	0.03894
530.38582	0.03866
528.45715	0.03846
526.52847	0.03824
524.59979	0.03794
522.67112	0.03756
520.74244	0.03713
518.81377	0.03656
516.88509	0.03587
514.95642	0.03524
513.02774	0.03481
511.09906	0.03456
509.17039	0.03438
507.24171	0.03413
505.31304	0.03384
503.38436	0.03357
501.45569	0.03324
499.52701	0.03275
497.59833	0.03212
495.66966	0.03143
493.74098	0.03083
491.81231	0.03042
489.88363	0.03005
487.95496	0.02958
486.02628	0.02898
484.09760	0.02827
482.16893	0.02753
480.24025	0.02687
478.31158	0.02634
476.38290	0.02589
474.45423	0.02543
472.52555	0.02490
470.59687	0.02436
468.66820	0.02393
466.73952	0.02364
464.81085	0.02341
462.88217	0.02320
460.95350	0.02303
459.02482	0.02284
457.09614	0.02272
455.16747	0.02278
453.23879	0.02284
451.31012	0.02276
449.38144	0.02261
447.45277	0.02250
445.52409	0.02242
443.59541	0.02222
441.66674	0.02188
439.73806	0.02149
437.80939	0.02105
435.88071	0.02056
433.95204	0.02003
432.02336	0.01946
430.09468	0.01888
428.16601	0.01830
426.23733	0.01765
424.30866	0.01691
422.37998	0.01617
420.45131	0.01550
418.52263	0.01486
416.59395	0.01420
414.66528	0.01352
412.73660	0.01288
410.80793	0.01227
408.87925	0.01173
406.95058	0.01123
405.02190	0.01070
403.09322	0.01011
401.16455	0.00961
399.23587	0.00920
397.30720	0.00872
395.37852	0.00813
393.44985	0.00754
391.52117	0.00708
389.59249	0.00670
387.66382	0.00622
385.73514	0.00564
383.80647	0.00513
381.87779	0.00479
379.94912	0.00455
378.02044	0.00423
376.09176	0.00380
374.16309	0.00342
372.23441	0.00312
370.30574	0.00283
368.37706	0.00249
