7496.76 1.0054
7494.83 0.989394
7492.91 0.977008
7490.98 0.987345
7489.05 1.00156
7487.12 0.992998
7485.19 0.989718
7483.26 0.97523
7481.33 0.977328
7479.4 0.984643
7477.48 1.00045
7475.55 1.01312
7473.62 1.01953
7471.69 1.01753
7469.76 1.0047
7467.83 0.995092
7465.9 0.992322
7463.98 1.00555
7462.05 1.01397
7460.12 1.01126
7458.19 0.988321
7456.26 0.981401
7454.33 0.988378
7452.4 0.998698
7450.47 0.992739
7448.55 0.990719
7446.62 0.992277
7444.69 1.00561
7442.76 1.01392
7440.83 1.00631
7438.9 0.997412
7436.97 0.983971
7435.04 0.982034
7433.12 0.986787
7431.19 0.985518
7429.26 0.981331
7427.33 0.977363
7425.4 0.9759
7423.47 0.985551
7421.54 0.991928
7419.62 0.995043
7417.69 0.988445
7415.76 0.988175
7413.83 0.99427
7411.9 0.991677
7409.97 0.982873
7408.04 0.983401
7406.11 0.998266
7404.19 1.00179
7402.26 1.00479
7400.33 1.00043
7398.4 0.996886
7396.47 0.995524
7394.54 0.997904
7392.61 0.994699
7390.69 0.989984
7388.76 0.984066
7386.83 0.985006
7384.9 0.991108
7382.97 1.00088
7381.04 0.997986
7379.11 0.99013
7377.18 0.984088
7375.26 0.98601
7373.33 1.00338
7371.4 1.00996
7369.47 1.00564
7367.54 0.995285
7365.61 0.98728
7363.68 0.985182
7361.76 0.981983
7359.83 0.979343
7357.9 0.982782
7355.97 0.98882
7354.04 0.990491
7352.11 0.989227
7350.18 0.995096
7348.25 0.997457
7346.33 0.99551
7344.4 0.985967
7342.47 0.981374
7340.54 0.987273
7338.61 1.00162
7336.68 1.00207
7334.75 0.99502
7332.83 0.986216
7330.9 0.994057
7328.97 0.991737
7327.04 0.986172
7325.11 0.991381
7323.18 0.98938
7321.25 0.979887
7319.32 0.970972
7317.4 0.967729
7315.47 0.966436
7313.54 0.970793
7311.61 0.983991
7309.68 0.988394
7307.75 0.978266
7305.82 0.978944
7303.89 0.98598
7301.97 0.987256
7300.04 0.97601
7298.11 0.96644
7296.18 0.968825
7294.25 0.974479
7292.32 0.978335
7290.39 0.987402
7288.47 0.998413
7286.54 1.0044
7284.61 0.998082
7282.68 0.990042
7280.75 0.985146
7278.82 0.979399
7276.89 0.971342
7274.96 0.965711
7273.04 0.970442
7271.11 0.980297
7269.18 0.979682
7267.25 0.982108
7265.32 0.984836
7263.39 0.988221
7261.46 0.989483
7259.54 0.987024
7257.61 0.987691
7255.68 0.98846
7253.75 0.993465
7251.82 0.999683
7249.89 1.00109
7247.96 0.994278
7246.03 0.989709
7244.11 0.986462
7242.18 0.984117
7240.25 0.983326
7238.32 0.981302
7236.39 0.986922
7234.46 0.987624
7232.53 0.983764
7230.61 0.979058
7228.68 0.976769
7226.75 0.980785
7224.82 0.988903
7222.89 0.988215
7220.96 0.981078
7219.03 0.979697
7217.1 0.982888
7215.18 0.991289
7213.25 0.988787
7211.32 0.976151
7209.39 0.975454
7207.46 0.973979
7205.53 0.971298
7203.6 0.970722
7201.68 0.969168
7199.75 0.983452
7197.82 0.991692
7195.89 0.995276
7193.96 0.9989
7192.03 0.995636
7190.1 0.991847
7188.17 0.990637
7186.25 0.987637
7184.32 0.995943
7182.39 1.0028
7180.46 0.995516
7178.53 0.990591
7176.6 0.994777
7174.67 0.995627
7172.74 0.991978
7170.82 0.994747
7168.89 0.990782
7166.96 0.989293
7165.03 0.989403
7163.1 0.993253
7161.17 0.998101
7159.24 0.995428
7157.32 0.993205
7155.39 0.993749
7153.46 0.991819
7151.53 0.985066
7149.6 0.985578
7147.67 0.981634
7145.74 0.982795
7143.81 0.983558
7141.89 0.986456
7139.96 0.989538
7138.03 0.989548
7136.1 0.988663
7134.17 0.983983
7132.24 0.983007
7130.31 0.983388
7128.39 0.983359
7126.46 0.980289
7124.53 0.980162
7122.6 0.976424
7120.67 0.977153
7118.74 0.978184
7116.81 0.980206
7114.88 0.984386
7112.96 0.990338
7111.03 0.992779
7109.1 0.993679
7107.17 0.995504
7105.24 0.99912
7103.31 1.00373
7101.38 1.00126
7099.46 0.996885
7097.53 0.986296
7095.6 0.98181
7093.67 0.986763
7091.74 0.994066
7089.81 0.995214
7087.88 0.994882
7085.95 0.994194
7084.03 0.987485
7082.1 0.986863
7080.17 0.983023
7078.24 0.980243
7076.31 0.980404
7074.38 0.981819
7072.45 0.983388
7070.53 0.986833
7068.6 0.993831
7066.67 0.993606
7064.74 0.992013
7062.81 0.985383
7060.88 0.976408
7058.95 0.973116
7057.02 0.982721
7055.1 0.995491
7053.17 0.995205
7051.24 0.984056
7049.31 0.977273
7047.38 0.979613
7045.45 0.984146
7043.52 0.981749
7041.6 0.98014
7039.67 0.977487
7037.74 0.980886
7035.81 0.989267
7033.88 0.998124
7031.95 0.998674
7030.02 0.996589
7028.09 0.996366
7026.17 1.00297
7024.24 0.999559
7022.31 0.995748
7020.38 0.992355
7018.45 0.981503
7016.52 0.978002
7014.59 0.985388
7012.66 0.993438
7010.74 0.996899
7008.81 0.997494
7006.88 0.990678
7004.95 0.986781
7003.02 0.985617
7001.09 0.991221
6999.16 0.990238
6997.24 0.988412
6995.31 0.986229
6993.38 0.990892
6991.45 0.991331
6989.52 0.992413
6987.59 0.992038
6985.66 0.989981
6983.73 0.988492
6981.81 0.985267
6979.88 0.980051
6977.95 0.981644
6976.02 0.982605
6974.09 0.984681
6972.16 0.988323
6970.23 0.987839
6968.31 0.987281
6966.38 0.986375
6964.45 0.992003
6962.52 0.997541
6960.59 0.999195
6958.66 0.995666
6956.73 0.992181
6954.8 0.992382
6952.88 0.990551
6950.95 0.987237
6949.02 0.98374
6947.09 0.984745
6945.16 0.986849
6943.23 0.99056
6941.3 0.990689
6939.38 0.993022
6937.45 0.990433
6935.52 0.988609
6933.59 0.985483
6931.66 0.988829
6929.73 0.983146
6927.8 0.979094
6925.87 0.976742
6923.95 0.9806
6922.02 0.985105
6920.09 0.984232
6918.16 0.987145
6916.23 0.986952
6914.3 0.991669
6912.37 0.989401
6910.45 0.989992
6908.52 0.987851
6906.59 0.985045
6904.66 0.987275
6902.73 0.99132
6900.8 0.993061
6898.87 0.995303
6896.94 0.993514
6895.02 0.993979
6893.09 0.990839
6891.16 0.991036
6889.23 1.00115
6887.3 1.00107
6885.37 0.994241
6883.44 0.987324
6881.51 0.989275
6879.59 0.995099
6877.66 0.99616
6875.73 0.991455
6873.8 0.995434
6871.87 1.00018
6869.94 0.99805
6868.01 0.993928
6866.09 0.991984
6864.16 0.994965
6862.23 0.992929
6860.3 0.987313
6858.37 0.98716
6856.44 0.987243
6854.51 0.992677
6852.58 0.995861
6850.66 0.996505
6848.73 0.996475
6846.8 0.99744
6844.87 1.00001
6842.94 1.00349
6841.01 0.999248
6839.08 1.00051
6837.16 1.00383
6835.23 0.998792
6833.3 0.98822
6831.37 0.984914
6829.44 0.985924
6827.51 0.985961
6825.58 0.988132
6823.65 0.992239
6821.73 0.991611
6819.8 0.995599
6817.87 0.995916
6815.94 0.998274
6814.01 0.995962
6812.08 0.994645
6810.15 0.993611
6808.23 0.993211
6806.3 0.996862
6804.37 1.00148
6802.44 0.99813
6800.51 0.996253
6798.58 0.992616
6796.65 0.994559
6794.72 0.995438
6792.8 0.994842
6790.87 0.994968
6788.94 0.996377
6787.01 0.996949
6785.08 0.996866
6783.15 0.997731
6781.22 0.998037
6779.3 0.998991
6777.37 0.998474
6775.44 0.995421
6773.51 0.995329
6771.58 0.99336
6769.65 0.994887
6767.72 0.997495
6765.79 0.996001
6763.87 0.988843
6761.94 0.986233
6760.01 0.991803
6758.08 1.0017
6756.15 1.00455
6754.22 1.00232
6752.29 0.998719
6750.36 0.995449
6748.44 0.991885
6746.51 0.990865
6744.58 0.992931
6742.65 0.996506
6740.72 0.998191
6738.79 0.997395
6736.86 0.997407
6734.94 0.998194
6733.01 1.003
6731.08 0.999158
6729.15 0.993654
6727.22 0.991999
6725.29 0.993288
6723.36 0.994805
6721.43 0.992661
6719.51 0.986185
6717.58 0.984666
6715.65 0.989329
6713.72 0.992418
6711.79 0.992736
6709.86 0.989183
6707.93 0.993327
6706.01 0.999014
6704.08 1.00381
6702.15 1.003
6700.22 1.00404
6698.29 1.00428
6696.36 0.999413
6694.43 0.994117
6692.5 0.994206
6690.58 0.997042
6688.65 0.995633
6686.72 0.99786
6684.79 0.998657
6682.86 0.999602
6680.93 1.00117
6679 1.00011
6677.08 0.995128
6675.15 0.991648
6673.22 0.990991
6671.29 0.992308
6669.36 0.995197
6667.43 0.998422
6665.5 0.997903
6663.57 1.00246
6661.65 1.00055
6659.72 1.00095
6657.79 1.00284
6655.86 1.00507
6653.93 1.00142
6652 0.995462
6650.07 0.992852
6648.15 0.992506
6646.22 0.992749
6644.29 0.997352
6642.36 1.00128
6640.43 1.00385
6638.5 1.005
6636.57 1.00702
6634.64 1.01089
6632.72 1.00604
6630.79 1.00044
6628.86 0.991901
6626.93 0.990897
6625 0.992237
6623.07 0.996995
6621.14 0.996276
6619.22 0.996813
6617.29 0.991359
6615.36 0.990774
6613.43 0.996929
6611.5 1.00052
6609.57 1.00085
6607.64 1.00322
6605.71 1.00013
6603.79 0.998868
6601.86 0.998327
6599.93 0.995156
6598 0.99396
6596.07 0.99671
6594.14 1.00183
6592.21 1.00196
6590.28 0.997224
6588.36 0.995411
6586.43 1.00028
6584.5 1.00774
6582.57 1.00855
6580.64 1.00765
6578.71 1.00738
6576.78 1.00755
6574.86 1.00428
6572.93 1.00167
6571 1.0001
6569.07 1.00383
6567.14 1.00539
6565.21 1.00479
6563.28 1.00366
6561.35 1.00222
6559.43 0.996968
6557.5 0.996397
6555.57 0.99921
6553.64 1.00154
6551.71 1.00414
6549.78 1.00629
6547.85 1.00939
6545.93 1.0091
6544 1.00979
6542.07 1.00446
6540.14 1.00212
6538.21 1.00086
6536.28 0.998791
6534.35 1.00155
6532.42 1.00347
6530.5 1.00134
6528.57 1.00045
6526.64 1.00039
6524.71 1.0023
6522.78 1.00798
6520.85 1.01007
6518.92 1.00927
6517 1.00633
6515.07 1.00397
6513.14 1.00177
6511.21 1.00063
6509.28 1.00103
6507.35 0.998859
6505.42 0.998716
6503.49 1.00394
6501.57 1.00809
6499.64 1.00896
6497.71 1.0065
6495.78 1.00779
6493.85 1.00808
6491.92 1.00882
6489.99 1.00833
6488.07 1.00761
6486.14 1.00928
6484.21 1.00876
6482.28 1.00807
6480.35 1.00674
6478.42 1.00574
6476.49 1.00446
6474.56 1.00677
6472.64 1.00736
6470.71 1.0086
6468.78 1.00767
6466.85 1.0068
6464.92 1.00688
6462.99 1.00406
6461.06 1.00108
6459.13 1.00132
6457.21 1.00281
6455.28 1.00529
6453.35 1.00656
6451.42 1.00968
6449.49 1.00912
6447.56 1.00926
6445.63 1.01388
6443.71 1.01206
6441.78 1.01076
6439.85 1.00896
6437.92 1.00612
6435.99 1.00485
6434.06 1.01072
6432.13 1.01388
6430.2 1.01031
6428.28 1.00405
6426.35 1.00159
6424.42 1.0064
6422.49 1.01437
6420.56 1.01475
6418.63 1.01158
6416.7 1.01128
6414.78 1.01119
6412.85 1.00903
6410.92 1.00899
6408.99 1.00984
6407.06 1.01119
6405.13 1.01062
6403.2 1.00881
6401.27 1.00633
6399.35 1.00762
6397.42 1.01109
6395.49 1.01343
6393.56 1.01289
6391.63 1.01133
6389.7 1.01066
6387.77 1.01012
6385.85 1.01037
6383.92 1.01255
6381.99 1.01538
6380.06 1.01795
6378.13 1.01683
6376.2 1.01558
6374.27 1.01809
6372.34 1.01915
6370.42 1.01723
6368.49 1.01221
6366.56 1.00808
6364.63 1.01068
6362.7 1.01387
6360.77 1.01399
6358.84 1.0127
6356.92 1.01296
6354.99 1.0141
6353.06 1.01536
6351.13 1.01696
6349.2 1.01534
6347.27 1.01177
6345.34 1.013
6343.41 1.01501
6341.49 1.0146
6339.56 1.01266
6337.63 1.01001
6335.7 1.00968
6333.77 1.0145
6331.84 1.01475
6329.91 1.01535
6327.99 1.0176
6326.06 1.02186
6324.13 1.02237
6322.2 1.02015
6320.27 1.01904
6318.34 1.0212
6316.41 1.02132
6314.48 1.02209
6312.56 1.02046
6310.63 1.01939
6308.7 1.02149
6306.77 1.02177
6304.84 1.01947
6302.91 1.01654
6300.98 1.01692
6299.05 1.01854
6297.13 1.01777
6295.2 1.01674
6293.27 1.01617
6291.34 1.01778
6289.41 1.01863
6287.48 1.02165
6285.55 1.02676
6283.63 1.02752
6281.7 1.02425
6279.77 1.0218
6277.84 1.02324
6275.91 1.02309
6273.98 1.01761
6272.05 1.01398
6270.12 1.01419
6268.2 1.01644
6266.27 1.02241
6264.34 1.0259
6262.41 1.02381
6260.48 1.02011
6258.55 1.01678
6256.62 1.01751
6254.7 1.01729
6252.77 1.01762
6250.84 1.01723
6248.91 1.01487
6246.98 1.01836
6245.05 1.02076
6243.12 1.0205
6241.19 1.02128
6239.27 1.01994
6237.34 1.02298
6235.41 1.0222
6233.48 1.02244
6231.55 1.02138
6229.62 1.02457
6227.69 1.0235
6225.77 1.02293
6223.84 1.0194
6221.91 1.01785
6219.98 1.01876
6218.05 1.0217
6216.12 1.0253
6214.19 1.02503
6212.26 1.02379
6210.34 1.02084
6208.41 1.02235
6206.48 1.02251
6204.55 1.02451
6202.62 1.02561
6200.69 1.02692
6198.76 1.02641
6196.84 1.02068
6194.91 1.01877
6192.98 1.01995
6191.05 1.02145
6189.12 1.02386
6187.19 1.02653
6185.26 1.02771
6183.33 1.02692
6181.41 1.02603
6179.48 1.02361
6177.55 1.02319
6175.62 1.02368
6173.69 1.02572
6171.76 1.02625
6169.83 1.02542
6167.9 1.02659
6165.98 1.02772
6164.05 1.02701
6162.12 1.02535
6160.19 1.02455
6158.26 1.02345
6156.33 1.02499
6154.4 1.02953
6152.48 1.03101
6150.55 1.03116
6148.62 1.03229
6146.69 1.03522
6144.76 1.03709
6142.83 1.03568
6140.9 1.03202
6138.97 1.02893
6137.05 1.02648
6135.12 1.025
6133.19 1.02325
6131.26 1.02646
6129.33 1.02933
6127.4 1.02962
6125.47 1.03031
6123.55 1.03194
6121.62 1.03153
6119.69 1.02741
6117.76 1.02472
6115.83 1.02621
6113.9 1.0296
6111.97 1.03363
6110.04 1.03532
6108.12 1.03529
6106.19 1.03336
6104.26 1.0326
6102.33 1.03127
6100.4 1.03148
6098.47 1.03157
6096.54 1.02875
6094.62 1.02831
6092.69 1.03185
6090.76 1.03441
6088.83 1.03368
6086.9 1.03077
6084.97 1.02948
6083.04 1.02933
6081.11 1.02947
6079.19 1.02869
6077.26 1.02905
6075.33 1.03268
6073.4 1.03234
6071.47 1.02995
6069.54 1.03011
6067.61 1.03622
6065.69 1.03965
6063.76 1.03813
6061.83 1.03282
6059.9 1.03295
6057.97 1.03417
6056.04 1.03473
6054.11 1.03148
6052.18 1.03046
6050.26 1.03438
6048.33 1.03815
6046.4 1.04047
6044.47 1.03976
6042.54 1.03919
6040.61 1.03903
6038.68 1.04136
6036.75 1.03971
6034.83 1.03536
6032.9 1.03577
6030.97 1.03907
6029.04 1.03958
6027.11 1.03803
6025.18 1.03691
6023.25 1.0373
6021.33 1.03604
6019.4 1.03702
6017.47 1.04037
6015.54 1.04272
6013.61 1.04282
6011.68 1.04012
6009.75 1.03965
6007.82 1.04095
6005.9 1.04224
6003.97 1.04043
6002.04 1.03923
6000.11 1.04078
5998.18 1.04277
5996.25 1.0435
5994.32 1.04229
5992.4 1.04184
5990.47 1.04111
5988.54 1.0407
5986.61 1.04182
5984.68 1.04299
5982.75 1.04395
5980.82 1.04425
5978.89 1.03968
5976.97 1.0363
5975.04 1.03916
5973.11 1.04136
5971.18 1.04192
5969.25 1.04203
5967.32 1.04207
5965.39 1.04376
5963.47 1.04503
5961.54 1.04521
5959.61 1.04483
5957.68 1.04274
5955.75 1.04194
5953.82 1.04374
5951.89 1.04522
5949.96 1.04631
5948.04 1.04427
5946.11 1.04467
5944.18 1.04491
5942.25 1.04549
5940.32 1.04748
5938.39 1.04804
5936.46 1.0445
5934.54 1.04258
5932.61 1.04619
5930.68 1.05112
5928.75 1.05199
5926.82 1.05145
5924.89 1.04912
5922.96 1.0495
5921.03 1.04987
5919.11 1.05116
5917.18 1.05069
5915.25 1.04929
5913.32 1.04753
5911.39 1.04872
5909.46 1.04989
5907.53 1.05172
5905.61 1.05082
5903.68 1.05152
5901.75 1.05131
5899.82 1.05104
5897.89 1.05156
5895.96 1.05378
5894.03 1.05256
5892.1 1.05216
5890.18 1.05224
5888.25 1.05051
5886.32 1.05034
5884.39 1.04977
5882.46 1.04869
5880.53 1.04747
5878.6 1.04912
5876.67 1.05117
5874.75 1.05317
5872.82 1.052
5870.89 1.05129
5868.96 1.05098
5867.03 1.05151
5865.1 1.05308
5863.17 1.05397
5861.25 1.05374
5859.32 1.05615
5857.39 1.05655
5855.46 1.05634
5853.53 1.0542
5851.6 1.05369
5849.67 1.05365
5847.74 1.05493
5845.82 1.05451
5843.89 1.05492
5841.96 1.05715
5840.03 1.05937
5838.1 1.05973
5836.17 1.05881
5834.24 1.05736
5832.32 1.05618
5830.39 1.05584
5828.46 1.05708
5826.53 1.05706
5824.6 1.05712
5822.67 1.05685
5820.74 1.05721
5818.81 1.05891
5816.89 1.05903
5814.96 1.05842
5813.03 1.05828
5811.1 1.05905
5809.17 1.05835
5807.24 1.05749
5805.31 1.05816
5803.39 1.0589
5801.46 1.06009
5799.53 1.06179
5797.6 1.06227
5795.67 1.0613
5793.74 1.0598
5791.81 1.05973
5789.88 1.06029
5787.96 1.05993
5786.03 1.05793
5784.1 1.05595
5782.17 1.0588
5780.24 1.06178
5778.31 1.06613
5776.38 1.06665
5774.46 1.06366
5772.53 1.05999
5770.6 1.05777
5768.67 1.05984
5766.74 1.06346
5764.81 1.06313
5762.88 1.06131
5760.95 1.06238
5759.03 1.06461
5757.1 1.06617
5755.17 1.06549
5753.24 1.06365
5751.31 1.06293
5749.38 1.06384
5747.45 1.06509
5745.52 1.06811
5743.6 1.06881
5741.67 1.07034
5739.74 1.06771
5737.81 1.06611
5735.88 1.06665
5733.95 1.06704
5732.02 1.06578
5730.1 1.06449
5728.17 1.06199
5726.24 1.0631
5724.31 1.06628
5722.38 1.06848
5720.45 1.06779
5718.52 1.06646
5716.59 1.06471
5714.67 1.06271
5712.74 1.06211
5710.81 1.06355
5708.88 1.06477
5706.95 1.06573
5705.02 1.06634
5703.09 1.06716
5701.17 1.06744
5699.24 1.0701
5697.31 1.07201
5695.38 1.0735
5693.45 1.07265
5691.52 1.07078
5689.59 1.06913
5687.66 1.07104
5685.74 1.07245
5683.81 1.07211
5681.88 1.07012
5679.95 1.06921
5678.02 1.07067
5676.09 1.07282
5674.16 1.07455
5672.24 1.07284
5670.31 1.07191
5668.38 1.07341
5666.45 1.07439
5664.52 1.07328
5662.59 1.07159
5660.66 1.07391
5658.73 1.07452
5656.81 1.0737
5654.88 1.0709
5652.95 1.07061
5651.02 1.07259
5649.09 1.07514
5647.16 1.07609
5645.23 1.0773
5643.31 1.07806
5641.38 1.07598
5639.45 1.07357
5637.52 1.07307
5635.59 1.07421
5633.66 1.07532
5631.73 1.0759
5629.8 1.07733
5627.88 1.07906
5625.95 1.08024
5624.02 1.07868
5622.09 1.0777
5620.16 1.07885
5618.23 1.08008
5616.3 1.07916
5614.38 1.07778
5612.45 1.07669
5610.52 1.07808
5608.59 1.0805
5606.66 1.08037
5604.73 1.07899
5602.8 1.0787
5600.87 1.07794
5598.95 1.07759
5597.02 1.07722
5595.09 1.0792
5593.16 1.08014
5591.23 1.07991
5589.3 1.07966
5587.37 1.08039
5585.44 1.0828
5583.52 1.08418
5581.59 1.08375
5579.66 1.08451
5577.73 1.084
5575.8 1.08491
5573.87 1.08428
5571.94 1.08391
5570.02 1.0827
5568.09 1.08243
5566.16 1.08225
5564.23 1.08328
5562.3 1.08478
5560.37 1.08521
5558.44 1.08572
5556.51 1.08495
5554.59 1.08439
5552.66 1.08475
5550.73 1.08589
5548.8 1.08579
5546.87 1.0846
5544.94 1.08445
5543.01 1.08623
5541.09 1.08773
5539.16 1.08881
5537.23 1.08905
5535.3 1.08932
5533.37 1.088
5531.44 1.08798
5529.51 1.0873
5527.58 1.0858
5525.66 1.08572
5523.73 1.0897
5521.8 1.09237
5519.87 1.09102
5517.94 1.08808
5516.01 1.08611
5514.08 1.08675
5512.16 1.0875
5510.23 1.08888
5508.3 1.09032
5506.37 1.09015
5504.44 1.08882
5502.51 1.08816
5500.58 1.08885
5498.65 1.08958
5496.73 1.09085
5494.8 1.09252
5492.87 1.09168
5490.94 1.09173
5489.01 1.0912
5487.08 1.09087
5485.15 1.09055
5483.23 1.09161
5481.3 1.09224
5479.37 1.09166
5477.44 1.09145
5475.51 1.09279
5473.58 1.09421
5471.65 1.09526
5469.72 1.09736
5467.8 1.09709
5465.87 1.09747
5463.94 1.09611
5462.01 1.09418
5460.08 1.09317
5458.15 1.0936
5456.22 1.09392
5454.29 1.09563
5452.37 1.09636
5450.44 1.09706
5448.51 1.097
5446.58 1.09583
5444.65 1.09541
5442.72 1.0953
5440.79 1.09614
5438.87 1.0978
5436.94 1.09795
5435.01 1.0956
5433.08 1.09464
5431.15 1.09702
5429.22 1.09848
5427.29 1.09831
5425.36 1.09813
5423.44 1.09792
5421.51 1.09702
5419.58 1.09786
5417.65 1.09955
5415.72 1.10075
5413.79 1.10097
5411.86 1.10079
5409.94 1.0992
5408.01 1.09925
5406.08 1.09921
5404.15 1.10043
5402.22 1.103
5400.29 1.10609
5398.36 1.10742
5396.43 1.10603
5394.51 1.10451
5392.58 1.1043
5390.65 1.10483
5388.72 1.10272
5386.79 1.10104
5384.86 1.10153
5382.93 1.10474
5381.01 1.10581
5379.08 1.10542
5377.15 1.10511
5375.22 1.10538
5373.29 1.10521
5371.36 1.10581
5369.43 1.10698
5367.5 1.10898
5365.58 1.11049
5363.65 1.10853
5361.72 1.10705
5359.79 1.1074
5357.86 1.10743
5355.93 1.10588
5354 1.10417
5352.08 1.10318
5350.15 1.10145
5348.22 1.1019
5346.29 1.10341
5344.36 1.10598
5342.43 1.10724
5340.5 1.1082
5338.57 1.10889
5336.65 1.10964
5334.72 1.10986
5332.79 1.11035
5330.86 1.10997
5328.93 1.10965
5327 1.10848
5325.07 1.10764
5323.14 1.10929
5321.22 1.11165
5319.29 1.11262
5317.36 1.11218
5315.43 1.11211
5313.5 1.11274
5311.57 1.11234
5309.64 1.11145
5307.72 1.11148
5305.79 1.11081
5303.86 1.11077
5301.93 1.11247
5300 1.11331
5298.07 1.113
5296.14 1.1141
5294.21 1.11564
5292.29 1.11466
5290.36 1.11373
5288.43 1.11394
5286.5 1.11416
5284.57 1.11426
5282.64 1.11439
5280.71 1.11359
5278.79 1.11326
5276.86 1.11444
5274.93 1.11706
5273 1.11796
5271.07 1.11855
5269.14 1.11867
5267.21 1.11887
5265.28 1.11874
5263.36 1.11729
5261.43 1.11651
5259.5 1.11694
5257.57 1.1179
5255.64 1.11746
5253.71 1.11838
5251.78 1.11817
5249.86 1.1179
5247.93 1.11803
5246 1.11849
5244.07 1.11871
5242.14 1.11898
5240.21 1.11951
5238.28 1.12028
5236.35 1.12026
5234.43 1.11976
5232.5 1.11967
5230.57 1.11989
5228.64 1.11966
5226.71 1.11804
5224.78 1.11761
5222.85 1.11922
5220.93 1.12166
5219 1.12267
5217.07 1.12258
5215.14 1.12269
5213.21 1.12274
5211.28 1.12355
5209.35 1.12376
5207.42 1.12346
5205.5 1.12348
5203.57 1.12472
5201.64 1.12572
5199.71 1.12642
5197.78 1.12589
5195.85 1.1257
5193.92 1.12462
5192 1.12437
5190.07 1.12395
5188.14 1.12427
5186.21 1.12506
5184.28 1.12414
5182.35 1.12342
5180.42 1.12353
5178.49 1.12615
5176.57 1.12761
5174.64 1.12883
5172.71 1.12833
5170.78 1.12755
5168.85 1.12595
5166.92 1.12594
5164.99 1.12792
5163.06 1.12992
5161.14 1.13005
5159.21 1.13039
5157.28 1.13143
5155.35 1.13103
5153.42 1.1314
5151.49 1.13091
5149.56 1.1299
5147.64 1.12831
5145.71 1.12804
5143.78 1.12978
5141.85 1.13243
5139.92 1.13342
5137.99 1.13272
5136.06 1.13114
5134.13 1.13093
5132.21 1.13189
5130.28 1.13253
5128.35 1.13262
5126.42 1.13311
5124.49 1.13427
5122.56 1.1347
5120.63 1.13437
5118.71 1.13484
5116.78 1.13605
5114.85 1.13698
5112.92 1.13776
5110.99 1.13693
5109.06 1.13662
5107.13 1.13605
5105.2 1.13665
5103.28 1.13712
5101.35 1.13821
5099.42 1.1393
5097.49 1.13884
5095.56 1.13735
5093.63 1.13705
5091.7 1.13699
5089.78 1.13688
5087.85 1.13702
5085.92 1.13776
5083.99 1.13822
5082.06 1.13927
5080.13 1.13961
5078.2 1.13873
5076.27 1.13828
5074.35 1.1376
5072.42 1.13778
5070.49 1.1391
5068.56 1.13942
5066.63 1.14
5064.7 1.14143
5062.77 1.14094
5060.85 1.13914
5058.92 1.13824
5056.99 1.13999
5055.06 1.14164
5053.13 1.14215
5051.2 1.14144
5049.27 1.1405
5047.34 1.1402
5045.42 1.14085
5043.49 1.14134
5041.56 1.14139
5039.63 1.14184
5037.7 1.14443
5035.77 1.14568
5033.84 1.14477
5031.91 1.14278
5029.99 1.1426
5028.06 1.1436
5026.13 1.14401
5024.2 1.14458
5022.27 1.14487
5020.34 1.14514
5018.41 1.14499
5016.49 1.14533
5014.56 1.14514
5012.63 1.1465
5010.7 1.14792
5008.77 1.14794
5006.84 1.14659
5004.91 1.14645
5002.98 1.14673
5001.06 1.14758
4999.13 1.14805
4997.2 1.14871
4995.27 1.14928
4993.34 1.14914
4991.41 1.14863
4989.48 1.14875
4987.56 1.14963
4985.63 1.15013
4983.7 1.15107
4981.77 1.15111
4979.84 1.15102
4977.91 1.15081
4975.98 1.15086
4974.05 1.15013
4972.13 1.14941
4970.2 1.14992
4968.27 1.1514
4966.34 1.15153
4964.41 1.15191
4962.48 1.15127
4960.55 1.15064
4958.63 1.15128
4956.7 1.15135
4954.77 1.15239
4952.84 1.15362
4950.91 1.15424
4948.98 1.15433
4947.05 1.15431
4945.12 1.15324
4943.2 1.15337
4941.27 1.15458
4939.34 1.15599
4937.41 1.15662
4935.48 1.15745
4933.55 1.15819
4931.62 1.1578
4929.7 1.15797
4927.77 1.15889
4925.84 1.15882
4923.91 1.15872
4921.98 1.15862
4920.05 1.15769
4918.12 1.15662
4916.19 1.15532
4914.27 1.15584
4912.34 1.15595
4910.41 1.15675
4908.48 1.15713
4906.55 1.15738
4904.62 1.15795
4902.69 1.15866
4900.76 1.15952
4898.84 1.16018
4896.91 1.16088
4894.98 1.16133
4893.05 1.1618
4891.12 1.16202
4889.19 1.16072
4887.26 1.15945
4885.34 1.15889
4883.41 1.15998
4881.48 1.16098
4879.55 1.16196
4877.62 1.16298
4875.69 1.16448
4873.76 1.16395
4871.83 1.16345
4869.91 1.16436
4867.98 1.16616
4866.05 1.16587
4864.12 1.16387
4862.19 1.16237
4860.26 1.16227
4858.33 1.16353
4856.41 1.16482
4854.48 1.1651
4852.55 1.16531
4850.62 1.16523
4848.69 1.16516
4846.76 1.16499
4844.83 1.16535
4842.9 1.16569
4840.98 1.16625
4839.05 1.16635
4837.12 1.16685
4835.19 1.16724
4833.26 1.16739
4831.33 1.16753
4829.4 1.16721
4827.48 1.16651
4825.55 1.16617
4823.62 1.16693
4821.69 1.16854
4819.76 1.17012
4817.83 1.17008
4815.9 1.16911
4813.97 1.1685
4812.05 1.16933
4810.12 1.17097
4808.19 1.17225
4806.26 1.17154
4804.33 1.16983
4802.4 1.16844
4800.47 1.16927
4798.55 1.1699
4796.62 1.16991
4794.69 1.17121
4792.76 1.17213
4790.83 1.17155
4788.9 1.17116
4786.97 1.17058
4785.04 1.17075
4783.12 1.17145
4781.19 1.17181
4779.26 1.17303
4777.33 1.17433
4775.4 1.17535
4773.47 1.1746
4771.54 1.17392
4769.62 1.1737
4767.69 1.17353
4765.76 1.17403
4763.83 1.17478
4761.9 1.17555
4759.97 1.17587
4758.04 1.17611
4756.11 1.17651
4754.19 1.17597
4752.26 1.17538
4750.33 1.17537
4748.4 1.17572
4746.47 1.17707
4744.54 1.17797
4742.61 1.17804
4740.68 1.17728
4738.76 1.17752
4736.83 1.17851
4734.9 1.17883
4732.97 1.17963
4731.04 1.17941
4729.11 1.17814
4727.18 1.17732
4725.26 1.17822
4723.33 1.17992
4721.4 1.18053
4719.47 1.1791
4717.54 1.17863
4715.61 1.17939
4713.68 1.17975
4711.75 1.17969
4709.83 1.18013
4707.9 1.18158
4705.97 1.18275
4704.04 1.18216
4702.11 1.18132
4700.18 1.18163
4698.25 1.18248
4696.33 1.18184
4694.4 1.18114
4692.47 1.18199
4690.54 1.18279
4688.61 1.18255
4686.68 1.18187
4684.75 1.18132
4682.82 1.18199
4680.9 1.18346
4678.97 1.18458
4677.04 1.18431
4675.11 1.18356
4673.18 1.18422
4671.25 1.18568
4669.32 1.18654
4667.4 1.18635
4665.47 1.18626
4663.54 1.1857
4661.61 1.18554
4659.68 1.18617
4657.75 1.1874
4655.82 1.18872
4653.89 1.18868
4651.97 1.18771
4650.04 1.18635
4648.11 1.18664
4646.18 1.18726
4644.25 1.18748
4642.32 1.18733
4640.39 1.18677
4638.47 1.18612
4636.54 1.18666
4634.61 1.18732
4632.68 1.18815
4630.75 1.18814
4628.82 1.18803
4626.89 1.18822
4624.96 1.18913
4623.04 1.19079
4621.11 1.19184
4619.18 1.19113
4617.25 1.19043
4615.32 1.19039
4613.39 1.1913
4611.46 1.19234
4609.53 1.19228
4607.61 1.1922
4605.68 1.19137
4603.75 1.191
4601.82 1.19196
4599.89 1.19188
4597.96 1.19182
4596.03 1.19167
4594.11 1.19237
4592.18 1.19269
4590.25 1.19279
4588.32 1.19342
4586.39 1.19377
4584.46 1.19296
4582.53 1.19241
4580.6 1.19234
4578.68 1.19372
4576.75 1.19511
4574.82 1.1955
4572.89 1.19488
4570.96 1.19478
4569.03 1.19496
4567.1 1.19484
4565.18 1.19478
4563.25 1.19506
4561.32 1.19521
4559.39 1.19568
4557.46 1.19699
4555.53 1.19801
4553.6 1.19807
4551.67 1.1981
4549.75 1.19822
4547.82 1.19879
4545.89 1.19896
4543.96 1.19852
4542.03 1.19863
4540.1 1.19908
4538.17 1.1993
4536.25 1.19849
4534.32 1.19744
4532.39 1.19804
4530.46 1.19829
4528.53 1.19916
4526.6 1.19985
4524.67 1.20077
4522.74 1.20131
4520.82 1.20054
4518.89 1.19999
4516.96 1.19989
4515.03 1.19991
4513.1 1.20026
4511.17 1.2011
4509.24 1.20176
4507.32 1.20286
4505.39 1.20319
4503.46 1.20264
4501.53 1.20142
4499.6 1.20125
4497.67 1.20188
4495.74 1.20234
4493.81 1.2027
4491.89 1.20281
4489.96 1.20231
4488.03 1.20271
4486.1 1.20329
4484.17 1.2032
4482.24 1.2034
4480.31 1.20349
4478.38 1.20376
4476.46 1.20417
4474.53 1.20448
4472.6 1.20492
4470.67 1.2051
4468.74 1.20533
4466.81 1.20519
4464.88 1.20532
4462.96 1.20564
4461.03 1.20616
4459.1 1.20597
4457.17 1.20618
4455.24 1.20687
4453.31 1.20666
4451.38 1.20669
4449.45 1.20694
4447.53 1.20796
4445.6 1.20814
4443.67 1.20794
4441.74 1.20699
4439.81 1.20708
4437.88 1.20689
4435.95 1.207
4434.03 1.20771
4432.1 1.20902
4430.17 1.20951
4428.24 1.20947
4426.31 1.20836
4424.38 1.20755
4422.45 1.20769
4420.52 1.2088
4418.6 1.20925
4416.67 1.20993
4414.74 1.21061
4412.81 1.21139
4410.88 1.21208
4408.95 1.21246
4407.02 1.21211
4405.1 1.21142
4403.17 1.21111
4401.24 1.21039
4399.31 1.21031
4397.38 1.21071
4395.45 1.21132
4393.52 1.21156
4391.59 1.21091
4389.67 1.21077
4387.74 1.21086
4385.81 1.21156
4383.88 1.21187
4381.95 1.21208
4380.02 1.21294
4378.09 1.21306
4376.17 1.21241
4374.24 1.21191
4372.31 1.21126
4370.38 1.21058
4368.45 1.21089
4366.52 1.21218
4364.59 1.21375
4362.66 1.21447
4360.74 1.21484
4358.81 1.21398
4356.88 1.21259
4354.95 1.21176
4353.02 1.21257
4351.09 1.21448
4349.16 1.21568
4347.24 1.21542
4345.31 1.21488
4343.38 1.21503
4341.45 1.21534
4339.52 1.21562
4337.59 1.21578
4335.66 1.21633
4333.73 1.21718
4331.81 1.21747
4329.88 1.21755
4327.95 1.21859
4326.02 1.21929
4324.09 1.21889
4322.16 1.218
4320.23 1.21734
4318.3 1.21683
4316.38 1.21611
4314.45 1.21601
4312.52 1.2166
4310.59 1.21735
4308.66 1.21776
4306.73 1.21857
4304.8 1.21929
4302.88 1.21901
4300.95 1.21907
4299.02 1.21965
4297.09 1.21969
4295.16 1.21946
4293.23 1.21961
4291.3 1.21972
4289.37 1.21945
4287.45 1.21932
4285.52 1.21953
4283.59 1.22042
4281.66 1.22163
4279.73 1.22212
4277.8 1.22184
4275.87 1.22088
4273.95 1.22094
4272.02 1.22217
4270.09 1.22333
4268.16 1.22446
4266.23 1.22461
4264.3 1.22408
4262.37 1.22371
4260.44 1.22423
4258.52 1.22473
4256.59 1.22456
4254.66 1.22452
4252.73 1.22526
4250.8 1.22573
4248.87 1.22516
4246.94 1.22401
4245.02 1.22355
4243.09 1.22389
4241.16 1.22425
4239.23 1.22347
4237.3 1.22291
4235.37 1.22324
4233.44 1.22379
4231.51 1.22482
4229.59 1.22504
4227.66 1.22488
4225.73 1.22544
4223.8 1.22559
4221.87 1.22571
4219.94 1.22541
4218.01 1.225
4216.09 1.22511
4214.16 1.22582
4212.23 1.22635
4210.3 1.22655
4208.37 1.2263
4206.44 1.22639
4204.51 1.22656
4202.58 1.22755
4200.66 1.2282
4198.73 1.22861
4196.8 1.22854
4194.87 1.22834
4192.94 1.22803
4191.01 1.22761
4189.08 1.22748
4187.15 1.22794
4185.23 1.22841
4183.3 1.22869
4181.37 1.22871
4179.44 1.22856
4177.51 1.22853
4175.58 1.22831
4173.65 1.22862
4171.73 1.22932
4169.8 1.22986
4167.87 1.23003
4165.94 1.23034
4164.01 1.23079
4162.08 1.2303
4160.15 1.23023
4158.22 1.23097
4156.3 1.2311
4154.37 1.23076
4152.44 1.23043
4150.51 1.23091
4148.58 1.23154
4146.65 1.23198
4144.72 1.23189
4142.8 1.23137
4140.87 1.23067
4138.94 1.23095
4137.01 1.23121
4135.08 1.23131
4133.15 1.23141
4131.22 1.23203
4129.29 1.23264
4127.37 1.23259
4125.44 1.23243
4123.51 1.23216
4121.58 1.23276
4119.65 1.23365
4117.72 1.23407
4115.79 1.23386
4113.87 1.23375
4111.94 1.23333
4110.01 1.23307
4108.08 1.23341
4106.15 1.23373
4104.22 1.23359
4102.29 1.23337
4100.36 1.23357
4098.44 1.23422
4096.51 1.23436
4094.58 1.23479
4092.65 1.23547
4090.72 1.23535
4088.79 1.23537
4086.86 1.23563
4084.94 1.23578
4083.01 1.23587
4081.08 1.23563
4079.15 1.23553
4077.22 1.23501
4075.29 1.23502
4073.36 1.23554
4071.43 1.23623
4069.51 1.2366
4067.58 1.23678
4065.65 1.23691
4063.72 1.23778
4061.79 1.23813
4059.86 1.23824
4057.93 1.23813
4056.01 1.23737
4054.08 1.23683
4052.15 1.23642
4050.22 1.23627
4048.29 1.23662
4046.36 1.23661
4044.43 1.23693
4042.5 1.23822
4040.58 1.23893
4038.65 1.23861
4036.72 1.23777
4034.79 1.23706
4032.86 1.23692
4030.93 1.23745
4029 1.2384
4027.07 1.23887
4025.15 1.23872
4023.22 1.23828
4021.29 1.23812
4019.36 1.23849
4017.43 1.23896
4015.5 1.23961
4013.57 1.23986
4011.65 1.23989
4009.72 1.24031
4007.79 1.24039
4005.86 1.24068
4003.93 1.24116
4002 1.24127
4000.07 1.24064
3998.14 1.24006
3996.22 1.24022
3994.29 1.24025
3992.36 1.24031
3990.43 1.24038
3988.5 1.2406
3986.57 1.24039
3984.64 1.24035
3982.72 1.24067
3980.79 1.24091
3978.86 1.24134
3976.93 1.24134
3975 1.24134
3973.07 1.24128
3971.14 1.24109
3969.21 1.2411
3967.29 1.24143
3965.36 1.24133
3963.43 1.24099
3961.5 1.24113
3959.57 1.24185
3957.64 1.24231
3955.71 1.24256
3953.79 1.24262
3951.86 1.24185
3949.93 1.24141
3948 1.24147
3946.07 1.24182
3944.14 1.24116
3942.21 1.24109
3940.28 1.24287
3938.36 1.24403
3936.43 1.24345
3934.5 1.24176
3932.57 1.24004
3930.64 1.24022
3928.71 1.24138
3926.78 1.24174
3924.86 1.24137
3922.93 1.24214
3921 1.24283
3919.07 1.242
3917.14 1.24154
3915.21 1.24277
3913.28 1.24442
3911.35 1.24432
3909.43 1.24308
3907.5 1.24275
3905.57 1.24346
3903.64 1.24288
3901.71 1.24145
3899.78 1.24095
3897.85 1.24164
3895.92 1.24304
3894 1.24392
3892.07 1.24412
3890.14 1.24397
3888.21 1.24438
3886.28 1.24449
3884.35 1.24412
3882.42 1.24282
3880.5 1.2422
3878.57 1.24318
3876.64 1.24496
3874.71 1.24602
3872.78 1.24614
3870.85 1.24585
3868.92 1.24536
3866.99 1.24395
3865.07 1.24269
3863.14 1.24277
3861.21 1.2445
3859.28 1.24557
3857.35 1.24454
3855.42 1.24258
3853.49 1.24218
3851.57 1.24445
3849.64 1.2461
3847.71 1.24657
3845.78 1.2464
3843.85 1.24615
3841.92 1.24585
3839.99 1.24505
3838.06 1.24348
3836.14 1.24264
3834.21 1.24375
3832.28 1.24596
3830.35 1.24732
3828.42 1.24654
3826.49 1.24552
3824.56 1.24578
3822.64 1.24679
3820.71 1.24688
3818.78 1.2453
3816.85 1.24403
3814.92 1.24475
3812.99 1.24695
3811.06 1.24768
3809.13 1.24831
3807.21 1.24892
3805.28 1.24865
3803.35 1.24667
3801.42 1.24455
3799.49 1.24431
3797.56 1.24511
3795.63 1.24586
3793.71 1.24678
3791.78 1.24739
3789.85 1.24747
3787.92 1.24746
3785.99 1.24733
3784.06 1.2473
3782.13 1.24737
3780.2 1.24734
3778.28 1.24751
3776.35 1.24742
3774.42 1.24698
3772.49 1.24607
3770.56 1.24527
3768.63 1.24554
3766.7 1.24607
3764.77 1.24641
3762.85 1.24612
3760.92 1.24461
3758.99 1.24356
3757.06 1.24389
3755.13 1.24421
3753.2 1.24363
3751.27 1.24442
3749.35 1.24564
3747.42 1.24353
3745.49 1.2395
3743.56 1.23928
3741.63 1.24257
3739.7 1.24439
3737.77 1.24413
3735.84 1.24462
3733.92 1.24559
3731.99 1.24612
3730.06 1.2463
3728.13 1.24596
3726.2 1.24487
3724.27 1.2446
3722.34 1.24477
3720.42 1.24504
3718.49 1.24516
3716.56 1.24492
3714.63 1.24505
3712.7 1.24532
3710.77 1.24471
3708.84 1.24401
3706.91 1.24395
3704.99 1.24344
3703.06 1.24263
3701.13 1.24198
3699.2 1.24168
3697.27 1.24145
3695.34 1.24043
3693.41 1.23876
3691.49 1.23708
3689.56 1.23616
3687.63 1.23674
3685.7 1.23826
3683.77 1.23915
3681.84 1.23901
3679.91 1.23834
3677.98 1.23776
3676.06 1.2385
3674.13 1.23959
3672.2 1.23957
3670.27 1.2382
3668.34 1.23753
3666.41 1.23879
3664.48 1.23981
3662.56 1.2397
3660.63 1.23948
3658.7 1.23998
3656.77 1.24085
3654.84 1.24031
3652.91 1.23814
3650.98 1.23641
3649.05 1.23588
3647.13 1.23673
3645.2 1.23783
3643.27 1.23849
3641.34 1.23838
3639.41 1.23834
3637.48 1.23829
3635.55 1.23834
3633.63 1.23806
3631.7 1.23818
3629.77 1.23769
3627.84 1.23713
3625.91 1.23718
3623.98 1.23748
3622.05 1.23639
3620.12 1.23508
3618.2 1.23497
3616.27 1.23514
3614.34 1.2347
3612.41 1.23349
3610.48 1.23254
3608.55 1.23341
3606.62 1.23487
3604.69 1.23511
3602.77 1.23463
3600.84 1.23427
3598.91 1.2339
3596.98 1.23392
3595.05 1.23423
3593.12 1.23427
3591.19 1.23393
3589.27 1.2326
3587.34 1.23105
3585.41 1.23108
3583.48 1.23157
3581.55 1.23163
3579.62 1.23239
3577.69 1.23368
3575.76 1.23404
3573.84 1.23317
3571.91 1.23167
3569.98 1.22933
3568.05 1.22776
3566.12 1.22853
3564.19 1.2302
3562.26 1.23085
3560.34 1.23081
3558.41 1.23077
3556.48 1.23062
3554.55 1.2302
3552.62 1.22938
3550.69 1.22908
3548.76 1.22909
3546.83 1.22889
3544.91 1.22872
3542.98 1.22928
3541.05 1.22959
3539.12 1.22914
3537.19 1.22849
3535.26 1.22839
3533.33 1.22902
3531.41 1.22896
3529.48 1.2286
3527.55 1.22792
3525.62 1.22754
3523.69 1.22703
3521.76 1.22652
3519.83 1.22606
3517.9 1.22664
3515.98 1.22719
3514.05 1.22699
3512.12 1.22655
3510.19 1.22682
3508.26 1.2272
3506.33 1.22719
3504.4 1.22677
3502.48 1.22651
3500.55 1.22657
3498.62 1.22607
3496.69 1.22561
3494.76 1.22533
3492.83 1.22547
3490.9 1.2255
3488.97 1.22565
3487.05 1.22565
3485.12 1.22534
3483.19 1.22531
3481.26 1.22554
3479.33 1.22611
3477.4 1.22644
3475.47 1.22636
3473.54 1.22581
3471.62 1.22559
3469.69 1.22584
3467.76 1.22604
3465.83 1.2258
3463.9 1.22506
3461.97 1.22463
3460.04 1.22458
3458.12 1.2248
3456.19 1.22528
3454.26 1.22558
3452.33 1.22572
3450.4 1.22513
3448.47 1.22462
3446.54 1.22416
3444.61 1.22412
3442.69 1.22444
3440.76 1.22507
3438.83 1.22527
3436.9 1.22509
3434.97 1.22488
3433.04 1.2251
3431.11 1.22529
3429.19 1.2254
3427.26 1.22567
3425.33 1.22578
3423.4 1.22555
3421.47 1.22535
3419.54 1.22557
3417.61 1.226
3415.68 1.22617
3413.76 1.22591
3411.83 1.22596
3409.9 1.22608
3407.97 1.22606
3406.04 1.22602
3404.11 1.22595
3402.18 1.22633
3400.26 1.22672
3398.33 1.22701
3396.4 1.22709
3394.47 1.22717
3392.54 1.22718
3390.61 1.22706
3388.68 1.22689
3386.75 1.22686
3384.83 1.22702
3382.9 1.22728
3380.97 1.2274
3379.04 1.22752
3377.11 1.2274
3375.18 1.2274
3373.25 1.22758
3371.33 1.22813
3369.4 1.22812
3367.47 1.22758
3365.54 1.2274
3363.61 1.22772
3361.68 1.22781
3359.75 1.22804
3357.82 1.22846
3355.9 1.22852
3353.97 1.22858
3352.04 1.22893
3350.11 1.22937
3348.18 1.22952
3346.25 1.22937
3344.32 1.22889
3342.4 1.2285
3340.47 1.22823
3338.54 1.22818
3336.61 1.22839
3334.68 1.2287
3332.75 1.2291
3330.82 1.22965
3328.89 1.23035
3326.97 1.23077
3325.04 1.23042
3323.11 1.23017
3321.18 1.2306
3319.25 1.23096
3317.32 1.23053
3315.39 1.23011
3313.46 1.23015
3311.54 1.23032
3309.61 1.23058
3307.68 1.23095
3305.75 1.23124
3303.82 1.2313
3301.89 1.23142
3299.96 1.23176
3298.04 1.23225
3296.11 1.23229
3294.18 1.23191
3292.25 1.23175
3290.32 1.23159
3288.39 1.23163
3286.46 1.23162
3284.53 1.23156
3282.61 1.2312
3280.68 1.23135
3278.75 1.23178
3276.82 1.23242
3274.89 1.23275
3272.96 1.23293
3271.03 1.23284
3269.11 1.23247
3267.18 1.23227
3265.25 1.23215
3263.32 1.23208
3261.39 1.23216
3259.46 1.23218
3257.53 1.23186
3255.6 1.23183
3253.68 1.23234
3251.75 1.23331
3249.82 1.23365
3247.89 1.23365
3245.96 1.23315
3244.03 1.23268
3242.1 1.2326
3240.18 1.23281
3238.25 1.23315
3236.32 1.23323
3234.39 1.23293
3232.46 1.23274
3230.53 1.23285
3228.6 1.23302
3226.67 1.23273
3224.75 1.23249
3222.82 1.2322
3220.89 1.23206
3218.96 1.23201
3217.03 1.23195
3215.1 1.23205
3213.17 1.23242
3211.25 1.23247
3209.32 1.23214
3207.39 1.23189
3205.46 1.23204
3203.53 1.23276
3201.6 1.23314
3199.67 1.23305
3197.74 1.23296
3195.82 1.23289
3193.89 1.23279
3191.96 1.23265
3190.03 1.23267
3188.1 1.23282
3186.17 1.23257
3184.24 1.2325
3182.31 1.23287
3180.39 1.23311
3178.46 1.23292
3176.53 1.23272
3174.6 1.23306
3172.67 1.23336
3170.74 1.23332
3168.81 1.23323
3166.89 1.23283
3164.96 1.23239
3163.03 1.23244
3161.1 1.23234
3159.17 1.23197
3157.24 1.23194
3155.31 1.23201
3153.38 1.23203
3151.46 1.2321
3149.53 1.23224
3147.6 1.23227
3145.67 1.23228
3143.74 1.23242
3141.81 1.23222
3139.88 1.232
3137.96 1.23212
3136.03 1.23191
3134.1 1.23139
3132.17 1.23144
3130.24 1.23171
3128.31 1.23151
3126.38 1.23098
3124.45 1.23091
3122.53 1.23086
3120.6 1.23077
3118.67 1.2307
3116.74 1.2306
3114.81 1.2306
3112.88 1.23078
3110.95 1.23124
3109.03 1.23147
3107.1 1.23131
3105.17 1.23106
3103.24 1.23081
3101.31 1.2304
3099.38 1.22997
3097.45 1.22972
3095.52 1.22949
3093.6 1.22964
3091.67 1.22971
3089.74 1.22977
3087.81 1.22972
3085.88 1.2298
3083.95 1.22977
3082.02 1.22963
3080.1 1.22954
3078.17 1.22942
3076.24 1.22925
3074.31 1.22921
3072.38 1.22889
3070.45 1.22828
3068.52 1.22793
3066.59 1.22808
3064.67 1.22832
3062.74 1.22815
3060.81 1.22782
3058.88 1.22743
3056.95 1.22698
3055.02 1.22671
3053.09 1.22681
3051.16 1.22693
3049.24 1.22708
3047.31 1.227
3045.38 1.22661
3043.45 1.22634
3041.52 1.2263
3039.59 1.22608
3037.66 1.22545
3035.74 1.22493
3033.81 1.22504
3031.88 1.22535
3029.95 1.22529
3028.02 1.22482
3026.09 1.22398
3024.16 1.22325
3022.23 1.22311
3020.31 1.22309
3018.38 1.2228
3016.45 1.22244
3014.52 1.2223
3012.59 1.22206
3010.66 1.22129
3008.73 1.22038
3006.81 1.2196
3004.88 1.21884
3002.95 1.21783
3001.02 1.21662
2999.09 1.21552
2997.16 1.21461
2995.23 1.21374
2993.3 1.21248
2991.38 1.21053
2989.45 1.20834
2987.52 1.2062
2985.59 1.20392
2983.66 1.20129
2981.73 1.19807
2979.8 1.19406
2977.88 1.18985
2975.95 1.18565
2974.02 1.18124
2972.09 1.17636
2970.16 1.1713
2968.23 1.16659
2966.3 1.16257
2964.37 1.15947
2962.45 1.15748
2960.52 1.157
2958.59 1.15795
2956.66 1.16076
2954.73 1.16556
2952.8 1.1718
2950.87 1.17854
2948.95 1.1851
2947.02 1.19119
2945.09 1.19631
2943.16 1.20001
2941.23 1.20259
2939.3 1.20437
2937.37 1.20554
2935.44 1.20618
2933.52 1.20679
2931.59 1.20718
2929.66 1.20725
2927.73 1.20688
2925.8 1.20647
2923.87 1.20572
2921.94 1.20504
2920.02 1.20435
2918.09 1.20329
2916.16 1.20184
2914.23 1.20052
2912.3 1.19943
2910.37 1.19853
2908.44 1.1979
2906.51 1.19747
2904.59 1.19741
2902.66 1.19728
2900.73 1.19739
2898.8 1.19807
2896.87 1.19919
2894.94 1.20034
2893.01 1.20133
2891.08 1.2024
2889.16 1.20332
2887.23 1.20382
2885.3 1.20422
2883.37 1.20449
2881.44 1.20482
2879.51 1.205
2877.58 1.20515
2875.66 1.20552
2873.73 1.20655
2871.8 1.20766
2869.87 1.2087
2867.94 1.20967
2866.01 1.21054
2864.08 1.21126
2862.15 1.21166
2860.23 1.21201
2858.3 1.21233
2856.37 1.21258
2854.44 1.21301
2852.51 1.21365
2850.58 1.21414
2848.65 1.21441
2846.73 1.21455
2844.8 1.21454
2842.87 1.21447
2840.94 1.21439
2839.01 1.21441
2837.08 1.21426
2835.15 1.21423
2833.22 1.21433
2831.3 1.2145
2829.37 1.21412
2827.44 1.2139
2825.51 1.21408
2823.58 1.21408
2821.65 1.21373
2819.72 1.21361
2817.8 1.21364
2815.87 1.21355
2813.94 1.21359
2812.01 1.21367
2810.08 1.21371
2808.15 1.21373
2806.22 1.21342
2804.29 1.21278
2802.37 1.21241
2800.44 1.2124
2798.51 1.21266
2796.58 1.21297
2794.65 1.21311
2792.72 1.21297
2790.79 1.21278
2788.87 1.21277
2786.94 1.21297
2785.01 1.21314
2783.08 1.21317
2781.15 1.21354
2779.22 1.21394
2777.29 1.21385
2775.36 1.21374
2773.44 1.2136
2771.51 1.21351
2769.58 1.21338
2767.65 1.21326
2765.72 1.21313
2763.79 1.21319
2761.86 1.21326
2759.93 1.21321
2758.01 1.21309
2756.08 1.2127
2754.15 1.21217
2752.22 1.21191
2750.29 1.21175
2748.36 1.21144
2746.43 1.21129
2744.51 1.21163
2742.58 1.21197
2740.65 1.21168
2738.72 1.2113
2736.79 1.21121
2734.86 1.21109
2732.93 1.21077
2731 1.21042
2729.08 1.21011
2727.15 1.20972
2725.22 1.20924
2723.29 1.20906
2721.36 1.20915
2719.43 1.20955
2717.5 1.20977
2715.58 1.2095
2713.65 1.20887
2711.72 1.20847
2709.79 1.20808
2707.86 1.20772
2705.93 1.20736
2704 1.20706
2702.07 1.20698
2700.15 1.20716
2698.22 1.20721
2696.29 1.20699
2694.36 1.20668
2692.43 1.20634
2690.5 1.20607
2688.57 1.20598
2686.65 1.20593
2684.72 1.20596
2682.79 1.20599
2680.86 1.20592
2678.93 1.20593
2677 1.20572
2675.07 1.20523
2673.14 1.20467
2671.22 1.20458
2669.29 1.20466
2667.36 1.20445
2665.43 1.20386
2663.5 1.20344
2661.57 1.20338
2659.64 1.20334
2657.72 1.20308
2655.79 1.20274
2653.86 1.20253
2651.93 1.20246
2650 1.20239
2648.07 1.20227
2646.14 1.20212
2644.21 1.20179
2642.29 1.20158
2640.36 1.20157
2638.43 1.20184
2636.5 1.2016
2634.57 1.20125
2632.64 1.20111
2630.71 1.20112
2628.78 1.20099
2626.86 1.20062
2624.93 1.20028
2623 1.20017
2621.07 1.20017
2619.14 1.20024
2617.21 1.20004
2615.28 1.19978
2613.36 1.19945
2611.43 1.19918
2609.5 1.19904
2607.57 1.19889
2605.64 1.19859
2603.71 1.1984
2601.78 1.19839
2599.85 1.19813
2597.93 1.19778
2596 1.19752
2594.07 1.19756
2592.14 1.19741
2590.21 1.19701
2588.28 1.19647
2586.35 1.19614
2584.43 1.196
2582.5 1.196
2580.57 1.19593
2578.64 1.19568
2576.71 1.19555
2574.78 1.19549
2572.85 1.19529
2570.92 1.19485
2569 1.19435
2567.07 1.19414
2565.14 1.19427
2563.21 1.19429
2561.28 1.1942
2559.35 1.19393
2557.42 1.19361
2555.5 1.19327
2553.57 1.19259
2551.64 1.19221
2549.71 1.19236
2547.78 1.1928
2545.85 1.19306
2543.92 1.19286
2541.99 1.19242
2540.07 1.19209
2538.14 1.19183
2536.21 1.19148
2534.28 1.19114
2532.35 1.19085
2530.42 1.19072
2528.49 1.1904
2526.57 1.18985
2524.64 1.18936
2522.71 1.18908
2520.78 1.18905
2518.85 1.1892
2516.92 1.18895
2514.99 1.18842
2513.06 1.18802
2511.14 1.18802
2509.21 1.18787
2507.28 1.18764
2505.35 1.18741
2503.42 1.18728
2501.49 1.18683
2499.56 1.18643
2497.64 1.18617
2495.71 1.18613
2493.78 1.186
2491.85 1.18574
2489.92 1.18556
2487.99 1.18542
2486.06 1.18519
2484.13 1.18488
2482.21 1.18482
2480.28 1.18487
2478.35 1.18481
2476.42 1.18457
2474.49 1.18422
2472.56 1.18382
2470.63 1.18362
2468.7 1.18322
2466.78 1.18269
2464.85 1.18239
2462.92 1.1825
2460.99 1.18255
2459.06 1.18231
2457.13 1.18201
2455.2 1.1817
2453.28 1.18157
2451.35 1.18149
2449.42 1.18138
2447.49 1.18112
2445.56 1.18077
2443.63 1.18031
2441.7 1.18
2439.77 1.18018
2437.85 1.18044
2435.92 1.18049
2433.99 1.18015
2432.06 1.1797
2430.13 1.1794
2428.2 1.17912
2426.27 1.17859
2424.35 1.17802
2422.42 1.17775
2420.49 1.17764
2418.56 1.17745
2416.63 1.17733
2414.7 1.17728
2412.77 1.17719
2410.84 1.17705
2408.92 1.17664
2406.99 1.17612
2405.06 1.1759
2403.13 1.1757
2401.2 1.17532
2399.27 1.17484
2397.34 1.17461
2395.42 1.17462
2393.49 1.17465
2391.56 1.17459
2389.63 1.17429
2387.7 1.17393
2385.77 1.1735
2383.84 1.17303
2381.91 1.17271
2379.99 1.17278
2378.06 1.1729
2376.13 1.17278
2374.2 1.17245
2372.27 1.17222
2370.34 1.17209
2368.41 1.17189
2366.49 1.17173
2364.56 1.17171
2362.63 1.17167
2360.7 1.17136
2358.77 1.17057
2356.84 1.16986
2354.91 1.16954
2352.98 1.16979
2351.06 1.17013
2349.13 1.16996
2347.2 1.16932
2345.27 1.1686
2343.34 1.16788
2341.41 1.16739
2339.48 1.1674
2337.55 1.16761
2335.63 1.16766
2333.7 1.16766
2331.77 1.16769
2329.84 1.16753
2327.91 1.16742
2325.98 1.16715
2324.05 1.16685
2322.13 1.16653
2320.2 1.16613
2318.27 1.16574
2316.34 1.16545
2314.41 1.16539
2312.48 1.1652
2310.55 1.16484
2308.62 1.16434
2306.7 1.16401
2304.77 1.16368
2302.84 1.16346
2300.91 1.16337
2298.98 1.16321
2297.05 1.16283
2295.12 1.16231
2293.2 1.16201
2291.27 1.16173
2289.34 1.16138
2287.41 1.16093
2285.48 1.16059
2283.55 1.16039
2281.62 1.16005
2279.69 1.15946
2277.77 1.15887
2275.84 1.15874
2273.91 1.15882
2271.98 1.15863
2270.05 1.15844
2268.12 1.15828
2266.19 1.15808
2264.27 1.15775
2262.34 1.1571
2260.41 1.15643
2258.48 1.15601
2256.55 1.15573
2254.62 1.15551
2252.69 1.15499
2250.76 1.15433
2248.84 1.15373
2246.91 1.15326
2244.98 1.15269
2243.05 1.15213
2241.12 1.15183
2239.19 1.15159
2237.26 1.15106
2235.34 1.15055
2233.41 1.15005
2231.48 1.1494
2229.55 1.14876
2227.62 1.14846
2225.69 1.1481
2223.76 1.14756
2221.83 1.14715
2219.91 1.14687
2217.98 1.14652
2216.05 1.14602
2214.12 1.14532
2212.19 1.14454
2210.26 1.14389
2208.33 1.14336
2206.41 1.1431
2204.48 1.14276
2202.55 1.1422
2200.62 1.14152
2198.69 1.14109
2196.76 1.14063
2194.83 1.13991
2192.9 1.1391
2190.98 1.13826
2189.05 1.13734
2187.12 1.13642
2185.19 1.13554
2183.26 1.13484
2181.33 1.13431
2179.4 1.13374
2177.47 1.13289
2175.55 1.1322
2173.62 1.13187
2171.69 1.13153
2169.76 1.13098
2167.83 1.13006
2165.9 1.12893
2163.97 1.12799
2162.05 1.12753
2160.12 1.12732
2158.19 1.12701
2156.26 1.12655
2154.33 1.12614
2152.4 1.12573
2150.47 1.12542
2148.54 1.12517
2146.62 1.12494
2144.69 1.12468
2142.76 1.12457
2140.83 1.12465
2138.9 1.12458
2136.97 1.12422
2135.04 1.12369
2133.12 1.12356
2131.19 1.1239
2129.26 1.12446
2127.33 1.12473
2125.4 1.12493
2123.47 1.12516
2121.54 1.12542
2119.61 1.12573
2117.69 1.12628
2115.76 1.12677
2113.83 1.12708
2111.9 1.12764
2109.97 1.12827
2108.04 1.12867
2106.11 1.12899
2104.19 1.1294
2102.26 1.12984
2100.33 1.1303
2098.4 1.13059
2096.47 1.13073
2094.54 1.13103
2092.61 1.13158
2090.68 1.13225
2088.76 1.13264
2086.83 1.13268
2084.9 1.13292
2082.97 1.13328
2081.04 1.13365
2079.11 1.13392
2077.18 1.13436
2075.26 1.13485
2073.33 1.13517
2071.4 1.13536
2069.47 1.13552
2067.54 1.13557
2065.61 1.1354
2063.68 1.13524
2061.75 1.13525
2059.83 1.13529
2057.9 1.13518
2055.97 1.13489
2054.04 1.13476
2052.11 1.13475
2050.18 1.13465
2048.25 1.13452
2046.32 1.1343
2044.4 1.13408
2042.47 1.13395
2040.54 1.13388
2038.61 1.1338
2036.68 1.13374
2034.75 1.13359
2032.82 1.13332
2030.9 1.13317
2028.97 1.13315
2027.04 1.13295
2025.11 1.13258
2023.18 1.13236
2021.25 1.13228
2019.32 1.13214
2017.39 1.13174
2015.47 1.13126
2013.54 1.13078
2011.61 1.13059
2009.68 1.13055
2007.75 1.13031
2005.82 1.12994
2003.89 1.12969
2001.97 1.12938
2000.04 1.12917
1998.11 1.12895
1996.18 1.12869
1994.25 1.1281
1992.32 1.12744
1990.39 1.12711
1988.46 1.12695
1986.54 1.12692
1984.61 1.12696
1982.68 1.12681
1980.75 1.12663
1978.82 1.12626
1976.89 1.12588
1974.96 1.12575
1973.04 1.12556
1971.11 1.12521
1969.18 1.12477
1967.25 1.12459
1965.32 1.12456
1963.39 1.12451
1961.46 1.12414
1959.53 1.12378
1957.61 1.12349
1955.68 1.12303
1953.75 1.12241
1951.82 1.12204
1949.89 1.12208
1947.96 1.12186
1946.03 1.12118
1944.11 1.12045
1942.18 1.12019
1940.25 1.12054
1938.32 1.12073
1936.39 1.12049
1934.46 1.12011
1932.53 1.11971
1930.6 1.11933
1928.68 1.11907
1926.75 1.11888
1924.82 1.11859
1922.89 1.1183
1920.96 1.11833
1919.03 1.11856
1917.1 1.11851
1915.17 1.11815
1913.25 1.11785
1911.32 1.11758
1909.39 1.11729
1907.46 1.11707
1905.53 1.11684
1903.6 1.11653
1901.67 1.11625
1899.75 1.11596
1897.82 1.11562
1895.89 1.11542
1893.96 1.11517
1892.03 1.1147
1890.1 1.11434
1888.17 1.11428
1886.24 1.11435
1884.32 1.11424
1882.39 1.11389
1880.46 1.11355
1878.53 1.11342
1876.6 1.11344
1874.67 1.11319
1872.74 1.11266
1870.82 1.11182
1868.89 1.11118
1866.96 1.11119
1865.03 1.1113
1863.1 1.11107
1861.17 1.11076
1859.24 1.11059
1857.31 1.11049
1855.39 1.11046
1853.46 1.11028
1851.53 1.1099
1849.6 1.10948
1847.67 1.109
1845.74 1.10819
1843.81 1.10781
1841.89 1.10814
1839.96 1.10843
1838.03 1.10835
1836.1 1.10815
1834.17 1.10787
1832.24 1.10751
1830.31 1.10707
1828.38 1.10623
1826.46 1.10533
1824.53 1.10511
1822.6 1.10536
1820.67 1.1054
1818.74 1.10522
1816.81 1.1051
1814.88 1.10499
1812.96 1.1047
1811.03 1.10427
1809.1 1.10387
1807.17 1.10342
1805.24 1.10297
1803.31 1.10242
1801.38 1.10216
1799.45 1.10242
1797.53 1.10245
1795.6 1.10187
1793.67 1.10114
1791.74 1.10062
1789.81 1.1005
1787.88 1.10038
1785.95 1.10009
1784.03 1.0999
1782.1 1.09987
1780.17 1.09988
1778.24 1.09954
1776.31 1.09914
1774.38 1.09898
1772.45 1.09843
1770.52 1.09718
1768.6 1.09627
1766.67 1.09625
1764.74 1.09645
1762.81 1.09648
1760.88 1.09622
1758.95 1.09546
1757.02 1.09452
1755.09 1.09385
1753.17 1.09312
1751.24 1.09213
1749.31 1.09149
1747.38 1.09131
1745.45 1.09105
1743.52 1.09057
1741.59 1.09011
1739.67 1.08975
1737.74 1.08959
1735.81 1.08946
1733.88 1.08877
1731.95 1.08751
1730.02 1.08664
1728.09 1.08646
1726.16 1.08647
1724.24 1.08632
1722.31 1.08579
1720.38 1.08461
1718.45 1.08332
1716.52 1.08289
1714.59 1.0829
1712.66 1.08286
1710.74 1.083
1708.81 1.0831
1706.88 1.08317
1704.95 1.0835
1703.02 1.08391
1701.09 1.08368
1699.16 1.08262
1697.23 1.08142
1695.31 1.0813
1693.38 1.08227
1691.45 1.08288
1689.52 1.08282
1687.59 1.08291
1685.66 1.08283
1683.73 1.08254
1681.81 1.08264
1679.88 1.0831
1677.95 1.08328
1676.02 1.08305
1674.09 1.08272
1672.16 1.08243
1670.23 1.08214
1668.3 1.08257
1666.38 1.08357
1664.45 1.08437
1662.52 1.08443
1660.59 1.08393
1658.66 1.08341
1656.73 1.08275
1654.8 1.08137
1652.88 1.08043
1650.95 1.08106
1649.02 1.08163
1647.09 1.0812
1645.16 1.08084
1643.23 1.08113
1641.3 1.08128
1639.37 1.08107
1637.45 1.08087
1635.52 1.08081
1633.59 1.08067
1631.66 1.08056
1629.73 1.08052
1627.8 1.08033
1625.87 1.07975
1623.94 1.07915
1622.02 1.07915
1620.09 1.07958
1618.16 1.07981
1616.23 1.0797
1614.3 1.07924
1612.37 1.07868
1610.44 1.07816
1608.52 1.07748
1606.59 1.07701
1604.66 1.07689
1602.73 1.07694
1600.8 1.07691
1598.87 1.07666
1596.94 1.07625
1595.01 1.07597
1593.09 1.07605
1591.16 1.07619
1589.23 1.07607
1587.3 1.07594
1585.37 1.07593
1583.44 1.07587
1581.51 1.07551
1579.59 1.07471
1577.66 1.07379
1575.73 1.07352
1573.8 1.07368
1571.87 1.07323
1569.94 1.07266
1568.01 1.0727
1566.08 1.07292
1564.16 1.07306
1562.23 1.07305
1560.3 1.07226
1558.37 1.07123
1556.44 1.07115
1554.51 1.07182
1552.58 1.07222
1550.66 1.07204
1548.73 1.07183
1546.8 1.0715
1544.87 1.07072
1542.94 1.07015
1541.01 1.0702
1539.08 1.07028
1537.15 1.07025
1535.23 1.07024
1533.3 1.07008
1531.37 1.06989
1529.44 1.06971
1527.51 1.06978
1525.58 1.06987
1523.65 1.0697
1521.73 1.0695
1519.8 1.06933
1517.87 1.06889
1515.94 1.06826
1514.01 1.06783
1512.08 1.06771
1510.15 1.06718
1508.22 1.06626
1506.3 1.06617
1504.37 1.06682
1502.44 1.0673
1500.51 1.06719
1498.58 1.06672
1496.65 1.06619
1494.72 1.06602
1492.79 1.06607
1490.87 1.06565
1488.94 1.06506
1487.01 1.06496
1485.08 1.06476
1483.15 1.06417
1481.22 1.06366
1479.29 1.06362
1477.37 1.06331
1475.44 1.06268
1473.51 1.06223
1471.58 1.06195
1469.65 1.06128
1467.72 1.06043
1465.79 1.05965
1463.86 1.05898
1461.94 1.05824
1460.01 1.05756
1458.08 1.05741
1456.15 1.05757
1454.22 1.05747
1452.29 1.05737
1450.36 1.05719
1448.44 1.05682
1446.51 1.05652
1444.58 1.05644
1442.65 1.05637
1440.72 1.05608
1438.79 1.05543
1436.86 1.05464
1434.93 1.05424
1433.01 1.05411
1431.08 1.05351
1429.15 1.05243
1427.22 1.05109
1425.29 1.04951
1423.36 1.04785
1421.43 1.04599
1419.51 1.04401
1417.58 1.04264
1415.65 1.04206
1413.72 1.04171
1411.79 1.04151
1409.86 1.04157
1407.93 1.04177
1406 1.04209
1404.08 1.04274
1402.15 1.04381
1400.22 1.04491
1398.29 1.04576
1396.36 1.04637
1394.43 1.04719
1392.5 1.04811
1390.58 1.04875
1388.65 1.04923
1386.72 1.04981
1384.79 1.05033
1382.86 1.05025
1380.93 1.04972
1379 1.04907
1377.07 1.04858
1375.15 1.04832
1373.22 1.04832
1371.29 1.04833
1369.36 1.04795
1367.43 1.04713
1365.5 1.04596
1363.57 1.04451
1361.65 1.04341
1359.72 1.04285
1357.79 1.04241
1355.86 1.04207
1353.93 1.04205
1352 1.04253
1350.07 1.04338
1348.14 1.04412
1346.22 1.04462
1344.29 1.04496
1342.36 1.04482
1340.43 1.04446
1338.5 1.04443
1336.57 1.04458
1334.64 1.04461
1332.71 1.04443
1330.79 1.04428
1328.86 1.04402
1326.93 1.04366
1325 1.04331
1323.07 1.04296
1321.14 1.04255
1319.21 1.04214
1317.29 1.04169
1315.36 1.04116
1313.43 1.04078
1311.5 1.04049
1309.57 1.04008
1307.64 1.03942
1305.71 1.03872
1303.78 1.03789
1301.86 1.03696
1299.93 1.03599
1298 1.0353
1296.07 1.03487
1294.14 1.03432
1292.21 1.03338
1290.28 1.03202
1288.36 1.03042
1286.43 1.02878
1284.5 1.02679
1282.57 1.02402
1280.64 1.0205
1278.71 1.01587
1276.78 1.00955
1274.85 1.00137
1272.93 0.991599
1271 0.980703
1269.07 0.968824
1267.14 0.956092
1265.21 0.943411
1263.28 0.932455
1261.35 0.925238
1259.43 0.922903
1257.5 0.925087
1255.57 0.930646
1253.64 0.939081
1251.71 0.95055
1249.78 0.964639
1247.85 0.979785
1245.92 0.994003
1244 1.00564
1242.07 1.01473
1240.14 1.02135
1238.21 1.02571
1236.28 1.02816
1234.35 1.02929
1232.42 1.02964
1230.5 1.02955
1228.57 1.02944
1226.64 1.02943
1224.71 1.02929
1222.78 1.02876
1220.85 1.02808
1218.92 1.02757
1216.99 1.02716
1215.07 1.0267
1213.14 1.02601
1211.21 1.02495
1209.28 1.02394
1207.35 1.02334
1205.42 1.02303
1203.49 1.0222
1201.56 1.02096
1199.64 1.01998
1197.71 1.01953
1195.78 1.01901
1193.85 1.0182
1191.92 1.01734
1189.99 1.01634
1188.06 1.01502
1186.14 1.01371
1184.21 1.01277
1182.28 1.01193
1180.35 1.01083
1178.42 1.00942
1176.49 1.00778
1174.56 1.00631
1172.63 1.00489
1170.71 1.00327
1168.78 1.00139
1166.85 0.999377
1164.92 0.997539
1162.99 0.99556
1161.06 0.993351
1159.13 0.990975
1157.21 0.988617
1155.28 0.986258
1153.35 0.983646
1151.42 0.980891
1149.49 0.978037
1147.56 0.97528
1145.63 0.972345
1143.7 0.969329
1141.78 0.966193
1139.85 0.96277
1137.92 0.959235
1135.99 0.955897
1134.06 0.952823
1132.13 0.949523
1130.2 0.945828
1128.28 0.941993
1126.35 0.938368
1124.42 0.934761
1122.49 0.931109
1120.56 0.927499
1118.63 0.92404
1116.7 0.920631
1114.77 0.916978
1112.85 0.913091
1110.92 0.909196
1108.99 0.905799
1107.06 0.90232
1105.13 0.898161
1103.2 0.893752
1101.27 0.889727
1099.35 0.885648
1097.42 0.881124
1095.49 0.87674
1093.56 0.872369
1091.63 0.867712
1089.7 0.862973
1087.77 0.858476
1085.84 0.854149
1083.92 0.849551
1081.99 0.844945
1080.06 0.840472
1078.13 0.836263
1076.2 0.832327
1074.27 0.82841
1072.34 0.824601
1070.42 0.820925
1068.49 0.817441
1066.56 0.814107
1064.63 0.811106
1062.7 0.808092
1060.77 0.804893
1058.84 0.802191
1056.91 0.800059
1054.99 0.797961
1053.06 0.795844
1051.13 0.793961
1049.2 0.792369
1047.27 0.790633
1045.34 0.788962
1043.41 0.787668
1041.48 0.786727
1039.56 0.786001
1037.63 0.785695
1035.7 0.7861
1033.77 0.787329
1031.84 0.788767
1029.91 0.789978
1027.98 0.791309
1026.06 0.793175
1024.13 0.795766
1022.2 0.799086
1020.27 0.803082
1018.34 0.807439
1016.41 0.811937
1014.48 0.816767
1012.55 0.821872
1010.63 0.826718
1008.7 0.831504
1006.77 0.836947
1004.84 0.84305
1002.91 0.849322
1000.98 0.855553
999.054 0.862049
997.125 0.868659
995.197 0.874988
993.268 0.880773
991.339 0.886464
989.411 0.892403
987.482 0.898525
985.553 0.904958
983.625 0.911097
981.696 0.916602
979.767 0.921894
977.839 0.92733
975.91 0.932844
973.981 0.938145
972.053 0.943346
970.124 0.948101
968.195 0.952235
966.267 0.955962
964.338 0.959321
962.409 0.962293
960.481 0.965037
958.552 0.967708
956.623 0.970193
954.694 0.97233
952.766 0.97421
950.837 0.97612
948.908 0.977871
946.98 0.978949
945.051 0.979194
943.122 0.978964
941.194 0.978781
939.265 0.978899
937.336 0.979037
935.408 0.979263
933.479 0.979376
931.55 0.978865
929.622 0.977792
927.693 0.976668
925.764 0.975885
923.836 0.974859
921.907 0.973096
919.978 0.970419
918.05 0.967483
916.121 0.964741
914.192 0.962272
912.264 0.959928
910.335 0.957579
908.406 0.955516
906.478 0.954065
904.549 0.953156
902.62 0.952062
900.692 0.951095
898.763 0.950661
896.834 0.95049
894.906 0.950017
892.977 0.948997
891.048 0.948235
889.12 0.94796
887.191 0.947089
885.262 0.945426
883.333 0.944029
881.405 0.943194
879.476 0.941963
877.547 0.94008
875.619 0.93788
873.69 0.936303
871.761 0.93487
869.833 0.932866
867.904 0.930552
865.975 0.927772
864.047 0.924299
862.118 0.920638
860.189 0.917327
858.261 0.913759
856.332 0.909219
854.403 0.903685
852.475 0.897518
850.546 0.89063
848.617 0.882819
846.689 0.874866
844.76 0.867736
842.831 0.86286
840.903 0.860879
838.974 0.861506
837.045 0.863835
835.117 0.867112
833.188 0.871346
831.259 0.876204
829.331 0.880611
827.402 0.883854
825.473 0.88672
823.545 0.888981
821.616 0.88987
819.687 0.888941
817.758 0.886414
815.83 0.883133
813.901 0.879109
811.972 0.874134
810.044 0.868901
808.115 0.863787
806.186 0.858961
804.258 0.854459
802.329 0.850087
800.4 0.846254
798.472 0.844344
796.543 0.844862
794.614 0.847087
792.686 0.850755
790.757 0.855348
788.828 0.859919
786.9 0.864036
784.971 0.867939
783.042 0.871623
781.114 0.875275
779.185 0.878743
777.256 0.88208
775.328 0.885131
773.399 0.888364
771.47 0.89205
769.542 0.89611
767.613 0.900156
765.684 0.903864
763.756 0.907249
761.827 0.910416
759.898 0.913571
757.97 0.916944
756.041 0.920956
754.112 0.925836
752.184 0.931256
750.255 0.936695
748.326 0.942417
746.398 0.947841
744.469 0.952252
742.54 0.955804
740.611 0.959007
738.683 0.962076
736.754 0.965146
734.825 0.968107
732.897 0.970716
730.968 0.973276
729.039 0.975626
727.111 0.977075
725.182 0.978111
723.253 0.97944
721.325 0.980464
719.396 0.980727
717.467 0.980577
715.539 0.980418
713.61 0.980111
711.681 0.980854
709.753 0.981905
707.824 0.982102
705.895 0.982167
703.967 0.9828
702.038 0.98335
700.109 0.983363
698.181 0.983384
696.252 0.982719
694.323 0.981746
692.395 0.981643
690.466 0.982256
688.537 0.983316
686.609 0.984972
684.68 0.986502
682.751 0.98669
680.823 0.986205
678.894 0.986608
676.965 0.987947
675.036 0.989561
673.108 0.991398
671.179 0.992845
669.25 0.993438
667.322 0.993288
665.393 0.993102
663.464 0.993761
661.536 0.99545
659.607 0.996782
657.678 0.996583
655.75 0.99557
653.821 0.995242
651.892 0.995955
649.964 0.996571
648.035 0.996345
646.106 0.996001
644.178 0.996428
642.249 0.997137
640.32 0.996944
638.392 0.996696
636.463 0.997136
634.534 0.997524
632.606 0.997031
630.677 0.996794
628.748 0.997048
626.82 0.997495
624.891 0.998701
622.962 1.00053
621.034 1.00242
619.105 1.00419
617.176 1.00582
615.248 1.0076
613.319 1.00834
611.39 1.00739
609.462 1.00656
607.533 1.00636
605.604 1.00609
603.676 1.00503
601.747 1.00459
599.818 1.0049
597.889 1.00518
595.961 1.00568
594.032 1.0052
592.103 1.0048
590.175 1.00532
588.246 1.00538
586.317 1.00348
584.389 1.00108
582.46 1.00032
580.531 1.00074
578.603 1.00102
576.674 1.00126
574.745 1.00221
572.817 1.00331
570.888 1.00329
568.959 1.00228
567.031 1.00132
565.102 1.00138
563.173 1.00183
561.245 1.00174
559.316 1.00219
557.387 1.00257
555.459 1.00235
553.53 1.0044
551.601 1.0071
549.673 1.007
547.744 1.00402
545.815 1.00078
543.887 0.999012
541.958 0.998986
540.029 0.999127
538.101 0.999229
536.172 1.0022
534.243 1.00527
532.314 1.00419
530.386 1.00185
528.457 1.00214
526.528 1.00271
524.6 1.00237
522.671 1.00228
520.742 1.00131
518.814 0.999379
516.885 0.998044
514.956 0.998813
513.028 1.00207
511.099 1.00521
509.17 1.0061
507.242 1.00577
505.313 1.00441
503.384 1.00213
501.456 1.00036
499.527 1.00044
497.598 1.00096
495.67 1.00171
493.741 1.004
491.812 1.00494
489.884 1.0016
487.955 1.00056
486.026 1.00234
484.098 1.0033
482.169 1.00394
480.24 1.00577
478.312 1.00426
476.383 0.99738
474.454 0.992939
472.526 0.992683
470.597 0.992274
468.668 0.993338
466.74 0.993936
464.811 0.990926
462.882 0.987156
460.954 0.987062
459.025 0.988543
457.096 0.991401
455.167 0.996238
453.239 0.994899
451.31 0.986295
449.381 0.980939
447.453 0.982803
445.524 0.984283
443.595 0.983638
441.667 0.984098
439.738 0.986489
437.809 0.988979
435.881 0.989171
433.952 0.983699
432.023 0.975493
430.095 0.970785
428.166 0.974906
426.237 0.984475
424.309 0.992559
422.38 0.993675
420.451 0.988648
418.523 0.981321
416.594 0.973923
414.665 0.966712
412.737 0.961568
410.808 0.957403
408.879 0.95248
406.951 0.954571
405.022 0.960961
403.093 0.959621
401.165 0.955256
399.236 0.968041
397.307 0.991985
395.379 1.00053
393.45 0.983411
391.521 0.962521
389.592 0.963204
387.664 0.97694
385.735 0.972616
383.806 0.944014
381.878 0.91656
379.949 0.898323
378.02 0.888054
376.092 0.901729
374.163 0.947182
372.234 0.980203
370.306 0.980095
368.377 0.960047
