7496.76250	0.00230
7494.83382	0.00230
7492.90514	0.00232
7490.97647	0.00233
7489.04779	0.00233
7487.11912	0.00233
7485.19044	0.00233
7483.26177	0.00234
7481.33309	0.00235
7479.40441	0.00235
7477.47574	0.00234
7475.54706	0.00234
7473.61839	0.00235
7471.68971	0.00237
7469.76104	0.00238
7467.83236	0.00238
7465.90368	0.00238
7463.97501	0.00239
7462.04633	0.00240
7460.11766	0.00242
7458.18898	0.00244
7456.26031	0.00243
7454.33163	0.00243
7452.40295	0.00243
7450.47428	0.00245
7448.54560	0.00246
7446.61693	0.00246
7444.68825	0.00245
7442.75958	0.00246
7440.83090	0.00247
7438.90222	0.00248
7436.97355	0.00248
7435.04487	0.00249
7433.11620	0.00249
7431.18752	0.00249
7429.25885	0.00250
7427.33017	0.00251
7425.40149	0.00251
7423.47282	0.00253
7421.54414	0.00255
7419.61547	0.00255
7417.68679	0.00254
7415.75812	0.00255
7413.82944	0.00255
7411.90076	0.00255
7409.97209	0.00256
7408.04341	0.00257
7406.11474	0.00257
7404.18606	0.00258
7402.25739	0.00259
7400.32871	0.00260
7398.40003	0.00262
7396.47136	0.00262
7394.54268	0.00263
7392.61401	0.00264
7390.68533	0.00265
7388.75666	0.00267
7386.82798	0.00268
7384.89930	0.00268
7382.97063	0.00269
7381.04195	0.00269
7379.11328	0.00268
7377.18460	0.00267
7375.25593	0.00269
7373.32725	0.00271
7371.39857	0.00271
7369.46990	0.00271
7367.54122	0.00271
7365.61255	0.00271
7363.68387	0.00271
7361.75520	0.00272
7359.82652	0.00275
7357.89784	0.00276
7355.96917	0.00276
7354.04049	0.00276
7352.11182	0.00278
7350.18314	0.00279
7348.25447	0.00280
7346.32579	0.00280
7344.39711	0.00281
7342.46844	0.00282
7340.53976	0.00281
7338.61109	0.00280
7336.68241	0.00279
7334.75374	0.00280
7332.82506	0.00283
7330.89638	0.00285
7328.96771	0.00285
7327.03903	0.00285
7325.11036	0.00286
7323.18168	0.00287
7321.25301	0.00288
7319.32433	0.00291
7317.39565	0.00293
7315.46698	0.00292
7313.53830	0.00290
7311.60963	0.00290
7309.68095	0.00292
7307.75228	0.00294
7305.82360	0.00296
7303.89492	0.00297
7301.96625	0.00297
7300.03757	0.00296
7298.10890	0.00296
7296.18022	0.00298
7294.25155	0.00300
7292.32287	0.00302
7290.39419	0.00302
7288.46552	0.00301
7286.53684	0.00301
7284.60817	0.00301
7282.67949	0.00301
7280.75082	0.00303
7278.82214	0.00306
7276.89346	0.00308
7274.96479	0.00309
7273.03611	0.00308
7271.10744	0.00308
7269.17876	0.00309
7267.25009	0.00310
7265.32141	0.00310
7263.39273	0.00311
7261.46406	0.00311
7259.53538	0.00311
7257.60671	0.00311
7255.67803	0.00312
7253.74936	0.00312
7251.82068	0.00313
7249.89200	0.00312
7247.96333	0.00313
7246.03465	0.00314
7244.10598	0.00316
7242.17730	0.00318
7240.24863	0.00319
7238.31995	0.00319
7236.39127	0.00318
7234.46260	0.00319
7232.53392	0.00319
7230.60525	0.00320
7228.67657	0.00321
7226.74790	0.00322
7224.81922	0.00323
7222.89054	0.00324
7220.96187	0.00326
7219.03319	0.00326
7217.10452	0.00326
7215.17584	0.00326
7213.24717	0.00325
7211.31849	0.00326
7209.38981	0.00327
7207.46114	0.00329
7205.53246	0.00330
7203.60379	0.00331
7201.67511	0.00333
7199.74644	0.00335
7197.81776	0.00335
7195.88908	0.00335
7193.96041	0.00335
7192.03173	0.00336
7190.10306	0.00337
7188.17438	0.00337
7186.24571	0.00339
7184.31703	0.00340
7182.38835	0.00340
7180.45968	0.00341
7178.53100	0.00341
7176.60233	0.00340
7174.67365	0.00341
7172.74498	0.00342
7170.81630	0.00342
7168.88762	0.00343
7166.95895	0.00343
7165.03027	0.00344
7163.10160	0.00346
7161.17292	0.00349
7159.24425	0.00351
7157.31557	0.00352
7155.38689	0.00352
7153.45822	0.00351
7151.52954	0.00351
7149.60087	0.00352
7147.67219	0.00354
7145.74352	0.00355
7143.81484	0.00356
7141.88616	0.00358
7139.95749	0.00359
7138.02881	0.00358
7136.10014	0.00357
7134.17146	0.00358
7132.24279	0.00358
7130.31411	0.00359
7128.38543	0.00360
7126.45676	0.00361
7124.52808	0.00362
7122.59941	0.00362
7120.67073	0.00362
7118.74206	0.00362
7116.81338	0.00364
7114.88470	0.00366
7112.95603	0.00366
7111.02735	0.00367
7109.09868	0.00368
7107.17000	0.00370
7105.24133	0.00370
7103.31265	0.00369
7101.38397	0.00369
7099.45530	0.00371
7097.52662	0.00373
7095.59795	0.00375
7093.66927	0.00376
7091.74060	0.00376
7089.81192	0.00377
7087.88324	0.00378
7085.95457	0.00377
7084.02589	0.00377
7082.09722	0.00378
7080.16854	0.00380
7078.23987	0.00381
7076.31119	0.00382
7074.38251	0.00384
7072.45384	0.00386
7070.52516	0.00386
7068.59649	0.00385
7066.66781	0.00385
7064.73914	0.00386
7062.81046	0.00388
7060.88178	0.00389
7058.95311	0.00390
7057.02443	0.00390
7055.09576	0.00390
7053.16708	0.00391
7051.23841	0.00393
7049.30973	0.00394
7047.38105	0.00395
7045.45238	0.00396
7043.52370	0.00397
7041.59503	0.00399
7039.66635	0.00401
7037.73768	0.00401
7035.80900	0.00401
7033.88032	0.00401
7031.95165	0.00402
7030.02297	0.00403
7028.09430	0.00404
7026.16562	0.00405
7024.23695	0.00406
7022.30827	0.00406
7020.37959	0.00405
7018.45092	0.00405
7016.52224	0.00407
7014.59357	0.00409
7012.66489	0.00410
7010.73622	0.00411
7008.80754	0.00412
7006.87886	0.00413
7004.95019	0.00414
7003.02151	0.00415
7001.09284	0.00415
6999.16416	0.00416
6997.23549	0.00416
6995.30681	0.00416
6993.37813	0.00416
6991.44946	0.00418
6989.52078	0.00420
6987.59211	0.00421
6985.66343	0.00423
6983.73476	0.00424
6981.80608	0.00424
6979.87740	0.00424
6977.94873	0.00425
6976.02005	0.00427
6974.09138	0.00428
6972.16270	0.00428
6970.23403	0.00429
6968.30535	0.00431
6966.37667	0.00433
6964.44800	0.00435
6962.51932	0.00435
6960.59065	0.00434
6958.66197	0.00434
6956.73330	0.00434
6954.80462	0.00434
6952.87594	0.00434
6950.94727	0.00435
6949.01859	0.00438
6947.08992	0.00440
6945.16124	0.00441
6943.23257	0.00441
6941.30389	0.00442
6939.37521	0.00444
6937.44654	0.00445
6935.51786	0.00445
6933.58919	0.00446
6931.66051	0.00447
6929.73184	0.00449
6927.80316	0.00450
6925.87448	0.00451
6923.94581	0.00453
6922.01713	0.00454
6920.08846	0.00454
6918.15978	0.00454
6916.23111	0.00454
6914.30243	0.00456
6912.37375	0.00458
6910.44508	0.00460
6908.51640	0.00460
6906.58773	0.00460
6904.65905	0.00460
6902.73038	0.00460
6900.80170	0.00461
6898.87302	0.00462
6896.94435	0.00461
6895.01567	0.00462
6893.08700	0.00464
6891.15832	0.00467
6889.22965	0.00469
6887.30097	0.00471
6885.37229	0.00473
6883.44362	0.00474
6881.51494	0.00473
6879.58627	0.00472
6877.65759	0.00473
6875.72892	0.00476
6873.80024	0.00478
6871.87156	0.00478
6869.94289	0.00478
6868.01421	0.00478
6866.08554	0.00480
6864.15686	0.00481
6862.22819	0.00481
6860.29951	0.00484
6858.37083	0.00486
6856.44216	0.00487
6854.51348	0.00487
6852.58481	0.00487
6850.65613	0.00487
6848.72746	0.00489
6846.79878	0.00490
6844.87010	0.00491
6842.94143	0.00491
6841.01275	0.00491
6839.08408	0.00492
6837.15540	0.00494
6835.22673	0.00496
6833.29805	0.00498
6831.36937	0.00498
6829.44070	0.00499
6827.51202	0.00500
6825.58335	0.00502
6823.65467	0.00504
6821.72600	0.00505
6819.79732	0.00505
6817.86864	0.00506
6815.93997	0.00506
6814.01129	0.00508
6812.08262	0.00511
6810.15394	0.00512
6808.22527	0.00511
6806.29659	0.00512
6804.36791	0.00515
6802.43924	0.00517
6800.51056	0.00518
6798.58189	0.00519
6796.65321	0.00519
6794.72454	0.00519
6792.79586	0.00519
6790.86718	0.00520
6788.93851	0.00522
6787.00983	0.00523
6785.08116	0.00524
6783.15248	0.00525
6781.22381	0.00525
6779.29513	0.00525
6777.36645	0.00527
6775.43778	0.00529
6773.50910	0.00531
6771.58043	0.00532
6769.65175	0.00533
6767.72308	0.00534
6765.79440	0.00534
6763.86572	0.00535
6761.93705	0.00537
6760.00837	0.00539
6758.07970	0.00540
6756.15102	0.00540
6754.22235	0.00542
6752.29367	0.00544
6750.36499	0.00545
6748.43632	0.00546
6746.50764	0.00546
6744.57897	0.00546
6742.65029	0.00546
6740.72162	0.00549
6738.79294	0.00551
6736.86426	0.00551
6734.93559	0.00552
6733.00691	0.00554
6731.07824	0.00558
6729.14956	0.00559
6727.22089	0.00558
6725.29221	0.00558
6723.36353	0.00559
6721.43486	0.00562
6719.50618	0.00565
6717.57751	0.00566
6715.64883	0.00566
6713.72016	0.00567
6711.79148	0.00569
6709.86280	0.00570
6707.93413	0.00569
6706.00545	0.00569
6704.07678	0.00570
6702.14810	0.00573
6700.21943	0.00574
6698.29075	0.00575
6696.36207	0.00578
6694.43340	0.00580
6692.50472	0.00580
6690.57605	0.00580
6688.64737	0.00580
6686.71870	0.00581
6684.79002	0.00583
6682.86134	0.00585
6680.93267	0.00587
6679.00399	0.00588
6677.07532	0.00590
6675.14664	0.00590
6673.21797	0.00589
6671.28929	0.00589
6669.36061	0.00592
6667.43194	0.00593
6665.50326	0.00594
6663.57459	0.00595
6661.64591	0.00598
6659.71724	0.00599
6657.78856	0.00599
6655.85988	0.00599
6653.93121	0.00600
6652.00253	0.00600
6650.07386	0.00601
6648.14518	0.00603
6646.21651	0.00606
6644.28783	0.00609
6642.35915	0.00611
6640.43048	0.00611
6638.50180	0.00610
6636.57313	0.00610
6634.64445	0.00613
6632.71578	0.00615
6630.78710	0.00617
6628.85842	0.00620
6626.92975	0.00623
6625.00107	0.00624
6623.07240	0.00624
6621.14372	0.00625
6619.21505	0.00626
6617.28637	0.00627
6615.35769	0.00628
6613.42902	0.00629
6611.50034	0.00631
6609.57167	0.00632
6607.64299	0.00633
6605.71432	0.00634
6603.78564	0.00635
6601.85696	0.00637
6599.92829	0.00638
6597.99961	0.00639
6596.07094	0.00640
6594.14226	0.00641
6592.21359	0.00641
6590.28491	0.00642
6588.35623	0.00645
6586.42756	0.00648
6584.49888	0.00648
6582.57021	0.00648
6580.64153	0.00649
6578.71286	0.00652
6576.78418	0.00654
6574.85550	0.00655
6572.92683	0.00656
6570.99815	0.00657
6569.06948	0.00659
6567.14080	0.00662
6565.21213	0.00664
6563.28345	0.00664
6561.35477	0.00664
6559.42610	0.00666
6557.49742	0.00667
6555.56875	0.00668
6553.64007	0.00670
6551.71140	0.00671
6549.78272	0.00672
6547.85404	0.00675
6545.92537	0.00677
6543.99669	0.00679
6542.06802	0.00681
6540.13934	0.00682
6538.21067	0.00682
6536.28199	0.00683
6534.35331	0.00684
6532.42464	0.00687
6530.49596	0.00688
6528.56729	0.00689
6526.63861	0.00689
6524.70994	0.00690
6522.78126	0.00691
6520.85258	0.00692
6518.92391	0.00694
6516.99523	0.00697
6515.06656	0.00698
6513.13788	0.00698
6511.20921	0.00699
6509.28053	0.00701
6507.35185	0.00703
6505.42318	0.00705
6503.49450	0.00707
6501.56583	0.00708
6499.63715	0.00709
6497.70848	0.00709
6495.77980	0.00711
6493.85112	0.00713
6491.92245	0.00716
6489.99377	0.00717
6488.06510	0.00718
6486.13642	0.00718
6484.20775	0.00719
6482.27907	0.00721
6480.35039	0.00723
6478.42172	0.00725
6476.49304	0.00727
6474.56437	0.00729
6472.63569	0.00731
6470.70702	0.00731
6468.77834	0.00732
6466.84966	0.00734
6464.92099	0.00737
6462.99231	0.00740
6461.06364	0.00742
6459.13496	0.00742
6457.20629	0.00743
6455.27761	0.00744
6453.34893	0.00744
6451.42026	0.00745
6449.49158	0.00749
6447.56291	0.00752
6445.63423	0.00752
6443.70556	0.00753
6441.77688	0.00755
6439.84820	0.00758
6437.91953	0.00760
6435.99085	0.00761
6434.06218	0.00763
6432.13350	0.00765
6430.20483	0.00766
6428.27615	0.00768
6426.34747	0.00770
6424.41880	0.00771
6422.49012	0.00772
6420.56145	0.00772
6418.63277	0.00774
6416.70410	0.00776
6414.77542	0.00777
6412.84674	0.00778
6410.91807	0.00781
6408.98939	0.00784
6407.06072	0.00786
6405.13204	0.00787
6403.20337	0.00789
6401.27469	0.00791
6399.34601	0.00793
6397.41734	0.00795
6395.48866	0.00796
6393.55999	0.00797
6391.63131	0.00797
6389.70264	0.00797
6387.77396	0.00798
6385.84528	0.00800
6383.91661	0.00802
6381.98793	0.00804
6380.05926	0.00805
6378.13058	0.00806
6376.20191	0.00808
6374.27323	0.00809
6372.34455	0.00810
6370.41588	0.00812
6368.48720	0.00816
6366.55853	0.00819
6364.62985	0.00820
6362.70118	0.00821
6360.77250	0.00823
6358.84382	0.00825
6356.91515	0.00826
6354.98647	0.00829
6353.05780	0.00831
6351.12912	0.00832
6349.20045	0.00833
6347.27177	0.00835
6345.34309	0.00837
6343.41442	0.00839
6341.48574	0.00841
6339.55707	0.00843
6337.62839	0.00847
6335.69972	0.00850
6333.77104	0.00851
6331.84236	0.00851
6329.91369	0.00853
6327.98501	0.00855
6326.05634	0.00856
6324.12766	0.00858
6322.19899	0.00860
6320.27031	0.00861
6318.34163	0.00862
6316.41296	0.00864
6314.48428	0.00865
6312.55561	0.00867
6310.62693	0.00869
6308.69826	0.00872
6306.76958	0.00874
6304.84090	0.00875
6302.91223	0.00878
6300.98355	0.00882
6299.05488	0.00885
6297.12620	0.00884
6295.19753	0.00882
6293.26885	0.00884
6291.34017	0.00887
6289.41150	0.00890
6287.48282	0.00892
6285.55415	0.00893
6283.62547	0.00894
6281.69680	0.00896
6279.76812	0.00898
6277.83944	0.00900
6275.91077	0.00901
6273.98209	0.00903
6272.05342	0.00906
6270.12474	0.00908
6268.19607	0.00909
6266.26739	0.00909
6264.33871	0.00911
6262.41004	0.00914
6260.48136	0.00917
6258.55269	0.00919
6256.62401	0.00920
6254.69534	0.00922
6252.76666	0.00925
6250.83798	0.00926
6248.90931	0.00927
6246.98063	0.00929
6245.05196	0.00932
6243.12328	0.00935
6241.19461	0.00936
6239.26593	0.00938
6237.33725	0.00940
6235.40858	0.00943
6233.47990	0.00945
6231.55123	0.00947
6229.62255	0.00950
6227.69388	0.00952
6225.76520	0.00955
6223.83652	0.00957
6221.90785	0.00959
6219.97917	0.00960
6218.05050	0.00960
6216.12182	0.00961
6214.19315	0.00962
6212.26447	0.00964
6210.33579	0.00968
6208.40712	0.00971
6206.47844	0.00972
6204.54977	0.00973
6202.62109	0.00974
6200.69242	0.00976
6198.76374	0.00978
6196.83506	0.00982
6194.90639	0.00986
6192.97771	0.00988
6191.04904	0.00990
6189.12036	0.00991
6187.19169	0.00992
6185.26301	0.00993
6183.33433	0.00995
6181.40566	0.00997
6179.47698	0.01000
6177.54831	0.01003
6175.61963	0.01004
6173.69096	0.01006
6171.76228	0.01008
6169.83360	0.01012
6167.90493	0.01014
6165.97625	0.01015
6164.04758	0.01015
6162.11890	0.01017
6160.19023	0.01020
6158.26155	0.01023
6156.33287	0.01026
6154.40420	0.01029
6152.47552	0.01031
6150.54685	0.01033
6148.61817	0.01035
6146.68950	0.01038
6144.76082	0.01040
6142.83214	0.01041
6140.90347	0.01041
6138.97479	0.01043
6137.04612	0.01047
6135.11744	0.01050
6133.18877	0.01053
6131.26009	0.01056
6129.33141	0.01058
6127.40274	0.01060
6125.47406	0.01061
6123.54539	0.01062
6121.61671	0.01064
6119.68804	0.01066
6117.75936	0.01068
6115.83068	0.01069
6113.90201	0.01070
6111.97333	0.01073
6110.04466	0.01076
6108.11598	0.01079
6106.18731	0.01081
6104.25863	0.01083
6102.32995	0.01086
6100.40128	0.01089
6098.47260	0.01092
6096.54393	0.01095
6094.61525	0.01097
6092.68658	0.01099
6090.75790	0.01100
6088.82922	0.01101
6086.90055	0.01104
6084.97187	0.01107
6083.04320	0.01110
6081.11452	0.01112
6079.18585	0.01114
6077.25717	0.01117
6075.32849	0.01119
6073.39982	0.01121
6071.47114	0.01123
6069.54247	0.01126
6067.61379	0.01129
6065.68512	0.01130
6063.75644	0.01132
6061.82776	0.01133
6059.89909	0.01135
6057.97041	0.01137
6056.04174	0.01140
6054.11306	0.01144
6052.18439	0.01148
6050.25571	0.01151
6048.32703	0.01153
6046.39836	0.01155
6044.46968	0.01156
6042.54101	0.01156
6040.61233	0.01158
6038.68366	0.01161
6036.75498	0.01165
6034.82630	0.01168
6032.89763	0.01170
6030.96895	0.01172
6029.04028	0.01174
6027.11160	0.01177
6025.18293	0.01179
6023.25425	0.01182
6021.32557	0.01185
6019.39690	0.01186
6017.46822	0.01187
6015.53955	0.01189
6013.61087	0.01193
6011.68220	0.01196
6009.75352	0.01199
6007.82484	0.01202
6005.89617	0.01205
6003.96749	0.01208
6002.03882	0.01210
6000.11014	0.01211
5998.18147	0.01213
5996.25279	0.01216
5994.32411	0.01218
5992.39544	0.01220
5990.46676	0.01222
5988.53809	0.01224
5986.60941	0.01227
5984.68074	0.01231
5982.75206	0.01233
5980.82338	0.01237
5978.89471	0.01241
5976.96603	0.01244
5975.03736	0.01246
5973.10868	0.01248
5971.18001	0.01249
5969.25133	0.01251
5967.32265	0.01255
5965.39398	0.01259
5963.46530	0.01261
5961.53663	0.01261
5959.60795	0.01263
5957.67928	0.01266
5955.75060	0.01270
5953.82192	0.01273
5951.89325	0.01276
5949.96457	0.01276
5948.03590	0.01278
5946.10722	0.01281
5944.17855	0.01285
5942.24987	0.01291
5940.32119	0.01295
5938.39252	0.01296
5936.46384	0.01296
5934.53517	0.01297
5932.60649	0.01298
5930.67782	0.01301
5928.74914	0.01304
5926.82046	0.01308
5924.89179	0.01312
5922.96311	0.01315
5921.03444	0.01318
5919.10576	0.01320
5917.17709	0.01322
5915.24841	0.01326
5913.31973	0.01330
5911.39106	0.01332
5909.46238	0.01334
5907.53371	0.01335
5905.60503	0.01337
5903.67636	0.01339
5901.74768	0.01342
5899.81900	0.01347
5897.89033	0.01350
5895.96165	0.01352
5894.03298	0.01353
5892.10430	0.01356
5890.17563	0.01361
5888.24695	0.01364
5886.31827	0.01366
5884.38960	0.01368
5882.46092	0.01370
5880.53225	0.01372
5878.60357	0.01376
5876.67490	0.01381
5874.74622	0.01385
5872.81755	0.01388
5870.88887	0.01392
5868.96019	0.01393
5867.03152	0.01394
5865.10284	0.01395
5863.17417	0.01398
5861.24549	0.01402
5859.31682	0.01406
5857.38814	0.01411
5855.45946	0.01415
5853.53079	0.01418
5851.60211	0.01420
5849.67344	0.01422
5847.74476	0.01423
5845.81609	0.01426
5843.88741	0.01430
5841.95873	0.01433
5840.03006	0.01435
5838.10138	0.01438
5836.17271	0.01441
5834.24403	0.01444
5832.31536	0.01445
5830.38668	0.01445
5828.45800	0.01448
5826.52933	0.01453
5824.60065	0.01458
5822.67198	0.01463
5820.74330	0.01468
5818.81463	0.01471
5816.88595	0.01473
5814.95727	0.01475
5813.02860	0.01476
5811.09992	0.01478
5809.17125	0.01482
5807.24257	0.01486
5805.31390	0.01488
5803.38522	0.01489
5801.45654	0.01491
5799.52787	0.01495
5797.59919	0.01499
5795.67052	0.01503
5793.74184	0.01507
5791.81317	0.01511
5789.88449	0.01513
5787.95581	0.01514
5786.02714	0.01517
5784.09846	0.01521
5782.16979	0.01523
5780.24111	0.01525
5778.31244	0.01528
5776.38376	0.01532
5774.45508	0.01536
5772.52641	0.01540
5770.59773	0.01543
5768.66906	0.01546
5766.74038	0.01549
5764.81171	0.01552
5762.88303	0.01552
5760.95435	0.01554
5759.02568	0.01558
5757.09700	0.01561
5755.16833	0.01564
5753.23965	0.01569
5751.31098	0.01574
5749.38230	0.01578
5747.45362	0.01580
5745.52495	0.01583
5743.59627	0.01587
5741.66760	0.01590
5739.73892	0.01593
5737.81025	0.01597
5735.88157	0.01601
5733.95289	0.01604
5732.02422	0.01607
5730.09554	0.01610
5728.16687	0.01613
5726.23819	0.01616
5724.30952	0.01618
5722.38084	0.01622
5720.45216	0.01626
5718.52349	0.01630
5716.59481	0.01634
5714.66614	0.01638
5712.73746	0.01640
5710.80879	0.01642
5708.88011	0.01643
5706.95143	0.01646
5705.02276	0.01652
5703.09408	0.01656
5701.16541	0.01659
5699.23673	0.01662
5697.30806	0.01666
5695.37938	0.01668
5693.45070	0.01670
5691.52203	0.01673
5689.59335	0.01677
5687.66468	0.01681
5685.73600	0.01683
5683.80733	0.01684
5681.87865	0.01688
5679.94997	0.01693
5678.02130	0.01698
5676.09262	0.01701
5674.16395	0.01704
5672.23527	0.01709
5670.30660	0.01714
5668.37792	0.01716
5666.44924	0.01717
5664.52057	0.01719
5662.59189	0.01723
5660.66322	0.01727
5658.73454	0.01731
5656.80587	0.01734
5654.87719	0.01737
5652.94851	0.01740
5651.01984	0.01742
5649.09116	0.01746
5647.16249	0.01751
5645.23381	0.01754
5643.30514	0.01757
5641.37646	0.01761
5639.44778	0.01765
5637.51911	0.01769
5635.59043	0.01773
5633.66176	0.01777
5631.73308	0.01781
5629.80441	0.01784
5627.87573	0.01788
5625.94705	0.01791
5624.01838	0.01794
5622.08970	0.01796
5620.16103	0.01796
5618.23235	0.01799
5616.30368	0.01804
5614.37500	0.01810
5612.44632	0.01815
5610.51765	0.01819
5608.58897	0.01821
5606.66030	0.01825
5604.73162	0.01828
5602.80295	0.01830
5600.87427	0.01833
5598.94559	0.01838
5597.01692	0.01842
5595.08824	0.01844
5593.15957	0.01847
5591.23089	0.01851
5589.30222	0.01855
5587.37354	0.01858
5585.44486	0.01862
5583.51619	0.01865
5581.58751	0.01868
5579.65884	0.01871
5577.73016	0.01874
5575.80149	0.01877
5573.87281	0.01883
5571.94413	0.01889
5570.01546	0.01894
5568.08678	0.01898
5566.15811	0.01899
5564.22943	0.01902
5562.30076	0.01906
5560.37208	0.01911
5558.44340	0.01915
5556.51473	0.01919
5554.58605	0.01922
5552.65738	0.01924
5550.72870	0.01926
5548.80003	0.01930
5546.87135	0.01936
5544.94267	0.01942
5543.01400	0.01946
5541.08532	0.01948
5539.15665	0.01951
5537.22797	0.01955
5535.29930	0.01958
5533.37062	0.01960
5531.44194	0.01963
5529.51327	0.01967
5527.58459	0.01971
5525.65592	0.01976
5523.72724	0.01979
5521.79857	0.01981
5519.86989	0.01984
5517.94121	0.01989
5516.01254	0.01994
5514.08386	0.01999
5512.15519	0.02003
5510.22651	0.02006
5508.29784	0.02008
5506.36916	0.02012
5504.44048	0.02018
5502.51181	0.02022
5500.58313	0.02026
5498.65446	0.02030
5496.72578	0.02033
5494.79711	0.02036
5492.86843	0.02040
5490.93975	0.02045
5489.01108	0.02049
5487.08240	0.02054
5485.15373	0.02058
5483.22505	0.02060
5481.29638	0.02063
5479.36770	0.02066
5477.43902	0.02069
5475.51035	0.02072
5473.58167	0.02076
5471.65300	0.02082
5469.72432	0.02085
5467.79565	0.02087
5465.86697	0.02091
5463.93829	0.02096
5462.00962	0.02101
5460.08094	0.02104
5458.15227	0.02109
5456.22359	0.02114
5454.29492	0.02119
5452.36624	0.02124
5450.43756	0.02127
5448.50889	0.02129
5446.58021	0.02132
5444.65154	0.02136
5442.72286	0.02141
5440.79419	0.02146
5438.86551	0.02151
5436.93683	0.02154
5435.00816	0.02158
5433.07948	0.02163
5431.15081	0.02166
5429.22213	0.02168
5427.29346	0.02172
5425.36478	0.02179
5423.43610	0.02184
5421.50743	0.02188
5419.57875	0.02191
5417.65008	0.02193
5415.72140	0.02194
5413.79273	0.02195
5411.86405	0.02199
5409.93537	0.02205
5408.00670	0.02211
5406.07802	0.02219
5404.14935	0.02225
5402.22067	0.02229
5400.29200	0.02231
5398.36332	0.02233
5396.43464	0.02236
5394.50597	0.02239
5392.57729	0.02244
5390.64862	0.02250
5388.71994	0.02255
5386.79127	0.02257
5384.86259	0.02260
5382.93391	0.02266
5381.00524	0.02272
5379.07656	0.02275
5377.14789	0.02279
5375.21921	0.02283
5373.29054	0.02287
5371.36186	0.02290
5369.43318	0.02295
5367.50451	0.02299
5365.57583	0.02304
5363.64716	0.02310
5361.71848	0.02314
5359.78981	0.02317
5357.86113	0.02321
5355.93245	0.02325
5354.00378	0.02329
5352.07510	0.02332
5350.14643	0.02336
5348.21775	0.02340
5346.28908	0.02343
5344.36040	0.02346
5342.43172	0.02351
5340.50305	0.02356
5338.57437	0.02358
5336.64570	0.02361
5334.71702	0.02366
5332.78835	0.02373
5330.85967	0.02380
5328.93099	0.02385
5327.00232	0.02388
5325.07364	0.02392
5323.14497	0.02397
5321.21629	0.02401
5319.28762	0.02406
5317.35894	0.02409
5315.43026	0.02412
5313.50159	0.02418
5311.57291	0.02423
5309.64424	0.02427
5307.71556	0.02431
5305.78689	0.02437
5303.85821	0.02442
5301.92953	0.02446
5300.00086	0.02448
5298.07218	0.02452
5296.14351	0.02455
5294.21483	0.02459
5292.28616	0.02463
5290.35748	0.02468
5288.42880	0.02473
5286.50013	0.02477
5284.57145	0.02482
5282.64278	0.02487
5280.71410	0.02492
5278.78543	0.02497
5276.85675	0.02503
5274.92807	0.02507
5272.99940	0.02508
5271.07072	0.02509
5269.14205	0.02513
5267.21337	0.02517
5265.28470	0.02521
5263.35602	0.02525
5261.42734	0.02530
5259.49867	0.02534
5257.56999	0.02537
5255.64132	0.02541
5253.71264	0.02546
5251.78397	0.02552
5249.85529	0.02557
5247.92661	0.02563
5245.99794	0.02570
5244.06926	0.02576
5242.14059	0.02581
5240.21191	0.02583
5238.28324	0.02586
5236.35456	0.02591
5234.42588	0.02600
5232.49721	0.02606
5230.56853	0.02610
5228.63986	0.02612
5226.71118	0.02614
5224.78251	0.02618
5222.85383	0.02624
5220.92515	0.02629
5218.99648	0.02633
5217.06780	0.02637
5215.13913	0.02642
5213.21045	0.02646
5211.28178	0.02648
5209.35310	0.02651
5207.42442	0.02656
5205.49575	0.02662
5203.56707	0.02667
5201.63840	0.02672
5199.70972	0.02677
5197.78105	0.02682
5195.85237	0.02687
5193.92369	0.02692
5191.99502	0.02696
5190.06634	0.02700
5188.13767	0.02702
5186.20899	0.02705
5184.28032	0.02712
5182.35164	0.02720
5180.42296	0.02726
5178.49429	0.02730
5176.56561	0.02734
5174.63694	0.02738
5172.70826	0.02741
5170.77959	0.02745
5168.85091	0.02751
5166.92223	0.02756
5164.99356	0.02760
5163.06488	0.02765
5161.13621	0.02770
5159.20753	0.02775
5157.27886	0.02781
5155.35018	0.02787
5153.42150	0.02792
5151.49283	0.02795
5149.56415	0.02799
5147.63548	0.02803
5145.70680	0.02808
5143.77813	0.02812
5141.84945	0.02817
5139.92077	0.02823
5137.99210	0.02829
5136.06342	0.02833
5134.13475	0.02837
5132.20607	0.02840
5130.27740	0.02844
5128.34872	0.02848
5126.42004	0.02852
5124.49137	0.02858
5122.56269	0.02865
5120.63402	0.02870
5118.70534	0.02875
5116.77667	0.02879
5114.84799	0.02882
5112.91931	0.02886
5110.99064	0.02892
5109.06196	0.02897
5107.13329	0.02901
5105.20461	0.02906
5103.27594	0.02912
5101.34726	0.02914
5099.41858	0.02917
5097.48991	0.02924
5095.56123	0.02931
5093.63256	0.02935
5091.70388	0.02938
5089.77521	0.02943
5087.84653	0.02950
5085.91785	0.02955
5083.98918	0.02960
5082.06050	0.02966
5080.13183	0.02972
5078.20315	0.02975
5076.27448	0.02978
5074.34580	0.02983
5072.41712	0.02988
5070.48845	0.02993
5068.55977	0.02998
5066.63110	0.03003
5064.70242	0.03009
5062.77375	0.03015
5060.84507	0.03019
5058.91639	0.03022
5056.98772	0.03025
5055.05904	0.03030
5053.13037	0.03035
5051.20169	0.03040
5049.27302	0.03046
5047.34434	0.03053
5045.41566	0.03057
5043.48699	0.03063
5041.55831	0.03070
5039.62964	0.03076
5037.70096	0.03079
5035.77229	0.03080
5033.84361	0.03084
5031.91493	0.03090
5029.98626	0.03096
5028.05758	0.03101
5026.12891	0.03107
5024.20023	0.03112
5022.27156	0.03118
5020.34288	0.03122
5018.41420	0.03127
5016.48553	0.03132
5014.55685	0.03138
5012.62818	0.03143
5010.69950	0.03149
5008.77083	0.03155
5006.84215	0.03160
5004.91347	0.03164
5002.98480	0.03168
5001.05612	0.03172
4999.12745	0.03176
4997.19877	0.03182
4995.27010	0.03190
4993.34142	0.03196
4991.41274	0.03200
4989.48407	0.03202
4987.55539	0.03205
4985.62672	0.03209
4983.69804	0.03214
4981.76937	0.03220
4979.84069	0.03225
4977.91201	0.03232
4975.98334	0.03238
4974.05466	0.03245
4972.12599	0.03251
4970.19731	0.03254
4968.26864	0.03260
4966.33996	0.03266
4964.41128	0.03269
4962.48261	0.03274
4960.55393	0.03279
4958.62526	0.03285
4956.69658	0.03290
4954.76791	0.03297
4952.83923	0.03305
4950.91055	0.03311
4948.98188	0.03315
4947.05320	0.03318
4945.12453	0.03322
4943.19585	0.03328
4941.26718	0.03334
4939.33850	0.03341
4937.40982	0.03345
4935.48115	0.03350
4933.55247	0.03356
4931.62380	0.03363
4929.69512	0.03368
4927.76645	0.03373
4925.83777	0.03377
4923.90909	0.03381
4921.98042	0.03388
4920.05174	0.03396
4918.12307	0.03403
4916.19439	0.03407
4914.26572	0.03410
4912.33704	0.03415
4910.40836	0.03421
4908.47969	0.03425
4906.55101	0.03431
4904.62234	0.03437
4902.69366	0.03442
4900.76499	0.03447
4898.83631	0.03453
4896.90763	0.03459
4894.97896	0.03465
4893.05028	0.03470
4891.12161	0.03476
4889.19293	0.03483
4887.26426	0.03489
4885.33558	0.03495
4883.40690	0.03500
4881.47823	0.03504
4879.54955	0.03506
4877.62088	0.03510
4875.69220	0.03515
4873.76353	0.03522
4871.83485	0.03528
4869.90617	0.03532
4867.97750	0.03536
4866.04882	0.03543
4864.12015	0.03552
4862.19147	0.03559
4860.26280	0.03564
4858.33412	0.03568
4856.40544	0.03573
4854.47677	0.03579
4852.54809	0.03583
4850.61942	0.03587
4848.69074	0.03592
4846.76207	0.03599
4844.83339	0.03606
4842.90471	0.03613
4840.97604	0.03618
4839.04736	0.03623
4837.11869	0.03630
4835.19001	0.03637
4833.26134	0.03642
4831.33266	0.03647
4829.40398	0.03653
4827.47531	0.03659
4825.54663	0.03665
4823.61796	0.03669
4821.68928	0.03674
4819.76061	0.03679
4817.83193	0.03684
4815.90325	0.03690
4813.97458	0.03699
4812.04590	0.03707
4810.11723	0.03713
4808.18855	0.03718
4806.25988	0.03723
4804.33120	0.03727
4802.40252	0.03731
4800.47385	0.03734
4798.54517	0.03739
4796.61650	0.03746
4794.68782	0.03754
4792.75915	0.03763
4790.83047	0.03772
4788.90179	0.03778
4786.97312	0.03782
4785.04444	0.03785
4783.11577	0.03790
4781.18709	0.03797
4779.25842	0.03804
4777.32974	0.03811
4775.40106	0.03816
4773.47239	0.03821
4771.54371	0.03828
4769.61504	0.03834
4767.68636	0.03842
4765.75769	0.03848
4763.82901	0.03852
4761.90033	0.03858
4759.97166	0.03865
4758.04298	0.03870
4756.11431	0.03874
4754.18563	0.03880
4752.25696	0.03887
4750.32828	0.03894
4748.39960	0.03900
4746.47093	0.03906
4744.54225	0.03912
4742.61358	0.03917
4740.68490	0.03923
4738.75623	0.03929
4736.82755	0.03936
4734.89887	0.03943
4732.97020	0.03949
4731.04152	0.03957
4729.11285	0.03964
4727.18417	0.03970
4725.25550	0.03975
4723.32682	0.03982
4721.39814	0.03989
4719.46947	0.03996
4717.54079	0.04002
4715.61212	0.04005
4713.68344	0.04008
4711.75477	0.04015
4709.82609	0.04022
4707.89741	0.04030
4705.96874	0.04039
4704.04006	0.04048
4702.11139	0.04053
4700.18271	0.04056
4698.25404	0.04062
4696.32536	0.04070
4694.39668	0.04077
4692.46801	0.04083
4690.53933	0.04089
4688.61066	0.04094
4686.68198	0.04101
4684.75331	0.04110
4682.82463	0.04117
4680.89595	0.04122
4678.96728	0.04127
4677.03860	0.04133
4675.10993	0.04140
4673.18125	0.04148
4671.25258	0.04156
4669.32390	0.04162
4667.39522	0.04168
4665.46655	0.04175
4663.53787	0.04182
4661.60920	0.04187
4659.68052	0.04192
4657.75185	0.04198
4655.82317	0.04207
4653.89449	0.04216
4651.96582	0.04225
4650.03714	0.04232
4648.10847	0.04237
4646.17979	0.04243
4644.25112	0.04250
4642.32244	0.04255
4640.39376	0.04259
4638.46509	0.04265
4636.53641	0.04273
4634.60774	0.04282
4632.67906	0.04289
4630.75039	0.04295
4628.82171	0.04302
4626.89303	0.04309
4624.96436	0.04318
4623.03568	0.04325
4621.10701	0.04332
4619.17833	0.04339
4617.24966	0.04346
4615.32098	0.04353
4613.39230	0.04360
4611.46363	0.04366
4609.53495	0.04371
4607.60628	0.04378
4605.67760	0.04386
4603.74893	0.04394
4601.82025	0.04400
4599.89157	0.04408
4597.96290	0.04415
4596.03422	0.04422
4594.10555	0.04430
4592.17687	0.04438
4590.24820	0.04445
4588.31952	0.04452
4586.39084	0.04459
4584.46217	0.04468
4582.53349	0.04476
4580.60482	0.04483
4578.67614	0.04488
4576.74747	0.04495
4574.81879	0.04503
4572.89011	0.04510
4570.96144	0.04517
4569.03276	0.04526
4567.10409	0.04535
4565.17541	0.04541
4563.24674	0.04546
4561.31806	0.04554
4559.38938	0.04560
4557.46071	0.04567
4555.53203	0.04574
4553.60336	0.04581
4551.67468	0.04589
4549.74601	0.04597
4547.81733	0.04605
4545.88865	0.04613
4543.95998	0.04621
4542.03130	0.04630
4540.10263	0.04640
4538.17395	0.04648
4536.24528	0.04655
4534.31660	0.04663
4532.38792	0.04671
4530.45925	0.04679
4528.53057	0.04687
4526.60190	0.04693
4524.67322	0.04700
4522.74455	0.04706
4520.81587	0.04713
4518.88719	0.04722
4516.95852	0.04731
4515.02984	0.04740
4513.10117	0.04748
4511.17249	0.04755
4509.24382	0.04763
4507.31514	0.04770
4505.38646	0.04777
4503.45779	0.04783
4501.52911	0.04791
4499.60044	0.04800
4497.67176	0.04810
4495.74309	0.04819
4493.81441	0.04826
4491.88573	0.04833
4489.95706	0.04841
4488.02838	0.04849
4486.09971	0.04859
4484.17103	0.04867
4482.24236	0.04874
4480.31368	0.04882
4478.38500	0.04891
4476.45633	0.04900
4474.52765	0.04906
4472.59898	0.04912
4470.67030	0.04920
4468.74163	0.04930
4466.81295	0.04940
4464.88427	0.04948
4462.95560	0.04956
4461.02692	0.04963
4459.09825	0.04970
4457.16957	0.04979
4455.24090	0.04989
4453.31222	0.04998
4451.38354	0.05005
4449.45487	0.05012
4447.52619	0.05020
4445.59752	0.05031
4443.66884	0.05042
4441.74017	0.05048
4439.81149	0.05052
4437.88281	0.05060
4435.95414	0.05074
4434.02546	0.05086
4432.09679	0.05094
4430.16811	0.05101
4428.23944	0.05110
4426.31076	0.05120
4424.38208	0.05131
4422.45341	0.05139
4420.52473	0.05144
4418.59606	0.05150
4416.66738	0.05158
4414.73871	0.05168
4412.81003	0.05178
4410.88135	0.05188
4408.95268	0.05198
4407.02400	0.05207
4405.09533	0.05215
4403.16665	0.05223
4401.23798	0.05232
4399.30930	0.05241
4397.38062	0.05250
4395.45195	0.05258
4393.52327	0.05269
4391.59460	0.05281
4389.66592	0.05291
4387.73725	0.05300
4385.80857	0.05306
4383.87989	0.05312
4381.95122	0.05320
4380.02254	0.05331
4378.09387	0.05342
4376.16519	0.05354
4374.23652	0.05363
4372.30784	0.05372
4370.37916	0.05381
4368.45049	0.05390
4366.52181	0.05399
4364.59314	0.05408
4362.66446	0.05419
4360.73579	0.05430
4358.80711	0.05440
4356.87843	0.05450
4354.94976	0.05460
4353.02108	0.05469
4351.09241	0.05477
4349.16373	0.05486
4347.23506	0.05495
4345.30638	0.05505
4343.37770	0.05513
4341.44903	0.05521
4339.52035	0.05531
4337.59168	0.05543
4335.66300	0.05552
4333.73433	0.05561
4331.80565	0.05571
4329.87697	0.05583
4327.94830	0.05595
4326.01962	0.05605
4324.09095	0.05613
4322.16227	0.05622
4320.23360	0.05633
4318.30492	0.05644
4316.37624	0.05654
4314.44757	0.05663
4312.51889	0.05673
4310.59022	0.05682
4308.66154	0.05692
4306.73287	0.05703
4304.80419	0.05717
4302.87551	0.05730
4300.94684	0.05740
4299.01816	0.05747
4297.08949	0.05754
4295.16081	0.05764
4293.23214	0.05774
4291.30346	0.05785
4289.37478	0.05796
4287.44611	0.05807
4285.51743	0.05820
4283.58876	0.05832
4281.66008	0.05842
4279.73141	0.05853
4277.80273	0.05863
4275.87405	0.05873
4273.94538	0.05884
4272.01670	0.05897
4270.08803	0.05906
4268.15935	0.05912
4266.23068	0.05920
4264.30200	0.05933
4262.37332	0.05946
4260.44465	0.05957
4258.51597	0.05966
4256.58730	0.05975
4254.65862	0.05986
4252.72995	0.05997
4250.80127	0.06008
4248.87259	0.06021
4246.94392	0.06034
4245.01524	0.06045
4243.08657	0.06054
4241.15789	0.06062
4239.22922	0.06072
4237.30054	0.06082
4235.37186	0.06092
4233.44319	0.06103
4231.51451	0.06113
4229.58584	0.06124
4227.65716	0.06135
4225.72849	0.06146
4223.79981	0.06158
4221.87113	0.06170
4219.94246	0.06182
4218.01378	0.06195
4216.08511	0.06207
4214.15643	0.06217
4212.22776	0.06228
4210.29908	0.06241
4208.37040	0.06253
4206.44173	0.06263
4204.51305	0.06274
4202.58438	0.06285
4200.65570	0.06298
4198.72703	0.06311
4196.79835	0.06326
4194.86968	0.06339
4192.94100	0.06349
4191.01232	0.06361
4189.08365	0.06373
4187.15497	0.06383
4185.22630	0.06393
4183.29762	0.06404
4181.36895	0.06415
4179.44027	0.06426
4177.51159	0.06438
4175.58292	0.06450
4173.65424	0.06463
4171.72557	0.06474
4169.79689	0.06485
4167.86822	0.06497
4165.93954	0.06508
4164.01086	0.06519
4162.08219	0.06530
4160.15351	0.06544
4158.22484	0.06557
4156.29616	0.06571
4154.36749	0.06585
4152.43881	0.06598
4150.51013	0.06610
4148.58146	0.06620
4146.65278	0.06631
4144.72411	0.06644
4142.79543	0.06657
4140.86676	0.06670
4138.93808	0.06684
4137.00940	0.06697
4135.08073	0.06711
4133.15205	0.06723
4131.22338	0.06735
4129.29470	0.06746
4127.36603	0.06756
4125.43735	0.06768
4123.50867	0.06782
4121.58000	0.06794
4119.65132	0.06806
4117.72265	0.06819
4115.79397	0.06832
4113.86530	0.06844
4111.93662	0.06856
4110.00794	0.06867
4108.07927	0.06877
4106.15059	0.06889
4104.22192	0.06904
4102.29324	0.06918
4100.36457	0.06931
4098.43589	0.06945
4096.50721	0.06961
4094.57854	0.06976
4092.64986	0.06987
4090.72119	0.06998
4088.79251	0.07013
4086.86384	0.07030
4084.93516	0.07045
4083.00648	0.07057
4081.07781	0.07068
4079.14913	0.07080
4077.22046	0.07094
4075.29178	0.07107
4073.36311	0.07120
4071.43443	0.07132
4069.50575	0.07143
4067.57708	0.07155
4065.64840	0.07170
4063.71973	0.07187
4061.79105	0.07202
4059.86238	0.07212
4057.93370	0.07222
4056.00502	0.07237
4054.07635	0.07254
4052.14767	0.07268
4050.21900	0.07281
4048.29032	0.07294
4046.36165	0.07309
4044.43297	0.07323
4042.50429	0.07335
4040.57562	0.07347
4038.64694	0.07359
4036.71827	0.07372
4034.78959	0.07386
4032.86092	0.07402
4030.93224	0.07417
4029.00356	0.07431
4027.07489	0.07444
4025.14621	0.07458
4023.21754	0.07472
4021.28886	0.07485
4019.36019	0.07497
4017.43151	0.07512
4015.50283	0.07529
4013.57416	0.07544
4011.64548	0.07558
4009.71681	0.07570
4007.78813	0.07582
4005.85946	0.07594
4003.93078	0.07610
4002.00210	0.07626
4000.07343	0.07641
3998.14475	0.07655
3996.21608	0.07670
3994.28740	0.07686
3992.35873	0.07702
3990.43005	0.07714
3988.50137	0.07727
3986.57270	0.07741
3984.64402	0.07757
3982.71535	0.07773
3980.78667	0.07787
3978.85800	0.07799
3976.92932	0.07811
3975.00064	0.07825
3973.07197	0.07837
3971.14329	0.07852
3969.21462	0.07869
3967.28594	0.07887
3965.35727	0.07901
3963.42859	0.07912
3961.49991	0.07926
3959.57124	0.07942
3957.64256	0.07957
3955.71389	0.07971
3953.78521	0.07986
3951.85654	0.08000
3949.92786	0.08012
3947.99918	0.08025
3946.07051	0.08039
3944.14183	0.08054
3942.21316	0.08071
3940.28448	0.08092
3938.35581	0.08111
3936.42713	0.08125
3934.49845	0.08136
3932.56978	0.08145
3930.64110	0.08159
3928.71243	0.08175
3926.78375	0.08186
3924.85508	0.08198
3922.92640	0.08215
3920.99772	0.08228
3919.06905	0.08240
3917.14037	0.08256
3915.21170	0.08281
3913.28302	0.08307
3911.35435	0.08328
3909.42567	0.08340
3907.49699	0.08339
3905.56832	0.08329
3903.63964	0.08326
3901.71097	0.08339
3899.78229	0.08364
3897.85362	0.08399
3895.92494	0.08429
3893.99626	0.08441
3892.06759	0.08448
3890.13891	0.08468
3888.21024	0.08484
3886.28156	0.08487
3884.35289	0.08499
3882.42421	0.08519
3880.49553	0.08537
3878.56686	0.08563
3876.63818	0.08585
3874.70951	0.08593
3872.78083	0.08597
3870.85216	0.08603
3868.92348	0.08621
3866.99480	0.08644
3865.06613	0.08661
3863.13745	0.08685
3861.20878	0.08715
3859.28010	0.08733
3857.35143	0.08720
3855.42275	0.08682
3853.49407	0.08676
3851.56540	0.08731
3849.63672	0.08799
3847.70805	0.08838
3845.77937	0.08852
3843.85070	0.08854
3841.92202	0.08855
3839.99334	0.08856
3838.06467	0.08867
3836.13599	0.08893
3834.20732	0.08920
3832.27864	0.08943
3830.34997	0.08966
3828.42129	0.08989
3826.49261	0.09008
3824.56394	0.09017
3822.63526	0.09012
3820.70659	0.09018
3818.77791	0.09042
3816.84924	0.09065
3814.92056	0.09095
3812.99188	0.09133
3811.06321	0.09154
3809.13453	0.09153
3807.20586	0.09157
3805.27718	0.09174
3803.34851	0.09183
3801.41983	0.09194
3799.49115	0.09223
3797.56248	0.09252
3795.63380	0.09276
3793.70513	0.09304
3791.77645	0.09328
3789.84778	0.09349
3787.91910	0.09365
3785.99042	0.09376
3784.06175	0.09389
3782.13307	0.09401
3780.20440	0.09412
3778.27572	0.09432
3776.34705	0.09461
3774.41837	0.09483
3772.48969	0.09489
3770.56102	0.09491
3768.63234	0.09505
3766.70367	0.09528
3764.77499	0.09552
3762.84632	0.09572
3760.91764	0.09582
3758.98896	0.09594
3757.06029	0.09610
3755.13161	0.09615
3753.20294	0.09602
3751.27426	0.09594
3749.34559	0.09612
3747.41691	0.09627
3745.48823	0.09625
3743.55956	0.09654
3741.63088	0.09713
3739.70221	0.09742
3737.77353	0.09733
3735.84486	0.09732
3733.91618	0.09762
3731.98750	0.09808
3730.05883	0.09847
3728.13015	0.09867
3726.20148	0.09879
3724.27280	0.09896
3722.34413	0.09917
3720.41545	0.09940
3718.48677	0.09966
3716.55810	0.09985
3714.62942	0.09987
3712.70075	0.09983
3710.77207	0.09998
3708.84340	0.10035
3706.91472	0.10074
3704.98604	0.10095
3703.05737	0.10102
3701.12869	0.10115
3699.20002	0.10141
3697.27134	0.10168
3695.34267	0.10186
3693.41399	0.10189
3691.48531	0.10181
3689.55664	0.10184
3687.62796	0.10216
3685.69929	0.10257
3683.77061	0.10286
3681.84194	0.10300
3679.91326	0.10302
3677.98458	0.10288
3676.05591	0.10278
3674.12723	0.10301
3672.19856	0.10333
3670.26988	0.10356
3668.34121	0.10393
3666.41253	0.10437
3664.48385	0.10466
3662.55518	0.10484
3660.62650	0.10498
3658.69783	0.10502
3656.76915	0.10503
3654.84048	0.10512
3652.91180	0.10506
3650.98312	0.10473
3649.05445	0.10452
3647.12577	0.10479
3645.19710	0.10539
3643.26842	0.10597
3641.33975	0.10633
3639.41107	0.10655
3637.48239	0.10670
3635.55372	0.10679
3633.62504	0.10682
3631.69637	0.10668
3629.76769	0.10653
3627.83902	0.10678
3625.91034	0.10732
3623.98166	0.10766
3622.05299	0.10769
3620.12431	0.10762
3618.19564	0.10770
3616.26696	0.10791
3614.33829	0.10805
3612.40961	0.10811
3610.48093	0.10817
3608.55226	0.10832
3606.62358	0.10863
3604.69491	0.10894
3602.76623	0.10909
3600.83756	0.10918
3598.90888	0.10931
3596.98020	0.10943
3595.05153	0.10954
3593.12285	0.10970
3591.19418	0.10978
3589.26550	0.10972
3587.33683	0.10978
3585.40815	0.11008
3583.47947	0.11042
3581.55080	0.11063
3579.62212	0.11078
3577.69345	0.11093
3575.76477	0.11109
3573.83610	0.11126
3571.90742	0.11136
3569.97874	0.11129
3568.05007	0.11120
3566.12139	0.11137
3564.19272	0.11176
3562.26404	0.11207
3560.33537	0.11226
3558.40669	0.11241
3556.47801	0.11256
3554.54934	0.11267
3552.62066	0.11276
3550.69199	0.11286
3548.76331	0.11294
3546.83464	0.11303
3544.90596	0.11316
3542.97728	0.11335
3541.04861	0.11353
3539.11993	0.11367
3537.19126	0.11378
3535.26258	0.11388
3533.33391	0.11398
3531.40523	0.11406
3529.47655	0.11411
3527.54788	0.11418
3525.61920	0.11425
3523.69053	0.11433
3521.76185	0.11443
3519.83318	0.11454
3517.90450	0.11464
3515.97582	0.11472
3514.04715	0.11478
3512.11847	0.11481
3510.18980	0.11486
3508.26112	0.11494
3506.33245	0.11501
3504.40377	0.11503
3502.47509	0.11509
3500.54642	0.11519
3498.61774	0.11527
3496.68907	0.11531
3494.76039	0.11533
3492.83172	0.11536
3490.90304	0.11540
3488.97436	0.11542
3487.04569	0.11548
3485.11701	0.11556
3483.18834	0.11565
3481.25966	0.11575
3479.33099	0.11588
3477.40231	0.11601
3475.47363	0.11614
3473.54496	0.11629
3471.61628	0.11644
3469.68761	0.11660
3467.75893	0.11676
3465.83026	0.11695
3463.90158	0.11715
3461.97290	0.11737
3460.04423	0.11759
3458.11555	0.11779
3456.18688	0.11799
3454.25820	0.11816
3452.32953	0.11831
3450.40085	0.11846
3448.47217	0.11861
3446.54350	0.11876
3444.61482	0.11896
3442.68615	0.11919
3440.75747	0.11942
3438.82880	0.11968
3436.90012	0.11999
3434.97144	0.12035
3433.04277	0.12071
3431.11409	0.12107
3429.18542	0.12144
3427.25674	0.12183
3425.32807	0.12221
3423.39939	0.12257
3421.47071	0.12291
3419.54204	0.12325
3417.61336	0.12359
3415.68469	0.12392
3413.75601	0.12423
3411.82734	0.12451
3409.89866	0.12478
3407.96998	0.12504
3406.04131	0.12527
3404.11263	0.12550
3402.18396	0.12576
3400.25528	0.12604
3398.32661	0.12628
3396.39793	0.12652
3394.46925	0.12676
3392.54058	0.12701
3390.61190	0.12728
3388.68323	0.12757
3386.75455	0.12786
3384.82588	0.12809
3382.89720	0.12833
3380.96852	0.12858
3379.03985	0.12882
3377.11117	0.12906
3375.18250	0.12929
3373.25382	0.12954
3371.32515	0.12979
3369.39647	0.13003
3367.46779	0.13025
3365.53912	0.13046
3363.61044	0.13067
3361.68177	0.13091
3359.75309	0.13117
3357.82442	0.13141
3355.89574	0.13164
3353.96706	0.13188
3352.03839	0.13213
3350.10971	0.13238
3348.18104	0.13262
3346.25236	0.13285
3344.32369	0.13310
3342.39501	0.13335
3340.46633	0.13357
3338.53766	0.13376
3336.60898	0.13397
3334.68031	0.13421
3332.75163	0.13445
3330.82296	0.13467
3328.89428	0.13490
3326.96560	0.13515
3325.03693	0.13541
3323.10825	0.13564
3321.17958	0.13585
3319.25090	0.13607
3317.32223	0.13631
3315.39355	0.13656
3313.46487	0.13680
3311.53620	0.13704
3309.60752	0.13728
3307.67885	0.13753
3305.75017	0.13781
3303.82150	0.13808
3301.89282	0.13833
3299.96414	0.13856
3298.03547	0.13879
3296.10679	0.13902
3294.17812	0.13927
3292.24944	0.13953
3290.32077	0.13979
3288.39209	0.14004
3286.46341	0.14030
3284.53474	0.14055
3282.60606	0.14080
3280.67739	0.14103
3278.74871	0.14129
3276.82004	0.14156
3274.89136	0.14182
3272.96268	0.14208
3271.03401	0.14233
3269.10533	0.14259
3267.17666	0.14285
3265.24798	0.14311
3263.31931	0.14337
3261.39063	0.14361
3259.46195	0.14385
3257.53328	0.14410
3255.60460	0.14439
3253.67593	0.14468
3251.74725	0.14495
3249.81858	0.14520
3247.88990	0.14544
3245.96122	0.14567
3244.03255	0.14592
3242.10387	0.14617
3240.17520	0.14643
3238.24652	0.14670
3236.31785	0.14697
3234.38917	0.14723
3232.46049	0.14750
3230.53182	0.14777
3228.60314	0.14804
3226.67447	0.14830
3224.74579	0.14852
3222.81712	0.14873
3220.88844	0.14897
3218.95976	0.14923
3217.03109	0.14948
3215.10241	0.14971
3213.17374	0.14996
3211.24506	0.15024
3209.31639	0.15051
3207.38771	0.15077
3205.45903	0.15104
3203.53036	0.15130
3201.60168	0.15159
3199.67301	0.15188
3197.74433	0.15216
3195.81566	0.15244
3193.88698	0.15273
3191.95830	0.15302
3190.02963	0.15330
3188.10095	0.15358
3186.17228	0.15387
3184.24360	0.15414
3182.31493	0.15439
3180.38625	0.15462
3178.45757	0.15488
3176.52890	0.15516
3174.60022	0.15542
3172.67155	0.15570
3170.74287	0.15602
3168.81420	0.15631
3166.88552	0.15655
3164.95684	0.15679
3163.02817	0.15706
3161.09949	0.15732
3159.17082	0.15758
3157.24214	0.15785
3155.31347	0.15810
3153.38479	0.15835
3151.45611	0.15859
3149.52744	0.15885
3147.59876	0.15911
3145.67009	0.15936
3143.74141	0.15963
3141.81274	0.15994
3139.88406	0.16025
3137.95538	0.16052
3136.02671	0.16077
3134.09803	0.16101
3132.16936	0.16126
3130.24068	0.16152
3128.31201	0.16181
3126.38333	0.16209
3124.45465	0.16236
3122.52598	0.16262
3120.59730	0.16287
3118.66863	0.16314
3116.73995	0.16340
3114.81128	0.16363
3112.88260	0.16387
3110.95392	0.16413
3109.02525	0.16442
3107.09657	0.16470
3105.16790	0.16495
3103.23922	0.16520
3101.31055	0.16548
3099.38187	0.16578
3097.45319	0.16606
3095.52452	0.16632
3093.59584	0.16659
3091.66717	0.16689
3089.73849	0.16719
3087.80982	0.16745
3085.88114	0.16770
3083.95246	0.16794
3082.02379	0.16820
3080.09511	0.16847
3078.16644	0.16874
3076.23776	0.16900
3074.30909	0.16927
3072.38041	0.16954
3070.45173	0.16982
3068.52306	0.17010
3066.59438	0.17036
3064.66571	0.17063
3062.73703	0.17088
3060.80836	0.17110
3058.87968	0.17133
3056.95100	0.17160
3055.02233	0.17188
3053.09365	0.17214
3051.16498	0.17241
3049.23630	0.17271
3047.30763	0.17300
3045.37895	0.17325
3043.45027	0.17348
3041.52160	0.17373
3039.59292	0.17401
3037.66425	0.17430
3035.73557	0.17455
3033.80690	0.17475
3031.87822	0.17496
3029.94954	0.17522
3028.02087	0.17555
3026.09219	0.17589
3024.16352	0.17617
3022.23484	0.17641
3020.30617	0.17666
3018.37749	0.17692
3016.44881	0.17717
3014.52014	0.17743
3012.59146	0.17770
3010.66279	0.17798
3008.73411	0.17824
3006.80544	0.17846
3004.87676	0.17871
3002.94808	0.17901
3001.01941	0.17931
2999.09073	0.17957
2997.16206	0.17978
2995.23338	0.17998
2993.30471	0.18021
2991.37603	0.18046
2989.44735	0.18073
2987.51868	0.18097
2985.59000	0.18117
2983.66133	0.18132
2981.73265	0.18142
2979.80398	0.18151
2977.87530	0.18161
2975.94662	0.18168
2974.01795	0.18171
2972.08927	0.18170
2970.16060	0.18165
2968.23192	0.18161
2966.30325	0.18163
2964.37457	0.18173
2962.44589	0.18190
2960.51722	0.18215
2958.58854	0.18247
2956.65987	0.18284
2954.73119	0.18318
2952.80252	0.18350
2950.87384	0.18383
2948.94516	0.18416
2947.01649	0.18439
2945.08781	0.18454
2943.15914	0.18465
2941.23046	0.18474
2939.30179	0.18477
2937.37311	0.18476
2935.44443	0.18474
2933.51576	0.18468
2931.58708	0.18461
2929.65841	0.18453
2927.72973	0.18446
2925.80106	0.18445
2923.87238	0.18448
2921.94370	0.18453
2920.01503	0.18466
2918.08635	0.18498
2916.15768	0.18557
2914.22900	0.18639
2912.30033	0.18731
2910.37165	0.18816
2908.44297	0.18884
2906.51430	0.18935
2904.58562	0.18978
2902.65695	0.19020
2900.72827	0.19064
2898.79960	0.19107
2896.87092	0.19150
2894.94224	0.19191
2893.01357	0.19228
2891.08489	0.19264
2889.15622	0.19298
2887.22754	0.19329
2885.29887	0.19359
2883.37019	0.19387
2881.44151	0.19415
2879.51284	0.19441
2877.58416	0.19467
2875.65549	0.19493
2873.72681	0.19516
2871.79814	0.19541
2869.86946	0.19568
2867.94078	0.19597
2866.01211	0.19621
2864.08343	0.19638
2862.15476	0.19648
2860.22608	0.19654
2858.29741	0.19656
2856.36873	0.19655
2854.44005	0.19649
2852.51138	0.19645
2850.58270	0.19664
2848.65403	0.19719
2846.72535	0.19805
2844.79668	0.19898
2842.86800	0.19981
2840.93932	0.20046
2839.01065	0.20096
2837.08197	0.20141
2835.15330	0.20183
2833.22462	0.20220
2831.29595	0.20252
2829.36727	0.20283
2827.43859	0.20316
2825.50992	0.20348
2823.58124	0.20379
2821.65257	0.20411
2819.72389	0.20443
2817.79522	0.20473
2815.86654	0.20503
2813.93786	0.20534
2812.00919	0.20565
2810.08051	0.20594
2808.15184	0.20621
2806.22316	0.20651
2804.29449	0.20684
2802.36581	0.20713
2800.43713	0.20740
2798.50846	0.20769
2796.57978	0.20801
2794.65111	0.20833
2792.72243	0.20863
2790.79376	0.20892
2788.86508	0.20919
2786.93640	0.20946
2785.00773	0.20975
2783.07905	0.21008
2781.15038	0.21041
2779.22170	0.21069
2777.29303	0.21097
2775.36435	0.21125
2773.43567	0.21152
2771.50700	0.21177
2769.57832	0.21202
2767.64965	0.21231
2765.72097	0.21261
2763.79230	0.21288
2761.86362	0.21315
2759.93494	0.21343
2758.00627	0.21373
2756.07759	0.21407
2754.14892	0.21440
2752.22024	0.21469
2750.29157	0.21495
2748.36289	0.21522
2746.43421	0.21551
2744.50554	0.21578
2742.57686	0.21603
2740.64819	0.21629
2738.71951	0.21655
2736.79084	0.21680
2734.86216	0.21707
2732.93348	0.21736
2731.00481	0.21765
2729.07613	0.21794
2727.14746	0.21822
2725.21878	0.21851
2723.29011	0.21879
2721.36143	0.21906
2719.43275	0.21931
2717.50408	0.21954
2715.57540	0.21981
2713.64673	0.22011
2711.71805	0.22040
2709.78938	0.22068
2707.86070	0.22095
2705.93202	0.22123
2704.00335	0.22148
2702.07467	0.22174
2700.14600	0.22203
2698.21732	0.22235
2696.28865	0.22264
2694.35997	0.22289
2692.43129	0.22319
2690.50262	0.22350
2688.57394	0.22378
2686.64527	0.22401
2684.71659	0.22424
2682.78792	0.22444
2680.85924	0.22467
2678.93056	0.22495
2677.00189	0.22527
2675.07321	0.22561
2673.14454	0.22591
2671.21586	0.22614
2669.28719	0.22638
2667.35851	0.22664
2665.42983	0.22690
2663.50116	0.22719
2661.57248	0.22752
2659.64381	0.22787
2657.71513	0.22819
2655.78646	0.22849
2653.85778	0.22877
2651.92910	0.22904
2650.00043	0.22934
2648.07175	0.22966
2646.14308	0.22998
2644.21440	0.23027
2642.28573	0.23053
2640.35705	0.23078
2638.42837	0.23104
2636.49970	0.23132
2634.57102	0.23160
2632.64235	0.23190
2630.71367	0.23221
2628.78500	0.23252
2626.85632	0.23281
2624.92764	0.23312
2622.99897	0.23343
2621.07029	0.23373
2619.14162	0.23403
2617.21294	0.23437
2615.28427	0.23469
2613.35559	0.23497
2611.42691	0.23523
2609.49824	0.23552
2607.56956	0.23584
2605.64089	0.23614
2603.71221	0.23643
2601.78354	0.23675
2599.85486	0.23708
2597.92618	0.23736
2595.99751	0.23762
2594.06883	0.23789
2592.14016	0.23817
2590.21148	0.23847
2588.28281	0.23876
2586.35413	0.23904
2584.42545	0.23934
2582.49678	0.23962
2580.56810	0.23989
2578.63943	0.24018
2576.71075	0.24046
2574.78208	0.24074
2572.85340	0.24103
2570.92472	0.24132
2568.99605	0.24161
2567.06737	0.24190
2565.13870	0.24218
2563.21002	0.24247
2561.28135	0.24275
2559.35267	0.24302
2557.42399	0.24329
2555.49532	0.24356
2553.56664	0.24384
2551.63797	0.24413
2549.70929	0.24440
2547.78062	0.24465
2545.85194	0.24491
2543.92326	0.24520
2541.99459	0.24548
2540.06591	0.24574
2538.13724	0.24603
2536.20856	0.24637
2534.27989	0.24668
2532.35121	0.24698
2530.42253	0.24729
2528.49386	0.24760
2526.56518	0.24792
2524.63651	0.24823
2522.70783	0.24852
2520.77916	0.24879
2518.85048	0.24905
2516.92181	0.24934
2514.99313	0.24966
2513.06445	0.24999
2511.13578	0.25028
2509.20710	0.25057
2507.27843	0.25090
2505.34975	0.25124
2503.42108	0.25158
2501.49240	0.25190
2499.56372	0.25222
2497.63505	0.25253
2495.70637	0.25283
2493.77770	0.25316
2491.84902	0.25351
2489.92035	0.25386
2487.99167	0.25419
2486.06299	0.25446
2484.13432	0.25473
2482.20564	0.25503
2480.27697	0.25535
2478.34829	0.25566
2476.41962	0.25595
2474.49094	0.25625
2472.56226	0.25657
2470.63359	0.25689
2468.70491	0.25720
2466.77624	0.25752
2464.84756	0.25784
2462.91889	0.25812
2460.99021	0.25838
2459.06153	0.25868
2457.13286	0.25901
2455.20418	0.25932
2453.27551	0.25963
2451.34683	0.25995
2449.41816	0.26028
2447.48948	0.26058
2445.56080	0.26088
2443.63213	0.26119
2441.70345	0.26152
2439.77478	0.26183
2437.84610	0.26214
2435.91743	0.26243
2433.98875	0.26272
2432.06007	0.26306
2430.13140	0.26341
2428.20272	0.26372
2426.27405	0.26402
2424.34537	0.26433
2422.41670	0.26464
2420.48802	0.26495
2418.55934	0.26523
2416.63067	0.26551
2414.70199	0.26581
2412.77332	0.26612
2410.84464	0.26640
2408.91597	0.26667
2406.98729	0.26696
2405.05861	0.26729
2403.12994	0.26762
2401.20126	0.26793
2399.27259	0.26820
2397.34391	0.26846
2395.41524	0.26877
2393.48656	0.26912
2391.55788	0.26949
2389.62921	0.26979
2387.70053	0.27003
2385.77186	0.27026
2383.84318	0.27051
2381.91451	0.27075
2379.98583	0.27093
2378.05715	0.27105
2376.12848	0.27110
2374.19980	0.27111
2372.27113	0.27113
2370.34245	0.27116
2368.41378	0.27127
2366.48510	0.27146
2364.55642	0.27169
2362.62775	0.27195
2360.69907	0.27225
2358.77040	0.27259
2356.84172	0.27300
2354.91305	0.27353
2352.98437	0.27416
2351.05569	0.27479
2349.12702	0.27521
2347.19834	0.27535
2345.26967	0.27538
2343.34099	0.27549
2341.41232	0.27571
2339.48364	0.27598
2337.55496	0.27625
2335.62629	0.27654
2333.69761	0.27683
2331.76894	0.27714
2329.84026	0.27751
2327.91159	0.27791
2325.98291	0.27832
2324.05423	0.27873
2322.12556	0.27917
2320.19688	0.27959
2318.26821	0.28000
2316.33953	0.28039
2314.41086	0.28076
2312.48218	0.28115
2310.55350	0.28157
2308.62483	0.28197
2306.69615	0.28235
2304.76748	0.28273
2302.83880	0.28309
2300.91013	0.28340
2298.98145	0.28373
2297.05277	0.28407
2295.12410	0.28440
2293.19542	0.28470
2291.26675	0.28501
2289.33807	0.28533
2287.40940	0.28566
2285.48072	0.28597
2283.55204	0.28627
2281.62337	0.28657
2279.69469	0.28687
2277.76602	0.28717
2275.83734	0.28747
2273.90867	0.28777
2271.97999	0.28806
2270.05131	0.28837
2268.12264	0.28869
2266.19396	0.28900
2264.26529	0.28927
2262.33661	0.28957
2260.40794	0.28989
2258.47926	0.29022
2256.55058	0.29051
2254.62191	0.29081
2252.69323	0.29112
2250.76456	0.29143
2248.83588	0.29174
2246.90721	0.29204
2244.97853	0.29232
2243.04985	0.29260
2241.12118	0.29291
2239.19250	0.29324
2237.26383	0.29356
2235.33515	0.29387
2233.40648	0.29418
2231.47780	0.29450
2229.54912	0.29479
2227.62045	0.29506
2225.69177	0.29535
2223.76310	0.29567
2221.83442	0.29598
2219.90575	0.29627
2217.97707	0.29656
2216.04839	0.29686
2214.11972	0.29714
2212.19104	0.29741
2210.26237	0.29769
2208.33369	0.29797
2206.40502	0.29828
2204.47634	0.29859
2202.54766	0.29885
2200.61899	0.29910
2198.69031	0.29941
2196.76164	0.29974
2194.83296	0.30004
2192.90429	0.30034
2190.97561	0.30069
2189.04693	0.30103
2187.11826	0.30132
2185.18958	0.30159
2183.26091	0.30187
2181.33223	0.30216
2179.40356	0.30248
2177.47488	0.30280
2175.54620	0.30310
2173.61753	0.30338
2171.68885	0.30364
2169.76018	0.30393
2167.83150	0.30426
2165.90283	0.30460
2163.97415	0.30494
2162.04547	0.30529
2160.11680	0.30561
2158.18812	0.30590
2156.25945	0.30619
2154.33077	0.30647
2152.40210	0.30676
2150.47342	0.30707
2148.54474	0.30740
2146.61607	0.30775
2144.68739	0.30807
2142.75872	0.30835
2140.83004	0.30860
2138.90137	0.30890
2136.97269	0.30920
2135.04401	0.30948
2133.11534	0.30977
2131.18666	0.31010
2129.25799	0.31042
2127.32931	0.31074
2125.40064	0.31106
2123.47196	0.31137
2121.54328	0.31168
2119.61461	0.31199
2117.68593	0.31230
2115.75726	0.31259
2113.82858	0.31288
2111.89991	0.31321
2109.97123	0.31355
2108.04255	0.31388
2106.11388	0.31423
2104.18520	0.31457
2102.25653	0.31486
2100.32785	0.31513
2098.39918	0.31541
2096.47050	0.31572
2094.54182	0.31604
2092.61315	0.31634
2090.68447	0.31664
2088.75580	0.31697
2086.82712	0.31731
2084.89845	0.31759
2082.96977	0.31786
2081.04109	0.31814
2079.11242	0.31843
2077.18374	0.31875
2075.25507	0.31909
2073.32639	0.31941
2071.39772	0.31971
2069.46904	0.31999
2067.54036	0.32025
2065.61169	0.32053
2063.68301	0.32087
2061.75434	0.32122
2059.82566	0.32154
2057.89699	0.32185
2055.96831	0.32218
2054.03963	0.32252
2052.11096	0.32282
2050.18228	0.32307
2048.25361	0.32333
2046.32493	0.32362
2044.39626	0.32392
2042.46758	0.32423
2040.53890	0.32455
2038.61023	0.32489
2036.68155	0.32522
2034.75288	0.32553
2032.82420	0.32582
2030.89553	0.32613
2028.96685	0.32649
2027.03817	0.32685
2025.10950	0.32716
2023.18082	0.32742
2021.25215	0.32768
2019.32347	0.32796
2017.39480	0.32828
2015.46612	0.32865
2013.53744	0.32905
2011.60877	0.32939
2009.68009	0.32966
2007.75142	0.32996
2005.82274	0.33031
2003.89407	0.33063
2001.96539	0.33089
2000.03671	0.33115
1998.10804	0.33144
1996.17936	0.33171
1994.25069	0.33190
1992.32201	0.33208
1990.39334	0.33241
1988.46466	0.33280
1986.53598	0.33315
1984.60731	0.33345
1982.67863	0.33372
1980.74996	0.33397
1978.82128	0.33424
1976.89261	0.33453
1974.96393	0.33477
1973.03525	0.33502
1971.10658	0.33525
1969.17790	0.33545
1967.24923	0.33571
1965.32055	0.33605
1963.39188	0.33639
1961.46320	0.33670
1959.53452	0.33699
1957.60585	0.33726
1955.67717	0.33754
1953.74850	0.33788
1951.81982	0.33820
1949.89115	0.33846
1947.96247	0.33870
1946.03379	0.33889
1944.10512	0.33903
1942.17644	0.33932
1940.24777	0.33981
1938.31909	0.34028
1936.39042	0.34063
1934.46174	0.34093
1932.53306	0.34121
1930.60439	0.34145
1928.67571	0.34171
1926.74704	0.34199
1924.81836	0.34218
1922.88969	0.34236
1920.96101	0.34259
1919.03233	0.34281
1917.10366	0.34321
1915.17498	0.34380
1913.24631	0.34422
1911.31763	0.34443
1909.38896	0.34467
1907.46028	0.34501
1905.53160	0.34539
1903.60293	0.34573
1901.67425	0.34605
1899.74558	0.34634
1897.81690	0.34657
1895.88823	0.34679
1893.95955	0.34704
1892.03087	0.34721
1890.10220	0.34734
1888.17352	0.34767
1886.24485	0.34813
1884.31617	0.34851
1882.38750	0.34884
1880.45882	0.34918
1878.53014	0.34949
1876.60147	0.34975
1874.67279	0.35002
1872.74412	0.35015
1870.81544	0.35003
1868.88677	0.35006
1866.95809	0.35061
1865.02941	0.35136
1863.10074	0.35187
1861.17206	0.35218
1859.24339	0.35244
1857.31471	0.35276
1855.38604	0.35316
1853.45736	0.35356
1851.52868	0.35387
1849.60001	0.35400
1847.67133	0.35389
1845.74266	0.35362
1843.81398	0.35381
1841.88531	0.35468
1839.95663	0.35552
1838.02795	0.35596
1836.09928	0.35626
1834.17060	0.35645
1832.24193	0.35641
1830.31325	0.35637
1828.38458	0.35664
1826.45590	0.35704
1824.52722	0.35753
1822.59855	0.35815
1820.66987	0.35863
1818.74120	0.35888
1816.81252	0.35912
1814.88385	0.35936
1812.95517	0.35953
1811.02649	0.35971
1809.09782	0.36004
1807.16914	0.36043
1805.24047	0.36067
1803.31179	0.36066
1801.38312	0.36064
1799.45444	0.36091
1797.52576	0.36131
1795.59709	0.36142
1793.66841	0.36128
1791.73974	0.36148
1789.81106	0.36217
1787.88239	0.36270
1785.95371	0.36282
1784.02503	0.36294
1782.09636	0.36317
1780.16768	0.36346
1778.23901	0.36379
1776.31033	0.36386
1774.38166	0.36355
1772.45298	0.36334
1770.52430	0.36361
1768.59563	0.36416
1766.66695	0.36480
1764.73828	0.36523
1762.80960	0.36527
1760.88093	0.36535
1758.95225	0.36556
1757.02357	0.36569
1755.09490	0.36578
1753.16622	0.36550
1751.23755	0.36502
1749.30887	0.36500
1747.38020	0.36537
1745.45152	0.36564
1743.52284	0.36570
1741.59417	0.36568
1739.66549	0.36576
1737.73682	0.36576
1735.80814	0.36526
1733.87947	0.36505
1731.95079	0.36586
1730.02211	0.36696
1728.09344	0.36777
1726.16476	0.36829
1724.23609	0.36854
1722.30741	0.36857
1720.37874	0.36817
1718.45006	0.36762
1716.52138	0.36774
1714.59271	0.36861
1712.66403	0.36954
1710.73536	0.37006
1708.80668	0.37004
1706.87801	0.36978
1704.94933	0.36963
1703.02065	0.36914
1701.09198	0.36834
1699.16330	0.36830
1697.23463	0.36886
1695.30595	0.36950
1693.37728	0.37032
1691.44860	0.37077
1689.51992	0.37070
1687.59125	0.37030
1685.66257	0.36955
1683.73390	0.36929
1681.80522	0.36998
1679.87655	0.37076
1677.94787	0.37088
1676.01919	0.37060
1674.09052	0.37056
1672.16184	0.37056
1670.23317	0.37043
1668.30449	0.37084
1666.37582	0.37160
1664.44714	0.37182
1662.51846	0.37181
1660.58979	0.37215
1658.66111	0.37240
1656.73244	0.37170
1654.80376	0.37018
1652.87509	0.36963
1650.94641	0.37061
1649.01773	0.37137
1647.08906	0.37146
1645.16038	0.37202
1643.23171	0.37285
1641.30303	0.37320
1639.37436	0.37293
1637.44568	0.37228
1635.51700	0.37211
1633.58833	0.37290
1631.65965	0.37372
1629.73098	0.37381
1627.80230	0.37353
1625.87363	0.37309
1623.94495	0.37237
1622.01627	0.37183
1620.08760	0.37173
1618.15892	0.37203
1616.23025	0.37307
1614.30157	0.37464
1612.37290	0.37579
1610.44422	0.37632
1608.51554	0.37679
1606.58687	0.37740
1604.65819	0.37795
1602.72952	0.37834
1600.80084	0.37868
1598.87217	0.37903
1596.94349	0.37931
1595.01481	0.37960
1593.08614	0.37997
1591.15746	0.38033
1589.22879	0.38065
1587.30011	0.38098
1585.37144	0.38129
1583.44276	0.38157
1581.51408	0.38182
1579.58541	0.38182
1577.65673	0.38154
1575.72806	0.38164
1573.79938	0.38224
1571.87071	0.38249
1569.94203	0.38244
1568.01335	0.38278
1566.08468	0.38330
1564.15600	0.38353
1562.22733	0.38299
1560.29865	0.38173
1558.36998	0.38135
1556.44130	0.38254
1554.51262	0.38397
1552.58395	0.38474
1550.65527	0.38510
1548.72660	0.38539
1546.79792	0.38541
1544.86925	0.38490
1542.94057	0.38420
1541.01189	0.38392
1539.08322	0.38459
1537.15454	0.38573
1535.22587	0.38623
1533.29719	0.38639
1531.36852	0.38690
1529.43984	0.38728
1527.51116	0.38716
1525.58249	0.38690
1523.65381	0.38641
1521.72514	0.38594
1519.79646	0.38613
1517.86779	0.38673
1515.93911	0.38735
1514.01043	0.38792
1512.08176	0.38806
1510.15308	0.38753
1508.22441	0.38682
1506.29573	0.38705
1504.36706	0.38839
1502.43838	0.38946
1500.50970	0.38951
1498.58103	0.38922
1496.65235	0.38942
1494.72368	0.39004
1492.79500	0.39019
1490.86633	0.38970
1488.93765	0.38952
1487.00897	0.39005
1485.08030	0.39073
1483.15162	0.39102
1481.22295	0.39097
1479.29427	0.39068
1477.36560	0.39013
1475.43692	0.38942
1473.50824	0.38887
1471.57957	0.38888
1469.65089	0.38927
1467.72222	0.38930
1465.79354	0.38902
1463.86487	0.38909
1461.93619	0.38924
1460.00751	0.38862
1458.07884	0.38762
1456.15016	0.38775
1454.22149	0.38904
1452.29281	0.39005
1450.36414	0.39031
1448.43546	0.39035
1446.50678	0.39063
1444.57811	0.39107
1442.64943	0.39137
1440.72076	0.39131
1438.79208	0.39065
1436.86341	0.39007
1434.93473	0.39045
1433.00605	0.39112
1431.07738	0.39134
1429.14870	0.39141
1427.22003	0.39144
1425.29135	0.39122
1423.36268	0.39083
1421.43400	0.39018
1419.50532	0.38950
1417.57665	0.38966
1415.64797	0.39043
1413.71930	0.39090
1411.79062	0.39093
1409.86195	0.39087
1407.93327	0.39073
1406.00459	0.39051
1404.07592	0.39042
1402.14724	0.39035
1400.21857	0.39005
1398.28989	0.38968
1396.36122	0.38944
1394.43254	0.38949
1392.50386	0.38986
1390.57519	0.38989
1388.64651	0.38920
1386.71784	0.38845
1384.78916	0.38823
1382.86049	0.38842
1380.93181	0.38868
1379.00313	0.38874
1377.07446	0.38854
1375.14578	0.38829
1373.21711	0.38830
1371.28843	0.38850
1369.35976	0.38858
1367.43108	0.38849
1365.50240	0.38819
1363.57373	0.38779
1361.64505	0.38769
1359.71638	0.38794
1357.78770	0.38820
1355.85903	0.38831
1353.93035	0.38841
1352.00167	0.38856
1350.07300	0.38869
1348.14432	0.38881
1346.21565	0.38898
1344.28697	0.38907
1342.35830	0.38891
1340.42962	0.38857
1338.50094	0.38843
1336.57227	0.38858
1334.64359	0.38879
1332.71492	0.38885
1330.78624	0.38882
1328.85757	0.38877
1326.92889	0.38864
1325.00021	0.38842
1323.07154	0.38824
1321.14286	0.38813
1319.21419	0.38800
1317.28551	0.38785
1315.35684	0.38769
1313.42816	0.38752
1311.49948	0.38734
1309.57081	0.38710
1307.64213	0.38679
1305.71346	0.38639
1303.78478	0.38599
1301.85611	0.38564
1299.92743	0.38531
1297.99875	0.38494
1296.07008	0.38454
1294.14140	0.38414
1292.21273	0.38371
1290.28405	0.38320
1288.35538	0.38270
1286.42670	0.38227
1284.49802	0.38183
1282.56935	0.38130
1280.64067	0.38066
1278.71200	0.37990
1276.78332	0.37905
1274.85465	0.37809
1272.92597	0.37697
1270.99729	0.37559
1269.06862	0.37387
1267.13994	0.37193
1265.21127	0.37015
1263.28259	0.36884
1261.35392	0.36820
1259.42524	0.36819
1257.49656	0.36851
1255.56789	0.36878
1253.63921	0.36882
1251.71054	0.36853
1249.78186	0.36795
1247.85319	0.36717
1245.92451	0.36636
1243.99583	0.36557
1242.06716	0.36474
1240.13848	0.36383
1238.20981	0.36285
1236.28113	0.36180
1234.35246	0.36072
1232.42378	0.35967
1230.49510	0.35863
1228.56643	0.35762
1226.63775	0.35662
1224.70908	0.35566
1222.78040	0.35474
1220.85173	0.35382
1218.92305	0.35286
1216.99437	0.35188
1215.06570	0.35092
1213.13702	0.34997
1211.20835	0.34903
1209.27967	0.34811
1207.35100	0.34716
1205.42232	0.34614
1203.49364	0.34516
1201.56497	0.34428
1199.63629	0.34340
1197.70762	0.34250
1195.77894	0.34161
1193.85027	0.34069
1191.92159	0.33972
1189.99291	0.33864
1188.06424	0.33743
1186.13556	0.33610
1184.20689	0.33473
1182.27821	0.33337
1180.34954	0.33204
1178.42086	0.33067
1176.49218	0.32930
1174.56351	0.32793
1172.63483	0.32653
1170.70616	0.32507
1168.77748	0.32354
1166.84881	0.32198
1164.92013	0.32047
1162.99145	0.31905
1161.06278	0.31770
1159.13410	0.31639
1157.20543	0.31512
1155.27675	0.31384
1153.34808	0.31254
1151.41940	0.31128
1149.49072	0.31009
1147.56205	0.30894
1145.63337	0.30778
1143.70470	0.30659
1141.77602	0.30541
1139.84735	0.30422
1137.91867	0.30298
1135.98999	0.30174
1134.06132	0.30047
1132.13264	0.29916
1130.20397	0.29783
1128.27529	0.29648
1126.34662	0.29506
1124.41794	0.29359
1122.48926	0.29209
1120.56059	0.29058
1118.63191	0.28899
1116.70324	0.28736
1114.77456	0.28576
1112.84589	0.28420
1110.91721	0.28267
1108.98853	0.28116
1107.05986	0.27964
1105.13118	0.27812
1103.20251	0.27662
1101.27383	0.27515
1099.34516	0.27375
1097.41648	0.27247
1095.48780	0.27125
1093.55913	0.27002
1091.63045	0.26879
1089.70178	0.26764
1087.77310	0.26660
1085.84443	0.26558
1083.91575	0.26453
1081.98707	0.26347
1080.05840	0.26242
1078.12972	0.26142
1076.20105	0.26056
1074.27237	0.25989
1072.34370	0.25936
1070.41502	0.25893
1068.48634	0.25864
1066.55767	0.25845
1064.62899	0.25837
1062.70032	0.25845
1060.77164	0.25868
1058.84297	0.25899
1056.91429	0.25931
1054.98561	0.25961
1053.05694	0.25990
1051.12826	0.26030
1049.19959	0.26088
1047.27091	0.26159
1045.34224	0.26233
1043.41356	0.26305
1041.48488	0.26375
1039.55621	0.26449
1037.62753	0.26526
1035.69886	0.26604
1033.77018	0.26683
1031.84151	0.26765
1029.91283	0.26848
1027.98415	0.26928
1026.05548	0.27004
1024.12680	0.27084
1022.19813	0.27172
1020.26945	0.27268
1018.34078	0.27372
1016.41210	0.27486
1014.48342	0.27610
1012.55475	0.27747
1010.62607	0.27898
1008.69740	0.28053
1006.76872	0.28201
1004.84005	0.28335
1002.91137	0.28448
1000.98269	0.28543
999.05402	0.28628
997.12534	0.28709
995.19667	0.28788
993.26799	0.28862
991.33932	0.28923
989.41064	0.28975
987.48196	0.29033
985.55329	0.29100
983.62461	0.29164
981.69594	0.29212
979.76726	0.29243
977.83859	0.29258
975.90991	0.29260
973.98123	0.29250
972.05256	0.29238
970.12388	0.29236
968.19521	0.29235
966.26653	0.29220
964.33786	0.29197
962.40918	0.29175
960.48050	0.29150
958.55183	0.29122
956.62315	0.29093
954.69448	0.29059
952.76580	0.29017
950.83713	0.28968
948.90845	0.28917
946.97977	0.28865
945.05110	0.28805
943.12242	0.28736
941.19375	0.28664
939.26507	0.28592
937.33640	0.28519
935.40772	0.28448
933.47904	0.28381
931.55037	0.28315
929.62169	0.28244
927.69302	0.28170
925.76434	0.28105
923.83567	0.28046
921.90699	0.27982
919.97831	0.27912
918.04964	0.27842
916.12096	0.27769
914.19229	0.27686
912.26361	0.27598
910.33494	0.27517
908.40626	0.27439
906.47758	0.27351
904.54891	0.27257
902.62023	0.27167
900.69156	0.27075
898.76288	0.26981
896.83421	0.26890
894.90553	0.26800
892.97685	0.26704
891.04818	0.26602
889.11950	0.26501
887.19083	0.26407
885.26215	0.26320
883.33348	0.26235
881.40480	0.26153
879.47612	0.26072
877.54745	0.25994
875.61877	0.25921
873.69010	0.25848
871.76142	0.25776
869.83275	0.25701
867.90407	0.25619
865.97539	0.25537
864.04672	0.25455
862.11804	0.25366
860.18937	0.25270
858.26069	0.25174
856.33202	0.25084
854.40334	0.24998
852.47466	0.24907
850.54599	0.24812
848.61731	0.24718
846.68864	0.24630
844.75996	0.24546
842.83129	0.24454
840.90261	0.24354
838.97394	0.24258
837.04526	0.24168
835.11658	0.24077
833.18791	0.23979
831.25923	0.23876
829.33056	0.23769
827.40188	0.23655
825.47321	0.23537
823.54453	0.23422
821.61585	0.23311
819.68718	0.23209
817.75850	0.23113
815.82983	0.23015
813.90115	0.22912
811.97248	0.22808
810.04380	0.22710
808.11512	0.22617
806.18645	0.22524
804.25777	0.22434
802.32910	0.22357
800.40042	0.22298
798.47175	0.22250
796.54307	0.22207
794.61439	0.22171
792.68572	0.22143
790.75704	0.22121
788.82837	0.22096
786.89969	0.22064
784.97102	0.22026
783.04234	0.21983
781.11366	0.21933
779.18499	0.21880
777.25631	0.21830
775.32764	0.21787
773.39896	0.21740
771.47029	0.21684
769.54161	0.21626
767.61293	0.21567
765.68426	0.21503
763.75558	0.21432
761.82691	0.21359
759.89823	0.21279
757.96956	0.21191
756.04088	0.21099
754.11220	0.21006
752.18353	0.20913
750.25485	0.20819
748.32618	0.20718
746.39750	0.20617
744.46883	0.20524
742.54015	0.20443
740.61147	0.20366
738.68280	0.20286
736.75412	0.20209
734.82545	0.20147
732.89677	0.20091
730.96810	0.20026
729.03942	0.19952
727.11074	0.19873
725.18207	0.19785
723.25339	0.19686
721.32472	0.19596
719.39604	0.19527
717.46737	0.19464
715.53869	0.19393
713.61001	0.19316
711.68134	0.19231
709.75266	0.19140
707.82399	0.19051
705.89531	0.18968
703.96664	0.18890
702.03796	0.18816
700.10928	0.18745
698.18061	0.18673
696.25193	0.18599
694.32326	0.18520
692.39458	0.18432
690.46591	0.18336
688.53723	0.18246
686.60855	0.18160
684.67988	0.18068
682.75120	0.17971
680.82253	0.17870
678.89385	0.17765
676.96518	0.17648
675.03650	0.17515
673.10782	0.17368
671.17915	0.17200
669.25047	0.17022
667.32180	0.16874
665.39312	0.16756
663.46445	0.16619
661.53577	0.16458
659.60709	0.16295
657.67842	0.16138
655.74974	0.15991
653.82107	0.15850
651.89239	0.15701
649.96372	0.15539
648.03504	0.15380
646.10636	0.15228
644.17769	0.15071
642.24901	0.14900
640.32034	0.14724
638.39166	0.14549
636.46299	0.14366
634.53431	0.14175
632.60563	0.13989
630.67696	0.13809
628.74828	0.13632
626.81961	0.13457
624.89093	0.13279
622.96226	0.13102
621.03358	0.12933
619.10490	0.12771
617.17623	0.12608
615.24755	0.12424
613.31888	0.12225
611.39020	0.12037
609.46153	0.11867
607.53285	0.11696
605.60417	0.11523
603.67550	0.11368
601.74682	0.11225
599.81815	0.11075
597.88947	0.10926
595.96080	0.10801
594.03212	0.10694
592.10344	0.10583
590.17477	0.10465
588.24609	0.10348
586.31742	0.10239
584.38874	0.10139
582.46007	0.10031
580.53139	0.09907
578.60271	0.09786
576.67404	0.09682
574.74536	0.09587
572.81669	0.09488
570.88801	0.09392
568.95934	0.09309
567.03066	0.09229
565.10198	0.09141
563.17331	0.09053
561.24463	0.08973
559.31596	0.08892
557.38728	0.08810
555.45861	0.08735
553.52993	0.08664
551.60125	0.08601
549.67258	0.08545
547.74390	0.08491
545.81523	0.08441
543.88655	0.08395
541.95788	0.08352
540.02920	0.08300
538.10052	0.08237
536.17185	0.08176
534.24317	0.08122
532.31450	0.08068
530.38582	0.08007
528.45715	0.07937
526.52847	0.07865
524.59979	0.07791
522.67112	0.07717
520.74244	0.07640
518.81377	0.07559
516.88509	0.07483
514.95642	0.07406
513.02774	0.07319
511.09906	0.07234
509.17039	0.07156
507.24171	0.07069
505.31304	0.06970
503.38436	0.06875
501.45569	0.06780
499.52701	0.06673
497.59833	0.06549
495.66966	0.06409
493.74098	0.06275
491.81231	0.06160
489.88363	0.06054
487.95496	0.05935
486.02628	0.05810
484.09760	0.05693
482.16893	0.05572
480.24025	0.05440
478.31158	0.05309
476.38290	0.05189
474.45423	0.05074
472.52555	0.04959
470.59687	0.04845
468.66820	0.04742
466.73952	0.04659
464.81085	0.04606
462.88217	0.04575
460.95350	0.04549
459.02482	0.04523
457.09614	0.04513
455.16747	0.04509
453.23879	0.04494
451.31012	0.04478
449.38144	0.04465
447.45277	0.04449
445.52409	0.04422
443.59541	0.04376
441.66674	0.04317
439.73806	0.04244
437.80939	0.04154
435.88071	0.04047
433.95204	0.03932
432.02336	0.03826
430.09468	0.03721
428.16601	0.03600
426.23733	0.03472
424.30866	0.03344
422.37998	0.03216
420.45131	0.03083
418.52263	0.02952
416.59395	0.02826
414.66528	0.02702
412.73660	0.02582
410.80793	0.02466
408.87925	0.02354
406.95058	0.02241
405.02190	0.02122
403.09322	0.01998
401.16455	0.01875
399.23587	0.01756
397.30720	0.01642
395.37852	0.01531
393.44985	0.01430
391.52117	0.01346
389.59249	0.01270
387.66382	0.01178
385.73514	0.01080
383.80647	0.01002
381.87779	0.00937
379.94912	0.00870
378.02044	0.00805
376.09176	0.00740
374.16309	0.00669
372.23441	0.00595
370.30574	0.00536
368.37706	0.00484
