7496.76250	0.00229
7494.83382	0.00231
7492.90514	0.00232
7490.97647	0.00232
7489.04779	0.00232
7487.11912	0.00233
7485.19044	0.00233
7483.26177	0.00234
7481.33309	0.00234
7479.40441	0.00234
7477.47574	0.00233
7475.54706	0.00233
7473.61839	0.00233
7471.68971	0.00233
7469.76104	0.00235
7467.83236	0.00237
7465.90368	0.00238
7463.97501	0.00238
7462.04633	0.00238
7460.11766	0.00240
7458.18898	0.00243
7456.26031	0.00244
7454.33163	0.00243
7452.40295	0.00242
7450.47428	0.00243
7448.54560	0.00244
7446.61693	0.00245
7444.68825	0.00244
7442.75958	0.00244
7440.83090	0.00245
7438.90222	0.00247
7436.97355	0.00249
7435.04487	0.00251
7433.11620	0.00251
7431.18752	0.00252
7429.25885	0.00254
7427.33017	0.00255
7425.40149	0.00256
7423.47282	0.00254
7421.54414	0.00253
7419.61547	0.00254
7417.68679	0.00256
7415.75812	0.00257
7413.82944	0.00257
7411.90076	0.00258
7409.97209	0.00259
7408.04341	0.00259
7406.11474	0.00259
7404.18606	0.00259
7402.25739	0.00259
7400.32871	0.00259
7398.40003	0.00260
7396.47136	0.00262
7394.54268	0.00262
7392.61401	0.00262
7390.68533	0.00264
7388.75666	0.00265
7386.82798	0.00266
7384.89930	0.00265
7382.97063	0.00264
7381.04195	0.00265
7379.11328	0.00268
7377.18460	0.00269
7375.25593	0.00269
7373.32725	0.00267
7371.39857	0.00268
7369.46990	0.00270
7367.54122	0.00272
7365.61255	0.00273
7363.68387	0.00273
7361.75520	0.00273
7359.82652	0.00274
7357.89784	0.00275
7355.96917	0.00276
7354.04049	0.00276
7352.11182	0.00276
7350.18314	0.00276
7348.25447	0.00278
7346.32579	0.00279
7344.39711	0.00280
7342.46844	0.00282
7340.53976	0.00284
7338.61109	0.00284
7336.68241	0.00283
7334.75374	0.00283
7332.82506	0.00284
7330.89638	0.00285
7328.96771	0.00287
7327.03903	0.00288
7325.11036	0.00286
7323.18168	0.00286
7321.25301	0.00288
7319.32433	0.00289
7317.39565	0.00289
7315.46698	0.00289
7313.53830	0.00288
7311.60963	0.00287
7309.68095	0.00288
7307.75228	0.00292
7305.82360	0.00294
7303.89492	0.00295
7301.96625	0.00295
7300.03757	0.00296
7298.10890	0.00297
7296.18022	0.00297
7294.25155	0.00297
7292.32287	0.00298
7290.39419	0.00298
7288.46552	0.00297
7286.53684	0.00297
7284.60817	0.00298
7282.67949	0.00299
7280.75082	0.00301
7278.82214	0.00304
7276.89346	0.00306
7274.96479	0.00308
7273.03611	0.00308
7271.10744	0.00308
7269.17876	0.00308
7267.25009	0.00308
7265.32141	0.00308
7263.39273	0.00309
7261.46406	0.00311
7259.53538	0.00311
7257.60671	0.00311
7255.67803	0.00311
7253.74936	0.00312
7251.82068	0.00313
7249.89200	0.00315
7247.96333	0.00316
7246.03465	0.00316
7244.10598	0.00315
7242.17730	0.00316
7240.24863	0.00318
7238.31995	0.00319
7236.39127	0.00318
7234.46260	0.00318
7232.53392	0.00319
7230.60525	0.00321
7228.67657	0.00323
7226.74790	0.00323
7224.81922	0.00323
7222.89054	0.00324
7220.96187	0.00324
7219.03319	0.00323
7217.10452	0.00323
7215.17584	0.00323
7213.24717	0.00326
7211.31849	0.00328
7209.38981	0.00329
7207.46114	0.00330
7205.53246	0.00331
7203.60379	0.00332
7201.67511	0.00333
7199.74644	0.00332
7197.81776	0.00333
7195.88908	0.00333
7193.96041	0.00334
7192.03173	0.00335
7190.10306	0.00337
7188.17438	0.00338
7186.24571	0.00339
7184.31703	0.00339
7182.38835	0.00340
7180.45968	0.00341
7178.53100	0.00342
7176.60233	0.00343
7174.67365	0.00344
7172.74498	0.00345
7170.81630	0.00344
7168.88762	0.00344
7166.95895	0.00346
7165.03027	0.00348
7163.10160	0.00348
7161.17292	0.00347
7159.24425	0.00347
7157.31557	0.00350
7155.38689	0.00351
7153.45822	0.00352
7151.52954	0.00353
7149.60087	0.00353
7147.67219	0.00354
7145.74352	0.00354
7143.81484	0.00355
7141.88616	0.00356
7139.95749	0.00355
7138.02881	0.00355
7136.10014	0.00358
7134.17146	0.00361
7132.24279	0.00364
7130.31411	0.00364
7128.38543	0.00363
7126.45676	0.00363
7124.52808	0.00363
7122.59941	0.00363
7120.67073	0.00362
7118.74206	0.00363
7116.81338	0.00364
7114.88470	0.00365
7112.95603	0.00367
7111.02735	0.00368
7109.09868	0.00368
7107.17000	0.00368
7105.24133	0.00369
7103.31265	0.00369
7101.38397	0.00370
7099.45530	0.00370
7097.52662	0.00372
7095.59795	0.00373
7093.66927	0.00374
7091.74060	0.00375
7089.81192	0.00377
7087.88324	0.00379
7085.95457	0.00379
7084.02589	0.00380
7082.09722	0.00380
7080.16854	0.00380
7078.23987	0.00381
7076.31119	0.00381
7074.38251	0.00383
7072.45384	0.00385
7070.52516	0.00387
7068.59649	0.00387
7066.66781	0.00387
7064.73914	0.00388
7062.81046	0.00389
7060.88178	0.00390
7058.95311	0.00391
7057.02443	0.00391
7055.09576	0.00391
7053.16708	0.00392
7051.23841	0.00394
7049.30973	0.00396
7047.38105	0.00397
7045.45238	0.00396
7043.52370	0.00397
7041.59503	0.00398
7039.66635	0.00399
7037.73768	0.00400
7035.80900	0.00401
7033.88032	0.00402
7031.95165	0.00403
7030.02297	0.00403
7028.09430	0.00402
7026.16562	0.00401
7024.23695	0.00403
7022.30827	0.00405
7020.37959	0.00405
7018.45092	0.00406
7016.52224	0.00407
7014.59357	0.00408
7012.66489	0.00408
7010.73622	0.00409
7008.80754	0.00409
7006.87886	0.00410
7004.95019	0.00413
7003.02151	0.00414
7001.09284	0.00414
6999.16416	0.00415
6997.23549	0.00417
6995.30681	0.00418
6993.37813	0.00420
6991.44946	0.00421
6989.52078	0.00421
6987.59211	0.00422
6985.66343	0.00422
6983.73476	0.00422
6981.80608	0.00424
6979.87740	0.00426
6977.94873	0.00427
6976.02005	0.00429
6974.09138	0.00431
6972.16270	0.00431
6970.23403	0.00431
6968.30535	0.00431
6966.37667	0.00432
6964.44800	0.00432
6962.51932	0.00432
6960.59065	0.00431
6958.66197	0.00433
6956.73330	0.00437
6954.80462	0.00440
6952.87594	0.00441
6950.94727	0.00442
6949.01859	0.00442
6947.08992	0.00441
6945.16124	0.00441
6943.23257	0.00442
6941.30389	0.00443
6939.37521	0.00442
6937.44654	0.00442
6935.51786	0.00444
6933.58919	0.00446
6931.66051	0.00447
6929.73184	0.00449
6927.80316	0.00451
6925.87448	0.00453
6923.94581	0.00454
6922.01713	0.00454
6920.08846	0.00454
6918.15978	0.00455
6916.23111	0.00456
6914.30243	0.00456
6912.37375	0.00457
6910.44508	0.00458
6908.51640	0.00459
6906.58773	0.00461
6904.65905	0.00462
6902.73038	0.00462
6900.80170	0.00461
6898.87302	0.00460
6896.94435	0.00460
6895.01567	0.00462
6893.08700	0.00465
6891.15832	0.00468
6889.22965	0.00469
6887.30097	0.00470
6885.37229	0.00471
6883.44362	0.00471
6881.51494	0.00471
6879.58627	0.00472
6877.65759	0.00474
6875.72892	0.00475
6873.80024	0.00475
6871.87156	0.00477
6869.94289	0.00479
6868.01421	0.00480
6866.08554	0.00480
6864.15686	0.00480
6862.22819	0.00482
6860.29951	0.00484
6858.37083	0.00485
6856.44216	0.00485
6854.51348	0.00486
6852.58481	0.00486
6850.65613	0.00486
6848.72746	0.00488
6846.79878	0.00490
6844.87010	0.00491
6842.94143	0.00491
6841.01275	0.00492
6839.08408	0.00492
6837.15540	0.00492
6835.22673	0.00494
6833.29805	0.00497
6831.36937	0.00499
6829.44070	0.00500
6827.51202	0.00500
6825.58335	0.00502
6823.65467	0.00503
6821.72600	0.00505
6819.79732	0.00506
6817.86864	0.00506
6815.93997	0.00505
6814.01129	0.00505
6812.08262	0.00506
6810.15394	0.00506
6808.22527	0.00508
6806.29659	0.00510
6804.36791	0.00510
6802.43924	0.00512
6800.51056	0.00513
6798.58189	0.00515
6796.65321	0.00517
6794.72454	0.00518
6792.79586	0.00518
6790.86718	0.00517
6788.93851	0.00519
6787.00983	0.00522
6785.08116	0.00524
6783.15248	0.00524
6781.22381	0.00524
6779.29513	0.00525
6777.36645	0.00527
6775.43778	0.00529
6773.50910	0.00529
6771.58043	0.00530
6769.65175	0.00531
6767.72308	0.00532
6765.79440	0.00534
6763.86572	0.00536
6761.93705	0.00537
6760.00837	0.00538
6758.07970	0.00538
6756.15102	0.00540
6754.22235	0.00542
6752.29367	0.00543
6750.36499	0.00545
6748.43632	0.00546
6746.50764	0.00548
6744.57897	0.00549
6742.65029	0.00551
6740.72162	0.00553
6738.79294	0.00552
6736.86426	0.00550
6734.93559	0.00551
6733.00691	0.00553
6731.07824	0.00555
6729.14956	0.00556
6727.22089	0.00558
6725.29221	0.00560
6723.36353	0.00561
6721.43486	0.00562
6719.50618	0.00563
6717.57751	0.00564
6715.64883	0.00565
6713.72016	0.00566
6711.79148	0.00567
6709.86280	0.00568
6707.93413	0.00569
6706.00545	0.00570
6704.07678	0.00571
6702.14810	0.00572
6700.21943	0.00573
6698.29075	0.00574
6696.36207	0.00576
6694.43340	0.00577
6692.50472	0.00578
6690.57605	0.00579
6688.64737	0.00581
6686.71870	0.00581
6684.79002	0.00580
6682.86134	0.00581
6680.93267	0.00583
6679.00399	0.00586
6677.07532	0.00590
6675.14664	0.00592
6673.21797	0.00592
6671.28929	0.00593
6669.36061	0.00594
6667.43194	0.00594
6665.50326	0.00595
6663.57459	0.00596
6661.64591	0.00597
6659.71724	0.00599
6657.78856	0.00600
6655.85988	0.00601
6653.93121	0.00602
6652.00253	0.00604
6650.07386	0.00605
6648.14518	0.00607
6646.21651	0.00608
6644.28783	0.00608
6642.35915	0.00608
6640.43048	0.00609
6638.50180	0.00611
6636.57313	0.00613
6634.64445	0.00614
6632.71578	0.00615
6630.78710	0.00617
6628.85842	0.00619
6626.92975	0.00620
6625.00107	0.00621
6623.07240	0.00623
6621.14372	0.00625
6619.21505	0.00625
6617.28637	0.00626
6615.35769	0.00628
6613.42902	0.00629
6611.50034	0.00631
6609.57167	0.00632
6607.64299	0.00633
6605.71432	0.00635
6603.78564	0.00636
6601.85696	0.00635
6599.92829	0.00636
6597.99961	0.00639
6596.07094	0.00640
6594.14226	0.00639
6592.21359	0.00640
6590.28491	0.00644
6588.35623	0.00646
6586.42756	0.00646
6584.49888	0.00646
6582.57021	0.00648
6580.64153	0.00649
6578.71286	0.00651
6576.78418	0.00652
6574.85550	0.00654
6572.92683	0.00655
6570.99815	0.00657
6569.06948	0.00658
6567.14080	0.00660
6565.21213	0.00663
6563.28345	0.00664
6561.35477	0.00666
6559.42610	0.00668
6557.49742	0.00670
6555.56875	0.00670
6553.64007	0.00670
6551.71140	0.00672
6549.78272	0.00674
6547.85404	0.00675
6545.92537	0.00676
6543.99669	0.00678
6542.06802	0.00681
6540.13934	0.00683
6538.21067	0.00685
6536.28199	0.00687
6534.35331	0.00687
6532.42464	0.00687
6530.49596	0.00689
6528.56729	0.00692
6526.63861	0.00694
6524.70994	0.00694
6522.78126	0.00694
6520.85258	0.00695
6518.92391	0.00697
6516.99523	0.00698
6515.06656	0.00699
6513.13788	0.00700
6511.20921	0.00702
6509.28053	0.00703
6507.35185	0.00705
6505.42318	0.00706
6503.49450	0.00706
6501.56583	0.00707
6499.63715	0.00708
6497.70848	0.00710
6495.77980	0.00711
6493.85112	0.00713
6491.92245	0.00713
6489.99377	0.00714
6488.06510	0.00717
6486.13642	0.00721
6484.20775	0.00724
6482.27907	0.00724
6480.35039	0.00724
6478.42172	0.00725
6476.49304	0.00727
6474.56437	0.00729
6472.63569	0.00732
6470.70702	0.00734
6468.77834	0.00734
6466.84966	0.00735
6464.92099	0.00738
6462.99231	0.00742
6461.06364	0.00745
6459.13496	0.00746
6457.20629	0.00745
6455.27761	0.00746
6453.34893	0.00749
6451.42026	0.00750
6449.49158	0.00751
6447.56291	0.00752
6445.63423	0.00753
6443.70556	0.00754
6441.77688	0.00755
6439.84820	0.00758
6437.91953	0.00761
6435.99085	0.00762
6434.06218	0.00762
6432.13350	0.00763
6430.20483	0.00765
6428.27615	0.00767
6426.34747	0.00769
6424.41880	0.00771
6422.49012	0.00772
6420.56145	0.00774
6418.63277	0.00775
6416.70410	0.00776
6414.77542	0.00776
6412.84674	0.00778
6410.91807	0.00780
6408.98939	0.00780
6407.06072	0.00781
6405.13204	0.00786
6403.20337	0.00791
6401.27469	0.00793
6399.34601	0.00793
6397.41734	0.00793
6395.48866	0.00794
6393.55999	0.00795
6391.63131	0.00796
6389.70264	0.00799
6387.77396	0.00802
6385.84528	0.00803
6383.91661	0.00804
6381.98793	0.00807
6380.05926	0.00811
6378.13058	0.00813
6376.20191	0.00813
6374.27323	0.00812
6372.34455	0.00813
6370.41588	0.00815
6368.48720	0.00818
6366.55853	0.00821
6364.62985	0.00823
6362.70118	0.00824
6360.77250	0.00825
6358.84382	0.00826
6356.91515	0.00826
6354.98647	0.00827
6353.05780	0.00828
6351.12912	0.00831
6349.20045	0.00834
6347.27177	0.00837
6345.34309	0.00838
6343.41442	0.00839
6341.48574	0.00840
6339.55707	0.00842
6337.62839	0.00844
6335.69972	0.00846
6333.77104	0.00847
6331.84236	0.00847
6329.91369	0.00848
6327.98501	0.00850
6326.05634	0.00852
6324.12766	0.00854
6322.19899	0.00857
6320.27031	0.00860
6318.34163	0.00861
6316.41296	0.00862
6314.48428	0.00865
6312.55561	0.00867
6310.62693	0.00868
6308.69826	0.00869
6306.76958	0.00872
6304.84090	0.00875
6302.91223	0.00878
6300.98355	0.00878
6299.05488	0.00879
6297.12620	0.00881
6295.19753	0.00883
6293.26885	0.00884
6291.34017	0.00886
6289.41150	0.00888
6287.48282	0.00890
6285.55415	0.00891
6283.62547	0.00894
6281.69680	0.00897
6279.76812	0.00899
6277.83944	0.00899
6275.91077	0.00900
6273.98209	0.00904
6272.05342	0.00907
6270.12474	0.00909
6268.19607	0.00910
6266.26739	0.00910
6264.33871	0.00912
6262.41004	0.00915
6260.48136	0.00918
6258.55269	0.00922
6256.62401	0.00924
6254.69534	0.00925
6252.76666	0.00927
6250.83798	0.00928
6248.90931	0.00930
6246.98063	0.00931
6245.05196	0.00933
6243.12328	0.00935
6241.19461	0.00936
6239.26593	0.00939
6237.33725	0.00941
6235.40858	0.00943
6233.47990	0.00945
6231.55123	0.00946
6229.62255	0.00947
6227.69388	0.00950
6225.76520	0.00952
6223.83652	0.00956
6221.90785	0.00960
6219.97917	0.00962
6218.05050	0.00962
6216.12182	0.00961
6214.19315	0.00963
6212.26447	0.00966
6210.33579	0.00968
6208.40712	0.00970
6206.47844	0.00972
6204.54977	0.00974
6202.62109	0.00977
6200.69242	0.00979
6198.76374	0.00981
6196.83506	0.00984
6194.90639	0.00986
6192.97771	0.00988
6191.04904	0.00990
6189.12036	0.00991
6187.19169	0.00993
6185.26301	0.00994
6183.33433	0.00996
6181.40566	0.00998
6179.47698	0.01000
6177.54831	0.01002
6175.61963	0.01004
6173.69096	0.01006
6171.76228	0.01007
6169.83360	0.01011
6167.90493	0.01015
6165.97625	0.01017
6164.04758	0.01019
6162.11890	0.01021
6160.19023	0.01022
6158.26155	0.01023
6156.33287	0.01024
6154.40420	0.01025
6152.47552	0.01028
6150.54685	0.01031
6148.61817	0.01034
6146.68950	0.01036
6144.76082	0.01038
6142.83214	0.01040
6140.90347	0.01042
6138.97479	0.01044
6137.04612	0.01047
6135.11744	0.01051
6133.18877	0.01053
6131.26009	0.01054
6129.33141	0.01056
6127.40274	0.01058
6125.47406	0.01060
6123.54539	0.01063
6121.61671	0.01066
6119.68804	0.01070
6117.75936	0.01072
6115.83068	0.01074
6113.90201	0.01075
6111.97333	0.01075
6110.04466	0.01076
6108.11598	0.01077
6106.18731	0.01081
6104.25863	0.01084
6102.32995	0.01087
6100.40128	0.01090
6098.47260	0.01092
6096.54393	0.01094
6094.61525	0.01096
6092.68658	0.01098
6090.75790	0.01102
6088.82922	0.01104
6086.90055	0.01105
6084.97187	0.01107
6083.04320	0.01108
6081.11452	0.01110
6079.18585	0.01114
6077.25717	0.01118
6075.32849	0.01119
6073.39982	0.01120
6071.47114	0.01123
6069.54247	0.01126
6067.61379	0.01129
6065.68512	0.01131
6063.75644	0.01133
6061.82776	0.01136
6059.89909	0.01138
6057.97041	0.01139
6056.04174	0.01141
6054.11306	0.01144
6052.18439	0.01147
6050.25571	0.01150
6048.32703	0.01152
6046.39836	0.01153
6044.46968	0.01155
6042.54101	0.01156
6040.61233	0.01158
6038.68366	0.01160
6036.75498	0.01164
6034.82630	0.01168
6032.89763	0.01170
6030.96895	0.01172
6029.04028	0.01175
6027.11160	0.01179
6025.18293	0.01184
6023.25425	0.01187
6021.32557	0.01189
6019.39690	0.01190
6017.46822	0.01190
6015.53955	0.01191
6013.61087	0.01194
6011.68220	0.01199
6009.75352	0.01203
6007.82484	0.01203
6005.89617	0.01203
6003.96749	0.01205
6002.03882	0.01208
6000.11014	0.01212
5998.18147	0.01216
5996.25279	0.01220
5994.32411	0.01224
5992.39544	0.01225
5990.46676	0.01226
5988.53809	0.01228
5986.60941	0.01229
5984.68074	0.01231
5982.75206	0.01234
5980.82338	0.01237
5978.89471	0.01241
5976.96603	0.01245
5975.03736	0.01248
5973.10868	0.01250
5971.18001	0.01251
5969.25133	0.01252
5967.32265	0.01255
5965.39398	0.01257
5963.46530	0.01260
5961.53663	0.01264
5959.60795	0.01268
5957.67928	0.01271
5955.75060	0.01273
5953.82192	0.01275
5951.89325	0.01276
5949.96457	0.01278
5948.03590	0.01280
5946.10722	0.01283
5944.17855	0.01285
5942.24987	0.01287
5940.32119	0.01290
5938.39252	0.01295
5936.46384	0.01299
5934.53517	0.01302
5932.60649	0.01304
5930.67782	0.01306
5928.74914	0.01309
5926.82046	0.01311
5924.89179	0.01313
5922.96311	0.01316
5921.03444	0.01319
5919.10576	0.01320
5917.17709	0.01322
5915.24841	0.01326
5913.31973	0.01331
5911.39106	0.01334
5909.46238	0.01335
5907.53371	0.01335
5905.60503	0.01338
5903.67636	0.01342
5901.74768	0.01346
5899.81900	0.01349
5897.89033	0.01353
5895.96165	0.01355
5894.03298	0.01358
5892.10430	0.01360
5890.17563	0.01364
5888.24695	0.01368
5886.31827	0.01370
5884.38960	0.01372
5882.46092	0.01373
5880.53225	0.01375
5878.60357	0.01377
5876.67490	0.01380
5874.74622	0.01383
5872.81755	0.01387
5870.88887	0.01391
5868.96019	0.01394
5867.03152	0.01396
5865.10284	0.01398
5863.17417	0.01402
5861.24549	0.01405
5859.31682	0.01407
5857.38814	0.01409
5855.45946	0.01411
5853.53079	0.01414
5851.60211	0.01417
5849.67344	0.01421
5847.74476	0.01425
5845.81609	0.01429
5843.88741	0.01431
5841.95873	0.01432
5840.03006	0.01432
5838.10138	0.01434
5836.17271	0.01439
5834.24403	0.01444
5832.31536	0.01449
5830.38668	0.01452
5828.45800	0.01454
5826.52933	0.01455
5824.60065	0.01457
5822.67198	0.01460
5820.74330	0.01465
5818.81463	0.01469
5816.88595	0.01473
5814.95727	0.01476
5813.02860	0.01479
5811.09992	0.01481
5809.17125	0.01483
5807.24257	0.01486
5805.31390	0.01488
5803.38522	0.01490
5801.45654	0.01492
5799.52787	0.01497
5797.59919	0.01502
5795.67052	0.01506
5793.74184	0.01509
5791.81317	0.01511
5789.88449	0.01513
5787.95581	0.01514
5786.02714	0.01516
5784.09846	0.01519
5782.16979	0.01523
5780.24111	0.01526
5778.31244	0.01528
5776.38376	0.01532
5774.45508	0.01537
5772.52641	0.01542
5770.59773	0.01546
5768.66906	0.01548
5766.74038	0.01549
5764.81171	0.01551
5762.88303	0.01555
5760.95435	0.01559
5759.02568	0.01563
5757.09700	0.01567
5755.16833	0.01570
5753.23965	0.01573
5751.31098	0.01577
5749.38230	0.01581
5747.45362	0.01585
5745.52495	0.01587
5743.59627	0.01589
5741.66760	0.01592
5739.73892	0.01597
5737.81025	0.01599
5735.88157	0.01598
5733.95289	0.01600
5732.02422	0.01605
5730.09554	0.01611
5728.16687	0.01616
5726.23819	0.01618
5724.30952	0.01619
5722.38084	0.01621
5720.45216	0.01625
5718.52349	0.01628
5716.59481	0.01630
5714.66614	0.01634
5712.73746	0.01639
5710.80879	0.01643
5708.88011	0.01648
5706.95143	0.01652
5705.02276	0.01655
5703.09408	0.01657
5701.16541	0.01661
5699.23673	0.01665
5697.30806	0.01667
5695.37938	0.01670
5693.45070	0.01673
5691.52203	0.01675
5689.59335	0.01677
5687.66468	0.01679
5685.73600	0.01681
5683.80733	0.01686
5681.87865	0.01693
5679.94997	0.01697
5678.02130	0.01699
5676.09262	0.01702
5674.16395	0.01706
5672.23527	0.01710
5670.30660	0.01712
5668.37792	0.01714
5666.44924	0.01717
5664.52057	0.01721
5662.59189	0.01725
5660.66322	0.01728
5658.73454	0.01732
5656.80587	0.01736
5654.87719	0.01741
5652.94851	0.01744
5651.01984	0.01747
5649.09116	0.01750
5647.16249	0.01753
5645.23381	0.01754
5643.30514	0.01755
5641.37646	0.01760
5639.44778	0.01767
5637.51911	0.01772
5635.59043	0.01776
5633.66176	0.01779
5631.73308	0.01781
5629.80441	0.01783
5627.87573	0.01786
5625.94705	0.01788
5624.01838	0.01792
5622.08970	0.01797
5620.16103	0.01800
5618.23235	0.01803
5616.30368	0.01808
5614.37500	0.01814
5612.44632	0.01819
5610.51765	0.01822
5608.58897	0.01822
5606.66030	0.01824
5604.73162	0.01829
5602.80295	0.01834
5600.87427	0.01838
5598.94559	0.01842
5597.01692	0.01847
5595.08824	0.01850
5593.15957	0.01853
5591.23089	0.01856
5589.30222	0.01860
5587.37354	0.01862
5585.44486	0.01864
5583.51619	0.01867
5581.58751	0.01872
5579.65884	0.01876
5577.73016	0.01880
5575.80149	0.01884
5573.87281	0.01888
5571.94413	0.01891
5570.01546	0.01893
5568.08678	0.01895
5566.15811	0.01899
5564.22943	0.01905
5562.30076	0.01910
5560.37208	0.01913
5558.44340	0.01915
5556.51473	0.01918
5554.58605	0.01923
5552.65738	0.01928
5550.72870	0.01933
5548.80003	0.01937
5546.87135	0.01941
5544.94267	0.01944
5543.01400	0.01946
5541.08532	0.01948
5539.15665	0.01951
5537.22797	0.01954
5535.29930	0.01958
5533.37062	0.01962
5531.44194	0.01966
5529.51327	0.01971
5527.58459	0.01977
5525.65592	0.01981
5523.72724	0.01983
5521.79857	0.01986
5519.86989	0.01990
5517.94121	0.01995
5516.01254	0.02000
5514.08386	0.02003
5512.15519	0.02005
5510.22651	0.02006
5508.29784	0.02010
5506.36916	0.02016
5504.44048	0.02022
5502.51181	0.02027
5500.58313	0.02031
5498.65446	0.02034
5496.72578	0.02036
5494.79711	0.02038
5492.86843	0.02041
5490.93975	0.02045
5489.01108	0.02051
5487.08240	0.02055
5485.15373	0.02058
5483.22505	0.02062
5481.29638	0.02067
5479.36770	0.02072
5477.43902	0.02076
5475.51035	0.02078
5473.58167	0.02081
5471.65300	0.02085
5469.72432	0.02088
5467.79565	0.02093
5465.86697	0.02097
5463.93829	0.02100
5462.00962	0.02103
5460.08094	0.02107
5458.15227	0.02112
5456.22359	0.02117
5454.29492	0.02121
5452.36624	0.02124
5450.43756	0.02126
5448.50889	0.02129
5446.58021	0.02132
5444.65154	0.02136
5442.72286	0.02142
5440.79419	0.02149
5438.86551	0.02153
5436.93683	0.02155
5435.00816	0.02158
5433.07948	0.02163
5431.15081	0.02165
5429.22213	0.02168
5427.29346	0.02174
5425.36478	0.02180
5423.43610	0.02186
5421.50743	0.02191
5419.57875	0.02195
5417.65008	0.02197
5415.72140	0.02198
5413.79273	0.02200
5411.86405	0.02207
5409.93537	0.02214
5408.00670	0.02219
5406.07802	0.02223
5404.14935	0.02227
5402.22067	0.02230
5400.29200	0.02232
5398.36332	0.02234
5396.43464	0.02237
5394.50597	0.02241
5392.57729	0.02247
5390.64862	0.02252
5388.71994	0.02257
5386.79127	0.02261
5384.86259	0.02265
5382.93391	0.02269
5381.00524	0.02273
5379.07656	0.02277
5377.14789	0.02280
5375.21921	0.02285
5373.29054	0.02290
5371.36186	0.02294
5369.43318	0.02298
5367.50451	0.02302
5365.57583	0.02304
5363.64716	0.02307
5361.71848	0.02312
5359.78981	0.02319
5357.86113	0.02324
5355.93245	0.02328
5354.00378	0.02331
5352.07510	0.02336
5350.14643	0.02342
5348.21775	0.02346
5346.28908	0.02347
5344.36040	0.02350
5342.43172	0.02355
5340.50305	0.02359
5338.57437	0.02363
5336.64570	0.02369
5334.71702	0.02375
5332.78835	0.02377
5330.85967	0.02379
5328.93099	0.02382
5327.00232	0.02387
5325.07364	0.02393
5323.14497	0.02399
5321.21629	0.02404
5319.28762	0.02409
5317.35894	0.02413
5315.43026	0.02418
5313.50159	0.02423
5311.57291	0.02428
5309.64424	0.02431
5307.71556	0.02433
5305.78689	0.02437
5303.85821	0.02443
5301.92953	0.02449
5300.00086	0.02453
5298.07218	0.02456
5296.14351	0.02458
5294.21483	0.02462
5292.28616	0.02469
5290.35748	0.02475
5288.42880	0.02480
5286.50013	0.02485
5284.57145	0.02490
5282.64278	0.02494
5280.71410	0.02498
5278.78543	0.02501
5276.85675	0.02503
5274.92807	0.02504
5272.99940	0.02508
5271.07072	0.02514
5269.14205	0.02520
5267.21337	0.02525
5265.28470	0.02528
5263.35602	0.02533
5261.42734	0.02537
5259.49867	0.02540
5257.56999	0.02543
5255.64132	0.02548
5253.71264	0.02553
5251.78397	0.02559
5249.85529	0.02562
5247.92661	0.02564
5245.99794	0.02569
5244.06926	0.02576
5242.14059	0.02582
5240.21191	0.02587
5238.28324	0.02591
5236.35456	0.02595
5234.42588	0.02601
5232.49721	0.02607
5230.56853	0.02612
5228.63986	0.02616
5226.71118	0.02621
5224.78251	0.02627
5222.85383	0.02632
5220.92515	0.02635
5218.99648	0.02638
5217.06780	0.02643
5215.13913	0.02648
5213.21045	0.02652
5211.28178	0.02656
5209.35310	0.02661
5207.42442	0.02665
5205.49575	0.02669
5203.56707	0.02673
5201.63840	0.02677
5199.70972	0.02680
5197.78105	0.02685
5195.85237	0.02690
5193.92369	0.02697
5191.99502	0.02703
5190.06634	0.02708
5188.13767	0.02712
5186.20899	0.02715
5184.28032	0.02719
5182.35164	0.02724
5180.42296	0.02730
5178.49429	0.02735
5176.56561	0.02741
5174.63694	0.02746
5172.70826	0.02751
5170.77959	0.02756
5168.85091	0.02760
5166.92223	0.02764
5164.99356	0.02769
5163.06488	0.02774
5161.13621	0.02778
5159.20753	0.02780
5157.27886	0.02782
5155.35018	0.02787
5153.42150	0.02794
5151.49283	0.02800
5149.56415	0.02805
5147.63548	0.02808
5145.70680	0.02813
5143.77813	0.02817
5141.84945	0.02819
5139.92077	0.02822
5137.99210	0.02827
5136.06342	0.02835
5134.13475	0.02843
5132.20607	0.02850
5130.27740	0.02855
5128.34872	0.02858
5126.42004	0.02860
5124.49137	0.02863
5122.56269	0.02868
5120.63402	0.02874
5118.70534	0.02879
5116.77667	0.02882
5114.84799	0.02886
5112.91931	0.02891
5110.99064	0.02898
5109.06196	0.02905
5107.13329	0.02910
5105.20461	0.02914
5103.27594	0.02919
5101.34726	0.02924
5099.41858	0.02929
5097.48991	0.02934
5095.56123	0.02940
5093.63256	0.02945
5091.70388	0.02950
5089.77521	0.02956
5087.84653	0.02961
5085.91785	0.02964
5083.98918	0.02965
5082.06050	0.02967
5080.13183	0.02974
5078.20315	0.02982
5076.27448	0.02987
5074.34580	0.02991
5072.41712	0.02996
5070.48845	0.03001
5068.55977	0.03007
5066.63110	0.03012
5064.70242	0.03015
5062.77375	0.03020
5060.84507	0.03027
5058.91639	0.03032
5056.98772	0.03035
5055.05904	0.03038
5053.13037	0.03043
5051.20169	0.03049
5049.27302	0.03056
5047.34434	0.03062
5045.41566	0.03067
5043.48699	0.03072
5041.55831	0.03077
5039.62964	0.03083
5037.70096	0.03087
5035.77229	0.03091
5033.84361	0.03095
5031.91493	0.03101
5029.98626	0.03106
5028.05758	0.03111
5026.12891	0.03116
5024.20023	0.03121
5022.27156	0.03125
5020.34288	0.03130
5018.41420	0.03135
5016.48553	0.03140
5014.55685	0.03144
5012.62818	0.03147
5010.69950	0.03150
5008.77083	0.03156
5006.84215	0.03166
5004.91347	0.03175
5002.98480	0.03181
5001.05612	0.03185
4999.12745	0.03189
4997.19877	0.03192
4995.27010	0.03196
4993.34142	0.03201
4991.41274	0.03205
4989.48407	0.03211
4987.55539	0.03218
4985.62672	0.03224
4983.69804	0.03229
4981.76937	0.03234
4979.84069	0.03240
4977.91201	0.03246
4975.98334	0.03251
4974.05466	0.03256
4972.12599	0.03261
4970.19731	0.03265
4968.26864	0.03268
4966.33996	0.03274
4964.41128	0.03280
4962.48261	0.03286
4960.55393	0.03290
4958.62526	0.03294
4956.69658	0.03302
4954.76791	0.03310
4952.83923	0.03316
4950.91055	0.03320
4948.98188	0.03324
4947.05320	0.03328
4945.12453	0.03333
4943.19585	0.03338
4941.26718	0.03344
4939.33850	0.03349
4937.40982	0.03352
4935.48115	0.03355
4933.55247	0.03359
4931.62380	0.03367
4929.69512	0.03374
4927.76645	0.03380
4925.83777	0.03385
4923.90909	0.03389
4921.98042	0.03393
4920.05174	0.03401
4918.12307	0.03409
4916.19439	0.03417
4914.26572	0.03422
4912.33704	0.03426
4910.40836	0.03431
4908.47969	0.03437
4906.55101	0.03443
4904.62234	0.03447
4902.69366	0.03449
4900.76499	0.03453
4898.83631	0.03459
4896.90763	0.03464
4894.97896	0.03469
4893.05028	0.03474
4891.12161	0.03479
4889.19293	0.03487
4887.26426	0.03495
4885.33558	0.03502
4883.40690	0.03508
4881.47823	0.03513
4879.54955	0.03519
4877.62088	0.03525
4875.69220	0.03529
4873.76353	0.03534
4871.83485	0.03540
4869.90617	0.03546
4867.97750	0.03551
4866.04882	0.03556
4864.12015	0.03562
4862.19147	0.03568
4860.26280	0.03574
4858.33412	0.03579
4856.40544	0.03582
4854.47677	0.03587
4852.54809	0.03593
4850.61942	0.03599
4848.69074	0.03606
4846.76207	0.03612
4844.83339	0.03617
4842.90471	0.03622
4840.97604	0.03628
4839.04736	0.03635
4837.11869	0.03640
4835.19001	0.03645
4833.26134	0.03650
4831.33266	0.03656
4829.40398	0.03662
4827.47531	0.03668
4825.54663	0.03674
4823.61796	0.03679
4821.68928	0.03685
4819.76061	0.03691
4817.83193	0.03698
4815.90325	0.03704
4813.97458	0.03710
4812.04590	0.03717
4810.11723	0.03722
4808.18855	0.03725
4806.25988	0.03732
4804.33120	0.03740
4802.40252	0.03747
4800.47385	0.03752
4798.54517	0.03757
4796.61650	0.03762
4794.68782	0.03767
4792.75915	0.03774
4790.83047	0.03781
4788.90179	0.03787
4786.97312	0.03796
4785.04444	0.03804
4783.11577	0.03810
4781.18709	0.03814
4779.25842	0.03817
4777.32974	0.03821
4775.40106	0.03825
4773.47239	0.03831
4771.54371	0.03839
4769.61504	0.03847
4767.68636	0.03854
4765.75769	0.03859
4763.82901	0.03864
4761.90033	0.03870
4759.97166	0.03877
4758.04298	0.03884
4756.11431	0.03890
4754.18563	0.03897
4752.25696	0.03903
4750.32828	0.03909
4748.39960	0.03914
4746.47093	0.03919
4744.54225	0.03924
4742.61358	0.03930
4740.68490	0.03937
4738.75623	0.03943
4736.82755	0.03947
4734.89887	0.03951
4732.97020	0.03956
4731.04152	0.03964
4729.11285	0.03973
4727.18417	0.03981
4725.25550	0.03986
4723.32682	0.03991
4721.39814	0.03998
4719.46947	0.04006
4717.54079	0.04011
4715.61212	0.04015
4713.68344	0.04021
4711.75477	0.04028
4709.82609	0.04035
4707.89741	0.04042
4705.96874	0.04050
4704.04006	0.04058
4702.11139	0.04064
4700.18271	0.04068
4698.25404	0.04071
4696.32536	0.04076
4694.39668	0.04085
4692.46801	0.04093
4690.53933	0.04100
4688.61066	0.04106
4686.68198	0.04112
4684.75331	0.04119
4682.82463	0.04126
4680.89595	0.04133
4678.96728	0.04138
4677.03860	0.04145
4675.10993	0.04152
4673.18125	0.04159
4671.25258	0.04166
4669.32390	0.04172
4667.39522	0.04178
4665.46655	0.04185
4663.53787	0.04192
4661.60920	0.04198
4659.68052	0.04202
4657.75185	0.04206
4655.82317	0.04213
4653.89449	0.04223
4651.96582	0.04233
4650.03714	0.04242
4648.10847	0.04249
4646.17979	0.04255
4644.25112	0.04261
4642.32244	0.04267
4640.39376	0.04275
4638.46509	0.04284
4636.53641	0.04291
4634.60774	0.04295
4632.67906	0.04299
4630.75039	0.04308
4628.82171	0.04317
4626.89303	0.04324
4624.96436	0.04329
4623.03568	0.04334
4621.10701	0.04340
4619.17833	0.04349
4617.24966	0.04357
4615.32098	0.04365
4613.39230	0.04373
4611.46363	0.04379
4609.53495	0.04386
4607.60628	0.04395
4605.67760	0.04404
4603.74893	0.04413
4601.82025	0.04420
4599.89157	0.04425
4597.96290	0.04430
4596.03422	0.04436
4594.10555	0.04443
4592.17687	0.04450
4590.24820	0.04458
4588.31952	0.04465
4586.39084	0.04473
4584.46217	0.04481
4582.53349	0.04490
4580.60482	0.04498
4578.67614	0.04505
4576.74747	0.04509
4574.81879	0.04514
4572.89011	0.04521
4570.96144	0.04529
4569.03276	0.04537
4567.10409	0.04546
4565.17541	0.04555
4563.24674	0.04563
4561.31806	0.04570
4559.38938	0.04576
4557.46071	0.04581
4555.53203	0.04587
4553.60336	0.04593
4551.67468	0.04599
4549.74601	0.04609
4547.81733	0.04618
4545.88865	0.04625
4543.95998	0.04633
4542.03130	0.04641
4540.10263	0.04648
4538.17395	0.04656
4536.24528	0.04666
4534.31660	0.04675
4532.38792	0.04683
4530.45925	0.04691
4528.53057	0.04698
4526.60190	0.04705
4524.67322	0.04713
4522.74455	0.04721
4520.81587	0.04730
4518.88719	0.04738
4516.95852	0.04745
4515.02984	0.04752
4513.10117	0.04759
4511.17249	0.04767
4509.24382	0.04775
4507.31514	0.04782
4505.38646	0.04790
4503.45779	0.04797
4501.52911	0.04807
4499.60044	0.04816
4497.67176	0.04824
4495.74309	0.04831
4493.81441	0.04839
4491.88573	0.04846
4489.95706	0.04853
4488.02838	0.04861
4486.09971	0.04870
4484.17103	0.04880
4482.24236	0.04888
4480.31368	0.04895
4478.38500	0.04902
4476.45633	0.04911
4474.52765	0.04920
4472.59898	0.04928
4470.67030	0.04936
4468.74163	0.04944
4466.81295	0.04953
4464.88427	0.04962
4462.95560	0.04971
4461.02692	0.04978
4459.09825	0.04986
4457.16957	0.04994
4455.24090	0.04999
4453.31222	0.05005
4451.38354	0.05014
4449.45487	0.05025
4447.52619	0.05035
4445.59752	0.05043
4443.66884	0.05052
4441.74017	0.05063
4439.81149	0.05072
4437.88281	0.05080
4435.95414	0.05088
4434.02546	0.05098
4432.09679	0.05106
4430.16811	0.05114
4428.23944	0.05122
4426.31076	0.05130
4424.38208	0.05140
4422.45341	0.05152
4420.52473	0.05163
4418.59606	0.05171
4416.66738	0.05178
4414.73871	0.05184
4412.81003	0.05190
4410.88135	0.05199
4408.95268	0.05210
4407.02400	0.05221
4405.09533	0.05230
4403.16665	0.05238
4401.23798	0.05248
4399.30930	0.05258
4397.38062	0.05267
4395.45195	0.05275
4393.52327	0.05284
4391.59460	0.05293
4389.66592	0.05303
4387.73725	0.05313
4385.80857	0.05323
4383.87989	0.05332
4381.95122	0.05340
4380.02254	0.05349
4378.09387	0.05358
4376.16519	0.05366
4374.23652	0.05377
4372.30784	0.05390
4370.37916	0.05400
4368.45049	0.05407
4366.52181	0.05412
4364.59314	0.05421
4362.66446	0.05432
4360.73579	0.05443
4358.80711	0.05453
4356.87843	0.05461
4354.94976	0.05471
4353.02108	0.05480
4351.09241	0.05488
4349.16373	0.05497
4347.23506	0.05508
4345.30638	0.05520
4343.37770	0.05529
4341.44903	0.05539
4339.52035	0.05550
4337.59168	0.05560
4335.66300	0.05567
4333.73433	0.05575
4331.80565	0.05586
4329.87697	0.05598
4327.94830	0.05607
4326.01962	0.05614
4324.09095	0.05621
4322.16227	0.05631
4320.23360	0.05642
4318.30492	0.05655
4316.37624	0.05668
4314.44757	0.05681
4312.51889	0.05692
4310.59022	0.05701
4308.66154	0.05710
4306.73287	0.05718
4304.80419	0.05728
4302.87551	0.05739
4300.94684	0.05749
4299.01816	0.05759
4297.08949	0.05769
4295.16081	0.05779
4293.23214	0.05790
4291.30346	0.05802
4289.37478	0.05815
4287.44611	0.05827
4285.51743	0.05835
4283.58876	0.05841
4281.66008	0.05851
4279.73141	0.05863
4277.80273	0.05877
4275.87405	0.05891
4273.94538	0.05902
4272.01670	0.05911
4270.08803	0.05919
4268.15935	0.05928
4266.23068	0.05938
4264.30200	0.05946
4262.37332	0.05955
4260.44465	0.05965
4258.51597	0.05978
4256.58730	0.05991
4254.65862	0.06002
4252.72995	0.06011
4250.80127	0.06021
4248.87259	0.06032
4246.94392	0.06043
4245.01524	0.06054
4243.08657	0.06065
4241.15789	0.06077
4239.22922	0.06092
4237.30054	0.06104
4235.37186	0.06114
4233.44319	0.06124
4231.51451	0.06134
4229.58584	0.06145
4227.65716	0.06156
4225.72849	0.06166
4223.79981	0.06177
4221.87113	0.06188
4219.94246	0.06198
4218.01378	0.06209
4216.08511	0.06222
4214.15643	0.06233
4212.22776	0.06244
4210.29908	0.06258
4208.37040	0.06273
4206.44173	0.06284
4204.51305	0.06294
4202.58438	0.06303
4200.65570	0.06314
4198.72703	0.06327
4196.79835	0.06339
4194.86968	0.06349
4192.94100	0.06359
4191.01232	0.06371
4189.08365	0.06383
4187.15497	0.06395
4185.22630	0.06407
4183.29762	0.06419
4181.36895	0.06433
4179.44027	0.06447
4177.51159	0.06458
4175.58292	0.06469
4173.65424	0.06480
4171.72557	0.06491
4169.79689	0.06501
4167.86822	0.06511
4165.93954	0.06522
4164.01086	0.06534
4162.08219	0.06548
4160.15351	0.06563
4158.22484	0.06577
4156.29616	0.06591
4154.36749	0.06604
4152.43881	0.06615
4150.51013	0.06624
4148.58146	0.06633
4146.65278	0.06643
4144.72411	0.06655
4142.79543	0.06670
4140.86676	0.06685
4138.93808	0.06697
4137.00940	0.06709
4135.08073	0.06722
4133.15205	0.06734
4131.22338	0.06745
4129.29470	0.06756
4127.36603	0.06770
4125.43735	0.06786
4123.50867	0.06801
4121.58000	0.06813
4119.65132	0.06823
4117.72265	0.06834
4115.79397	0.06847
4113.86530	0.06860
4111.93662	0.06875
4110.00794	0.06887
4108.07927	0.06898
4106.15059	0.06912
4104.22192	0.06927
4102.29324	0.06939
4100.36457	0.06950
4098.43589	0.06961
4096.50721	0.06973
4094.57854	0.06985
4092.64986	0.06997
4090.72119	0.07013
4088.79251	0.07029
4086.86384	0.07042
4084.93516	0.07052
4083.00648	0.07063
4081.07781	0.07077
4079.14913	0.07092
4077.22046	0.07108
4075.29178	0.07122
4073.36311	0.07135
4071.43443	0.07147
4069.50575	0.07160
4067.57708	0.07174
4065.64840	0.07189
4063.71973	0.07203
4061.79105	0.07215
4059.86238	0.07227
4057.93370	0.07242
4056.00502	0.07259
4054.07635	0.07272
4052.14767	0.07285
4050.21900	0.07299
4048.29032	0.07313
4046.36165	0.07325
4044.43297	0.07335
4042.50429	0.07345
4040.57562	0.07359
4038.64694	0.07374
4036.71827	0.07387
4034.78959	0.07401
4032.86092	0.07416
4030.93224	0.07430
4029.00356	0.07442
4027.07489	0.07453
4025.14621	0.07466
4023.21754	0.07481
4021.28886	0.07498
4019.36019	0.07513
4017.43151	0.07526
4015.50283	0.07539
4013.57416	0.07555
4011.64548	0.07570
4009.71681	0.07582
4007.78813	0.07594
4005.85946	0.07606
4003.93078	0.07622
4002.00210	0.07638
4000.07343	0.07655
3998.14475	0.07669
3996.21608	0.07682
3994.28740	0.07695
3992.35873	0.07708
3990.43005	0.07723
3988.50137	0.07739
3986.57270	0.07755
3984.64402	0.07769
3982.71535	0.07783
3980.78667	0.07799
3978.85800	0.07813
3976.92932	0.07825
3975.00064	0.07836
3973.07197	0.07851
3971.14329	0.07869
3969.21462	0.07888
3967.28594	0.07904
3965.35727	0.07916
3963.42859	0.07926
3961.49991	0.07940
3959.57124	0.07958
3957.64256	0.07976
3955.71389	0.07991
3953.78521	0.08002
3951.85654	0.08013
3949.92786	0.08026
3947.99918	0.08041
3946.07051	0.08056
3944.14183	0.08071
3942.21316	0.08088
3940.28448	0.08105
3938.35581	0.08122
3936.42713	0.08138
3934.49845	0.08149
3932.56978	0.08158
3930.64110	0.08172
3928.71243	0.08191
3926.78375	0.08207
3924.85508	0.08221
3922.92640	0.08235
3920.99772	0.08247
3919.06905	0.08256
3917.14037	0.08272
3915.21170	0.08296
3913.28302	0.08319
3911.35435	0.08338
3909.42567	0.08353
3907.49699	0.08355
3905.56832	0.08346
3903.63964	0.08343
3901.71097	0.08356
3899.78229	0.08384
3897.85362	0.08422
3895.92494	0.08453
3893.99626	0.08464
3892.06759	0.08468
3890.13891	0.08484
3888.21024	0.08497
3886.28156	0.08503
3884.35289	0.08519
3882.42421	0.08540
3880.49553	0.08557
3878.56686	0.08582
3876.63818	0.08602
3874.70951	0.08608
3872.78083	0.08611
3870.85216	0.08617
3868.92348	0.08637
3866.99480	0.08662
3865.06613	0.08678
3863.13745	0.08696
3861.20878	0.08720
3859.28010	0.08739
3857.35143	0.08732
3855.42275	0.08699
3853.49407	0.08694
3851.56540	0.08747
3849.63672	0.08812
3847.70805	0.08847
3845.77937	0.08859
3843.85070	0.08864
3841.92202	0.08867
3839.99334	0.08870
3838.06467	0.08883
3836.13599	0.08910
3834.20732	0.08938
3832.27864	0.08961
3830.34997	0.08984
3828.42129	0.09008
3826.49261	0.09026
3824.56394	0.09033
3822.63526	0.09029
3820.70659	0.09036
3818.77791	0.09061
3816.84924	0.09084
3814.92056	0.09112
3812.99188	0.09147
3811.06321	0.09169
3809.13453	0.09171
3807.20586	0.09174
3805.27718	0.09189
3803.34851	0.09201
3801.41983	0.09213
3799.49115	0.09240
3797.56248	0.09269
3795.63380	0.09295
3793.70513	0.09323
3791.77645	0.09346
3789.84778	0.09364
3787.91910	0.09379
3785.99042	0.09390
3784.06175	0.09403
3782.13307	0.09416
3780.20440	0.09427
3778.27572	0.09447
3776.34705	0.09477
3774.41837	0.09498
3772.48969	0.09503
3770.56102	0.09507
3768.63234	0.09523
3766.70367	0.09548
3764.77499	0.09571
3762.84632	0.09588
3760.91764	0.09598
3758.98896	0.09608
3757.06029	0.09625
3755.13161	0.09631
3753.20294	0.09619
3751.27426	0.09609
3749.34559	0.09624
3747.41691	0.09638
3745.48823	0.09636
3743.55956	0.09666
3741.63088	0.09731
3739.70221	0.09763
3737.77353	0.09751
3735.84486	0.09746
3733.91618	0.09772
3731.98750	0.09819
3730.05883	0.09861
3728.13015	0.09883
3726.20148	0.09894
3724.27280	0.09909
3722.34413	0.09932
3720.41545	0.09959
3718.48677	0.09986
3716.55810	0.10004
3714.62942	0.10004
3712.70075	0.09997
3710.77207	0.10010
3708.84340	0.10046
3706.91472	0.10085
3704.98604	0.10109
3703.05737	0.10117
3701.12869	0.10132
3699.20002	0.10160
3697.27134	0.10185
3695.34267	0.10196
3693.41399	0.10195
3691.48531	0.10190
3689.55664	0.10198
3687.62796	0.10231
3685.69929	0.10274
3683.77061	0.10304
3681.84194	0.10318
3679.91326	0.10321
3677.98458	0.10311
3676.05591	0.10302
3674.12723	0.10322
3672.19856	0.10351
3670.26988	0.10371
3668.34121	0.10405
3666.41253	0.10446
3664.48385	0.10476
3662.55518	0.10496
3660.62650	0.10509
3658.69783	0.10512
3656.76915	0.10513
3654.84048	0.10523
3652.91180	0.10519
3650.98312	0.10489
3649.05445	0.10473
3647.12577	0.10502
3645.19710	0.10561
3643.26842	0.10615
3641.33975	0.10650
3639.41107	0.10673
3637.48239	0.10689
3635.55372	0.10698
3633.62504	0.10701
3631.69637	0.10689
3629.76769	0.10676
3627.83902	0.10700
3625.91034	0.10749
3623.98166	0.10779
3622.05299	0.10780
3620.12431	0.10776
3618.19564	0.10786
3616.26696	0.10805
3614.33829	0.10815
3612.40961	0.10822
3610.48093	0.10833
3608.55226	0.10849
3606.62358	0.10878
3604.69491	0.10909
3602.76623	0.10926
3600.83756	0.10935
3598.90888	0.10945
3596.98020	0.10955
3595.05153	0.10966
3593.12285	0.10982
3591.19418	0.10990
3589.26550	0.10986
3587.33683	0.10994
3585.40815	0.11026
3583.47947	0.11062
3581.55080	0.11086
3579.62212	0.11099
3577.69345	0.11110
3575.76477	0.11124
3573.83610	0.11142
3571.90742	0.11154
3569.97874	0.11150
3568.05007	0.11142
3566.12139	0.11154
3564.19272	0.11187
3562.26404	0.11217
3560.33537	0.11237
3558.40669	0.11254
3556.47801	0.11270
3554.54934	0.11281
3552.62066	0.11288
3550.69199	0.11299
3548.76331	0.11309
3546.83464	0.11317
3544.90596	0.11331
3542.97728	0.11353
3541.04861	0.11373
3539.11993	0.11386
3537.19126	0.11394
3535.26258	0.11404
3533.33391	0.11413
3531.40523	0.11421
3529.47655	0.11427
3527.54788	0.11433
3525.61920	0.11438
3523.69053	0.11444
3521.76185	0.11453
3519.83318	0.11466
3517.90450	0.11475
3515.97582	0.11481
3514.04715	0.11488
3512.11847	0.11496
3510.18980	0.11502
3508.26112	0.11510
3506.33245	0.11516
3504.40377	0.11518
3502.47509	0.11523
3500.54642	0.11532
3498.61774	0.11540
3496.68907	0.11544
3494.76039	0.11549
3492.83172	0.11553
3490.90304	0.11556
3488.97436	0.11558
3487.04569	0.11564
3485.11701	0.11573
3483.18834	0.11580
3481.25966	0.11586
3479.33099	0.11596
3477.40231	0.11613
3475.47363	0.11628
3473.54496	0.11642
3471.61628	0.11658
3469.68761	0.11675
3467.75893	0.11691
3465.83026	0.11710
3463.90158	0.11732
3461.97290	0.11752
3460.04423	0.11771
3458.11555	0.11791
3456.18688	0.11811
3454.25820	0.11830
3452.32953	0.11847
3450.40085	0.11862
3448.47217	0.11873
3446.54350	0.11888
3444.61482	0.11907
3442.68615	0.11928
3440.75747	0.11951
3438.82880	0.11978
3436.90012	0.12009
3434.97144	0.12044
3433.04277	0.12082
3431.11409	0.12121
3429.18542	0.12163
3427.25674	0.12204
3425.32807	0.12242
3423.39939	0.12276
3421.47071	0.12308
3419.54204	0.12339
3417.61336	0.12368
3415.68469	0.12398
3413.75601	0.12430
3411.82734	0.12462
3409.89866	0.12491
3407.96998	0.12518
3406.04131	0.12542
3404.11263	0.12565
3402.18396	0.12588
3400.25528	0.12614
3398.32661	0.12641
3396.39793	0.12667
3394.46925	0.12692
3392.54058	0.12718
3390.61190	0.12744
3388.68323	0.12770
3386.75455	0.12795
3384.82588	0.12821
3382.89720	0.12848
3380.96852	0.12875
3379.03985	0.12900
3377.11117	0.12924
3375.18250	0.12947
3373.25382	0.12969
3371.32515	0.12990
3369.39647	0.13012
3367.46779	0.13035
3365.53912	0.13058
3363.61044	0.13080
3361.68177	0.13104
3359.75309	0.13130
3357.82442	0.13155
3355.89574	0.13177
3353.96706	0.13199
3352.03839	0.13222
3350.10971	0.13245
3348.18104	0.13270
3346.25236	0.13298
3344.32369	0.13323
3342.39501	0.13347
3340.46633	0.13371
3338.53766	0.13392
3336.60898	0.13413
3334.68031	0.13437
3332.75163	0.13463
3330.82296	0.13489
3328.89428	0.13513
3326.96560	0.13536
3325.03693	0.13558
3323.10825	0.13580
3321.17958	0.13600
3319.25090	0.13621
3317.32223	0.13647
3315.39355	0.13676
3313.46487	0.13702
3311.53620	0.13725
3309.60752	0.13747
3307.67885	0.13773
3305.75017	0.13799
3303.82150	0.13824
3301.89282	0.13848
3299.96414	0.13873
3298.03547	0.13896
3296.10679	0.13916
3294.17812	0.13939
3292.24944	0.13966
3290.32077	0.13994
3288.39209	0.14020
3286.46341	0.14047
3284.53474	0.14073
3282.60606	0.14100
3280.67739	0.14125
3278.74871	0.14150
3276.82004	0.14174
3274.89136	0.14199
3272.96268	0.14225
3271.03401	0.14251
3269.10533	0.14276
3267.17666	0.14300
3265.24798	0.14323
3263.31931	0.14346
3261.39063	0.14373
3259.46195	0.14403
3257.53328	0.14432
3255.60460	0.14455
3253.67593	0.14477
3251.74725	0.14501
3249.81858	0.14529
3247.88990	0.14558
3245.96122	0.14585
3244.03255	0.14610
3242.10387	0.14637
3240.17520	0.14664
3238.24652	0.14690
3236.31785	0.14715
3234.38917	0.14739
3232.46049	0.14766
3230.53182	0.14794
3228.60314	0.14820
3226.67447	0.14845
3224.74579	0.14870
3222.81712	0.14895
3220.88844	0.14920
3218.95976	0.14946
3217.03109	0.14974
3215.10241	0.14998
3213.17374	0.15020
3211.24506	0.15046
3209.31639	0.15075
3207.38771	0.15102
3205.45903	0.15127
3203.53036	0.15151
3201.60168	0.15177
3199.67301	0.15204
3197.74433	0.15231
3195.81566	0.15260
3193.88698	0.15290
3191.95830	0.15321
3190.02963	0.15351
3188.10095	0.15378
3186.17228	0.15404
3184.24360	0.15430
3182.31493	0.15457
3180.38625	0.15483
3178.45757	0.15509
3176.52890	0.15536
3174.60022	0.15562
3172.67155	0.15589
3170.74287	0.15617
3168.81420	0.15643
3166.88552	0.15669
3164.95684	0.15697
3163.02817	0.15723
3161.09949	0.15750
3159.17082	0.15776
3157.24214	0.15803
3155.31347	0.15831
3153.38479	0.15858
3151.45611	0.15882
3149.52744	0.15906
3147.59876	0.15932
3145.67009	0.15959
3143.74141	0.15988
3141.81274	0.16018
3139.88406	0.16046
3137.95538	0.16072
3136.02671	0.16100
3134.09803	0.16127
3132.16936	0.16151
3130.24068	0.16176
3128.31201	0.16202
3126.38333	0.16231
3124.45465	0.16258
3122.52598	0.16284
3120.59730	0.16309
3118.66863	0.16333
3116.73995	0.16358
3114.81128	0.16388
3112.88260	0.16416
3110.95392	0.16438
3109.02525	0.16460
3107.09657	0.16486
3105.16790	0.16514
3103.23922	0.16541
3101.31055	0.16570
3099.38187	0.16601
3097.45319	0.16629
3095.52452	0.16655
3093.59584	0.16682
3091.66717	0.16710
3089.73849	0.16735
3087.80982	0.16760
3085.88114	0.16787
3083.95246	0.16816
3082.02379	0.16843
3080.09511	0.16869
3078.16644	0.16895
3076.23776	0.16922
3074.30909	0.16946
3072.38041	0.16971
3070.45173	0.16998
3068.52306	0.17026
3066.59438	0.17051
3064.66571	0.17076
3062.73703	0.17105
3060.80836	0.17133
3058.87968	0.17162
3056.95100	0.17188
3055.02233	0.17212
3053.09365	0.17235
3051.16498	0.17258
3049.23630	0.17285
3047.30763	0.17315
3045.37895	0.17346
3043.45027	0.17372
3041.52160	0.17397
3039.59292	0.17422
3037.66425	0.17448
3035.73557	0.17474
3033.80690	0.17499
3031.87822	0.17524
3029.94954	0.17552
3028.02087	0.17580
3026.09219	0.17608
3024.16352	0.17637
3022.23484	0.17665
3020.30617	0.17689
3018.37749	0.17712
3016.44881	0.17734
3014.52014	0.17756
3012.59146	0.17780
3010.66279	0.17807
3008.73411	0.17837
3006.80544	0.17867
3004.87676	0.17894
3002.94808	0.17921
3001.01941	0.17950
2999.09073	0.17976
2997.16206	0.18000
2995.23338	0.18025
2993.30471	0.18051
2991.37603	0.18075
2989.44735	0.18094
2987.51868	0.18111
2985.59000	0.18131
2983.66133	0.18151
2981.73265	0.18167
2979.80398	0.18178
2977.87530	0.18188
2975.94662	0.18195
2974.01795	0.18198
2972.08927	0.18196
2970.16060	0.18193
2968.23192	0.18191
2966.30325	0.18194
2964.37457	0.18202
2962.44589	0.18215
2960.51722	0.18233
2958.58854	0.18261
2956.65987	0.18299
2954.73119	0.18343
2952.80252	0.18382
2950.87384	0.18413
2948.94516	0.18439
2947.01649	0.18462
2945.08781	0.18478
2943.15914	0.18490
2941.23046	0.18497
2939.30179	0.18500
2937.37311	0.18501
2935.44443	0.18499
2933.51576	0.18493
2931.58708	0.18486
2929.65841	0.18479
2927.72973	0.18475
2925.80106	0.18472
2923.87238	0.18474
2921.94370	0.18480
2920.01503	0.18494
2918.08635	0.18526
2916.15768	0.18584
2914.22900	0.18667
2912.30033	0.18759
2910.37165	0.18841
2908.44297	0.18907
2906.51430	0.18960
2904.58562	0.19005
2902.65695	0.19050
2900.72827	0.19096
2898.79960	0.19138
2896.87092	0.19175
2894.94224	0.19209
2893.01357	0.19244
2891.08489	0.19279
2889.15622	0.19315
2887.22754	0.19352
2885.29887	0.19389
2883.37019	0.19425
2881.44151	0.19455
2879.51284	0.19480
2877.58416	0.19505
2875.65549	0.19531
2873.72681	0.19553
2871.79814	0.19574
2869.86946	0.19597
2867.94078	0.19620
2866.01211	0.19641
2864.08343	0.19660
2862.15476	0.19675
2860.22608	0.19684
2858.29741	0.19687
2856.36873	0.19686
2854.44005	0.19681
2852.51138	0.19677
2850.58270	0.19689
2848.65403	0.19740
2846.72535	0.19825
2844.79668	0.19917
2842.86800	0.19997
2840.93932	0.20064
2839.01065	0.20123
2837.08197	0.20172
2835.15330	0.20211
2833.22462	0.20245
2831.29595	0.20278
2829.36727	0.20314
2827.43859	0.20349
2825.50992	0.20382
2823.58124	0.20416
2821.65257	0.20447
2819.72389	0.20474
2817.79522	0.20501
2815.86654	0.20532
2813.93786	0.20562
2812.00919	0.20592
2810.08051	0.20623
2808.15184	0.20654
2806.22316	0.20683
2804.29449	0.20714
2802.36581	0.20746
2800.43713	0.20777
2798.50846	0.20805
2796.57978	0.20831
2794.65111	0.20859
2792.72243	0.20890
2790.79376	0.20920
2788.86508	0.20947
2786.93640	0.20973
2785.00773	0.21002
2783.07905	0.21035
2781.15038	0.21068
2779.22170	0.21100
2777.29303	0.21129
2775.36435	0.21154
2773.43567	0.21180
2771.50700	0.21206
2769.57832	0.21233
2767.64965	0.21263
2765.72097	0.21294
2763.79230	0.21323
2761.86362	0.21352
2759.93494	0.21381
2758.00627	0.21410
2756.07759	0.21439
2754.14892	0.21466
2752.22024	0.21491
2750.29157	0.21518
2748.36289	0.21548
2746.43421	0.21577
2744.50554	0.21602
2742.57686	0.21625
2740.64819	0.21649
2738.71951	0.21675
2736.79084	0.21704
2734.86216	0.21736
2732.93348	0.21769
2731.00481	0.21798
2729.07613	0.21823
2727.14746	0.21850
2725.21878	0.21876
2723.29011	0.21903
2721.36143	0.21931
2719.43275	0.21958
2717.50408	0.21985
2715.57540	0.22013
2713.64673	0.22043
2711.71805	0.22072
2709.78938	0.22102
2707.86070	0.22132
2705.93202	0.22160
2704.00335	0.22189
2702.07467	0.22216
2700.14600	0.22241
2698.21732	0.22267
2696.28865	0.22293
2694.35997	0.22318
2692.43129	0.22342
2690.50262	0.22369
2688.57394	0.22398
2686.64527	0.22428
2684.71659	0.22457
2682.78792	0.22485
2680.85924	0.22513
2678.93056	0.22540
2677.00189	0.22567
2675.07321	0.22593
2673.14454	0.22621
2671.21586	0.22647
2669.28719	0.22674
2667.35851	0.22702
2665.42983	0.22732
2663.50116	0.22758
2661.57248	0.22782
2659.64381	0.22812
2657.71513	0.22845
2655.78646	0.22877
2653.85778	0.22905
2651.92910	0.22929
2650.00043	0.22954
2648.07175	0.22984
2646.14308	0.23017
2644.21440	0.23052
2642.28573	0.23086
2640.35705	0.23113
2638.42837	0.23135
2636.49970	0.23161
2634.57102	0.23192
2632.64235	0.23223
2630.71367	0.23250
2628.78500	0.23277
2626.85632	0.23309
2624.92764	0.23344
2622.99897	0.23376
2621.07029	0.23406
2619.14162	0.23438
2617.21294	0.23469
2615.28427	0.23494
2613.35559	0.23521
2611.42691	0.23553
2609.49824	0.23586
2607.56956	0.23614
2605.64089	0.23641
2603.71221	0.23669
2601.78354	0.23698
2599.85486	0.23728
2597.92618	0.23760
2595.99751	0.23790
2594.06883	0.23818
2592.14016	0.23847
2590.21148	0.23878
2588.28281	0.23909
2586.35413	0.23937
2584.42545	0.23963
2582.49678	0.23991
2580.56810	0.24021
2578.63943	0.24051
2576.71075	0.24080
2574.78208	0.24107
2572.85340	0.24135
2570.92472	0.24167
2568.99605	0.24198
2567.06737	0.24225
2565.13870	0.24252
2563.21002	0.24278
2561.28135	0.24305
2559.35267	0.24331
2557.42399	0.24359
2555.49532	0.24391
2553.56664	0.24426
2551.63797	0.24457
2549.70929	0.24482
2547.78062	0.24503
2545.85194	0.24528
2543.92326	0.24558
2541.99459	0.24591
2540.06591	0.24620
2538.13724	0.24646
2536.20856	0.24672
2534.27989	0.24700
2532.35121	0.24729
2530.42253	0.24757
2528.49386	0.24789
2526.56518	0.24822
2524.63651	0.24853
2522.70783	0.24885
2520.77916	0.24915
2518.85048	0.24945
2516.92181	0.24979
2514.99313	0.25012
2513.06445	0.25041
2511.13578	0.25068
2509.20710	0.25097
2507.27843	0.25128
2505.34975	0.25163
2503.42108	0.25198
2501.49240	0.25233
2499.56372	0.25265
2497.63505	0.25297
2495.70637	0.25326
2493.77770	0.25355
2491.84902	0.25386
2489.92035	0.25416
2487.99167	0.25444
2486.06299	0.25477
2484.13432	0.25512
2482.20564	0.25542
2480.27697	0.25573
2478.34829	0.25606
2476.41962	0.25638
2474.49094	0.25670
2472.56226	0.25702
2470.63359	0.25731
2468.70491	0.25762
2466.77624	0.25795
2464.84756	0.25827
2462.91889	0.25855
2460.99021	0.25881
2459.06153	0.25909
2457.13286	0.25939
2455.20418	0.25972
2453.27551	0.26005
2451.34683	0.26036
2449.41816	0.26067
2447.48948	0.26098
2445.56080	0.26131
2443.63213	0.26166
2441.70345	0.26197
2439.77478	0.26222
2437.84610	0.26245
2435.91743	0.26276
2433.98875	0.26313
2432.06007	0.26346
2430.13140	0.26375
2428.20272	0.26404
2426.27405	0.26435
2424.34537	0.26466
2422.41670	0.26496
2420.48802	0.26525
2418.55934	0.26555
2416.63067	0.26588
2414.70199	0.26622
2412.77332	0.26653
2410.84464	0.26680
2408.91597	0.26712
2406.98729	0.26745
2405.05861	0.26773
2403.12994	0.26798
2401.20126	0.26827
2399.27259	0.26861
2397.34391	0.26894
2395.41524	0.26923
2393.48656	0.26952
2391.55788	0.26981
2389.62921	0.27011
2387.70053	0.27042
2385.77186	0.27073
2383.84318	0.27100
2381.91451	0.27121
2379.98583	0.27132
2378.05715	0.27137
2376.12848	0.27144
2374.19980	0.27153
2372.27113	0.27160
2370.34245	0.27168
2368.41378	0.27178
2366.48510	0.27190
2364.55642	0.27208
2362.62775	0.27233
2360.69907	0.27264
2358.77040	0.27304
2356.84172	0.27350
2354.91305	0.27400
2352.98437	0.27457
2351.05569	0.27515
2349.12702	0.27560
2347.19834	0.27579
2345.26967	0.27584
2343.34099	0.27596
2341.41232	0.27618
2339.48364	0.27642
2337.55496	0.27668
2335.62629	0.27697
2333.69761	0.27729
2331.76894	0.27763
2329.84026	0.27798
2327.91159	0.27834
2325.98291	0.27874
2324.05423	0.27915
2322.12556	0.27958
2320.19688	0.28002
2318.26821	0.28045
2316.33953	0.28085
2314.41086	0.28122
2312.48218	0.28164
2310.55350	0.28207
2308.62483	0.28245
2306.69615	0.28277
2304.76748	0.28311
2302.83880	0.28345
2300.91013	0.28377
2298.98145	0.28410
2297.05277	0.28446
2295.12410	0.28480
2293.19542	0.28509
2291.26675	0.28540
2289.33807	0.28576
2287.40940	0.28612
2285.48072	0.28645
2283.55204	0.28674
2281.62337	0.28701
2279.69469	0.28729
2277.76602	0.28761
2275.83734	0.28791
2273.90867	0.28818
2271.97999	0.28847
2270.05131	0.28876
2268.12264	0.28907
2266.19396	0.28939
2264.26529	0.28970
2262.33661	0.29002
2260.40794	0.29033
2258.47926	0.29062
2256.55058	0.29089
2254.62191	0.29117
2252.69323	0.29147
2250.76456	0.29180
2248.83588	0.29213
2246.90721	0.29246
2244.97853	0.29279
2243.04985	0.29311
2241.12118	0.29339
2239.19250	0.29366
2237.26383	0.29395
2235.33515	0.29425
2233.40648	0.29460
2231.47780	0.29495
2229.54912	0.29524
2227.62045	0.29550
2225.69177	0.29578
2223.76310	0.29609
2221.83442	0.29640
2219.90575	0.29670
2217.97707	0.29700
2216.04839	0.29730
2214.11972	0.29762
2212.19104	0.29795
2210.26237	0.29824
2208.33369	0.29850
2206.40502	0.29878
2204.47634	0.29909
2202.54766	0.29938
2200.61899	0.29966
2198.69031	0.29995
2196.76164	0.30026
2194.83296	0.30057
2192.90429	0.30084
2190.97561	0.30113
2189.04693	0.30145
2187.11826	0.30177
2185.18958	0.30206
2183.26091	0.30236
2181.33223	0.30265
2179.40356	0.30294
2177.47488	0.30326
2175.54620	0.30357
2173.61753	0.30385
2171.68885	0.30414
2169.76018	0.30446
2167.83150	0.30479
2165.90283	0.30510
2163.97415	0.30539
2162.04547	0.30570
2160.11680	0.30604
2158.18812	0.30636
2156.25945	0.30667
2154.33077	0.30697
2152.40210	0.30726
2150.47342	0.30757
2148.54474	0.30792
2146.61607	0.30824
2144.68739	0.30853
2142.75872	0.30884
2140.83004	0.30916
2138.90137	0.30948
2136.97269	0.30981
2135.04401	0.31014
2133.11534	0.31044
2131.18666	0.31071
2129.25799	0.31098
2127.32931	0.31130
2125.40064	0.31160
2123.47196	0.31188
2121.54328	0.31217
2119.61461	0.31249
2117.68593	0.31284
2115.75726	0.31320
2113.82858	0.31354
2111.89991	0.31381
2109.97123	0.31407
2108.04255	0.31436
2106.11388	0.31467
2104.18520	0.31499
2102.25653	0.31531
2100.32785	0.31559
2098.39918	0.31586
2096.47050	0.31618
2094.54182	0.31654
2092.61315	0.31688
2090.68447	0.31714
2088.75580	0.31741
2086.82712	0.31774
2084.89845	0.31808
2082.96977	0.31842
2081.04109	0.31873
2079.11242	0.31900
2077.18374	0.31927
2075.25507	0.31957
2073.32639	0.31991
2071.39772	0.32025
2069.46904	0.32054
2067.54036	0.32081
2065.61169	0.32110
2063.68301	0.32143
2061.75434	0.32174
2059.82566	0.32205
2057.89699	0.32239
2055.96831	0.32274
2054.03963	0.32307
2052.11096	0.32337
2050.18228	0.32362
2048.25361	0.32388
2046.32493	0.32420
2044.39626	0.32452
2042.46758	0.32481
2040.53890	0.32512
2038.61023	0.32546
2036.68155	0.32578
2034.75288	0.32610
2032.82420	0.32642
2030.89553	0.32673
2028.96685	0.32702
2027.03817	0.32732
2025.10950	0.32764
2023.18082	0.32795
2021.25215	0.32820
2019.32347	0.32841
2017.39480	0.32870
2015.46612	0.32914
2013.53744	0.32962
2011.60877	0.32999
2009.68009	0.33026
2007.75142	0.33054
2005.82274	0.33086
2003.89407	0.33117
2001.96539	0.33144
2000.03671	0.33169
1998.10804	0.33195
1996.17936	0.33224
1994.25069	0.33249
1992.32201	0.33272
1990.39334	0.33301
1988.46466	0.33337
1986.53598	0.33371
1984.60731	0.33400
1982.67863	0.33428
1980.74996	0.33455
1978.82128	0.33483
1976.89261	0.33508
1974.96393	0.33531
1973.03525	0.33555
1971.10658	0.33578
1969.17790	0.33600
1967.24923	0.33626
1965.32055	0.33659
1963.39188	0.33694
1961.46320	0.33727
1959.53452	0.33756
1957.60585	0.33784
1955.67717	0.33813
1953.74850	0.33844
1951.81982	0.33874
1949.89115	0.33903
1947.96247	0.33934
1946.03379	0.33959
1944.10512	0.33975
1942.17644	0.34001
1940.24777	0.34046
1938.31909	0.34088
1936.39042	0.34120
1934.46174	0.34149
1932.53306	0.34175
1930.60439	0.34204
1928.67571	0.34238
1926.74704	0.34266
1924.81836	0.34282
1922.88969	0.34303
1920.96101	0.34327
1919.03233	0.34344
1917.10366	0.34376
1915.17498	0.34430
1913.24631	0.34471
1911.31763	0.34495
1909.38896	0.34520
1907.46028	0.34554
1905.53160	0.34592
1903.60293	0.34626
1901.67425	0.34659
1899.74558	0.34692
1897.81690	0.34717
1895.88823	0.34735
1893.95955	0.34760
1892.03087	0.34781
1890.10220	0.34797
1888.17352	0.34829
1886.24485	0.34872
1884.31617	0.34910
1882.38750	0.34945
1880.45882	0.34978
1878.53014	0.35007
1876.60147	0.35031
1874.67279	0.35057
1872.74412	0.35073
1870.81544	0.35069
1868.88677	0.35074
1866.95809	0.35120
1865.02941	0.35188
1863.10074	0.35245
1861.17206	0.35288
1859.24339	0.35323
1857.31471	0.35353
1855.38604	0.35383
1853.45736	0.35416
1851.52868	0.35448
1849.60001	0.35465
1847.67133	0.35457
1845.74266	0.35434
1843.81398	0.35449
1841.88531	0.35526
1839.95663	0.35600
1838.02795	0.35637
1836.09928	0.35666
1834.17060	0.35697
1832.24193	0.35708
1830.31325	0.35710
1828.38458	0.35736
1826.45590	0.35772
1824.52722	0.35812
1822.59855	0.35869
1820.66987	0.35921
1818.74120	0.35952
1816.81252	0.35977
1814.88385	0.36000
1812.95517	0.36015
1811.02649	0.36029
1809.09782	0.36059
1807.16914	0.36101
1805.24047	0.36126
1803.31179	0.36125
1801.38312	0.36125
1799.45444	0.36151
1797.52576	0.36187
1795.59709	0.36198
1793.66841	0.36188
1791.73974	0.36210
1789.81106	0.36280
1787.88239	0.36335
1785.95371	0.36348
1784.02503	0.36356
1782.09636	0.36375
1780.16768	0.36402
1778.23901	0.36436
1776.31033	0.36445
1774.38166	0.36413
1772.45298	0.36392
1770.52430	0.36419
1768.59563	0.36475
1766.66695	0.36542
1764.73828	0.36586
1762.80960	0.36588
1760.88093	0.36596
1758.95225	0.36618
1757.02357	0.36637
1755.09490	0.36650
1753.16622	0.36621
1751.23755	0.36566
1749.30887	0.36560
1747.38020	0.36597
1745.45152	0.36627
1743.52284	0.36641
1741.59417	0.36645
1739.66549	0.36657
1737.73682	0.36655
1735.80814	0.36599
1733.87947	0.36567
1731.95079	0.36644
1730.02211	0.36758
1728.09344	0.36843
1726.16476	0.36895
1724.23609	0.36919
1722.30741	0.36921
1720.37874	0.36876
1718.45006	0.36819
1716.52138	0.36836
1714.59271	0.36928
1712.66403	0.37025
1710.73536	0.37077
1708.80668	0.37072
1706.87801	0.37041
1704.94933	0.37023
1703.02065	0.36974
1701.09198	0.36900
1699.16330	0.36900
1697.23463	0.36956
1695.30595	0.37020
1693.37728	0.37104
1691.44860	0.37152
1689.51992	0.37146
1687.59125	0.37102
1685.66257	0.37020
1683.73390	0.36989
1681.80522	0.37061
1679.87655	0.37141
1677.94787	0.37149
1676.01919	0.37119
1674.09052	0.37120
1672.16184	0.37128
1670.23317	0.37122
1668.30449	0.37167
1666.37582	0.37240
1664.44714	0.37251
1662.51846	0.37242
1660.58979	0.37278
1658.66111	0.37312
1656.73244	0.37250
1654.80376	0.37101
1652.87509	0.37043
1650.94641	0.37137
1649.01773	0.37205
1647.08906	0.37209
1645.16038	0.37266
1643.23171	0.37357
1641.30303	0.37402
1639.37436	0.37375
1637.44568	0.37305
1635.51700	0.37288
1633.58833	0.37370
1631.65965	0.37449
1629.73098	0.37453
1627.80230	0.37422
1625.87363	0.37377
1623.94495	0.37308
1622.01627	0.37256
1620.08760	0.37243
1618.15892	0.37269
1616.23025	0.37373
1614.30157	0.37532
1612.37290	0.37651
1610.44422	0.37708
1608.51554	0.37753
1606.58687	0.37809
1604.65819	0.37860
1602.72952	0.37902
1600.80084	0.37946
1598.87217	0.37984
1596.94349	0.38008
1595.01481	0.38032
1593.08614	0.38064
1591.15746	0.38097
1589.22879	0.38129
1587.30011	0.38163
1585.37144	0.38195
1583.44276	0.38226
1581.51408	0.38251
1579.58541	0.38248
1577.65673	0.38217
1575.72806	0.38231
1573.79938	0.38301
1571.87071	0.38327
1569.94203	0.38312
1568.01335	0.38340
1566.08468	0.38400
1564.15600	0.38430
1562.22733	0.38379
1560.29865	0.38259
1558.36998	0.38226
1556.44130	0.38343
1554.51262	0.38480
1552.58395	0.38557
1550.65527	0.38596
1548.72660	0.38622
1546.79792	0.38618
1544.86925	0.38563
1542.94057	0.38489
1541.01189	0.38456
1539.08322	0.38523
1537.15454	0.38640
1535.22587	0.38691
1533.29719	0.38703
1531.36852	0.38753
1529.43984	0.38788
1527.51116	0.38773
1525.58249	0.38753
1523.65381	0.38715
1521.72514	0.38668
1519.79646	0.38681
1517.86779	0.38743
1515.93911	0.38811
1514.01043	0.38868
1512.08176	0.38878
1510.15308	0.38825
1508.22441	0.38759
1506.29573	0.38792
1504.36706	0.38936
1502.43838	0.39041
1500.50970	0.39038
1498.58103	0.39001
1496.65235	0.39013
1494.72368	0.39072
1492.79500	0.39089
1490.86633	0.39046
1488.93765	0.39033
1487.00897	0.39087
1485.08030	0.39158
1483.15162	0.39189
1481.22295	0.39179
1479.29427	0.39143
1477.36560	0.39082
1475.43692	0.39005
1473.50824	0.38943
1471.57957	0.38943
1469.65089	0.38992
1467.72222	0.39007
1465.79354	0.38984
1463.86487	0.38994
1461.93619	0.39014
1460.00751	0.38944
1458.07884	0.38831
1456.15016	0.38839
1454.22149	0.38969
1452.29281	0.39071
1450.36414	0.39100
1448.43546	0.39104
1446.50678	0.39134
1444.57811	0.39184
1442.64943	0.39217
1440.72076	0.39208
1438.79208	0.39136
1436.86341	0.39074
1434.93473	0.39110
1433.00605	0.39180
1431.07738	0.39201
1429.14870	0.39205
1427.22003	0.39211
1425.29135	0.39197
1423.36268	0.39167
1421.43400	0.39107
1419.50532	0.39039
1417.57665	0.39049
1415.64797	0.39122
1413.71930	0.39166
1411.79062	0.39168
1409.86195	0.39158
1407.93327	0.39143
1406.00459	0.39122
1404.07592	0.39112
1402.14724	0.39098
1400.21857	0.39066
1398.28989	0.39038
1396.36122	0.39022
1394.43254	0.39028
1392.50386	0.39059
1390.57519	0.39058
1388.64651	0.38991
1386.71784	0.38916
1384.78916	0.38888
1382.86049	0.38904
1380.93181	0.38932
1379.00313	0.38943
1377.07446	0.38926
1375.14578	0.38900
1373.21711	0.38895
1371.28843	0.38907
1369.35976	0.38912
1367.43108	0.38910
1365.50240	0.38890
1363.57373	0.38856
1361.64505	0.38852
1359.71638	0.38880
1357.78770	0.38902
1355.85903	0.38906
1353.93035	0.38912
1352.00167	0.38924
1350.07300	0.38937
1348.14432	0.38956
1346.21565	0.38980
1344.28697	0.38990
1342.35830	0.38973
1340.42962	0.38943
1338.50094	0.38930
1336.57227	0.38944
1334.64359	0.38967
1332.71492	0.38980
1330.78624	0.38976
1328.85757	0.38960
1326.92889	0.38942
1325.00021	0.38927
1323.07154	0.38909
1321.14286	0.38885
1319.21419	0.38866
1317.28551	0.38856
1315.35684	0.38841
1313.42816	0.38820
1311.49948	0.38797
1309.57081	0.38770
1307.64213	0.38740
1305.71346	0.38710
1303.78478	0.38678
1301.85611	0.38643
1299.92743	0.38609
1297.99875	0.38573
1296.07008	0.38531
1294.14140	0.38482
1292.21273	0.38431
1290.28405	0.38376
1288.35538	0.38323
1286.42670	0.38277
1284.49802	0.38237
1282.56935	0.38191
1280.64067	0.38132
1278.71200	0.38062
1276.78332	0.37981
1274.85465	0.37885
1272.92597	0.37770
1270.99729	0.37628
1269.06862	0.37452
1267.13994	0.37258
1265.21127	0.37086
1263.28259	0.36968
1261.35392	0.36906
1259.42524	0.36896
1257.49656	0.36921
1255.56789	0.36947
1253.63921	0.36944
1251.71054	0.36906
1249.78186	0.36845
1247.85319	0.36776
1245.92451	0.36702
1243.99583	0.36624
1242.06716	0.36539
1240.13848	0.36444
1238.20981	0.36343
1236.28113	0.36245
1234.35246	0.36148
1232.42378	0.36050
1230.49510	0.35949
1228.56643	0.35846
1226.63775	0.35739
1224.70908	0.35637
1222.78040	0.35545
1220.85173	0.35452
1218.92305	0.35351
1216.99437	0.35249
1215.06570	0.35149
1213.13702	0.35052
1211.20835	0.34963
1209.27967	0.34872
1207.35100	0.34775
1205.42232	0.34680
1203.49364	0.34591
1201.56497	0.34501
1199.63629	0.34408
1197.70762	0.34314
1195.77894	0.34221
1193.85027	0.34130
1191.92159	0.34031
1189.99291	0.33924
1188.06424	0.33808
1186.13556	0.33679
1184.20689	0.33538
1182.27821	0.33397
1180.34954	0.33259
1178.42086	0.33127
1176.49218	0.32996
1174.56351	0.32859
1172.63483	0.32710
1170.70616	0.32553
1168.77748	0.32401
1166.84881	0.32258
1164.92013	0.32116
1162.99145	0.31973
1161.06278	0.31831
1159.13410	0.31695
1157.20543	0.31562
1155.27675	0.31433
1153.34808	0.31311
1151.41940	0.31190
1149.49072	0.31070
1147.56205	0.30951
1145.63337	0.30838
1143.70470	0.30723
1141.77602	0.30600
1139.84735	0.30478
1137.91867	0.30360
1135.98999	0.30238
1134.06132	0.30109
1132.13264	0.29980
1130.20397	0.29849
1128.27529	0.29710
1126.34662	0.29564
1124.41794	0.29410
1122.48926	0.29252
1120.56059	0.29096
1118.63191	0.28942
1116.70324	0.28785
1114.77456	0.28625
1112.84589	0.28465
1110.91721	0.28310
1108.98853	0.28157
1107.05986	0.28007
1105.13118	0.27859
1103.20251	0.27713
1101.27383	0.27569
1099.34516	0.27433
1097.41648	0.27304
1095.48780	0.27177
1093.55913	0.27050
1091.63045	0.26930
1089.70178	0.26814
1087.77310	0.26701
1085.84443	0.26593
1083.91575	0.26492
1081.98707	0.26397
1080.05840	0.26305
1078.12972	0.26213
1076.20105	0.26119
1074.27237	0.26035
1072.34370	0.25973
1070.41502	0.25938
1068.48634	0.25919
1066.55767	0.25907
1064.62899	0.25898
1062.70032	0.25896
1060.77164	0.25911
1058.84297	0.25936
1056.91429	0.25964
1054.98561	0.25992
1053.05694	0.26024
1051.12826	0.26069
1049.19959	0.26129
1047.27091	0.26198
1045.34224	0.26271
1043.41356	0.26349
1041.48488	0.26428
1039.55621	0.26504
1037.62753	0.26581
1035.69886	0.26662
1033.77018	0.26741
1031.84151	0.26814
1029.91283	0.26891
1027.98415	0.26977
1026.05548	0.27064
1024.12680	0.27148
1022.19813	0.27232
1020.26945	0.27325
1018.34078	0.27430
1016.41210	0.27544
1014.48342	0.27668
1012.55475	0.27806
1010.62607	0.27951
1008.69740	0.28095
1006.76872	0.28236
1004.84005	0.28370
1002.91137	0.28494
1000.98269	0.28604
999.05402	0.28694
997.12534	0.28771
995.19667	0.28844
993.26799	0.28915
991.33932	0.28979
989.41064	0.29037
987.48196	0.29094
985.55329	0.29154
983.62461	0.29215
981.69594	0.29268
979.76726	0.29302
977.83859	0.29316
975.90991	0.29320
973.98123	0.29321
972.05256	0.29318
970.12388	0.29310
968.19521	0.29296
966.26653	0.29277
964.33786	0.29254
962.40918	0.29229
960.48050	0.29202
958.55183	0.29170
956.62315	0.29135
954.69448	0.29099
952.76580	0.29056
950.83713	0.29006
948.90845	0.28954
946.97977	0.28901
945.05110	0.28846
943.12242	0.28787
941.19375	0.28727
939.26507	0.28662
937.33640	0.28592
935.40772	0.28518
933.47904	0.28447
931.55037	0.28380
929.62169	0.28309
927.69302	0.28235
925.76434	0.28166
923.83567	0.28099
921.90699	0.28031
919.97831	0.27965
918.04964	0.27897
916.12096	0.27824
914.19229	0.27742
912.26361	0.27648
910.33494	0.27550
908.40626	0.27458
906.47758	0.27369
904.54891	0.27283
902.62023	0.27202
900.69156	0.27119
898.76288	0.27024
896.83421	0.26926
894.90553	0.26836
892.97685	0.26746
891.04818	0.26652
889.11950	0.26557
887.19083	0.26467
885.26215	0.26380
883.33348	0.26295
881.40480	0.26215
879.47612	0.26140
877.54745	0.26061
875.61877	0.25973
873.69010	0.25883
871.76142	0.25806
869.83275	0.25741
867.90407	0.25671
865.97539	0.25590
864.04672	0.25502
862.11804	0.25416
860.18937	0.25328
858.26069	0.25235
856.33202	0.25135
854.40334	0.25030
852.47466	0.24933
850.54599	0.24843
848.61731	0.24750
846.68864	0.24655
844.75996	0.24567
842.83129	0.24484
840.90261	0.24396
838.97394	0.24303
837.04526	0.24215
835.11658	0.24128
833.18791	0.24032
831.25923	0.23924
829.33056	0.23808
827.40188	0.23691
825.47321	0.23570
823.54453	0.23449
821.61585	0.23335
819.68718	0.23234
817.75850	0.23143
815.82983	0.23053
813.90115	0.22960
811.97248	0.22862
810.04380	0.22763
808.11512	0.22668
806.18645	0.22577
804.25777	0.22483
802.32910	0.22392
800.40042	0.22321
798.47175	0.22270
796.54307	0.22230
794.61439	0.22199
792.68572	0.22174
790.75704	0.22147
788.82837	0.22118
786.89969	0.22087
784.97102	0.22049
783.04234	0.21999
781.11366	0.21945
779.18499	0.21897
777.25631	0.21851
775.32764	0.21803
773.39896	0.21755
771.47029	0.21707
769.54161	0.21651
767.61293	0.21590
765.68426	0.21532
763.75558	0.21467
761.82691	0.21392
759.89823	0.21319
757.96956	0.21245
756.04088	0.21157
754.11220	0.21060
752.18353	0.20961
750.25485	0.20857
748.32618	0.20748
746.39750	0.20646
744.46883	0.20558
742.54015	0.20479
740.61147	0.20401
738.68280	0.20324
736.75412	0.20245
734.82545	0.20162
732.89677	0.20080
730.96810	0.20008
729.03942	0.19942
727.11074	0.19872
725.18207	0.19801
723.25339	0.19725
721.32472	0.19643
719.39604	0.19566
717.46737	0.19492
715.53869	0.19415
713.61001	0.19334
711.68134	0.19248
709.75266	0.19166
707.82399	0.19088
705.89531	0.19006
703.96664	0.18924
702.03796	0.18845
700.10928	0.18766
698.18061	0.18689
696.25193	0.18616
694.32326	0.18542
692.39458	0.18463
690.46591	0.18377
688.53723	0.18282
686.60855	0.18181
684.67988	0.18082
682.75120	0.17986
680.82253	0.17882
678.89385	0.17768
676.96518	0.17652
675.03650	0.17529
673.10782	0.17392
671.17915	0.17234
669.25047	0.17062
667.32180	0.16901
665.39312	0.16767
663.46445	0.16628
661.53577	0.16464
659.60709	0.16301
657.67842	0.16152
655.74974	0.16011
653.82107	0.15866
651.89239	0.15716
649.96372	0.15562
648.03504	0.15405
646.10636	0.15245
644.17769	0.15080
642.24901	0.14915
640.32034	0.14742
638.39166	0.14554
636.46299	0.14363
634.53431	0.14180
632.60563	0.14004
630.67696	0.13827
628.74828	0.13650
626.81961	0.13468
624.89093	0.13285
622.96226	0.13109
621.03358	0.12939
619.10490	0.12774
617.17623	0.12607
615.24755	0.12425
613.31888	0.12231
611.39020	0.12045
609.46153	0.11869
607.53285	0.11700
605.60417	0.11545
603.67550	0.11397
601.74682	0.11237
599.81815	0.11085
597.88947	0.10957
595.96080	0.10829
594.03212	0.10694
592.10344	0.10567
590.17477	0.10456
588.24609	0.10356
586.31742	0.10254
584.38874	0.10143
582.46007	0.10030
580.53139	0.09928
578.60271	0.09830
576.67404	0.09722
574.74536	0.09606
572.81669	0.09492
570.88801	0.09383
568.95934	0.09288
567.03066	0.09212
565.10198	0.09141
563.17331	0.09066
561.24463	0.08988
559.31596	0.08913
557.38728	0.08841
555.45861	0.08770
553.52993	0.08694
551.60125	0.08618
549.67258	0.08549
547.74390	0.08489
545.81523	0.08436
543.88655	0.08390
541.95788	0.08354
540.02920	0.08314
538.10052	0.08257
536.17185	0.08192
534.24317	0.08135
532.31450	0.08082
530.38582	0.08023
528.45715	0.07954
526.52847	0.07880
524.59979	0.07802
522.67112	0.07727
520.74244	0.07661
518.81377	0.07592
516.88509	0.07514
514.95642	0.07428
513.02774	0.07337
511.09906	0.07247
509.17039	0.07159
507.24171	0.07072
505.31304	0.06986
503.38436	0.06892
501.45569	0.06782
499.52701	0.06665
497.59833	0.06546
495.66966	0.06425
493.74098	0.06309
491.81231	0.06190
489.88363	0.06066
487.95496	0.05944
486.02628	0.05827
484.09760	0.05702
482.16893	0.05566
480.24025	0.05431
478.31158	0.05306
476.38290	0.05189
474.45423	0.05072
472.52555	0.04957
470.59687	0.04848
468.66820	0.04756
466.73952	0.04688
464.81085	0.04637
462.88217	0.04594
460.95350	0.04554
459.02482	0.04521
457.09614	0.04507
455.16747	0.04507
453.23879	0.04507
451.31012	0.04508
449.38144	0.04506
447.45277	0.04484
445.52409	0.04438
443.59541	0.04378
441.66674	0.04312
439.73806	0.04240
437.80939	0.04162
435.88071	0.04074
433.95204	0.03975
432.02336	0.03866
430.09468	0.03752
428.16601	0.03624
426.23733	0.03484
424.30866	0.03344
422.37998	0.03206
420.45131	0.03066
418.52263	0.02932
416.59395	0.02811
414.66528	0.02700
412.73660	0.02589
410.80793	0.02467
408.87925	0.02344
406.95058	0.02226
405.02190	0.02104
403.09322	0.01983
401.16455	0.01879
399.23587	0.01783
397.30720	0.01682
395.37852	0.01577
393.44985	0.01475
391.52117	0.01376
389.59249	0.01277
387.66382	0.01175
385.73514	0.01087
383.80647	0.01020
381.87779	0.00953
379.94912	0.00886
378.02044	0.00824
376.09176	0.00758
374.16309	0.00678
372.23441	0.00595
370.30574	0.00530
368.37706	0.00484
