7496.76250	0.001875
7494.83382	0.001891
7492.90514	0.001927
7490.97647	0.001925
7489.04779	0.001909
7487.11912	0.001917
7485.19044	0.001922
7483.26177	0.001907
7481.33309	0.001921
7479.40441	0.001964
7477.47574	0.001970
7475.54706	0.001935
7473.61839	0.001921
7471.68971	0.001937
7469.76104	0.001938
7467.83236	0.001914
7465.90368	0.001910
7463.97501	0.001942
7462.04633	0.001961
7460.11766	0.001956
7458.18898	0.001978
7456.26031	0.002015
7454.33163	0.001998
7452.40295	0.001951
7450.47428	0.001953
7448.54560	0.001995
7446.61693	0.002015
7444.68825	0.002009
7442.75958	0.002015
7440.83090	0.002025
7438.90222	0.002008
7436.97355	0.001995
7435.04487	0.002017
7433.11620	0.002034
7431.18752	0.002016
7429.25885	0.002001
7427.33017	0.002010
7425.40149	0.002022
7423.47282	0.002032
7421.54414	0.002058
7419.61547	0.002093
7417.68679	0.002095
7415.75812	0.002053
7413.82944	0.002024
7411.90076	0.002043
7409.97209	0.002058
7408.04341	0.002046
7406.11474	0.002073
7404.18606	0.002140
7402.25739	0.002160
7400.32871	0.002125
7398.40003	0.002108
7396.47136	0.002120
7394.54268	0.002117
7392.61401	0.002104
7390.68533	0.002121
7388.75666	0.002161
7386.82798	0.002162
7384.89930	0.002131
7382.97063	0.002136
7381.04195	0.002177
7379.11328	0.002190
7377.18460	0.002175
7375.25593	0.002184
7373.32725	0.002207
7371.39857	0.002194
7369.46990	0.002168
7367.54122	0.002176
7365.61255	0.002190
7363.68387	0.002180
7361.75520	0.002182
7359.82652	0.002217
7357.89784	0.002234
7355.96917	0.002211
7354.04049	0.002194
7352.11182	0.002201
7350.18314	0.002197
7348.25447	0.002188
7346.32579	0.002203
7344.39711	0.002235
7342.46844	0.002245
7340.53976	0.002228
7338.61109	0.002225
7336.68241	0.002252
7334.75374	0.002272
7332.82506	0.002277
7330.89638	0.002293
7328.96771	0.002314
7327.03903	0.002304
7325.11036	0.002276
7323.18168	0.002273
7321.25301	0.002294
7319.32433	0.002302
7317.39565	0.002294
7315.46698	0.002307
7313.53830	0.002330
7311.60963	0.002330
7309.68095	0.002332
7307.75228	0.002355
7305.82360	0.002361
7303.89492	0.002337
7301.96625	0.002335
7300.03757	0.002368
7298.10890	0.002386
7296.18022	0.002367
7294.25155	0.002353
7292.32287	0.002364
7290.39419	0.002371
7288.46552	0.002366
7286.53684	0.002375
7284.60817	0.002398
7282.67949	0.002405
7280.75082	0.002402
7278.82214	0.002416
7276.89346	0.002431
7274.96479	0.002410
7273.03611	0.002375
7271.10744	0.002377
7269.17876	0.002408
7267.25009	0.002419
7265.32141	0.002404
7263.39273	0.002407
7261.46406	0.002435
7259.53538	0.002442
7257.60671	0.002434
7255.67803	0.002451
7253.74936	0.002474
7251.82068	0.002461
7249.89200	0.002437
7247.96333	0.002458
7246.03465	0.002494
7244.10598	0.002469
7242.17730	0.002427
7240.24863	0.002457
7238.31995	0.002525
7236.39127	0.002546
7234.46260	0.002523
7232.53392	0.002510
7230.60525	0.002523
7228.67657	0.002546
7226.74790	0.002571
7224.81922	0.002598
7222.89054	0.002596
7220.96187	0.002566
7219.03319	0.002554
7217.10452	0.002567
7215.17584	0.002562
7213.24717	0.002550
7211.31849	0.002574
7209.38981	0.002617
7207.46114	0.002626
7205.53246	0.002607
7203.60379	0.002607
7201.67511	0.002630
7199.74644	0.002632
7197.81776	0.002617
7195.88908	0.002622
7193.96041	0.002646
7192.03173	0.002653
7190.10306	0.002647
7188.17438	0.002664
7186.24571	0.002684
7184.31703	0.002680
7182.38835	0.002671
7180.45968	0.002673
7178.53100	0.002673
7176.60233	0.002663
7174.67365	0.002670
7172.74498	0.002699
7170.81630	0.002703
7168.88762	0.002679
7166.95895	0.002670
7165.03027	0.002686
7163.10160	0.002702
7161.17292	0.002705
7159.24425	0.002717
7157.31557	0.002744
7155.38689	0.002755
7153.45822	0.002736
7151.52954	0.002723
7149.60087	0.002740
7147.67219	0.002754
7145.74352	0.002738
7143.81484	0.002724
7141.88616	0.002744
7139.95749	0.002770
7138.02881	0.002787
7136.10014	0.002805
7134.17146	0.002811
7132.24279	0.002789
7130.31411	0.002769
7128.38543	0.002784
7126.45676	0.002810
7124.52808	0.002813
7122.59941	0.002809
7120.67073	0.002828
7118.74206	0.002848
7116.81338	0.002846
7114.88470	0.002842
7112.95603	0.002853
7111.02735	0.002868
7109.09868	0.002864
7107.17000	0.002856
7105.24133	0.002876
7103.31265	0.002902
7101.38397	0.002899
7099.45530	0.002889
7097.52662	0.002903
7095.59795	0.002916
7093.66927	0.002913
7091.74060	0.002920
7089.81192	0.002948
7087.88324	0.002963
7085.95457	0.002941
7084.02589	0.002915
7082.09722	0.002912
7080.16854	0.002909
7078.23987	0.002897
7076.31119	0.002910
7074.38251	0.002950
7072.45384	0.002976
7070.52516	0.002975
7068.59649	0.002979
7066.66781	0.003005
7064.73914	0.003024
7062.81046	0.003023
7060.88178	0.003035
7058.95311	0.003054
7057.02443	0.003039
7055.09576	0.003007
7053.16708	0.003003
7051.23841	0.003026
7049.30973	0.003040
7047.38105	0.003034
7045.45238	0.003040
7043.52370	0.003059
7041.59503	0.003057
7039.66635	0.003044
7037.73768	0.003053
7035.80900	0.003073
7033.88032	0.003078
7031.95165	0.003081
7030.02297	0.003110
7028.09430	0.003139
7026.16562	0.003137
7024.23695	0.003129
7022.30827	0.003139
7020.37959	0.003150
7018.45092	0.003152
7016.52224	0.003162
7014.59357	0.003180
7012.66489	0.003178
7010.73622	0.003154
7008.80754	0.003145
7006.87886	0.003162
7004.95019	0.003180
7003.02151	0.003180
7001.09284	0.003172
6999.16416	0.003167
6997.23549	0.003156
6995.30681	0.003146
6993.37813	0.003177
6991.44946	0.003234
6989.52078	0.003258
6987.59211	0.003237
6985.66343	0.003209
6983.73476	0.003204
6981.80608	0.003220
6979.87740	0.003238
6977.94873	0.003263
6976.02005	0.003288
6974.09138	0.003288
6972.16270	0.003273
6970.23403	0.003280
6968.30535	0.003303
6966.37667	0.003311
6964.44800	0.003311
6962.51932	0.003326
6960.59065	0.003354
6958.66197	0.003365
6956.73330	0.003349
6954.80462	0.003335
6952.87594	0.003329
6950.94727	0.003307
6949.01859	0.003296
6947.08992	0.003325
6945.16124	0.003361
6943.23257	0.003373
6941.30389	0.003381
6939.37521	0.003395
6937.44654	0.003396
6935.51786	0.003391
6933.58919	0.003405
6931.66051	0.003426
6929.73184	0.003427
6927.80316	0.003428
6925.87448	0.003446
6923.94581	0.003449
6922.01713	0.003430
6920.08846	0.003426
6918.15978	0.003453
6916.23111	0.003474
6914.30243	0.003465
6912.37375	0.003455
6910.44508	0.003473
6908.51640	0.003492
6906.58773	0.003497
6904.65905	0.003507
6902.73038	0.003526
6900.80170	0.003529
6898.87302	0.003514
6896.94435	0.003508
6895.01567	0.003530
6893.08700	0.003561
6891.15832	0.003575
6889.22965	0.003577
6887.30097	0.003585
6885.37229	0.003594
6883.44362	0.003594
6881.51494	0.003594
6879.58627	0.003616
6877.65759	0.003647
6875.72892	0.003652
6873.80024	0.003647
6871.87156	0.003656
6869.94289	0.003655
6868.01421	0.003637
6866.08554	0.003634
6864.15686	0.003643
6862.22819	0.003643
6860.29951	0.003651
6858.37083	0.003680
6856.44216	0.003710
6854.51348	0.003729
6852.58481	0.003739
6850.65613	0.003737
6848.72746	0.003738
6846.79878	0.003749
6844.87010	0.003752
6842.94143	0.003765
6841.01275	0.003796
6839.08408	0.003808
6837.15540	0.003791
6835.22673	0.003788
6833.29805	0.003812
6831.36937	0.003821
6829.44070	0.003808
6827.51202	0.003813
6825.58335	0.003841
6823.65467	0.003860
6821.72600	0.003858
6819.79732	0.003847
6817.86864	0.003843
6815.93997	0.003855
6814.01129	0.003879
6812.08262	0.003904
6810.15394	0.003925
6808.22527	0.003932
6806.29659	0.003926
6804.36791	0.003925
6802.43924	0.003941
6800.51056	0.003959
6798.58189	0.003962
6796.65321	0.003955
6794.72454	0.003956
6792.79586	0.003967
6790.86718	0.003974
6788.93851	0.003985
6787.00983	0.004006
6785.08116	0.004028
6783.15248	0.004056
6781.22381	0.004079
6779.29513	0.004071
6777.36645	0.004046
6775.43778	0.004049
6773.50910	0.004081
6771.58043	0.004106
6769.65175	0.004100
6767.72308	0.004100
6765.79440	0.004125
6763.86572	0.004124
6761.93705	0.004096
6760.00837	0.004092
6758.07970	0.004108
6756.15102	0.004116
6754.22235	0.004123
6752.29367	0.004147
6750.36499	0.004184
6748.43632	0.004206
6746.50764	0.004202
6744.57897	0.004203
6742.65029	0.004220
6740.72162	0.004230
6738.79294	0.004236
6736.86426	0.004242
6734.93559	0.004226
6733.00691	0.004205
6731.07824	0.004213
6729.14956	0.004246
6727.22089	0.004279
6725.29221	0.004295
6723.36353	0.004293
6721.43486	0.004301
6719.50618	0.004319
6717.57751	0.004327
6715.64883	0.004323
6713.72016	0.004327
6711.79148	0.004337
6709.86280	0.004341
6707.93413	0.004347
6706.00545	0.004350
6704.07678	0.004345
6702.14810	0.004352
6700.21943	0.004374
6698.29075	0.004390
6696.36207	0.004400
6694.43340	0.004406
6692.50472	0.004410
6690.57605	0.004415
6688.64737	0.004417
6686.71870	0.004420
6684.79002	0.004436
6682.86134	0.004473
6680.93267	0.004510
6679.00399	0.004528
6677.07532	0.004544
6675.14664	0.004561
6673.21797	0.004551
6671.28929	0.004528
6669.36061	0.004519
6667.43194	0.004519
6665.50326	0.004526
6663.57459	0.004553
6661.64591	0.004593
6659.71724	0.004614
6657.78856	0.004612
6655.85988	0.004611
6653.93121	0.004628
6652.00253	0.004635
6650.07386	0.004620
6648.14518	0.004625
6646.21651	0.004655
6644.28783	0.004671
6642.35915	0.004671
6640.43048	0.004688
6638.50180	0.004730
6636.57313	0.004747
6634.64445	0.004723
6632.71578	0.004711
6630.78710	0.004729
6628.85842	0.004734
6626.92975	0.004708
6625.00107	0.004689
6623.07240	0.004708
6621.14372	0.004738
6619.21505	0.004754
6617.28637	0.004772
6615.35769	0.004814
6613.42902	0.004853
6611.50034	0.004859
6609.57167	0.004843
6607.64299	0.004825
6605.71432	0.004821
6603.78564	0.004849
6601.85696	0.004896
6599.92829	0.004920
6597.99961	0.004921
6596.07094	0.004929
6594.14226	0.004932
6592.21359	0.004925
6590.28491	0.004932
6588.35623	0.004950
6586.42756	0.004969
6584.49888	0.004988
6582.57021	0.004999
6580.64153	0.005008
6578.71286	0.005018
6576.78418	0.005026
6574.85550	0.005025
6572.92683	0.005017
6570.99815	0.005014
6569.06948	0.005019
6567.14080	0.005041
6565.21213	0.005074
6563.28345	0.005087
6561.35477	0.005085
6559.42610	0.005096
6557.49742	0.005118
6555.56875	0.005136
6553.64007	0.005144
6551.71140	0.005157
6549.78272	0.005185
6547.85404	0.005208
6545.92537	0.005209
6543.99669	0.005196
6542.06802	0.005187
6540.13934	0.005190
6538.21067	0.005197
6536.28199	0.005206
6534.35331	0.005231
6532.42464	0.005252
6530.49596	0.005254
6528.56729	0.005261
6526.63861	0.005281
6524.70994	0.005292
6522.78126	0.005293
6520.85258	0.005309
6518.92391	0.005346
6516.99523	0.005378
6515.06656	0.005385
6513.13788	0.005372
6511.20921	0.005367
6509.28053	0.005388
6507.35185	0.005426
6505.42318	0.005442
6503.49450	0.005430
6501.56583	0.005415
6499.63715	0.005398
6497.70848	0.005396
6495.77980	0.005424
6493.85112	0.005451
6491.92245	0.005471
6489.99377	0.005496
6488.06510	0.005524
6486.13642	0.005556
6484.20775	0.005576
6482.27907	0.005568
6480.35039	0.005557
6478.42172	0.005567
6476.49304	0.005585
6474.56437	0.005598
6472.63569	0.005613
6470.70702	0.005633
6468.77834	0.005643
6466.84966	0.005635
6464.92099	0.005643
6462.99231	0.005680
6461.06364	0.005700
6459.13496	0.005687
6457.20629	0.005689
6455.27761	0.005718
6453.34893	0.005747
6451.42026	0.005768
6449.49158	0.005793
6447.56291	0.005819
6445.63423	0.005828
6443.70556	0.005831
6441.77688	0.005844
6439.84820	0.005863
6437.91953	0.005876
6435.99085	0.005869
6434.06218	0.005856
6432.13350	0.005860
6430.20483	0.005870
6428.27615	0.005874
6426.34747	0.005892
6424.41880	0.005932
6422.49012	0.005969
6420.56145	0.005981
6418.63277	0.005981
6416.70410	0.005990
6414.77542	0.006000
6412.84674	0.006007
6410.91807	0.006028
6408.98939	0.006051
6407.06072	0.006050
6405.13204	0.006046
6403.20337	0.006063
6401.27469	0.006080
6399.34601	0.006091
6397.41734	0.006109
6395.48866	0.006139
6393.55999	0.006161
6391.63131	0.006160
6389.70264	0.006153
6387.77396	0.006161
6385.84528	0.006173
6383.91661	0.006177
6381.98793	0.006196
6380.05926	0.006238
6378.13058	0.006269
6376.20191	0.006273
6374.27323	0.006275
6372.34455	0.006287
6370.41588	0.006306
6368.48720	0.006327
6366.55853	0.006346
6364.62985	0.006362
6362.70118	0.006370
6360.77250	0.006365
6358.84382	0.006369
6356.91515	0.006401
6354.98647	0.006425
6353.05780	0.006419
6351.12912	0.006424
6349.20045	0.006445
6347.27177	0.006435
6345.34309	0.006412
6343.41442	0.006438
6341.48574	0.006482
6339.55707	0.006484
6337.62839	0.006483
6335.69972	0.006520
6333.77104	0.006548
6331.84236	0.006545
6329.91369	0.006556
6327.98501	0.006598
6326.05634	0.006641
6324.12766	0.006653
6322.19899	0.006656
6320.27031	0.006680
6318.34163	0.006711
6316.41296	0.006729
6314.48428	0.006735
6312.55561	0.006739
6310.62693	0.006742
6308.69826	0.006738
6306.76958	0.006741
6304.84090	0.006774
6302.91223	0.006826
6300.98355	0.006848
6299.05488	0.006832
6297.12620	0.006839
6295.19753	0.006883
6293.26885	0.006913
6291.34017	0.006921
6289.41150	0.006931
6287.48282	0.006942
6285.55415	0.006939
6283.62547	0.006936
6281.69680	0.006948
6279.76812	0.006962
6277.83944	0.006972
6275.91077	0.006994
6273.98209	0.007034
6272.05342	0.007064
6270.12474	0.007061
6268.19607	0.007052
6266.26739	0.007073
6264.33871	0.007103
6262.41004	0.007108
6260.48136	0.007102
6258.55269	0.007111
6256.62401	0.007129
6254.69534	0.007142
6252.76666	0.007160
6250.83798	0.007190
6248.90931	0.007211
6246.98063	0.007224
6245.05196	0.007245
6243.12328	0.007268
6241.19461	0.007277
6239.26593	0.007286
6237.33725	0.007300
6235.40858	0.007308
6233.47990	0.007318
6231.55123	0.007350
6229.62255	0.007399
6227.69388	0.007437
6225.76520	0.007443
6223.83652	0.007441
6221.90785	0.007461
6219.97917	0.007491
6218.05050	0.007501
6216.12182	0.007506
6214.19315	0.007536
6212.26447	0.007566
6210.33579	0.007574
6208.40712	0.007592
6206.47844	0.007634
6204.54977	0.007656
6202.62109	0.007642
6200.69242	0.007645
6198.76374	0.007683
6196.83506	0.007703
6194.90639	0.007685
6192.97771	0.007673
6191.04904	0.007688
6189.12036	0.007703
6187.19169	0.007707
6185.26301	0.007728
6183.33433	0.007775
6181.40566	0.007797
6179.47698	0.007779
6177.54831	0.007784
6175.61963	0.007831
6173.69096	0.007860
6171.76228	0.007858
6169.83360	0.007870
6167.90493	0.007904
6165.97625	0.007929
6164.04758	0.007938
6162.11890	0.007954
6160.19023	0.007983
6158.26155	0.007996
6156.33287	0.007992
6154.40420	0.008009
6152.47552	0.008053
6150.54685	0.008089
6148.61817	0.008108
6146.68950	0.008128
6144.76082	0.008144
6142.83214	0.008139
6140.90347	0.008133
6138.97479	0.008160
6137.04612	0.008194
6135.11744	0.008192
6133.18877	0.008194
6131.26009	0.008233
6129.33141	0.008263
6127.40274	0.008263
6125.47406	0.008275
6123.54539	0.008316
6121.61671	0.008361
6119.68804	0.008382
6117.75936	0.008384
6115.83068	0.008390
6113.90201	0.008398
6111.97333	0.008397
6110.04466	0.008405
6108.11598	0.008445
6106.18731	0.008486
6104.25863	0.008496
6102.32995	0.008498
6100.40128	0.008525
6098.47260	0.008551
6096.54393	0.008556
6094.61525	0.008581
6092.68658	0.008645
6090.75790	0.008692
6088.82922	0.008696
6086.90055	0.008697
6084.97187	0.008718
6083.04320	0.008731
6081.11452	0.008730
6079.18585	0.008758
6077.25717	0.008810
6075.32849	0.008825
6073.39982	0.008807
6071.47114	0.008823
6069.54247	0.008873
6067.61379	0.008892
6065.68512	0.008884
6063.75644	0.008899
6061.82776	0.008928
6059.89909	0.008945
6057.97041	0.008971
6056.04174	0.009021
6054.11306	0.009055
6052.18439	0.009049
6050.25571	0.009050
6048.32703	0.009080
6046.39836	0.009100
6044.46968	0.009099
6042.54101	0.009102
6040.61233	0.009126
6038.68366	0.009156
6036.75498	0.009177
6034.82630	0.009207
6032.89763	0.009257
6030.96895	0.009283
6029.04028	0.009270
6027.11160	0.009259
6025.18293	0.009275
6023.25425	0.009295
6021.32557	0.009297
6019.39690	0.009316
6017.46822	0.009369
6015.53955	0.009402
6013.61087	0.009393
6011.68220	0.009404
6009.75352	0.009458
6007.82484	0.009494
6005.89617	0.009483
6003.96749	0.009489
6002.03882	0.009546
6000.11014	0.009598
5998.18147	0.009609
5996.25279	0.009615
5994.32411	0.009634
5992.39544	0.009636
5990.46676	0.009629
5988.53809	0.009651
5986.60941	0.009694
5984.68074	0.009718
5982.75206	0.009732
5980.82338	0.009769
5978.89471	0.009812
5976.96603	0.009831
5975.03736	0.009843
5973.10868	0.009865
5971.18001	0.009881
5969.25133	0.009877
5967.32265	0.009883
5965.39398	0.009930
5963.46530	0.009973
5961.53663	0.009960
5959.60795	0.009939
5957.67928	0.009978
5955.75060	0.010030
5953.82192	0.010033
5951.89325	0.010031
5949.96457	0.010076
5948.03590	0.010127
5946.10722	0.010139
5944.17855	0.010145
5942.24987	0.010183
5940.32119	0.010217
5938.39252	0.010214
5936.46384	0.010222
5934.53517	0.010277
5932.60649	0.010321
5930.67782	0.010318
5928.74914	0.010336
5926.82046	0.010392
5924.89179	0.010420
5922.96311	0.010410
5921.03444	0.010413
5919.10576	0.010437
5917.17709	0.010451
5915.24841	0.010462
5913.31973	0.010515
5911.39106	0.010594
5909.46238	0.010625
5907.53371	0.010597
5905.60503	0.010590
5903.67636	0.010638
5901.74768	0.010675
5899.81900	0.010679
5897.89033	0.010706
5895.96165	0.010756
5894.03298	0.010758
5892.10430	0.010733
5890.17563	0.010761
5888.24695	0.010815
5886.31827	0.010817
5884.38960	0.010799
5882.46092	0.010846
5880.53225	0.010919
5878.60357	0.010921
5876.67490	0.010894
5874.74622	0.010933
5872.81755	0.010997
5870.88887	0.011006
5868.96019	0.010993
5867.03152	0.011009
5865.10284	0.011034
5863.17417	0.011046
5861.24549	0.011061
5859.31682	0.011116
5857.38814	0.011193
5855.45946	0.011235
5853.53079	0.011247
5851.60211	0.011270
5849.67344	0.011290
5847.74476	0.011285
5845.81609	0.011305
5843.88741	0.011367
5841.95873	0.011404
5840.03006	0.011389
5838.10138	0.011379
5836.17271	0.011418
5834.24403	0.011480
5832.31536	0.011515
5830.38668	0.011531
5828.45800	0.011557
5826.52933	0.011571
5824.60065	0.011571
5822.67198	0.011608
5820.74330	0.011676
5818.81463	0.011718
5816.88595	0.011726
5814.95727	0.011735
5813.02860	0.011750
5811.09992	0.011754
5809.17125	0.011781
5807.24257	0.011846
5805.31390	0.011895
5803.38522	0.011892
5801.45654	0.011884
5799.52787	0.011932
5797.59919	0.012013
5795.67052	0.012052
5793.74184	0.012052
5791.81317	0.012071
5789.88449	0.012099
5787.95581	0.012092
5786.02714	0.012092
5784.09846	0.012148
5782.16979	0.012214
5780.24111	0.012234
5778.31244	0.012234
5776.38376	0.012269
5774.45508	0.012323
5772.52641	0.012334
5770.59773	0.012324
5768.66906	0.012355
5766.74038	0.012401
5764.81171	0.012408
5762.88303	0.012418
5760.95435	0.012485
5759.02568	0.012546
5757.09700	0.012538
5755.16833	0.012532
5753.23965	0.012583
5751.31098	0.012633
5749.38230	0.012639
5747.45362	0.012660
5745.52495	0.012723
5743.59627	0.012752
5741.66760	0.012724
5739.73892	0.012730
5737.81025	0.012804
5735.88157	0.012861
5733.95289	0.012879
5732.02422	0.012923
5730.09554	0.012994
5728.16687	0.013011
5726.23819	0.012976
5724.30952	0.012991
5722.38084	0.013071
5720.45216	0.013113
5718.52349	0.013101
5716.59481	0.013139
5714.66614	0.013225
5712.73746	0.013249
5710.80879	0.013202
5708.88011	0.013196
5706.95143	0.013250
5705.02276	0.013281
5703.09408	0.013281
5701.16541	0.013316
5699.23673	0.013376
5697.30806	0.013399
5695.37938	0.013411
5693.45070	0.013474
5691.52203	0.013543
5689.59335	0.013543
5687.66468	0.013532
5685.73600	0.013599
5683.80733	0.013681
5681.87865	0.013693
5679.94997	0.013683
5678.02130	0.013727
5676.09262	0.013784
5674.16395	0.013787
5672.23527	0.013798
5670.30660	0.013869
5668.37792	0.013917
5666.44924	0.013894
5664.52057	0.013892
5662.59189	0.013970
5660.66322	0.014033
5658.73454	0.014011
5656.80587	0.013999
5654.87719	0.014079
5652.94851	0.014159
5651.01984	0.014157
5649.09116	0.014160
5647.16249	0.014234
5645.23381	0.014285
5643.30514	0.014268
5641.37646	0.014279
5639.44778	0.014351
5637.51911	0.014391
5635.59043	0.014382
5633.66176	0.014417
5631.73308	0.014497
5629.80441	0.014524
5627.87573	0.014506
5625.94705	0.014547
5624.01838	0.014632
5622.08970	0.014661
5620.16103	0.014651
5618.23235	0.014694
5616.30368	0.014760
5614.37500	0.014769
5612.44632	0.014756
5610.51765	0.014807
5608.58897	0.014880
5606.66030	0.014885
5604.73162	0.014860
5602.80295	0.014907
5600.87427	0.014998
5598.94559	0.015031
5597.01692	0.015026
5595.08824	0.015072
5593.15957	0.015128
5591.23089	0.015106
5589.30222	0.015082
5587.37354	0.015151
5585.44486	0.015236
5583.51619	0.015249
5581.58751	0.015249
5579.65884	0.015300
5577.73016	0.015342
5575.80149	0.015342
5573.87281	0.015380
5571.94413	0.015483
5570.01546	0.015540
5568.08678	0.015506
5566.15811	0.015504
5564.22943	0.015579
5562.30076	0.015616
5560.37208	0.015594
5558.44340	0.015624
5556.51473	0.015710
5554.58605	0.015750
5552.65738	0.015736
5550.72870	0.015762
5548.80003	0.015822
5546.87135	0.015829
5544.94267	0.015796
5543.01400	0.015829
5541.08532	0.015913
5539.15665	0.015942
5537.22797	0.015947
5535.29930	0.016037
5533.37062	0.016156
5531.44194	0.016182
5529.51327	0.016152
5527.58459	0.016186
5525.65592	0.016264
5523.72724	0.016275
5521.79857	0.016250
5519.86989	0.016304
5517.94121	0.016401
5516.01254	0.016427
5514.08386	0.016417
5512.15519	0.016477
5510.22651	0.016565
5508.29784	0.016585
5506.36916	0.016584
5504.44048	0.016648
5502.51181	0.016707
5500.58313	0.016676
5498.65446	0.016649
5496.72578	0.016714
5494.79711	0.016790
5492.86843	0.016799
5490.93975	0.016806
5489.01108	0.016882
5487.08240	0.016957
5485.15373	0.016950
5483.22505	0.016945
5481.29638	0.017031
5479.36770	0.017107
5477.43902	0.017084
5475.51035	0.017073
5473.58167	0.017156
5471.65300	0.017223
5469.72432	0.017207
5467.79565	0.017225
5465.86697	0.017328
5463.93829	0.017383
5462.00962	0.017348
5460.08094	0.017374
5458.15227	0.017489
5456.22359	0.017555
5454.29492	0.017553
5452.36624	0.017588
5450.43756	0.017663
5448.50889	0.017679
5446.58021	0.017652
5444.65154	0.017702
5442.72286	0.017789
5440.79419	0.017787
5438.86551	0.017744
5436.93683	0.017792
5435.00816	0.017898
5433.07948	0.017925
5431.15081	0.017899
5429.22213	0.017959
5427.29346	0.018063
5425.36478	0.018083
5423.43610	0.018069
5421.50743	0.018151
5419.57875	0.018266
5417.65008	0.018256
5415.72140	0.018200
5413.79273	0.018264
5411.86405	0.018365
5409.93537	0.018366
5408.00670	0.018366
5406.07802	0.018465
5404.14935	0.018554
5402.22067	0.018536
5400.29200	0.018512
5398.36332	0.018587
5396.43464	0.018660
5394.50597	0.018633
5392.57729	0.018626
5390.64862	0.018744
5388.71994	0.018863
5386.79127	0.018859
5384.86259	0.018858
5382.93391	0.018959
5381.00524	0.019012
5379.07656	0.018949
5377.14789	0.018945
5375.21921	0.019056
5373.29054	0.019132
5371.36186	0.019123
5369.43318	0.019155
5367.50451	0.019250
5365.57583	0.019281
5363.64716	0.019245
5361.71848	0.019284
5359.78981	0.019400
5357.86113	0.019427
5355.93245	0.019357
5354.00378	0.019382
5352.07510	0.019504
5350.14643	0.019535
5348.21775	0.019498
5346.28908	0.019556
5344.36040	0.019668
5342.43172	0.019678
5340.50305	0.019623
5338.57437	0.019686
5336.64570	0.019839
5334.71702	0.019881
5332.78835	0.019842
5330.85967	0.019893
5328.93099	0.019992
5327.00232	0.020010
5325.07364	0.020021
5323.14497	0.020133
5321.21629	0.020249
5319.28762	0.020244
5317.35894	0.020210
5315.43026	0.020285
5313.50159	0.020382
5311.57291	0.020358
5309.64424	0.020312
5307.71556	0.020399
5305.78689	0.020529
5303.85821	0.020549
5301.92953	0.020540
5300.00086	0.020628
5298.07218	0.020711
5296.14351	0.020678
5294.21483	0.020656
5292.28616	0.020753
5290.35748	0.020835
5288.42880	0.020817
5286.50013	0.020853
5284.57145	0.021000
5282.64278	0.021078
5280.71410	0.021028
5278.78543	0.021034
5276.85675	0.021156
5274.92807	0.021228
5272.99940	0.021192
5271.07072	0.021196
5269.14205	0.021298
5267.21337	0.021353
5265.28470	0.021311
5263.35602	0.021333
5261.42734	0.021466
5259.49867	0.021536
5257.56999	0.021489
5255.64132	0.021492
5253.71264	0.021602
5251.78397	0.021651
5249.85529	0.021614
5247.92661	0.021663
5245.99794	0.021784
5244.06926	0.021807
5242.14059	0.021778
5240.21191	0.021860
5238.28324	0.021978
5236.35456	0.021963
5234.42588	0.021910
5232.49721	0.022006
5230.56853	0.022161
5228.63986	0.022172
5226.71118	0.022128
5224.78251	0.022215
5222.85383	0.022341
5220.92515	0.022349
5218.99648	0.022332
5217.06780	0.022428
5215.13913	0.022543
5213.21045	0.022533
5211.28178	0.022499
5209.35310	0.022583
5207.42442	0.022669
5205.49575	0.022639
5203.56707	0.022633
5201.63840	0.022771
5199.70972	0.022898
5197.78105	0.022883
5195.85237	0.022871
5193.92369	0.022973
5191.99502	0.023040
5190.06634	0.022997
5188.13767	0.023016
5186.20899	0.023162
5184.28032	0.023249
5182.35164	0.023206
5180.42296	0.023224
5178.49429	0.023364
5176.56561	0.023440
5174.63694	0.023409
5172.70826	0.023446
5170.77959	0.023574
5168.85091	0.023617
5166.92223	0.023568
5164.99356	0.023617
5163.06488	0.023760
5161.13621	0.023793
5159.20753	0.023734
5157.27886	0.023791
5155.35018	0.023955
5153.42150	0.024017
5151.49283	0.023960
5149.56415	0.023976
5147.63548	0.024079
5145.70680	0.024095
5143.77813	0.024058
5141.84945	0.024146
5139.92077	0.024284
5137.99210	0.024289
5136.06342	0.024248
5134.13475	0.024341
5132.20607	0.024490
5130.27740	0.024519
5128.34872	0.024492
5126.42004	0.024582
5124.49137	0.024718
5122.56269	0.024722
5120.63402	0.024667
5118.70534	0.024720
5116.77667	0.024809
5114.84799	0.024793
5112.91931	0.024784
5110.99064	0.024920
5109.06196	0.025060
5107.13329	0.025065
5105.20461	0.025061
5103.27594	0.025169
5101.34726	0.025266
5099.41858	0.025242
5097.48991	0.025232
5095.56123	0.025351
5093.63256	0.025448
5091.70388	0.025407
5089.77521	0.025399
5087.84653	0.025527
5085.91785	0.025599
5083.98918	0.025550
5082.06050	0.025591
5080.13183	0.025764
5078.20315	0.025848
5076.27448	0.025793
5074.34580	0.025804
5072.41712	0.025924
5070.48845	0.025967
5068.55977	0.025927
5066.63110	0.026005
5064.70242	0.026187
5062.77375	0.026251
5060.84507	0.026191
5058.91639	0.026216
5056.98772	0.026350
5055.05904	0.026395
5053.13037	0.026341
5051.20169	0.026397
5049.27302	0.026554
5047.34434	0.026609
5045.41566	0.026581
5043.48699	0.026632
5041.55831	0.026733
5039.62964	0.026753
5037.70096	0.026744
5035.77229	0.026843
5033.84361	0.026983
5031.91493	0.026992
5029.98626	0.026961
5028.05758	0.027076
5026.12891	0.027231
5024.20023	0.027238
5022.27156	0.027206
5020.34288	0.027319
5018.41420	0.027473
5016.48553	0.027475
5014.55685	0.027428
5012.62818	0.027510
5010.69950	0.027601
5008.77083	0.027566
5006.84215	0.027563
5004.91347	0.027714
5002.98480	0.027832
5001.05612	0.027800
4999.12745	0.027797
4997.19877	0.027924
4995.27010	0.028002
4993.34142	0.027942
4991.41274	0.027948
4989.48407	0.028116
4987.55539	0.028224
4985.62672	0.028179
4983.69804	0.028203
4981.76937	0.028365
4979.84069	0.028426
4977.91201	0.028345
4975.98334	0.028373
4974.05466	0.028539
4972.12599	0.028612
4970.19731	0.028568
4968.26864	0.028611
4966.33996	0.028758
4964.41128	0.028822
4962.48261	0.028787
4960.55393	0.028843
4958.62526	0.028997
4956.69658	0.029045
4954.76791	0.028986
4952.83923	0.029045
4950.91055	0.029225
4948.98188	0.029287
4947.05320	0.029236
4945.12453	0.029301
4943.19585	0.029448
4941.26718	0.029479
4939.33850	0.029474
4937.40982	0.029606
4935.48115	0.029742
4933.55247	0.029692
4931.62380	0.029624
4929.69512	0.029769
4927.76645	0.029944
4925.83777	0.029912
4923.90909	0.029839
4921.98042	0.029956
4920.05174	0.030126
4918.12307	0.030131
4916.19439	0.030091
4914.26572	0.030201
4912.33704	0.030325
4910.40836	0.030305
4908.47969	0.030300
4906.55101	0.030455
4904.62234	0.030582
4902.69366	0.030547
4900.76499	0.030553
4898.83631	0.030731
4896.90763	0.030860
4894.97896	0.030817
4893.05028	0.030820
4891.12161	0.030975
4889.19293	0.031062
4887.26426	0.031004
4885.33558	0.031032
4883.40690	0.031220
4881.47823	0.031321
4879.54955	0.031250
4877.62088	0.031257
4875.69220	0.031426
4873.76353	0.031511
4871.83485	0.031459
4869.90617	0.031512
4867.97750	0.031696
4866.04882	0.031753
4864.12015	0.031657
4862.19147	0.031674
4860.26280	0.031855
4858.33412	0.031945
4856.40544	0.031910
4854.47677	0.031990
4852.54809	0.032174
4850.61942	0.032228
4848.69074	0.032199
4846.76207	0.032299
4844.83339	0.032450
4842.90471	0.032452
4840.97604	0.032410
4839.04736	0.032525
4837.11869	0.032689
4835.19001	0.032705
4833.26134	0.032665
4831.33266	0.032759
4829.40398	0.032910
4827.47531	0.032923
4825.54663	0.032888
4823.61796	0.033011
4821.68928	0.033155
4819.76061	0.033127
4817.83193	0.033110
4815.90325	0.033271
4813.97458	0.033407
4812.04590	0.033369
4810.11723	0.033360
4808.18855	0.033526
4806.25988	0.033677
4804.33120	0.033645
4802.40252	0.033602
4800.47385	0.033746
4798.54517	0.033902
4796.61650	0.033876
4794.68782	0.033866
4792.75915	0.034026
4790.83047	0.034151
4788.90179	0.034115
4786.97312	0.034121
4785.04444	0.034275
4783.11577	0.034380
4781.18709	0.034341
4779.25842	0.034359
4777.32974	0.034514
4775.40106	0.034598
4773.47239	0.034544
4771.54371	0.034590
4769.61504	0.034798
4767.68636	0.034912
4765.75769	0.034864
4763.82901	0.034895
4761.90033	0.035052
4759.97166	0.035110
4758.04298	0.035063
4756.11431	0.035142
4754.18563	0.035326
4752.25696	0.035382
4750.32828	0.035344
4748.39960	0.035442
4746.47093	0.035644
4744.54225	0.035722
4742.61358	0.035678
4740.68490	0.035731
4738.75623	0.035872
4736.82755	0.035884
4734.89887	0.035813
4732.97020	0.035912
4731.04152	0.036114
4729.11285	0.036160
4727.18417	0.036130
4725.25550	0.036258
4723.32682	0.036442
4721.39814	0.036464
4719.46947	0.036424
4717.54079	0.036537
4715.61212	0.036703
4713.68344	0.036736
4711.75477	0.036748
4709.82609	0.036892
4707.89741	0.037032
4705.96874	0.037008
4704.04006	0.036970
4702.11139	0.037120
4700.18271	0.037300
4698.25404	0.037284
4696.32536	0.037237
4694.39668	0.037363
4692.46801	0.037483
4690.53933	0.037451
4688.61066	0.037490
4686.68198	0.037700
4684.75331	0.037834
4682.82463	0.037807
4680.89595	0.037858
4678.96728	0.038056
4677.03860	0.038168
4675.10993	0.038130
4673.18125	0.038164
4671.25258	0.038335
4669.32390	0.038430
4667.39522	0.038391
4665.46655	0.038431
4663.53787	0.038607
4661.60920	0.038695
4659.68052	0.038644
4657.75185	0.038689
4655.82317	0.038874
4653.89449	0.038958
4651.96582	0.038914
4650.03714	0.038977
4648.10847	0.039170
4646.17979	0.039268
4644.25112	0.039253
4642.32244	0.039336
4640.39376	0.039508
4638.46509	0.039550
4636.53641	0.039507
4634.60774	0.039621
4632.67906	0.039835
4630.75039	0.039907
4628.82171	0.039878
4626.89303	0.039964
4624.96436	0.040125
4623.03568	0.040168
4621.10701	0.040152
4619.17833	0.040271
4617.24966	0.040433
4615.32098	0.040444
4613.39230	0.040416
4611.46363	0.040549
4609.53495	0.040740
4607.60628	0.040773
4605.67760	0.040754
4603.74893	0.040905
4601.82025	0.041090
4599.89157	0.041098
4597.96290	0.041071
4596.03422	0.041204
4594.10555	0.041352
4592.17687	0.041361
4590.24820	0.041399
4588.31952	0.041596
4586.39084	0.041737
4584.46217	0.041687
4582.53349	0.041687
4580.60482	0.041866
4578.67614	0.042000
4576.74747	0.041985
4574.81879	0.042036
4572.89011	0.042237
4570.96144	0.042348
4569.03276	0.042293
4567.10409	0.042320
4565.17541	0.042507
4563.24674	0.042638
4561.31806	0.042643
4559.38938	0.042714
4557.46071	0.042897
4555.53203	0.042994
4553.60336	0.042993
4551.67468	0.043103
4549.74601	0.043309
4547.81733	0.043373
4545.88865	0.043296
4543.95998	0.043342
4542.03130	0.043549
4540.10263	0.043674
4538.17395	0.043666
4536.24528	0.043742
4534.31660	0.043930
4532.38792	0.044017
4530.45925	0.044006
4528.53057	0.044110
4526.60190	0.044287
4524.67322	0.044326
4522.74455	0.044290
4520.81587	0.044404
4518.88719	0.044607
4516.95852	0.044687
4515.02984	0.044702
4513.10117	0.044826
4511.17249	0.044998
4509.24382	0.045060
4507.31514	0.045064
4505.38646	0.045168
4503.45779	0.045308
4501.52911	0.045342
4499.60044	0.045364
4497.67176	0.045516
4495.74309	0.045685
4493.81441	0.045725
4491.88573	0.045745
4489.95706	0.045885
4488.02838	0.046022
4486.09971	0.046032
4484.17103	0.046084
4482.24236	0.046315
4480.31368	0.046511
4478.38500	0.046501
4476.45633	0.046477
4474.52765	0.046613
4472.59898	0.046767
4470.67030	0.046800
4468.74163	0.046853
4466.81295	0.047024
4464.88427	0.047157
4462.95560	0.047162
4461.02692	0.047196
4459.09825	0.047353
4457.16957	0.047489
4455.24090	0.047534
4453.31222	0.047637
4451.38354	0.047837
4449.45487	0.047943
4447.52619	0.047915
4445.59752	0.047967
4443.66884	0.048147
4441.74017	0.048251
4439.81149	0.048252
4437.88281	0.048371
4435.95414	0.048609
4434.02546	0.048709
4432.09679	0.048661
4430.16811	0.048724
4428.23944	0.048933
4426.31076	0.049057
4424.38208	0.049057
4422.45341	0.049137
4420.52473	0.049315
4418.59606	0.049417
4416.66738	0.049462
4414.73871	0.049600
4412.81003	0.049771
4410.88135	0.049811
4408.95268	0.049799
4407.02400	0.049918
4405.09533	0.050104
4403.16665	0.050185
4401.23798	0.050221
4399.30930	0.050376
4397.38062	0.050565
4395.45195	0.050618
4393.52327	0.050630
4391.59460	0.050767
4389.66592	0.050941
4387.73725	0.050997
4385.80857	0.051010
4383.87989	0.051152
4381.95122	0.051360
4380.02254	0.051451
4378.09387	0.051487
4376.16519	0.051634
4374.23652	0.051806
4372.30784	0.051859
4370.37916	0.051913
4368.45049	0.052072
4366.52181	0.052190
4364.59314	0.052183
4362.66446	0.052218
4360.73579	0.052409
4358.80711	0.052599
4356.87843	0.052670
4354.94976	0.052764
4353.02108	0.052951
4351.09241	0.053077
4349.16373	0.053101
4347.23506	0.053176
4345.30638	0.053338
4343.37770	0.053455
4341.44903	0.053500
4339.52035	0.053610
4337.59168	0.053803
4335.66300	0.053929
4333.73433	0.053961
4331.80565	0.054052
4329.87697	0.054226
4327.94830	0.054321
4326.01962	0.054335
4324.09095	0.054445
4322.16227	0.054640
4320.23360	0.054738
4318.30492	0.054763
4316.37624	0.054894
4314.44757	0.055109
4312.51889	0.055230
4310.59022	0.055264
4308.66154	0.055377
4306.73287	0.055572
4304.80419	0.055701
4302.87551	0.055768
4300.94684	0.055906
4299.01816	0.056090
4297.08949	0.056184
4295.16081	0.056226
4293.23214	0.056369
4291.30346	0.056566
4289.37478	0.056677
4287.44611	0.056756
4285.51743	0.056922
4283.58876	0.057094
4281.66008	0.057164
4279.73141	0.057234
4277.80273	0.057397
4275.87405	0.057542
4273.94538	0.057588
4272.01670	0.057659
4270.08803	0.057833
4268.15935	0.057999
4266.23068	0.058075
4264.30200	0.058160
4262.37332	0.058329
4260.44465	0.058469
4258.51597	0.058511
4256.58730	0.058593
4254.65862	0.058789
4252.72995	0.058966
4250.80127	0.059051
4248.87259	0.059148
4246.94392	0.059305
4245.01524	0.059439
4243.08657	0.059517
4241.15789	0.059621
4239.22922	0.059786
4237.30054	0.059915
4235.37186	0.059977
4233.44319	0.060079
4231.51451	0.060259
4229.58584	0.060400
4227.65716	0.060466
4225.72849	0.060565
4223.79981	0.060726
4221.87113	0.060869
4219.94246	0.060978
4218.01378	0.061113
4216.08511	0.061271
4214.15643	0.061376
4212.22776	0.061450
4210.29908	0.061580
4208.37040	0.061743
4206.44173	0.061848
4204.51305	0.061916
4202.58438	0.062067
4200.65570	0.062304
4198.72703	0.062481
4196.79835	0.062558
4194.86968	0.062654
4192.94100	0.062808
4191.01232	0.062936
4189.08365	0.063042
4187.15497	0.063209
4185.22630	0.063393
4183.29762	0.063479
4181.36895	0.063530
4179.44027	0.063680
4177.51159	0.063875
4175.58292	0.064001
4173.65424	0.064104
4171.72557	0.064254
4169.79689	0.064396
4167.86822	0.064480
4165.93954	0.064584
4164.01086	0.064774
4162.08219	0.064971
4160.15351	0.065094
4158.22484	0.065196
4156.29616	0.065354
4154.36749	0.065538
4152.43881	0.065668
4150.51013	0.065762
4148.58146	0.065893
4146.65278	0.066043
4144.72411	0.066164
4142.79543	0.066294
4140.86676	0.066472
4138.93808	0.066637
4137.00940	0.066740
4135.08073	0.066829
4133.15205	0.066979
4131.22338	0.067178
4129.29470	0.067348
4127.36603	0.067478
4125.43735	0.067611
4123.50867	0.067730
4121.58000	0.067816
4119.65132	0.067940
4117.72265	0.068140
4115.79397	0.068318
4113.86530	0.068423
4111.93662	0.068550
4110.00794	0.068731
4108.07927	0.068873
4106.15059	0.068966
4104.22192	0.069106
4102.29324	0.069285
4100.36457	0.069422
4098.43589	0.069544
4096.50721	0.069725
4094.57854	0.069926
4092.64986	0.070056
4090.72119	0.070150
4088.79251	0.070289
4086.86384	0.070452
4084.93516	0.070583
4083.00648	0.070707
4081.07781	0.070870
4079.14913	0.071043
4077.22046	0.071176
4075.29178	0.071297
4073.36311	0.071469
4071.43443	0.071650
4069.50575	0.071756
4067.57708	0.071845
4065.64840	0.072018
4063.71973	0.072235
4061.79105	0.072409
4059.86238	0.072552
4057.93370	0.072712
4056.00502	0.072875
4054.07635	0.073024
4052.14767	0.073182
4050.21900	0.073350
4048.29032	0.073491
4046.36165	0.073620
4044.43297	0.073792
4042.50429	0.073990
4040.57562	0.074149
4038.64694	0.074265
4036.71827	0.074386
4034.78959	0.074538
4032.86092	0.074703
4030.93224	0.074867
4029.00356	0.075018
4027.07489	0.075151
4025.14621	0.075287
4023.21754	0.075443
4021.28886	0.075602
4019.36019	0.075752
4017.43151	0.075901
4015.50283	0.076067
4013.57416	0.076255
4011.64548	0.076429
4009.71681	0.076558
4007.78813	0.076667
4005.85946	0.076811
4003.93078	0.077011
4002.00210	0.077208
4000.07343	0.077355
3998.14475	0.077500
3996.21608	0.077672
3994.28740	0.077833
3992.35873	0.077974
3990.43005	0.078131
3988.50137	0.078303
3986.57270	0.078473
3984.64402	0.078644
3982.71535	0.078833
3980.78667	0.079024
3978.85800	0.079179
3976.92932	0.079288
3975.00064	0.079389
3973.07197	0.079534
3971.14329	0.079717
3969.21462	0.079901
3967.28594	0.080079
3965.35727	0.080235
3963.42859	0.080364
3961.49991	0.080523
3959.57124	0.080724
3957.64256	0.080905
3955.71389	0.081060
3953.78521	0.081211
3951.85654	0.081337
3949.92786	0.081442
3947.99918	0.081588
3946.07051	0.081764
3944.14183	0.081919
3942.21316	0.082084
3940.28448	0.082281
3938.35581	0.082490
3936.42713	0.082672
3934.49845	0.082770
3932.56978	0.082868
3930.64110	0.083066
3928.71243	0.083285
3926.78375	0.083445
3924.85508	0.083598
3922.92640	0.083761
3920.99772	0.083868
3919.06905	0.083950
3917.14037	0.084140
3915.21170	0.084443
3913.28302	0.084717
3911.35435	0.084910
3909.42567	0.085049
3907.49699	0.085073
3905.56832	0.084990
3903.63964	0.084967
3901.71097	0.085122
3899.78229	0.085439
3897.85362	0.085825
3895.92494	0.086141
3893.99626	0.086285
3892.06759	0.086365
3890.13891	0.086546
3888.21024	0.086699
3886.28156	0.086797
3884.35289	0.086994
3882.42421	0.087148
3880.49553	0.087267
3878.56686	0.087568
3876.63818	0.087870
3874.70951	0.088014
3872.78083	0.088103
3870.85216	0.088187
3868.92348	0.088325
3866.99480	0.088478
3865.06613	0.088620
3863.13745	0.088884
3861.20878	0.089223
3859.28010	0.089436
3857.35143	0.089349
3855.42275	0.089029
3853.49407	0.089006
3851.56540	0.089550
3849.63672	0.090251
3847.70805	0.090734
3845.77937	0.090926
3843.85070	0.090944
3841.92202	0.090973
3839.99334	0.091022
3838.06467	0.091109
3836.13599	0.091357
3834.20732	0.091727
3832.27864	0.092072
3830.34997	0.092321
3828.42129	0.092476
3826.49261	0.092634
3824.56394	0.092756
3822.63526	0.092722
3820.70659	0.092770
3818.77791	0.093013
3816.84924	0.093268
3814.92056	0.093606
3812.99188	0.094041
3811.06321	0.094353
3809.13453	0.094442
3807.20586	0.094456
3805.27718	0.094544
3803.34851	0.094607
3801.41983	0.094723
3799.49115	0.095034
3797.56248	0.095388
3795.63380	0.095744
3793.70513	0.096088
3791.77645	0.096292
3789.84778	0.096451
3787.91910	0.096668
3785.99042	0.096854
3784.06175	0.096982
3782.13307	0.097102
3780.20440	0.097257
3778.27572	0.097479
3776.34705	0.097715
3774.41837	0.097894
3772.48969	0.097994
3770.56102	0.098073
3768.63234	0.098232
3766.70367	0.098475
3764.77499	0.098749
3762.84632	0.098904
3760.91764	0.098893
3758.98896	0.099012
3757.06029	0.099311
3755.13161	0.099384
3753.20294	0.099134
3751.27426	0.099043
3749.34559	0.099343
3747.41691	0.099478
3745.48823	0.099325
3743.55956	0.099675
3741.63088	0.100477
3739.70221	0.100826
3737.77353	0.100686
3735.84486	0.100704
3733.91618	0.101085
3731.98750	0.101575
3730.05883	0.101961
3728.13015	0.102189
3726.20148	0.102333
3724.27280	0.102484
3722.34413	0.102683
3720.41545	0.103003
3718.48677	0.103382
3716.55810	0.103589
3714.62942	0.103540
3712.70075	0.103479
3710.77207	0.103681
3708.84340	0.104059
3706.91472	0.104428
3704.98604	0.104700
3703.05737	0.104851
3701.12869	0.104997
3699.20002	0.105239
3697.27134	0.105548
3695.34267	0.105785
3693.41399	0.105785
3691.48531	0.105625
3689.55664	0.105655
3687.62796	0.106051
3685.69929	0.106563
3683.77061	0.106927
3681.84194	0.107129
3679.91326	0.107152
3677.98458	0.106952
3676.05591	0.106838
3674.12723	0.107120
3672.19856	0.107435
3670.26988	0.107568
3668.34121	0.107917
3666.41253	0.108490
3664.48385	0.108895
3662.55518	0.109053
3660.62650	0.109147
3658.69783	0.109230
3656.76915	0.109285
3654.84048	0.109330
3652.91180	0.109248
3650.98312	0.109045
3649.05445	0.108975
3647.12577	0.109273
3645.19710	0.109897
3643.26842	0.110495
3641.33975	0.110832
3639.41107	0.111010
3637.48239	0.111184
3635.55372	0.111373
3633.62504	0.111434
3631.69637	0.111212
3629.76769	0.111029
3627.83902	0.111407
3625.91034	0.112054
3623.98166	0.112358
3622.05299	0.112358
3620.12431	0.112354
3618.19564	0.112462
3616.26696	0.112607
3614.33829	0.112761
3612.40961	0.112944
3610.48093	0.113029
3608.55226	0.113122
3606.62358	0.113472
3604.69491	0.113864
3602.76623	0.113970
3600.83756	0.113967
3598.90888	0.114146
3596.98020	0.114386
3595.05153	0.114511
3593.12285	0.114632
3591.19418	0.114770
3589.26550	0.114790
3587.33683	0.114825
3585.40815	0.115088
3583.47947	0.115486
3581.55080	0.115792
3579.62212	0.115911
3577.69345	0.115984
3575.76477	0.116190
3573.83610	0.116423
3571.90742	0.116450
3569.97874	0.116304
3568.05007	0.116302
3566.12139	0.116590
3564.19272	0.116930
3562.26404	0.117195
3560.33537	0.117482
3558.40669	0.117709
3556.47801	0.117763
3554.54934	0.117788
3552.62066	0.117967
3550.69199	0.118189
3548.76331	0.118241
3546.83464	0.118259
3544.90596	0.118469
3542.97728	0.118715
3541.04861	0.118804
3539.11993	0.118881
3537.19126	0.119085
3535.26258	0.119268
3533.33391	0.119290
3531.40523	0.119272
3529.47655	0.119370
3527.54788	0.119487
3525.61920	0.119502
3523.69053	0.119577
3521.76185	0.119804
3519.83318	0.119958
3517.90450	0.119965
3515.97582	0.120049
3514.04715	0.120240
3512.11847	0.120297
3510.18980	0.120220
3508.26112	0.120274
3506.33245	0.120451
3504.40377	0.120501
3502.47509	0.120452
3500.54642	0.120519
3498.61774	0.120670
3496.68907	0.120705
3494.76039	0.120653
3492.83172	0.120734
3490.90304	0.120926
3488.97436	0.120978
3487.04569	0.120900
3485.11701	0.120941
3483.18834	0.121112
3481.25966	0.121237
3479.33099	0.121295
3477.40231	0.121427
3475.47363	0.121643
3473.54496	0.121787
3471.61628	0.121876
3469.68761	0.122105
3467.75893	0.122435
3465.83026	0.122644
3463.90158	0.122753
3461.97290	0.122971
3460.04423	0.123274
3458.11555	0.123455
3456.18688	0.123544
3454.25820	0.123742
3452.32953	0.124015
3450.40085	0.124151
3448.47217	0.124225
3446.54350	0.124495
3444.61482	0.124857
3442.68615	0.125058
3440.75747	0.125222
3438.82880	0.125564
3436.90012	0.125975
3434.97144	0.126303
3433.04277	0.126662
3431.11409	0.127185
3429.18542	0.127722
3427.25674	0.128087
3425.32807	0.128417
3423.39939	0.128902
3421.47071	0.129381
3419.54204	0.129658
3417.61336	0.129892
3415.68469	0.130281
3413.75601	0.130699
3411.82734	0.130994
3409.89866	0.131293
3407.96998	0.131685
3406.04131	0.131996
3404.11263	0.132139
3402.18396	0.132334
3400.25528	0.132705
3398.32661	0.133039
3396.39793	0.133221
3394.46925	0.133462
3392.54058	0.133873
3390.61190	0.134249
3388.68323	0.134458
3386.75455	0.134694
3384.82588	0.135050
3382.89720	0.135320
3380.96852	0.135466
3379.03985	0.135734
3377.11117	0.136152
3375.18250	0.136460
3373.25382	0.136604
3371.32515	0.136808
3369.39647	0.137128
3367.46779	0.137359
3365.53912	0.137476
3363.61044	0.137729
3361.68177	0.138145
3359.75309	0.138445
3357.82442	0.138564
3355.89574	0.138768
3353.96706	0.139124
3352.03839	0.139400
3350.10971	0.139581
3348.18104	0.139870
3346.25236	0.140243
3344.32369	0.140493
3342.39501	0.140635
3340.46633	0.140859
3338.53766	0.141158
3336.60898	0.141369
3334.68031	0.141543
3332.75163	0.141864
3330.82296	0.142254
3328.89428	0.142505
3326.96560	0.142674
3325.03693	0.142953
3323.10825	0.143286
3321.17958	0.143480
3319.25090	0.143631
3317.32223	0.143963
3315.39355	0.144355
3313.46487	0.144556
3311.53620	0.144664
3309.60752	0.144933
3307.67885	0.145304
3305.75017	0.145545
3303.82150	0.145743
3301.89282	0.146106
3299.96414	0.146480
3298.03547	0.146662
3296.10679	0.146828
3294.17812	0.147183
3292.24944	0.147561
3290.32077	0.147763
3288.39209	0.147959
3286.46341	0.148337
3284.53474	0.148716
3282.60606	0.148922
3280.67739	0.149126
3278.74871	0.149492
3276.82004	0.149865
3274.89136	0.150086
3272.96268	0.150327
3271.03401	0.150727
3269.10533	0.151073
3267.17666	0.151223
3265.24798	0.151407
3263.31931	0.151784
3261.39063	0.152136
3259.46195	0.152315
3257.53328	0.152535
3255.60460	0.152918
3253.67593	0.153252
3251.74725	0.153421
3249.81858	0.153639
3247.88990	0.154016
3245.96122	0.154327
3244.03255	0.154485
3242.10387	0.154744
3240.17520	0.155172
3238.24652	0.155494
3236.31785	0.155647
3234.38917	0.155888
3232.46049	0.156261
3230.53182	0.156528
3228.60314	0.156682
3226.67447	0.156977
3224.74579	0.157377
3222.81712	0.157620
3220.88844	0.157760
3218.95976	0.158054
3217.03109	0.158467
3215.10241	0.158750
3213.17374	0.158916
3211.24506	0.159202
3209.31639	0.159575
3207.38771	0.159793
3205.45903	0.159930
3203.53036	0.160248
3201.60168	0.160666
3199.67301	0.160918
3197.74433	0.161089
3195.81566	0.161442
3193.88698	0.161894
3191.95830	0.162185
3190.02963	0.162391
3188.10095	0.162736
3186.17228	0.163123
3184.24360	0.163348
3182.31493	0.163543
3180.38625	0.163906
3178.45757	0.164294
3176.52890	0.164514
3174.60022	0.164704
3172.67155	0.165049
3170.74287	0.165403
3168.81420	0.165596
3166.88552	0.165797
3164.95684	0.166187
3163.02817	0.166598
3161.09949	0.166811
3159.17082	0.166987
3157.24214	0.167348
3155.31347	0.167732
3153.38479	0.167919
3151.45611	0.168089
3149.52744	0.168465
3147.59876	0.168842
3145.67009	0.168989
3143.74141	0.169132
3141.81274	0.169497
3139.88406	0.169863
3137.95538	0.170038
3136.02671	0.170249
3134.09803	0.170643
3132.16936	0.170973
3130.24068	0.171119
3128.31201	0.171339
3126.38333	0.171749
3124.45465	0.172070
3122.52598	0.172185
3120.59730	0.172396
3118.66863	0.172828
3116.73995	0.173174
3114.81128	0.173310
3112.88260	0.173530
3110.95392	0.173934
3109.02525	0.174244
3107.09657	0.174398
3105.16790	0.174655
3103.23922	0.175053
3101.31055	0.175312
3099.38187	0.175397
3097.45319	0.175595
3095.52452	0.175965
3093.59584	0.176249
3091.66717	0.176415
3089.73849	0.176711
3087.80982	0.177122
3085.88114	0.177354
3083.95246	0.177419
3082.02379	0.177620
3080.09511	0.177974
3078.16644	0.178210
3076.23776	0.178342
3074.30909	0.178634
3072.38041	0.179016
3070.45173	0.179184
3068.52306	0.179241
3066.59438	0.179516
3064.66571	0.179919
3062.73703	0.180141
3060.80836	0.180256
3058.87968	0.180527
3056.95100	0.180856
3055.02233	0.181009
3053.09365	0.181152
3051.16498	0.181505
3049.23630	0.181857
3047.30763	0.181942
3045.37895	0.181955
3043.45027	0.182200
3041.52160	0.182545
3039.59292	0.182706
3037.66425	0.182792
3035.73557	0.183042
3033.80690	0.183325
3031.87822	0.183424
3029.94954	0.183516
3028.02087	0.183832
3026.09219	0.184161
3024.16352	0.184237
3022.23484	0.184264
3020.30617	0.184514
3018.37749	0.184802
3016.44881	0.184876
3014.52014	0.184931
3012.59146	0.185212
3010.66279	0.185507
3008.73411	0.185593
3006.80544	0.185696
3004.87676	0.185991
3002.94808	0.186242
3001.01941	0.186303
2999.09073	0.186392
2997.16206	0.186643
2995.23338	0.186855
2993.30471	0.186909
2991.37603	0.187002
2989.44735	0.187226
2987.51868	0.187347
2985.59000	0.187265
2983.66133	0.187241
2981.73265	0.187400
2979.80398	0.187448
2977.87530	0.187257
2975.94662	0.187132
2974.01795	0.187143
2972.08927	0.186968
2970.16060	0.186595
2968.23192	0.186393
2966.30325	0.186449
2964.37457	0.186474
2962.44589	0.186392
2960.51722	0.186455
2958.58854	0.186719
2956.65987	0.186931
2954.73119	0.187066
2952.80252	0.187380
2950.87384	0.187825
2948.94516	0.188047
2947.01649	0.188050
2945.08781	0.188124
2943.15914	0.188242
2941.23046	0.188165
2939.30179	0.187920
2937.37311	0.187762
2935.44443	0.187680
2933.51576	0.187435
2931.58708	0.187105
2929.65841	0.186972
2927.72973	0.186967
2925.80106	0.186829
2923.87238	0.186676
2921.94370	0.186801
2920.01503	0.187101
2918.08635	0.187374
2916.15768	0.187898
2914.22900	0.188984
2912.30033	0.190283
2910.37165	0.191275
2908.44297	0.192036
2906.51430	0.192874
2904.58562	0.193667
2902.65695	0.194185
2900.72827	0.194630
2898.79960	0.195273
2896.87092	0.195933
2894.94224	0.196386
2893.01357	0.196825
2891.08489	0.197459
2889.15622	0.198062
2887.22754	0.198409
2885.29887	0.198744
2883.37019	0.199289
2881.44151	0.199800
2879.51284	0.200051
2877.58416	0.200264
2875.65549	0.200662
2873.72681	0.201071
2871.79814	0.201329
2869.86946	0.201607
2867.94078	0.202021
2866.01211	0.202376
2864.08343	0.202529
2862.15476	0.202675
2860.22608	0.202977
2858.29741	0.203215
2856.36873	0.203204
2854.44005	0.203191
2852.51138	0.203412
2850.58270	0.203820
2848.65403	0.204488
2846.72535	0.205633
2844.79668	0.207056
2842.86800	0.208232
2840.93932	0.209043
2839.01065	0.209798
2837.08197	0.210597
2835.15330	0.211196
2833.22462	0.211570
2831.29595	0.212052
2829.36727	0.212726
2827.43859	0.213306
2825.50992	0.213715
2823.58124	0.214207
2821.65257	0.214837
2819.72389	0.215329
2817.79522	0.215637
2815.86654	0.216052
2813.93786	0.216627
2812.00919	0.217081
2810.08051	0.217385
2808.15184	0.217818
2806.22316	0.218345
2804.29449	0.218691
2802.36581	0.218946
2800.43713	0.219380
2798.50846	0.219868
2796.57978	0.220144
2794.65111	0.220327
2792.72243	0.220738
2790.79376	0.221309
2788.86508	0.221683
2786.93640	0.221905
2785.00773	0.222302
2783.07905	0.222820
2781.15038	0.223185
2779.22170	0.223471
2777.29303	0.223889
2775.36435	0.224276
2773.43567	0.224423
2771.50700	0.224588
2769.57832	0.225039
2767.64965	0.225518
2765.72097	0.225738
2763.79230	0.225900
2761.86362	0.226270
2759.93494	0.226704
2758.00627	0.226954
2756.07759	0.227153
2754.14892	0.227562
2752.22024	0.228009
2750.29157	0.228203
2748.36289	0.228335
2746.43421	0.228707
2744.50554	0.229124
2742.57686	0.229306
2740.64819	0.229470
2738.71951	0.229852
2736.79084	0.230199
2734.86216	0.230308
2732.93348	0.230470
2731.00481	0.230909
2729.07613	0.231341
2727.14746	0.231528
2725.21878	0.231743
2723.29011	0.232188
2721.36143	0.232559
2719.43275	0.232693
2717.50408	0.232912
2715.57540	0.233358
2713.64673	0.233708
2711.71805	0.233837
2709.78938	0.234046
2707.86070	0.234458
2705.93202	0.234800
2704.00335	0.234958
2702.07467	0.235192
2700.14600	0.235596
2698.21732	0.235875
2696.28865	0.235954
2694.35997	0.236176
2692.43129	0.236636
2690.50262	0.236974
2688.57394	0.237092
2686.64527	0.237343
2684.71659	0.237808
2682.78792	0.238149
2680.85924	0.238277
2678.93056	0.238522
2677.00189	0.238966
2675.07321	0.239266
2673.14454	0.239360
2671.21586	0.239596
2669.28719	0.240027
2667.35851	0.240335
2665.42983	0.240482
2663.50116	0.240771
2661.57248	0.241178
2659.64381	0.241388
2657.71513	0.241483
2655.78646	0.241784
2653.85778	0.242221
2651.92910	0.242500
2650.00043	0.242696
2648.07175	0.243077
2646.14308	0.243529
2644.21440	0.243747
2642.28573	0.243853
2640.35705	0.244186
2638.42837	0.244654
2636.49970	0.244928
2634.57102	0.245086
2632.64235	0.245436
2630.71367	0.245876
2628.78500	0.246117
2626.85632	0.246321
2624.92764	0.246729
2622.99897	0.247153
2621.07029	0.247389
2619.14162	0.247612
2617.21294	0.248010
2615.28427	0.248415
2613.35559	0.248625
2611.42691	0.248819
2609.49824	0.249210
2607.56956	0.249617
2605.64089	0.249853
2603.71221	0.250099
2601.78354	0.250487
2599.85486	0.250814
2597.92618	0.250946
2595.99751	0.251121
2594.06883	0.251538
2592.14016	0.251954
2590.21148	0.252132
2588.28281	0.252311
2586.35413	0.252730
2584.42545	0.253157
2582.49678	0.253365
2580.56810	0.253556
2578.63943	0.253927
2576.71075	0.254281
2574.78208	0.254441
2572.85340	0.254634
2570.92472	0.255048
2568.99605	0.255424
2567.06737	0.255564
2565.13870	0.255736
2563.21002	0.256115
2561.28135	0.256455
2559.35267	0.256624
2557.42399	0.256848
2555.49532	0.257224
2553.56664	0.257529
2551.63797	0.257679
2549.70929	0.257907
2547.78062	0.258273
2545.85194	0.258521
2543.92326	0.258621
2541.99459	0.258875
2540.06591	0.259313
2538.13724	0.259630
2536.20856	0.259770
2534.27989	0.260011
2532.35121	0.260406
2530.42253	0.260685
2528.49386	0.260843
2526.56518	0.261182
2524.63651	0.261660
2522.70783	0.261917
2520.77916	0.261993
2518.85048	0.262235
2516.92181	0.262619
2514.99313	0.262867
2513.06445	0.263048
2511.13578	0.263442
2509.20710	0.263941
2507.27843	0.264228
2505.34975	0.264407
2503.42108	0.264778
2501.49240	0.265237
2499.56372	0.265490
2497.63505	0.265650
2495.70637	0.266031
2493.77770	0.266505
2491.84902	0.266768
2489.92035	0.266963
2487.99167	0.267356
2486.06299	0.267789
2484.13432	0.268013
2482.20564	0.268195
2480.27697	0.268594
2478.34829	0.269063
2476.41962	0.269327
2474.49094	0.269516
2472.56226	0.269909
2470.63359	0.270353
2468.70491	0.270573
2466.77624	0.270721
2464.84756	0.271058
2462.91889	0.271451
2460.99021	0.271666
2459.06153	0.271861
2457.13286	0.272248
2455.20418	0.272639
2453.27551	0.272827
2451.34683	0.273036
2449.41816	0.273475
2447.48948	0.273895
2445.56080	0.274097
2443.63213	0.274310
2441.70345	0.274689
2439.77478	0.275039
2437.84610	0.275237
2435.91743	0.275468
2433.98875	0.275855
2432.06007	0.276195
2430.13140	0.276372
2428.20272	0.276622
2426.27405	0.277043
2424.34537	0.277373
2422.41670	0.277538
2420.48802	0.277776
2418.55934	0.278134
2416.63067	0.278403
2414.70199	0.278576
2412.77332	0.278878
2410.84464	0.279336
2408.91597	0.279673
2406.98729	0.279790
2405.05861	0.279988
2403.12994	0.280395
2401.20126	0.280713
2399.27259	0.280853
2397.34391	0.281116
2395.41524	0.281567
2393.48656	0.281900
2391.55788	0.282042
2389.62921	0.282252
2387.70053	0.282569
2385.77186	0.282800
2383.84318	0.282942
2381.91451	0.283119
2379.98583	0.283275
2378.05715	0.283263
2376.12848	0.283147
2374.19980	0.283144
2372.27113	0.283234
2370.34245	0.283226
2368.41378	0.283206
2366.48510	0.283380
2364.55642	0.283646
2362.62775	0.283769
2360.69907	0.283847
2358.77040	0.284153
2356.84172	0.284651
2354.91305	0.285140
2352.98437	0.285674
2351.05569	0.286390
2349.12702	0.287016
2347.19834	0.287132
2345.26967	0.286930
2343.34099	0.286925
2341.41232	0.287172
2339.48364	0.287442
2337.55496	0.287741
2335.62629	0.288149
2333.69761	0.288507
2331.76894	0.288679
2329.84026	0.288859
2327.91159	0.289249
2325.98291	0.289714
2324.05423	0.290073
2322.12556	0.290420
2320.19688	0.290867
2318.26821	0.291309
2316.33953	0.291671
2314.41086	0.292073
2312.48218	0.292555
2310.55350	0.292945
2308.62483	0.293175
2306.69615	0.293463
2304.76748	0.293959
2302.83880	0.294439
2300.91013	0.294694
2298.98145	0.294910
2297.05277	0.295273
2295.12410	0.295619
2293.19542	0.295832
2291.26675	0.296092
2289.33807	0.296491
2287.40940	0.296834
2285.48072	0.297009
2283.55204	0.297212
2281.62337	0.297583
2279.69469	0.297936
2277.76602	0.298133
2275.83734	0.298337
2273.90867	0.298653
2271.97999	0.298932
2270.05131	0.299087
2268.12264	0.299285
2266.19396	0.299618
2264.26529	0.299912
2262.33661	0.300117
2260.40794	0.300427
2258.47926	0.300861
2256.55058	0.301160
2254.62191	0.301272
2252.69323	0.301479
2250.76456	0.301871
2248.83588	0.302204
2246.90721	0.302379
2244.97853	0.302569
2243.04985	0.302851
2241.12118	0.303114
2239.19250	0.303363
2237.26383	0.303677
2235.33515	0.303987
2233.40648	0.304197
2231.47780	0.304359
2229.54912	0.304608
2227.62045	0.304927
2225.69177	0.305155
2223.76310	0.305317
2221.83442	0.305562
2219.90575	0.305844
2217.97707	0.306040
2216.04839	0.306222
2214.11972	0.306532
2212.19104	0.306902
2210.26237	0.307150
2208.33369	0.307296
2206.40502	0.307543
2204.47634	0.307892
2202.54766	0.308135
2200.61899	0.308270
2198.69031	0.308472
2196.76164	0.308758
2194.83296	0.308998
2192.90429	0.309176
2190.97561	0.309413
2189.04693	0.309704
2187.11826	0.309914
2185.18958	0.310096
2183.26091	0.310401
2181.33223	0.310727
2179.40356	0.310917
2177.47488	0.311068
2175.54620	0.311319
2173.61753	0.311595
2171.68885	0.311781
2169.76018	0.311974
2167.83150	0.312300
2165.90283	0.312640
2163.97415	0.312853
2162.04547	0.313033
2160.11680	0.313311
2158.18812	0.313606
2156.25945	0.313809
2154.33077	0.314007
2152.40210	0.314282
2150.47342	0.314518
2148.54474	0.314659
2146.61607	0.314848
2144.68739	0.315164
2142.75872	0.315505
2140.83004	0.315781
2138.90137	0.316028
2136.97269	0.316297
2135.04401	0.316509
2133.11534	0.316609
2131.18666	0.316747
2129.25799	0.317016
2127.32931	0.317268
2125.40064	0.317410
2123.47196	0.317590
2121.54328	0.317884
2119.61461	0.318140
2117.68593	0.318293
2115.75726	0.318489
2113.82858	0.318795
2111.89991	0.319061
2109.97123	0.319181
2108.04255	0.319308
2106.11388	0.319592
2104.18520	0.319919
2102.25653	0.320147
2100.32785	0.320365
2098.39918	0.320658
2096.47050	0.320914
2094.54182	0.321080
2092.61315	0.321273
2090.68447	0.321552
2088.75580	0.321803
2086.82712	0.321990
2084.89845	0.322214
2082.96977	0.322486
2081.04109	0.322731
2079.11242	0.322973
2077.18374	0.323295
2075.25507	0.323633
2073.32639	0.323833
2071.39772	0.323939
2069.46904	0.324140
2067.54036	0.324408
2065.61169	0.324607
2063.68301	0.324810
2061.75434	0.325129
2059.82566	0.325458
2057.89699	0.325637
2055.96831	0.325739
2054.03963	0.325967
2052.11096	0.326288
2050.18228	0.326525
2048.25361	0.326722
2046.32493	0.326988
2044.39626	0.327225
2042.46758	0.327343
2040.53890	0.327488
2038.61023	0.327768
2036.68155	0.328043
2034.75288	0.328213
2032.82420	0.328401
2030.89553	0.328702
2028.96685	0.329034
2027.03817	0.329247
2025.10950	0.329355
2023.18082	0.329570
2021.25215	0.329870
2019.32347	0.330025
2017.39480	0.330173
2015.46612	0.330519
2013.53744	0.330881
2011.60877	0.331068
2009.68009	0.331204
2007.75142	0.331461
2005.82274	0.331764
2003.89407	0.331953
2001.96539	0.332096
2000.03671	0.332321
1998.10804	0.332551
1996.17936	0.332654
1994.25069	0.332683
1992.32201	0.332823
1990.39334	0.333103
1988.46466	0.333366
1986.53598	0.333641
1984.60731	0.334005
1982.67863	0.334265
1980.74996	0.334311
1978.82128	0.334375
1976.89261	0.334623
1974.96393	0.334882
1973.03525	0.335013
1971.10658	0.335131
1969.17790	0.335321
1967.24923	0.335534
1965.32055	0.335756
1963.39188	0.336025
1961.46320	0.336312
1959.53452	0.336505
1957.60585	0.336588
1955.67717	0.336709
1953.74850	0.336961
1951.81982	0.337229
1949.89115	0.337405
1947.96247	0.337566
1946.03379	0.337686
1944.10512	0.337642
1942.17644	0.337711
1940.24777	0.338183
1938.31909	0.338744
1936.39042	0.339009
1934.46174	0.339049
1932.53306	0.339139
1930.60439	0.339394
1928.67571	0.339682
1926.74704	0.339842
1924.81836	0.339891
1922.88969	0.339989
1920.96101	0.340115
1919.03233	0.340205
1917.10366	0.340511
1915.17498	0.341039
1913.24631	0.341367
1911.31763	0.341421
1909.38896	0.341531
1907.46028	0.341835
1905.53160	0.342146
1903.60293	0.342325
1901.67425	0.342502
1899.74558	0.342750
1897.81690	0.342896
1895.88823	0.342923
1893.95955	0.343028
1892.03087	0.343143
1890.10220	0.343203
1888.17352	0.343469
1886.24485	0.343929
1884.31617	0.344276
1882.38750	0.344428
1880.45882	0.344543
1878.53014	0.344760
1876.60147	0.345015
1874.67279	0.345178
1872.74412	0.345199
1870.81544	0.345107
1868.88677	0.345104
1866.95809	0.345356
1865.02941	0.345758
1863.10074	0.346161
1861.17206	0.346483
1859.24339	0.346688
1857.31471	0.346897
1855.38604	0.347215
1853.45736	0.347537
1851.52868	0.347687
1849.60001	0.347658
1847.67133	0.347436
1845.74266	0.347013
1843.81398	0.346998
1841.88531	0.347782
1839.95663	0.348659
1838.02795	0.349068
1836.09928	0.349209
1834.17060	0.349322
1832.24193	0.349353
1830.31325	0.349270
1828.38458	0.349185
1826.45590	0.349187
1824.52722	0.349522
1822.59855	0.350141
1820.66987	0.350534
1818.74120	0.350661
1816.81252	0.350860
1814.88385	0.351088
1812.95517	0.351140
1811.02649	0.351169
1809.09782	0.351375
1807.16914	0.351610
1805.24047	0.351638
1803.31179	0.351505
1801.38312	0.351552
1799.45444	0.351893
1797.52576	0.352209
1795.59709	0.352249
1793.66841	0.352013
1791.73974	0.351848
1789.81106	0.352116
1787.88239	0.352561
1785.95371	0.352839
1784.02503	0.352969
1782.09636	0.352982
1780.16768	0.352981
1778.23901	0.353019
1776.31033	0.352880
1774.38166	0.352493
1772.45298	0.352159
1770.52430	0.352127
1768.59563	0.352424
1766.66695	0.353078
1764.73828	0.353695
1762.80960	0.353822
1760.88093	0.353677
1758.95225	0.353420
1757.02357	0.353219
1755.09490	0.353246
1753.16622	0.352944
1751.23755	0.352187
1749.30887	0.351814
1747.38020	0.352104
1745.45152	0.352421
1743.52284	0.352381
1741.59417	0.352177
1739.66549	0.352041
1737.73682	0.351686
1735.80814	0.350748
1733.87947	0.350162
1731.95079	0.350731
1730.02211	0.351653
1728.09344	0.352345
1726.16476	0.352834
1724.23609	0.353027
1722.30741	0.352756
1720.37874	0.351861
1718.45006	0.351015
1716.52138	0.351115
1714.59271	0.351958
1712.66403	0.352845
1710.73536	0.353362
1708.80668	0.353317
1706.87801	0.352948
1704.94933	0.352742
1703.02065	0.352338
1701.09198	0.351564
1699.16330	0.351203
1697.23463	0.351237
1695.30595	0.351647
1693.37728	0.352627
1691.44860	0.353178
1689.51992	0.352942
1687.59125	0.352263
1685.66257	0.351201
1683.73390	0.350734
1681.80522	0.351447
1679.87655	0.352365
1677.94787	0.352597
1676.01919	0.352333
1674.09052	0.352141
1672.16184	0.351785
1670.23317	0.351214
1668.30449	0.351397
1666.37582	0.352173
1664.44714	0.352418
1662.51846	0.352285
1660.58979	0.352356
1658.66111	0.352354
1656.73244	0.351464
1654.80376	0.349777
1652.87509	0.349160
1650.94641	0.350132
1649.01773	0.350621
1647.08906	0.350177
1645.16038	0.350333
1643.23171	0.351143
1641.30303	0.351611
1639.37436	0.351325
1637.44568	0.350448
1635.51700	0.349977
1633.58833	0.350607
1631.65965	0.351335
1629.73098	0.351282
1627.80230	0.350835
1625.87363	0.350141
1623.94495	0.349226
1622.01627	0.348664
1620.08760	0.348598
1618.15892	0.348937
1616.23025	0.349939
1614.30157	0.351333
1612.37290	0.352401
1610.44422	0.352978
1608.51554	0.353369
1606.58687	0.353742
1604.65819	0.354048
1602.72952	0.354341
1600.80084	0.354709
1598.87217	0.355009
1596.94349	0.355166
1595.01481	0.355355
1593.08614	0.355604
1591.15746	0.355832
1589.22879	0.356122
1587.30011	0.356450
1585.37144	0.356666
1583.44276	0.356836
1581.51408	0.357069
1579.58541	0.357151
1577.65673	0.356974
1575.72806	0.357037
1573.79938	0.357413
1571.87071	0.357413
1569.94203	0.357207
1568.01335	0.357552
1566.08468	0.358204
1564.15600	0.358527
1562.22733	0.357961
1560.29865	0.356565
1558.36998	0.356012
1556.44130	0.357075
1554.51262	0.358379
1552.58395	0.359102
1550.65527	0.359500
1548.72660	0.359810
1546.79792	0.359820
1544.86925	0.359284
1542.94057	0.358494
1541.01189	0.357936
1539.08322	0.358243
1537.15454	0.359271
1535.22587	0.359902
1533.29719	0.360027
1531.36852	0.360215
1529.43984	0.360262
1527.51116	0.360095
1525.58249	0.359971
1523.65381	0.359486
1521.72514	0.358724
1519.79646	0.358568
1517.86779	0.359035
1515.93911	0.359754
1514.01043	0.360393
1512.08176	0.360395
1510.15308	0.359781
1508.22441	0.359073
1506.29573	0.359056
1504.36706	0.360009
1502.43838	0.360820
1500.50970	0.360690
1498.58103	0.360265
1496.65235	0.360255
1494.72368	0.360366
1492.79500	0.359831
1490.86633	0.358840
1488.93765	0.358381
1487.00897	0.358578
1485.08030	0.358755
1483.15162	0.358604
1481.22295	0.358192
1479.29427	0.357437
1477.36560	0.356288
1475.43692	0.354945
1473.50824	0.353637
1471.57957	0.352733
1469.65089	0.352300
1467.72222	0.351742
1465.79354	0.350912
1463.86487	0.350208
1461.93619	0.349429
1460.00751	0.347999
1458.07884	0.346405
1456.15016	0.345967
1454.22149	0.346657
1452.29281	0.347248
1450.36414	0.347297
1448.43546	0.347232
1446.50678	0.347453
1444.57811	0.347882
1442.64943	0.348279
1440.72076	0.348323
1438.79208	0.347701
1436.86341	0.347415
1434.93473	0.348504
1433.00605	0.349880
1431.07738	0.350514
1429.14870	0.350940
1427.22003	0.351441
1425.29135	0.351795
1423.36268	0.352055
1421.43400	0.352096
1419.50532	0.351964
1417.57665	0.352269
1415.64797	0.352986
1413.71930	0.353530
1411.79062	0.353771
1409.86195	0.353852
1407.93327	0.353865
1406.00459	0.353901
1404.07592	0.353955
1402.14724	0.353757
1400.21857	0.353282
1398.28989	0.352926
1396.36122	0.352716
1394.43254	0.352638
1392.50386	0.352764
1390.57519	0.352453
1388.64651	0.351399
1386.71784	0.350469
1384.78916	0.350219
1382.86049	0.350286
1380.93181	0.350249
1379.00313	0.349979
1377.07446	0.349573
1375.14578	0.349307
1373.21711	0.349362
1371.28843	0.349514
1369.35976	0.349563
1367.43108	0.349657
1365.50240	0.349692
1363.57373	0.349508
1361.64505	0.349471
1359.71638	0.349801
1357.78770	0.350163
1355.85903	0.350346
1353.93035	0.350471
1352.00167	0.350578
1350.07300	0.350634
1348.14432	0.350712
1346.21565	0.350849
1344.28697	0.350943
1342.35830	0.350815
1340.42962	0.350446
1338.50094	0.350156
1336.57227	0.350132
1334.64359	0.350124
1332.71492	0.349947
1330.78624	0.349659
1328.85757	0.349320
1326.92889	0.348966
1325.00021	0.348583
1323.07154	0.348143
1321.14286	0.347678
1319.21419	0.347248
1317.28551	0.346876
1315.35684	0.346544
1313.42816	0.346225
1311.49948	0.345862
1309.57081	0.345376
1307.64213	0.344823
1305.71346	0.344324
1303.78478	0.343842
1301.85611	0.343314
1299.92743	0.342805
1297.99875	0.342375
1296.07008	0.341995
1294.14140	0.341623
1292.21273	0.341245
1290.28405	0.340874
1288.35538	0.340529
1286.42670	0.340194
1284.49802	0.339806
1282.56935	0.339304
1280.64067	0.338701
1278.71200	0.338082
1276.78332	0.337455
1274.85465	0.336671
1272.92597	0.335610
1270.99729	0.334302
1269.06862	0.332740
1267.13994	0.330999
1265.21127	0.329447
1263.28259	0.328351
1261.35392	0.327721
1259.42524	0.327492
1257.49656	0.327495
1255.56789	0.327475
1253.63921	0.327197
1251.71054	0.326654
1249.78186	0.325994
1247.85319	0.325254
1245.92451	0.324437
1243.99583	0.323538
1242.06716	0.322517
1240.13848	0.321406
1238.20981	0.320257
1236.28113	0.319106
1234.35246	0.317988
1232.42378	0.316905
1230.49510	0.315828
1228.56643	0.314739
1226.63775	0.313672
1224.70908	0.312661
1222.78040	0.311653
1220.85173	0.310631
1218.92305	0.309704
1216.99437	0.308826
1215.06570	0.307782
1213.13702	0.306613
1211.20835	0.305570
1209.27967	0.304639
1207.35100	0.303630
1205.42232	0.302515
1203.49364	0.301360
1201.56497	0.300242
1199.63629	0.299172
1197.70762	0.298034
1195.77894	0.296831
1193.85027	0.295662
1191.92159	0.294442
1189.99291	0.293109
1188.06424	0.291793
1186.13556	0.290489
1184.20689	0.289045
1182.27821	0.287478
1180.34954	0.285958
1178.42086	0.284503
1176.49218	0.282981
1174.56351	0.281411
1172.63483	0.279886
1170.70616	0.278347
1168.77748	0.276698
1166.84881	0.274977
1164.92013	0.273283
1162.99145	0.271716
1161.06278	0.270317
1159.13410	0.268958
1157.20543	0.267490
1155.27675	0.265969
1153.34808	0.264523
1151.41940	0.263166
1149.49072	0.261844
1147.56205	0.260492
1145.63337	0.259053
1143.70470	0.257543
1141.77602	0.255979
1139.84735	0.254339
1137.91867	0.252556
1135.98999	0.250532
1134.06132	0.248241
1132.13264	0.245622
1130.20397	0.242571
1128.27529	0.239098
1126.34662	0.235329
1124.41794	0.231401
1122.48926	0.227438
1120.56059	0.223539
1118.63191	0.219755
1116.70324	0.216220
1114.77456	0.213107
1112.84589	0.210418
1110.91721	0.208155
1108.98853	0.206439
1107.05986	0.205276
1105.13118	0.204554
1103.20251	0.204293
1101.27383	0.204580
1099.34516	0.205326
1097.41648	0.206317
1095.48780	0.207427
1093.55913	0.208686
1091.63045	0.210128
1089.70178	0.211610
1087.77310	0.212895
1085.84443	0.213878
1083.91575	0.214620
1081.98707	0.215194
1080.05840	0.215630
1078.12972	0.215946
1076.20105	0.216119
1074.27237	0.216199
1072.34370	0.216349
1070.41502	0.216627
1068.48634	0.216918
1066.55767	0.217187
1064.62899	0.217536
1062.70032	0.217982
1060.77164	0.218386
1058.84297	0.218689
1056.91429	0.218997
1054.98561	0.219402
1053.05694	0.219904
1051.12826	0.220499
1049.19959	0.221124
1047.27091	0.221662
1045.34224	0.222133
1043.41356	0.222668
1041.48488	0.223357
1039.55621	0.224144
1037.62753	0.224838
1035.69886	0.225373
1033.77018	0.225891
1031.84151	0.226465
1029.91283	0.227012
1027.98415	0.227500
1026.05548	0.227971
1024.12680	0.228501
1022.19813	0.229168
1020.26945	0.229886
1018.34078	0.230595
1016.41210	0.231385
1014.48342	0.232269
1012.55475	0.233245
1010.62607	0.234342
1008.69740	0.235501
1006.76872	0.236593
1004.84005	0.237484
1002.91137	0.238142
1000.98269	0.238703
999.05402	0.239299
997.12534	0.239855
995.19667	0.240246
993.26799	0.240537
991.33932	0.240830
989.41064	0.241073
987.48196	0.241224
985.55329	0.241379
983.62461	0.241566
981.69594	0.241662
979.76726	0.241597
977.83859	0.241417
975.90991	0.241193
973.98123	0.241018
972.05256	0.240902
970.12388	0.240729
968.19521	0.240455
966.26653	0.240130
964.33786	0.239835
962.40918	0.239606
960.48050	0.239386
958.55183	0.239176
956.62315	0.238973
954.69448	0.238724
952.76580	0.238464
950.83713	0.238175
948.90845	0.237707
946.97977	0.237086
945.05110	0.236491
943.12242	0.235952
941.19375	0.235348
939.26507	0.234596
937.33640	0.233693
935.40772	0.232638
933.47904	0.231478
931.55037	0.230333
929.62169	0.229202
927.69302	0.228033
925.76434	0.226869
923.83567	0.225689
921.90699	0.224418
919.97831	0.223062
918.04964	0.221649
916.12096	0.220180
914.19229	0.218674
912.26361	0.217151
910.33494	0.215626
908.40626	0.214145
906.47758	0.212780
904.54891	0.211554
902.62023	0.210396
900.69156	0.209245
898.76288	0.208123
896.83421	0.207012
894.90553	0.205905
892.97685	0.204913
891.04818	0.204080
889.11950	0.203291
887.19083	0.202428
885.26215	0.201583
883.33348	0.200871
881.40480	0.200174
879.47612	0.199453
877.54745	0.198855
875.61877	0.198342
873.69010	0.197809
871.76142	0.197304
869.83275	0.196884
867.90407	0.196526
865.97539	0.196186
864.04672	0.195904
862.11804	0.195777
860.18937	0.195760
858.26069	0.195642
856.33202	0.195327
854.40334	0.194872
852.47466	0.194339
850.54599	0.193862
848.61731	0.193527
846.68864	0.193250
844.75996	0.192955
842.83129	0.192648
840.90261	0.192279
838.97394	0.191742
837.04526	0.191030
835.11658	0.190183
833.18791	0.189107
831.25923	0.187665
829.33056	0.185985
827.40188	0.184341
825.47321	0.182852
823.54453	0.181561
821.61585	0.180480
819.68718	0.179597
817.75850	0.178899
815.82983	0.178286
813.90115	0.177697
811.97248	0.177210
810.04380	0.176880
808.11512	0.176685
806.18645	0.176604
804.25777	0.176601
802.32910	0.176515
800.40042	0.176120
798.47175	0.175396
796.54307	0.174579
794.61439	0.173872
792.68572	0.173326
790.75704	0.172943
788.82837	0.172737
786.89969	0.172578
784.97102	0.172275
783.04234	0.171888
781.11366	0.171507
779.18499	0.171142
777.25631	0.170818
775.32764	0.170493
773.39896	0.170108
771.47029	0.169622
769.54161	0.169018
767.61293	0.168346
765.68426	0.167744
763.75558	0.167246
761.82691	0.166675
759.89823	0.165958
757.96956	0.165167
756.04088	0.164312
754.11220	0.163392
752.18353	0.162489
750.25485	0.161597
748.32618	0.160555
746.39750	0.159301
744.46883	0.157958
742.54015	0.156583
740.61147	0.155291
738.68280	0.154446
736.75412	0.154160
734.82545	0.154141
732.89677	0.154186
730.96810	0.154289
729.03942	0.154478
727.11074	0.154719
725.18207	0.154931
723.25339	0.155102
721.32472	0.155352
719.39604	0.155784
717.46737	0.156393
715.53869	0.157182
713.61001	0.157995
711.68134	0.158654
709.75266	0.159190
707.82399	0.159585
705.89531	0.159684
703.96664	0.159405
702.03796	0.158887
700.10928	0.158320
698.18061	0.157669
696.25193	0.156856
694.32326	0.156017
692.39458	0.155253
690.46591	0.154504
688.53723	0.153761
686.60855	0.153043
684.67988	0.152407
682.75120	0.151811
680.82253	0.151036
678.89385	0.150059
676.96518	0.149088
675.03650	0.148193
673.10782	0.147182
671.17915	0.145782
669.25047	0.144130
667.32180	0.142886
665.39312	0.142140
663.46445	0.141178
661.53577	0.139811
659.60709	0.138461
657.67842	0.137331
655.74974	0.136269
653.82107	0.135085
651.89239	0.133783
649.96372	0.132471
648.03504	0.131150
646.10636	0.129711
644.17769	0.128146
642.24901	0.126516
640.32034	0.124838
638.39166	0.123096
636.46299	0.121299
634.53431	0.119378
632.60563	0.116829
630.67696	0.112815
628.74828	0.106693
626.81961	0.098995
624.89093	0.091374
622.96226	0.085288
621.03358	0.081540
619.10490	0.079692
617.17623	0.078382
615.24755	0.076851
613.31888	0.074934
611.39020	0.073050
609.46153	0.072118
607.53285	0.072297
605.60417	0.072990
603.67550	0.073947
601.74682	0.075320
599.81815	0.076957
597.88947	0.078396
595.96080	0.079442
594.03212	0.080202
592.10344	0.080709
590.17477	0.080960
588.24609	0.080993
586.31742	0.080744
584.38874	0.080246
582.46007	0.079605
580.53139	0.078832
578.60271	0.078027
576.67404	0.077250
574.74536	0.076391
572.81669	0.075424
570.88801	0.074384
568.95934	0.073335
567.03066	0.072430
565.10198	0.071772
563.17331	0.071341
561.24463	0.070937
559.31596	0.070370
557.38728	0.069775
555.45861	0.069314
553.52993	0.068942
551.60125	0.068543
549.67258	0.068047
547.74390	0.067554
545.81523	0.067227
543.88655	0.066974
541.95788	0.066605
540.02920	0.066144
538.10052	0.065726
536.17185	0.065408
534.24317	0.065141
532.31450	0.064833
530.38582	0.064414
528.45715	0.063855
526.52847	0.063164
524.59979	0.062445
522.67112	0.061767
520.74244	0.060941
518.81377	0.059784
516.88509	0.058436
514.95642	0.057330
513.02774	0.056833
511.09906	0.056681
509.17039	0.056344
507.24171	0.055863
505.31304	0.055468
503.38436	0.055040
501.45569	0.054466
499.52701	0.053680
497.59833	0.052530
495.66966	0.051219
493.74098	0.050160
491.81231	0.049401
489.88363	0.048665
487.95496	0.047733
486.02628	0.046741
484.09760	0.045915
482.16893	0.045131
480.24025	0.044196
478.31158	0.043184
476.38290	0.042131
474.45423	0.040994
472.52555	0.039978
470.59687	0.039225
468.66820	0.038646
466.73952	0.038191
464.81085	0.037808
462.88217	0.037461
460.95350	0.037196
459.02482	0.037048
457.09614	0.037045
455.16747	0.037123
453.23879	0.037102
451.31012	0.036952
449.38144	0.036750
447.45277	0.036539
445.52409	0.036391
443.59541	0.036208
441.66674	0.035831
439.73806	0.035330
437.80939	0.034730
435.88071	0.033982
433.95204	0.033199
432.02336	0.032400
430.09468	0.031426
428.16601	0.030267
426.23733	0.029076
424.30866	0.027997
422.37998	0.027005
420.45131	0.025923
418.52263	0.024751
416.59395	0.023615
414.66528	0.022507
412.73660	0.021383
410.80793	0.020290
408.87925	0.019302
406.95058	0.018451
405.02190	0.017608
403.09322	0.016566
401.16455	0.015445
399.23587	0.014494
397.30720	0.013650
395.37852	0.012789
393.44985	0.011852
391.52117	0.010890
389.59249	0.010139
387.66382	0.009583
385.73514	0.008989
383.80647	0.008287
381.87779	0.007557
379.94912	0.006953
378.02044	0.006393
376.09176	0.005699
374.16309	0.005039
372.23441	0.004562
370.30574	0.004141
368.37706	0.003768
