7496.76250	0.001880
7494.83382	0.001896
7492.90514	0.001916
7490.97647	0.001917
7489.04779	0.001930
7487.11912	0.001959
7485.19044	0.001962
7483.26177	0.001944
7481.33309	0.001946
7479.40441	0.001958
7477.47574	0.001952
7475.54706	0.001946
7473.61839	0.001955
7471.68971	0.001956
7469.76104	0.001936
7467.83236	0.001927
7465.90368	0.001965
7463.97501	0.002009
7462.04633	0.001993
7460.11766	0.001950
7458.18898	0.001956
7456.26031	0.001983
7454.33163	0.001974
7452.40295	0.001959
7450.47428	0.001980
7448.54560	0.002001
7446.61693	0.001990
7444.68825	0.001980
7442.75958	0.001999
7440.83090	0.002012
7438.90222	0.002001
7436.97355	0.001998
7435.04487	0.002024
7433.11620	0.002044
7431.18752	0.002040
7429.25885	0.002042
7427.33017	0.002051
7425.40149	0.002039
7423.47282	0.002023
7421.54414	0.002048
7419.61547	0.002084
7417.68679	0.002078
7415.75812	0.002057
7413.82944	0.002069
7411.90076	0.002096
7409.97209	0.002097
7408.04341	0.002085
7406.11474	0.002089
7404.18606	0.002099
7402.25739	0.002090
7400.32871	0.002091
7398.40003	0.002125
7396.47136	0.002157
7394.54268	0.002158
7392.61401	0.002147
7390.68533	0.002142
7388.75666	0.002131
7386.82798	0.002112
7384.89930	0.002107
7382.97063	0.002131
7381.04195	0.002153
7379.11328	0.002145
7377.18460	0.002140
7375.25593	0.002166
7373.32725	0.002177
7371.39857	0.002160
7369.46990	0.002163
7367.54122	0.002192
7365.61255	0.002202
7363.68387	0.002179
7361.75520	0.002166
7359.82652	0.002188
7357.89784	0.002197
7355.96917	0.002173
7354.04049	0.002169
7352.11182	0.002190
7350.18314	0.002189
7348.25447	0.002177
7346.32579	0.002203
7344.39711	0.002248
7342.46844	0.002252
7340.53976	0.002231
7338.61109	0.002247
7336.68241	0.002280
7334.75374	0.002273
7332.82506	0.002251
7330.89638	0.002279
7328.96771	0.002324
7327.03903	0.002318
7325.11036	0.002282
7323.18168	0.002282
7321.25301	0.002298
7319.32433	0.002283
7317.39565	0.002272
7315.46698	0.002297
7313.53830	0.002317
7311.60963	0.002312
7309.68095	0.002318
7307.75228	0.002334
7305.82360	0.002329
7303.89492	0.002315
7301.96625	0.002328
7300.03757	0.002357
7298.10890	0.002360
7296.18022	0.002334
7294.25155	0.002328
7292.32287	0.002348
7290.39419	0.002358
7288.46552	0.002359
7286.53684	0.002375
7284.60817	0.002390
7282.67949	0.002384
7280.75082	0.002376
7278.82214	0.002398
7276.89346	0.002433
7274.96479	0.002439
7273.03611	0.002434
7271.10744	0.002448
7269.17876	0.002455
7267.25009	0.002424
7265.32141	0.002392
7263.39273	0.002410
7261.46406	0.002451
7259.53538	0.002453
7257.60671	0.002433
7255.67803	0.002447
7253.74936	0.002473
7251.82068	0.002462
7249.89200	0.002441
7247.96333	0.002454
7246.03465	0.002467
7244.10598	0.002449
7242.17730	0.002447
7240.24863	0.002486
7238.31995	0.002516
7236.39127	0.002510
7234.46260	0.002517
7232.53392	0.002551
7230.60525	0.002561
7228.67657	0.002547
7226.74790	0.002555
7224.81922	0.002565
7222.89054	0.002540
7220.96187	0.002510
7219.03319	0.002521
7217.10452	0.002565
7215.17584	0.002586
7213.24717	0.002574
7211.31849	0.002572
7209.38981	0.002590
7207.46114	0.002595
7205.53246	0.002581
7203.60379	0.002578
7201.67511	0.002591
7199.74644	0.002592
7197.81776	0.002596
7195.88908	0.002634
7193.96041	0.002675
7192.03173	0.002676
7190.10306	0.002654
7188.17438	0.002640
7186.24571	0.002632
7184.31703	0.002617
7182.38835	0.002611
7180.45968	0.002634
7178.53100	0.002648
7176.60233	0.002631
7174.67365	0.002640
7172.74498	0.002678
7170.81630	0.002683
7168.88762	0.002651
7166.95895	0.002638
7165.03027	0.002672
7163.10160	0.002710
7161.17292	0.002712
7159.24425	0.002702
7157.31557	0.002707
7155.38689	0.002714
7153.45822	0.002712
7151.52954	0.002711
7149.60087	0.002722
7147.67219	0.002735
7145.74352	0.002741
7143.81484	0.002757
7141.88616	0.002769
7139.95749	0.002742
7138.02881	0.002716
7136.10014	0.002750
7134.17146	0.002813
7132.24279	0.002839
7130.31411	0.002823
7128.38543	0.002805
7126.45676	0.002796
7124.52808	0.002787
7122.59941	0.002786
7120.67073	0.002814
7118.74206	0.002840
7116.81338	0.002835
7114.88470	0.002837
7112.95603	0.002866
7111.02735	0.002887
7109.09868	0.002876
7107.17000	0.002864
7105.24133	0.002871
7103.31265	0.002877
7101.38397	0.002863
7099.45530	0.002859
7097.52662	0.002892
7095.59795	0.002920
7093.66927	0.002901
7091.74060	0.002868
7089.81192	0.002872
7087.88324	0.002899
7085.95457	0.002917
7084.02589	0.002928
7082.09722	0.002934
7080.16854	0.002923
7078.23987	0.002915
7076.31119	0.002934
7074.38251	0.002957
7072.45384	0.002952
7070.52516	0.002936
7068.59649	0.002942
7066.66781	0.002962
7064.73914	0.002966
7062.81046	0.002969
7060.88178	0.002994
7058.95311	0.003008
7057.02443	0.002987
7055.09576	0.002974
7053.16708	0.003012
7051.23841	0.003061
7049.30973	0.003056
7047.38105	0.003024
7045.45238	0.003020
7043.52370	0.003029
7041.59503	0.003024
7039.66635	0.003028
7037.73768	0.003047
7035.80900	0.003050
7033.88032	0.003032
7031.95165	0.003031
7030.02297	0.003065
7028.09430	0.003090
7026.16562	0.003077
7024.23695	0.003064
7022.30827	0.003079
7020.37959	0.003095
7018.45092	0.003094
7016.52224	0.003109
7014.59357	0.003155
7012.66489	0.003179
7010.73622	0.003154
7008.80754	0.003130
7006.87886	0.003135
7004.95019	0.003148
7003.02151	0.003152
7001.09284	0.003155
6999.16416	0.003158
6997.23549	0.003151
6995.30681	0.003143
6993.37813	0.003163
6991.44946	0.003197
6989.52078	0.003202
6987.59211	0.003198
6985.66343	0.003220
6983.73476	0.003252
6981.80608	0.003261
6979.87740	0.003252
6977.94873	0.003255
6976.02005	0.003272
6974.09138	0.003276
6972.16270	0.003267
6970.23403	0.003254
6968.30535	0.003246
6966.37667	0.003248
6964.44800	0.003257
6962.51932	0.003276
6960.59065	0.003294
6958.66197	0.003290
6956.73330	0.003289
6954.80462	0.003303
6952.87594	0.003307
6950.94727	0.003317
6949.01859	0.003348
6947.08992	0.003365
6945.16124	0.003353
6943.23257	0.003344
6941.30389	0.003366
6939.37521	0.003402
6937.44654	0.003409
6935.51786	0.003390
6933.58919	0.003382
6931.66051	0.003402
6929.73184	0.003430
6927.80316	0.003442
6925.87448	0.003436
6923.94581	0.003427
6922.01713	0.003426
6920.08846	0.003429
6918.15978	0.003429
6916.23111	0.003423
6914.30243	0.003421
6912.37375	0.003445
6910.44508	0.003484
6908.51640	0.003499
6906.58773	0.003486
6904.65905	0.003482
6902.73038	0.003505
6900.80170	0.003533
6898.87302	0.003547
6896.94435	0.003558
6895.01567	0.003581
6893.08700	0.003598
6891.15832	0.003592
6889.22965	0.003585
6887.30097	0.003600
6885.37229	0.003618
6883.44362	0.003614
6881.51494	0.003606
6879.58627	0.003606
6877.65759	0.003608
6875.72892	0.003613
6873.80024	0.003627
6871.87156	0.003642
6869.94289	0.003636
6868.01421	0.003613
6866.08554	0.003620
6864.15686	0.003657
6862.22819	0.003674
6860.29951	0.003665
6858.37083	0.003663
6856.44216	0.003682
6854.51348	0.003707
6852.58481	0.003722
6850.65613	0.003729
6848.72746	0.003738
6846.79878	0.003735
6844.87010	0.003719
6842.94143	0.003725
6841.01275	0.003761
6839.08408	0.003790
6837.15540	0.003793
6835.22673	0.003791
6833.29805	0.003796
6831.36937	0.003802
6829.44070	0.003817
6827.51202	0.003840
6825.58335	0.003844
6823.65467	0.003839
6821.72600	0.003860
6819.79732	0.003895
6817.86864	0.003898
6815.93997	0.003863
6814.01129	0.003846
6812.08262	0.003874
6810.15394	0.003894
6808.22527	0.003881
6806.29659	0.003884
6804.36791	0.003919
6802.43924	0.003936
6800.51056	0.003918
6798.58189	0.003919
6796.65321	0.003959
6794.72454	0.003987
6792.79586	0.003983
6790.86718	0.003978
6788.93851	0.003979
6787.00983	0.003972
6785.08116	0.003974
6783.15248	0.004007
6781.22381	0.004043
6779.29513	0.004051
6777.36645	0.004051
6775.43778	0.004063
6773.50910	0.004074
6771.58043	0.004064
6769.65175	0.004053
6767.72308	0.004066
6765.79440	0.004096
6763.86572	0.004121
6761.93705	0.004125
6760.00837	0.004115
6758.07970	0.004108
6756.15102	0.004103
6754.22235	0.004103
6752.29367	0.004123
6750.36499	0.004149
6748.43632	0.004162
6746.50764	0.004177
6744.57897	0.004196
6742.65029	0.004195
6740.72162	0.004179
6738.79294	0.004181
6736.86426	0.004213
6734.93559	0.004242
6733.00691	0.004232
6731.07824	0.004211
6729.14956	0.004225
6727.22089	0.004266
6725.29221	0.004296
6723.36353	0.004303
6721.43486	0.004303
6719.50618	0.004302
6717.57751	0.004289
6715.64883	0.004285
6713.72016	0.004313
6711.79148	0.004343
6709.86280	0.004344
6707.93413	0.004346
6706.00545	0.004366
6704.07678	0.004380
6702.14810	0.004381
6700.21943	0.004382
6698.29075	0.004396
6696.36207	0.004406
6694.43340	0.004401
6692.50472	0.004408
6690.57605	0.004427
6688.64737	0.004433
6686.71870	0.004434
6684.79002	0.004451
6682.86134	0.004484
6680.93267	0.004516
6679.00399	0.004532
6677.07532	0.004522
6675.14664	0.004503
6673.21797	0.004499
6671.28929	0.004498
6669.36061	0.004489
6667.43194	0.004486
6665.50326	0.004497
6663.57459	0.004527
6661.64591	0.004576
6659.71724	0.004611
6657.78856	0.004618
6655.85988	0.004617
6653.93121	0.004616
6652.00253	0.004616
6650.07386	0.004622
6648.14518	0.004624
6646.21651	0.004626
6644.28783	0.004632
6642.35915	0.004640
6640.43048	0.004655
6638.50180	0.004669
6636.57313	0.004662
6634.64445	0.004652
6632.71578	0.004659
6630.78710	0.004676
6628.85842	0.004697
6626.92975	0.004715
6625.00107	0.004740
6623.07240	0.004769
6621.14372	0.004788
6619.21505	0.004794
6617.28637	0.004797
6615.35769	0.004807
6613.42902	0.004822
6611.50034	0.004824
6609.57167	0.004825
6607.64299	0.004840
6605.71432	0.004853
6603.78564	0.004852
6601.85696	0.004854
6599.92829	0.004858
6597.99961	0.004862
6596.07094	0.004880
6594.14226	0.004906
6592.21359	0.004927
6590.28491	0.004942
6588.35623	0.004958
6586.42756	0.004975
6584.49888	0.004995
6582.57021	0.005014
6580.64153	0.005026
6578.71286	0.005022
6576.78418	0.005007
6574.85550	0.004997
6572.92683	0.004998
6570.99815	0.005013
6569.06948	0.005039
6567.14080	0.005054
6565.21213	0.005064
6563.28345	0.005089
6561.35477	0.005110
6559.42610	0.005114
6557.49742	0.005116
6555.56875	0.005136
6553.64007	0.005158
6551.71140	0.005155
6549.78272	0.005138
6547.85404	0.005132
6545.92537	0.005144
6543.99669	0.005171
6542.06802	0.005199
6540.13934	0.005227
6538.21067	0.005249
6536.28199	0.005257
6534.35331	0.005261
6532.42464	0.005273
6530.49596	0.005277
6528.56729	0.005265
6526.63861	0.005264
6524.70994	0.005283
6522.78126	0.005304
6520.85258	0.005324
6518.92391	0.005343
6516.99523	0.005360
6515.06656	0.005377
6513.13788	0.005392
6511.20921	0.005393
6509.28053	0.005377
6507.35185	0.005375
6505.42318	0.005395
6503.49450	0.005413
6501.56583	0.005432
6499.63715	0.005467
6497.70848	0.005492
6495.77980	0.005492
6493.85112	0.005495
6491.92245	0.005506
6489.99377	0.005517
6488.06510	0.005535
6486.13642	0.005549
6484.20775	0.005540
6482.27907	0.005530
6480.35039	0.005548
6478.42172	0.005598
6476.49304	0.005648
6474.56437	0.005652
6472.63569	0.005623
6470.70702	0.005612
6468.77834	0.005629
6466.84966	0.005645
6464.92099	0.005650
6462.99231	0.005656
6461.06364	0.005665
6459.13496	0.005679
6457.20629	0.005698
6455.27761	0.005712
6453.34893	0.005725
6451.42026	0.005752
6449.49158	0.005771
6447.56291	0.005766
6445.63423	0.005758
6443.70556	0.005768
6441.77688	0.005791
6439.84820	0.005817
6437.91953	0.005842
6435.99085	0.005864
6434.06218	0.005879
6432.13350	0.005891
6430.20483	0.005902
6428.27615	0.005900
6426.34747	0.005892
6424.41880	0.005905
6422.49012	0.005932
6420.56145	0.005957
6418.63277	0.005988
6416.70410	0.006016
6414.77542	0.006017
6412.84674	0.006013
6410.91807	0.006037
6408.98939	0.006074
6407.06072	0.006081
6405.13204	0.006075
6403.20337	0.006095
6401.27469	0.006123
6399.34601	0.006132
6397.41734	0.006134
6395.48866	0.006145
6393.55999	0.006162
6391.63131	0.006169
6389.70264	0.006168
6387.77396	0.006184
6385.84528	0.006210
6383.91661	0.006225
6381.98793	0.006238
6380.05926	0.006246
6378.13058	0.006253
6376.20191	0.006274
6374.27323	0.006287
6372.34455	0.006291
6370.41588	0.006301
6368.48720	0.006304
6366.55853	0.006300
6364.62985	0.006314
6362.70118	0.006332
6360.77250	0.006328
6358.84382	0.006324
6356.91515	0.006356
6354.98647	0.006405
6353.05780	0.006434
6351.12912	0.006448
6349.20045	0.006464
6347.27177	0.006467
6345.34309	0.006458
6343.41442	0.006456
6341.48574	0.006469
6339.55707	0.006482
6337.62839	0.006491
6335.69972	0.006517
6333.77104	0.006557
6331.84236	0.006583
6329.91369	0.006590
6327.98501	0.006606
6326.05634	0.006630
6324.12766	0.006637
6322.19899	0.006626
6320.27031	0.006626
6318.34163	0.006651
6316.41296	0.006681
6314.48428	0.006703
6312.55561	0.006725
6310.62693	0.006745
6308.69826	0.006752
6306.76958	0.006762
6304.84090	0.006798
6302.91223	0.006829
6300.98355	0.006828
6299.05488	0.006822
6297.12620	0.006830
6295.19753	0.006833
6293.26885	0.006837
6291.34017	0.006871
6289.41150	0.006918
6287.48282	0.006943
6285.55415	0.006955
6283.62547	0.006974
6281.69680	0.006992
6279.76812	0.006989
6277.83944	0.006979
6275.91077	0.006998
6273.98209	0.007025
6272.05342	0.007021
6270.12474	0.007000
6268.19607	0.007000
6266.26739	0.007030
6264.33871	0.007065
6262.41004	0.007085
6260.48136	0.007101
6258.55269	0.007120
6256.62401	0.007123
6254.69534	0.007115
6252.76666	0.007125
6250.83798	0.007163
6248.90931	0.007211
6246.98063	0.007243
6245.05196	0.007257
6243.12328	0.007267
6241.19461	0.007265
6239.26593	0.007255
6237.33725	0.007272
6235.40858	0.007310
6233.47990	0.007336
6231.55123	0.007354
6229.62255	0.007379
6227.69388	0.007389
6225.76520	0.007377
6223.83652	0.007386
6221.90785	0.007421
6219.97917	0.007447
6218.05050	0.007454
6216.12182	0.007464
6214.19315	0.007487
6212.26447	0.007506
6210.33579	0.007517
6208.40712	0.007531
6206.47844	0.007548
6204.54977	0.007558
6202.62109	0.007573
6200.69242	0.007606
6198.76374	0.007637
6196.83506	0.007634
6194.90639	0.007616
6192.97771	0.007639
6191.04904	0.007708
6189.12036	0.007757
6187.19169	0.007766
6185.26301	0.007770
6183.33433	0.007787
6181.40566	0.007789
6179.47698	0.007780
6177.54831	0.007809
6175.61963	0.007861
6173.69096	0.007884
6171.76228	0.007893
6169.83360	0.007919
6167.90493	0.007929
6165.97625	0.007903
6164.04758	0.007886
6162.11890	0.007912
6160.19023	0.007955
6158.26155	0.007982
6156.33287	0.008007
6154.40420	0.008045
6152.47552	0.008068
6150.54685	0.008051
6148.61817	0.008035
6146.68950	0.008065
6144.76082	0.008105
6142.83214	0.008107
6140.90347	0.008104
6138.97479	0.008137
6137.04612	0.008188
6135.11744	0.008225
6133.18877	0.008241
6131.26009	0.008258
6129.33141	0.008281
6127.40274	0.008288
6125.47406	0.008295
6123.54539	0.008326
6121.61671	0.008350
6119.68804	0.008357
6117.75936	0.008369
6115.83068	0.008387
6113.90201	0.008394
6111.97333	0.008404
6110.04466	0.008443
6108.11598	0.008494
6106.18731	0.008515
6104.25863	0.008501
6102.32995	0.008497
6100.40128	0.008529
6098.47260	0.008555
6096.54393	0.008542
6094.61525	0.008544
6092.68658	0.008598
6090.75790	0.008650
6088.82922	0.008664
6086.90055	0.008683
6084.97187	0.008723
6083.04320	0.008734
6081.11452	0.008721
6079.18585	0.008748
6077.25717	0.008798
6075.32849	0.008808
6073.39982	0.008796
6071.47114	0.008816
6069.54247	0.008849
6067.61379	0.008865
6065.68512	0.008898
6063.75644	0.008961
6061.82776	0.008998
6059.89909	0.008983
6057.97041	0.008960
6056.04174	0.008979
6054.11306	0.009021
6052.18439	0.009036
6050.25571	0.009030
6048.32703	0.009052
6046.39836	0.009089
6044.46968	0.009109
6042.54101	0.009131
6040.61233	0.009158
6038.68366	0.009159
6036.75498	0.009145
6034.82630	0.009152
6032.89763	0.009183
6030.96895	0.009215
6029.04028	0.009232
6027.11160	0.009262
6025.18293	0.009308
6023.25425	0.009324
6021.32557	0.009312
6019.39690	0.009326
6017.46822	0.009362
6015.53955	0.009367
6013.61087	0.009347
6011.68220	0.009376
6009.75352	0.009464
6007.82484	0.009530
6005.89617	0.009532
6003.96749	0.009516
6002.03882	0.009526
6000.11014	0.009551
5998.18147	0.009571
5996.25279	0.009596
5994.32411	0.009626
5992.39544	0.009634
5990.46676	0.009631
5988.53809	0.009657
5986.60941	0.009689
5984.68074	0.009681
5982.75206	0.009667
5980.82338	0.009719
5978.89471	0.009812
5976.96603	0.009848
5975.03736	0.009839
5973.10868	0.009858
5971.18001	0.009884
5969.25133	0.009879
5967.32265	0.009873
5965.39398	0.009904
5963.46530	0.009950
5961.53663	0.009972
5959.60795	0.009989
5957.67928	0.010025
5955.75060	0.010056
5953.82192	0.010060
5951.89325	0.010063
5949.96457	0.010090
5948.03590	0.010113
5946.10722	0.010114
5944.17855	0.010136
5942.24987	0.010201
5940.32119	0.010255
5938.39252	0.010256
5936.46384	0.010250
5934.53517	0.010270
5932.60649	0.010279
5930.67782	0.010271
5928.74914	0.010300
5926.82046	0.010360
5924.89179	0.010372
5922.96311	0.010347
5921.03444	0.010384
5919.10576	0.010476
5917.17709	0.010524
5915.24841	0.010513
5913.31973	0.010512
5911.39106	0.010542
5909.46238	0.010559
5907.53371	0.010567
5905.60503	0.010610
5903.67636	0.010662
5901.74768	0.010669
5899.81900	0.010668
5897.89033	0.010717
5895.96165	0.010776
5894.03298	0.010776
5892.10430	0.010750
5890.17563	0.010792
5888.24695	0.010867
5886.31827	0.010882
5884.38960	0.010867
5882.46092	0.010887
5880.53225	0.010900
5878.60357	0.010893
5876.67490	0.010928
5874.74622	0.011006
5872.81755	0.011037
5870.88887	0.010998
5868.96019	0.011001
5867.03152	0.011087
5865.10284	0.011147
5863.17417	0.011118
5861.24549	0.011080
5859.31682	0.011113
5857.38814	0.011187
5855.45946	0.011238
5853.53079	0.011262
5851.60211	0.011292
5849.67344	0.011314
5847.74476	0.011298
5845.81609	0.011288
5843.88741	0.011327
5841.95873	0.011388
5840.03006	0.011442
5838.10138	0.011481
5836.17271	0.011493
5834.24403	0.011487
5832.31536	0.011499
5830.38668	0.011545
5828.45800	0.011588
5826.52933	0.011585
5824.60065	0.011575
5822.67198	0.011615
5820.74330	0.011687
5818.81463	0.011723
5816.88595	0.011714
5814.95727	0.011725
5813.02860	0.011762
5811.09992	0.011763
5809.17125	0.011759
5807.24257	0.011814
5805.31390	0.011896
5803.38522	0.011928
5801.45654	0.011933
5799.52787	0.011978
5797.59919	0.012042
5795.67052	0.012062
5793.74184	0.012054
5791.81317	0.012075
5789.88449	0.012110
5787.95581	0.012118
5786.02714	0.012124
5784.09846	0.012168
5782.16979	0.012211
5780.24111	0.012204
5778.31244	0.012196
5776.38376	0.012244
5774.45508	0.012290
5772.52641	0.012285
5770.59773	0.012306
5768.66906	0.012388
5766.74038	0.012435
5764.81171	0.012408
5762.88303	0.012412
5760.95435	0.012489
5759.02568	0.012547
5757.09700	0.012551
5755.16833	0.012574
5753.23965	0.012636
5751.31098	0.012672
5749.38230	0.012665
5747.45362	0.012680
5745.52495	0.012731
5743.59627	0.012761
5741.66760	0.012768
5739.73892	0.012805
5737.81025	0.012854
5735.88157	0.012844
5733.95289	0.012816
5732.02422	0.012854
5730.09554	0.012925
5728.16687	0.012938
5726.23819	0.012913
5724.30952	0.012951
5722.38084	0.013033
5720.45216	0.013061
5718.52349	0.013060
5716.59481	0.013110
5714.66614	0.013173
5712.73746	0.013181
5710.80879	0.013187
5708.88011	0.013256
5706.95143	0.013329
5705.02276	0.013342
5703.09408	0.013339
5701.16541	0.013389
5699.23673	0.013455
5697.30806	0.013463
5695.37938	0.013455
5693.45070	0.013505
5691.52203	0.013554
5689.59335	0.013546
5687.66468	0.013548
5685.73600	0.013598
5683.80733	0.013631
5681.87865	0.013617
5679.94997	0.013644
5678.02130	0.013740
5676.09262	0.013794
5674.16395	0.013770
5672.23527	0.013776
5670.30660	0.013854
5668.37792	0.013919
5666.44924	0.013925
5664.52057	0.013941
5662.59189	0.014004
5660.66322	0.014019
5658.73454	0.013973
5656.80587	0.013989
5654.87719	0.014074
5652.94851	0.014115
5651.01984	0.014102
5649.09116	0.014129
5647.16249	0.014202
5645.23381	0.014230
5643.30514	0.014215
5641.37646	0.014254
5639.44778	0.014344
5637.51911	0.014383
5635.59043	0.014368
5633.66176	0.014394
5631.73308	0.014454
5629.80441	0.014473
5627.87573	0.014481
5625.94705	0.014541
5624.01838	0.014611
5622.08970	0.014615
5620.16103	0.014605
5618.23235	0.014679
5616.30368	0.014770
5614.37500	0.014773
5612.44632	0.014753
5610.51765	0.014805
5608.58897	0.014866
5606.66030	0.014856
5604.73162	0.014850
5602.80295	0.014926
5600.87427	0.015007
5598.94559	0.015004
5597.01692	0.015003
5595.08824	0.015082
5593.15957	0.015147
5591.23089	0.015138
5589.30222	0.015137
5587.37354	0.015177
5585.44486	0.015192
5583.51619	0.015183
5581.58751	0.015249
5579.65884	0.015384
5577.73016	0.015444
5575.80149	0.015398
5573.87281	0.015389
5571.94413	0.015477
5570.01546	0.015537
5568.08678	0.015506
5566.15811	0.015509
5564.22943	0.015599
5562.30076	0.015652
5560.37208	0.015634
5558.44340	0.015663
5556.51473	0.015748
5554.58605	0.015776
5552.65738	0.015747
5550.72870	0.015770
5548.80003	0.015842
5546.87135	0.015868
5544.94267	0.015868
5543.01400	0.015943
5541.08532	0.016053
5539.15665	0.016070
5537.22797	0.016024
5535.29930	0.016061
5533.37062	0.016154
5531.44194	0.016160
5529.51327	0.016134
5527.58459	0.016219
5525.65592	0.016324
5523.72724	0.016305
5521.79857	0.016269
5519.86989	0.016343
5517.94121	0.016429
5516.01254	0.016424
5514.08386	0.016416
5512.15519	0.016495
5510.22651	0.016565
5508.29784	0.016532
5506.36916	0.016500
5504.44048	0.016575
5502.51181	0.016654
5500.58313	0.016650
5498.65446	0.016677
5496.72578	0.016791
5494.79711	0.016860
5492.86843	0.016824
5490.93975	0.016818
5489.01108	0.016909
5487.08240	0.016979
5485.15373	0.016969
5483.22505	0.016999
5481.29638	0.017111
5479.36770	0.017160
5477.43902	0.017098
5475.51035	0.017088
5473.58167	0.017190
5471.65300	0.017253
5469.72432	0.017224
5467.79565	0.017239
5465.86697	0.017326
5463.93829	0.017360
5462.00962	0.017334
5460.08094	0.017392
5458.15227	0.017520
5456.22359	0.017553
5454.29492	0.017524
5452.36624	0.017589
5450.43756	0.017689
5448.50889	0.017672
5446.58021	0.017610
5444.65154	0.017667
5442.72286	0.017780
5440.79419	0.017795
5438.86551	0.017771
5436.93683	0.017835
5435.00816	0.017938
5433.07948	0.017958
5431.15081	0.017937
5429.22213	0.018000
5427.29346	0.018104
5425.36478	0.018128
5423.43610	0.018134
5421.50743	0.018209
5419.57875	0.018258
5417.65008	0.018213
5415.72140	0.018196
5413.79273	0.018292
5411.86405	0.018385
5409.93537	0.018392
5408.00670	0.018407
5406.07802	0.018491
5404.14935	0.018547
5402.22067	0.018529
5400.29200	0.018551
5398.36332	0.018661
5396.43464	0.018717
5394.50597	0.018668
5392.57729	0.018664
5390.64862	0.018767
5388.71994	0.018826
5386.79127	0.018791
5384.86259	0.018805
5382.93391	0.018906
5381.00524	0.018957
5379.07656	0.018930
5377.14789	0.018968
5375.21921	0.019101
5373.29054	0.019167
5371.36186	0.019124
5369.43318	0.019140
5367.50451	0.019245
5365.57583	0.019284
5363.64716	0.019266
5361.71848	0.019339
5359.78981	0.019466
5357.86113	0.019483
5355.93245	0.019422
5354.00378	0.019454
5352.07510	0.019570
5350.14643	0.019621
5348.21775	0.019614
5346.28908	0.019672
5344.36040	0.019751
5342.43172	0.019730
5340.50305	0.019693
5338.57437	0.019777
5336.64570	0.019889
5334.71702	0.019889
5332.78835	0.019870
5330.85967	0.019961
5328.93099	0.020057
5327.00232	0.020043
5325.07364	0.020034
5323.14497	0.020149
5321.21629	0.020264
5319.28762	0.020247
5317.35894	0.020235
5315.43026	0.020353
5313.50159	0.020450
5311.57291	0.020410
5309.64424	0.020386
5307.71556	0.020495
5305.78689	0.020601
5303.85821	0.020585
5301.92953	0.020572
5300.00086	0.020667
5298.07218	0.020746
5296.14351	0.020728
5294.21483	0.020742
5292.28616	0.020833
5290.35748	0.020860
5288.42880	0.020810
5286.50013	0.020852
5284.57145	0.020990
5282.64278	0.021044
5280.71410	0.020990
5278.78543	0.021008
5276.85675	0.021134
5274.92807	0.021187
5272.99940	0.021140
5271.07072	0.021182
5269.14205	0.021324
5267.21337	0.021375
5265.28470	0.021331
5263.35602	0.021376
5261.42734	0.021502
5259.49867	0.021525
5257.56999	0.021465
5255.64132	0.021510
5253.71264	0.021638
5251.78397	0.021677
5249.85529	0.021661
5247.92661	0.021747
5245.99794	0.021856
5244.06926	0.021831
5242.14059	0.021785
5240.21191	0.021887
5238.28324	0.022028
5236.35456	0.022025
5234.42588	0.021983
5232.49721	0.022097
5230.56853	0.022244
5228.63986	0.022237
5226.71118	0.022211
5224.78251	0.022321
5222.85383	0.022426
5220.92515	0.022397
5218.99648	0.022381
5217.06780	0.022492
5215.13913	0.022582
5213.21045	0.022547
5211.28178	0.022541
5209.35310	0.022640
5207.42442	0.022696
5205.49575	0.022673
5203.56707	0.022729
5201.63840	0.022889
5199.70972	0.022954
5197.78105	0.022892
5195.85237	0.022919
5193.92369	0.023068
5191.99502	0.023120
5190.06634	0.023048
5188.13767	0.023077
5186.20899	0.023227
5184.28032	0.023285
5182.35164	0.023242
5180.42296	0.023303
5178.49429	0.023462
5176.56561	0.023505
5174.63694	0.023435
5172.70826	0.023454
5170.77959	0.023565
5168.85091	0.023600
5166.92223	0.023589
5164.99356	0.023691
5163.06488	0.023835
5161.13621	0.023840
5159.20753	0.023768
5157.27886	0.023818
5155.35018	0.023953
5153.42150	0.023977
5151.49283	0.023940
5149.56415	0.024020
5147.63548	0.024147
5145.70680	0.024139
5143.77813	0.024086
5141.84945	0.024177
5139.92077	0.024318
5137.99210	0.024336
5136.06342	0.024332
5134.13475	0.024449
5132.20607	0.024565
5130.27740	0.024537
5128.34872	0.024493
5126.42004	0.024582
5124.49137	0.024685
5122.56269	0.024669
5120.63402	0.024675
5118.70534	0.024824
5116.77667	0.024934
5114.84799	0.024881
5112.91931	0.024879
5110.99064	0.025042
5109.06196	0.025148
5107.13329	0.025086
5105.20461	0.025070
5103.27594	0.025190
5101.34726	0.025258
5099.41858	0.025214
5097.48991	0.025255
5095.56123	0.025424
5093.63256	0.025507
5091.70388	0.025461
5089.77521	0.025491
5087.84653	0.025607
5085.91785	0.025625
5083.98918	0.025584
5082.06050	0.025675
5080.13183	0.025841
5078.20315	0.025864
5076.27448	0.025798
5074.34580	0.025869
5072.41712	0.026030
5070.48845	0.026062
5068.55977	0.026005
5066.63110	0.026076
5064.70242	0.026230
5062.77375	0.026248
5060.84507	0.026175
5058.91639	0.026240
5056.98772	0.026395
5055.05904	0.026417
5053.13037	0.026377
5051.20169	0.026475
5049.27302	0.026617
5047.34434	0.026622
5045.41566	0.026602
5043.48699	0.026724
5041.55831	0.026855
5039.62964	0.026832
5037.70096	0.026812
5035.77229	0.026961
5033.84361	0.027094
5031.91493	0.027045
5029.98626	0.027014
5028.05758	0.027153
5026.12891	0.027270
5024.20023	0.027225
5022.27156	0.027209
5020.34288	0.027352
5018.41420	0.027461
5016.48553	0.027406
5014.55685	0.027391
5012.62818	0.027537
5010.69950	0.027643
5008.77083	0.027614
5006.84215	0.027643
5004.91347	0.027785
5002.98480	0.027849
5001.05612	0.027802
4999.12745	0.027840
4997.19877	0.028002
4995.27010	0.028082
4993.34142	0.028025
4991.41274	0.028046
4989.48407	0.028205
4987.55539	0.028282
4985.62672	0.028228
4983.69804	0.028245
4981.76937	0.028349
4979.84069	0.028366
4977.91201	0.028331
4975.98334	0.028437
4974.05466	0.028624
4972.12599	0.028663
4970.19731	0.028596
4968.26864	0.028665
4966.33996	0.028843
4964.41128	0.028896
4962.48261	0.028853
4960.55393	0.028939
4958.62526	0.029097
4956.69658	0.029109
4954.76791	0.029058
4952.83923	0.029164
4950.91055	0.029324
4948.98188	0.029310
4947.05320	0.029246
4945.12453	0.029364
4943.19585	0.029535
4941.26718	0.029537
4939.33850	0.029502
4937.40982	0.029630
4935.48115	0.029778
4933.55247	0.029763
4931.62380	0.029737
4929.69512	0.029864
4927.76645	0.029976
4925.83777	0.029934
4923.90909	0.029941
4921.98042	0.030128
4920.05174	0.030264
4918.12307	0.030207
4916.19439	0.030183
4914.26572	0.030331
4912.33704	0.030441
4910.40836	0.030397
4908.47969	0.030395
4906.55101	0.030540
4904.62234	0.030647
4902.69366	0.030637
4900.76499	0.030709
4898.83631	0.030898
4896.90763	0.030955
4894.97896	0.030854
4893.05028	0.030874
4891.12161	0.031055
4889.19293	0.031142
4887.26426	0.031089
4885.33558	0.031122
4883.40690	0.031276
4881.47823	0.031341
4879.54955	0.031310
4877.62088	0.031384
4875.69220	0.031535
4873.76353	0.031569
4871.83485	0.031535
4869.90617	0.031624
4867.97750	0.031780
4866.04882	0.031796
4864.12015	0.031741
4862.19147	0.031855
4860.26280	0.032058
4858.33412	0.032065
4856.40544	0.031969
4854.47677	0.032064
4852.54809	0.032256
4850.61942	0.032270
4848.69074	0.032210
4846.76207	0.032333
4844.83339	0.032515
4842.90471	0.032506
4840.97604	0.032448
4839.04736	0.032580
4837.11869	0.032758
4835.19001	0.032760
4833.26134	0.032720
4831.33266	0.032836
4829.40398	0.032980
4827.47531	0.032991
4825.54663	0.032993
4823.61796	0.033103
4821.68928	0.033174
4819.76061	0.033110
4817.83193	0.033113
4815.90325	0.033299
4813.97458	0.033442
4812.04590	0.033405
4810.11723	0.033409
4808.18855	0.033598
4806.25988	0.033753
4804.33120	0.033722
4802.40252	0.033715
4800.47385	0.033866
4798.54517	0.033968
4796.61650	0.033920
4794.68782	0.033932
4792.75915	0.034082
4790.83047	0.034155
4788.90179	0.034103
4786.97312	0.034170
4785.04444	0.034361
4783.11577	0.034407
4781.18709	0.034350
4779.25842	0.034454
4777.32974	0.034669
4775.40106	0.034753
4773.47239	0.034724
4771.54371	0.034787
4769.61504	0.034928
4767.68636	0.034946
4765.75769	0.034869
4763.82901	0.034921
4761.90033	0.035094
4759.97166	0.035167
4758.04298	0.035157
4756.11431	0.035266
4754.18563	0.035428
4752.25696	0.035429
4750.32828	0.035368
4748.39960	0.035496
4746.47093	0.035696
4744.54225	0.035711
4742.61358	0.035673
4740.68490	0.035798
4738.75623	0.035957
4736.82755	0.035971
4734.89887	0.035967
4732.97020	0.036100
4731.04152	0.036236
4729.11285	0.036222
4727.18417	0.036211
4725.25550	0.036379
4723.32682	0.036563
4721.39814	0.036571
4719.46947	0.036553
4717.54079	0.036680
4715.61212	0.036815
4713.68344	0.036822
4711.75477	0.036852
4709.82609	0.037006
4707.89741	0.037103
4705.96874	0.037054
4704.04006	0.037061
4702.11139	0.037237
4700.18271	0.037365
4698.25404	0.037328
4696.32536	0.037357
4694.39668	0.037549
4692.46801	0.037660
4690.53933	0.037642
4688.61066	0.037727
4686.68198	0.037906
4684.75331	0.037955
4682.82463	0.037884
4680.89595	0.037930
4678.96728	0.038114
4677.03860	0.038206
4675.10993	0.038178
4673.18125	0.038226
4671.25258	0.038376
4669.32390	0.038451
4667.39522	0.038451
4665.46655	0.038552
4663.53787	0.038723
4661.60920	0.038783
4659.68052	0.038780
4657.75185	0.038891
4655.82317	0.039050
4653.89449	0.039072
4651.96582	0.039031
4650.03714	0.039135
4648.10847	0.039309
4646.17979	0.039333
4644.25112	0.039297
4642.32244	0.039430
4640.39376	0.039621
4638.46509	0.039650
4636.53641	0.039628
4634.60774	0.039765
4632.67906	0.039953
4630.75039	0.039984
4628.82171	0.039976
4626.89303	0.040127
4624.96436	0.040292
4623.03568	0.040304
4621.10701	0.040316
4619.17833	0.040456
4617.24966	0.040553
4615.32098	0.040519
4613.39230	0.040558
4611.46363	0.040747
4609.53495	0.040872
4607.60628	0.040840
4605.67760	0.040851
4603.74893	0.041024
4601.82025	0.041170
4599.89157	0.041158
4597.96290	0.041175
4596.03422	0.041358
4594.10555	0.041495
4592.17687	0.041455
4590.24820	0.041476
4588.31952	0.041676
4586.39084	0.041802
4584.46217	0.041761
4582.53349	0.041790
4580.60482	0.041960
4578.67614	0.042059
4576.74747	0.042053
4574.81879	0.042150
4572.89011	0.042363
4570.96144	0.042463
4569.03276	0.042443
4567.10409	0.042534
4565.17541	0.042717
4563.24674	0.042760
4561.31806	0.042708
4559.38938	0.042812
4557.46071	0.043029
4555.53203	0.043112
4553.60336	0.043101
4551.67468	0.043205
4549.74601	0.043370
4547.81733	0.043416
4545.88865	0.043415
4543.95998	0.043553
4542.03130	0.043748
4540.10263	0.043802
4538.17395	0.043788
4536.24528	0.043891
4534.31660	0.044043
4532.38792	0.044084
4530.45925	0.044105
4528.53057	0.044260
4526.60190	0.044426
4524.67322	0.044433
4522.74455	0.044433
4520.81587	0.044617
4518.88719	0.044820
4516.95852	0.044838
4515.02984	0.044821
4513.10117	0.044960
4511.17249	0.045117
4509.24382	0.045128
4507.31514	0.045142
4505.38646	0.045306
4503.45779	0.045457
4501.52911	0.045470
4499.60044	0.045525
4497.67176	0.045713
4495.74309	0.045844
4493.81441	0.045840
4491.88573	0.045881
4489.95706	0.046033
4488.02838	0.046139
4486.09971	0.046152
4484.17103	0.046243
4482.24236	0.046449
4480.31368	0.046560
4478.38500	0.046527
4476.45633	0.046569
4474.52765	0.046761
4472.59898	0.046890
4470.67030	0.046888
4468.74163	0.046974
4466.81295	0.047190
4464.88427	0.047313
4462.95560	0.047312
4461.02692	0.047397
4459.09825	0.047577
4457.16957	0.047646
4455.24090	0.047613
4453.31222	0.047695
4451.38354	0.047881
4449.45487	0.047967
4447.52619	0.047981
4445.59752	0.048132
4443.66884	0.048348
4441.74017	0.048385
4439.81149	0.048337
4437.88281	0.048478
4435.95414	0.048712
4434.02546	0.048789
4432.09679	0.048800
4430.16811	0.048950
4428.23944	0.049152
4426.31076	0.049225
4424.38208	0.049238
4422.45341	0.049350
4420.52473	0.049496
4418.59606	0.049544
4416.66738	0.049575
4414.73871	0.049735
4412.81003	0.049920
4410.88135	0.049958
4408.95268	0.049972
4407.02400	0.050143
4405.09533	0.050344
4403.16665	0.050404
4401.23798	0.050433
4399.30930	0.050561
4397.38062	0.050674
4395.45195	0.050689
4393.52327	0.050779
4391.59460	0.051014
4389.66592	0.051178
4387.73725	0.051167
4385.80857	0.051180
4383.87989	0.051346
4381.95122	0.051497
4380.02254	0.051512
4378.09387	0.051554
4376.16519	0.051715
4374.23652	0.051844
4372.30784	0.051875
4370.37916	0.051971
4368.45049	0.052171
4366.52181	0.052301
4364.59314	0.052339
4362.66446	0.052454
4360.73579	0.052657
4358.80711	0.052765
4356.87843	0.052775
4354.94976	0.052879
4353.02108	0.053081
4351.09241	0.053190
4349.16373	0.053204
4347.23506	0.053312
4345.30638	0.053497
4343.37770	0.053584
4341.44903	0.053615
4339.52035	0.053750
4337.59168	0.053930
4335.66300	0.054015
4333.73433	0.054070
4331.80565	0.054220
4329.87697	0.054396
4327.94830	0.054476
4326.01962	0.054538
4324.09095	0.054690
4322.16227	0.054863
4320.23360	0.054946
4318.30492	0.054999
4316.37624	0.055153
4314.44757	0.055350
4312.51889	0.055453
4310.59022	0.055524
4308.66154	0.055680
4306.73287	0.055842
4304.80419	0.055909
4302.87551	0.055979
4300.94684	0.056154
4299.01816	0.056337
4297.08949	0.056411
4295.16081	0.056447
4293.23214	0.056573
4291.30346	0.056719
4289.37478	0.056791
4287.44611	0.056887
4285.51743	0.057081
4283.58876	0.057243
4281.66008	0.057298
4279.73141	0.057383
4277.80273	0.057571
4275.87405	0.057742
4273.94538	0.057824
4272.01670	0.057908
4270.08803	0.058039
4268.15935	0.058146
4266.23068	0.058217
4264.30200	0.058346
4262.37332	0.058528
4260.44465	0.058639
4258.51597	0.058687
4256.58730	0.058809
4254.65862	0.058994
4252.72995	0.059102
4250.80127	0.059129
4248.87259	0.059235
4246.94392	0.059436
4245.01524	0.059577
4243.08657	0.059644
4241.15789	0.059778
4239.22922	0.059975
4237.30054	0.060093
4235.37186	0.060152
4233.44319	0.060296
4231.51451	0.060499
4229.58584	0.060625
4227.65716	0.060697
4225.72849	0.060830
4223.79981	0.060985
4221.87113	0.061082
4219.94246	0.061174
4218.01378	0.061331
4216.08511	0.061500
4214.15643	0.061591
4212.22776	0.061640
4210.29908	0.061765
4208.37040	0.061940
4206.44173	0.062062
4204.51305	0.062169
4202.58438	0.062332
4200.65570	0.062493
4198.72703	0.062602
4196.79835	0.062726
4194.86968	0.062903
4192.94100	0.063036
4191.01232	0.063086
4189.08365	0.063180
4187.15497	0.063376
4185.22630	0.063550
4183.29762	0.063630
4181.36895	0.063721
4179.44027	0.063889
4177.51159	0.064048
4175.58292	0.064144
4173.65424	0.064263
4171.72557	0.064464
4169.79689	0.064650
4167.86822	0.064748
4165.93954	0.064850
4164.01086	0.065018
4162.08219	0.065163
4160.15351	0.065242
4158.22484	0.065359
4156.29616	0.065551
4154.36749	0.065721
4152.43881	0.065848
4150.51013	0.065995
4148.58146	0.066145
4146.65278	0.066246
4144.72411	0.066341
4142.79543	0.066504
4140.86676	0.066693
4138.93808	0.066815
4137.00940	0.066892
4135.08073	0.067016
4133.15205	0.067188
4131.22338	0.067318
4129.29470	0.067408
4127.36603	0.067566
4125.43735	0.067766
4123.50867	0.067891
4121.58000	0.067971
4119.65132	0.068101
4117.72265	0.068270
4115.79397	0.068418
4113.86530	0.068547
4111.93662	0.068690
4110.00794	0.068845
4108.07927	0.068988
4106.15059	0.069137
4104.22192	0.069321
4102.29324	0.069487
4100.36457	0.069591
4098.43589	0.069714
4096.50721	0.069921
4094.57854	0.070117
4092.64986	0.070218
4090.72119	0.070301
4088.79251	0.070438
4086.86384	0.070611
4084.93516	0.070795
4083.00648	0.070976
4081.07781	0.071129
4079.14913	0.071241
4077.22046	0.071333
4075.29178	0.071458
4073.36311	0.071637
4071.43443	0.071821
4069.50575	0.071976
4067.57708	0.072135
4065.64840	0.072295
4063.71973	0.072431
4061.79105	0.072581
4059.86238	0.072789
4057.93370	0.072997
4056.00502	0.073117
4054.07635	0.073202
4052.14767	0.073360
4050.21900	0.073554
4048.29032	0.073697
4046.36165	0.073806
4044.43297	0.073938
4042.50429	0.074111
4040.57562	0.074284
4038.64694	0.074419
4036.71827	0.074555
4034.78959	0.074712
4032.86092	0.074841
4030.93224	0.074959
4029.00356	0.075139
4027.07489	0.075357
4025.14621	0.075535
4023.21754	0.075689
4021.28886	0.075856
4019.36019	0.075999
4017.43151	0.076105
4015.50283	0.076254
4013.57416	0.076473
4011.64548	0.076667
4009.71681	0.076791
4007.78813	0.076916
4005.85946	0.077081
4003.93078	0.077251
4002.00210	0.077400
4000.07343	0.077565
3998.14475	0.077762
3996.21608	0.077940
3994.28740	0.078079
3992.35873	0.078235
3990.43005	0.078413
3988.50137	0.078563
3986.57270	0.078703
3984.64402	0.078871
3982.71535	0.079035
3980.78667	0.079168
3978.85800	0.079325
3976.92932	0.079538
3975.00064	0.079746
3973.07197	0.079892
3971.14329	0.080007
3969.21462	0.080153
3967.28594	0.080333
3965.35727	0.080492
3963.42859	0.080612
3961.49991	0.080755
3959.57124	0.080946
3957.64256	0.081141
3955.71389	0.081327
3953.78521	0.081493
3951.85654	0.081621
3949.92786	0.081739
3947.99918	0.081913
3946.07051	0.082095
3944.14183	0.082207
3942.21316	0.082346
3940.28448	0.082567
3938.35581	0.082782
3936.42713	0.082931
3934.49845	0.083028
3932.56978	0.083175
3930.64110	0.083407
3928.71243	0.083574
3926.78375	0.083627
3924.85508	0.083744
3922.92640	0.084000
3920.99772	0.084214
3919.06905	0.084301
3917.14037	0.084440
3915.21170	0.084726
3913.28302	0.085000
3911.35435	0.085168
3909.42567	0.085281
3907.49699	0.085312
3905.56832	0.085260
3903.63964	0.085271
3901.71097	0.085427
3899.78229	0.085720
3897.85362	0.086108
3895.92494	0.086427
3893.99626	0.086557
3892.06759	0.086651
3890.13891	0.086825
3888.21024	0.086941
3886.28156	0.087011
3884.35289	0.087199
3882.42421	0.087376
3880.49553	0.087536
3878.56686	0.087848
3876.63818	0.088106
3874.70951	0.088172
3872.78083	0.088206
3870.85216	0.088305
3868.92348	0.088522
3866.99480	0.088770
3865.06613	0.088978
3863.13745	0.089250
3861.20878	0.089545
3859.28010	0.089699
3857.35143	0.089547
3855.42275	0.089179
3853.49407	0.089201
3851.56540	0.089839
3849.63672	0.090547
3847.70805	0.090969
3845.77937	0.091127
3843.85070	0.091128
3841.92202	0.091136
3839.99334	0.091219
3838.06467	0.091373
3836.13599	0.091606
3834.20732	0.091900
3832.27864	0.092227
3830.34997	0.092519
3828.42129	0.092699
3826.49261	0.092860
3824.56394	0.093009
3822.63526	0.092997
3820.70659	0.093038
3818.77791	0.093305
3816.84924	0.093607
3814.92056	0.093935
3812.99188	0.094298
3811.06321	0.094566
3809.13453	0.094698
3807.20586	0.094775
3805.27718	0.094850
3803.34851	0.094880
3801.41983	0.095021
3799.49115	0.095343
3797.56248	0.095637
3795.63380	0.095938
3793.70513	0.096292
3791.77645	0.096535
3789.84778	0.096708
3787.91910	0.096915
3785.99042	0.097094
3784.06175	0.097207
3782.13307	0.097291
3780.20440	0.097406
3778.27572	0.097608
3776.34705	0.097864
3774.41837	0.098106
3772.48969	0.098288
3770.56102	0.098393
3768.63234	0.098498
3766.70367	0.098692
3764.77499	0.098980
3762.84632	0.099201
3760.91764	0.099227
3758.98896	0.099301
3757.06029	0.099566
3755.13161	0.099712
3753.20294	0.099566
3751.27426	0.099464
3749.34559	0.099689
3747.41691	0.099844
3745.48823	0.099757
3743.55956	0.100085
3741.63088	0.100821
3739.70221	0.101152
3737.77353	0.100991
3735.84486	0.100981
3733.91618	0.101413
3731.98750	0.101984
3730.05883	0.102341
3728.13015	0.102475
3726.20148	0.102595
3724.27280	0.102774
3722.34413	0.102968
3720.41545	0.103261
3718.48677	0.103633
3716.55810	0.103844
3714.62942	0.103793
3712.70075	0.103735
3710.77207	0.103977
3708.84340	0.104413
3706.91472	0.104774
3704.98604	0.104975
3703.05737	0.105067
3701.12869	0.105182
3699.20002	0.105426
3697.27134	0.105770
3695.34267	0.106031
3693.41399	0.106021
3691.48531	0.105867
3689.55664	0.105949
3687.62796	0.106383
3685.69929	0.106865
3683.77061	0.107180
3681.84194	0.107391
3679.91326	0.107463
3677.98458	0.107289
3676.05591	0.107172
3674.12723	0.107469
3672.19856	0.107835
3670.26988	0.108002
3668.34121	0.108321
3666.41253	0.108854
3664.48385	0.109271
3662.55518	0.109459
3660.62650	0.109553
3658.69783	0.109628
3656.76915	0.109696
3654.84048	0.109754
3652.91180	0.109637
3650.98312	0.109370
3649.05445	0.109280
3647.12577	0.109568
3645.19710	0.110175
3643.26842	0.110820
3641.33975	0.111221
3639.41107	0.111394
3637.48239	0.111533
3635.55372	0.111693
3633.62504	0.111715
3631.69637	0.111452
3629.76769	0.111236
3627.83902	0.111597
3625.91034	0.112267
3623.98166	0.112625
3622.05299	0.112656
3620.12431	0.112645
3618.19564	0.112742
3616.26696	0.112892
3614.33829	0.113064
3612.40961	0.113265
3610.48093	0.113362
3608.55226	0.113444
3606.62358	0.113762
3604.69491	0.114156
3602.76623	0.114309
3600.83756	0.114318
3598.90888	0.114433
3596.98020	0.114620
3595.05153	0.114759
3593.12285	0.114871
3591.19418	0.114949
3589.26550	0.114973
3587.33683	0.115091
3585.40815	0.115396
3583.47947	0.115768
3581.55080	0.116044
3579.62212	0.116147
3577.69345	0.116191
3575.76477	0.116368
3573.83610	0.116632
3571.90742	0.116732
3569.97874	0.116606
3568.05007	0.116572
3566.12139	0.116831
3564.19272	0.117145
3562.26404	0.117377
3560.33537	0.117663
3558.40669	0.117929
3556.47801	0.117995
3554.54934	0.117986
3552.62066	0.118145
3550.69199	0.118385
3548.76331	0.118446
3546.83464	0.118457
3544.90596	0.118702
3542.97728	0.119031
3541.04861	0.119161
3539.11993	0.119191
3537.19126	0.119341
3535.26258	0.119548
3533.33391	0.119628
3531.40523	0.119635
3529.47655	0.119721
3527.54788	0.119813
3525.61920	0.119820
3523.69053	0.119898
3521.76185	0.120109
3519.83318	0.120238
3517.90450	0.120221
3515.97582	0.120273
3514.04715	0.120445
3512.11847	0.120529
3510.18980	0.120491
3508.26112	0.120534
3506.33245	0.120698
3504.40377	0.120785
3502.47509	0.120771
3500.54642	0.120847
3498.61774	0.121001
3496.68907	0.121035
3494.76039	0.120964
3492.83172	0.120995
3490.90304	0.121140
3488.97436	0.121213
3487.04569	0.121201
3485.11701	0.121262
3483.18834	0.121405
3481.25966	0.121492
3479.33099	0.121540
3477.40231	0.121699
3475.47363	0.121954
3473.54496	0.122106
3471.61628	0.122156
3469.68761	0.122344
3467.75893	0.122679
3465.83026	0.122909
3463.90158	0.123021
3461.97290	0.123262
3460.04423	0.123620
3458.11555	0.123847
3456.18688	0.123978
3454.25820	0.124228
3452.32953	0.124517
3450.40085	0.124612
3448.47217	0.124604
3446.54350	0.124782
3444.61482	0.125106
3442.68615	0.125328
3440.75747	0.125506
3438.82880	0.125874
3436.90012	0.126343
3434.97144	0.126673
3433.04277	0.126991
3431.11409	0.127515
3429.18542	0.128074
3427.25674	0.128433
3425.32807	0.128743
3423.39939	0.129186
3421.47071	0.129617
3419.54204	0.129922
3417.61336	0.130258
3415.68469	0.130737
3413.75601	0.131183
3411.82734	0.131430
3409.89866	0.131629
3407.96998	0.131939
3406.04131	0.132225
3404.11263	0.132401
3402.18396	0.132628
3400.25528	0.132979
3398.32661	0.133305
3396.39793	0.133539
3394.46925	0.133823
3392.54058	0.134212
3390.61190	0.134514
3388.68323	0.134669
3386.75455	0.134910
3384.82588	0.135328
3382.89720	0.135686
3380.96852	0.135879
3379.03985	0.136114
3377.11117	0.136469
3375.18250	0.136733
3373.25382	0.136841
3371.32515	0.137035
3369.39647	0.137404
3367.46779	0.137705
3365.53912	0.137844
3363.61044	0.138045
3361.68177	0.138388
3359.75309	0.138650
3357.82442	0.138794
3355.89574	0.139051
3353.96706	0.139405
3352.03839	0.139611
3350.10971	0.139729
3348.18104	0.140025
3346.25236	0.140443
3344.32369	0.140714
3342.39501	0.140854
3340.46633	0.141101
3338.53766	0.141447
3336.60898	0.141654
3334.68031	0.141761
3332.75163	0.142040
3330.82296	0.142441
3328.89428	0.142693
3326.96560	0.142866
3325.03693	0.143195
3323.10825	0.143573
3321.17958	0.143789
3319.25090	0.143945
3317.32223	0.144236
3315.39355	0.144555
3313.46487	0.144730
3311.53620	0.144915
3309.60752	0.145273
3307.67885	0.145625
3305.75017	0.145793
3303.82150	0.145960
3301.89282	0.146336
3299.96414	0.146733
3298.03547	0.146930
3296.10679	0.147107
3294.17812	0.147490
3292.24944	0.147893
3290.32077	0.148073
3288.39209	0.148223
3286.46341	0.148591
3284.53474	0.149005
3282.60606	0.149243
3280.67739	0.149444
3278.74871	0.149792
3276.82004	0.150149
3274.89136	0.150372
3272.96268	0.150620
3271.03401	0.150980
3269.10533	0.151249
3267.17666	0.151372
3265.24798	0.151584
3263.31931	0.151978
3261.39063	0.152324
3259.46195	0.152516
3257.53328	0.152785
3255.60460	0.153223
3253.67593	0.153583
3251.74725	0.153778
3249.81858	0.154056
3247.88990	0.154483
3245.96122	0.154790
3244.03255	0.154919
3242.10387	0.155118
3240.17520	0.155460
3238.24652	0.155745
3236.31785	0.155922
3234.38917	0.156206
3232.46049	0.156632
3230.53182	0.156939
3228.60314	0.157083
3226.67447	0.157338
3224.74579	0.157719
3222.81712	0.157961
3220.88844	0.158083
3218.95976	0.158346
3217.03109	0.158744
3215.10241	0.159022
3213.17374	0.159176
3211.24506	0.159463
3209.31639	0.159878
3207.38771	0.160146
3205.45903	0.160288
3203.53036	0.160587
3201.60168	0.160998
3199.67301	0.161254
3197.74433	0.161414
3195.81566	0.161731
3193.88698	0.162166
3191.95830	0.162476
3190.02963	0.162695
3188.10095	0.163043
3186.17228	0.163449
3184.24360	0.163668
3182.31493	0.163818
3180.38625	0.164150
3178.45757	0.164527
3176.52890	0.164723
3174.60022	0.164904
3172.67155	0.165307
3170.74287	0.165719
3168.81420	0.165873
3166.88552	0.166006
3164.95684	0.166398
3163.02817	0.166819
3161.09949	0.167005
3159.17082	0.167192
3157.24214	0.167607
3155.31347	0.168002
3153.38479	0.168174
3151.45611	0.168354
3149.52744	0.168730
3147.59876	0.169083
3145.67009	0.169249
3143.74141	0.169438
3141.81274	0.169794
3139.88406	0.170137
3137.95538	0.170352
3136.02671	0.170595
3134.09803	0.170950
3132.16936	0.171248
3130.24068	0.171396
3128.31201	0.171603
3126.38333	0.171988
3124.45465	0.172322
3122.52598	0.172487
3120.59730	0.172719
3118.66863	0.173141
3116.73995	0.173463
3114.81128	0.173535
3112.88260	0.173695
3110.95392	0.174129
3109.02525	0.174513
3107.09657	0.174669
3105.16790	0.174873
3103.23922	0.175231
3101.31055	0.175498
3099.38187	0.175625
3097.45319	0.175885
3095.52452	0.176297
3093.59584	0.176580
3091.66717	0.176728
3089.73849	0.176997
3087.80982	0.177389
3085.88114	0.177648
3083.95246	0.177772
3082.02379	0.178026
3080.09511	0.178379
3078.16644	0.178556
3076.23776	0.178642
3074.30909	0.178935
3072.38041	0.179334
3070.45173	0.179520
3068.52306	0.179580
3066.59438	0.179831
3064.66571	0.180215
3062.73703	0.180429
3060.80836	0.180529
3058.87968	0.180799
3056.95100	0.181163
3055.02233	0.181353
3053.09365	0.181462
3051.16498	0.181745
3049.23630	0.182080
3047.30763	0.182228
3045.37895	0.182335
3043.45027	0.182634
3041.52160	0.182954
3039.59292	0.183042
3037.66425	0.183076
3035.73557	0.183337
3033.80690	0.183661
3031.87822	0.183774
3029.94954	0.183836
3028.02087	0.184118
3026.09219	0.184441
3024.16352	0.184553
3022.23484	0.184632
3020.30617	0.184888
3018.37749	0.185125
3016.44881	0.185169
3014.52014	0.185258
3012.59146	0.185554
3010.66279	0.185807
3008.73411	0.185872
3006.80544	0.186002
3004.87676	0.186309
3002.94808	0.186513
3001.01941	0.186525
2999.09073	0.186661
2997.16206	0.187026
2995.23338	0.187266
2993.30471	0.187236
2991.37603	0.187280
2989.44735	0.187535
2987.51868	0.187681
2985.59000	0.187596
2983.66133	0.187582
2981.73265	0.187755
2979.80398	0.187797
2977.87530	0.187566
2975.94662	0.187379
2974.01795	0.187397
2972.08927	0.187329
2970.16060	0.187041
2968.23192	0.186808
2966.30325	0.186754
2964.37457	0.186695
2962.44589	0.186622
2960.51722	0.186764
2958.58854	0.187083
2956.65987	0.187312
2954.73119	0.187450
2952.80252	0.187737
2950.87384	0.188124
2948.94516	0.188300
2947.01649	0.188284
2945.08781	0.188402
2943.15914	0.188616
2941.23046	0.188559
2939.30179	0.188252
2937.37311	0.188064
2935.44443	0.188007
2933.51576	0.187799
2931.58708	0.187475
2929.65841	0.187310
2927.72973	0.187262
2925.80106	0.187106
2923.87238	0.186938
2921.94370	0.187012
2920.01503	0.187287
2918.08635	0.187611
2916.15768	0.188190
2914.22900	0.189279
2912.30033	0.190564
2910.37165	0.191545
2908.44297	0.192278
2906.51430	0.193096
2904.58562	0.193907
2902.65695	0.194459
2900.72827	0.194924
2898.79960	0.195571
2896.87092	0.196239
2894.94224	0.196694
2893.01357	0.197105
2891.08489	0.197681
2889.15622	0.198246
2887.22754	0.198615
2885.29887	0.198986
2883.37019	0.199548
2881.44151	0.200074
2879.51284	0.200346
2877.58416	0.200581
2875.65549	0.201001
2873.72681	0.201394
2871.79814	0.201584
2869.86946	0.201840
2867.94078	0.202323
2866.01211	0.202752
2864.08343	0.202940
2862.15476	0.203108
2860.22608	0.203409
2858.29741	0.203622
2856.36873	0.203600
2854.44005	0.203571
2852.51138	0.203731
2850.58270	0.204063
2848.65403	0.204716
2846.72535	0.205908
2844.79668	0.207383
2842.86800	0.208581
2840.93932	0.209377
2839.01065	0.210124
2837.08197	0.210934
2835.15330	0.211560
2833.22462	0.211988
2831.29595	0.212506
2829.36727	0.213157
2827.43859	0.213665
2825.50992	0.214007
2823.58124	0.214510
2821.65257	0.215203
2819.72389	0.215686
2817.79522	0.215916
2815.86654	0.216310
2813.93786	0.216940
2812.00919	0.217401
2810.08051	0.217620
2808.15184	0.217984
2806.22316	0.218551
2804.29449	0.218978
2802.36581	0.219255
2800.43713	0.219703
2798.50846	0.220272
2796.57978	0.220634
2794.65111	0.220861
2792.72243	0.221269
2790.79376	0.221759
2788.86508	0.222035
2786.93640	0.222234
2785.00773	0.222654
2783.07905	0.223148
2781.15038	0.223436
2779.22170	0.223630
2777.29303	0.224016
2775.36435	0.224529
2773.43567	0.224850
2771.50700	0.225025
2769.57832	0.225371
2767.64965	0.225814
2765.72097	0.226054
2763.79230	0.226223
2761.86362	0.226587
2759.93494	0.226999
2758.00627	0.227243
2756.07759	0.227456
2754.14892	0.227836
2752.22024	0.228230
2750.29157	0.228433
2748.36289	0.228630
2746.43421	0.229013
2744.50554	0.229371
2742.57686	0.229531
2740.64819	0.229751
2738.71951	0.230193
2736.79084	0.230558
2734.86216	0.230673
2732.93348	0.230847
2731.00481	0.231303
2729.07613	0.231748
2727.14746	0.231935
2725.21878	0.232099
2723.29011	0.232460
2721.36143	0.232825
2719.43275	0.232999
2717.50408	0.233178
2715.57540	0.233543
2713.64673	0.233866
2711.71805	0.233993
2709.78938	0.234202
2707.86070	0.234646
2705.93202	0.235018
2704.00335	0.235181
2702.07467	0.235437
2700.14600	0.235865
2698.21732	0.236145
2696.28865	0.236220
2694.35997	0.236446
2692.43129	0.236921
2690.50262	0.237276
2688.57394	0.237370
2686.64527	0.237576
2684.71659	0.238023
2682.78792	0.238341
2680.85924	0.238433
2678.93056	0.238648
2677.00189	0.239076
2675.07321	0.239397
2673.14454	0.239561
2671.21586	0.239850
2669.28719	0.240274
2667.35851	0.240547
2665.42983	0.240678
2663.50116	0.240974
2661.57248	0.241387
2659.64381	0.241603
2657.71513	0.241697
2655.78646	0.242004
2653.85778	0.242480
2651.92910	0.242786
2650.00043	0.242936
2648.07175	0.243238
2646.14308	0.243687
2644.21440	0.244006
2642.28573	0.244207
2640.35705	0.244551
2638.42837	0.244990
2636.49970	0.245258
2634.57102	0.245409
2632.64235	0.245740
2630.71367	0.246190
2628.78500	0.246447
2626.85632	0.246617
2624.92764	0.247002
2622.99897	0.247450
2621.07029	0.247664
2619.14162	0.247811
2617.21294	0.248178
2615.28427	0.248589
2613.35559	0.248802
2611.42691	0.249016
2609.49824	0.249450
2607.56956	0.249894
2605.64089	0.250122
2603.71221	0.250288
2601.78354	0.250644
2599.85486	0.251087
2597.92618	0.251346
2595.99751	0.251508
2594.06883	0.251806
2592.14016	0.252143
2590.21148	0.252361
2588.28281	0.252625
2586.35413	0.253064
2584.42545	0.253461
2582.49678	0.253654
2580.56810	0.253833
2578.63943	0.254190
2576.71075	0.254537
2574.78208	0.254718
2572.85340	0.254978
2570.92472	0.255432
2568.99605	0.255773
2567.06737	0.255881
2565.13870	0.256091
2563.21002	0.256515
2561.28135	0.256792
2559.35267	0.256812
2557.42399	0.256952
2555.49532	0.257377
2553.56664	0.257735
2551.63797	0.257879
2549.70929	0.258125
2547.78062	0.258559
2545.85194	0.258871
2543.92326	0.259012
2541.99459	0.259270
2540.06591	0.259659
2538.13724	0.259903
2536.20856	0.260013
2534.27989	0.260259
2532.35121	0.260667
2530.42253	0.260965
2528.49386	0.261109
2526.56518	0.261389
2524.63651	0.261829
2522.70783	0.262102
2520.77916	0.262213
2518.85048	0.262500
2516.92181	0.262952
2514.99313	0.263255
2513.06445	0.263428
2511.13578	0.263772
2509.20710	0.264271
2507.27843	0.264619
2505.34975	0.264801
2503.42108	0.265073
2501.49240	0.265458
2499.56372	0.265724
2497.63505	0.265902
2495.70637	0.266269
2493.77770	0.266785
2491.84902	0.267134
2489.92035	0.267330
2487.99167	0.267667
2486.06299	0.268094
2484.13432	0.268331
2482.20564	0.268524
2480.27697	0.268975
2478.34829	0.269472
2476.41962	0.269681
2474.49094	0.269815
2472.56226	0.270192
2470.63359	0.270626
2468.70491	0.270823
2466.77624	0.270948
2464.84756	0.271309
2462.91889	0.271783
2460.99021	0.272084
2459.06153	0.272285
2457.13286	0.272592
2455.20418	0.272926
2453.27551	0.273160
2451.34683	0.273412
2449.41816	0.273770
2447.48948	0.274109
2445.56080	0.274339
2443.63213	0.274608
2441.70345	0.275024
2439.77478	0.275391
2437.84610	0.275570
2435.91743	0.275771
2433.98875	0.276151
2432.06007	0.276493
2430.13140	0.276608
2428.20272	0.276721
2426.27405	0.277083
2424.34537	0.277522
2422.41670	0.277796
2420.48802	0.278057
2418.55934	0.278460
2416.63067	0.278791
2414.70199	0.278938
2412.77332	0.279160
2410.84464	0.279535
2408.91597	0.279831
2406.98729	0.280031
2405.05861	0.280338
2403.12994	0.280748
2401.20126	0.281039
2399.27259	0.281202
2397.34391	0.281482
2395.41524	0.281908
2393.48656	0.282241
2391.55788	0.282431
2389.62921	0.282716
2387.70053	0.283111
2385.77186	0.283311
2383.84318	0.283288
2381.91451	0.283340
2379.98583	0.283532
2378.05715	0.283600
2376.12848	0.283442
2374.19980	0.283326
2372.27113	0.283384
2370.34245	0.283421
2368.41378	0.283402
2366.48510	0.283524
2364.55642	0.283773
2362.62775	0.283981
2360.69907	0.284196
2358.77040	0.284548
2356.84172	0.284969
2354.91305	0.285381
2352.98437	0.285940
2351.05569	0.286715
2349.12702	0.287313
2347.19834	0.287352
2345.26967	0.287165
2343.34099	0.287259
2341.41232	0.287553
2339.48364	0.287776
2337.55496	0.287962
2335.62629	0.288279
2333.69761	0.288678
2331.76894	0.288975
2329.84026	0.289219
2327.91159	0.289547
2325.98291	0.289904
2324.05423	0.290212
2322.12556	0.290575
2320.19688	0.291079
2318.26821	0.291566
2316.33953	0.291907
2314.41086	0.292252
2312.48218	0.292716
2310.55350	0.293155
2308.62483	0.293446
2306.69615	0.293732
2304.76748	0.294175
2302.83880	0.294632
2300.91013	0.294921
2298.98145	0.295179
2297.05277	0.295573
2295.12410	0.295982
2293.19542	0.296235
2291.26675	0.296447
2289.33807	0.296788
2287.40940	0.297117
2285.48072	0.297313
2283.55204	0.297553
2281.62337	0.297918
2279.69469	0.298216
2277.76602	0.298382
2275.83734	0.298613
2273.90867	0.298968
2271.97999	0.299264
2270.05131	0.299421
2268.12264	0.299601
2266.19396	0.299911
2264.26529	0.300229
2262.33661	0.300470
2260.40794	0.300703
2258.47926	0.300980
2256.55058	0.301248
2254.62191	0.301470
2252.69323	0.301737
2250.76456	0.302112
2248.83588	0.302464
2246.90721	0.302666
2244.97853	0.302845
2243.04985	0.303119
2241.12118	0.303374
2239.19250	0.303566
2237.26383	0.303815
2235.33515	0.304116
2233.40648	0.304381
2231.47780	0.304643
2229.54912	0.304934
2227.62045	0.305205
2225.69177	0.305403
2223.76310	0.305581
2221.83442	0.305863
2219.90575	0.306206
2217.97707	0.306423
2216.04839	0.306524
2214.11972	0.306762
2212.19104	0.307128
2210.26237	0.307344
2208.33369	0.307458
2206.40502	0.307745
2204.47634	0.308170
2202.54766	0.308444
2200.61899	0.308540
2198.69031	0.308708
2196.76164	0.309003
2194.83296	0.309266
2192.90429	0.309458
2190.97561	0.309685
2189.04693	0.309932
2187.11826	0.310117
2185.18958	0.310328
2183.26091	0.310653
2181.33223	0.310944
2179.40356	0.311065
2177.47488	0.311191
2175.54620	0.311507
2173.61753	0.311840
2171.68885	0.311973
2169.76018	0.312084
2167.83150	0.312417
2165.90283	0.312805
2163.97415	0.313009
2162.04547	0.313162
2160.11680	0.313467
2158.18812	0.313834
2156.25945	0.314103
2154.33077	0.314316
2152.40210	0.314546
2150.47342	0.314743
2148.54474	0.314871
2146.61607	0.315034
2144.68739	0.315325
2142.75872	0.315628
2140.83004	0.315815
2138.90137	0.316009
2136.97269	0.316342
2135.04401	0.316654
2133.11534	0.316813
2131.18666	0.316990
2129.25799	0.317286
2127.32931	0.317551
2125.40064	0.317689
2123.47196	0.317842
2121.54328	0.318162
2119.61461	0.318516
2117.68593	0.318717
2115.75726	0.318853
2113.82858	0.319062
2111.89991	0.319303
2109.97123	0.319529
2108.04255	0.319788
2106.11388	0.320086
2104.18520	0.320301
2102.25653	0.320418
2100.32785	0.320626
2098.39918	0.320926
2096.47050	0.321107
2094.54182	0.321228
2092.61315	0.321538
2090.68447	0.321985
2088.75580	0.322285
2086.82712	0.322402
2084.89845	0.322598
2082.96977	0.322959
2081.04109	0.323272
2079.11242	0.323460
2077.18374	0.323662
2075.25507	0.323897
2073.32639	0.324096
2071.39772	0.324303
2069.46904	0.324547
2067.54036	0.324753
2065.61169	0.324914
2063.68301	0.325127
2061.75434	0.325416
2059.82566	0.325709
2057.89699	0.325935
2055.96831	0.326150
2054.03963	0.326470
2052.11096	0.326804
2050.18228	0.326970
2048.25361	0.327055
2046.32493	0.327272
2044.39626	0.327576
2042.46758	0.327770
2040.53890	0.327894
2038.61023	0.328150
2036.68155	0.328497
2034.75288	0.328738
2032.82420	0.328892
2030.89553	0.329098
2028.96685	0.329352
2027.03817	0.329564
2025.10950	0.329749
2023.18082	0.329990
2021.25215	0.330200
2019.32347	0.330296
2017.39480	0.330460
2015.46612	0.330822
2013.53744	0.331196
2011.60877	0.331448
2009.68009	0.331702
2007.75142	0.332013
2005.82274	0.332245
2003.89407	0.332348
2001.96539	0.332479
2000.03671	0.332775
1998.10804	0.333095
1996.17936	0.333172
1994.25069	0.333068
1992.32201	0.333147
1990.39334	0.333438
1988.46466	0.333684
1986.53598	0.333885
1984.60731	0.334179
1982.67863	0.334505
1980.74996	0.334741
1978.82128	0.334897
1976.89261	0.335037
1974.96393	0.335189
1973.03525	0.335359
1971.10658	0.335548
1969.17790	0.335728
1967.24923	0.335892
1965.32055	0.336090
1963.39188	0.336316
1961.46320	0.336493
1959.53452	0.336561
1957.60585	0.336613
1955.67717	0.336861
1953.74850	0.337294
1951.81982	0.337653
1949.89115	0.337807
1947.96247	0.337892
1946.03379	0.337978
1944.10512	0.337973
1942.17644	0.338047
1940.24777	0.338389
1938.31909	0.338790
1936.39042	0.339074
1934.46174	0.339300
1932.53306	0.339511
1930.60439	0.339706
1928.67571	0.339863
1926.74704	0.339972
1924.81836	0.340115
1922.88969	0.340346
1920.96101	0.340497
1919.03233	0.340528
1917.10366	0.340795
1915.17498	0.341316
1913.24631	0.341614
1911.31763	0.341616
1909.38896	0.341702
1907.46028	0.342021
1905.53160	0.342332
1903.60293	0.342503
1901.67425	0.342688
1899.74558	0.342919
1897.81690	0.343061
1895.88823	0.343160
1893.95955	0.343329
1892.03087	0.343402
1890.10220	0.343383
1888.17352	0.343609
1886.24485	0.344056
1884.31617	0.344430
1882.38750	0.344636
1880.45882	0.344794
1878.53014	0.345026
1876.60147	0.345261
1874.67279	0.345378
1872.74412	0.345340
1870.81544	0.345210
1868.88677	0.345220
1866.95809	0.345534
1865.02941	0.345996
1863.10074	0.346440
1861.17206	0.346822
1859.24339	0.347061
1857.31471	0.347246
1855.38604	0.347534
1853.45736	0.347847
1851.52868	0.348020
1849.60001	0.348028
1847.67133	0.347765
1845.74266	0.347224
1843.81398	0.347217
1841.88531	0.348169
1839.95663	0.349116
1838.02795	0.349426
1836.09928	0.349507
1834.17060	0.349668
1832.24193	0.349711
1830.31325	0.349608
1828.38458	0.349565
1826.45590	0.349660
1824.52722	0.350120
1822.59855	0.350854
1820.66987	0.351245
1818.74120	0.351254
1816.81252	0.351370
1814.88385	0.351625
1812.95517	0.351727
1811.02649	0.351748
1809.09782	0.351952
1807.16914	0.352243
1805.24047	0.352278
1803.31179	0.352046
1801.38312	0.351966
1799.45444	0.352230
1797.52576	0.352543
1795.59709	0.352641
1793.66841	0.352488
1791.73974	0.352374
1789.81106	0.352676
1787.88239	0.353127
1785.95371	0.353335
1784.02503	0.353346
1782.09636	0.353265
1780.16768	0.353290
1778.23901	0.353457
1776.31033	0.353375
1774.38166	0.352907
1772.45298	0.352549
1770.52430	0.352610
1768.59563	0.352957
1766.66695	0.353585
1764.73828	0.354114
1762.80960	0.354128
1760.88093	0.353971
1758.95225	0.353801
1757.02357	0.353654
1755.09490	0.353670
1753.16622	0.353386
1751.23755	0.352704
1749.30887	0.352365
1747.38020	0.352543
1745.45152	0.352725
1743.52284	0.352744
1741.59417	0.352736
1739.66549	0.352697
1737.73682	0.352216
1735.80814	0.351066
1733.87947	0.350398
1731.95079	0.351041
1730.02211	0.352071
1728.09344	0.352805
1726.16476	0.353196
1724.23609	0.353232
1722.30741	0.352916
1720.37874	0.352107
1718.45006	0.351375
1716.52138	0.351521
1714.59271	0.352382
1712.66403	0.353328
1710.73536	0.353855
1708.80668	0.353760
1706.87801	0.353376
1704.94933	0.353144
1703.02065	0.352557
1701.09198	0.351495
1699.16330	0.351001
1697.23463	0.351128
1695.30595	0.351762
1693.37728	0.352971
1691.44860	0.353572
1689.51992	0.353191
1687.59125	0.352385
1685.66257	0.351405
1683.73390	0.351112
1681.80522	0.351810
1679.87655	0.352561
1677.94787	0.352772
1676.01919	0.352600
1674.09052	0.352360
1672.16184	0.351868
1670.23317	0.351245
1668.30449	0.351495
1666.37582	0.352393
1664.44714	0.352706
1662.51846	0.352557
1660.58979	0.352589
1658.66111	0.352557
1656.73244	0.351692
1654.80376	0.350140
1652.87509	0.349632
1650.94641	0.350549
1649.01773	0.350987
1647.08906	0.350626
1645.16038	0.350814
1643.23171	0.351493
1641.30303	0.351847
1639.37436	0.351537
1637.44568	0.350606
1635.51700	0.350087
1633.58833	0.350832
1631.65965	0.351722
1629.73098	0.351623
1627.80230	0.351046
1625.87363	0.350346
1623.94495	0.349431
1622.01627	0.348798
1620.08760	0.348710
1618.15892	0.349056
1616.23025	0.350043
1614.30157	0.351475
1612.37290	0.352603
1610.44422	0.353232
1608.51554	0.353674
1606.58687	0.354063
1604.65819	0.354405
1602.72952	0.354751
1600.80084	0.355100
1598.87217	0.355347
1596.94349	0.355496
1595.01481	0.355736
1593.08614	0.356076
1591.15746	0.356340
1589.22879	0.356533
1587.30011	0.356767
1585.37144	0.356995
1583.44276	0.357172
1581.51408	0.357341
1579.58541	0.357359
1577.65673	0.357212
1575.72806	0.357370
1573.79938	0.357843
1571.87071	0.357934
1569.94203	0.357808
1568.01335	0.358159
1566.08468	0.358776
1564.15600	0.359070
1562.22733	0.358433
1560.29865	0.357047
1558.36998	0.356632
1556.44130	0.357770
1554.51262	0.359038
1552.58395	0.359714
1550.65527	0.360095
1548.72660	0.360304
1546.79792	0.360125
1544.86925	0.359499
1542.94057	0.358759
1541.01189	0.358358
1539.08322	0.358868
1537.15454	0.359922
1535.22587	0.360355
1533.29719	0.360288
1531.36852	0.360408
1529.43984	0.360498
1527.51116	0.360373
1525.58249	0.360162
1523.65381	0.359551
1521.72514	0.358832
1519.79646	0.358907
1517.86779	0.359558
1515.93911	0.360300
1514.01043	0.360937
1512.08176	0.360954
1510.15308	0.360256
1508.22441	0.359370
1506.29573	0.359274
1504.36706	0.360295
1502.43838	0.361220
1500.50970	0.361200
1498.58103	0.360844
1496.65235	0.360803
1494.72368	0.360777
1492.79500	0.360152
1490.86633	0.359231
1488.93765	0.358864
1487.00897	0.359043
1485.08030	0.359174
1483.15162	0.359002
1481.22295	0.358545
1479.29427	0.357739
1477.36560	0.356573
1475.43692	0.355270
1473.50824	0.354033
1471.57957	0.353163
1469.65089	0.352642
1467.72222	0.351848
1465.79354	0.350864
1463.86487	0.350278
1461.93619	0.349732
1460.00751	0.348397
1458.07884	0.346718
1456.15016	0.346228
1454.22149	0.346979
1452.29281	0.347601
1450.36414	0.347616
1448.43546	0.347522
1446.50678	0.347764
1444.57811	0.348258
1442.64943	0.348689
1440.72076	0.348741
1438.79208	0.348213
1436.86341	0.348004
1434.93473	0.349005
1433.00605	0.350191
1431.07738	0.350689
1429.14870	0.351219
1427.22003	0.352026
1425.29135	0.352546
1423.36268	0.352635
1421.43400	0.352399
1419.50532	0.352200
1417.57665	0.352642
1415.64797	0.353478
1413.71930	0.353964
1411.79062	0.354111
1409.86195	0.354251
1407.93327	0.354349
1406.00459	0.354301
1404.07592	0.354175
1402.14724	0.353889
1400.21857	0.353401
1398.28989	0.353012
1396.36122	0.352767
1394.43254	0.352689
1392.50386	0.352833
1390.57519	0.352561
1388.64651	0.351651
1386.71784	0.350902
1384.78916	0.350690
1382.86049	0.350673
1380.93181	0.350568
1379.00313	0.350340
1377.07446	0.350040
1375.14578	0.349764
1373.21711	0.349699
1371.28843	0.349868
1369.35976	0.350059
1367.43108	0.350221
1365.50240	0.350270
1363.57373	0.350133
1361.64505	0.350112
1359.71638	0.350345
1357.78770	0.350522
1355.85903	0.350545
1353.93035	0.350637
1352.00167	0.350770
1350.07300	0.350804
1348.14432	0.350866
1346.21565	0.351001
1344.28697	0.351066
1342.35830	0.350929
1340.42962	0.350636
1338.50094	0.350465
1336.57227	0.350485
1334.64359	0.350454
1332.71492	0.350251
1330.78624	0.349925
1328.85757	0.349496
1326.92889	0.349062
1325.00021	0.348734
1323.07154	0.348431
1321.14286	0.348041
1319.21419	0.347589
1317.28551	0.347187
1315.35684	0.346825
1313.42816	0.346396
1311.49948	0.345950
1309.57081	0.345561
1307.64213	0.345160
1305.71346	0.344682
1303.78478	0.344155
1301.85611	0.343609
1299.92743	0.343073
1297.99875	0.342647
1296.07008	0.342327
1294.14140	0.341948
1292.21273	0.341466
1290.28405	0.341063
1288.35538	0.340786
1286.42670	0.340482
1284.49802	0.340083
1282.56935	0.339609
1280.64067	0.339058
1278.71200	0.338384
1276.78332	0.337614
1274.85465	0.336781
1272.92597	0.335799
1270.99729	0.334618
1269.06862	0.333175
1267.13994	0.331430
1265.21127	0.329658
1263.28259	0.328357
1261.35392	0.327779
1259.42524	0.327709
1257.49656	0.327785
1255.56789	0.327765
1253.63921	0.327550
1251.71054	0.327126
1249.78186	0.326457
1247.85319	0.325551
1245.92451	0.324529
1243.99583	0.323571
1242.06716	0.322742
1240.13848	0.321821
1238.20981	0.320646
1236.28113	0.319413
1234.35246	0.318267
1232.42378	0.317149
1230.49510	0.316002
1228.56643	0.314833
1226.63775	0.313786
1224.70908	0.312927
1222.78040	0.312039
1220.85173	0.310984
1218.92305	0.309895
1216.99437	0.308876
1215.06570	0.307887
1213.13702	0.306871
1211.20835	0.305827
1209.27967	0.304788
1207.35100	0.303708
1205.42232	0.302556
1203.49364	0.301393
1201.56497	0.300217
1199.63629	0.299029
1197.70762	0.297952
1195.77894	0.297017
1193.85027	0.296004
1191.92159	0.294764
1189.99291	0.293364
1188.06424	0.291982
1186.13556	0.290742
1184.20689	0.289413
1182.27821	0.287797
1180.34954	0.286112
1178.42086	0.284548
1176.49218	0.283015
1174.56351	0.281449
1172.63483	0.279903
1170.70616	0.278364
1168.77748	0.276808
1166.84881	0.275213
1164.92013	0.273551
1162.99145	0.271903
1161.06278	0.270352
1159.13410	0.268905
1157.20543	0.267505
1155.27675	0.266063
1153.34808	0.264588
1151.41940	0.263203
1149.49072	0.261936
1147.56205	0.260625
1145.63337	0.259165
1143.70470	0.257613
1141.77602	0.256057
1139.84735	0.254450
1137.91867	0.252649
1135.98999	0.250600
1134.06132	0.248309
1132.13264	0.245711
1130.20397	0.242710
1128.27529	0.239268
1126.34662	0.235410
1124.41794	0.231390
1122.48926	0.227514
1120.56059	0.223753
1118.63191	0.220035
1116.70324	0.216509
1114.77456	0.213368
1112.84589	0.210701
1110.91721	0.208527
1108.98853	0.206812
1107.05986	0.205534
1105.13118	0.204751
1103.20251	0.204475
1101.27383	0.204648
1099.34516	0.205217
1097.41648	0.206176
1095.48780	0.207499
1093.55913	0.208958
1091.63045	0.210328
1089.70178	0.211598
1087.77310	0.212796
1085.84443	0.213823
1083.91575	0.214631
1081.98707	0.215249
1080.05840	0.215667
1078.12972	0.216007
1076.20105	0.216412
1074.27237	0.216752
1072.34370	0.216843
1070.41502	0.216825
1068.48634	0.217034
1066.55767	0.217465
1064.62899	0.217812
1062.70032	0.217967
1060.77164	0.218158
1058.84297	0.218566
1056.91429	0.219148
1054.98561	0.219757
1053.05694	0.220236
1051.12826	0.220612
1049.19959	0.221037
1047.27091	0.221588
1045.34224	0.222230
1043.41356	0.222900
1041.48488	0.223579
1039.55621	0.224275
1037.62753	0.224973
1035.69886	0.225568
1033.77018	0.226052
1031.84151	0.226560
1029.91283	0.227142
1027.98415	0.227753
1026.05548	0.228312
1024.12680	0.228781
1022.19813	0.229299
1020.26945	0.230036
1018.34078	0.230897
1016.41210	0.231694
1014.48342	0.232490
1012.55475	0.233460
1010.62607	0.234621
1008.69740	0.235775
1006.76872	0.236716
1004.84005	0.237446
1002.91137	0.238160
1000.98269	0.238903
999.05402	0.239444
997.12534	0.239788
995.19667	0.240183
993.26799	0.240646
991.33932	0.241015
989.41064	0.241219
987.48196	0.241351
985.55329	0.241544
983.62461	0.241809
981.69594	0.241969
979.76726	0.241901
977.83859	0.241691
975.90991	0.241515
973.98123	0.241431
972.05256	0.241239
970.12388	0.240861
968.19521	0.240497
966.26653	0.240286
964.33786	0.240175
962.40918	0.240016
960.48050	0.239735
958.55183	0.239434
956.62315	0.239207
954.69448	0.238948
952.76580	0.238587
950.83713	0.238162
948.90845	0.237681
946.97977	0.237205
945.05110	0.236744
943.12242	0.236196
941.19375	0.235465
939.26507	0.234545
937.33640	0.233523
935.40772	0.232478
933.47904	0.231387
931.55037	0.230230
929.62169	0.229135
927.69302	0.228151
925.76434	0.227092
923.83567	0.225789
921.90699	0.224382
919.97831	0.223097
918.04964	0.221828
916.12096	0.220365
914.19229	0.218698
912.26361	0.216995
910.33494	0.215498
908.40626	0.214214
906.47758	0.212918
904.54891	0.211545
902.62023	0.210279
900.69156	0.209159
898.76288	0.208104
896.83421	0.207094
894.90553	0.206064
892.97685	0.205039
891.04818	0.204086
889.11950	0.203145
887.19083	0.202207
885.26215	0.201354
883.33348	0.200630
881.40480	0.200036
879.47612	0.199491
877.54745	0.198880
875.61877	0.198302
873.69010	0.197867
871.76142	0.197492
869.83275	0.197034
867.90407	0.196461
865.97539	0.195902
864.04672	0.195434
862.11804	0.195115
860.18937	0.194985
858.26069	0.194870
856.33202	0.194641
854.40334	0.194423
852.47466	0.194222
850.54599	0.193823
848.61731	0.193236
846.68864	0.192780
844.75996	0.192576
842.83129	0.192327
840.90261	0.191821
838.97394	0.191141
837.04526	0.190406
835.11658	0.189613
833.18791	0.188577
831.25923	0.187166
829.33056	0.185531
827.40188	0.183932
825.47321	0.182407
823.54453	0.180964
821.61585	0.179828
819.68718	0.178995
817.75850	0.178301
815.82983	0.177760
813.90115	0.177318
811.97248	0.176879
810.04380	0.176510
808.11512	0.176296
806.18645	0.176199
804.25777	0.176170
802.32910	0.176104
800.40042	0.175814
798.47175	0.175230
796.54307	0.174396
794.61439	0.173490
792.68572	0.172791
790.75704	0.172463
788.82837	0.172360
786.89969	0.172126
784.97102	0.171675
783.04234	0.171257
781.11366	0.170965
779.18499	0.170683
777.25631	0.170345
775.32764	0.169937
773.39896	0.169527
771.47029	0.169164
769.54161	0.168714
767.61293	0.168094
765.68426	0.167428
763.75558	0.166866
761.82691	0.166341
759.89823	0.165704
757.96956	0.164944
756.04088	0.164062
754.11220	0.163090
752.18353	0.162160
750.25485	0.161269
748.32618	0.160165
746.39750	0.158787
744.46883	0.157372
742.54015	0.156043
740.61147	0.154923
738.68280	0.154177
736.75412	0.153836
734.82545	0.153856
732.89677	0.154042
730.96810	0.154167
729.03942	0.154246
727.11074	0.154481
725.18207	0.154893
723.25339	0.155238
721.32472	0.155421
719.39604	0.155639
717.46737	0.156122
715.53869	0.156926
713.61001	0.157857
711.68134	0.158613
709.75266	0.159090
707.82399	0.159376
705.89531	0.159496
703.96664	0.159330
702.03796	0.158836
700.10928	0.158191
698.18061	0.157545
696.25193	0.156906
694.32326	0.156142
692.39458	0.155237
690.46591	0.154444
688.53723	0.153807
686.60855	0.153121
684.67988	0.152328
682.75120	0.151517
680.82253	0.150705
678.89385	0.149881
676.96518	0.149050
675.03650	0.148122
673.10782	0.147072
671.17915	0.145785
669.25047	0.144215
667.32180	0.142886
665.39312	0.141966
663.46445	0.140935
661.53577	0.139667
659.60709	0.138431
657.67842	0.137216
655.74974	0.135917
653.82107	0.134649
651.89239	0.133480
649.96372	0.132305
648.03504	0.130981
646.10636	0.129487
644.17769	0.127930
642.24901	0.126376
640.32034	0.124787
638.39166	0.123101
636.46299	0.121381
634.53431	0.119535
632.60563	0.116971
630.67696	0.112865
628.74828	0.106625
626.81961	0.098797
624.89093	0.091103
622.96226	0.085054
621.03358	0.081253
619.10490	0.079164
617.17623	0.077708
615.24755	0.076294
613.31888	0.074594
611.39020	0.072858
609.46153	0.071905
607.53285	0.071923
605.60417	0.072520
603.67550	0.073484
601.74682	0.074919
599.81815	0.076661
597.88947	0.078205
595.96080	0.079336
594.03212	0.080086
592.10344	0.080480
590.17477	0.080563
588.24609	0.080457
586.31742	0.080260
584.38874	0.079929
582.46007	0.079370
580.53139	0.078570
578.60271	0.077750
576.67404	0.077022
574.74536	0.076195
572.81669	0.075131
570.88801	0.073924
568.95934	0.072902
567.03066	0.072345
565.10198	0.071987
563.17331	0.071332
561.24463	0.070518
559.31596	0.069919
557.38728	0.069429
555.45861	0.068903
553.52993	0.068456
551.60125	0.068134
549.67258	0.067858
547.74390	0.067645
545.81523	0.067344
543.88655	0.066810
541.95788	0.066333
540.02920	0.066094
538.10052	0.065814
536.17185	0.065271
534.24317	0.064709
532.31450	0.064338
530.38582	0.064001
528.45715	0.063525
526.52847	0.062794
524.59979	0.061903
522.67112	0.061141
520.74244	0.060583
518.81377	0.059767
516.88509	0.058382
514.95642	0.057112
513.02774	0.056543
511.09906	0.056290
509.17039	0.055902
507.24171	0.055393
505.31304	0.054896
503.38436	0.054425
501.45569	0.053871
499.52701	0.053165
497.59833	0.052353
495.66966	0.051423
493.74098	0.050393
491.81231	0.049284
489.88363	0.048108
487.95496	0.047000
486.02628	0.046095
484.09760	0.045401
482.16893	0.044637
480.24025	0.043622
478.31158	0.042604
476.38290	0.041771
474.45423	0.040925
472.52555	0.039897
470.59687	0.038987
468.66820	0.038430
466.73952	0.038135
464.81085	0.037927
462.88217	0.037530
460.95350	0.036913
459.02482	0.036434
457.09614	0.036353
455.16747	0.036485
453.23879	0.036553
451.31012	0.036524
449.38144	0.036476
447.45277	0.036481
445.52409	0.036370
443.59541	0.035881
441.66674	0.035217
439.73806	0.034764
437.80939	0.034381
435.88071	0.033647
433.95204	0.032545
432.02336	0.031485
430.09468	0.030673
428.16601	0.029827
426.23733	0.028766
424.30866	0.027605
422.37998	0.026556
420.45131	0.025737
418.52263	0.024937
416.59395	0.023908
414.66528	0.022702
412.73660	0.021611
410.80793	0.020661
408.87925	0.019573
406.95058	0.018330
405.02190	0.017168
403.09322	0.016287
401.16455	0.015551
399.23587	0.014720
397.30720	0.013822
395.37852	0.013005
393.44985	0.012312
391.52117	0.011530
389.59249	0.010528
387.66382	0.009431
385.73514	0.008536
383.80647	0.008063
381.87779	0.007784
379.94912	0.007337
378.02044	0.006629
376.09176	0.005922
374.16309	0.005480
372.23441	0.005143
370.30574	0.004549
368.37706	0.003822
