7496.76250	0.002091
7494.83382	0.002058
7492.90514	0.002056
7490.97647	0.002071
7489.04779	0.002050
7487.11912	0.002027
7485.19044	0.002077
7483.26177	0.002139
7481.33309	0.002108
7479.40441	0.002052
7477.47574	0.002082
7475.54706	0.002129
7473.61839	0.002104
7471.68971	0.002073
7469.76104	0.002119
7467.83236	0.002169
7465.90368	0.002138
7463.97501	0.002103
7462.04633	0.002135
7460.11766	0.002166
7458.18898	0.002146
7456.26031	0.002141
7454.33163	0.002179
7452.40295	0.002182
7450.47428	0.002133
7448.54560	0.002128
7446.61693	0.002180
7444.68825	0.002187
7442.75958	0.002140
7440.83090	0.002150
7438.90222	0.002218
7436.97355	0.002227
7435.04487	0.002177
7433.11620	0.002185
7431.18752	0.002245
7429.25885	0.002243
7427.33017	0.002193
7425.40149	0.002203
7423.47282	0.002258
7421.54414	0.002257
7419.61547	0.002219
7417.68679	0.002238
7415.75812	0.002277
7413.82944	0.002258
7411.90076	0.002238
7409.97209	0.002285
7408.04341	0.002331
7406.11474	0.002298
7404.18606	0.002267
7402.25739	0.002316
7400.32871	0.002349
7398.40003	0.002291
7396.47136	0.002252
7394.54268	0.002306
7392.61401	0.002341
7390.68533	0.002302
7388.75666	0.002302
7386.82798	0.002376
7384.89930	0.002411
7382.97063	0.002369
7381.04195	0.002347
7379.11328	0.002379
7377.18460	0.002380
7375.25593	0.002333
7373.32725	0.002345
7371.39857	0.002417
7369.46990	0.002429
7367.54122	0.002376
7365.61255	0.002376
7363.68387	0.002426
7361.75520	0.002410
7359.82652	0.002356
7357.89784	0.002389
7355.96917	0.002466
7354.04049	0.002455
7352.11182	0.002401
7350.18314	0.002442
7348.25447	0.002521
7346.32579	0.002489
7344.39711	0.002410
7342.46844	0.002420
7340.53976	0.002470
7338.61109	0.002460
7336.68241	0.002445
7334.75374	0.002496
7332.82506	0.002533
7330.89638	0.002488
7328.96771	0.002456
7327.03903	0.002505
7325.11036	0.002543
7323.18168	0.002509
7321.25301	0.002488
7319.32433	0.002533
7317.39565	0.002556
7315.46698	0.002510
7313.53830	0.002504
7311.60963	0.002578
7309.68095	0.002600
7307.75228	0.002536
7305.82360	0.002525
7303.89492	0.002584
7301.96625	0.002581
7300.03757	0.002529
7298.10890	0.002547
7296.18022	0.002613
7294.25155	0.002609
7292.32287	0.002556
7290.39419	0.002576
7288.46552	0.002655
7286.53684	0.002666
7284.60817	0.002620
7282.67949	0.002635
7280.75082	0.002683
7278.82214	0.002653
7276.89346	0.002602
7274.96479	0.002640
7273.03611	0.002690
7271.10744	0.002643
7269.17876	0.002588
7267.25009	0.002634
7265.32141	0.002701
7263.39273	0.002684
7261.46406	0.002656
7259.53538	0.002697
7257.60671	0.002727
7255.67803	0.002681
7253.74936	0.002659
7251.82068	0.002730
7249.89200	0.002775
7247.96333	0.002720
7246.03465	0.002691
7244.10598	0.002753
7242.17730	0.002783
7240.24863	0.002729
7238.31995	0.002715
7236.39127	0.002787
7234.46260	0.002815
7232.53392	0.002767
7230.60525	0.002764
7228.67657	0.002813
7226.74790	0.002799
7224.81922	0.002750
7222.89054	0.002788
7220.96187	0.002869
7219.03319	0.002861
7217.10452	0.002796
7215.17584	0.002804
7213.24717	0.002857
7211.31849	0.002841
7209.38981	0.002800
7207.46114	0.002843
7205.53246	0.002906
7203.60379	0.002879
7201.67511	0.002838
7199.74644	0.002885
7197.81776	0.002938
7195.88908	0.002896
7193.96041	0.002848
7192.03173	0.002895
7190.10306	0.002948
7188.17438	0.002905
7186.24571	0.002853
7184.31703	0.002890
7182.38835	0.002937
7180.45968	0.002908
7178.53100	0.002887
7176.60233	0.002933
7174.67365	0.002949
7172.74498	0.002884
7170.81630	0.002863
7168.88762	0.002944
7166.95895	0.002989
7165.03027	0.002939
7163.10160	0.002930
7161.17292	0.002998
7159.24425	0.003015
7157.31557	0.002974
7155.38689	0.003007
7153.45822	0.003103
7151.52954	0.003108
7149.60087	0.003023
7147.67219	0.003009
7145.74352	0.003063
7143.81484	0.003049
7141.88616	0.002990
7139.95749	0.003015
7138.02881	0.003091
7136.10014	0.003092
7134.17146	0.003058
7132.24279	0.003106
7130.31411	0.003173
7128.38543	0.003138
7126.45676	0.003066
7124.52808	0.003090
7122.59941	0.003146
7120.67073	0.003118
7118.74206	0.003089
7116.81338	0.003149
7114.88470	0.003191
7112.95603	0.003136
7111.02735	0.003101
7109.09868	0.003159
7107.17000	0.003196
7105.24133	0.003151
7103.31265	0.003138
7101.38397	0.003203
7099.45530	0.003226
7097.52662	0.003171
7095.59795	0.003156
7093.66927	0.003214
7091.74060	0.003239
7089.81192	0.003198
7087.88324	0.003204
7085.95457	0.003279
7084.02589	0.003292
7082.09722	0.003233
7080.16854	0.003242
7078.23987	0.003315
7076.31119	0.003304
7074.38251	0.003232
7072.45384	0.003240
7070.52516	0.003300
7068.59649	0.003287
7066.66781	0.003245
7064.73914	0.003294
7062.81046	0.003376
7060.88178	0.003359
7058.95311	0.003301
7057.02443	0.003331
7055.09576	0.003395
7053.16708	0.003368
7051.23841	0.003308
7049.30973	0.003340
7047.38105	0.003404
7045.45238	0.003382
7043.52370	0.003346
7041.59503	0.003396
7039.66635	0.003439
7037.73768	0.003385
7035.80900	0.003337
7033.88032	0.003394
7031.95165	0.003443
7030.02297	0.003391
7028.09430	0.003361
7026.16562	0.003439
7024.23695	0.003491
7022.30827	0.003434
7020.37959	0.003399
7018.45092	0.003464
7016.52224	0.003513
7014.59357	0.003478
7012.66489	0.003456
7010.73622	0.003490
7008.80754	0.003496
7006.87886	0.003449
7004.95019	0.003451
7003.02151	0.003509
7001.09284	0.003510
6999.16416	0.003455
6997.23549	0.003472
6995.30681	0.003552
6993.37813	0.003562
6991.44946	0.003517
6989.52078	0.003539
6987.59211	0.003605
6985.66343	0.003597
6983.73476	0.003553
6981.80608	0.003578
6979.87740	0.003622
6977.94873	0.003593
6976.02005	0.003555
6974.09138	0.003598
6972.16270	0.003653
6970.23403	0.003630
6968.30535	0.003602
6966.37667	0.003649
6964.44800	0.003687
6962.51932	0.003643
6960.59065	0.003617
6958.66197	0.003685
6956.73330	0.003737
6954.80462	0.003697
6952.87594	0.003669
6950.94727	0.003728
6949.01859	0.003773
6947.08992	0.003730
6945.16124	0.003696
6943.23257	0.003727
6941.30389	0.003735
6939.37521	0.003690
6937.44654	0.003687
6935.51786	0.003762
6933.58919	0.003806
6931.66051	0.003770
6929.73184	0.003769
6927.80316	0.003836
6925.87448	0.003837
6923.94581	0.003769
6922.01713	0.003784
6920.08846	0.003869
6918.15978	0.003880
6916.23111	0.003836
6914.30243	0.003857
6912.37375	0.003909
6910.44508	0.003872
6908.51640	0.003805
6906.58773	0.003837
6904.65905	0.003913
6902.73038	0.003903
6900.80170	0.003858
6898.87302	0.003899
6896.94435	0.003959
6895.01567	0.003927
6893.08700	0.003884
6891.15832	0.003938
6889.22965	0.003998
6887.30097	0.003959
6885.37229	0.003925
6883.44362	0.003988
6881.51494	0.004032
6879.58627	0.003979
6877.65759	0.003958
6875.72892	0.004050
6873.80024	0.004109
6871.87156	0.004048
6869.94289	0.004001
6868.01421	0.004057
6866.08554	0.004098
6864.15686	0.004047
6862.22819	0.004026
6860.29951	0.004089
6858.37083	0.004116
6856.44216	0.004088
6854.51348	0.004117
6852.58481	0.004193
6850.65613	0.004195
6848.72746	0.004136
6846.79878	0.004142
6844.87010	0.004206
6842.94143	0.004200
6841.01275	0.004149
6839.08408	0.004183
6837.15540	0.004260
6835.22673	0.004236
6833.29805	0.004160
6831.36937	0.004179
6829.44070	0.004248
6827.51202	0.004229
6825.58335	0.004182
6823.65467	0.004239
6821.72600	0.004324
6819.79732	0.004297
6817.86864	0.004228
6815.93997	0.004261
6814.01129	0.004326
6812.08262	0.004308
6810.15394	0.004287
6808.22527	0.004352
6806.29659	0.004393
6804.36791	0.004328
6802.43924	0.004286
6800.51056	0.004357
6798.58189	0.004408
6796.65321	0.004346
6794.72454	0.004321
6792.79586	0.004420
6790.86718	0.004480
6788.93851	0.004417
6787.00983	0.004379
6785.08116	0.004440
6783.15248	0.004471
6781.22381	0.004427
6779.29513	0.004436
6777.36645	0.004522
6775.43778	0.004542
6773.50910	0.004478
6771.58043	0.004481
6769.65175	0.004566
6767.72308	0.004577
6765.79440	0.004511
6763.86572	0.004520
6761.93705	0.004585
6760.00837	0.004557
6758.07970	0.004479
6756.15102	0.004499
6754.22235	0.004578
6752.29367	0.004581
6750.36499	0.004555
6748.43632	0.004621
6746.50764	0.004699
6744.57897	0.004671
6742.65029	0.004623
6740.72162	0.004666
6738.79294	0.004712
6736.86426	0.004653
6734.93559	0.004595
6733.00691	0.004657
6731.07824	0.004732
6729.14956	0.004705
6727.22089	0.004679
6725.29221	0.004743
6723.36353	0.004785
6721.43486	0.004729
6719.50618	0.004703
6717.57751	0.004772
6715.64883	0.004807
6713.72016	0.004754
6711.79148	0.004745
6709.86280	0.004835
6707.93413	0.004866
6706.00545	0.004789
6704.07678	0.004782
6702.14810	0.004891
6700.21943	0.004933
6698.29075	0.004867
6696.36207	0.004862
6694.43340	0.004942
6692.50472	0.004949
6690.57605	0.004886
6688.64737	0.004913
6686.71870	0.005008
6684.79002	0.005002
6682.86134	0.004921
6680.93267	0.004943
6679.00399	0.005029
6677.07532	0.004999
6675.14664	0.004914
6673.21797	0.004954
6671.28929	0.005053
6669.36061	0.005046
6667.43194	0.005002
6665.50326	0.005060
6663.57459	0.005143
6661.64591	0.005116
6659.71724	0.005063
6657.78856	0.005118
6655.85988	0.005182
6653.93121	0.005119
6652.00253	0.005054
6650.07386	0.005122
6648.14518	0.005195
6646.21651	0.005159
6644.28783	0.005137
6642.35915	0.005208
6640.43048	0.005233
6638.50180	0.005160
6636.57313	0.005135
6634.64445	0.005213
6632.71578	0.005249
6630.78710	0.005187
6628.85842	0.005178
6626.92975	0.005269
6625.00107	0.005292
6623.07240	0.005224
6621.14372	0.005240
6619.21505	0.005359
6617.28637	0.005395
6615.35769	0.005312
6613.42902	0.005292
6611.50034	0.005370
6609.57167	0.005379
6607.64299	0.005310
6605.71432	0.005332
6603.78564	0.005424
6601.85696	0.005414
6599.92829	0.005351
6597.99961	0.005404
6596.07094	0.005510
6594.14226	0.005495
6592.21359	0.005413
6590.28491	0.005436
6588.35623	0.005522
6586.42756	0.005512
6584.49888	0.005450
6582.57021	0.005483
6580.64153	0.005550
6578.71286	0.005519
6576.78418	0.005477
6574.85550	0.005553
6572.92683	0.005635
6570.99815	0.005586
6569.06948	0.005531
6567.14080	0.005602
6565.21213	0.005668
6563.28345	0.005626
6561.35477	0.005606
6559.42610	0.005688
6557.49742	0.005741
6555.56875	0.005688
6553.64007	0.005656
6551.71140	0.005723
6549.78272	0.005757
6547.85404	0.005703
6545.92537	0.005721
6543.99669	0.005833
6542.06802	0.005848
6540.13934	0.005762
6538.21067	0.005778
6536.28199	0.005897
6534.35331	0.005909
6532.42464	0.005809
6530.49596	0.005802
6528.56729	0.005900
6526.63861	0.005916
6524.70994	0.005836
6522.78126	0.005842
6520.85258	0.005936
6518.92391	0.005949
6516.99523	0.005899
6515.06656	0.005936
6513.13788	0.006023
6511.20921	0.006012
6509.28053	0.005941
6507.35185	0.005977
6505.42318	0.006069
6503.49450	0.006043
6501.56583	0.005977
6499.63715	0.006034
6497.70848	0.006119
6495.77980	0.006086
6493.85112	0.006032
6491.92245	0.006087
6489.99377	0.006143
6488.06510	0.006086
6486.13642	0.006047
6484.20775	0.006143
6482.27907	0.006230
6480.35039	0.006176
6478.42172	0.006131
6476.49304	0.006230
6474.56437	0.006308
6472.63569	0.006243
6470.70702	0.006207
6468.77834	0.006300
6466.84966	0.006334
6464.92099	0.006238
6462.99231	0.006211
6461.06364	0.006324
6459.13496	0.006383
6457.20629	0.006325
6455.27761	0.006324
6453.34893	0.006412
6451.42026	0.006422
6449.49158	0.006343
6447.56291	0.006362
6445.63423	0.006479
6443.70556	0.006497
6441.77688	0.006422
6439.84820	0.006435
6437.91953	0.006510
6435.99085	0.006472
6434.06218	0.006371
6432.13350	0.006413
6430.20483	0.006541
6428.27615	0.006554
6426.34747	0.006502
6424.41880	0.006555
6422.49012	0.006635
6420.56145	0.006582
6418.63277	0.006511
6416.70410	0.006592
6414.77542	0.006696
6412.84674	0.006649
6410.91807	0.006584
6408.98939	0.006655
6407.06072	0.006733
6405.13204	0.006683
6403.20337	0.006632
6401.27469	0.006710
6399.34601	0.006785
6397.41734	0.006733
6395.48866	0.006701
6393.55999	0.006799
6391.63131	0.006856
6389.70264	0.006771
6387.77396	0.006732
6385.84528	0.006822
6383.91661	0.006857
6381.98793	0.006785
6380.05926	0.006785
6378.13058	0.006893
6376.20191	0.006932
6374.27323	0.006865
6372.34455	0.006870
6370.41588	0.006970
6368.48720	0.006979
6366.55853	0.006905
6364.62985	0.006949
6362.70118	0.007080
6360.77250	0.007085
6358.84382	0.006990
6356.91515	0.007008
6354.98647	0.007119
6353.05780	0.007122
6351.12912	0.007046
6349.20045	0.007067
6347.27177	0.007154
6345.34309	0.007151
6343.41442	0.007090
6341.48574	0.007130
6339.55707	0.007225
6337.62839	0.007212
6335.69972	0.007153
6333.77104	0.007202
6331.84236	0.007284
6329.91369	0.007262
6327.98501	0.007222
6326.05634	0.007289
6324.12766	0.007348
6322.19899	0.007272
6320.27031	0.007217
6318.34163	0.007324
6316.41296	0.007409
6314.48428	0.007343
6312.55561	0.007310
6310.62693	0.007425
6308.69826	0.007502
6306.76958	0.007429
6304.84090	0.007390
6302.91223	0.007491
6300.98355	0.007550
6299.05488	0.007472
6297.12620	0.007433
6295.19753	0.007511
6293.26885	0.007545
6291.34017	0.007505
6289.41150	0.007551
6287.48282	0.007670
6285.55415	0.007678
6283.62547	0.007582
6281.69680	0.007584
6279.76812	0.007694
6277.83944	0.007718
6275.91077	0.007649
6273.98209	0.007676
6272.05342	0.007780
6270.12474	0.007775
6268.19607	0.007697
6266.26739	0.007740
6264.33871	0.007847
6262.41004	0.007825
6260.48136	0.007747
6258.55269	0.007806
6256.62401	0.007917
6254.69534	0.007893
6252.76666	0.007816
6250.83798	0.007871
6248.90931	0.007978
6246.98063	0.007961
6245.05196	0.007916
6243.12328	0.008003
6241.19461	0.008104
6239.26593	0.008056
6237.33725	0.007989
6235.40858	0.008068
6233.47990	0.008155
6231.55123	0.008092
6229.62255	0.008031
6227.69388	0.008124
6225.76520	0.008206
6223.83652	0.008143
6221.90785	0.008106
6219.97917	0.008212
6218.05050	0.008284
6216.12182	0.008208
6214.19315	0.008166
6212.26447	0.008254
6210.33579	0.008306
6208.40712	0.008252
6206.47844	0.008247
6204.54977	0.008332
6202.62109	0.008345
6200.69242	0.008264
6198.76374	0.008279
6196.83506	0.008405
6194.90639	0.008425
6192.97771	0.008341
6191.04904	0.008381
6189.12036	0.008524
6187.19169	0.008536
6185.26301	0.008438
6183.33433	0.008454
6181.40566	0.008548
6179.47698	0.008517
6177.54831	0.008444
6175.61963	0.008526
6173.69096	0.008656
6171.76228	0.008636
6169.83360	0.008563
6167.90493	0.008622
6165.97625	0.008722
6164.04758	0.008683
6162.11890	0.008613
6160.19023	0.008687
6158.26155	0.008782
6156.33287	0.008734
6154.40420	0.008674
6152.47552	0.008757
6150.54685	0.008846
6148.61817	0.008786
6146.68950	0.008724
6144.76082	0.008803
6142.83214	0.008874
6140.90347	0.008814
6138.97479	0.008792
6137.04612	0.008918
6135.11744	0.009001
6133.18877	0.008936
6131.26009	0.008908
6129.33141	0.009008
6127.40274	0.009047
6125.47406	0.008952
6123.54539	0.008928
6121.61671	0.009050
6119.68804	0.009119
6117.75936	0.009078
6115.83068	0.009122
6113.90201	0.009253
6111.97333	0.009253
6110.04466	0.009147
6108.11598	0.009164
6106.18731	0.009277
6104.25863	0.009283
6102.32995	0.009211
6100.40128	0.009244
6098.47260	0.009344
6096.54393	0.009339
6094.61525	0.009271
6092.68658	0.009321
6090.75790	0.009439
6088.82922	0.009440
6086.90055	0.009379
6084.97187	0.009441
6083.04320	0.009547
6081.11452	0.009506
6079.18585	0.009421
6077.25717	0.009500
6075.32849	0.009640
6073.39982	0.009619
6071.47114	0.009540
6069.54247	0.009602
6067.61379	0.009678
6065.68512	0.009595
6063.75644	0.009518
6061.82776	0.009620
6059.89909	0.009742
6057.97041	0.009712
6056.04174	0.009665
6054.11306	0.009756
6052.18439	0.009842
6050.25571	0.009790
6048.32703	0.009769
6046.39836	0.009884
6044.46968	0.009941
6042.54101	0.009843
6040.61233	0.009796
6038.68366	0.009911
6036.75498	0.009990
6034.82630	0.009939
6032.89763	0.009957
6030.96895	0.010092
6029.04028	0.010116
6027.11160	0.010001
6025.18293	0.009997
6023.25425	0.010134
6021.32557	0.010174
6019.39690	0.010085
6017.46822	0.010097
6015.53955	0.010229
6013.61087	0.010252
6011.68220	0.010164
6009.75352	0.010186
6007.82484	0.010300
6005.89617	0.010279
6003.96749	0.010166
6002.03882	0.010207
6000.11014	0.010350
5998.18147	0.010360
5996.25279	0.010295
5994.32411	0.010355
5992.39544	0.010457
5990.46676	0.010418
5988.53809	0.010341
5986.60941	0.010412
5984.68074	0.010525
5982.75206	0.010499
5980.82338	0.010441
5978.89471	0.010530
5976.96603	0.010644
5975.03736	0.010601
5973.10868	0.010534
5971.18001	0.010623
5969.25133	0.010713
5967.32265	0.010640
5965.39398	0.010582
5963.46530	0.010696
5961.53663	0.010792
5959.60795	0.010740
5957.67928	0.010722
5955.75060	0.010838
5953.82192	0.010891
5951.89325	0.010797
5949.96457	0.010775
5948.03590	0.010911
5946.10722	0.010988
5944.17855	0.010923
5942.24987	0.010926
5940.32119	0.011050
5938.39252	0.011077
5936.46384	0.010977
5934.53517	0.010980
5932.60649	0.011105
5930.67782	0.011121
5928.74914	0.011030
5926.82046	0.011062
5924.89179	0.011202
5922.96311	0.011213
5921.03444	0.011110
5919.10576	0.011138
5917.17709	0.011267
5915.24841	0.011264
5913.31973	0.011197
5911.39106	0.011293
5909.46238	0.011453
5907.53371	0.011437
5905.60503	0.011340
5903.67636	0.011407
5901.74768	0.011547
5899.81900	0.011516
5897.89033	0.011408
5895.96165	0.011448
5894.03298	0.011548
5892.10430	0.011523
5890.17563	0.011483
5888.24695	0.011596
5886.31827	0.011717
5884.38960	0.011661
5882.46092	0.011585
5880.53225	0.011677
5878.60357	0.011787
5876.67490	0.011744
5874.74622	0.011696
5872.81755	0.011793
5870.88887	0.011884
5868.96019	0.011822
5867.03152	0.011778
5865.10284	0.011888
5863.17417	0.011967
5861.24549	0.011895
5859.31682	0.011866
5857.38814	0.011977
5855.45946	0.012032
5853.53079	0.011949
5851.60211	0.011930
5849.67344	0.012043
5847.74476	0.012091
5845.81609	0.012018
5843.88741	0.012028
5841.95873	0.012169
5840.03006	0.012226
5838.10138	0.012165
5836.17271	0.012197
5834.24403	0.012330
5832.31536	0.012339
5830.38668	0.012240
5828.45800	0.012270
5826.52933	0.012408
5824.60065	0.012418
5822.67198	0.012330
5820.74330	0.012373
5818.81463	0.012493
5816.88595	0.012461
5814.95727	0.012366
5813.02860	0.012458
5811.09992	0.012641
5809.17125	0.012650
5807.24257	0.012570
5805.31390	0.012642
5803.38522	0.012765
5801.45654	0.012725
5799.52787	0.012650
5797.59919	0.012736
5795.67052	0.012837
5793.74184	0.012774
5791.81317	0.012709
5789.88449	0.012809
5787.95581	0.012916
5786.02714	0.012872
5784.09846	0.012839
5782.16979	0.012959
5780.24111	0.013061
5778.31244	0.013015
5776.38376	0.012993
5774.45508	0.013108
5772.52641	0.013175
5770.59773	0.013090
5768.66906	0.013059
5766.74038	0.013188
5764.81171	0.013252
5762.88303	0.013157
5760.95435	0.013147
5759.02568	0.013305
5757.09700	0.013378
5755.16833	0.013288
5753.23965	0.013281
5751.31098	0.013419
5749.38230	0.013463
5747.45362	0.013367
5745.52495	0.013374
5743.59627	0.013512
5741.66760	0.013531
5739.73892	0.013435
5737.81025	0.013482
5735.88157	0.013631
5733.95289	0.013619
5732.02422	0.013513
5730.09554	0.013582
5728.16687	0.013750
5726.23819	0.013746
5724.30952	0.013646
5722.38084	0.013715
5720.45216	0.013869
5718.52349	0.013847
5716.59481	0.013757
5714.66614	0.013847
5712.73746	0.013995
5710.80879	0.013968
5708.88011	0.013887
5706.95143	0.013958
5705.02276	0.014052
5703.09408	0.013990
5701.16541	0.013933
5699.23673	0.014068
5697.30806	0.014198
5695.37938	0.014125
5693.45070	0.014065
5691.52203	0.014209
5689.59335	0.014333
5687.66468	0.014266
5685.73600	0.014223
5683.80733	0.014352
5681.87865	0.014436
5679.94997	0.014347
5678.02130	0.014314
5676.09262	0.014463
5674.16395	0.014549
5672.23527	0.014449
5670.30660	0.014421
5668.37792	0.014568
5666.44924	0.014628
5664.52057	0.014529
5662.59189	0.014545
5660.66322	0.014718
5658.73454	0.014759
5656.80587	0.014642
5654.87719	0.014674
5652.94851	0.014864
5651.01984	0.014909
5649.09116	0.014804
5647.16249	0.014827
5645.23381	0.014979
5643.30514	0.015002
5641.37646	0.014909
5639.44778	0.014961
5637.51911	0.015131
5635.59043	0.015146
5633.66176	0.015031
5631.73308	0.015055
5629.80441	0.015187
5627.87573	0.015185
5625.94705	0.015115
5624.01838	0.015198
5622.08970	0.015340
5620.16103	0.015315
5618.23235	0.015225
5616.30368	0.015290
5614.37500	0.015406
5612.44632	0.015371
5610.51765	0.015315
5608.58897	0.015440
5606.66030	0.015581
5604.73162	0.015534
5602.80295	0.015464
5600.87427	0.015557
5598.94559	0.015653
5597.01692	0.015591
5595.08824	0.015554
5593.15957	0.015688
5591.23089	0.015784
5589.30222	0.015704
5587.37354	0.015681
5585.44486	0.015838
5583.51619	0.015920
5581.58751	0.015811
5579.65884	0.015795
5577.73016	0.015979
5575.80149	0.016071
5573.87281	0.015959
5571.94413	0.015931
5570.01546	0.016092
5568.08678	0.016171
5566.15811	0.016079
5564.22943	0.016078
5562.30076	0.016225
5560.37208	0.016257
5558.44340	0.016152
5556.51473	0.016188
5554.58605	0.016366
5552.65738	0.016402
5550.72870	0.016295
5548.80003	0.016323
5546.87135	0.016483
5544.94267	0.016502
5543.01400	0.016402
5541.08532	0.016459
5539.15665	0.016621
5537.22797	0.016616
5535.29930	0.016520
5533.37062	0.016581
5531.44194	0.016711
5529.51327	0.016675
5527.58459	0.016594
5525.65592	0.016713
5523.72724	0.016881
5521.79857	0.016843
5519.86989	0.016748
5517.94121	0.016843
5516.01254	0.016993
5514.08386	0.016963
5512.15519	0.016881
5510.22651	0.016970
5508.29784	0.017091
5506.36916	0.017045
5504.44048	0.017000
5502.51181	0.017136
5500.58313	0.017253
5498.65446	0.017173
5496.72578	0.017117
5494.79711	0.017272
5492.86843	0.017400
5490.93975	0.017315
5489.01108	0.017252
5487.08240	0.017383
5485.15373	0.017490
5483.22505	0.017429
5481.29638	0.017426
5479.36770	0.017590
5477.43902	0.017662
5475.51035	0.017550
5473.58167	0.017544
5471.65300	0.017730
5469.72432	0.017810
5467.79565	0.017699
5465.86697	0.017688
5463.93829	0.017845
5462.00962	0.017892
5460.08094	0.017792
5458.15227	0.017829
5456.22359	0.018003
5454.29492	0.018020
5452.36624	0.017898
5450.43756	0.017933
5448.50889	0.018103
5446.58021	0.018113
5444.65154	0.018002
5442.72286	0.018059
5440.79419	0.018225
5438.86551	0.018216
5436.93683	0.018106
5435.00816	0.018175
5433.07948	0.018351
5431.15081	0.018364
5429.22213	0.018287
5427.29346	0.018369
5425.36478	0.018516
5423.43610	0.018485
5421.50743	0.018403
5419.57875	0.018514
5417.65008	0.018651
5415.72140	0.018560
5413.79273	0.018451
5411.86405	0.018597
5409.93537	0.018787
5408.00670	0.018734
5406.07802	0.018634
5404.14935	0.018759
5402.22067	0.018923
5400.29200	0.018891
5398.36332	0.018842
5396.43464	0.018956
5394.50597	0.019030
5392.57729	0.018928
5390.64862	0.018898
5388.71994	0.019073
5386.79127	0.019182
5384.86259	0.019072
5382.93391	0.019026
5381.00524	0.019197
5379.07656	0.019308
5377.14789	0.019219
5375.21921	0.019204
5373.29054	0.019375
5371.36186	0.019454
5369.43318	0.019351
5367.50451	0.019348
5365.57583	0.019514
5363.64716	0.019561
5361.71848	0.019440
5359.78981	0.019449
5357.86113	0.019629
5355.93245	0.019690
5354.00378	0.019606
5352.07510	0.019649
5350.14643	0.019808
5348.21775	0.019812
5346.28908	0.019704
5344.36040	0.019772
5342.43172	0.019964
5340.50305	0.019967
5338.57437	0.019848
5336.64570	0.019924
5334.71702	0.020106
5332.78835	0.020099
5330.85967	0.020010
5328.93099	0.020114
5327.00232	0.020296
5325.07364	0.020278
5323.14497	0.020175
5321.21629	0.020261
5319.28762	0.020396
5317.35894	0.020335
5315.43026	0.020269
5313.50159	0.020423
5311.57291	0.020573
5309.64424	0.020488
5307.71556	0.020407
5305.78689	0.020563
5303.85821	0.020720
5301.92953	0.020661
5300.00086	0.020603
5298.07218	0.020742
5296.14351	0.020861
5294.21483	0.020787
5292.28616	0.020738
5290.35748	0.020874
5288.42880	0.020962
5286.50013	0.020861
5284.57145	0.020828
5282.64278	0.020996
5280.71410	0.021089
5278.78543	0.020996
5276.85675	0.021012
5274.92807	0.021209
5272.99940	0.021269
5271.07072	0.021136
5269.14205	0.021129
5267.21337	0.021304
5265.28470	0.021349
5263.35602	0.021234
5261.42734	0.021273
5259.49867	0.021473
5257.56999	0.021513
5255.64132	0.021391
5253.71264	0.021440
5251.78397	0.021638
5249.85529	0.021646
5247.92661	0.021511
5245.99794	0.021563
5244.06926	0.021763
5242.14059	0.021806
5240.21191	0.021723
5238.28324	0.021794
5236.35456	0.021962
5234.42588	0.021939
5232.49721	0.021823
5230.56853	0.021933
5228.63986	0.022143
5226.71118	0.022118
5224.78251	0.021999
5222.85383	0.022105
5220.92515	0.022282
5218.99648	0.022243
5217.06780	0.022151
5215.13913	0.022266
5213.21045	0.022418
5211.28178	0.022357
5209.35310	0.022268
5207.42442	0.022392
5205.49575	0.022527
5203.56707	0.022458
5201.63840	0.022401
5199.70972	0.022555
5197.78105	0.022706
5195.85237	0.022658
5193.92369	0.022622
5191.99502	0.022771
5190.06634	0.022870
5188.13767	0.022771
5186.20899	0.022743
5184.28032	0.022927
5182.35164	0.023044
5180.42296	0.022954
5178.49429	0.022934
5176.56561	0.023114
5174.63694	0.023231
5172.70826	0.023167
5170.77959	0.023158
5168.85091	0.023295
5166.92223	0.023338
5164.99356	0.023206
5163.06488	0.023171
5161.13621	0.023324
5159.20753	0.023405
5157.27886	0.023351
5155.35018	0.023403
5153.42150	0.023570
5151.49283	0.023585
5149.56415	0.023467
5147.63548	0.023525
5145.70680	0.023725
5143.77813	0.023746
5141.84945	0.023634
5139.92077	0.023713
5137.99210	0.023917
5136.06342	0.023922
5134.13475	0.023805
5132.20607	0.023889
5130.27740	0.024081
5128.34872	0.024071
5126.42004	0.023977
5124.49137	0.024099
5122.56269	0.024291
5120.63402	0.024240
5118.70534	0.024119
5116.77667	0.024257
5114.84799	0.024459
5112.91931	0.024410
5110.99064	0.024308
5109.06196	0.024430
5107.13329	0.024578
5105.20461	0.024507
5103.27594	0.024424
5101.34726	0.024573
5099.41858	0.024738
5097.48991	0.024681
5095.56123	0.024641
5093.63256	0.024823
5091.70388	0.024956
5089.77521	0.024845
5087.84653	0.024765
5085.91785	0.024925
5083.98918	0.025068
5082.06050	0.024987
5080.13183	0.024931
5078.20315	0.025094
5076.27448	0.025217
5074.34580	0.025141
5072.41712	0.025128
5070.48845	0.025294
5068.55977	0.025360
5066.63110	0.025264
5064.70242	0.025297
5062.77375	0.025495
5060.84507	0.025553
5058.91639	0.025438
5056.98772	0.025460
5055.05904	0.025672
5053.13037	0.025759
5051.20169	0.025650
5049.27302	0.025670
5047.34434	0.025857
5045.41566	0.025893
5043.48699	0.025786
5041.55831	0.025850
5039.62964	0.026064
5037.70096	0.026100
5035.77229	0.025967
5033.84361	0.026005
5031.91493	0.026190
5029.98626	0.026183
5028.05758	0.026063
5026.12891	0.026163
5024.20023	0.026356
5022.27156	0.026326
5020.34288	0.026213
5018.41420	0.026321
5016.48553	0.026508
5014.55685	0.026482
5012.62818	0.026392
5010.69950	0.026523
5008.77083	0.026700
5006.84215	0.026658
5004.91347	0.026586
5002.98480	0.026740
5001.05612	0.026916
4999.12745	0.026862
4997.19877	0.026785
4995.27010	0.026911
4993.34142	0.027027
4991.41274	0.026932
4989.48407	0.026859
4987.55539	0.027015
4985.62672	0.027151
4983.69804	0.027063
4981.76937	0.027021
4979.84069	0.027216
4977.91201	0.027358
4975.98334	0.027259
4974.05466	0.027236
4972.12599	0.027465
4970.19731	0.027599
4968.26864	0.027490
4966.33996	0.027475
4964.41128	0.027665
4962.48261	0.027749
4960.55393	0.027630
4958.62526	0.027605
4956.69658	0.027775
4954.76791	0.027856
4952.83923	0.027786
4950.91055	0.027852
4948.98188	0.028066
4947.05320	0.028114
4945.12453	0.027988
4943.19585	0.028026
4941.26718	0.028238
4939.33850	0.028272
4937.40982	0.028133
4935.48115	0.028180
4933.55247	0.028389
4931.62380	0.028432
4929.69512	0.028343
4927.76645	0.028406
4925.83777	0.028554
4923.90909	0.028535
4921.98042	0.028448
4920.05174	0.028558
4918.12307	0.028737
4916.19439	0.028719
4914.26572	0.028641
4912.33704	0.028762
4910.40836	0.028938
4908.47969	0.028913
4906.55101	0.028828
4904.62234	0.028938
4902.69366	0.029095
4900.76499	0.029068
4898.83631	0.029026
4896.90763	0.029185
4894.97896	0.029337
4893.05028	0.029258
4891.12161	0.029183
4889.19293	0.029353
4887.26426	0.029519
4885.33558	0.029447
4883.40690	0.029376
4881.47823	0.029524
4879.54955	0.029671
4877.62088	0.029618
4875.69220	0.029591
4873.76353	0.029765
4871.83485	0.029881
4869.90617	0.029793
4867.97750	0.029792
4866.04882	0.030003
4864.12015	0.030096
4862.19147	0.029955
4860.26280	0.029932
4858.33412	0.030156
4856.40544	0.030280
4854.47677	0.030169
4852.54809	0.030132
4850.61942	0.030290
4848.69074	0.030366
4846.76207	0.030281
4844.83339	0.030324
4842.90471	0.030539
4840.97604	0.030602
4839.04736	0.030476
4837.11869	0.030493
4835.19001	0.030693
4833.26134	0.030760
4831.33266	0.030676
4829.40398	0.030743
4827.47531	0.030940
4825.54663	0.030971
4823.61796	0.030879
4821.68928	0.030966
4819.76061	0.031163
4817.83193	0.031157
4815.90325	0.031038
4813.97458	0.031130
4812.04590	0.031337
4810.11723	0.031346
4808.18855	0.031253
4806.25988	0.031342
4804.33120	0.031512
4802.40252	0.031502
4800.47385	0.031429
4798.54517	0.031550
4796.61650	0.031741
4794.68782	0.031747
4792.75915	0.031696
4790.83047	0.031828
4788.90179	0.031989
4786.97312	0.031958
4785.04444	0.031915
4783.11577	0.032069
4781.18709	0.032201
4779.25842	0.032121
4777.32974	0.032087
4775.40106	0.032284
4773.47239	0.032441
4771.54371	0.032366
4769.61504	0.032325
4767.68636	0.032492
4765.75769	0.032593
4763.82901	0.032474
4761.90033	0.032430
4759.97166	0.032619
4758.04298	0.032737
4756.11431	0.032633
4754.18563	0.032613
4752.25696	0.032813
4750.32828	0.032943
4748.39960	0.032881
4746.47093	0.032900
4744.54225	0.033088
4742.61358	0.033168
4740.68490	0.033089
4738.75623	0.033122
4736.82755	0.033307
4734.89887	0.033382
4732.97020	0.033321
4731.04152	0.033398
4729.11285	0.033614
4727.18417	0.033662
4725.25550	0.033547
4723.32682	0.033575
4721.39814	0.033752
4719.46947	0.033806
4717.54079	0.033737
4715.61212	0.033802
4713.68344	0.033977
4711.75477	0.034008
4709.82609	0.033939
4707.89741	0.034013
4705.96874	0.034168
4704.04006	0.034162
4702.11139	0.034081
4700.18271	0.034184
4698.25404	0.034363
4696.32536	0.034354
4694.39668	0.034275
4692.46801	0.034382
4690.53933	0.034541
4688.61066	0.034512
4686.68198	0.034463
4684.75331	0.034637
4682.82463	0.034846
4680.89595	0.034853
4678.96728	0.034830
4677.03860	0.034982
4675.10993	0.035123
4673.18125	0.035053
4671.25258	0.034977
4669.32390	0.035113
4667.39522	0.035246
4665.46655	0.035184
4663.53787	0.035164
4661.60920	0.035359
4659.68052	0.035507
4657.75185	0.035445
4655.82317	0.035444
4653.89449	0.035654
4651.96582	0.035797
4650.03714	0.035722
4648.10847	0.035709
4646.17979	0.035908
4644.25112	0.036054
4642.32244	0.036006
4640.39376	0.036004
4638.46509	0.036155
4636.53641	0.036228
4634.60774	0.036146
4632.67906	0.036157
4630.75039	0.036327
4628.82171	0.036415
4626.89303	0.036375
4624.96436	0.036434
4623.03568	0.036618
4621.10701	0.036699
4619.17833	0.036650
4617.24966	0.036691
4615.32098	0.036855
4613.39230	0.036912
4611.46363	0.036849
4609.53495	0.036911
4607.60628	0.037085
4605.67760	0.037118
4603.74893	0.037068
4601.82025	0.037194
4599.89157	0.037395
4597.96290	0.037391
4596.03422	0.037308
4594.10555	0.037424
4592.17687	0.037611
4590.24820	0.037606
4588.31952	0.037542
4586.39084	0.037681
4584.46217	0.037886
4582.53349	0.037890
4580.60482	0.037826
4578.67614	0.037942
4576.74747	0.038105
4574.81879	0.038088
4572.89011	0.038042
4570.96144	0.038192
4569.03276	0.038372
4567.10409	0.038354
4565.17541	0.038302
4563.24674	0.038419
4561.31806	0.038552
4559.38938	0.038541
4557.46071	0.038559
4555.53203	0.038753
4553.60336	0.038908
4551.67468	0.038835
4549.74601	0.038766
4547.81733	0.038935
4545.88865	0.039130
4543.95998	0.039135
4542.03130	0.039113
4540.10263	0.039239
4538.17395	0.039376
4536.24528	0.039380
4534.31660	0.039403
4532.38792	0.039563
4530.45925	0.039667
4528.53057	0.039614
4526.60190	0.039618
4524.67322	0.039773
4522.74455	0.039877
4520.81587	0.039860
4518.88719	0.039915
4516.95852	0.040086
4515.02984	0.040152
4513.10117	0.040093
4511.17249	0.040154
4509.24382	0.040350
4507.31514	0.040425
4505.38646	0.040371
4503.45779	0.040444
4501.52911	0.040655
4499.60044	0.040733
4497.67176	0.040664
4495.74309	0.040716
4493.81441	0.040899
4491.88573	0.040969
4489.95706	0.040947
4488.02838	0.041057
4486.09971	0.041238
4484.17103	0.041269
4482.24236	0.041224
4480.31368	0.041319
4478.38500	0.041486
4476.45633	0.041541
4474.52765	0.041546
4472.59898	0.041662
4470.67030	0.041804
4468.74163	0.041803
4466.81295	0.041781
4464.88427	0.041923
4462.95560	0.042091
4461.02692	0.042095
4459.09825	0.042081
4457.16957	0.042239
4455.24090	0.042419
4453.31222	0.042415
4451.38354	0.042375
4449.45487	0.042489
4447.52619	0.042610
4445.59752	0.042590
4443.66884	0.042593
4441.74017	0.042745
4439.81149	0.042894
4437.88281	0.042915
4435.95414	0.042940
4434.02546	0.043077
4432.09679	0.043198
4430.16811	0.043205
4428.23944	0.043235
4426.31076	0.043380
4424.38208	0.043472
4422.45341	0.043432
4420.52473	0.043474
4418.59606	0.043668
4416.66738	0.043788
4414.73871	0.043769
4412.81003	0.043824
4410.88135	0.044017
4408.95268	0.044142
4407.02400	0.044135
4405.09533	0.044189
4403.16665	0.044339
4401.23798	0.044391
4399.30930	0.044357
4397.38062	0.044447
4395.45195	0.044630
4393.52327	0.044699
4391.59460	0.044687
4389.66592	0.044777
4387.73725	0.044938
4385.80857	0.045009
4383.87989	0.045013
4381.95122	0.045090
4380.02254	0.045221
4378.09387	0.045276
4376.16519	0.045299
4374.23652	0.045426
4372.30784	0.045582
4370.37916	0.045618
4368.45049	0.045607
4366.52181	0.045718
4364.59314	0.045902
4362.66446	0.045978
4360.73579	0.045980
4358.80711	0.046093
4356.87843	0.046263
4354.94976	0.046317
4353.02108	0.046328
4351.09241	0.046445
4349.16373	0.046578
4347.23506	0.046586
4345.30638	0.046580
4343.37770	0.046709
4341.44903	0.046876
4339.52035	0.046943
4337.59168	0.046991
4335.66300	0.047114
4333.73433	0.047214
4331.80565	0.047230
4329.87697	0.047288
4327.94830	0.047446
4326.01962	0.047560
4324.09095	0.047560
4322.16227	0.047604
4320.23360	0.047782
4318.30492	0.047939
4316.37624	0.047963
4314.44757	0.047980
4312.51889	0.048104
4310.59022	0.048213
4308.66154	0.048235
4306.73287	0.048322
4304.80419	0.048501
4302.87551	0.048613
4300.94684	0.048643
4299.01816	0.048735
4297.08949	0.048885
4295.16081	0.048962
4293.23214	0.048982
4291.30346	0.049067
4289.37478	0.049213
4287.44611	0.049303
4285.51743	0.049348
4283.58876	0.049473
4281.66008	0.049639
4279.73141	0.049697
4277.80273	0.049676
4275.87405	0.049739
4273.94538	0.049896
4272.01670	0.049999
4270.08803	0.050031
4268.15935	0.050100
4266.23068	0.050192
4264.30200	0.050236
4262.37332	0.050296
4260.44465	0.050458
4258.51597	0.050629
4256.58730	0.050687
4254.65862	0.050703
4252.72995	0.050824
4250.80127	0.051002
4248.87259	0.051078
4246.94392	0.051095
4245.01524	0.051187
4243.08657	0.051315
4241.15789	0.051384
4239.22922	0.051447
4237.30054	0.051580
4235.37186	0.051708
4233.44319	0.051753
4231.51451	0.051802
4229.58584	0.051936
4227.65716	0.052074
4225.72849	0.052134
4223.79981	0.052197
4221.87113	0.052364
4219.94246	0.052533
4218.01378	0.052569
4216.08511	0.052585
4214.15643	0.052704
4212.22776	0.052822
4210.29908	0.052885
4208.37040	0.052982
4206.44173	0.053124
4204.51305	0.053230
4202.58438	0.053291
4200.65570	0.053382
4198.72703	0.053502
4196.79835	0.053579
4194.86968	0.053637
4192.94100	0.053767
4191.01232	0.053945
4189.08365	0.054049
4187.15497	0.054070
4185.22630	0.054127
4183.29762	0.054265
4181.36895	0.054399
4179.44027	0.054493
4177.51159	0.054611
4175.58292	0.054731
4173.65424	0.054784
4171.72557	0.054819
4169.79689	0.054931
4167.86822	0.055086
4165.93954	0.055181
4164.01086	0.055234
4162.08219	0.055349
4160.15351	0.055517
4158.22484	0.055639
4156.29616	0.055722
4154.36749	0.055840
4152.43881	0.055955
4150.51013	0.055989
4148.58146	0.056018
4146.65278	0.056167
4144.72411	0.056361
4142.79543	0.056465
4140.86676	0.056522
4138.93808	0.056620
4137.00940	0.056720
4135.08073	0.056794
4133.15205	0.056898
4131.22338	0.057032
4129.29470	0.057124
4127.36603	0.057170
4125.43735	0.057244
4123.50867	0.057380
4121.58000	0.057513
4119.65132	0.057581
4117.72265	0.057653
4115.79397	0.057799
4113.86530	0.057947
4111.93662	0.058036
4110.00794	0.058130
4108.07927	0.058269
4106.15059	0.058373
4104.22192	0.058428
4102.29324	0.058538
4100.36457	0.058717
4098.43589	0.058835
4096.50721	0.058877
4094.57854	0.058969
4092.64986	0.059120
4090.72119	0.059245
4088.79251	0.059356
4086.86384	0.059487
4084.93516	0.059600
4083.00648	0.059664
4081.07781	0.059724
4079.14913	0.059845
4077.22046	0.060002
4075.29178	0.060134
4073.36311	0.060245
4071.43443	0.060370
4069.50575	0.060509
4067.57708	0.060626
4065.64840	0.060725
4063.71973	0.060850
4061.79105	0.060974
4059.86238	0.061041
4057.93370	0.061084
4056.00502	0.061191
4054.07635	0.061373
4052.14767	0.061542
4050.21900	0.061644
4048.29032	0.061731
4046.36165	0.061840
4044.43297	0.061927
4042.50429	0.062009
4040.57562	0.062145
4038.64694	0.062290
4036.71827	0.062390
4034.78959	0.062508
4032.86092	0.062675
4030.93224	0.062797
4029.00356	0.062854
4027.07489	0.062955
4025.14621	0.063107
4023.21754	0.063211
4021.28886	0.063274
4019.36019	0.063377
4017.43151	0.063526
4015.50283	0.063657
4013.57416	0.063752
4011.64548	0.063869
4009.71681	0.064035
4007.78813	0.064190
4005.85946	0.064293
4003.93078	0.064387
4002.00210	0.064514
4000.07343	0.064638
3998.14475	0.064726
3996.21608	0.064813
3994.28740	0.064931
3992.35873	0.065042
3990.43005	0.065135
3988.50137	0.065269
3986.57270	0.065430
3984.64402	0.065550
3982.71535	0.065639
3980.78667	0.065758
3978.85800	0.065894
3976.92932	0.065998
3975.00064	0.066104
3973.07197	0.066261
3971.14329	0.066413
3969.21462	0.066512
3967.28594	0.066622
3965.35727	0.066773
3963.42859	0.066908
3961.49991	0.066993
3959.57124	0.067082
3957.64256	0.067237
3955.71389	0.067406
3953.78521	0.067492
3951.85654	0.067552
3949.92786	0.067694
3947.99918	0.067869
3946.07051	0.067972
3944.14183	0.068048
3942.21316	0.068208
3940.28448	0.068388
3938.35581	0.068481
3936.42713	0.068540
3934.49845	0.068616
3932.56978	0.068697
3930.64110	0.068819
3928.71243	0.068993
3926.78375	0.069155
3924.85508	0.069265
3922.92640	0.069350
3920.99772	0.069449
3919.06905	0.069567
3917.14037	0.069696
3915.21170	0.069864
3913.28302	0.070084
3911.35435	0.070275
3909.42567	0.070341
3907.49699	0.070310
3905.56832	0.070307
3903.63964	0.070376
3901.71097	0.070495
3899.78229	0.070704
3897.85362	0.071003
3895.92494	0.071251
3893.99626	0.071325
3892.06759	0.071338
3890.13891	0.071468
3888.21024	0.071592
3886.28156	0.071611
3884.35289	0.071718
3882.42421	0.071923
3880.49553	0.072097
3878.56686	0.072262
3876.63818	0.072410
3874.70951	0.072543
3872.78083	0.072649
3870.85216	0.072697
3868.92348	0.072830
3866.99480	0.073047
3865.06613	0.073168
3863.13745	0.073256
3861.20878	0.073453
3859.28010	0.073674
3857.35143	0.073676
3855.42275	0.073423
3853.49407	0.073349
3851.56540	0.073756
3849.63672	0.074271
3847.70805	0.074528
3845.77937	0.074625
3843.85070	0.074690
3841.92202	0.074660
3839.99334	0.074556
3838.06467	0.074625
3836.13599	0.074958
3834.20732	0.075280
3832.27864	0.075452
3830.34997	0.075607
3828.42129	0.075777
3826.49261	0.075903
3824.56394	0.075955
3822.63526	0.075984
3820.70659	0.076124
3818.77791	0.076288
3816.84924	0.076394
3814.92056	0.076662
3812.99188	0.077040
3811.06321	0.077197
3809.13453	0.077137
3807.20586	0.077177
3805.27718	0.077385
3803.34851	0.077470
3801.41983	0.077472
3799.49115	0.077650
3797.56248	0.077908
3795.63380	0.078129
3793.70513	0.078364
3791.77645	0.078608
3789.84778	0.078820
3787.91910	0.078915
3785.99042	0.078951
3784.06175	0.079104
3782.13307	0.079307
3780.20440	0.079392
3778.27572	0.079465
3776.34705	0.079668
3774.41837	0.079849
3772.48969	0.079835
3770.56102	0.079820
3768.63234	0.080023
3766.70367	0.080280
3764.77499	0.080419
3762.84632	0.080511
3760.91764	0.080619
3758.98896	0.080755
3757.06029	0.080882
3755.13161	0.080919
3753.20294	0.080882
3751.27426	0.080934
3749.34559	0.081103
3747.41691	0.081094
3745.48823	0.080965
3743.55956	0.081228
3741.63088	0.081759
3739.70221	0.081988
3737.77353	0.081954
3735.84486	0.081984
3733.91618	0.082119
3731.98750	0.082384
3730.05883	0.082765
3728.13015	0.083015
3726.20148	0.083081
3724.27280	0.083222
3722.34413	0.083493
3720.41545	0.083701
3718.48677	0.083792
3716.55810	0.083905
3714.62942	0.084037
3712.70075	0.084054
3710.77207	0.084092
3708.84340	0.084372
3706.91472	0.084735
3704.98604	0.084841
3703.05737	0.084781
3701.12869	0.084943
3699.20002	0.085286
3697.27134	0.085474
3695.34267	0.085474
3693.41399	0.085447
3691.48531	0.085440
3689.55664	0.085493
3687.62796	0.085730
3685.69929	0.086136
3683.77061	0.086460
3681.84194	0.086528
3679.91326	0.086430
3677.98458	0.086330
3676.05591	0.086382
3674.12723	0.086610
3672.19856	0.086790
3670.26988	0.086944
3668.34121	0.087279
3666.41253	0.087612
3664.48385	0.087788
3662.55518	0.087994
3660.62650	0.088211
3658.69783	0.088229
3656.76915	0.088191
3654.84048	0.088312
3652.91180	0.088320
3650.98312	0.088030
3649.05445	0.087848
3647.12577	0.088103
3645.19710	0.088579
3643.26842	0.088951
3641.33975	0.089210
3639.41107	0.089471
3637.48239	0.089664
3635.55372	0.089708
3633.62504	0.089716
3631.69637	0.089751
3629.76769	0.089764
3627.83902	0.089852
3625.91034	0.090117
3623.98166	0.090409
3622.05299	0.090455
3620.12431	0.090313
3618.19564	0.090380
3616.26696	0.090641
3614.33829	0.090734
3612.40961	0.090651
3610.48093	0.090664
3608.55226	0.090943
3606.62358	0.091310
3604.69491	0.091473
3602.76623	0.091524
3600.83756	0.091698
3598.90888	0.091891
3596.98020	0.091945
3595.05153	0.092007
3593.12285	0.092201
3591.19418	0.092292
3589.26550	0.092161
3587.33683	0.092159
3585.40815	0.092472
3583.47947	0.092782
3581.55080	0.092895
3579.62212	0.093014
3577.69345	0.093226
3575.76477	0.093347
3573.83610	0.093341
3571.90742	0.093373
3569.97874	0.093404
3568.05007	0.093352
3566.12139	0.093412
3564.19272	0.093694
3562.26404	0.094000
3560.33537	0.094128
3558.40669	0.094143
3556.47801	0.094248
3554.54934	0.094408
3552.62066	0.094460
3550.69199	0.094472
3548.76331	0.094588
3546.83464	0.094747
3544.90596	0.094840
3542.97728	0.094950
3541.04861	0.095182
3539.11993	0.095387
3537.19126	0.095401
3535.26258	0.095376
3533.33391	0.095500
3531.40523	0.095643
3529.47655	0.095647
3527.54788	0.095625
3525.61920	0.095726
3523.69053	0.095855
3521.76185	0.095858
3519.83318	0.095841
3517.90450	0.095982
3515.97582	0.096149
3514.04715	0.096130
3512.11847	0.096055
3510.18980	0.096111
3508.26112	0.096202
3506.33245	0.096202
3504.40377	0.096220
3502.47509	0.096331
3500.54642	0.096372
3498.61774	0.096277
3496.68907	0.096261
3494.76039	0.096410
3492.83172	0.096509
3490.90304	0.096442
3488.97436	0.096421
3487.04569	0.096562
3485.11701	0.096642
3483.18834	0.096576
3481.25966	0.096643
3479.33099	0.096919
3477.40231	0.097100
3475.47363	0.097087
3473.54496	0.097130
3471.61628	0.097311
3469.68761	0.097451
3467.75893	0.097535
3465.83026	0.097730
3463.90158	0.098011
3461.97290	0.098180
3460.04423	0.098225
3458.11555	0.098366
3456.18688	0.098636
3454.25820	0.098795
3452.32953	0.098816
3450.40085	0.098945
3448.47217	0.099190
3446.54350	0.099319
3444.61482	0.099349
3442.68615	0.099522
3440.75747	0.099854
3438.82880	0.100113
3436.90012	0.100287
3434.97144	0.100615
3433.04277	0.101084
3431.11409	0.101435
3429.18542	0.101656
3427.25674	0.101986
3425.32807	0.102429
3423.39939	0.102720
3421.47071	0.102867
3419.54204	0.103141
3417.61336	0.103527
3415.68469	0.103790
3413.75601	0.103968
3411.82734	0.104258
3409.89866	0.104594
3407.96998	0.104806
3406.04131	0.104949
3404.11263	0.105189
3402.18396	0.105488
3400.25528	0.105653
3398.32661	0.105742
3396.39793	0.105988
3394.46925	0.106318
3392.54058	0.106508
3390.61190	0.106656
3388.68323	0.106932
3386.75455	0.107182
3384.82588	0.107278
3382.89720	0.107417
3380.96852	0.107738
3379.03985	0.108049
3377.11117	0.108170
3375.18250	0.108258
3373.25382	0.108510
3371.32515	0.108792
3369.39647	0.108920
3367.46779	0.109024
3365.53912	0.109297
3363.61044	0.109580
3361.68177	0.109681
3359.75309	0.109808
3357.82442	0.110148
3355.89574	0.110470
3353.96706	0.110602
3352.03839	0.110758
3350.10971	0.111038
3348.18104	0.111221
3346.25236	0.111250
3344.32369	0.111376
3342.39501	0.111664
3340.46633	0.111891
3338.53766	0.112016
3336.60898	0.112235
3334.68031	0.112546
3332.75163	0.112717
3330.82296	0.112751
3328.89428	0.112919
3326.96560	0.113278
3325.03693	0.113555
3323.10825	0.113646
3321.17958	0.113796
3319.25090	0.114102
3317.32223	0.114329
3315.39355	0.114435
3313.46487	0.114659
3311.53620	0.114980
3309.60752	0.115170
3307.67885	0.115263
3305.75017	0.115477
3303.82150	0.115798
3301.89282	0.116008
3299.96414	0.116119
3298.03547	0.116369
3296.10679	0.116727
3294.17812	0.116919
3292.24944	0.116978
3290.32077	0.117211
3288.39209	0.117587
3286.46341	0.117792
3284.53474	0.117856
3282.60606	0.118061
3280.67739	0.118381
3278.74871	0.118588
3276.82004	0.118720
3274.89136	0.118982
3272.96268	0.119308
3271.03401	0.119477
3269.10533	0.119573
3267.17666	0.119831
3265.24798	0.120149
3263.31931	0.120297
3261.39063	0.120399
3259.46195	0.120684
3257.53328	0.121011
3255.60460	0.121140
3253.67593	0.121217
3251.74725	0.121497
3249.81858	0.121847
3247.88990	0.122019
3245.96122	0.122160
3244.03255	0.122497
3242.10387	0.122844
3240.17520	0.122981
3238.24652	0.123104
3236.31785	0.123412
3234.38917	0.123711
3232.46049	0.123814
3230.53182	0.123922
3228.60314	0.124215
3226.67447	0.124513
3224.74579	0.124655
3222.81712	0.124826
3220.88844	0.125176
3218.95976	0.125470
3217.03109	0.125535
3215.10241	0.125621
3213.17374	0.125878
3211.24506	0.126094
3209.31639	0.126197
3207.38771	0.126401
3205.45903	0.126771
3203.53036	0.127086
3201.60168	0.127243
3199.67301	0.127448
3197.74433	0.127798
3195.81566	0.128066
3193.88698	0.128183
3191.95830	0.128394
3190.02963	0.128732
3188.10095	0.128952
3186.17228	0.129066
3184.24360	0.129339
3182.31493	0.129754
3180.38625	0.130015
3178.45757	0.130098
3176.52890	0.130291
3174.60022	0.130624
3172.67155	0.130841
3170.74287	0.130936
3168.81420	0.131181
3166.88552	0.131573
3164.95684	0.131809
3163.02817	0.131870
3161.09949	0.132067
3159.17082	0.132428
3157.24214	0.132680
3155.31347	0.132797
3153.38479	0.133019
3151.45611	0.133360
3149.52744	0.133566
3147.59876	0.133662
3145.67009	0.133925
3143.74141	0.134282
3141.81274	0.134469
3139.88406	0.134601
3137.95538	0.134925
3136.02671	0.135305
3134.09803	0.135488
3132.16936	0.135578
3130.24068	0.135803
3128.31201	0.136073
3126.38333	0.136192
3124.45465	0.136311
3122.52598	0.136674
3120.59730	0.137085
3118.66863	0.137243
3116.73995	0.137336
3114.81128	0.137659
3112.88260	0.138025
3110.95392	0.138153
3109.02525	0.138222
3107.09657	0.138501
3105.16790	0.138829
3103.23922	0.138967
3101.31055	0.139097
3099.38187	0.139438
3097.45319	0.139778
3095.52452	0.139926
3093.59584	0.140089
3091.66717	0.140414
3089.73849	0.140695
3087.80982	0.140785
3085.88114	0.140893
3083.95246	0.141212
3082.02379	0.141572
3080.09511	0.141763
3078.16644	0.141929
3076.23776	0.142257
3074.30909	0.142571
3072.38041	0.142690
3070.45173	0.142823
3068.52306	0.143138
3066.59438	0.143411
3064.66571	0.143506
3062.73703	0.143662
3060.80836	0.143989
3058.87968	0.144255
3056.95100	0.144381
3055.02233	0.144618
3053.09365	0.145018
3051.16498	0.145285
3049.23630	0.145356
3047.30763	0.145521
3045.37895	0.145847
3043.45027	0.146082
3041.52160	0.146178
3039.59292	0.146399
3037.66425	0.146796
3035.73557	0.147086
3033.80690	0.147208
3031.87822	0.147433
3029.94954	0.147810
3028.02087	0.148046
3026.09219	0.148111
3024.16352	0.148326
3022.23484	0.148708
3020.30617	0.148936
3018.37749	0.148982
3016.44881	0.149142
3014.52014	0.149458
3012.59146	0.149686
3010.66279	0.149818
3008.73411	0.150095
3006.80544	0.150478
3004.87676	0.150674
3002.94808	0.150730
3001.01941	0.150935
2999.09073	0.151240
2997.16206	0.151409
2995.23338	0.151520
2993.30471	0.151788
2991.37603	0.152098
2989.44735	0.152193
2987.51868	0.152177
2985.59000	0.152311
2983.66133	0.152494
2981.73265	0.152439
2979.80398	0.152222
2977.87530	0.152152
2975.94662	0.152153
2974.01795	0.151950
2972.08927	0.151628
2970.16060	0.151403
2968.23192	0.151216
2966.30325	0.150947
2964.37457	0.150765
2962.44589	0.150909
2960.51722	0.151253
2958.58854	0.151575
2956.65987	0.152019
2954.73119	0.152752
2952.80252	0.153513
2950.87384	0.153993
2948.94516	0.154346
2947.01649	0.154797
2945.08781	0.155161
2943.15914	0.155241
2941.23046	0.155264
2939.30179	0.155428
2937.37311	0.155520
2935.44443	0.155360
2933.51576	0.155180
2931.58708	0.155183
2929.65841	0.155147
2927.72973	0.154918
2925.80106	0.154780
2923.87238	0.154893
2921.94370	0.154978
2920.01503	0.154932
2918.08635	0.155127
2916.15768	0.155806
2914.22900	0.156686
2912.30033	0.157429
2910.37165	0.158087
2908.44297	0.158777
2906.51430	0.159339
2904.58562	0.159707
2902.65695	0.160125
2900.72827	0.160676
2898.79960	0.161089
2896.87092	0.161286
2894.94224	0.161592
2893.01357	0.162112
2891.08489	0.162533
2889.15622	0.162765
2887.22754	0.163091
2885.29887	0.163556
2883.37019	0.163863
2881.44151	0.163963
2879.51284	0.164151
2877.58416	0.164511
2875.65549	0.164770
2873.72681	0.164864
2871.79814	0.165083
2869.86946	0.165478
2867.94078	0.165724
2866.01211	0.165755
2864.08343	0.165873
2862.15476	0.166118
2860.22608	0.166168
2858.29741	0.165990
2856.36873	0.165913
2854.44005	0.165940
2852.51138	0.165833
2850.58270	0.165851
2848.65403	0.166443
2846.72535	0.167476
2844.79668	0.168424
2842.86800	0.169090
2840.93932	0.169689
2839.01065	0.170253
2837.08197	0.170594
2835.15330	0.170826
2833.22462	0.171221
2831.29595	0.171688
2829.36727	0.171974
2827.43859	0.172191
2825.50992	0.172582
2823.58124	0.173009
2821.65257	0.173230
2819.72389	0.173376
2817.79522	0.173696
2815.86654	0.174075
2813.93786	0.174278
2812.00919	0.174426
2810.08051	0.174737
2808.15184	0.175080
2806.22316	0.175268
2804.29449	0.175464
2802.36581	0.175852
2800.43713	0.176219
2798.50846	0.176364
2796.57978	0.176543
2794.65111	0.176966
2792.72243	0.177351
2790.79376	0.177468
2788.86508	0.177601
2786.93640	0.177994
2785.00773	0.178376
2783.07905	0.178521
2781.15038	0.178681
2779.22170	0.179022
2777.29303	0.179325
2775.36435	0.179481
2773.43567	0.179699
2771.50700	0.180089
2769.57832	0.180447
2767.64965	0.180640
2765.72097	0.180852
2763.79230	0.181198
2761.86362	0.181481
2759.93494	0.181619
2758.00627	0.181844
2756.07759	0.182238
2754.14892	0.182561
2752.22024	0.182715
2750.29157	0.182913
2748.36289	0.183230
2746.43421	0.183463
2744.50554	0.183579
2742.57686	0.183804
2740.64819	0.184162
2738.71951	0.184399
2736.79084	0.184522
2734.86216	0.184808
2732.93348	0.185214
2731.00481	0.185436
2729.07613	0.185510
2727.14746	0.185762
2725.21878	0.186186
2723.29011	0.186473
2721.36143	0.186613
2719.43275	0.186878
2717.50408	0.187259
2715.57540	0.187494
2713.64673	0.187615
2711.71805	0.187876
2709.78938	0.188219
2707.86070	0.188389
2705.93202	0.188471
2704.00335	0.188745
2702.07467	0.189122
2700.14600	0.189318
2698.21732	0.189421
2696.28865	0.189709
2694.35997	0.190077
2692.43129	0.190275
2690.50262	0.190431
2688.57394	0.190778
2686.64527	0.191163
2684.71659	0.191338
2682.78792	0.191442
2680.85924	0.191734
2678.93056	0.192100
2677.00189	0.192283
2675.07321	0.192370
2673.14454	0.192607
2671.21586	0.192902
2669.28719	0.193042
2667.35851	0.193192
2665.42983	0.193564
2663.50116	0.193935
2661.57248	0.194069
2659.64381	0.194194
2657.71513	0.194528
2655.78646	0.194863
2653.85778	0.195012
2651.92910	0.195167
2650.00043	0.195526
2648.07175	0.195918
2646.14308	0.196134
2644.21440	0.196329
2642.28573	0.196700
2640.35705	0.197078
2638.42837	0.197261
2636.49970	0.197432
2634.57102	0.197788
2632.64235	0.198119
2630.71367	0.198270
2628.78500	0.198504
2626.85632	0.198951
2624.92764	0.199287
2622.99897	0.199382
2621.07029	0.199581
2619.14162	0.200008
2617.21294	0.200346
2615.28427	0.200472
2613.35559	0.200650
2611.42691	0.201007
2609.49824	0.201335
2607.56956	0.201519
2605.64089	0.201759
2603.71221	0.202146
2601.78354	0.202442
2599.85486	0.202613
2597.92618	0.202920
2595.99751	0.203334
2594.06883	0.203588
2592.14016	0.203735
2590.21148	0.204055
2588.28281	0.204495
2586.35413	0.204737
2584.42545	0.204817
2582.49678	0.205087
2580.56810	0.205552
2578.63943	0.205856
2576.71075	0.205962
2574.78208	0.206185
2572.85340	0.206538
2570.92472	0.206763
2568.99605	0.206905
2567.06737	0.207216
2565.13870	0.207617
2563.21002	0.207818
2561.28135	0.207903
2559.35267	0.208176
2557.42399	0.208561
2555.49532	0.208791
2553.56664	0.208951
2551.63797	0.209265
2549.70929	0.209631
2547.78062	0.209817
2545.85194	0.209921
2543.92326	0.210204
2541.99459	0.210584
2540.06591	0.210798
2538.13724	0.210928
2536.20856	0.211245
2534.27989	0.211656
2532.35121	0.211875
2530.42253	0.211990
2528.49386	0.212272
2526.56518	0.212642
2524.63651	0.212853
2522.70783	0.213006
2520.77916	0.213333
2518.85048	0.213693
2516.92181	0.213873
2514.99313	0.214045
2513.06445	0.214418
2511.13578	0.214826
2509.20710	0.215036
2507.27843	0.215190
2505.34975	0.215525
2503.42108	0.215896
2501.49240	0.216086
2499.56372	0.216259
2497.63505	0.216622
2495.70637	0.217006
2493.77770	0.217194
2491.84902	0.217355
2489.92035	0.217718
2487.99167	0.218134
2486.06299	0.218398
2484.13432	0.218641
2482.20564	0.219033
2480.27697	0.219401
2478.34829	0.219568
2476.41962	0.219754
2474.49094	0.220154
2472.56226	0.220551
2470.63359	0.220750
2468.70491	0.220941
2466.77624	0.221281
2464.84756	0.221578
2462.91889	0.221733
2460.99021	0.221990
2459.06153	0.222430
2457.13286	0.222781
2455.20418	0.222942
2453.27551	0.223151
2451.34683	0.223531
2449.41816	0.223893
2447.48948	0.224104
2445.56080	0.224304
2443.63213	0.224600
2441.70345	0.224882
2439.77478	0.225098
2437.84610	0.225408
2435.91743	0.225832
2433.98875	0.226133
2432.06007	0.226284
2430.13140	0.226561
2428.20272	0.226990
2426.27405	0.227301
2424.34537	0.227438
2422.41670	0.227630
2420.48802	0.227960
2418.55934	0.228244
2416.63067	0.228442
2414.70199	0.228771
2412.77332	0.229199
2410.84464	0.229446
2408.91597	0.229558
2406.98729	0.229829
2405.05861	0.230235
2403.12994	0.230516
2401.20126	0.230699
2399.27259	0.230991
2397.34391	0.231346
2395.41524	0.231568
2393.48656	0.231710
2391.55788	0.231980
2389.62921	0.232328
2387.70053	0.232532
2385.77186	0.232640
2383.84318	0.232869
2381.91451	0.233156
2379.98583	0.233237
2378.05715	0.233132
2376.12848	0.233127
2374.19980	0.233241
2372.27113	0.233262
2370.34245	0.233239
2368.41378	0.233391
2366.48510	0.233648
2364.55642	0.233772
2362.62775	0.233846
2360.69907	0.234109
2358.77040	0.234504
2356.84172	0.234876
2354.91305	0.235295
2352.98437	0.235891
2351.05569	0.236517
2349.12702	0.236842
2347.19834	0.236889
2345.26967	0.237004
2343.34099	0.237228
2341.41232	0.237366
2339.48364	0.237521
2337.55496	0.237845
2335.62629	0.238162
2333.69761	0.238325
2331.76894	0.238514
2329.84026	0.238909
2327.91159	0.239346
2325.98291	0.239616
2324.05423	0.239866
2322.12556	0.240285
2320.19688	0.240741
2318.26821	0.241094
2316.33953	0.241467
2314.41086	0.241945
2312.48218	0.242395
2310.55350	0.242738
2308.62483	0.243089
2306.69615	0.243511
2304.76748	0.243845
2302.83880	0.244051
2300.91013	0.244332
2298.98145	0.244752
2297.05277	0.245145
2295.12410	0.245433
2293.19542	0.245744
2291.26675	0.246122
2289.33807	0.246447
2287.40940	0.246669
2285.48072	0.246884
2283.55204	0.247176
2281.62337	0.247455
2279.69469	0.247640
2277.76602	0.247881
2275.83734	0.248234
2273.90867	0.248502
2271.97999	0.248654
2270.05131	0.248903
2268.12264	0.249276
2266.19396	0.249574
2264.26529	0.249752
2262.33661	0.249989
2260.40794	0.250323
2258.47926	0.250586
2256.55058	0.250787
2254.62191	0.251079
2252.69323	0.251398
2250.76456	0.251602
2248.83588	0.251762
2246.90721	0.252038
2244.97853	0.252410
2243.04985	0.252718
2241.12118	0.252948
2239.19250	0.253207
2237.26383	0.253472
2235.33515	0.253649
2233.40648	0.253787
2231.47780	0.254045
2229.54912	0.254421
2227.62045	0.254724
2225.69177	0.254946
2223.76310	0.255236
2221.83442	0.255552
2219.90575	0.255776
2217.97707	0.255942
2216.04839	0.256160
2214.11972	0.256443
2212.19104	0.256699
2210.26237	0.256935
2208.33369	0.257239
2206.40502	0.257568
2204.47634	0.257800
2202.54766	0.257998
2200.61899	0.258292
2198.69031	0.258592
2196.76164	0.258778
2194.83296	0.258929
2192.90429	0.259160
2190.97561	0.259448
2189.04693	0.259701
2187.11826	0.259953
2185.18958	0.260293
2183.26091	0.260622
2181.33223	0.260816
2179.40356	0.260971
2177.47488	0.261212
2175.54620	0.261473
2173.61753	0.261664
2171.68885	0.261872
2169.76018	0.262184
2167.83150	0.262502
2165.90283	0.262774
2163.97415	0.263115
2162.04547	0.263532
2160.11680	0.263832
2158.18812	0.263962
2156.25945	0.264121
2154.33077	0.264406
2152.40210	0.264706
2150.47342	0.264965
2148.54474	0.265242
2146.61607	0.265558
2144.68739	0.265820
2142.75872	0.266012
2140.83004	0.266295
2138.90137	0.266709
2136.97269	0.267048
2135.04401	0.267237
2133.11534	0.267423
2131.18666	0.267690
2129.25799	0.267954
2127.32931	0.268142
2125.40064	0.268361
2123.47196	0.268716
2121.54328	0.269056
2119.61461	0.269282
2117.68593	0.269557
2115.75726	0.269928
2113.82858	0.270212
2111.89991	0.270368
2109.97123	0.270561
2108.04255	0.270840
2106.11388	0.271095
2104.18520	0.271323
2102.25653	0.271628
2100.32785	0.271980
2098.39918	0.272226
2096.47050	0.272373
2094.54182	0.272586
2092.61315	0.272884
2090.68447	0.273155
2088.75580	0.273384
2086.82712	0.273644
2084.89845	0.273944
2082.96977	0.274212
2081.04109	0.274454
2079.11242	0.274726
2077.18374	0.274980
2075.25507	0.275169
2073.32639	0.275369
2071.39772	0.275660
2069.46904	0.275971
2067.54036	0.276179
2065.61169	0.276350
2063.68301	0.276617
2061.75434	0.276941
2059.82566	0.277225
2057.89699	0.277464
2055.96831	0.277689
2054.03963	0.277897
2052.11096	0.278075
2050.18228	0.278286
2048.25361	0.278611
2046.32493	0.278960
2044.39626	0.279164
2042.46758	0.279264
2040.53890	0.279457
2038.61023	0.279775
2036.68155	0.280048
2034.75288	0.280230
2032.82420	0.280460
2030.89553	0.280766
2028.96685	0.281035
2027.03817	0.281270
2025.10950	0.281596
2023.18082	0.281945
2021.25215	0.282132
2019.32347	0.282246
2017.39480	0.282492
2015.46612	0.282792
2013.53744	0.282982
2011.60877	0.283166
2009.68009	0.283515
2007.75142	0.283923
2005.82274	0.284215
2003.89407	0.284426
2001.96539	0.284644
2000.03671	0.284860
1998.10804	0.285039
1996.17936	0.285223
1994.25069	0.285470
1992.32201	0.285738
1990.39334	0.285920
1988.46466	0.286064
1986.53598	0.286341
1984.60731	0.286686
1982.67863	0.286901
1980.74996	0.287057
1978.82128	0.287329
1976.89261	0.287651
1974.96393	0.287867
1973.03525	0.288019
1971.10658	0.288210
1969.17790	0.288365
1967.24923	0.288458
1965.32055	0.288674
1963.39188	0.289056
1961.46320	0.289368
1959.53452	0.289537
1957.60585	0.289760
1955.67717	0.290087
1953.74850	0.290354
1951.81982	0.290530
1949.89115	0.290757
1947.96247	0.291072
1946.03379	0.291301
1944.10512	0.291366
1942.17644	0.291526
1940.24777	0.291908
1938.31909	0.292242
1936.39042	0.292448
1934.46174	0.292719
1932.53306	0.293047
1930.60439	0.293254
1928.67571	0.293409
1926.74704	0.293679
1924.81836	0.293951
1922.88969	0.294087
1920.96101	0.294074
1919.03233	0.294086
1917.10366	0.294476
1915.17498	0.295074
1913.24631	0.295417
1911.31763	0.295618
1909.38896	0.295920
1907.46028	0.296194
1905.53160	0.296342
1903.60293	0.296530
1901.67425	0.296837
1899.74558	0.297086
1897.81690	0.297186
1895.88823	0.297325
1893.95955	0.297607
1892.03087	0.297848
1890.10220	0.298024
1888.17352	0.298342
1886.24485	0.298720
1884.31617	0.298954
1882.38750	0.299111
1880.45882	0.299361
1878.53014	0.299672
1876.60147	0.299886
1874.67279	0.300027
1872.74412	0.300122
1870.81544	0.300065
1868.88677	0.300101
1866.95809	0.300555
1865.02941	0.301195
1863.10074	0.301655
1861.17206	0.301886
1859.24339	0.302042
1857.31471	0.302313
1855.38604	0.302668
1853.45736	0.302941
1851.52868	0.303139
1849.60001	0.303376
1847.67133	0.303522
1845.74266	0.303447
1843.81398	0.303549
1841.88531	0.304095
1839.95663	0.304683
1838.02795	0.305017
1836.09928	0.305245
1834.17060	0.305427
1832.24193	0.305409
1830.31325	0.305377
1828.38458	0.305673
1826.45590	0.306099
1824.52722	0.306419
1822.59855	0.306715
1820.66987	0.307020
1818.74120	0.307315
1816.81252	0.307577
1814.88385	0.307759
1812.95517	0.307867
1811.02649	0.308019
1809.09782	0.308267
1807.16914	0.308522
1805.24047	0.308719
1803.31179	0.308828
1801.38312	0.308893
1799.45444	0.309021
1797.52576	0.309191
1795.59709	0.309151
1793.66841	0.308916
1791.73974	0.309082
1789.81106	0.309742
1787.88239	0.310180
1785.95371	0.310205
1784.02503	0.310271
1782.09636	0.310539
1780.16768	0.310879
1778.23901	0.311147
1776.31033	0.311141
1774.38166	0.310915
1772.45298	0.310887
1770.52430	0.311194
1768.59563	0.311577
1766.66695	0.311896
1764.73828	0.311982
1762.80960	0.311796
1760.88093	0.311782
1758.95225	0.312048
1757.02357	0.312305
1755.09490	0.312263
1753.16622	0.311652
1751.23755	0.311056
1749.30887	0.311180
1747.38020	0.311526
1745.45152	0.311551
1743.52284	0.311404
1741.59417	0.311246
1739.66549	0.311294
1737.73682	0.311548
1735.80814	0.311574
1733.87947	0.311578
1731.95079	0.312036
1730.02211	0.312663
1728.09344	0.313177
1726.16476	0.313535
1724.23609	0.313691
1722.30741	0.313679
1720.37874	0.313388
1718.45006	0.313006
1716.52138	0.313146
1714.59271	0.313863
1712.66403	0.314619
1710.73536	0.315097
1708.80668	0.315193
1706.87801	0.315022
1704.94933	0.314829
1703.02065	0.314422
1701.09198	0.313947
1699.16330	0.314130
1697.23463	0.314824
1695.30595	0.315442
1693.37728	0.315797
1691.44860	0.315758
1689.51992	0.315656
1687.59125	0.315603
1685.66257	0.315212
1683.73390	0.314974
1681.80522	0.315448
1679.87655	0.315997
1677.94787	0.315821
1676.01919	0.315315
1674.09052	0.315294
1672.16184	0.315514
1670.23317	0.315640
1668.30449	0.316021
1666.37582	0.316469
1664.44714	0.316465
1662.51846	0.316355
1660.58979	0.316605
1658.66111	0.316891
1656.73244	0.316516
1654.80376	0.315348
1652.87509	0.314619
1650.94641	0.315079
1649.01773	0.315644
1647.08906	0.315933
1645.16038	0.316506
1643.23171	0.317107
1641.30303	0.317304
1639.37436	0.317051
1637.44568	0.316659
1635.51700	0.316755
1633.58833	0.317366
1631.65965	0.317791
1629.73098	0.317754
1627.80230	0.317552
1625.87363	0.317198
1623.94495	0.316554
1622.01627	0.315947
1620.08760	0.315729
1618.15892	0.316003
1616.23025	0.316936
1614.30157	0.318185
1612.37290	0.319064
1610.44422	0.319567
1608.51554	0.320036
1606.58687	0.320544
1604.65819	0.320995
1602.72952	0.321333
1600.80084	0.321617
1598.87217	0.321890
1596.94349	0.322126
1595.01481	0.322302
1593.08614	0.322497
1591.15746	0.322791
1589.22879	0.323113
1587.30011	0.323366
1585.37144	0.323590
1583.44276	0.323877
1581.51408	0.324147
1579.58541	0.324014
1577.65673	0.323456
1575.72806	0.323417
1573.79938	0.324173
1571.87071	0.324651
1569.94203	0.324666
1568.01335	0.324916
1566.08468	0.325344
1564.15600	0.325483
1562.22733	0.324968
1560.29865	0.324156
1558.36998	0.324215
1556.44130	0.325251
1554.51262	0.326205
1552.58395	0.326641
1550.65527	0.326862
1548.72660	0.326985
1546.79792	0.326735
1544.86925	0.326139
1542.94057	0.325709
1541.01189	0.325867
1539.08322	0.326657
1537.15454	0.327402
1535.22587	0.327477
1533.29719	0.327521
1531.36852	0.328077
1529.43984	0.328529
1527.51116	0.328544
1525.58249	0.328304
1523.65381	0.327845
1521.72514	0.327678
1519.79646	0.328143
1517.86779	0.328571
1515.93911	0.328716
1514.01043	0.328996
1512.08176	0.329197
1510.15308	0.328668
1508.22441	0.327812
1506.29573	0.328065
1504.36706	0.329419
1502.43838	0.330282
1500.50970	0.330095
1498.58103	0.329507
1496.65235	0.329273
1494.72368	0.329638
1492.79500	0.329933
1490.86633	0.329696
1488.93765	0.329367
1487.00897	0.329339
1485.08030	0.329452
1483.15162	0.329415
1481.22295	0.329196
1479.29427	0.328758
1477.36560	0.327960
1475.43692	0.326948
1473.50824	0.326179
1471.57957	0.325965
1469.65089	0.325967
1467.72222	0.325600
1465.79354	0.325055
1463.86487	0.324884
1461.93619	0.324740
1460.00751	0.323892
1458.07884	0.322865
1456.15016	0.322836
1454.22149	0.323614
1452.29281	0.324182
1450.36414	0.324292
1448.43546	0.324302
1446.50678	0.324545
1444.57811	0.324964
1442.64943	0.325288
1440.72076	0.325422
1438.79208	0.325384
1436.86341	0.325466
1434.93473	0.325906
1433.00605	0.326332
1431.07738	0.326512
1429.14870	0.326722
1427.22003	0.326936
1425.29135	0.326929
1423.36268	0.326696
1421.43400	0.326123
1419.50532	0.325631
1417.57665	0.325966
1415.64797	0.326717
1413.71930	0.327141
1411.79062	0.327294
1409.86195	0.327342
1407.93327	0.327247
1406.00459	0.327106
1404.07592	0.327157
1402.14724	0.327293
1400.21857	0.327287
1398.28989	0.327220
1396.36122	0.327177
1394.43254	0.327252
1392.50386	0.327473
1390.57519	0.327512
1388.64651	0.327148
1386.71784	0.326698
1384.78916	0.326556
1382.86049	0.326688
1380.93181	0.326825
1379.00313	0.326800
1377.07446	0.326604
1375.14578	0.326404
1373.21711	0.326500
1371.28843	0.326848
1369.35976	0.327084
1367.43108	0.327101
1365.50240	0.326880
1363.57373	0.326598
1361.64505	0.326708
1359.71638	0.327129
1357.78770	0.327422
1355.85903	0.327595
1353.93035	0.327843
1352.00167	0.328092
1350.07300	0.328235
1348.14432	0.328372
1346.21565	0.328578
1344.28697	0.328714
1342.35830	0.328584
1340.42962	0.328303
1338.50094	0.328205
1336.57227	0.328303
1334.64359	0.328332
1332.71492	0.328213
1330.78624	0.328060
1328.85757	0.327883
1326.92889	0.327622
1325.00021	0.327325
1323.07154	0.327049
1321.14286	0.326751
1319.21419	0.326425
1317.28551	0.326155
1315.35684	0.325914
1313.42816	0.325588
1311.49948	0.325200
1309.57081	0.324872
1307.64213	0.324611
1305.71346	0.324306
1303.78478	0.323886
1301.85611	0.323403
1299.92743	0.323002
1297.99875	0.322720
1296.07008	0.322448
1294.14140	0.322101
1292.21273	0.321644
1290.28405	0.321138
1288.35538	0.320690
1286.42670	0.320245
1284.49802	0.319690
1282.56935	0.319041
1280.64067	0.318311
1278.71200	0.317368
1276.78332	0.316067
1274.85465	0.314319
1272.92597	0.312167
1270.99729	0.309763
1269.06862	0.307177
1267.13994	0.304410
1265.21127	0.301686
1263.28259	0.299544
1261.35392	0.298374
1259.42524	0.298227
1257.49656	0.298850
1255.56789	0.299659
1253.63921	0.300377
1251.71054	0.301226
1249.78186	0.302274
1247.85319	0.303305
1245.92451	0.304067
1243.99583	0.304340
1242.06716	0.304062
1240.13848	0.303403
1238.20981	0.302558
1236.28113	0.301627
1234.35246	0.300648
1232.42378	0.299660
1230.49510	0.298732
1228.56643	0.297850
1226.63775	0.296945
1224.70908	0.296029
1222.78040	0.295169
1220.85173	0.294334
1218.92305	0.293409
1216.99437	0.292400
1215.06570	0.291399
1213.13702	0.290452
1211.20835	0.289514
1209.27967	0.288495
1207.35100	0.287409
1205.42232	0.286306
1203.49364	0.285206
1201.56497	0.284181
1199.63629	0.283245
1197.70762	0.282286
1195.77894	0.281211
1193.85027	0.280037
1191.92159	0.278834
1189.99291	0.277590
1188.06424	0.276253
1186.13556	0.274902
1184.20689	0.273547
1182.27821	0.272043
1180.34954	0.270400
1178.42086	0.268798
1176.49218	0.267268
1174.56351	0.265700
1172.63483	0.264125
1170.70616	0.262572
1168.77748	0.260896
1166.84881	0.259123
1164.92013	0.257453
1162.99145	0.255887
1161.06278	0.254335
1159.13410	0.252817
1157.20543	0.251293
1155.27675	0.249743
1153.34808	0.248231
1151.41940	0.246708
1149.49072	0.245125
1147.56205	0.243523
1145.63337	0.241894
1143.70470	0.240204
1141.77602	0.238480
1139.84735	0.236711
1137.91867	0.234805
1135.98999	0.232678
1134.06132	0.230285
1132.13264	0.227597
1130.20397	0.224548
1128.27529	0.221074
1126.34662	0.217292
1124.41794	0.213411
1122.48926	0.209555
1120.56059	0.205795
1118.63191	0.202158
1116.70324	0.198707
1114.77456	0.195595
1112.84589	0.192916
1110.91721	0.190675
1108.98853	0.188915
1107.05986	0.187658
1105.13118	0.186840
1103.20251	0.186443
1101.27383	0.186475
1099.34516	0.186864
1097.41648	0.187587
1095.48780	0.188614
1093.55913	0.189693
1091.63045	0.190651
1089.70178	0.191562
1087.77310	0.192425
1085.84443	0.193119
1083.91575	0.193648
1081.98707	0.194092
1080.05840	0.194383
1078.12972	0.194425
1076.20105	0.194373
1074.27237	0.194366
1072.34370	0.194356
1070.41502	0.194319
1068.48634	0.194259
1066.55767	0.194207
1064.62899	0.194236
1062.70032	0.194312
1060.77164	0.194346
1058.84297	0.194374
1056.91429	0.194445
1054.98561	0.194501
1053.05694	0.194539
1051.12826	0.194653
1049.19959	0.194883
1047.27091	0.195137
1045.34224	0.195381
1043.41356	0.195727
1041.48488	0.196156
1039.55621	0.196490
1037.62753	0.196701
1035.69886	0.196942
1033.77018	0.197284
1031.84151	0.197722
1029.91283	0.198319
1027.98415	0.199079
1026.05548	0.199930
1024.12680	0.200958
1022.19813	0.202216
1020.26945	0.203554
1018.34078	0.204977
1016.41210	0.206661
1014.48342	0.208602
1012.55475	0.210705
1010.62607	0.212937
1008.69740	0.215216
1006.76872	0.217397
1004.84005	0.219414
1002.91137	0.221289
1000.98269	0.222950
999.05402	0.224334
997.12534	0.225549
995.19667	0.226697
993.26799	0.227799
991.33932	0.228794
989.41064	0.229586
987.48196	0.230223
985.55329	0.230794
983.62461	0.231355
981.69594	0.231911
979.76726	0.232325
977.83859	0.232545
975.90991	0.232646
973.98123	0.232614
972.05256	0.232473
970.12388	0.232375
968.19521	0.232371
966.26653	0.232381
964.33786	0.232350
962.40918	0.232251
960.48050	0.232097
958.55183	0.231896
956.62315	0.231622
954.69448	0.231312
952.76580	0.231027
950.83713	0.230760
948.90845	0.230443
946.97977	0.230022
945.05110	0.229496
943.12242	0.228881
941.19375	0.228196
939.26507	0.227452
937.33640	0.226684
935.40772	0.225897
933.47904	0.224974
931.55037	0.223883
929.62169	0.222758
927.69302	0.221685
925.76434	0.220612
923.83567	0.219498
921.90699	0.218368
919.97831	0.217159
918.04964	0.215844
916.12096	0.214494
914.19229	0.213040
912.26361	0.211521
910.33494	0.210123
908.40626	0.208832
906.47758	0.207555
904.54891	0.206278
902.62023	0.205034
900.69156	0.203890
898.76288	0.202845
896.83421	0.201804
894.90553	0.200741
892.97685	0.199733
891.04818	0.198846
889.11950	0.198065
887.19083	0.197262
885.26215	0.196421
883.33348	0.195661
881.40480	0.194966
879.47612	0.194264
877.54745	0.193574
875.61877	0.192956
873.69010	0.192342
871.76142	0.191641
869.83275	0.190981
867.90407	0.190470
865.97539	0.189996
864.04672	0.189497
862.11804	0.189054
860.18937	0.188633
858.26069	0.188149
856.33202	0.187658
854.40334	0.187092
852.47466	0.186300
850.54599	0.185303
848.61731	0.184222
846.68864	0.183202
844.75996	0.182324
842.83129	0.181617
840.90261	0.181191
838.97394	0.181102
837.04526	0.181105
835.11658	0.180880
833.18791	0.180279
831.25923	0.179315
829.33056	0.178126
827.40188	0.176806
825.47321	0.175420
823.54453	0.174096
821.61585	0.172911
819.68718	0.171827
817.75850	0.170809
815.82983	0.169986
813.90115	0.169323
811.97248	0.168526
810.04380	0.167576
808.11512	0.166683
806.18645	0.165941
804.25777	0.165331
802.32910	0.164709
800.40042	0.163910
798.47175	0.162987
796.54307	0.162177
794.61439	0.161743
792.68572	0.161772
790.75704	0.162074
788.82837	0.162421
786.89969	0.162728
784.97102	0.162978
783.04234	0.163190
781.11366	0.163376
779.18499	0.163594
777.25631	0.163825
775.32764	0.163873
773.39896	0.163660
771.47029	0.163319
769.54161	0.162985
767.61293	0.162636
765.68426	0.162151
763.75558	0.161558
761.82691	0.160921
759.89823	0.160217
757.96956	0.159513
756.04088	0.158884
754.11220	0.158239
752.18353	0.157538
750.25485	0.156842
748.32618	0.156085
746.39750	0.155165
744.46883	0.154098
742.54015	0.152952
740.61147	0.151912
738.68280	0.151220
736.75412	0.150969
734.82545	0.151046
732.89677	0.151264
730.96810	0.151553
729.03942	0.151812
727.11074	0.151984
725.18207	0.152241
723.25339	0.152650
721.32472	0.153029
719.39604	0.153292
717.46737	0.153680
715.53869	0.154397
713.61001	0.155291
711.68134	0.156042
709.75266	0.156428
707.82399	0.156541
705.89531	0.156542
703.96664	0.156412
702.03796	0.156158
700.10928	0.155714
698.18061	0.154957
696.25193	0.154078
694.32326	0.153352
692.39458	0.152720
690.46591	0.152028
688.53723	0.151252
686.60855	0.150465
684.67988	0.149765
682.75120	0.149178
680.82253	0.148622
678.89385	0.147927
676.96518	0.147061
675.03650	0.146165
673.10782	0.145235
671.17915	0.144017
669.25047	0.142480
667.32180	0.141174
665.39312	0.140293
663.46445	0.139356
661.53577	0.138230
659.60709	0.137060
657.67842	0.135818
655.74974	0.134538
653.82107	0.133303
651.89239	0.132144
649.96372	0.131040
648.03504	0.129833
646.10636	0.128448
644.17769	0.126964
642.24901	0.125376
640.32034	0.123644
638.39166	0.121878
636.46299	0.120188
634.53431	0.118310
632.60563	0.115782
630.67696	0.111828
628.74828	0.105661
626.81961	0.097933
624.89093	0.090308
622.96226	0.084260
621.03358	0.080587
619.10490	0.078655
617.17623	0.077281
615.24755	0.075789
613.31888	0.073893
611.39020	0.072092
609.46153	0.071239
607.53285	0.071444
605.60417	0.072168
603.67550	0.073109
601.74682	0.074441
599.81815	0.076098
597.88947	0.077613
595.96080	0.078708
594.03212	0.079386
592.10344	0.079768
590.17477	0.079987
588.24609	0.079994
586.31742	0.079718
584.38874	0.079241
582.46007	0.078639
580.53139	0.077933
578.60271	0.077184
576.67404	0.076393
574.74536	0.075507
572.81669	0.074501
570.88801	0.073373
568.95934	0.072323
567.03066	0.071533
565.10198	0.070850
563.17331	0.070180
561.24463	0.069623
559.31596	0.069172
557.38728	0.068742
555.45861	0.068357
553.52993	0.068030
551.60125	0.067578
549.67258	0.066995
547.74390	0.066573
545.81523	0.066360
543.88655	0.066192
541.95788	0.066047
540.02920	0.065895
538.10052	0.065564
536.17185	0.064999
534.24317	0.064390
532.31450	0.063846
530.38582	0.063337
528.45715	0.062826
526.52847	0.062298
524.59979	0.061812
522.67112	0.061280
520.74244	0.060440
518.81377	0.059261
516.88509	0.058013
514.95642	0.056978
513.02774	0.056280
511.09906	0.055910
509.17039	0.055713
507.24171	0.055480
505.31304	0.055087
503.38436	0.054487
501.45569	0.053746
499.52701	0.052957
497.59833	0.052152
495.66966	0.051261
493.74098	0.050277
491.81231	0.049363
489.88363	0.048511
487.95496	0.047596
486.02628	0.046662
484.09760	0.045795
482.16893	0.044913
480.24025	0.043914
478.31158	0.042927
476.38290	0.042064
474.45423	0.041216
472.52555	0.040273
470.59687	0.039297
468.66820	0.038473
466.73952	0.037903
464.81085	0.037564
462.88217	0.037356
460.95350	0.037143
459.02482	0.036893
457.09614	0.036690
455.16747	0.036547
453.23879	0.036416
451.31012	0.036433
449.38144	0.036601
447.45277	0.036529
445.52409	0.036052
443.59541	0.035458
441.66674	0.034946
439.73806	0.034490
437.80939	0.034000
435.88071	0.033322
433.95204	0.032446
432.02336	0.031563
430.09468	0.030716
428.16601	0.029784
426.23733	0.028798
424.30866	0.027881
422.37998	0.026844
420.45131	0.025529
418.52263	0.024294
416.59395	0.023394
414.66528	0.022593
412.73660	0.021626
410.80793	0.020458
408.87925	0.019170
406.95058	0.017957
405.02190	0.016937
403.09322	0.016026
401.16455	0.015166
399.23587	0.014297
397.30720	0.013383
395.37852	0.012575
393.44985	0.011895
391.52117	0.011137
389.59249	0.010236
387.66382	0.009363
385.73514	0.008661
383.80647	0.008111
381.87779	0.007618
379.94912	0.007075
378.02044	0.006460
376.09176	0.005905
374.16309	0.005428
372.23441	0.004962
370.30574	0.004536
368.37706	0.004135
