7496.76250	0.002005
7494.83382	0.001989
7492.90514	0.002017
7490.97647	0.002039
7489.04779	0.002004
7487.11912	0.001978
7485.19044	0.002017
7483.26177	0.002046
7481.33309	0.002006
7479.40441	0.001977
7477.47574	0.002025
7475.54706	0.002076
7473.61839	0.002073
7471.68971	0.002071
7469.76104	0.002109
7467.83236	0.002118
7465.90368	0.002079
7463.97501	0.002070
7462.04633	0.002104
7460.11766	0.002102
7458.18898	0.002053
7456.26031	0.002047
7454.33163	0.002104
7452.40295	0.002137
7450.47428	0.002118
7448.54560	0.002120
7446.61693	0.002146
7444.68825	0.002131
7442.75958	0.002096
7440.83090	0.002120
7438.90222	0.002165
7436.97355	0.002143
7435.04487	0.002093
7433.11620	0.002108
7431.18752	0.002162
7429.25885	0.002167
7427.33017	0.002138
7425.40149	0.002154
7423.47282	0.002189
7421.54414	0.002161
7419.61547	0.002120
7417.68679	0.002163
7415.75812	0.002226
7413.82944	0.002218
7411.90076	0.002200
7409.97209	0.002240
7408.04341	0.002273
7406.11474	0.002246
7404.18606	0.002232
7402.25739	0.002269
7400.32871	0.002283
7398.40003	0.002242
7396.47136	0.002227
7394.54268	0.002267
7392.61401	0.002279
7390.68533	0.002243
7388.75666	0.002249
7386.82798	0.002312
7384.89930	0.002329
7382.97063	0.002284
7381.04195	0.002274
7379.11328	0.002313
7377.18460	0.002317
7375.25593	0.002289
7373.32725	0.002300
7371.39857	0.002339
7369.46990	0.002331
7367.54122	0.002291
7365.61255	0.002303
7363.68387	0.002355
7361.75520	0.002359
7359.82652	0.002326
7357.89784	0.002349
7355.96917	0.002401
7354.04049	0.002385
7352.11182	0.002340
7350.18314	0.002359
7348.25447	0.002404
7346.32579	0.002391
7344.39711	0.002374
7342.46844	0.002422
7340.53976	0.002460
7338.61109	0.002424
7336.68241	0.002387
7334.75374	0.002406
7332.82506	0.002422
7330.89638	0.002386
7328.96771	0.002368
7327.03903	0.002415
7325.11036	0.002447
7323.18168	0.002419
7321.25301	0.002406
7319.32433	0.002446
7317.39565	0.002463
7315.46698	0.002432
7313.53830	0.002439
7311.60963	0.002494
7309.68095	0.002492
7307.75228	0.002433
7305.82360	0.002432
7303.89492	0.002490
7301.96625	0.002504
7300.03757	0.002478
7298.10890	0.002495
7296.18022	0.002535
7294.25155	0.002520
7292.32287	0.002474
7290.39419	0.002486
7288.46552	0.002531
7286.53684	0.002538
7284.60817	0.002532
7282.67949	0.002570
7280.75082	0.002609
7278.82214	0.002584
7276.89346	0.002547
7274.96479	0.002570
7273.03611	0.002598
7271.10744	0.002567
7269.17876	0.002540
7267.25009	0.002580
7265.32141	0.002625
7263.39273	0.002614
7261.46406	0.002596
7259.53538	0.002618
7257.60671	0.002622
7255.67803	0.002582
7253.74936	0.002580
7251.82068	0.002648
7249.89200	0.002689
7247.96333	0.002659
7246.03465	0.002639
7244.10598	0.002669
7242.17730	0.002681
7240.24863	0.002658
7238.31995	0.002670
7236.39127	0.002717
7234.46260	0.002719
7232.53392	0.002686
7230.60525	0.002703
7228.67657	0.002751
7226.74790	0.002738
7224.81922	0.002694
7222.89054	0.002719
7220.96187	0.002776
7219.03319	0.002763
7217.10452	0.002716
7215.17584	0.002737
7213.24717	0.002786
7211.31849	0.002761
7209.38981	0.002717
7207.46114	0.002757
7205.53246	0.002824
7203.60379	0.002810
7201.67511	0.002773
7199.74644	0.002805
7197.81776	0.002846
7195.88908	0.002830
7193.96041	0.002809
7192.03173	0.002837
7190.10306	0.002845
7188.17438	0.002780
7186.24571	0.002737
7184.31703	0.002780
7182.38835	0.002818
7180.45968	0.002797
7178.53100	0.002800
7176.60233	0.002863
7174.67365	0.002897
7172.74498	0.002861
7170.81630	0.002849
7168.88762	0.002894
7166.95895	0.002913
7165.03027	0.002882
7163.10160	0.002886
7161.17292	0.002940
7159.24425	0.002958
7157.31557	0.002924
7155.38689	0.002925
7153.45822	0.002966
7151.52954	0.002957
7149.60087	0.002921
7147.67219	0.002949
7145.74352	0.003004
7143.81484	0.002995
7141.88616	0.002965
7139.95749	0.002997
7138.02881	0.003034
7136.10014	0.003002
7134.17146	0.002972
7132.24279	0.003025
7130.31411	0.003081
7128.38543	0.003053
7126.45676	0.003009
7124.52808	0.003034
7122.59941	0.003072
7120.67073	0.003055
7118.74206	0.003037
7116.81338	0.003073
7114.88470	0.003092
7112.95603	0.003035
7111.02735	0.002997
7109.09868	0.003050
7107.17000	0.003094
7105.24133	0.003069
7103.31265	0.003067
7101.38397	0.003117
7099.45530	0.003127
7097.52662	0.003079
7095.59795	0.003081
7093.66927	0.003154
7091.74060	0.003177
7089.81192	0.003123
7087.88324	0.003104
7085.95457	0.003147
7084.02589	0.003150
7082.09722	0.003103
7080.16854	0.003111
7078.23987	0.003174
7076.31119	0.003187
7074.38251	0.003166
7072.45384	0.003201
7070.52516	0.003253
7068.59649	0.003227
7066.66781	0.003178
7064.73914	0.003223
7062.81046	0.003306
7060.88178	0.003300
7058.95311	0.003248
7057.02443	0.003257
7055.09576	0.003294
7053.16708	0.003271
7051.23841	0.003237
7049.30973	0.003282
7047.38105	0.003339
7045.45238	0.003313
7043.52370	0.003269
7041.59503	0.003292
7039.66635	0.003318
7037.73768	0.003285
7035.80900	0.003268
7033.88032	0.003317
7031.95165	0.003358
7030.02297	0.003339
7028.09430	0.003328
7026.16562	0.003364
7024.23695	0.003371
7022.30827	0.003332
7020.37959	0.003342
7018.45092	0.003407
7016.52224	0.003413
7014.59357	0.003355
7012.66489	0.003363
7010.73622	0.003431
7008.80754	0.003430
7006.87886	0.003368
7004.95019	0.003359
7003.02151	0.003397
7001.09284	0.003397
6999.16416	0.003371
6997.23549	0.003394
6995.30681	0.003444
6993.37813	0.003456
6991.44946	0.003458
6989.52078	0.003498
6987.59211	0.003531
6985.66343	0.003507
6983.73476	0.003490
6981.80608	0.003540
6979.87740	0.003571
6977.94873	0.003522
6976.02005	0.003489
6974.09138	0.003545
6972.16270	0.003584
6970.23403	0.003536
6968.30535	0.003501
6966.37667	0.003549
6964.44800	0.003593
6962.51932	0.003561
6960.59065	0.003532
6958.66197	0.003575
6956.73330	0.003604
6954.80462	0.003572
6952.87594	0.003577
6950.94727	0.003639
6949.01859	0.003653
6947.08992	0.003607
6945.16124	0.003605
6943.23257	0.003651
6941.30389	0.003651
6939.37521	0.003615
6937.44654	0.003636
6935.51786	0.003688
6933.58919	0.003665
6931.66051	0.003612
6929.73184	0.003650
6927.80316	0.003739
6925.87448	0.003750
6923.94581	0.003697
6922.01713	0.003704
6920.08846	0.003750
6918.15978	0.003730
6916.23111	0.003688
6914.30243	0.003723
6912.37375	0.003779
6910.44508	0.003767
6908.51640	0.003744
6906.58773	0.003787
6904.65905	0.003835
6902.73038	0.003814
6900.80170	0.003786
6898.87302	0.003830
6896.94435	0.003888
6895.01567	0.003872
6893.08700	0.003840
6891.15832	0.003869
6889.22965	0.003890
6887.30097	0.003854
6885.37229	0.003841
6883.44362	0.003884
6881.51494	0.003891
6879.58627	0.003839
6877.65759	0.003837
6875.72892	0.003913
6873.80024	0.003954
6871.87156	0.003933
6869.94289	0.003946
6868.01421	0.003988
6866.08554	0.003967
6864.15686	0.003902
6862.22819	0.003911
6860.29951	0.003999
6858.37083	0.004033
6856.44216	0.003992
6854.51348	0.003994
6852.58481	0.004053
6850.65613	0.004054
6848.72746	0.004000
6846.79878	0.004010
6844.87010	0.004074
6842.94143	0.004070
6841.01275	0.004023
6839.08408	0.004050
6837.15540	0.004105
6835.22673	0.004088
6833.29805	0.004055
6831.36937	0.004091
6829.44070	0.004145
6827.51202	0.004144
6825.58335	0.004136
6823.65467	0.004180
6821.72600	0.004217
6819.79732	0.004181
6817.86864	0.004143
6815.93997	0.004201
6814.01129	0.004275
6812.08262	0.004253
6810.15394	0.004212
6808.22527	0.004241
6806.29659	0.004260
6804.36791	0.004214
6802.43924	0.004210
6800.51056	0.004293
6798.58189	0.004343
6796.65321	0.004298
6794.72454	0.004268
6792.79586	0.004319
6790.86718	0.004350
6788.93851	0.004306
6787.00983	0.004298
6785.08116	0.004363
6783.15248	0.004382
6781.22381	0.004335
6779.29513	0.004344
6777.36645	0.004417
6775.43778	0.004424
6773.50910	0.004373
6771.58043	0.004392
6769.65175	0.004461
6767.72308	0.004455
6765.79440	0.004399
6763.86572	0.004415
6761.93705	0.004470
6760.00837	0.004461
6758.07970	0.004441
6756.15102	0.004499
6754.22235	0.004559
6752.29367	0.004525
6750.36499	0.004470
6748.43632	0.004505
6746.50764	0.004568
6744.57897	0.004545
6742.65029	0.004505
6740.72162	0.004553
6738.79294	0.004610
6736.86426	0.004575
6734.93559	0.004536
6733.00691	0.004590
6731.07824	0.004648
6729.14956	0.004618
6727.22089	0.004592
6725.29221	0.004652
6723.36353	0.004693
6721.43486	0.004646
6719.50618	0.004636
6717.57751	0.004717
6715.64883	0.004744
6713.72016	0.004671
6711.79148	0.004654
6709.86280	0.004744
6707.93413	0.004790
6706.00545	0.004741
6704.07678	0.004726
6702.14810	0.004778
6700.21943	0.004785
6698.29075	0.004747
6696.36207	0.004769
6694.43340	0.004829
6692.50472	0.004825
6690.57605	0.004780
6688.64737	0.004792
6686.71870	0.004853
6684.79002	0.004853
6682.86134	0.004799
6680.93267	0.004819
6679.00399	0.004888
6677.07532	0.004882
6675.14664	0.004843
6673.21797	0.004882
6671.28929	0.004938
6669.36061	0.004909
6667.43194	0.004867
6665.50326	0.004914
6663.57459	0.004983
6661.64591	0.004972
6659.71724	0.004949
6657.78856	0.005003
6655.85988	0.005047
6653.93121	0.004998
6652.00253	0.004956
6650.07386	0.005012
6648.14518	0.005067
6646.21651	0.005043
6644.28783	0.005042
6642.35915	0.005107
6640.43048	0.005125
6638.50180	0.005079
6636.57313	0.005085
6634.64445	0.005153
6632.71578	0.005165
6630.78710	0.005108
6628.85842	0.005105
6626.92975	0.005176
6625.00107	0.005207
6623.07240	0.005175
6621.14372	0.005179
6619.21505	0.005231
6617.28637	0.005230
6615.35769	0.005177
6613.42902	0.005185
6611.50034	0.005250
6609.57167	0.005259
6607.64299	0.005213
6605.71432	0.005240
6603.78564	0.005326
6601.85696	0.005324
6599.92829	0.005270
6597.99961	0.005311
6596.07094	0.005392
6594.14226	0.005379
6592.21359	0.005330
6590.28491	0.005358
6588.35623	0.005408
6586.42756	0.005386
6584.49888	0.005364
6582.57021	0.005416
6580.64153	0.005455
6578.71286	0.005413
6576.78418	0.005392
6574.85550	0.005472
6572.92683	0.005525
6570.99815	0.005458
6569.06948	0.005407
6567.14080	0.005468
6565.21213	0.005523
6563.28345	0.005498
6561.35477	0.005501
6559.42610	0.005578
6557.49742	0.005605
6555.56875	0.005548
6553.64007	0.005545
6551.71140	0.005631
6549.78272	0.005664
6547.85404	0.005608
6545.92537	0.005600
6543.99669	0.005683
6542.06802	0.005730
6540.13934	0.005691
6538.21067	0.005674
6536.28199	0.005706
6534.35331	0.005692
6532.42464	0.005646
6530.49596	0.005678
6528.56729	0.005758
6526.63861	0.005760
6524.70994	0.005709
6522.78126	0.005724
6520.85258	0.005778
6518.92391	0.005764
6516.99523	0.005723
6515.06656	0.005774
6513.13788	0.005864
6511.20921	0.005858
6509.28053	0.005816
6507.35185	0.005851
6505.42318	0.005897
6503.49450	0.005857
6501.56583	0.005816
6499.63715	0.005874
6497.70848	0.005942
6495.77980	0.005924
6493.85112	0.005915
6491.92245	0.005987
6489.99377	0.006021
6488.06510	0.005967
6486.13642	0.005962
6484.20775	0.006043
6482.27907	0.006076
6480.35039	0.006028
6478.42172	0.006020
6476.49304	0.006077
6474.56437	0.006085
6472.63569	0.006034
6470.70702	0.006040
6468.77834	0.006120
6466.84966	0.006153
6464.92099	0.006119
6462.99231	0.006145
6461.06364	0.006234
6459.13496	0.006231
6457.20629	0.006146
6455.27761	0.006157
6453.34893	0.006239
6451.42026	0.006228
6449.49158	0.006171
6447.56291	0.006211
6445.63423	0.006297
6443.70556	0.006292
6441.77688	0.006249
6439.84820	0.006296
6437.91953	0.006385
6435.99085	0.006382
6434.06218	0.006333
6432.13350	0.006366
6430.20483	0.006424
6428.27615	0.006393
6426.34747	0.006355
6424.41880	0.006416
6422.49012	0.006480
6420.56145	0.006444
6418.63277	0.006401
6416.70410	0.006454
6414.77542	0.006520
6412.84674	0.006501
6410.91807	0.006471
6408.98939	0.006516
6407.06072	0.006562
6405.13204	0.006526
6403.20337	0.006494
6401.27469	0.006550
6399.34601	0.006604
6397.41734	0.006578
6395.48866	0.006580
6393.55999	0.006670
6391.63131	0.006726
6389.70264	0.006682
6387.77396	0.006654
6385.84528	0.006702
6383.91661	0.006722
6381.98793	0.006673
6380.05926	0.006675
6378.13058	0.006753
6376.20191	0.006775
6374.27323	0.006726
6372.34455	0.006752
6370.41588	0.006844
6368.48720	0.006845
6366.55853	0.006785
6364.62985	0.006816
6362.70118	0.006901
6360.77250	0.006887
6358.84382	0.006817
6356.91515	0.006846
6354.98647	0.006922
6353.05780	0.006907
6351.12912	0.006873
6349.20045	0.006940
6347.27177	0.007017
6345.34309	0.006987
6343.41442	0.006943
6341.48574	0.007005
6339.55707	0.007082
6337.62839	0.007045
6335.69972	0.006986
6333.77104	0.007038
6331.84236	0.007113
6329.91369	0.007094
6327.98501	0.007079
6326.05634	0.007145
6324.12766	0.007180
6322.19899	0.007123
6320.27031	0.007097
6318.34163	0.007170
6316.41296	0.007228
6314.48428	0.007209
6312.55561	0.007226
6310.62693	0.007308
6308.69826	0.007321
6306.76958	0.007234
6304.84090	0.007213
6302.91223	0.007313
6300.98355	0.007364
6299.05488	0.007313
6297.12620	0.007319
6295.19753	0.007411
6293.26885	0.007433
6291.34017	0.007377
6289.41150	0.007398
6287.48282	0.007496
6285.55415	0.007512
6283.62547	0.007449
6281.69680	0.007457
6279.76812	0.007528
6277.83944	0.007528
6275.91077	0.007471
6273.98209	0.007503
6272.05342	0.007612
6270.12474	0.007631
6268.19607	0.007573
6266.26739	0.007594
6264.33871	0.007675
6262.41004	0.007687
6260.48136	0.007662
6258.55269	0.007705
6256.62401	0.007742
6254.69534	0.007683
6252.76666	0.007648
6250.83798	0.007743
6248.90931	0.007852
6246.98063	0.007846
6245.05196	0.007803
6243.12328	0.007848
6241.19461	0.007903
6239.26593	0.007854
6237.33725	0.007808
6235.40858	0.007868
6233.47990	0.007907
6231.55123	0.007850
6229.62255	0.007839
6227.69388	0.007943
6225.76520	0.007998
6223.83652	0.007925
6221.90785	0.007905
6219.97917	0.008006
6218.05050	0.008050
6216.12182	0.007986
6214.19315	0.007989
6212.26447	0.008087
6210.33579	0.008110
6208.40712	0.008047
6206.47844	0.008084
6204.54977	0.008221
6202.62109	0.008254
6200.69242	0.008177
6198.76374	0.008169
6196.83506	0.008238
6194.90639	0.008251
6192.97771	0.008222
6191.04904	0.008265
6189.12036	0.008350
6187.19169	0.008350
6185.26301	0.008296
6183.33433	0.008320
6181.40566	0.008397
6179.47698	0.008399
6177.54831	0.008365
6175.61963	0.008426
6173.69096	0.008517
6171.76228	0.008479
6169.83360	0.008394
6167.90493	0.008431
6165.97625	0.008514
6164.04758	0.008506
6162.11890	0.008480
6160.19023	0.008547
6158.26155	0.008601
6156.33287	0.008540
6154.40420	0.008509
6152.47552	0.008621
6150.54685	0.008715
6148.61817	0.008655
6146.68950	0.008585
6144.76082	0.008639
6142.83214	0.008700
6140.90347	0.008667
6138.97479	0.008657
6137.04612	0.008751
6135.11744	0.008810
6133.18877	0.008757
6131.26009	0.008740
6129.33141	0.008820
6127.40274	0.008861
6125.47406	0.008835
6123.54539	0.008879
6121.61671	0.008994
6119.68804	0.009010
6117.75936	0.008919
6115.83068	0.008908
6113.90201	0.008990
6111.97333	0.008999
6110.04466	0.008954
6108.11598	0.009015
6106.18731	0.009140
6104.25863	0.009147
6102.32995	0.009076
6100.40128	0.009108
6098.47260	0.009186
6096.54393	0.009148
6094.61525	0.009079
6092.68658	0.009141
6090.75790	0.009243
6088.82922	0.009231
6086.90055	0.009183
6084.97187	0.009239
6083.04320	0.009318
6081.11452	0.009307
6079.18585	0.009301
6077.25717	0.009392
6075.32849	0.009463
6073.39982	0.009409
6071.47114	0.009353
6069.54247	0.009415
6067.61379	0.009475
6065.68512	0.009429
6063.75644	0.009414
6061.82776	0.009521
6059.89909	0.009589
6057.97041	0.009517
6056.04174	0.009474
6054.11306	0.009569
6052.18439	0.009637
6050.25571	0.009580
6048.32703	0.009555
6046.39836	0.009643
6044.46968	0.009688
6042.54101	0.009632
6040.61233	0.009640
6038.68366	0.009747
6036.75498	0.009787
6034.82630	0.009729
6032.89763	0.009737
6030.96895	0.009831
6029.04028	0.009846
6027.11160	0.009790
6025.18293	0.009827
6023.25425	0.009926
6021.32557	0.009925
6019.39690	0.009874
6017.46822	0.009943
6015.53955	0.010070
6013.61087	0.010064
6011.68220	0.009979
6009.75352	0.010003
6007.82484	0.010095
6005.89617	0.010105
6003.96749	0.010078
6002.03882	0.010142
6000.11014	0.010237
5998.18147	0.010224
5996.25279	0.010168
5994.32411	0.010210
5992.39544	0.010274
5990.46676	0.010230
5988.53809	0.010194
5986.60941	0.010291
5984.68074	0.010375
5982.75206	0.010322
5980.82338	0.010290
5978.89471	0.010391
5976.96603	0.010456
5975.03736	0.010380
5973.10868	0.010342
5971.18001	0.010453
5969.25133	0.010536
5967.32265	0.010478
5965.39398	0.010448
5963.46530	0.010540
5961.53663	0.010600
5959.60795	0.010563
5957.67928	0.010580
5955.75060	0.010688
5953.82192	0.010716
5951.89325	0.010622
5949.96457	0.010593
5948.03590	0.010699
5946.10722	0.010766
5944.17855	0.010736
5942.24987	0.010780
5940.32119	0.010907
5938.39252	0.010918
5936.46384	0.010820
5934.53517	0.010814
5932.60649	0.010899
5930.67782	0.010898
5928.74914	0.010843
5926.82046	0.010900
5924.89179	0.011000
5922.96311	0.010970
5921.03444	0.010885
5919.10576	0.010934
5917.17709	0.011071
5915.24841	0.011109
5913.31973	0.011084
5911.39106	0.011145
5909.46238	0.011224
5907.53371	0.011186
5905.60503	0.011127
5903.67636	0.011197
5901.74768	0.011292
5899.81900	0.011253
5897.89033	0.011190
5895.96165	0.011269
5894.03298	0.011385
5892.10430	0.011379
5890.17563	0.011347
5888.24695	0.011415
5886.31827	0.011488
5884.38960	0.011464
5882.46092	0.011455
5880.53225	0.011544
5878.60357	0.011598
5876.67490	0.011547
5874.74622	0.011530
5872.81755	0.011620
5870.88887	0.011672
5868.96019	0.011604
5867.03152	0.011581
5865.10284	0.011697
5863.17417	0.011778
5861.24549	0.011726
5859.31682	0.011706
5857.38814	0.011794
5855.45946	0.011828
5853.53079	0.011744
5851.60211	0.011724
5849.67344	0.011830
5847.74476	0.011883
5845.81609	0.011838
5843.88741	0.011864
5841.95873	0.011973
5840.03006	0.011990
5838.10138	0.011927
5836.17271	0.011963
5834.24403	0.012084
5832.31536	0.012097
5830.38668	0.012014
5828.45800	0.012033
5826.52933	0.012137
5824.60065	0.012144
5822.67198	0.012110
5820.74330	0.012202
5818.81463	0.012320
5816.88595	0.012289
5814.95727	0.012230
5813.02860	0.012330
5811.09992	0.012465
5809.17125	0.012448
5807.24257	0.012382
5805.31390	0.012432
5803.38522	0.012504
5801.45654	0.012468
5799.52787	0.012434
5797.59919	0.012515
5795.67052	0.012598
5793.74184	0.012581
5791.81317	0.012584
5789.88449	0.012696
5787.95581	0.012766
5786.02714	0.012694
5784.09846	0.012655
5782.16979	0.012750
5780.24111	0.012789
5778.31244	0.012693
5776.38376	0.012675
5774.45508	0.012815
5772.52641	0.012892
5770.59773	0.012831
5768.66906	0.012836
5766.74038	0.012952
5764.81171	0.012993
5762.88303	0.012952
5760.95435	0.012995
5759.02568	0.013109
5757.09700	0.013128
5755.16833	0.013056
5753.23965	0.013060
5751.31098	0.013147
5749.38230	0.013170
5747.45362	0.013139
5745.52495	0.013202
5743.59627	0.013328
5741.66760	0.013341
5739.73892	0.013278
5737.81025	0.013315
5735.88157	0.013417
5733.95289	0.013417
5732.02422	0.013364
5730.09554	0.013423
5728.16687	0.013524
5726.23819	0.013508
5724.30952	0.013464
5722.38084	0.013542
5720.45216	0.013639
5718.52349	0.013604
5716.59481	0.013554
5714.66614	0.013649
5712.73746	0.013762
5710.80879	0.013729
5708.88011	0.013671
5706.95143	0.013747
5705.02276	0.013848
5703.09408	0.013813
5701.16541	0.013767
5699.23673	0.013865
5697.30806	0.013952
5695.37938	0.013893
5693.45070	0.013857
5691.52203	0.013958
5689.59335	0.014031
5687.66468	0.013984
5685.73600	0.013974
5683.80733	0.014095
5681.87865	0.014185
5679.94997	0.014142
5678.02130	0.014135
5676.09262	0.014249
5674.16395	0.014294
5672.23527	0.014224
5670.30660	0.014249
5668.37792	0.014387
5666.44924	0.014415
5664.52057	0.014322
5662.59189	0.014342
5660.66322	0.014505
5658.73454	0.014572
5656.80587	0.014498
5654.87719	0.014500
5652.94851	0.014609
5651.01984	0.014625
5649.09116	0.014556
5647.16249	0.014602
5645.23381	0.014744
5643.30514	0.014773
5641.37646	0.014695
5639.44778	0.014710
5637.51911	0.014809
5635.59043	0.014795
5633.66176	0.014713
5631.73308	0.014780
5629.80441	0.014915
5627.87573	0.014907
5625.94705	0.014868
5624.01838	0.014979
5622.08970	0.015100
5620.16103	0.015051
5618.23235	0.014980
5616.30368	0.015075
5614.37500	0.015182
5612.44632	0.015122
5610.51765	0.015073
5608.58897	0.015195
5606.66030	0.015298
5604.73162	0.015240
5602.80295	0.015203
5600.87427	0.015314
5598.94559	0.015400
5597.01692	0.015341
5595.08824	0.015310
5593.15957	0.015425
5591.23089	0.015509
5589.30222	0.015456
5587.37354	0.015453
5585.44486	0.015595
5583.51619	0.015676
5581.58751	0.015600
5579.65884	0.015578
5577.73016	0.015705
5575.80149	0.015771
5573.87281	0.015708
5571.94413	0.015728
5570.01546	0.015852
5568.08678	0.015867
5566.15811	0.015787
5564.22943	0.015835
5562.30076	0.015989
5560.37208	0.016022
5558.44340	0.015941
5556.51473	0.015971
5554.58605	0.016115
5552.65738	0.016144
5550.72870	0.016059
5548.80003	0.016087
5546.87135	0.016207
5544.94267	0.016217
5543.01400	0.016169
5541.08532	0.016260
5539.15665	0.016403
5537.22797	0.016388
5535.29930	0.016301
5533.37062	0.016339
5531.44194	0.016434
5529.51327	0.016430
5527.58459	0.016412
5525.65592	0.016532
5523.72724	0.016646
5521.79857	0.016578
5519.86989	0.016501
5517.94121	0.016606
5516.01254	0.016727
5514.08386	0.016683
5512.15519	0.016628
5510.22651	0.016730
5508.29784	0.016826
5506.36916	0.016770
5504.44048	0.016741
5502.51181	0.016871
5500.58313	0.016978
5498.65446	0.016941
5496.72578	0.016926
5494.79711	0.017028
5492.86843	0.017080
5490.93975	0.017012
5489.01108	0.017005
5487.08240	0.017131
5485.15373	0.017198
5483.22505	0.017136
5481.29638	0.017156
5479.36770	0.017304
5477.43902	0.017354
5475.51035	0.017274
5473.58167	0.017305
5471.65300	0.017467
5469.72432	0.017508
5467.79565	0.017402
5465.86697	0.017401
5463.93829	0.017538
5462.00962	0.017570
5460.08094	0.017494
5458.15227	0.017543
5456.22359	0.017681
5454.29492	0.017685
5452.36624	0.017606
5450.43756	0.017664
5448.50889	0.017805
5446.58021	0.017807
5444.65154	0.017741
5442.72286	0.017831
5440.79419	0.017980
5438.86551	0.017957
5436.93683	0.017862
5435.00816	0.017929
5433.07948	0.018069
5431.15081	0.018051
5429.22213	0.017972
5427.29346	0.018074
5425.36478	0.018243
5423.43610	0.018224
5421.50743	0.018126
5419.57875	0.018191
5417.65008	0.018297
5415.72140	0.018240
5413.79273	0.018190
5411.86405	0.018334
5409.93537	0.018476
5408.00670	0.018444
5406.07802	0.018434
5404.14935	0.018569
5402.22067	0.018648
5400.29200	0.018570
5398.36332	0.018549
5396.43464	0.018688
5394.50597	0.018773
5392.57729	0.018708
5390.64862	0.018704
5388.71994	0.018843
5386.79127	0.018905
5384.86259	0.018829
5382.93391	0.018852
5381.00524	0.019020
5379.07656	0.019072
5377.14789	0.018969
5375.21921	0.018979
5373.29054	0.019127
5371.36186	0.019151
5369.43318	0.019055
5367.50451	0.019105
5365.57583	0.019280
5363.64716	0.019311
5361.71848	0.019209
5359.78981	0.019238
5357.86113	0.019390
5355.93245	0.019413
5354.00378	0.019333
5352.07510	0.019400
5350.14643	0.019560
5348.21775	0.019552
5346.28908	0.019443
5344.36040	0.019511
5342.43172	0.019672
5340.50305	0.019646
5338.57437	0.019544
5336.64570	0.019637
5334.71702	0.019798
5332.78835	0.019780
5330.85967	0.019714
5328.93099	0.019815
5327.00232	0.019947
5325.07364	0.019925
5323.14497	0.019892
5321.21629	0.020007
5319.28762	0.020101
5317.35894	0.020042
5315.43026	0.020023
5313.50159	0.020181
5311.57291	0.020308
5309.64424	0.020235
5307.71556	0.020162
5305.78689	0.020283
5303.85821	0.020416
5301.92953	0.020386
5300.00086	0.020372
5298.07218	0.020507
5296.14351	0.020588
5294.21483	0.020497
5292.28616	0.020465
5290.35748	0.020616
5288.42880	0.020706
5286.50013	0.020627
5284.57145	0.020620
5282.64278	0.020765
5280.71410	0.020815
5278.78543	0.020714
5276.85675	0.020723
5274.92807	0.020896
5272.99940	0.020956
5271.07072	0.020852
5269.14205	0.020859
5267.21337	0.021023
5265.28470	0.021058
5263.35602	0.020942
5261.42734	0.020963
5259.49867	0.021125
5257.56999	0.021156
5255.64132	0.021081
5253.71264	0.021141
5251.78397	0.021281
5249.85529	0.021286
5247.92661	0.021232
5245.99794	0.021321
5244.06926	0.021469
5242.14059	0.021472
5240.21191	0.021427
5238.28324	0.021530
5236.35456	0.021670
5234.42588	0.021654
5232.49721	0.021606
5230.56853	0.021724
5228.63986	0.021858
5226.71118	0.021800
5224.78251	0.021736
5222.85383	0.021879
5220.92515	0.022036
5218.99648	0.021998
5217.06780	0.021938
5215.13913	0.022038
5213.21045	0.022129
5211.28178	0.022054
5209.35310	0.021996
5207.42442	0.022114
5205.49575	0.022228
5203.56707	0.022180
5201.63840	0.022163
5199.70972	0.022311
5197.78105	0.022411
5195.85237	0.022345
5193.92369	0.022332
5191.99502	0.022481
5190.06634	0.022564
5188.13767	0.022484
5186.20899	0.022468
5184.28032	0.022629
5182.35164	0.022740
5180.42296	0.022671
5178.49429	0.022653
5176.56561	0.022805
5174.63694	0.022880
5172.70826	0.022783
5170.77959	0.022761
5168.85091	0.022887
5166.92223	0.022924
5164.99356	0.022846
5163.06488	0.022903
5161.13621	0.023081
5159.20753	0.023114
5157.27886	0.023037
5155.35018	0.023113
5153.42150	0.023286
5151.49283	0.023290
5149.56415	0.023189
5147.63548	0.023247
5145.70680	0.023399
5143.77813	0.023391
5141.84945	0.023318
5139.92077	0.023430
5137.99210	0.023599
5136.06342	0.023564
5134.13475	0.023450
5132.20607	0.023531
5130.27740	0.023707
5128.34872	0.023714
5126.42004	0.023648
5124.49137	0.023748
5122.56269	0.023888
5120.63402	0.023863
5118.70534	0.023824
5116.77667	0.023959
5114.84799	0.024102
5112.91931	0.024075
5110.99064	0.024043
5109.06196	0.024166
5107.13329	0.024263
5105.20461	0.024190
5103.27594	0.024147
5101.34726	0.024282
5099.41858	0.024394
5097.48991	0.024343
5095.56123	0.024340
5093.63256	0.024519
5091.70388	0.024641
5089.77521	0.024558
5087.84653	0.024503
5085.91785	0.024626
5083.98918	0.024726
5082.06050	0.024682
5080.13183	0.024684
5078.20315	0.024817
5076.27448	0.024868
5074.34580	0.024784
5072.41712	0.024803
5070.48845	0.024948
5068.55977	0.024975
5066.63110	0.024872
5064.70242	0.024891
5062.77375	0.025058
5060.84507	0.025126
5058.91639	0.025070
5056.98772	0.025127
5055.05904	0.025289
5053.13037	0.025309
5051.20169	0.025222
5049.27302	0.025284
5047.34434	0.025450
5045.41566	0.025464
5043.48699	0.025380
5041.55831	0.025455
5039.62964	0.025634
5037.70096	0.025670
5035.77229	0.025617
5033.84361	0.025696
5031.91493	0.025831
5029.98626	0.025816
5028.05758	0.025744
5026.12891	0.025838
5024.20023	0.026012
5022.27156	0.026030
5020.34288	0.025969
5018.41420	0.026061
5016.48553	0.026202
5014.55685	0.026165
5012.62818	0.026100
5010.69950	0.026228
5008.77083	0.026375
5006.84215	0.026332
5004.91347	0.026273
5002.98480	0.026383
5001.05612	0.026495
4999.12745	0.026452
4997.19877	0.026429
4995.27010	0.026557
4993.34142	0.026638
4991.41274	0.026550
4989.48407	0.026521
4987.55539	0.026681
4985.62672	0.026789
4983.69804	0.026698
4981.76937	0.026650
4979.84069	0.026794
4977.91201	0.026896
4975.98334	0.026830
4974.05466	0.026857
4972.12599	0.027079
4970.19731	0.027191
4968.26864	0.027093
4966.33996	0.027089
4964.41128	0.027251
4962.48261	0.027310
4960.55393	0.027236
4958.62526	0.027284
4956.69658	0.027460
4954.76791	0.027503
4952.83923	0.027428
4950.91055	0.027504
4948.98188	0.027692
4947.05320	0.027725
4945.12453	0.027648
4943.19585	0.027717
4941.26718	0.027879
4939.33850	0.027872
4937.40982	0.027771
4935.48115	0.027861
4933.55247	0.028055
4931.62380	0.028067
4929.69512	0.027978
4927.76645	0.028049
4925.83777	0.028202
4923.90909	0.028201
4921.98042	0.028143
4920.05174	0.028235
4918.12307	0.028364
4916.19439	0.028343
4914.26572	0.028302
4912.33704	0.028430
4910.40836	0.028582
4908.47969	0.028549
4906.55101	0.028491
4904.62234	0.028625
4902.69366	0.028771
4900.76499	0.028720
4898.83631	0.028664
4896.90763	0.028792
4894.97896	0.028910
4893.05028	0.028855
4891.12161	0.028847
4889.19293	0.029039
4887.26426	0.029165
4885.33558	0.029065
4883.40690	0.029003
4881.47823	0.029138
4879.54955	0.029247
4877.62088	0.029198
4875.69220	0.029199
4873.76353	0.029358
4871.83485	0.029446
4869.90617	0.029376
4867.97750	0.029398
4866.04882	0.029581
4864.12015	0.029653
4862.19147	0.029565
4860.26280	0.029598
4858.33412	0.029805
4856.40544	0.029901
4854.47677	0.029815
4852.54809	0.029820
4850.61942	0.029990
4848.69074	0.030065
4846.76207	0.029989
4844.83339	0.030023
4842.90471	0.030191
4840.97604	0.030242
4839.04736	0.030179
4837.11869	0.030245
4835.19001	0.030402
4833.26134	0.030413
4831.33266	0.030342
4829.40398	0.030436
4827.47531	0.030610
4825.54663	0.030603
4823.61796	0.030503
4821.68928	0.030590
4819.76061	0.030788
4817.83193	0.030815
4815.90325	0.030732
4813.97458	0.030794
4812.04590	0.030935
4810.11723	0.030938
4808.18855	0.030901
4806.25988	0.031022
4804.33120	0.031162
4802.40252	0.031105
4800.47385	0.031020
4798.54517	0.031161
4796.61650	0.031358
4794.68782	0.031346
4792.75915	0.031282
4790.83047	0.031395
4788.90179	0.031536
4786.97312	0.031523
4785.04444	0.031508
4783.11577	0.031654
4781.18709	0.031777
4779.25842	0.031712
4777.32974	0.031683
4775.40106	0.031850
4773.47239	0.031977
4771.54371	0.031916
4769.61504	0.031886
4767.68636	0.032022
4765.75769	0.032122
4763.82901	0.032075
4761.90033	0.032106
4759.97166	0.032291
4758.04298	0.032390
4756.11431	0.032332
4754.18563	0.032364
4752.25696	0.032536
4750.32828	0.032596
4748.39960	0.032505
4746.47093	0.032526
4744.54225	0.032707
4742.61358	0.032797
4740.68490	0.032749
4738.75623	0.032803
4736.82755	0.032973
4734.89887	0.033008
4732.97020	0.032926
4731.04152	0.032987
4729.11285	0.033160
4727.18417	0.033187
4725.25550	0.033103
4723.32682	0.033171
4721.39814	0.033351
4719.46947	0.033396
4717.54079	0.033352
4715.61212	0.033426
4713.68344	0.033540
4711.75477	0.033497
4709.82609	0.033429
4707.89741	0.033564
4705.96874	0.033762
4704.04006	0.033785
4702.11139	0.033750
4700.18271	0.033879
4698.25404	0.034048
4696.32536	0.034040
4694.39668	0.033995
4692.46801	0.034108
4690.53933	0.034240
4688.61066	0.034226
4686.68198	0.034207
4684.75331	0.034352
4682.82463	0.034502
4680.89595	0.034452
4678.96728	0.034383
4677.03860	0.034508
4675.10993	0.034653
4673.18125	0.034650
4671.25258	0.034675
4669.32390	0.034838
4667.39522	0.034939
4665.46655	0.034876
4663.53787	0.034868
4661.60920	0.035028
4659.68052	0.035134
4657.75185	0.035079
4655.82317	0.035092
4653.89449	0.035262
4651.96582	0.035372
4650.03714	0.035336
4648.10847	0.035345
4646.17979	0.035487
4644.25112	0.035580
4642.32244	0.035552
4640.39376	0.035601
4638.46509	0.035774
4636.53641	0.035852
4634.60774	0.035795
4632.67906	0.035822
4630.75039	0.035965
4628.82171	0.036030
4626.89303	0.036007
4624.96436	0.036068
4623.03568	0.036198
4621.10701	0.036217
4619.17833	0.036170
4617.24966	0.036263
4615.32098	0.036444
4613.39230	0.036484
4611.46363	0.036432
4609.53495	0.036519
4607.60628	0.036688
4605.67760	0.036707
4603.74893	0.036652
4601.82025	0.036746
4599.89157	0.036902
4597.96290	0.036909
4596.03422	0.036880
4594.10555	0.037020
4592.17687	0.037195
4590.24820	0.037195
4588.31952	0.037146
4586.39084	0.037257
4584.46217	0.037412
4582.53349	0.037431
4580.60482	0.037434
4578.67614	0.037581
4576.74747	0.037711
4574.81879	0.037669
4572.89011	0.037647
4570.96144	0.037807
4569.03276	0.037958
4567.10409	0.037934
4565.17541	0.037908
4563.24674	0.038048
4561.31806	0.038189
4559.38938	0.038186
4557.46071	0.038188
4555.53203	0.038309
4553.60336	0.038410
4551.67468	0.038413
4549.74601	0.038462
4547.81733	0.038614
4545.88865	0.038715
4543.95998	0.038695
4542.03130	0.038704
4540.10263	0.038826
4538.17395	0.038918
4536.24528	0.038902
4534.31660	0.038929
4532.38792	0.039060
4530.45925	0.039141
4528.53057	0.039126
4526.60190	0.039185
4524.67322	0.039338
4522.74455	0.039389
4520.81587	0.039339
4518.88719	0.039423
4516.95852	0.039631
4515.02984	0.039714
4513.10117	0.039693
4511.17249	0.039794
4509.24382	0.039965
4507.31514	0.039981
4505.38646	0.039904
4503.45779	0.039981
4501.52911	0.040179
4499.60044	0.040269
4497.67176	0.040263
4495.74309	0.040351
4493.81441	0.040485
4491.88573	0.040494
4489.95706	0.040459
4488.02838	0.040565
4486.09971	0.040737
4484.17103	0.040797
4482.24236	0.040811
4480.31368	0.040943
4478.38500	0.041111
4476.45633	0.041140
4474.52765	0.041107
4472.59898	0.041180
4470.67030	0.041287
4468.74163	0.041309
4466.81295	0.041343
4464.88427	0.041495
4462.95560	0.041635
4461.02692	0.041619
4459.09825	0.041593
4457.16957	0.041720
4455.24090	0.041866
4453.31222	0.041891
4451.38354	0.041911
4449.45487	0.042043
4447.52619	0.042169
4445.59752	0.042174
4443.66884	0.042192
4441.74017	0.042339
4439.81149	0.042469
4437.88281	0.042472
4435.95414	0.042491
4434.02546	0.042618
4432.09679	0.042723
4430.16811	0.042730
4428.23944	0.042790
4426.31076	0.042966
4424.38208	0.043067
4422.45341	0.043041
4420.52473	0.043094
4418.59606	0.043262
4416.66738	0.043371
4414.73871	0.043384
4412.81003	0.043456
4410.88135	0.043618
4408.95268	0.043707
4407.02400	0.043691
4405.09533	0.043749
4403.16665	0.043908
4401.23798	0.043996
4399.30930	0.043997
4397.38062	0.044066
4395.45195	0.044197
4393.52327	0.044243
4391.59460	0.044233
4389.66592	0.044338
4387.73725	0.044523
4385.80857	0.044612
4383.87989	0.044614
4381.95122	0.044684
4380.02254	0.044818
4378.09387	0.044862
4376.16519	0.044834
4374.23652	0.044903
4372.30784	0.045044
4370.37916	0.045109
4368.45049	0.045139
4366.52181	0.045271
4364.59314	0.045444
4362.66446	0.045511
4360.73579	0.045539
4358.80711	0.045653
4356.87843	0.045761
4354.94976	0.045762
4353.02108	0.045774
4351.09241	0.045911
4349.16373	0.046050
4347.23506	0.046074
4345.30638	0.046106
4343.37770	0.046263
4341.44903	0.046420
4339.52035	0.046455
4337.59168	0.046495
4335.66300	0.046647
4333.73433	0.046776
4331.80565	0.046789
4329.87697	0.046825
4327.94830	0.046969
4326.01962	0.047075
4324.09095	0.047078
4322.16227	0.047130
4320.23360	0.047277
4318.30492	0.047374
4316.37624	0.047397
4314.44757	0.047477
4312.51889	0.047639
4310.59022	0.047767
4308.66154	0.047808
4306.73287	0.047862
4304.80419	0.047980
4302.87551	0.048067
4300.94684	0.048111
4299.01816	0.048216
4297.08949	0.048371
4295.16081	0.048468
4293.23214	0.048510
4291.30346	0.048600
4289.37478	0.048736
4287.44611	0.048813
4285.51743	0.048848
4283.58876	0.048957
4281.66008	0.049114
4279.73141	0.049185
4277.80273	0.049199
4275.87405	0.049301
4273.94538	0.049455
4272.01670	0.049523
4270.08803	0.049541
4268.15935	0.049619
4266.23068	0.049728
4264.30200	0.049789
4262.37332	0.049834
4260.44465	0.049947
4258.51597	0.050100
4256.58730	0.050208
4254.65862	0.050273
4252.72995	0.050364
4250.80127	0.050469
4248.87259	0.050532
4246.94392	0.050580
4245.01524	0.050683
4243.08657	0.050799
4241.15789	0.050855
4239.22922	0.050916
4237.30054	0.051046
4235.37186	0.051168
4233.44319	0.051237
4231.51451	0.051311
4229.58584	0.051438
4227.65716	0.051581
4225.72849	0.051662
4223.79981	0.051717
4221.87113	0.051840
4219.94246	0.051977
4218.01378	0.052060
4216.08511	0.052153
4214.15643	0.052274
4212.22776	0.052350
4210.29908	0.052379
4208.37040	0.052437
4206.44173	0.052556
4204.51305	0.052664
4202.58438	0.052737
4200.65570	0.052860
4198.72703	0.053010
4196.79835	0.053084
4194.86968	0.053102
4192.94100	0.053182
4191.01232	0.053353
4189.08365	0.053501
4187.15497	0.053585
4185.22630	0.053698
4183.29762	0.053855
4181.36895	0.053959
4179.44027	0.054001
4177.51159	0.054063
4175.58292	0.054159
4173.65424	0.054233
4171.72557	0.054313
4169.79689	0.054458
4167.86822	0.054620
4165.93954	0.054700
4164.01086	0.054728
4162.08219	0.054815
4160.15351	0.054950
4158.22484	0.055033
4156.29616	0.055083
4154.36749	0.055193
4152.43881	0.055347
4150.51013	0.055456
4148.58146	0.055540
4146.65278	0.055668
4144.72411	0.055788
4142.79543	0.055846
4140.86676	0.055915
4138.93808	0.056059
4137.00940	0.056206
4135.08073	0.056287
4133.15205	0.056375
4131.22338	0.056531
4129.29470	0.056662
4127.36603	0.056716
4125.43735	0.056795
4123.50867	0.056945
4121.58000	0.057060
4119.65132	0.057105
4117.72265	0.057178
4115.79397	0.057309
4113.86530	0.057429
4111.93662	0.057523
4110.00794	0.057635
4108.07927	0.057753
4106.15059	0.057840
4104.22192	0.057916
4102.29324	0.058036
4100.36457	0.058184
4098.43589	0.058292
4096.50721	0.058370
4094.57854	0.058473
4092.64986	0.058587
4090.72119	0.058689
4088.79251	0.058803
4086.86384	0.058937
4084.93516	0.059064
4083.00648	0.059155
4081.07781	0.059233
4079.14913	0.059352
4077.22046	0.059481
4075.29178	0.059564
4073.36311	0.059654
4071.43443	0.059797
4069.50575	0.059935
4067.57708	0.060030
4065.64840	0.060137
4063.71973	0.060287
4061.79105	0.060434
4059.86238	0.060531
4057.93370	0.060605
4056.00502	0.060710
4054.07635	0.060841
4052.14767	0.060950
4050.21900	0.061039
4048.29032	0.061162
4046.36165	0.061306
4044.43297	0.061426
4042.50429	0.061545
4040.57562	0.061670
4038.64694	0.061766
4036.71827	0.061831
4034.78959	0.061918
4032.86092	0.062057
4030.93224	0.062202
4029.00356	0.062307
4027.07489	0.062411
4025.14621	0.062540
4023.21754	0.062645
4021.28886	0.062725
4019.36019	0.062850
4017.43151	0.063007
4015.50283	0.063137
4013.57416	0.063234
4011.64548	0.063336
4009.71681	0.063472
4007.78813	0.063597
4005.85946	0.063668
4003.93078	0.063761
4002.00210	0.063930
4000.07343	0.064089
3998.14475	0.064205
3996.21608	0.064345
3994.28740	0.064488
3992.35873	0.064549
3990.43005	0.064590
3988.50137	0.064720
3986.57270	0.064881
3984.64402	0.064991
3982.71535	0.065096
3980.78667	0.065247
3978.85800	0.065398
3976.92932	0.065484
3975.00064	0.065543
3973.07197	0.065647
3971.14329	0.065788
3969.21462	0.065929
3967.28594	0.066055
3965.35727	0.066172
3963.42859	0.066291
3961.49991	0.066415
3959.57124	0.066549
3957.64256	0.066708
3955.71389	0.066845
3953.78521	0.066897
3951.85654	0.066924
3949.92786	0.067022
3947.99918	0.067148
3946.07051	0.067233
3944.14183	0.067342
3942.21316	0.067537
3940.28448	0.067736
3938.35581	0.067880
3936.42713	0.068014
3934.49845	0.068125
3932.56978	0.068180
3930.64110	0.068251
3928.71243	0.068383
3926.78375	0.068521
3924.85508	0.068645
3922.92640	0.068761
3920.99772	0.068853
3919.06905	0.068944
3917.14037	0.069092
3915.21170	0.069303
3913.28302	0.069514
3911.35435	0.069667
3909.42567	0.069735
3907.49699	0.069712
3905.56832	0.069652
3903.63964	0.069642
3901.71097	0.069739
3899.78229	0.069968
3897.85362	0.070292
3895.92494	0.070560
3893.99626	0.070686
3892.06759	0.070801
3890.13891	0.070968
3888.21024	0.070992
3886.28156	0.070916
3884.35289	0.071040
3882.42421	0.071301
3880.49553	0.071517
3878.56686	0.071697
3876.63818	0.071805
3874.70951	0.071882
3872.78083	0.071968
3870.85216	0.072037
3868.92348	0.072187
3866.99480	0.072403
3865.06613	0.072554
3863.13745	0.072676
3861.20878	0.072839
3859.28010	0.073004
3857.35143	0.072993
3855.42275	0.072744
3853.49407	0.072665
3851.56540	0.073074
3849.63672	0.073627
3847.70805	0.073927
3845.77937	0.074015
3843.85070	0.074047
3841.92202	0.074032
3839.99334	0.073994
3838.06467	0.074111
3836.13599	0.074424
3834.20732	0.074705
3832.27864	0.074875
3830.34997	0.075041
3828.42129	0.075195
3826.49261	0.075286
3824.56394	0.075292
3822.63526	0.075259
3820.70659	0.075358
3818.77791	0.075547
3816.84924	0.075724
3814.92056	0.076036
3812.99188	0.076408
3811.06321	0.076555
3809.13453	0.076495
3807.20586	0.076512
3805.27718	0.076684
3803.34851	0.076782
3801.41983	0.076851
3799.49115	0.077094
3797.56248	0.077360
3795.63380	0.077544
3793.70513	0.077754
3791.77645	0.078003
3789.84778	0.078196
3787.91910	0.078271
3785.99042	0.078324
3784.06175	0.078478
3782.13307	0.078637
3780.20440	0.078706
3778.27572	0.078820
3776.34705	0.079042
3774.41837	0.079209
3772.48969	0.079211
3770.56102	0.079196
3768.63234	0.079331
3766.70367	0.079523
3764.77499	0.079656
3762.84632	0.079775
3760.91764	0.079909
3758.98896	0.080070
3757.06029	0.080222
3755.13161	0.080261
3753.20294	0.080194
3751.27426	0.080203
3749.34559	0.080346
3747.41691	0.080339
3745.48823	0.080201
3743.55956	0.080448
3741.63088	0.081012
3739.70221	0.081276
3737.77353	0.081196
3735.84486	0.081169
3733.91618	0.081332
3731.98750	0.081666
3730.05883	0.082082
3728.13015	0.082329
3726.20148	0.082392
3724.27280	0.082507
3722.34413	0.082727
3720.41545	0.082955
3718.48677	0.083133
3716.55810	0.083289
3714.62942	0.083390
3712.70075	0.083366
3710.77207	0.083389
3708.84340	0.083652
3706.91472	0.083997
3704.98604	0.084128
3703.05737	0.084103
3701.12869	0.084252
3699.20002	0.084585
3697.27134	0.084797
3695.34267	0.084792
3693.41399	0.084731
3691.48531	0.084714
3689.55664	0.084786
3687.62796	0.085035
3685.69929	0.085436
3683.77061	0.085769
3681.84194	0.085855
3679.91326	0.085745
3677.98458	0.085610
3676.05591	0.085671
3674.12723	0.085976
3672.19856	0.086233
3670.26988	0.086389
3668.34121	0.086677
3666.41253	0.087010
3664.48385	0.087231
3662.55518	0.087409
3660.62650	0.087541
3658.69783	0.087525
3656.76915	0.087509
3654.84048	0.087655
3652.91180	0.087644
3650.98312	0.087295
3649.05445	0.087106
3647.12577	0.087443
3645.19710	0.087995
3643.26842	0.088371
3641.33975	0.088596
3639.41107	0.088808
3637.48239	0.088942
3635.55372	0.088962
3633.62504	0.088982
3631.69637	0.088988
3629.76769	0.088959
3627.83902	0.089096
3625.91034	0.089443
3623.98166	0.089724
3622.05299	0.089721
3620.12431	0.089605
3618.19564	0.089740
3616.26696	0.090014
3614.33829	0.090066
3612.40961	0.089969
3610.48093	0.090006
3608.55226	0.090260
3606.62358	0.090562
3604.69491	0.090729
3602.76623	0.090828
3600.83756	0.090977
3598.90888	0.091113
3596.98020	0.091176
3595.05153	0.091291
3593.12285	0.091493
3591.19418	0.091529
3589.26550	0.091355
3587.33683	0.091365
3585.40815	0.091699
3583.47947	0.091988
3581.55080	0.092084
3579.62212	0.092225
3577.69345	0.092436
3575.76477	0.092537
3573.83610	0.092566
3571.90742	0.092657
3569.97874	0.092704
3568.05007	0.092624
3566.12139	0.092668
3564.19272	0.092986
3562.26404	0.093317
3560.33537	0.093446
3558.40669	0.093516
3556.47801	0.093681
3554.54934	0.093821
3552.62066	0.093829
3550.69199	0.093835
3548.76331	0.093940
3546.83464	0.094062
3544.90596	0.094152
3542.97728	0.094302
3541.04861	0.094536
3539.11993	0.094691
3537.19126	0.094694
3535.26258	0.094719
3533.33391	0.094864
3531.40523	0.094959
3529.47655	0.094903
3527.54788	0.094871
3525.61920	0.094996
3523.69053	0.095119
3521.76185	0.095109
3519.83318	0.095108
3517.90450	0.095245
3515.97582	0.095376
3514.04715	0.095371
3512.11847	0.095374
3510.18980	0.095496
3508.26112	0.095569
3506.33245	0.095477
3504.40377	0.095417
3502.47509	0.095553
3500.54642	0.095692
3498.61774	0.095662
3496.68907	0.095639
3494.76039	0.095755
3492.83172	0.095848
3490.90304	0.095801
3488.97436	0.095777
3487.04569	0.095885
3485.11701	0.095948
3483.18834	0.095909
3481.25966	0.095983
3479.33099	0.096207
3477.40231	0.096351
3475.47363	0.096347
3473.54496	0.096409
3471.61628	0.096617
3469.68761	0.096783
3467.75893	0.096864
3465.83026	0.097029
3463.90158	0.097284
3461.97290	0.097472
3460.04423	0.097576
3458.11555	0.097743
3456.18688	0.097974
3454.25820	0.098113
3452.32953	0.098173
3450.40085	0.098299
3448.47217	0.098482
3446.54350	0.098590
3444.61482	0.098657
3442.68615	0.098876
3440.75747	0.099212
3438.82880	0.099439
3436.90012	0.099609
3434.97144	0.099944
3433.04277	0.100376
3431.11409	0.100698
3429.18542	0.100957
3427.25674	0.101313
3425.32807	0.101685
3423.39939	0.101925
3421.47071	0.102134
3419.54204	0.102456
3417.61336	0.102792
3415.68469	0.103027
3413.75601	0.103240
3411.82734	0.103546
3409.89866	0.103867
3407.96998	0.104047
3406.04131	0.104173
3404.11263	0.104420
3402.18396	0.104683
3400.25528	0.104826
3398.32661	0.104988
3396.39793	0.105290
3394.46925	0.105573
3392.54058	0.105728
3390.61190	0.105929
3388.68323	0.106263
3386.75455	0.106518
3384.82588	0.106607
3382.89720	0.106747
3380.96852	0.107041
3379.03985	0.107286
3377.11117	0.107372
3375.18250	0.107503
3373.25382	0.107799
3371.32515	0.108069
3369.39647	0.108204
3367.46779	0.108376
3365.53912	0.108657
3363.61044	0.108854
3361.68177	0.108922
3359.75309	0.109077
3357.82442	0.109384
3355.89574	0.109634
3353.96706	0.109750
3352.03839	0.109933
3350.10971	0.110231
3348.18104	0.110425
3346.25236	0.110485
3344.32369	0.110628
3342.39501	0.110912
3340.46633	0.111143
3338.53766	0.111250
3336.60898	0.111424
3334.68031	0.111715
3332.75163	0.111926
3330.82296	0.112018
3328.89428	0.112205
3326.96560	0.112530
3325.03693	0.112763
3323.10825	0.112868
3321.17958	0.113066
3319.25090	0.113364
3317.32223	0.113554
3315.39355	0.113652
3313.46487	0.113880
3311.53620	0.114202
3309.60752	0.114390
3307.67885	0.114504
3305.75017	0.114748
3303.82150	0.115045
3301.89282	0.115206
3299.96414	0.115313
3298.03547	0.115573
3296.10679	0.115884
3294.17812	0.116030
3292.24944	0.116123
3290.32077	0.116370
3288.39209	0.116692
3286.46341	0.116904
3284.53474	0.117059
3282.60606	0.117316
3280.67739	0.117613
3278.74871	0.117789
3276.82004	0.117923
3274.89136	0.118196
3272.96268	0.118534
3271.03401	0.118736
3269.10533	0.118872
3267.17666	0.119121
3265.24798	0.119382
3263.31931	0.119504
3261.39063	0.119640
3259.46195	0.119929
3257.53328	0.120206
3255.60460	0.120348
3253.67593	0.120521
3251.74725	0.120843
3249.81858	0.121141
3247.88990	0.121270
3245.96122	0.121414
3244.03255	0.121739
3242.10387	0.122073
3240.17520	0.122235
3238.24652	0.122367
3236.31785	0.122635
3234.38917	0.122906
3232.46049	0.123029
3230.53182	0.123174
3228.60314	0.123471
3226.67447	0.123729
3224.74579	0.123870
3222.81712	0.124091
3220.88844	0.124438
3218.95976	0.124664
3217.03109	0.124692
3215.10241	0.124810
3213.17374	0.125136
3211.24506	0.125412
3209.31639	0.125525
3207.38771	0.125699
3205.45903	0.126025
3203.53036	0.126291
3201.60168	0.126422
3199.67301	0.126638
3197.74433	0.126997
3195.81566	0.127283
3193.88698	0.127448
3191.95830	0.127700
3190.02963	0.128046
3188.10095	0.128248
3186.17228	0.128319
3184.24360	0.128520
3182.31493	0.128847
3180.38625	0.129063
3178.45757	0.129200
3176.52890	0.129487
3174.60022	0.129862
3172.67155	0.130084
3170.74287	0.130195
3168.81420	0.130433
3166.88552	0.130771
3164.95684	0.130981
3163.02817	0.131087
3161.09949	0.131317
3159.17082	0.131646
3157.24214	0.131848
3155.31347	0.131980
3153.38479	0.132254
3151.45611	0.132578
3149.52744	0.132764
3147.59876	0.132919
3145.67009	0.133211
3143.74141	0.133534
3141.81274	0.133710
3139.88406	0.133824
3137.95538	0.134069
3136.02671	0.134378
3134.09803	0.134569
3132.16936	0.134724
3130.24068	0.135008
3128.31201	0.135291
3126.38333	0.135401
3124.45465	0.135508
3122.52598	0.135821
3120.59730	0.136159
3118.66863	0.136315
3116.73995	0.136482
3114.81128	0.136840
3112.88260	0.137183
3110.95392	0.137322
3109.02525	0.137429
3107.09657	0.137692
3105.16790	0.137992
3103.23922	0.138158
3101.31055	0.138315
3099.38187	0.138627
3097.45319	0.138940
3095.52452	0.139108
3093.59584	0.139292
3091.66717	0.139613
3089.73849	0.139893
3087.80982	0.140025
3085.88114	0.140203
3083.95246	0.140538
3082.02379	0.140829
3080.09511	0.140980
3078.16644	0.141182
3076.23776	0.141498
3074.30909	0.141726
3072.38041	0.141822
3070.45173	0.142014
3068.52306	0.142343
3066.59438	0.142559
3064.66571	0.142612
3062.73703	0.142791
3060.80836	0.143171
3058.87968	0.143469
3056.95100	0.143607
3055.02233	0.143819
3053.09365	0.144125
3051.16498	0.144321
3049.23630	0.144435
3047.30763	0.144681
3045.37895	0.145044
3043.45027	0.145306
3041.52160	0.145449
3039.59292	0.145691
3037.66425	0.146025
3035.73557	0.146218
3033.80690	0.146291
3031.87822	0.146511
3029.94954	0.146875
3028.02087	0.147100
3026.09219	0.147188
3024.16352	0.147426
3022.23484	0.147791
3020.30617	0.148000
3018.37749	0.148102
3016.44881	0.148368
3014.52014	0.148729
3012.59146	0.148936
3010.66279	0.149046
3008.73411	0.149274
3006.80544	0.149564
3004.87676	0.149720
3002.94808	0.149820
3001.01941	0.150069
2999.09073	0.150357
2997.16206	0.150476
2995.23338	0.150575
2993.30471	0.150872
2991.37603	0.151180
2989.44735	0.151237
2987.51868	0.151209
2985.59000	0.151371
2983.66133	0.151580
2981.73265	0.151557
2979.80398	0.151394
2977.87530	0.151319
2975.94662	0.151229
2974.01795	0.150938
2972.08927	0.150597
2970.16060	0.150422
2968.23192	0.150302
2966.30325	0.150082
2964.37457	0.149949
2962.44589	0.150130
2960.51722	0.150491
2958.58854	0.150823
2956.65987	0.151254
2954.73119	0.151936
2952.80252	0.152626
2950.87384	0.153082
2948.94516	0.153479
2947.01649	0.153960
2945.08781	0.154302
2943.15914	0.154354
2941.23046	0.154354
2939.30179	0.154466
2937.37311	0.154496
2935.44443	0.154334
2933.51576	0.154232
2931.58708	0.154320
2929.65841	0.154311
2927.72973	0.154099
2925.80106	0.153991
2923.87238	0.154094
2921.94370	0.154138
2920.01503	0.154075
2918.08635	0.154259
2916.15768	0.154858
2914.22900	0.155639
2912.30033	0.156398
2910.37165	0.157161
2908.44297	0.157874
2906.51430	0.158351
2904.58562	0.158674
2902.65695	0.159128
2900.72827	0.159703
2898.79960	0.160109
2896.87092	0.160318
2894.94224	0.160628
2893.01357	0.161089
2891.08489	0.161458
2889.15622	0.161710
2887.22754	0.162061
2885.29887	0.162501
2883.37019	0.162807
2881.44151	0.162993
2879.51284	0.163283
2877.58416	0.163671
2875.65549	0.163899
2873.72681	0.163957
2871.79814	0.164142
2869.86946	0.164478
2867.94078	0.164684
2866.01211	0.164751
2864.08343	0.164936
2862.15476	0.165178
2860.22608	0.165189
2858.29741	0.165033
2856.36873	0.164981
2854.44005	0.165006
2852.51138	0.164930
2850.58270	0.164977
2848.65403	0.165536
2846.72535	0.166469
2844.79668	0.167312
2842.86800	0.167977
2840.93932	0.168673
2839.01065	0.169326
2837.08197	0.169732
2835.15330	0.170011
2833.22462	0.170384
2831.29595	0.170768
2829.36727	0.170991
2827.43859	0.171203
2825.50992	0.171603
2823.58124	0.172003
2821.65257	0.172192
2819.72389	0.172356
2817.79522	0.172706
2815.86654	0.173070
2813.93786	0.173265
2812.00919	0.173459
2810.08051	0.173810
2808.15184	0.174145
2806.22316	0.174315
2804.29449	0.174507
2802.36581	0.174893
2800.43713	0.175249
2798.50846	0.175385
2796.57978	0.175559
2794.65111	0.175958
2792.72243	0.176312
2790.79376	0.176445
2788.86508	0.176610
2786.93640	0.176970
2785.00773	0.177296
2783.07905	0.177464
2781.15038	0.177689
2779.22170	0.178069
2777.29303	0.178387
2775.36435	0.178549
2773.43567	0.178785
2771.50700	0.179194
2769.57832	0.179532
2767.64965	0.179680
2765.72097	0.179889
2763.79230	0.180280
2761.86362	0.180592
2759.93494	0.180736
2758.00627	0.180963
2756.07759	0.181328
2754.14892	0.181585
2752.22024	0.181690
2750.29157	0.181893
2748.36289	0.182238
2746.43421	0.182488
2744.50554	0.182612
2742.57686	0.182846
2740.64819	0.183221
2738.71951	0.183497
2736.79084	0.183643
2734.86216	0.183886
2732.93348	0.184237
2731.00481	0.184450
2729.07613	0.184525
2727.14746	0.184776
2725.21878	0.185231
2723.29011	0.185541
2721.36143	0.185656
2719.43275	0.185897
2717.50408	0.186288
2715.57540	0.186551
2713.64673	0.186709
2711.71805	0.186982
2709.78938	0.187280
2707.86070	0.187404
2705.93202	0.187503
2704.00335	0.187817
2702.07467	0.188200
2700.14600	0.188371
2698.21732	0.188457
2696.28865	0.188760
2694.35997	0.189165
2692.43129	0.189367
2690.50262	0.189450
2688.57394	0.189699
2686.64527	0.190051
2684.71659	0.190270
2682.78792	0.190446
2680.85924	0.190773
2678.93056	0.191099
2677.00189	0.191217
2675.07321	0.191315
2673.14454	0.191630
2671.21586	0.191971
2669.28719	0.192113
2667.35851	0.192259
2665.42983	0.192625
2663.50116	0.193008
2661.57248	0.193189
2659.64381	0.193331
2657.71513	0.193654
2655.78646	0.194021
2653.85778	0.194211
2651.92910	0.194361
2650.00043	0.194681
2648.07175	0.195022
2646.14308	0.195203
2644.21440	0.195392
2642.28573	0.195751
2640.35705	0.196100
2638.42837	0.196275
2636.49970	0.196449
2634.57102	0.196786
2632.64235	0.197119
2630.71367	0.197290
2628.78500	0.197494
2626.85632	0.197848
2624.92764	0.198139
2622.99897	0.198312
2621.07029	0.198570
2619.14162	0.198958
2617.21294	0.199279
2615.28427	0.199468
2613.35559	0.199736
2611.42691	0.200138
2609.49824	0.200455
2607.56956	0.200636
2605.64089	0.200870
2603.71221	0.201193
2601.78354	0.201427
2599.85486	0.201568
2597.92618	0.201852
2595.99751	0.202269
2594.06883	0.202551
2592.14016	0.202715
2590.21148	0.203036
2588.28281	0.203474
2586.35413	0.203742
2584.42545	0.203862
2582.49678	0.204105
2580.56810	0.204487
2578.63943	0.204746
2576.71075	0.204841
2574.78208	0.205044
2572.85340	0.205395
2570.92472	0.205652
2568.99605	0.205819
2567.06737	0.206107
2565.13870	0.206452
2563.21002	0.206652
2561.28135	0.206809
2559.35267	0.207131
2557.42399	0.207501
2555.49532	0.207697
2553.56664	0.207840
2551.63797	0.208160
2549.70929	0.208529
2547.78062	0.208698
2545.85194	0.208800
2543.92326	0.209106
2541.99459	0.209505
2540.06591	0.209739
2538.13724	0.209895
2536.20856	0.210178
2534.27989	0.210496
2532.35121	0.210688
2530.42253	0.210874
2528.49386	0.211212
2526.56518	0.211552
2524.63651	0.211715
2522.70783	0.211864
2520.77916	0.212216
2518.85048	0.212624
2516.92181	0.212839
2514.99313	0.212992
2513.06445	0.213309
2511.13578	0.213651
2509.20710	0.213875
2507.27843	0.214154
2505.34975	0.214557
2503.42108	0.214843
2501.49240	0.214940
2499.56372	0.215151
2497.63505	0.215624
2495.70637	0.216064
2493.77770	0.216251
2491.84902	0.216411
2489.92035	0.216781
2487.99167	0.217197
2486.06299	0.217463
2484.13432	0.217714
2482.20564	0.218083
2480.27697	0.218405
2478.34829	0.218570
2476.41962	0.218780
2474.49094	0.219157
2472.56226	0.219499
2470.63359	0.219677
2468.70491	0.219914
2466.77624	0.220355
2464.84756	0.220717
2462.91889	0.220827
2460.99021	0.220978
2459.06153	0.221336
2457.13286	0.221660
2455.20418	0.221849
2453.27551	0.222137
2451.34683	0.222568
2449.41816	0.222859
2447.48948	0.222967
2445.56080	0.223165
2443.63213	0.223529
2441.70345	0.223867
2439.77478	0.224113
2437.84610	0.224425
2435.91743	0.224831
2433.98875	0.225138
2432.06007	0.225299
2430.13140	0.225522
2428.20272	0.225880
2426.27405	0.226187
2424.34537	0.226380
2422.41670	0.226632
2420.48802	0.226961
2418.55934	0.227181
2416.63067	0.227344
2414.70199	0.227664
2412.77332	0.228073
2410.84464	0.228347
2408.91597	0.228524
2406.98729	0.228805
2405.05861	0.229142
2403.12994	0.229353
2401.20126	0.229537
2399.27259	0.229886
2397.34391	0.230272
2395.41524	0.230471
2393.48656	0.230620
2391.55788	0.230949
2389.62921	0.231306
2387.70053	0.231469
2385.77186	0.231578
2383.84318	0.231837
2381.91451	0.232129
2379.98583	0.232230
2378.05715	0.232186
2376.12848	0.232178
2374.19980	0.232213
2372.27113	0.232199
2370.34245	0.232198
2368.41378	0.232357
2366.48510	0.232592
2364.55642	0.232714
2362.62775	0.232814
2360.69907	0.233068
2358.77040	0.233409
2356.84172	0.233706
2354.91305	0.234068
2352.98437	0.234670
2351.05569	0.235335
2349.12702	0.235733
2347.19834	0.235892
2345.26967	0.236020
2343.34099	0.236144
2341.41232	0.236236
2339.48364	0.236412
2337.55496	0.236757
2335.62629	0.237102
2333.69761	0.237295
2331.76894	0.237490
2329.84026	0.237850
2327.91159	0.238240
2325.98291	0.238557
2324.05423	0.238938
2322.12556	0.239415
2320.19688	0.239825
2318.26821	0.240144
2316.33953	0.240519
2314.41086	0.240969
2312.48218	0.241378
2310.55350	0.241686
2308.62483	0.242009
2306.69615	0.242438
2304.76748	0.242790
2302.83880	0.242967
2300.91013	0.243208
2298.98145	0.243605
2297.05277	0.243951
2295.12410	0.244161
2293.19542	0.244420
2291.26675	0.244799
2289.33807	0.245120
2287.40940	0.245349
2285.48072	0.245671
2283.55204	0.246095
2281.62337	0.246392
2279.69469	0.246513
2277.76602	0.246705
2275.83734	0.247039
2273.90867	0.247300
2271.97999	0.247469
2270.05131	0.247739
2268.12264	0.248110
2266.19396	0.248403
2264.26529	0.248602
2262.33661	0.248872
2260.40794	0.249211
2258.47926	0.249453
2256.55058	0.249622
2254.62191	0.249879
2252.69323	0.250202
2250.76456	0.250445
2248.83588	0.250657
2246.90721	0.250982
2244.97853	0.251344
2243.04985	0.251581
2241.12118	0.251774
2239.19250	0.252090
2237.26383	0.252454
2235.33515	0.252703
2233.40648	0.252880
2231.47780	0.253109
2229.54912	0.253367
2227.62045	0.253569
2225.69177	0.253769
2223.76310	0.254062
2221.83442	0.254372
2219.90575	0.254594
2217.97707	0.254812
2216.04839	0.255121
2214.11972	0.255414
2212.19104	0.255633
2210.26237	0.255885
2208.33369	0.256202
2206.40502	0.256488
2204.47634	0.256683
2202.54766	0.256864
2200.61899	0.257138
2198.69031	0.257420
2196.76164	0.257586
2194.83296	0.257776
2192.90429	0.258127
2190.97561	0.258495
2189.04693	0.258750
2187.11826	0.259006
2185.18958	0.259351
2183.26091	0.259660
2181.33223	0.259834
2179.40356	0.259979
2177.47488	0.260182
2175.54620	0.260363
2173.61753	0.260518
2171.68885	0.260759
2169.76018	0.261092
2167.83150	0.261397
2165.90283	0.261630
2163.97415	0.261884
2162.04547	0.262195
2160.11680	0.262489
2158.18812	0.262717
2156.25945	0.262949
2154.33077	0.263264
2152.40210	0.263568
2150.47342	0.263785
2148.54474	0.264041
2146.61607	0.264400
2144.68739	0.264730
2142.75872	0.264935
2140.83004	0.265120
2138.90137	0.265390
2136.97269	0.265660
2135.04401	0.265889
2133.11534	0.266156
2131.18666	0.266445
2129.25799	0.266676
2127.32931	0.266885
2125.40064	0.267150
2123.47196	0.267454
2121.54328	0.267729
2119.61461	0.267952
2117.68593	0.268200
2115.75726	0.268529
2113.82858	0.268846
2111.89991	0.269110
2109.97123	0.269416
2108.04255	0.269733
2106.11388	0.269942
2104.18520	0.270111
2102.25653	0.270393
2100.32785	0.270739
2098.39918	0.270984
2096.47050	0.271157
2094.54182	0.271399
2092.61315	0.271674
2090.68447	0.271880
2088.75580	0.272082
2086.82712	0.272404
2084.89845	0.272789
2082.96977	0.273062
2081.04109	0.273194
2079.11242	0.273354
2077.18374	0.273651
2075.25507	0.273951
2073.32639	0.274141
2071.39772	0.274354
2069.46904	0.274676
2067.54036	0.274971
2065.61169	0.275183
2063.68301	0.275441
2061.75434	0.275741
2059.82566	0.275946
2057.89699	0.276118
2055.96831	0.276407
2054.03963	0.276725
2052.11096	0.276909
2050.18228	0.277074
2048.25361	0.277422
2046.32493	0.277821
2044.39626	0.278047
2042.46758	0.278176
2040.53890	0.278411
2038.61023	0.278736
2036.68155	0.278996
2034.75288	0.279186
2032.82420	0.279432
2030.89553	0.279709
2028.96685	0.279925
2027.03817	0.280174
2025.10950	0.280528
2023.18082	0.280845
2021.25215	0.280987
2019.32347	0.281053
2017.39480	0.281291
2015.46612	0.281717
2013.53744	0.282085
2011.60877	0.282327
2009.68009	0.282587
2007.75142	0.282851
2005.82274	0.283031
2003.89407	0.283224
2001.96539	0.283501
2000.03671	0.283744
1998.10804	0.283908
1996.17936	0.284103
1994.25069	0.284356
1992.32201	0.284607
1990.39334	0.284850
1988.46466	0.285100
1986.53598	0.285370
1984.60731	0.285648
1982.67863	0.285870
1980.74996	0.286061
1978.82128	0.286298
1976.89261	0.286530
1974.96393	0.286701
1973.03525	0.286905
1971.10658	0.287144
1969.17790	0.287273
1967.24923	0.287368
1965.32055	0.287637
1963.39188	0.287990
1961.46320	0.288206
1959.53452	0.288320
1957.60585	0.288568
1955.67717	0.288995
1953.74850	0.289333
1951.81982	0.289463
1949.89115	0.289613
1947.96247	0.289854
1946.03379	0.290013
1944.10512	0.290105
1942.17644	0.290341
1940.24777	0.290732
1938.31909	0.291075
1936.39042	0.291343
1934.46174	0.291637
1932.53306	0.291921
1930.60439	0.292115
1928.67571	0.292288
1926.74704	0.292506
1924.81836	0.292701
1922.88969	0.292846
1920.96101	0.292875
1919.03233	0.292870
1917.10366	0.293221
1915.17498	0.293807
1913.24631	0.294150
1911.31763	0.294328
1909.38896	0.294583
1907.46028	0.294879
1905.53160	0.295159
1903.60293	0.295468
1901.67425	0.295783
1899.74558	0.295969
1897.81690	0.296002
1895.88823	0.296067
1893.95955	0.296314
1892.03087	0.296612
1890.10220	0.296867
1888.17352	0.297204
1886.24485	0.297557
1884.31617	0.297781
1882.38750	0.297970
1880.45882	0.298233
1878.53014	0.298514
1876.60147	0.298701
1874.67279	0.298799
1872.74412	0.298806
1870.81544	0.298713
1868.88677	0.298823
1866.95809	0.299401
1865.02941	0.300097
1863.10074	0.300489
1861.17206	0.300645
1859.24339	0.300837
1857.31471	0.301192
1855.38604	0.301592
1853.45736	0.301865
1851.52868	0.302024
1849.60001	0.302173
1847.67133	0.302259
1845.74266	0.302212
1843.81398	0.302326
1841.88531	0.302813
1839.95663	0.303350
1838.02795	0.303692
1836.09928	0.303992
1834.17060	0.304261
1832.24193	0.304262
1830.31325	0.304164
1828.38458	0.304377
1826.45590	0.304764
1824.52722	0.305086
1822.59855	0.305418
1820.66987	0.305751
1818.74120	0.305991
1816.81252	0.306150
1814.88385	0.306286
1812.95517	0.306398
1811.02649	0.306555
1809.09782	0.306834
1807.16914	0.307155
1805.24047	0.307390
1803.31179	0.307437
1801.38312	0.307379
1799.45444	0.307497
1797.52576	0.307798
1795.59709	0.307858
1793.66841	0.307603
1791.73974	0.307727
1789.81106	0.308431
1787.88239	0.308908
1785.95371	0.308895
1784.02503	0.308947
1782.09636	0.309216
1780.16768	0.309542
1778.23901	0.309882
1776.31033	0.310006
1774.38166	0.309822
1772.45298	0.309707
1770.52430	0.309890
1768.59563	0.310216
1766.66695	0.310572
1764.73828	0.310741
1762.80960	0.310638
1760.88093	0.310735
1758.95225	0.311129
1757.02357	0.311451
1755.09490	0.311358
1753.16622	0.310606
1751.23755	0.309867
1749.30887	0.309928
1747.38020	0.310329
1745.45152	0.310481
1743.52284	0.310440
1741.59417	0.310319
1739.66549	0.310327
1737.73682	0.310464
1735.80814	0.310351
1733.87947	0.310335
1731.95079	0.310874
1730.02211	0.311541
1728.09344	0.312032
1726.16476	0.312333
1724.23609	0.312442
1722.30741	0.312450
1720.37874	0.312217
1718.45006	0.311878
1716.52138	0.312003
1714.59271	0.312653
1712.66403	0.313359
1710.73536	0.313806
1708.80668	0.313871
1706.87801	0.313697
1704.94933	0.313551
1703.02065	0.313165
1701.09198	0.312617
1699.16330	0.312697
1697.23463	0.313323
1695.30595	0.313996
1693.37728	0.314534
1691.44860	0.314625
1689.51992	0.314512
1687.59125	0.314378
1685.66257	0.313946
1683.73390	0.313726
1681.80522	0.314204
1679.87655	0.314712
1677.94787	0.314447
1676.01919	0.313837
1674.09052	0.313802
1672.16184	0.314118
1670.23317	0.314362
1668.30449	0.314793
1666.37582	0.315195
1664.44714	0.315130
1662.51846	0.315031
1660.58979	0.315346
1658.66111	0.315655
1656.73244	0.315236
1654.80376	0.314052
1652.87509	0.313374
1650.94641	0.313851
1649.01773	0.314379
1647.08906	0.314673
1645.16038	0.315318
1643.23171	0.315947
1641.30303	0.316082
1639.37436	0.315770
1637.44568	0.315350
1635.51700	0.315455
1633.58833	0.316151
1631.65965	0.316646
1629.73098	0.316559
1627.80230	0.316295
1625.87363	0.315965
1623.94495	0.315315
1622.01627	0.314676
1620.08760	0.314521
1618.15892	0.314873
1616.23025	0.315815
1614.30157	0.317101
1612.37290	0.318018
1610.44422	0.318479
1608.51554	0.318895
1606.58687	0.319381
1604.65819	0.319798
1602.72952	0.320123
1600.80084	0.320452
1598.87217	0.320804
1596.94349	0.321095
1595.01481	0.321252
1593.08614	0.321337
1591.15746	0.321508
1589.22879	0.321821
1587.30011	0.322193
1585.37144	0.322497
1583.44276	0.322704
1581.51408	0.322858
1579.58541	0.322734
1577.65673	0.322290
1575.72806	0.322390
1573.79938	0.323239
1571.87071	0.323733
1569.94203	0.323736
1568.01335	0.323949
1566.08468	0.324279
1564.15600	0.324316
1562.22733	0.323682
1560.29865	0.322730
1558.36998	0.322781
1556.44130	0.323956
1554.51262	0.325045
1552.58395	0.325549
1550.65527	0.325743
1548.72660	0.325772
1546.79792	0.325462
1544.86925	0.324880
1542.94057	0.324443
1541.01189	0.324514
1539.08322	0.325256
1537.15454	0.326018
1535.22587	0.326089
1533.29719	0.326164
1531.36852	0.326817
1529.43984	0.327275
1527.51116	0.327157
1525.58249	0.326832
1523.65381	0.326421
1521.72514	0.326275
1519.79646	0.326668
1517.86779	0.327085
1515.93911	0.327318
1514.01043	0.327654
1512.08176	0.327859
1510.15308	0.327351
1508.22441	0.326481
1506.29573	0.326661
1504.36706	0.327983
1502.43838	0.328862
1500.50970	0.328687
1498.58103	0.328186
1496.65235	0.328110
1494.72368	0.328525
1492.79500	0.328730
1490.86633	0.328398
1488.93765	0.328038
1487.00897	0.328052
1485.08030	0.328246
1483.15162	0.328244
1481.22295	0.327980
1479.29427	0.327468
1477.36560	0.326618
1475.43692	0.325627
1473.50824	0.324913
1471.57957	0.324691
1469.65089	0.324674
1467.72222	0.324307
1465.79354	0.323698
1463.86487	0.323503
1461.93619	0.323488
1460.00751	0.322735
1458.07884	0.321635
1456.15016	0.321542
1454.22149	0.322400
1452.29281	0.323052
1450.36414	0.323172
1448.43546	0.323218
1446.50678	0.323512
1444.57811	0.323931
1442.64943	0.324240
1440.72076	0.324350
1438.79208	0.324223
1436.86341	0.324223
1434.93473	0.324716
1433.00605	0.325320
1431.07738	0.325671
1429.14870	0.325933
1427.22003	0.326076
1425.29135	0.325962
1423.36268	0.325621
1421.43400	0.324912
1419.50532	0.324323
1417.57665	0.324696
1415.64797	0.325563
1413.71930	0.326049
1411.79062	0.326168
1409.86195	0.326204
1407.93327	0.326179
1406.00459	0.326062
1404.07592	0.326065
1402.14724	0.326207
1400.21857	0.326249
1398.28989	0.326192
1396.36122	0.326161
1394.43254	0.326304
1392.50386	0.326561
1390.57519	0.326531
1388.64651	0.326033
1386.71784	0.325441
1384.78916	0.325259
1382.86049	0.325500
1380.93181	0.325739
1379.00313	0.325717
1377.07446	0.325475
1375.14578	0.325211
1373.21711	0.325246
1371.28843	0.325544
1369.35976	0.325741
1367.43108	0.325761
1365.50240	0.325565
1363.57373	0.325239
1361.64505	0.325265
1359.71638	0.325680
1357.78770	0.326028
1355.85903	0.326218
1353.93035	0.326474
1352.00167	0.326806
1350.07300	0.327077
1348.14432	0.327290
1346.21565	0.327478
1344.28697	0.327539
1342.35830	0.327348
1340.42962	0.327043
1338.50094	0.326978
1336.57227	0.327179
1334.64359	0.327300
1332.71492	0.327176
1330.78624	0.326998
1328.85757	0.326896
1326.92889	0.326744
1325.00021	0.326458
1323.07154	0.326098
1321.14286	0.325719
1319.21419	0.325373
1317.28551	0.325104
1315.35684	0.324833
1313.42816	0.324509
1311.49948	0.324200
1309.57081	0.323897
1307.64213	0.323524
1305.71346	0.323094
1303.78478	0.322662
1301.85611	0.322214
1299.92743	0.321774
1297.99875	0.321438
1296.07008	0.321165
1294.14140	0.320826
1292.21273	0.320419
1290.28405	0.319990
1288.35538	0.319530
1286.42670	0.319077
1284.49802	0.318617
1282.56935	0.318029
1280.64067	0.317280
1278.71200	0.316349
1276.78332	0.315106
1274.85465	0.313373
1272.92597	0.311161
1270.99729	0.308673
1269.06862	0.306070
1267.13994	0.303415
1265.21127	0.300799
1263.28259	0.298602
1261.35392	0.297317
1259.42524	0.297133
1257.49656	0.297837
1255.56789	0.298843
1253.63921	0.299712
1251.71054	0.300533
1249.78186	0.301506
1247.85319	0.302480
1245.92451	0.303098
1243.99583	0.303222
1242.06716	0.302914
1240.13848	0.302301
1238.20981	0.301529
1236.28113	0.300689
1234.35246	0.299793
1232.42378	0.298812
1230.49510	0.297775
1228.56643	0.296779
1226.63775	0.295869
1224.70908	0.294975
1222.78040	0.294101
1220.85173	0.293290
1218.92305	0.292446
1216.99437	0.291491
1215.06570	0.290426
1213.13702	0.289365
1211.20835	0.288459
1209.27967	0.287604
1207.35100	0.286595
1205.42232	0.285495
1203.49364	0.284440
1201.56497	0.283394
1199.63629	0.282295
1197.70762	0.281148
1195.77894	0.280009
1193.85027	0.278910
1191.92159	0.277784
1189.99291	0.276538
1188.06424	0.275159
1186.13556	0.273755
1184.20689	0.272356
1182.27821	0.270870
1180.34954	0.269362
1178.42086	0.267942
1176.49218	0.266525
1174.56351	0.264987
1172.63483	0.263357
1170.70616	0.261720
1168.77748	0.260076
1166.84881	0.258361
1164.92013	0.256608
1162.99145	0.254959
1161.06278	0.253440
1159.13410	0.251962
1157.20543	0.250484
1155.27675	0.249010
1153.34808	0.247560
1151.41940	0.246109
1149.49072	0.244578
1147.56205	0.242945
1145.63337	0.241298
1143.70470	0.239644
1141.77602	0.237835
1139.84735	0.235889
1137.91867	0.233945
1135.98999	0.231944
1134.06132	0.229691
1132.13264	0.227032
1130.20397	0.223931
1128.27529	0.220488
1126.34662	0.216759
1124.41794	0.212750
1122.48926	0.208657
1120.56059	0.204759
1118.63191	0.201150
1116.70324	0.197821
1114.77456	0.194818
1112.84589	0.192220
1110.91721	0.190033
1108.98853	0.188254
1107.05986	0.186933
1105.13118	0.186086
1103.20251	0.185700
1101.27383	0.185749
1099.34516	0.186171
1097.41648	0.186884
1095.48780	0.187779
1093.55913	0.188760
1091.63045	0.189757
1089.70178	0.190690
1087.77310	0.191538
1085.84443	0.192329
1083.91575	0.192985
1081.98707	0.193386
1080.05840	0.193534
1078.12972	0.193528
1076.20105	0.193522
1074.27237	0.193532
1072.34370	0.193456
1070.41502	0.193388
1068.48634	0.193439
1066.55767	0.193481
1064.62899	0.193434
1062.70032	0.193408
1060.77164	0.193464
1058.84297	0.193513
1056.91429	0.193471
1054.98561	0.193466
1053.05694	0.193631
1051.12826	0.193885
1049.19959	0.194163
1047.27091	0.194441
1045.34224	0.194634
1043.41356	0.194805
1041.48488	0.195090
1039.55621	0.195468
1037.62753	0.195859
1035.69886	0.196267
1033.77018	0.196716
1031.84151	0.197185
1029.91283	0.197666
1027.98415	0.198288
1026.05548	0.199180
1024.12680	0.200267
1022.19813	0.201431
1020.26945	0.202740
1018.34078	0.204278
1016.41210	0.205992
1014.48342	0.207900
1012.55475	0.209980
1010.62607	0.212062
1008.69740	0.214177
1006.76872	0.216382
1004.84005	0.218538
1002.91137	0.220500
1000.98269	0.222157
999.05402	0.223533
997.12534	0.224827
995.19667	0.226076
993.26799	0.227126
991.33932	0.227950
989.41064	0.228631
987.48196	0.229220
985.55329	0.229796
983.62461	0.230417
981.69594	0.231018
979.76726	0.231447
977.83859	0.231642
975.90991	0.231683
973.98123	0.231651
972.05256	0.231578
970.12388	0.231542
968.19521	0.231540
966.26653	0.231487
964.33786	0.231401
962.40918	0.231275
960.48050	0.231079
958.55183	0.230843
956.62315	0.230532
954.69448	0.230184
952.76580	0.229927
950.83713	0.229717
948.90845	0.229433
946.97977	0.229086
945.05110	0.228695
943.12242	0.228171
941.19375	0.227415
939.26507	0.226467
937.33640	0.225545
935.40772	0.224744
933.47904	0.223890
931.55037	0.222908
929.62169	0.221901
927.69302	0.220893
925.76434	0.219834
923.83567	0.218717
921.90699	0.217539
919.97831	0.216283
918.04964	0.214914
916.12096	0.213449
914.19229	0.211938
912.26361	0.210391
910.33494	0.208941
908.40626	0.207709
906.47758	0.206591
904.54891	0.205448
902.62023	0.204310
900.69156	0.203313
898.76288	0.202455
896.83421	0.201557
894.90553	0.200485
892.97685	0.199354
891.04818	0.198398
889.11950	0.197611
887.19083	0.196815
885.26215	0.196011
883.33348	0.195257
881.40480	0.194530
879.47612	0.193828
877.54745	0.193084
875.61877	0.192310
873.69010	0.191694
871.76142	0.191178
869.83275	0.190556
867.90407	0.189891
865.97539	0.189306
864.04672	0.188789
862.11804	0.188408
860.18937	0.188169
858.26069	0.187826
856.33202	0.187187
854.40334	0.186361
852.47466	0.185532
850.54599	0.184665
848.61731	0.183627
846.68864	0.182525
844.75996	0.181641
842.83129	0.181094
840.90261	0.180793
838.97394	0.180669
837.04526	0.180623
835.11658	0.180414
833.18791	0.179874
831.25923	0.178960
829.33056	0.177806
827.40188	0.176653
825.47321	0.175461
823.54453	0.174069
821.61585	0.172631
819.68718	0.171376
817.75850	0.170316
815.82983	0.169444
813.90115	0.168723
811.97248	0.167961
810.04380	0.167036
808.11512	0.166070
806.18645	0.165258
804.25777	0.164584
802.32910	0.163929
800.40042	0.163248
798.47175	0.162490
796.54307	0.161743
794.61439	0.161277
792.68572	0.161239
790.75704	0.161514
788.82837	0.161917
786.89969	0.162280
784.97102	0.162514
783.04234	0.162730
781.11366	0.162960
779.18499	0.163086
777.25631	0.163140
775.32764	0.163205
773.39896	0.163185
771.47029	0.162982
769.54161	0.162651
767.61293	0.162214
765.68426	0.161655
763.75558	0.161048
761.82691	0.160482
759.89823	0.159969
757.96956	0.159362
756.04088	0.158533
754.11220	0.157596
752.18353	0.156789
750.25485	0.156168
748.32618	0.155522
746.39750	0.154686
744.46883	0.153612
742.54015	0.152318
740.61147	0.151181
738.68280	0.150623
736.75412	0.150615
734.82545	0.150864
732.89677	0.151110
730.96810	0.151281
729.03942	0.151433
727.11074	0.151611
725.18207	0.151808
723.25339	0.152014
721.32472	0.152329
719.39604	0.152822
717.46737	0.153457
715.53869	0.154160
713.61001	0.154846
711.68134	0.155475
709.75266	0.155973
707.82399	0.156263
705.89531	0.156340
703.96664	0.156231
702.03796	0.155921
700.10928	0.155318
698.18061	0.154423
696.25193	0.153452
694.32326	0.152657
692.39458	0.152022
690.46591	0.151375
688.53723	0.150686
686.60855	0.150052
684.67988	0.149478
682.75120	0.148873
680.82253	0.148234
678.89385	0.147571
676.96518	0.146840
675.03650	0.145969
673.10782	0.144848
671.17915	0.143358
669.25047	0.141692
667.32180	0.140430
665.39312	0.139603
663.46445	0.138655
661.53577	0.137470
659.60709	0.136230
657.67842	0.135006
655.74974	0.133833
653.82107	0.132691
651.89239	0.131590
649.96372	0.130549
648.03504	0.129385
646.10636	0.127901
644.17769	0.126266
642.24901	0.124738
640.32034	0.123187
638.39166	0.121418
636.46299	0.119550
634.53431	0.117548
632.60563	0.115007
630.67696	0.111077
628.74828	0.104973
626.81961	0.097320
624.89093	0.089675
622.96226	0.083552
621.03358	0.079899
619.10490	0.078084
617.17623	0.076805
615.24755	0.075357
613.31888	0.073495
611.39020	0.071688
609.46153	0.070815
607.53285	0.071051
605.60417	0.071774
603.67550	0.072677
601.74682	0.074010
599.81815	0.075617
597.88947	0.077024
595.96080	0.078161
594.03212	0.079030
592.10344	0.079481
590.17477	0.079642
588.24609	0.079722
586.31742	0.079590
584.38874	0.079041
582.46007	0.078257
580.53139	0.077629
578.60271	0.077052
576.67404	0.076167
574.74536	0.075107
572.81669	0.074159
570.88801	0.073245
568.95934	0.072255
567.03066	0.071330
565.10198	0.070581
563.17331	0.069937
561.24463	0.069337
559.31596	0.068820
557.38728	0.068348
555.45861	0.067884
553.52993	0.067547
551.60125	0.067331
549.67258	0.067107
547.74390	0.066841
545.81523	0.066465
543.88655	0.065953
541.95788	0.065452
540.02920	0.065121
538.10052	0.064906
536.17185	0.064539
534.24317	0.064006
532.31450	0.063532
530.38582	0.063136
528.45715	0.062777
526.52847	0.062409
524.59979	0.061890
522.67112	0.061179
520.74244	0.060297
518.81377	0.059203
516.88509	0.057952
514.95642	0.056820
513.02774	0.056113
511.09906	0.055850
509.17039	0.055711
507.24171	0.055397
505.31304	0.054941
503.38436	0.054396
501.45569	0.053690
499.52701	0.052863
497.59833	0.051941
495.66966	0.050886
493.74098	0.049793
491.81231	0.048817
489.88363	0.048009
487.95496	0.047231
486.02628	0.046326
484.09760	0.045313
482.16893	0.044375
480.24025	0.043567
478.31158	0.042675
476.38290	0.041644
474.45423	0.040699
472.52555	0.039917
470.59687	0.039178
468.66820	0.038403
466.73952	0.037692
464.81085	0.037157
462.88217	0.036738
460.95350	0.036471
459.02482	0.036460
457.09614	0.036582
455.16747	0.036693
453.23879	0.036762
451.31012	0.036713
449.38144	0.036511
447.45277	0.036198
445.52409	0.035801
443.59541	0.035395
441.66674	0.035005
439.73806	0.034504
437.80939	0.033829
435.88071	0.033117
433.95204	0.032452
432.02336	0.031717
430.09468	0.030850
428.16601	0.029866
426.23733	0.028741
424.30866	0.027645
422.37998	0.026678
420.45131	0.025575
418.52263	0.024333
416.59395	0.023241
414.66528	0.022170
412.73660	0.020924
410.80793	0.019701
408.87925	0.018631
406.95058	0.017673
405.02190	0.016816
403.09322	0.015975
401.16455	0.015114
399.23587	0.014309
397.30720	0.013441
395.37852	0.012406
393.44985	0.011453
391.52117	0.010701
389.59249	0.009994
387.66382	0.009378
385.73514	0.008859
383.80647	0.008216
381.87779	0.007519
379.94912	0.006960
378.02044	0.006409
376.09176	0.005810
374.16309	0.005247
372.23441	0.004678
370.30574	0.004138
368.37706	0.003682
