7496.76250	0.002940
7494.83382	0.002954
7492.90514	0.002966
7490.97647	0.002956
7489.04779	0.002945
7487.11912	0.002960
7485.19044	0.002971
7483.26177	0.002957
7481.33309	0.002961
7479.40441	0.002998
7477.47574	0.003034
7475.54706	0.003048
7473.61839	0.003048
7471.68971	0.003047
7469.76104	0.003049
7467.83236	0.003046
7465.90368	0.003045
7463.97501	0.003041
7462.04633	0.003033
7460.11766	0.003042
7458.18898	0.003064
7456.26031	0.003085
7454.33163	0.003106
7452.40295	0.003125
7450.47428	0.003127
7448.54560	0.003118
7446.61693	0.003112
7444.68825	0.003119
7442.75958	0.003134
7440.83090	0.003144
7438.90222	0.003145
7436.97355	0.003141
7435.04487	0.003140
7433.11620	0.003159
7431.18752	0.003194
7429.25885	0.003212
7427.33017	0.003212
7425.40149	0.003213
7423.47282	0.003216
7421.54414	0.003213
7419.61547	0.003203
7417.68679	0.003211
7415.75812	0.003242
7413.82944	0.003264
7411.90076	0.003262
7409.97209	0.003251
7408.04341	0.003250
7406.11474	0.003261
7404.18606	0.003276
7402.25739	0.003300
7400.32871	0.003329
7398.40003	0.003350
7396.47136	0.003354
7394.54268	0.003351
7392.61401	0.003350
7390.68533	0.003349
7388.75666	0.003355
7386.82798	0.003366
7384.89930	0.003368
7382.97063	0.003364
7381.04195	0.003373
7379.11328	0.003400
7377.18460	0.003425
7375.25593	0.003422
7373.32725	0.003401
7371.39857	0.003401
7369.46990	0.003429
7367.54122	0.003455
7365.61255	0.003463
7363.68387	0.003460
7361.75520	0.003459
7359.82652	0.003466
7357.89784	0.003483
7355.96917	0.003501
7354.04049	0.003518
7352.11182	0.003538
7350.18314	0.003556
7348.25447	0.003565
7346.32579	0.003567
7344.39711	0.003561
7342.46844	0.003552
7340.53976	0.003551
7338.61109	0.003562
7336.68241	0.003579
7334.75374	0.003592
7332.82506	0.003597
7330.89638	0.003597
7328.96771	0.003600
7327.03903	0.003612
7325.11036	0.003623
7323.18168	0.003629
7321.25301	0.003643
7319.32433	0.003658
7317.39565	0.003662
7315.46698	0.003667
7313.53830	0.003679
7311.60963	0.003685
7309.68095	0.003673
7307.75228	0.003666
7305.82360	0.003689
7303.89492	0.003729
7301.96625	0.003753
7300.03757	0.003748
7298.10890	0.003737
7296.18022	0.003759
7294.25155	0.003799
7292.32287	0.003810
7290.39419	0.003805
7288.46552	0.003810
7286.53684	0.003808
7284.60817	0.003802
7282.67949	0.003812
7280.75082	0.003834
7278.82214	0.003850
7276.89346	0.003858
7274.96479	0.003870
7273.03611	0.003890
7271.10744	0.003910
7269.17876	0.003924
7267.25009	0.003927
7265.32141	0.003914
7263.39273	0.003922
7261.46406	0.003966
7259.53538	0.003991
7257.60671	0.003975
7255.67803	0.003957
7253.74936	0.003957
7251.82068	0.003968
7249.89200	0.003975
7247.96333	0.003981
7246.03465	0.003991
7244.10598	0.003999
7242.17730	0.004012
7240.24863	0.004026
7238.31995	0.004018
7236.39127	0.004001
7234.46260	0.004006
7232.53392	0.004037
7230.60525	0.004072
7228.67657	0.004083
7226.74790	0.004082
7224.81922	0.004097
7222.89054	0.004109
7220.96187	0.004099
7219.03319	0.004096
7217.10452	0.004116
7215.17584	0.004136
7213.24717	0.004143
7211.31849	0.004147
7209.38981	0.004157
7207.46114	0.004168
7205.53246	0.004182
7203.60379	0.004207
7201.67511	0.004239
7199.74644	0.004257
7197.81776	0.004265
7195.88908	0.004273
7193.96041	0.004280
7192.03173	0.004287
7190.10306	0.004301
7188.17438	0.004315
7186.24571	0.004315
7184.31703	0.004308
7182.38835	0.004315
7180.45968	0.004328
7178.53100	0.004337
7176.60233	0.004344
7174.67365	0.004355
7172.74498	0.004366
7170.81630	0.004378
7168.88762	0.004395
7166.95895	0.004416
7165.03027	0.004428
7163.10160	0.004430
7161.17292	0.004428
7159.24425	0.004435
7157.31557	0.004465
7155.38689	0.004498
7153.45822	0.004502
7151.52954	0.004482
7149.60087	0.004474
7147.67219	0.004482
7145.74352	0.004499
7143.81484	0.004520
7141.88616	0.004527
7139.95749	0.004528
7138.02881	0.004553
7136.10014	0.004591
7134.17146	0.004600
7132.24279	0.004583
7130.31411	0.004574
7128.38543	0.004584
7126.45676	0.004605
7124.52808	0.004629
7122.59941	0.004645
7120.67073	0.004638
7118.74206	0.004628
7116.81338	0.004642
7114.88470	0.004680
7112.95603	0.004712
7111.02735	0.004716
7109.09868	0.004707
7107.17000	0.004715
7105.24133	0.004742
7103.31265	0.004764
7101.38397	0.004760
7099.45530	0.004746
7097.52662	0.004756
7095.59795	0.004771
7093.66927	0.004772
7091.74060	0.004781
7089.81192	0.004813
7087.88324	0.004848
7085.95457	0.004867
7084.02589	0.004872
7082.09722	0.004880
7080.16854	0.004897
7078.23987	0.004905
7076.31119	0.004898
7074.38251	0.004893
7072.45384	0.004896
7070.52516	0.004902
7068.59649	0.004906
7066.66781	0.004919
7064.73914	0.004944
7062.81046	0.004965
7060.88178	0.004960
7058.95311	0.004945
7057.02443	0.004947
7055.09576	0.004972
7053.16708	0.005006
7051.23841	0.005033
7049.30973	0.005045
7047.38105	0.005048
7045.45238	0.005044
7043.52370	0.005046
7041.59503	0.005063
7039.66635	0.005079
7037.73768	0.005086
7035.80900	0.005096
7033.88032	0.005100
7031.95165	0.005106
7030.02297	0.005139
7028.09430	0.005174
7026.16562	0.005184
7024.23695	0.005189
7022.30827	0.005207
7020.37959	0.005233
7018.45092	0.005268
7016.52224	0.005288
7014.59357	0.005275
7012.66489	0.005253
7010.73622	0.005256
7008.80754	0.005281
7006.87886	0.005294
7004.95019	0.005301
7003.02151	0.005323
7001.09284	0.005346
6999.16416	0.005355
6997.23549	0.005358
6995.30681	0.005372
6993.37813	0.005385
6991.44946	0.005395
6989.52078	0.005434
6987.59211	0.005476
6985.66343	0.005481
6983.73476	0.005472
6981.80608	0.005472
6979.87740	0.005485
6977.94873	0.005503
6976.02005	0.005508
6974.09138	0.005492
6972.16270	0.005475
6970.23403	0.005485
6968.30535	0.005518
6966.37667	0.005548
6964.44800	0.005577
6962.51932	0.005606
6960.59065	0.005624
6958.66197	0.005635
6956.73330	0.005634
6954.80462	0.005619
6952.87594	0.005607
6950.94727	0.005605
6949.01859	0.005619
6947.08992	0.005649
6945.16124	0.005684
6943.23257	0.005718
6941.30389	0.005748
6939.37521	0.005759
6937.44654	0.005758
6935.51786	0.005775
6933.58919	0.005802
6931.66051	0.005813
6929.73184	0.005818
6927.80316	0.005831
6925.87448	0.005847
6923.94581	0.005862
6922.01713	0.005868
6920.08846	0.005870
6918.15978	0.005879
6916.23111	0.005886
6914.30243	0.005889
6912.37375	0.005899
6910.44508	0.005920
6908.51640	0.005932
6906.58773	0.005931
6904.65905	0.005929
6902.73038	0.005944
6900.80170	0.005969
6898.87302	0.005991
6896.94435	0.006011
6895.01567	0.006028
6893.08700	0.006044
6891.15832	0.006067
6889.22965	0.006083
6887.30097	0.006085
6885.37229	0.006102
6883.44362	0.006139
6881.51494	0.006168
6879.58627	0.006178
6877.65759	0.006187
6875.72892	0.006201
6873.80024	0.006225
6871.87156	0.006249
6869.94289	0.006252
6868.01421	0.006243
6866.08554	0.006247
6864.15686	0.006267
6862.22819	0.006279
6860.29951	0.006277
6858.37083	0.006287
6856.44216	0.006316
6854.51348	0.006345
6852.58481	0.006364
6850.65613	0.006365
6848.72746	0.006362
6846.79878	0.006375
6844.87010	0.006395
6842.94143	0.006412
6841.01275	0.006431
6839.08408	0.006448
6837.15540	0.006457
6835.22673	0.006466
6833.29805	0.006482
6831.36937	0.006496
6829.44070	0.006497
6827.51202	0.006495
6825.58335	0.006503
6823.65467	0.006524
6821.72600	0.006553
6819.79732	0.006577
6817.86864	0.006594
6815.93997	0.006618
6814.01129	0.006645
6812.08262	0.006665
6810.15394	0.006675
6808.22527	0.006677
6806.29659	0.006671
6804.36791	0.006668
6802.43924	0.006669
6800.51056	0.006684
6798.58189	0.006719
6796.65321	0.006757
6794.72454	0.006779
6792.79586	0.006792
6790.86718	0.006813
6788.93851	0.006830
6787.00983	0.006842
6785.08116	0.006863
6783.15248	0.006890
6781.22381	0.006911
6779.29513	0.006923
6777.36645	0.006927
6775.43778	0.006933
6773.50910	0.006942
6771.58043	0.006954
6769.65175	0.006972
6767.72308	0.006991
6765.79440	0.007012
6763.86572	0.007028
6761.93705	0.007032
6760.00837	0.007043
6758.07970	0.007064
6756.15102	0.007080
6754.22235	0.007094
6752.29367	0.007108
6750.36499	0.007122
6748.43632	0.007125
6746.50764	0.007122
6744.57897	0.007146
6742.65029	0.007183
6740.72162	0.007204
6738.79294	0.007229
6736.86426	0.007272
6734.93559	0.007298
6733.00691	0.007294
6731.07824	0.007291
6729.14956	0.007292
6727.22089	0.007285
6725.29221	0.007292
6723.36353	0.007323
6721.43486	0.007355
6719.50618	0.007376
6717.57751	0.007390
6715.64883	0.007408
6713.72016	0.007438
6711.79148	0.007472
6709.86280	0.007484
6707.93413	0.007480
6706.00545	0.007480
6704.07678	0.007481
6702.14810	0.007488
6700.21943	0.007513
6698.29075	0.007542
6696.36207	0.007554
6694.43340	0.007568
6692.50472	0.007597
6690.57605	0.007628
6688.64737	0.007654
6686.71870	0.007673
6684.79002	0.007683
6682.86134	0.007690
6680.93267	0.007713
6679.00399	0.007754
6677.07532	0.007790
6675.14664	0.007818
6673.21797	0.007840
6671.28929	0.007850
6669.36061	0.007855
6667.43194	0.007856
6665.50326	0.007848
6663.57459	0.007848
6661.64591	0.007871
6659.71724	0.007897
6657.78856	0.007917
6655.85988	0.007935
6653.93121	0.007946
6652.00253	0.007961
6650.07386	0.007993
6648.14518	0.008031
6646.21651	0.008061
6644.28783	0.008082
6642.35915	0.008093
6640.43048	0.008102
6638.50180	0.008114
6636.57313	0.008135
6634.64445	0.008175
6632.71578	0.008210
6630.78710	0.008213
6628.85842	0.008200
6626.92975	0.008202
6625.00107	0.008230
6623.07240	0.008258
6621.14372	0.008271
6619.21505	0.008293
6617.28637	0.008326
6615.35769	0.008348
6613.42902	0.008353
6611.50034	0.008365
6609.57167	0.008387
6607.64299	0.008401
6605.71432	0.008403
6603.78564	0.008409
6601.85696	0.008432
6599.92829	0.008470
6597.99961	0.008507
6596.07094	0.008536
6594.14226	0.008551
6592.21359	0.008553
6590.28491	0.008565
6588.35623	0.008586
6586.42756	0.008592
6584.49888	0.008596
6582.57021	0.008625
6580.64153	0.008658
6578.71286	0.008678
6576.78418	0.008708
6574.85550	0.008748
6572.92683	0.008777
6570.99815	0.008795
6569.06948	0.008804
6567.14080	0.008808
6565.21213	0.008822
6563.28345	0.008851
6561.35477	0.008877
6559.42610	0.008886
6557.49742	0.008895
6555.56875	0.008920
6553.64007	0.008945
6551.71140	0.008952
6549.78272	0.008952
6547.85404	0.008967
6545.92537	0.008998
6543.99669	0.009028
6542.06802	0.009042
6540.13934	0.009048
6538.21067	0.009071
6536.28199	0.009113
6534.35331	0.009145
6532.42464	0.009155
6530.49596	0.009160
6528.56729	0.009172
6526.63861	0.009191
6524.70994	0.009213
6522.78126	0.009237
6520.85258	0.009267
6518.92391	0.009294
6516.99523	0.009311
6515.06656	0.009327
6513.13788	0.009354
6511.20921	0.009391
6509.28053	0.009422
6507.35185	0.009437
6505.42318	0.009449
6503.49450	0.009470
6501.56583	0.009494
6499.63715	0.009517
6497.70848	0.009547
6495.77980	0.009579
6493.85112	0.009604
6491.92245	0.009626
6489.99377	0.009647
6488.06510	0.009660
6486.13642	0.009660
6484.20775	0.009661
6482.27907	0.009675
6480.35039	0.009701
6478.42172	0.009742
6476.49304	0.009789
6474.56437	0.009816
6472.63569	0.009831
6470.70702	0.009846
6468.77834	0.009853
6466.84966	0.009859
6464.92099	0.009888
6462.99231	0.009925
6461.06364	0.009939
6459.13496	0.009940
6457.20629	0.009960
6455.27761	0.010000
6453.34893	0.010038
6451.42026	0.010049
6449.49158	0.010045
6447.56291	0.010057
6445.63423	0.010097
6443.70556	0.010145
6441.77688	0.010175
6439.84820	0.010181
6437.91953	0.010184
6435.99085	0.010197
6434.06218	0.010227
6432.13350	0.010262
6430.20483	0.010287
6428.27615	0.010317
6426.34747	0.010363
6424.41880	0.010406
6422.49012	0.010433
6420.56145	0.010455
6418.63277	0.010469
6416.70410	0.010468
6414.77542	0.010474
6412.84674	0.010496
6410.91807	0.010525
6408.98939	0.010557
6407.06072	0.010587
6405.13204	0.010625
6403.20337	0.010665
6401.27469	0.010687
6399.34601	0.010699
6397.41734	0.010722
6395.48866	0.010755
6393.55999	0.010778
6391.63131	0.010787
6389.70264	0.010797
6387.77396	0.010807
6385.84528	0.010807
6383.91661	0.010809
6381.98793	0.010848
6380.05926	0.010913
6378.13058	0.010951
6376.20191	0.010948
6374.27323	0.010946
6372.34455	0.010959
6370.41588	0.010970
6368.48720	0.010995
6366.55853	0.011047
6364.62985	0.011093
6362.70118	0.011110
6360.77250	0.011123
6358.84382	0.011161
6356.91515	0.011211
6354.98647	0.011240
6353.05780	0.011242
6351.12912	0.011244
6349.20045	0.011270
6347.27177	0.011308
6345.34309	0.011342
6343.41442	0.011370
6341.48574	0.011395
6339.55707	0.011423
6337.62839	0.011457
6335.69972	0.011486
6333.77104	0.011517
6331.84236	0.011554
6329.91369	0.011576
6327.98501	0.011588
6326.05634	0.011611
6324.12766	0.011632
6322.19899	0.011646
6320.27031	0.011670
6318.34163	0.011692
6316.41296	0.011712
6314.48428	0.011750
6312.55561	0.011795
6310.62693	0.011836
6308.69826	0.011872
6306.76958	0.011891
6304.84090	0.011897
6302.91223	0.011907
6300.98355	0.011923
6299.05488	0.011952
6297.12620	0.011993
6295.19753	0.012027
6293.26885	0.012047
6291.34017	0.012068
6289.41150	0.012097
6287.48282	0.012141
6285.55415	0.012189
6283.62547	0.012209
6281.69680	0.012211
6279.76812	0.012235
6277.83944	0.012291
6275.91077	0.012345
6273.98209	0.012367
6272.05342	0.012379
6270.12474	0.012404
6268.19607	0.012434
6266.26739	0.012468
6264.33871	0.012503
6262.41004	0.012536
6260.48136	0.012561
6258.55269	0.012568
6256.62401	0.012567
6254.69534	0.012573
6252.76666	0.012599
6250.83798	0.012652
6248.90931	0.012706
6246.98063	0.012739
6245.05196	0.012759
6243.12328	0.012774
6241.19461	0.012787
6239.26593	0.012805
6237.33725	0.012833
6235.40858	0.012870
6233.47990	0.012914
6231.55123	0.012968
6229.62255	0.013017
6227.69388	0.013043
6225.76520	0.013060
6223.83652	0.013071
6221.90785	0.013080
6219.97917	0.013103
6218.05050	0.013149
6216.12182	0.013191
6214.19315	0.013205
6212.26447	0.013212
6210.33579	0.013229
6208.40712	0.013246
6206.47844	0.013272
6204.54977	0.013313
6202.62109	0.013352
6200.69242	0.013379
6198.76374	0.013398
6196.83506	0.013415
6194.90639	0.013443
6192.97771	0.013492
6191.04904	0.013546
6189.12036	0.013576
6187.19169	0.013590
6185.26301	0.013610
6183.33433	0.013629
6181.40566	0.013641
6179.47698	0.013670
6177.54831	0.013731
6175.61963	0.013802
6173.69096	0.013848
6171.76228	0.013872
6169.83360	0.013893
6167.90493	0.013928
6165.97625	0.013972
6164.04758	0.013996
6162.11890	0.014005
6160.19023	0.014027
6158.26155	0.014060
6156.33287	0.014086
6154.40420	0.014111
6152.47552	0.014157
6150.54685	0.014211
6148.61817	0.014249
6146.68950	0.014281
6144.76082	0.014314
6142.83214	0.014339
6140.90347	0.014363
6138.97479	0.014386
6137.04612	0.014410
6135.11744	0.014453
6133.18877	0.014504
6131.26009	0.014529
6129.33141	0.014529
6127.40274	0.014535
6125.47406	0.014565
6123.54539	0.014615
6121.61671	0.014669
6119.68804	0.014715
6117.75936	0.014748
6115.83068	0.014770
6113.90201	0.014780
6111.97333	0.014789
6110.04466	0.014831
6108.11598	0.014903
6106.18731	0.014959
6104.25863	0.014985
6102.32995	0.015000
6100.40128	0.015028
6098.47260	0.015072
6096.54393	0.015120
6094.61525	0.015159
6092.68658	0.015196
6090.75790	0.015223
6088.82922	0.015224
6086.90055	0.015231
6084.97187	0.015275
6083.04320	0.015335
6081.11452	0.015390
6079.18585	0.015437
6077.25717	0.015473
6075.32849	0.015499
6073.39982	0.015515
6071.47114	0.015525
6069.54247	0.015536
6067.61379	0.015558
6065.68512	0.015588
6063.75644	0.015618
6061.82776	0.015654
6059.89909	0.015696
6057.97041	0.015740
6056.04174	0.015788
6054.11306	0.015830
6052.18439	0.015861
6050.25571	0.015892
6048.32703	0.015926
6046.39836	0.015958
6044.46968	0.015993
6042.54101	0.016038
6040.61233	0.016092
6038.68366	0.016138
6036.75498	0.016168
6034.82630	0.016195
6032.89763	0.016227
6030.96895	0.016265
6029.04028	0.016305
6027.11160	0.016328
6025.18293	0.016344
6023.25425	0.016379
6021.32557	0.016408
6019.39690	0.016426
6017.46822	0.016468
6015.53955	0.016515
6013.61087	0.016545
6011.68220	0.016581
6009.75352	0.016634
6007.82484	0.016692
6005.89617	0.016739
6003.96749	0.016762
6002.03882	0.016765
6000.11014	0.016783
5998.18147	0.016824
5996.25279	0.016872
5994.32411	0.016914
5992.39544	0.016958
5990.46676	0.017007
5988.53809	0.017057
5986.60941	0.017102
5984.68074	0.017138
5982.75206	0.017176
5980.82338	0.017221
5978.89471	0.017247
5976.96603	0.017253
5975.03736	0.017272
5973.10868	0.017310
5971.18001	0.017356
5969.25133	0.017402
5967.32265	0.017438
5965.39398	0.017464
5963.46530	0.017504
5961.53663	0.017553
5959.60795	0.017583
5957.67928	0.017601
5955.75060	0.017640
5953.82192	0.017701
5951.89325	0.017749
5949.96457	0.017774
5948.03590	0.017802
5946.10722	0.017852
5944.17855	0.017899
5942.24987	0.017927
5940.32119	0.017964
5938.39252	0.018028
5936.46384	0.018088
5934.53517	0.018115
5932.60649	0.018129
5930.67782	0.018150
5928.74914	0.018175
5926.82046	0.018215
5924.89179	0.018282
5922.96311	0.018346
5921.03444	0.018384
5919.10576	0.018416
5917.17709	0.018458
5915.24841	0.018502
5913.31973	0.018550
5911.39106	0.018606
5909.46238	0.018656
5907.53371	0.018688
5905.60503	0.018710
5903.67636	0.018741
5901.74768	0.018779
5899.81900	0.018806
5897.89033	0.018840
5895.96165	0.018899
5894.03298	0.018958
5892.10430	0.018988
5890.17563	0.019011
5888.24695	0.019040
5886.31827	0.019072
5884.38960	0.019119
5882.46092	0.019182
5880.53225	0.019248
5878.60357	0.019301
5876.67490	0.019322
5874.74622	0.019331
5872.81755	0.019361
5870.88887	0.019407
5868.96019	0.019461
5867.03152	0.019509
5865.10284	0.019532
5863.17417	0.019551
5861.24549	0.019596
5859.31682	0.019642
5857.38814	0.019673
5855.45946	0.019708
5853.53079	0.019751
5851.60211	0.019803
5849.67344	0.019854
5847.74476	0.019902
5845.81609	0.019956
5843.88741	0.020004
5841.95873	0.020037
5840.03006	0.020069
5838.10138	0.020099
5836.17271	0.020132
5834.24403	0.020179
5832.31536	0.020238
5830.38668	0.020288
5828.45800	0.020328
5826.52933	0.020378
5824.60065	0.020429
5822.67198	0.020467
5820.74330	0.020501
5818.81463	0.020531
5816.88595	0.020566
5814.95727	0.020612
5813.02860	0.020648
5811.09992	0.020678
5809.17125	0.020735
5807.24257	0.020805
5805.31390	0.020851
5803.38522	0.020879
5801.45654	0.020920
5799.52787	0.020983
5797.59919	0.021045
5795.67052	0.021091
5793.74184	0.021127
5791.81317	0.021159
5789.88449	0.021208
5787.95581	0.021272
5786.02714	0.021321
5784.09846	0.021360
5782.16979	0.021397
5780.24111	0.021430
5778.31244	0.021474
5776.38376	0.021531
5774.45508	0.021582
5772.52641	0.021629
5770.59773	0.021690
5768.66906	0.021753
5766.74038	0.021788
5764.81171	0.021796
5762.88303	0.021818
5760.95435	0.021881
5759.02568	0.021974
5757.09700	0.022037
5755.16833	0.022045
5753.23965	0.022052
5751.31098	0.022086
5749.38230	0.022126
5747.45362	0.022162
5745.52495	0.022202
5743.59627	0.022254
5741.66760	0.022315
5739.73892	0.022361
5737.81025	0.022382
5735.88157	0.022405
5733.95289	0.022455
5732.02422	0.022519
5730.09554	0.022582
5728.16687	0.022647
5726.23819	0.022711
5724.30952	0.022758
5722.38084	0.022785
5720.45216	0.022817
5718.52349	0.022872
5716.59481	0.022934
5714.66614	0.022978
5712.73746	0.023022
5710.80879	0.023083
5708.88011	0.023132
5706.95143	0.023162
5705.02276	0.023196
5703.09408	0.023241
5701.16541	0.023290
5699.23673	0.023341
5697.30806	0.023383
5695.37938	0.023423
5693.45070	0.023490
5691.52203	0.023566
5689.59335	0.023624
5687.66468	0.023673
5685.73600	0.023716
5683.80733	0.023764
5681.87865	0.023821
5679.94997	0.023862
5678.02130	0.023886
5676.09262	0.023926
5674.16395	0.023981
5672.23527	0.024036
5670.30660	0.024081
5668.37792	0.024122
5666.44924	0.024182
5664.52057	0.024254
5662.59189	0.024316
5660.66322	0.024374
5658.73454	0.024435
5656.80587	0.024485
5654.87719	0.024520
5652.94851	0.024568
5651.01984	0.024627
5649.09116	0.024665
5647.16249	0.024680
5645.23381	0.024704
5643.30514	0.024756
5641.37646	0.024818
5639.44778	0.024856
5637.51911	0.024890
5635.59043	0.024950
5633.66176	0.025014
5631.73308	0.025067
5629.80441	0.025122
5627.87573	0.025186
5625.94705	0.025243
5624.01838	0.025269
5622.08970	0.025291
5620.16103	0.025355
5618.23235	0.025441
5616.30368	0.025504
5614.37500	0.025546
5612.44632	0.025589
5610.51765	0.025637
5608.58897	0.025686
5606.66030	0.025733
5604.73162	0.025798
5602.80295	0.025894
5600.87427	0.025994
5598.94559	0.026053
5597.01692	0.026072
5595.08824	0.026083
5593.15957	0.026110
5591.23089	0.026160
5589.30222	0.026234
5587.37354	0.026308
5585.44486	0.026355
5583.51619	0.026388
5581.58751	0.026434
5579.65884	0.026483
5577.73016	0.026521
5575.80149	0.026570
5573.87281	0.026642
5571.94413	0.026716
5570.01546	0.026774
5568.08678	0.026824
5566.15811	0.026878
5564.22943	0.026937
5562.30076	0.026995
5560.37208	0.027033
5558.44340	0.027066
5556.51473	0.027118
5554.58605	0.027173
5552.65738	0.027210
5550.72870	0.027251
5548.80003	0.027307
5546.87135	0.027358
5544.94267	0.027408
5543.01400	0.027469
5541.08532	0.027536
5539.15665	0.027603
5537.22797	0.027662
5535.29930	0.027711
5533.37062	0.027752
5531.44194	0.027792
5529.51327	0.027845
5527.58459	0.027902
5525.65592	0.027944
5523.72724	0.027973
5521.79857	0.028022
5519.86989	0.028101
5517.94121	0.028171
5516.01254	0.028208
5514.08386	0.028238
5512.15519	0.028289
5510.22651	0.028354
5508.29784	0.028413
5506.36916	0.028461
5504.44048	0.028509
5502.51181	0.028568
5500.58313	0.028639
5498.65446	0.028709
5496.72578	0.028753
5494.79711	0.028782
5492.86843	0.028835
5490.93975	0.028913
5489.01108	0.028984
5487.08240	0.029030
5485.15373	0.029075
5483.22505	0.029151
5481.29638	0.029247
5479.36770	0.029321
5477.43902	0.029355
5475.51035	0.029393
5473.58167	0.029466
5471.65300	0.029540
5469.72432	0.029584
5467.79565	0.029617
5465.86697	0.029660
5463.93829	0.029700
5462.00962	0.029736
5460.08094	0.029792
5458.15227	0.029859
5456.22359	0.029936
5454.29492	0.030015
5452.36624	0.030069
5450.43756	0.030113
5448.50889	0.030172
5446.58021	0.030225
5444.65154	0.030259
5442.72286	0.030296
5440.79419	0.030372
5438.86551	0.030464
5436.93683	0.030522
5435.00816	0.030568
5433.07948	0.030635
5431.15081	0.030689
5429.22213	0.030719
5427.29346	0.030764
5425.36478	0.030836
5423.43610	0.030914
5421.50743	0.030988
5419.57875	0.031050
5417.65008	0.031091
5415.72140	0.031119
5413.79273	0.031175
5411.86405	0.031254
5409.93537	0.031328
5408.00670	0.031415
5406.07802	0.031500
5404.14935	0.031547
5402.22067	0.031585
5400.29200	0.031640
5398.36332	0.031694
5396.43464	0.031739
5394.50597	0.031798
5392.57729	0.031880
5390.64862	0.031958
5388.71994	0.032005
5386.79127	0.032048
5384.86259	0.032127
5382.93391	0.032219
5381.00524	0.032270
5379.07656	0.032291
5377.14789	0.032316
5375.21921	0.032358
5373.29054	0.032435
5371.36186	0.032533
5369.43318	0.032607
5367.50451	0.032644
5365.57583	0.032687
5363.64716	0.032760
5361.71848	0.032843
5359.78981	0.032904
5357.86113	0.032949
5355.93245	0.032997
5354.00378	0.033041
5352.07510	0.033086
5350.14643	0.033157
5348.21775	0.033233
5346.28908	0.033275
5344.36040	0.033325
5342.43172	0.033408
5340.50305	0.033460
5338.57437	0.033495
5336.64570	0.033578
5334.71702	0.033672
5332.78835	0.033723
5330.85967	0.033745
5328.93099	0.033776
5327.00232	0.033854
5325.07364	0.033967
5323.14497	0.034062
5321.21629	0.034128
5319.28762	0.034186
5317.35894	0.034243
5315.43026	0.034303
5313.50159	0.034383
5311.57291	0.034473
5309.64424	0.034542
5307.71556	0.034603
5305.78689	0.034682
5303.85821	0.034745
5301.92953	0.034774
5300.00086	0.034810
5298.07218	0.034873
5296.14351	0.034931
5294.21483	0.034975
5292.28616	0.035026
5290.35748	0.035090
5288.42880	0.035165
5286.50013	0.035235
5284.57145	0.035291
5282.64278	0.035357
5280.71410	0.035446
5278.78543	0.035542
5276.85675	0.035613
5274.92807	0.035670
5272.99940	0.035729
5271.07072	0.035782
5269.14205	0.035826
5267.21337	0.035863
5265.28470	0.035904
5263.35602	0.035965
5261.42734	0.036046
5259.49867	0.036140
5257.56999	0.036210
5255.64132	0.036246
5253.71264	0.036299
5251.78397	0.036381
5249.85529	0.036444
5247.92661	0.036487
5245.99794	0.036537
5244.06926	0.036603
5242.14059	0.036678
5240.21191	0.036756
5238.28324	0.036830
5236.35456	0.036901
5234.42588	0.036971
5232.49721	0.037031
5230.56853	0.037081
5228.63986	0.037124
5226.71118	0.037164
5224.78251	0.037237
5222.85383	0.037349
5220.92515	0.037450
5218.99648	0.037509
5217.06780	0.037546
5215.13913	0.037595
5213.21045	0.037670
5211.28178	0.037747
5209.35310	0.037804
5207.42442	0.037850
5205.49575	0.037910
5203.56707	0.037989
5201.63840	0.038064
5199.70972	0.038130
5197.78105	0.038227
5195.85237	0.038347
5193.92369	0.038421
5191.99502	0.038435
5190.06634	0.038452
5188.13767	0.038509
5186.20899	0.038586
5184.28032	0.038653
5182.35164	0.038719
5180.42296	0.038811
5178.49429	0.038902
5176.56561	0.038969
5174.63694	0.039037
5172.70826	0.039115
5170.77959	0.039181
5168.85091	0.039241
5166.92223	0.039310
5164.99356	0.039375
5163.06488	0.039442
5161.13621	0.039526
5159.20753	0.039594
5157.27886	0.039629
5155.35018	0.039680
5153.42150	0.039759
5151.49283	0.039830
5149.56415	0.039894
5147.63548	0.039961
5145.70680	0.040036
5143.77813	0.040121
5141.84945	0.040199
5139.92077	0.040262
5137.99210	0.040331
5136.06342	0.040416
5134.13475	0.040500
5132.20607	0.040573
5130.27740	0.040636
5128.34872	0.040689
5126.42004	0.040751
5124.49137	0.040827
5122.56269	0.040877
5120.63402	0.040907
5118.70534	0.040966
5116.77667	0.041053
5114.84799	0.041148
5112.91931	0.041244
5110.99064	0.041327
5109.06196	0.041390
5107.13329	0.041445
5105.20461	0.041511
5103.27594	0.041592
5101.34726	0.041673
5099.41858	0.041740
5097.48991	0.041789
5095.56123	0.041847
5093.63256	0.041925
5091.70388	0.042015
5089.77521	0.042113
5087.84653	0.042211
5085.91785	0.042290
5083.98918	0.042339
5082.06050	0.042378
5080.13183	0.042425
5078.20315	0.042475
5076.27448	0.042535
5074.34580	0.042621
5072.41712	0.042720
5070.48845	0.042816
5068.55977	0.042924
5066.63110	0.043033
5064.70242	0.043112
5062.77375	0.043165
5060.84507	0.043213
5058.91639	0.043283
5056.98772	0.043356
5055.05904	0.043403
5053.13037	0.043457
5051.20169	0.043520
5049.27302	0.043568
5047.34434	0.043621
5045.41566	0.043704
5043.48699	0.043803
5041.55831	0.043900
5039.62964	0.043988
5037.70096	0.044069
5035.77229	0.044150
5033.84361	0.044228
5031.91493	0.044281
5029.98626	0.044336
5028.05758	0.044430
5026.12891	0.044528
5024.20023	0.044606
5022.27156	0.044684
5020.34288	0.044766
5018.41420	0.044841
5016.48553	0.044905
5014.55685	0.044953
5012.62818	0.044998
5010.69950	0.045069
5008.77083	0.045159
5006.84215	0.045243
5004.91347	0.045322
5002.98480	0.045394
5001.05612	0.045463
4999.12745	0.045554
4997.19877	0.045644
4995.27010	0.045696
4993.34142	0.045740
4991.41274	0.045815
4989.48407	0.045889
4987.55539	0.045949
4985.62672	0.046021
4983.69804	0.046114
4981.76937	0.046210
4979.84069	0.046310
4977.91201	0.046414
4975.98334	0.046495
4974.05466	0.046545
4972.12599	0.046595
4970.19731	0.046653
4968.26864	0.046719
4966.33996	0.046812
4964.41128	0.046911
4962.48261	0.046983
4960.55393	0.047054
4958.62526	0.047155
4956.69658	0.047253
4954.76791	0.047308
4952.83923	0.047351
4950.91055	0.047431
4948.98188	0.047529
4947.05320	0.047609
4945.12453	0.047685
4943.19585	0.047765
4941.26718	0.047852
4939.33850	0.047943
4937.40982	0.048013
4935.48115	0.048089
4933.55247	0.048191
4931.62380	0.048268
4929.69512	0.048320
4927.76645	0.048393
4925.83777	0.048485
4923.90909	0.048566
4921.98042	0.048628
4920.05174	0.048696
4918.12307	0.048795
4916.19439	0.048907
4914.26572	0.048998
4912.33704	0.049069
4910.40836	0.049140
4908.47969	0.049223
4906.55101	0.049303
4904.62234	0.049377
4902.69366	0.049461
4900.76499	0.049562
4898.83631	0.049664
4896.90763	0.049746
4894.97896	0.049812
4893.05028	0.049879
4891.12161	0.049950
4889.19293	0.050025
4887.26426	0.050092
4885.33558	0.050161
4883.40690	0.050266
4881.47823	0.050385
4879.54955	0.050469
4877.62088	0.050537
4875.69220	0.050633
4873.76353	0.050747
4871.83485	0.050844
4869.90617	0.050901
4867.97750	0.050934
4866.04882	0.050989
4864.12015	0.051088
4862.19147	0.051204
4860.26280	0.051308
4858.33412	0.051398
4856.40544	0.051490
4854.47677	0.051575
4852.54809	0.051636
4850.61942	0.051692
4848.69074	0.051775
4846.76207	0.051883
4844.83339	0.051992
4842.90471	0.052079
4840.97604	0.052143
4839.04736	0.052208
4837.11869	0.052292
4835.19001	0.052382
4833.26134	0.052466
4831.33266	0.052557
4829.40398	0.052664
4827.47531	0.052760
4825.54663	0.052820
4823.61796	0.052882
4821.68928	0.052984
4819.76061	0.053106
4817.83193	0.053217
4815.90325	0.053307
4813.97458	0.053397
4812.04590	0.053486
4810.11723	0.053562
4808.18855	0.053643
4806.25988	0.053735
4804.33120	0.053824
4802.40252	0.053922
4800.47385	0.054035
4798.54517	0.054138
4796.61650	0.054229
4794.68782	0.054300
4792.75915	0.054350
4790.83047	0.054424
4788.90179	0.054535
4786.97312	0.054634
4785.04444	0.054708
4783.11577	0.054777
4781.18709	0.054853
4779.25842	0.054949
4777.32974	0.055062
4775.40106	0.055171
4773.47239	0.055274
4771.54371	0.055384
4769.61504	0.055480
4767.68636	0.055552
4765.75769	0.055637
4763.82901	0.055747
4761.90033	0.055842
4759.97166	0.055914
4758.04298	0.056000
4756.11431	0.056117
4754.18563	0.056227
4752.25696	0.056307
4750.32828	0.056383
4748.39960	0.056473
4746.47093	0.056576
4744.54225	0.056675
4742.61358	0.056757
4740.68490	0.056847
4738.75623	0.056957
4736.82755	0.057058
4734.89887	0.057153
4732.97020	0.057265
4731.04152	0.057375
4729.11285	0.057471
4727.18417	0.057574
4725.25550	0.057680
4723.32682	0.057781
4721.39814	0.057896
4719.46947	0.058016
4717.54079	0.058110
4715.61212	0.058186
4713.68344	0.058275
4711.75477	0.058384
4709.82609	0.058498
4707.89741	0.058594
4705.96874	0.058656
4704.04006	0.058718
4702.11139	0.058829
4700.18271	0.058961
4698.25404	0.059067
4696.32536	0.059163
4694.39668	0.059268
4692.46801	0.059365
4690.53933	0.059445
4688.61066	0.059530
4686.68198	0.059639
4684.75331	0.059762
4682.82463	0.059879
4680.89595	0.059987
4678.96728	0.060082
4677.03860	0.060175
4675.10993	0.060291
4673.18125	0.060412
4671.25258	0.060497
4669.32390	0.060578
4667.39522	0.060703
4665.46655	0.060847
4663.53787	0.060977
4661.60920	0.061079
4659.68052	0.061151
4657.75185	0.061216
4655.82317	0.061303
4653.89449	0.061408
4651.96582	0.061513
4650.03714	0.061607
4648.10847	0.061716
4646.17979	0.061855
4644.25112	0.061986
4642.32244	0.062101
4640.39376	0.062204
4638.46509	0.062279
4636.53641	0.062352
4634.60774	0.062470
4632.67906	0.062613
4630.75039	0.062723
4628.82171	0.062796
4626.89303	0.062873
4624.96436	0.062973
4623.03568	0.063090
4621.10701	0.063203
4619.17833	0.063303
4617.24966	0.063418
4615.32098	0.063566
4613.39230	0.063727
4611.46363	0.063876
4609.53495	0.063985
4607.60628	0.064050
4605.67760	0.064117
4603.74893	0.064219
4601.82025	0.064344
4599.89157	0.064455
4597.96290	0.064545
4596.03422	0.064656
4594.10555	0.064805
4592.17687	0.064944
4590.24820	0.065050
4588.31952	0.065154
4586.39084	0.065275
4584.46217	0.065403
4582.53349	0.065533
4580.60482	0.065668
4578.67614	0.065799
4576.74747	0.065908
4574.81879	0.066023
4572.89011	0.066170
4570.96144	0.066302
4569.03276	0.066396
4567.10409	0.066479
4565.17541	0.066564
4563.24674	0.066659
4561.31806	0.066775
4559.38938	0.066904
4557.46071	0.067042
4555.53203	0.067184
4553.60336	0.067312
4551.67468	0.067423
4549.74601	0.067527
4547.81733	0.067625
4545.88865	0.067722
4543.95998	0.067821
4542.03130	0.067931
4540.10263	0.068070
4538.17395	0.068214
4536.24528	0.068325
4534.31660	0.068424
4532.38792	0.068552
4530.45925	0.068694
4528.53057	0.068827
4526.60190	0.068948
4524.67322	0.069056
4522.74455	0.069167
4520.81587	0.069300
4518.88719	0.069450
4516.95852	0.069588
4515.02984	0.069703
4513.10117	0.069822
4511.17249	0.069963
4509.24382	0.070101
4507.31514	0.070229
4505.38646	0.070364
4503.45779	0.070510
4501.52911	0.070659
4499.60044	0.070798
4497.67176	0.070907
4495.74309	0.070995
4493.81441	0.071111
4491.88573	0.071275
4489.95706	0.071445
4488.02838	0.071570
4486.09971	0.071656
4484.17103	0.071755
4482.24236	0.071900
4480.31368	0.072070
4478.38500	0.072217
4476.45633	0.072330
4474.52765	0.072449
4472.59898	0.072601
4470.67030	0.072746
4468.74163	0.072849
4466.81295	0.072953
4464.88427	0.073091
4462.95560	0.073246
4461.02692	0.073395
4459.09825	0.073519
4457.16957	0.073619
4455.24090	0.073720
4453.31222	0.073849
4451.38354	0.074009
4449.45487	0.074174
4447.52619	0.074313
4445.59752	0.074427
4443.66884	0.074554
4441.74017	0.074707
4439.81149	0.074856
4437.88281	0.074981
4435.95414	0.075096
4434.02546	0.075228
4432.09679	0.075389
4430.16811	0.075548
4428.23944	0.075680
4426.31076	0.075820
4424.38208	0.075982
4422.45341	0.076126
4420.52473	0.076239
4418.59606	0.076350
4416.66738	0.076504
4414.73871	0.076692
4412.81003	0.076854
4410.88135	0.076981
4408.95268	0.077123
4407.02400	0.077270
4405.09533	0.077382
4403.16665	0.077474
4401.23798	0.077595
4399.30930	0.077757
4397.38062	0.077933
4395.45195	0.078106
4393.52327	0.078281
4391.59460	0.078443
4389.66592	0.078571
4387.73725	0.078678
4385.80857	0.078813
4383.87989	0.078985
4381.95122	0.079152
4380.02254	0.079293
4378.09387	0.079407
4376.16519	0.079522
4374.23652	0.079674
4372.30784	0.079855
4370.37916	0.080027
4368.45049	0.080179
4366.52181	0.080326
4364.59314	0.080488
4362.66446	0.080657
4360.73579	0.080795
4358.80711	0.080911
4356.87843	0.081050
4354.94976	0.081217
4353.02108	0.081385
4351.09241	0.081541
4349.16373	0.081667
4347.23506	0.081770
4345.30638	0.081903
4343.37770	0.082082
4341.44903	0.082268
4339.52035	0.082436
4337.59168	0.082600
4335.66300	0.082763
4333.73433	0.082917
4331.80565	0.083069
4329.87697	0.083227
4327.94830	0.083396
4326.01962	0.083566
4324.09095	0.083714
4322.16227	0.083833
4320.23360	0.083970
4318.30492	0.084148
4316.37624	0.084326
4314.44757	0.084489
4312.51889	0.084677
4310.59022	0.084876
4308.66154	0.085038
4306.73287	0.085172
4304.80419	0.085324
4302.87551	0.085507
4300.94684	0.085704
4299.01816	0.085896
4297.08949	0.086073
4295.16081	0.086226
4293.23214	0.086362
4291.30346	0.086522
4289.37478	0.086706
4287.44611	0.086867
4285.51743	0.087010
4283.58876	0.087179
4281.66008	0.087370
4279.73141	0.087544
4277.80273	0.087707
4275.87405	0.087873
4273.94538	0.088017
4272.01670	0.088146
4270.08803	0.088311
4268.15935	0.088509
4266.23068	0.088690
4264.30200	0.088842
4262.37332	0.089016
4260.44465	0.089229
4258.51597	0.089409
4256.58730	0.089540
4254.65862	0.089683
4252.72995	0.089859
4250.80127	0.090039
4248.87259	0.090215
4246.94392	0.090392
4245.01524	0.090567
4243.08657	0.090744
4241.15789	0.090902
4239.22922	0.091032
4237.30054	0.091173
4235.37186	0.091359
4233.44319	0.091577
4231.51451	0.091792
4229.58584	0.091992
4227.65716	0.092186
4225.72849	0.092375
4223.79981	0.092540
4221.87113	0.092678
4219.94246	0.092823
4218.01378	0.093000
4216.08511	0.093198
4214.15643	0.093399
4212.22776	0.093580
4210.29908	0.093744
4208.37040	0.093926
4206.44173	0.094131
4204.51305	0.094327
4202.58438	0.094514
4200.65570	0.094696
4198.72703	0.094850
4196.79835	0.094988
4194.86968	0.095160
4192.94100	0.095368
4191.01232	0.095568
4189.08365	0.095759
4187.15497	0.095960
4185.22630	0.096153
4183.29762	0.096338
4181.36895	0.096540
4179.44027	0.096745
4177.51159	0.096947
4175.58292	0.097151
4173.65424	0.097330
4171.72557	0.097493
4169.79689	0.097675
4167.86822	0.097868
4165.93954	0.098056
4164.01086	0.098248
4162.08219	0.098452
4160.15351	0.098647
4158.22484	0.098820
4156.29616	0.098990
4154.36749	0.099171
4152.43881	0.099363
4150.51013	0.099582
4148.58146	0.099818
4146.65278	0.100022
4144.72411	0.100181
4142.79543	0.100334
4140.86676	0.100520
4138.93808	0.100735
4137.00940	0.100946
4135.08073	0.101139
4133.15205	0.101344
4131.22338	0.101557
4129.29470	0.101756
4127.36603	0.101953
4125.43735	0.102155
4123.50867	0.102347
4121.58000	0.102526
4119.65132	0.102701
4117.72265	0.102882
4115.79397	0.103074
4113.86530	0.103287
4111.93662	0.103529
4110.00794	0.103760
4108.07927	0.103938
4106.15059	0.104097
4104.22192	0.104300
4102.29324	0.104538
4100.36457	0.104755
4098.43589	0.104954
4096.50721	0.105158
4094.57854	0.105353
4092.64986	0.105539
4090.72119	0.105721
4088.79251	0.105900
4086.86384	0.106087
4084.93516	0.106288
4083.00648	0.106515
4081.07781	0.106770
4079.14913	0.107028
4077.22046	0.107263
4075.29178	0.107461
4073.36311	0.107626
4071.43443	0.107809
4069.50575	0.108035
4067.57708	0.108262
4065.64840	0.108474
4063.71973	0.108693
4061.79105	0.108924
4059.86238	0.109159
4057.93370	0.109388
4056.00502	0.109620
4054.07635	0.109841
4052.14767	0.110026
4050.21900	0.110215
4048.29032	0.110432
4046.36165	0.110641
4044.43297	0.110834
4042.50429	0.111045
4040.57562	0.111290
4038.64694	0.111533
4036.71827	0.111746
4034.78959	0.111941
4032.86092	0.112134
4030.93224	0.112341
4029.00356	0.112565
4027.07489	0.112792
4025.14621	0.113024
4023.21754	0.113266
4021.28886	0.113492
4019.36019	0.113697
4017.43151	0.113919
4015.50283	0.114143
4013.57416	0.114344
4011.64548	0.114542
4009.71681	0.114749
4007.78813	0.114978
4005.85946	0.115234
4003.93078	0.115479
4002.00210	0.115691
4000.07343	0.115879
3998.14475	0.116071
3996.21608	0.116295
3994.28740	0.116550
3992.35873	0.116808
3990.43005	0.117045
3988.50137	0.117273
3986.57270	0.117504
3984.64402	0.117740
3982.71535	0.117976
3980.78667	0.118189
3978.85800	0.118381
3976.92932	0.118597
3975.00064	0.118839
3973.07197	0.119071
3971.14329	0.119283
3969.21462	0.119493
3967.28594	0.119715
3965.35727	0.119930
3963.42859	0.120128
3961.49991	0.120351
3959.57124	0.120604
3957.64256	0.120849
3955.71389	0.121095
3953.78521	0.121347
3951.85654	0.121566
3949.92786	0.121748
3947.99918	0.121943
3946.07051	0.122148
3944.14183	0.122345
3942.21316	0.122592
3940.28448	0.122886
3938.35581	0.123146
3936.42713	0.123343
3934.49845	0.123486
3932.56978	0.123656
3930.64110	0.123944
3928.71243	0.124261
3926.78375	0.124482
3924.85508	0.124671
3922.92640	0.124885
3920.99772	0.125053
3919.06905	0.125187
3917.14037	0.125442
3915.21170	0.125852
3913.28302	0.126236
3911.35435	0.126492
3909.42567	0.126654
3907.49699	0.126681
3905.56832	0.126598
3903.63964	0.126610
3901.71097	0.126841
3899.78229	0.127269
3897.85362	0.127808
3895.92494	0.128228
3893.99626	0.128379
3892.06759	0.128493
3890.13891	0.128761
3888.21024	0.128932
3886.28156	0.128996
3884.35289	0.129258
3882.42421	0.129577
3880.49553	0.129869
3878.56686	0.130285
3876.63818	0.130595
3874.70951	0.130699
3872.78083	0.130767
3870.85216	0.130887
3868.92348	0.131196
3866.99480	0.131585
3865.06613	0.131869
3863.13745	0.132187
3861.20878	0.132606
3859.28010	0.132921
3857.35143	0.132763
3855.42275	0.132185
3853.49407	0.132099
3851.56540	0.132939
3849.63672	0.133950
3847.70805	0.134530
3845.77937	0.134742
3843.85070	0.134805
3841.92202	0.134851
3839.99334	0.134918
3838.06467	0.135126
3836.13599	0.135537
3834.20732	0.135978
3832.27864	0.136351
3830.34997	0.136724
3828.42129	0.137055
3826.49261	0.137290
3824.56394	0.137378
3822.63526	0.137319
3820.70659	0.137475
3818.77791	0.137889
3816.84924	0.138234
3814.92056	0.138655
3812.99188	0.139206
3811.06321	0.139543
3809.13453	0.139570
3807.20586	0.139641
3805.27718	0.139923
3803.34851	0.140113
3801.41983	0.140289
3799.49115	0.140704
3797.56248	0.141148
3795.63380	0.141551
3793.70513	0.141975
3791.77645	0.142306
3789.84778	0.142540
3787.91910	0.142757
3785.99042	0.142988
3784.06175	0.143238
3782.13307	0.143427
3780.20440	0.143587
3778.27572	0.143892
3776.34705	0.144312
3774.41837	0.144639
3772.48969	0.144770
3770.56102	0.144867
3768.63234	0.145120
3766.70367	0.145457
3764.77499	0.145780
3762.84632	0.146024
3760.91764	0.146148
3758.98896	0.146348
3757.06029	0.146636
3755.13161	0.146690
3753.20294	0.146429
3751.27426	0.146275
3749.34559	0.146529
3747.41691	0.146706
3745.48823	0.146655
3743.55956	0.147184
3741.63088	0.148216
3739.70221	0.148719
3737.77353	0.148580
3735.84486	0.148530
3733.91618	0.148944
3731.98750	0.149648
3730.05883	0.150271
3728.13015	0.150573
3726.20148	0.150728
3724.27280	0.150997
3722.34413	0.151348
3720.41545	0.151731
3718.48677	0.152121
3716.55810	0.152390
3714.62942	0.152424
3712.70075	0.152368
3710.77207	0.152567
3708.84340	0.153078
3706.91472	0.153640
3704.98604	0.153991
3703.05737	0.154149
3701.12869	0.154419
3699.20002	0.154856
3697.27134	0.155234
3695.34267	0.155415
3693.41399	0.155384
3691.48531	0.155249
3689.55664	0.155331
3687.62796	0.155871
3685.69929	0.156616
3683.77061	0.157138
3681.84194	0.157349
3679.91326	0.157361
3677.98458	0.157186
3676.05591	0.157091
3674.12723	0.157426
3672.19856	0.157847
3670.26988	0.158127
3668.34121	0.158624
3666.41253	0.159279
3664.48385	0.159775
3662.55518	0.160127
3660.62650	0.160375
3658.69783	0.160419
3656.76915	0.160424
3654.84048	0.160580
3652.91180	0.160504
3650.98312	0.160054
3649.05445	0.159871
3647.12577	0.160401
3645.19710	0.161313
3643.26842	0.162074
3641.33975	0.162574
3639.41107	0.162936
3637.48239	0.163180
3635.55372	0.163317
3633.62504	0.163338
3631.69637	0.163107
3629.76769	0.162890
3627.83902	0.163288
3625.91034	0.164086
3623.98166	0.164573
3622.05299	0.164594
3620.12431	0.164507
3618.19564	0.164701
3616.26696	0.165047
3614.33829	0.165233
3612.40961	0.165307
3610.48093	0.165401
3608.55226	0.165663
3606.62358	0.166165
3604.69491	0.166637
3602.76623	0.166867
3600.83756	0.167016
3598.90888	0.167230
3596.98020	0.167438
3595.05153	0.167634
3593.12285	0.167860
3591.19418	0.167960
3589.26550	0.167888
3587.33683	0.168017
3585.40815	0.168522
3583.47947	0.169059
3581.55080	0.169382
3579.62212	0.169577
3577.69345	0.169758
3575.76477	0.169970
3573.83610	0.170217
3571.90742	0.170364
3569.97874	0.170259
3568.05007	0.170151
3566.12139	0.170428
3564.19272	0.170969
3562.26404	0.171407
3560.33537	0.171702
3558.40669	0.171960
3556.47801	0.172178
3554.54934	0.172339
3552.62066	0.172499
3550.69199	0.172680
3548.76331	0.172790
3546.83464	0.172872
3544.90596	0.173070
3542.97728	0.173368
3541.04861	0.173648
3539.11993	0.173830
3537.19126	0.173965
3535.26258	0.174151
3533.33391	0.174333
3531.40523	0.174424
3529.47655	0.174455
3527.54788	0.174521
3525.61920	0.174642
3523.69053	0.174777
3521.76185	0.174929
3519.83318	0.175097
3517.90450	0.175235
3515.97582	0.175322
3514.04715	0.175382
3512.11847	0.175436
3510.18980	0.175511
3508.26112	0.175613
3506.33245	0.175680
3504.40377	0.175690
3502.47509	0.175736
3500.54642	0.175870
3498.61774	0.176007
3496.68907	0.176078
3494.76039	0.176118
3492.83172	0.176172
3490.90304	0.176224
3488.97436	0.176266
3487.04569	0.176331
3485.11701	0.176414
3483.18834	0.176485
3481.25966	0.176608
3479.33099	0.176810
3477.40231	0.177011
3475.47363	0.177196
3473.54496	0.177414
3471.61628	0.177677
3469.68761	0.177982
3467.75893	0.178307
3465.83026	0.178614
3463.90158	0.178897
3461.97290	0.179190
3460.04423	0.179513
3458.11555	0.179839
3456.18688	0.180145
3454.25820	0.180436
3452.32953	0.180699
3450.40085	0.180903
3448.47217	0.181092
3446.54350	0.181354
3444.61482	0.181699
3442.68615	0.182082
3440.75747	0.182480
3438.82880	0.182904
3436.90012	0.183387
3434.97144	0.183930
3433.04277	0.184520
3431.11409	0.185157
3429.18542	0.185810
3427.25674	0.186455
3425.32807	0.187084
3423.39939	0.187672
3421.47071	0.188229
3419.54204	0.188768
3417.61336	0.189270
3415.68469	0.189744
3413.75601	0.190214
3411.82734	0.190674
3409.89866	0.191123
3407.96998	0.191549
3406.04131	0.191888
3404.11263	0.192169
3402.18396	0.192536
3400.25528	0.193016
3398.32661	0.193503
3396.39793	0.193963
3394.46925	0.194407
3392.54058	0.194811
3390.61190	0.195154
3388.68323	0.195504
3386.75455	0.195932
3384.82588	0.196386
3382.89720	0.196786
3380.96852	0.197128
3379.03985	0.197455
3377.11117	0.197808
3375.18250	0.198182
3373.25382	0.198555
3371.32515	0.198948
3369.39647	0.199343
3367.46779	0.199689
3365.53912	0.200012
3363.61044	0.200349
3361.68177	0.200697
3359.75309	0.201068
3357.82442	0.201439
3355.89574	0.201792
3353.96706	0.202162
3352.03839	0.202555
3350.10971	0.202928
3348.18104	0.203276
3346.25236	0.203620
3344.32369	0.203953
3342.39501	0.204298
3340.46633	0.204678
3338.53766	0.205035
3336.60898	0.205346
3334.68031	0.205681
3332.75163	0.206067
3330.82296	0.206458
3328.89428	0.206837
3326.96560	0.207222
3325.03693	0.207596
3323.10825	0.207964
3321.17958	0.208346
3319.25090	0.208727
3317.32223	0.209115
3315.39355	0.209508
3313.46487	0.209877
3311.53620	0.210250
3309.60752	0.210664
3307.67885	0.211102
3305.75017	0.211534
3303.82150	0.211945
3301.89282	0.212329
3299.96414	0.212685
3298.03547	0.213041
3296.10679	0.213415
3294.17812	0.213793
3292.24944	0.214184
3290.32077	0.214597
3288.39209	0.215019
3286.46341	0.215454
3284.53474	0.215901
3282.60606	0.216332
3280.67739	0.216739
3278.74871	0.217114
3276.82004	0.217464
3274.89136	0.217849
3272.96268	0.218287
3271.03401	0.218715
3269.10533	0.219118
3267.17666	0.219527
3265.24798	0.219950
3263.31931	0.220376
3261.39063	0.220770
3259.46195	0.221143
3257.53328	0.221532
3255.60460	0.221920
3253.67593	0.222315
3251.74725	0.222751
3249.81858	0.223191
3247.88990	0.223574
3245.96122	0.223923
3244.03255	0.224325
3242.10387	0.224789
3240.17520	0.225244
3238.24652	0.225656
3236.31785	0.226037
3234.38917	0.226409
3232.46049	0.226793
3230.53182	0.227193
3228.60314	0.227610
3226.67447	0.228045
3224.74579	0.228461
3222.81712	0.228832
3220.88844	0.229200
3218.95976	0.229606
3217.03109	0.230023
3215.10241	0.230414
3213.17374	0.230780
3211.24506	0.231153
3209.31639	0.231559
3207.38771	0.231979
3205.45903	0.232378
3203.53036	0.232774
3201.60168	0.233196
3199.67301	0.233641
3197.74433	0.234122
3195.81566	0.234635
3193.88698	0.235133
3191.95830	0.235584
3190.02963	0.235988
3188.10095	0.236370
3186.17228	0.236755
3184.24360	0.237183
3182.31493	0.237665
3180.38625	0.238107
3178.45757	0.238484
3176.52890	0.238884
3174.60022	0.239326
3172.67155	0.239768
3170.74287	0.240215
3168.81420	0.240676
3166.88552	0.241139
3164.95684	0.241577
3163.02817	0.241973
3161.09949	0.242349
3159.17082	0.242736
3157.24214	0.243150
3155.31347	0.243599
3153.38479	0.244061
3151.45611	0.244503
3149.52744	0.244930
3147.59876	0.245371
3145.67009	0.245812
3143.74141	0.246213
3141.81274	0.246596
3139.88406	0.246999
3137.95538	0.247411
3136.02671	0.247808
3134.09803	0.248190
3132.16936	0.248603
3130.24068	0.249063
3128.31201	0.249517
3126.38333	0.249939
3124.45465	0.250358
3122.52598	0.250777
3120.59730	0.251181
3118.66863	0.251574
3116.73995	0.251958
3114.81128	0.252351
3112.88260	0.252794
3110.95392	0.253280
3109.02525	0.253752
3107.09657	0.254197
3105.16790	0.254634
3103.23922	0.255055
3101.31055	0.255469
3099.38187	0.255906
3097.45319	0.256341
3095.52452	0.256765
3093.59584	0.257201
3091.66717	0.257622
3089.73849	0.258009
3087.80982	0.258409
3085.88114	0.258846
3083.95246	0.259293
3082.02379	0.259728
3080.09511	0.260166
3078.16644	0.260592
3076.23776	0.260986
3074.30909	0.261379
3072.38041	0.261788
3070.45173	0.262196
3068.52306	0.262590
3066.59438	0.262996
3064.66571	0.263451
3062.73703	0.263930
3060.80836	0.264392
3058.87968	0.264836
3056.95100	0.265260
3055.02233	0.265644
3053.09365	0.266003
3051.16498	0.266388
3049.23630	0.266826
3047.30763	0.267302
3045.37895	0.267778
3043.45027	0.268220
3041.52160	0.268631
3039.59292	0.269050
3037.66425	0.269480
3035.73557	0.269874
3033.80690	0.270245
3031.87822	0.270657
3029.94954	0.271114
3028.02087	0.271577
3026.09219	0.272023
3024.16352	0.272450
3022.23484	0.272864
3020.30617	0.273263
3018.37749	0.273622
3016.44881	0.273973
3014.52014	0.274391
3012.59146	0.274890
3010.66279	0.275400
3008.73411	0.275845
3006.80544	0.276217
3004.87676	0.276595
3002.94808	0.277040
3001.01941	0.277499
2999.09073	0.277919
2997.16206	0.278333
2995.23338	0.278746
2993.30471	0.279133
2991.37603	0.279508
2989.44735	0.279890
2987.51868	0.280260
2985.59000	0.280577
2983.66133	0.280820
2981.73265	0.281016
2979.80398	0.281201
2977.87530	0.281359
2975.94662	0.281439
2974.01795	0.281443
2972.08927	0.281407
2970.16060	0.281335
2968.23192	0.281262
2966.30325	0.281267
2964.37457	0.281398
2962.44589	0.281653
2960.51722	0.282000
2958.58854	0.282434
2956.65987	0.282969
2954.73119	0.283568
2952.80252	0.284156
2950.87384	0.284716
2948.94516	0.285228
2947.01649	0.285618
2945.08781	0.285840
2943.15914	0.285947
2941.23046	0.286007
2939.30179	0.286000
2937.37311	0.285916
2935.44443	0.285804
2933.51576	0.285679
2931.58708	0.285520
2929.65841	0.285330
2927.72973	0.285149
2925.80106	0.285020
2923.87238	0.284948
2921.94370	0.284963
2920.01503	0.285138
2918.08635	0.285583
2916.15768	0.286492
2914.22900	0.287942
2912.30033	0.289654
2910.37165	0.291211
2908.44297	0.292429
2906.51430	0.293376
2904.58562	0.294182
2902.65695	0.294928
2900.72827	0.295639
2898.79960	0.296319
2896.87092	0.296953
2894.94224	0.297542
2893.01357	0.298135
2891.08489	0.298763
2889.15622	0.299387
2887.22754	0.299950
2885.29887	0.300467
2883.37019	0.300990
2881.44151	0.301491
2879.51284	0.301935
2877.58416	0.302342
2875.65549	0.302716
2873.72681	0.303067
2871.79814	0.303448
2869.86946	0.303890
2867.94078	0.304328
2866.01211	0.304676
2864.08343	0.304930
2862.15476	0.305088
2860.22608	0.305135
2858.29741	0.305094
2856.36873	0.304986
2854.44005	0.304798
2852.51138	0.304641
2850.58270	0.304889
2848.65403	0.305874
2846.72535	0.307433
2844.79668	0.309071
2842.86800	0.310473
2840.93932	0.311614
2839.01065	0.312551
2837.08197	0.313349
2835.15330	0.314057
2833.22462	0.314708
2831.29595	0.315317
2829.36727	0.315860
2827.43859	0.316343
2825.50992	0.316842
2823.58124	0.317403
2821.65257	0.317963
2819.72389	0.318462
2817.79522	0.318947
2815.86654	0.319455
2813.93786	0.319941
2812.00919	0.320418
2810.08051	0.320944
2808.15184	0.321484
2806.22316	0.321976
2804.29449	0.322425
2802.36581	0.322874
2800.43713	0.323352
2798.50846	0.323862
2796.57978	0.324385
2794.65111	0.324905
2792.72243	0.325401
2790.79376	0.325871
2788.86508	0.326332
2786.93640	0.326800
2785.00773	0.327285
2783.07905	0.327800
2781.15038	0.328310
2779.22170	0.328788
2777.29303	0.329286
2775.36435	0.329810
2773.43567	0.330295
2771.50700	0.330736
2769.57832	0.331173
2767.64965	0.331613
2765.72097	0.332050
2763.79230	0.332530
2761.86362	0.333077
2759.93494	0.333627
2758.00627	0.334099
2756.07759	0.334517
2754.14892	0.334961
2752.22024	0.335449
2750.29157	0.335931
2748.36289	0.336387
2746.43421	0.336837
2744.50554	0.337299
2742.57686	0.337783
2740.64819	0.338264
2738.71951	0.338695
2736.79084	0.339093
2734.86216	0.339505
2732.93348	0.339953
2731.00481	0.340435
2729.07613	0.340916
2727.14746	0.341380
2725.21878	0.341835
2723.29011	0.342265
2721.36143	0.342674
2719.43275	0.343118
2717.50408	0.343593
2715.57540	0.344063
2713.64673	0.344543
2711.71805	0.345013
2709.78938	0.345425
2707.86070	0.345818
2705.93202	0.346253
2704.00335	0.346720
2702.07467	0.347193
2700.14600	0.347655
2698.21732	0.348100
2696.28865	0.348538
2694.35997	0.348966
2692.43129	0.349390
2690.50262	0.349853
2688.57394	0.350359
2686.64527	0.350861
2684.71659	0.351302
2682.78792	0.351690
2680.85924	0.352102
2678.93056	0.352575
2677.00189	0.353075
2675.07321	0.353542
2673.14454	0.353946
2671.21586	0.354339
2669.28719	0.354761
2667.35851	0.355218
2665.42983	0.355704
2663.50116	0.356171
2661.57248	0.356597
2659.64381	0.357036
2657.71513	0.357516
2655.78646	0.358001
2653.85778	0.358478
2651.92910	0.358973
2650.00043	0.359468
2648.07175	0.359939
2646.14308	0.360409
2644.21440	0.360897
2642.28573	0.361397
2640.35705	0.361889
2638.42837	0.362366
2636.49970	0.362853
2634.57102	0.363354
2632.64235	0.363867
2630.71367	0.364399
2628.78500	0.364899
2626.85632	0.365346
2624.92764	0.365802
2622.99897	0.366320
2621.07029	0.366891
2619.14162	0.367457
2617.21294	0.367979
2615.28427	0.368483
2613.35559	0.369001
2611.42691	0.369538
2609.49824	0.370078
2607.56956	0.370580
2605.64089	0.371027
2603.71221	0.371494
2601.78354	0.372035
2599.85486	0.372584
2597.92618	0.373086
2595.99751	0.373569
2594.06883	0.374061
2592.14016	0.374557
2590.21148	0.375049
2588.28281	0.375552
2586.35413	0.376076
2584.42545	0.376607
2582.49678	0.377111
2580.56810	0.377564
2578.63943	0.378005
2576.71075	0.378464
2574.78208	0.378942
2572.85340	0.379425
2570.92472	0.379889
2568.99605	0.380362
2567.06737	0.380861
2565.13870	0.381333
2563.21002	0.381767
2561.28135	0.382199
2559.35267	0.382648
2557.42399	0.383116
2555.49532	0.383575
2553.56664	0.384002
2551.63797	0.384429
2549.70929	0.384919
2547.78062	0.385451
2545.85194	0.385954
2543.92326	0.386423
2541.99459	0.386889
2540.06591	0.387357
2538.13724	0.387811
2536.20856	0.388221
2534.27989	0.388608
2532.35121	0.389036
2530.42253	0.389509
2528.49386	0.389986
2526.56518	0.390474
2524.63651	0.390978
2522.70783	0.391485
2520.77916	0.391992
2518.85048	0.392495
2516.92181	0.392976
2514.99313	0.393458
2513.06445	0.393970
2511.13578	0.394476
2509.20710	0.394990
2507.27843	0.395553
2505.34975	0.396120
2503.42108	0.396651
2501.49240	0.397195
2499.56372	0.397788
2497.63505	0.398363
2495.70637	0.398879
2493.77770	0.399378
2491.84902	0.399876
2489.92035	0.400397
2487.99167	0.400965
2486.06299	0.401547
2484.13432	0.402111
2482.20564	0.402662
2480.27697	0.403221
2478.34829	0.403794
2476.41962	0.404355
2474.49094	0.404891
2472.56226	0.405430
2470.63359	0.405995
2468.70491	0.406558
2466.77624	0.407068
2464.84756	0.407506
2462.91889	0.407937
2460.99021	0.408435
2459.06153	0.408955
2457.13286	0.409423
2455.20418	0.409880
2453.27551	0.410402
2451.34683	0.410968
2449.41816	0.411512
2447.48948	0.412030
2445.56080	0.412541
2443.63213	0.413034
2441.70345	0.413530
2439.77478	0.414052
2437.84610	0.414580
2435.91743	0.415080
2433.98875	0.415545
2432.06007	0.415998
2430.13140	0.416456
2428.20272	0.416944
2426.27405	0.417499
2424.34537	0.418098
2422.41670	0.418661
2420.48802	0.419152
2418.55934	0.419619
2416.63067	0.420085
2414.70199	0.420561
2412.77332	0.421073
2410.84464	0.421597
2408.91597	0.422107
2406.98729	0.422641
2405.05861	0.423209
2403.12994	0.423725
2401.20126	0.424146
2399.27259	0.424567
2397.34391	0.425046
2395.41524	0.425566
2393.48656	0.426108
2391.55788	0.426633
2389.62921	0.427108
2387.70053	0.427550
2385.77186	0.427971
2383.84318	0.428339
2381.91451	0.428623
2379.98583	0.428780
2378.05715	0.428808
2376.12848	0.428792
2374.19980	0.428788
2372.27113	0.428817
2370.34245	0.428928
2368.41378	0.429136
2366.48510	0.429414
2364.55642	0.429759
2362.62775	0.430167
2360.69907	0.430643
2358.77040	0.431224
2356.84172	0.431909
2354.91305	0.432679
2352.98437	0.433607
2351.05569	0.434663
2349.12702	0.435450
2347.19834	0.435714
2345.26967	0.435782
2343.34099	0.436026
2341.41232	0.436435
2339.48364	0.436886
2337.55496	0.437353
2335.62629	0.437873
2333.69761	0.438422
2331.76894	0.438951
2329.84026	0.439482
2327.91159	0.440046
2325.98291	0.440638
2324.05423	0.441285
2322.12556	0.442002
2320.19688	0.442748
2318.26821	0.443489
2316.33953	0.444207
2314.41086	0.444904
2312.48218	0.445606
2310.55350	0.446300
2308.62483	0.446970
2306.69615	0.447647
2304.76748	0.448320
2302.83880	0.448936
2300.91013	0.449506
2298.98145	0.450071
2297.05277	0.450664
2295.12410	0.451260
2293.19542	0.451812
2291.26675	0.452344
2289.33807	0.452902
2287.40940	0.453482
2285.48072	0.454049
2283.55204	0.454548
2281.62337	0.454984
2279.69469	0.455429
2277.76602	0.455914
2275.83734	0.456399
2273.90867	0.456859
2271.97999	0.457331
2270.05131	0.457855
2268.12264	0.458372
2266.19396	0.458810
2264.26529	0.459232
2262.33661	0.459750
2260.40794	0.460368
2258.47926	0.460970
2256.55058	0.461457
2254.62191	0.461886
2252.69323	0.462372
2250.76456	0.462887
2248.83588	0.463353
2246.90721	0.463810
2244.97853	0.464280
2243.04985	0.464748
2241.12118	0.465246
2239.19250	0.465753
2237.26383	0.466231
2235.33515	0.466704
2233.40648	0.467186
2231.47780	0.467672
2229.54912	0.468138
2227.62045	0.468579
2225.69177	0.469035
2223.76310	0.469532
2221.83442	0.470057
2219.90575	0.470583
2217.97707	0.471083
2216.04839	0.471561
2214.11972	0.472040
2212.19104	0.472505
2210.26237	0.472937
2208.33369	0.473376
2206.40502	0.473843
2204.47634	0.474328
2202.54766	0.474816
2200.61899	0.475300
2198.69031	0.475777
2196.76164	0.476230
2194.83296	0.476653
2192.90429	0.477069
2190.97561	0.477506
2189.04693	0.477968
2187.11826	0.478439
2185.18958	0.478943
2183.26091	0.479478
2181.33223	0.479972
2179.40356	0.480422
2177.47488	0.480889
2175.54620	0.481378
2173.61753	0.481882
2171.68885	0.482404
2169.76018	0.482921
2167.83150	0.483437
2165.90283	0.483949
2163.97415	0.484410
2162.04547	0.484852
2160.11680	0.485360
2158.18812	0.485929
2156.25945	0.486473
2154.33077	0.486958
2152.40210	0.487414
2150.47342	0.487869
2148.54474	0.488331
2146.61607	0.488819
2144.68739	0.489329
2142.75872	0.489834
2140.83004	0.490337
2138.90137	0.490853
2136.97269	0.491366
2135.04401	0.491840
2133.11534	0.492254
2131.18666	0.492664
2129.25799	0.493131
2127.32931	0.493620
2125.40064	0.494085
2123.47196	0.494554
2121.54328	0.495074
2119.61461	0.495616
2117.68593	0.496121
2115.75726	0.496595
2113.82858	0.497064
2111.89991	0.497531
2109.97123	0.498001
2108.04255	0.498470
2106.11388	0.498962
2104.18520	0.499489
2102.25653	0.500004
2100.32785	0.500499
2098.39918	0.501000
2096.47050	0.501468
2094.54182	0.501892
2092.61315	0.502322
2090.68447	0.502795
2088.75580	0.503327
2086.82712	0.503880
2084.89845	0.504357
2082.96977	0.504740
2081.04109	0.505139
2079.11242	0.505606
2077.18374	0.506071
2075.25507	0.506520
2073.32639	0.506987
2071.39772	0.507472
2069.46904	0.507987
2067.54036	0.508485
2065.61169	0.508908
2063.68301	0.509320
2061.75434	0.509793
2059.82566	0.510309
2057.89699	0.510842
2055.96831	0.511366
2054.03963	0.511843
2052.11096	0.512256
2050.18228	0.512657
2048.25361	0.513112
2046.32493	0.513603
2044.39626	0.514066
2042.46758	0.514504
2040.53890	0.514983
2038.61023	0.515495
2036.68155	0.515981
2034.75288	0.516434
2032.82420	0.516873
2030.89553	0.517326
2028.96685	0.517812
2027.03817	0.518296
2025.10950	0.518753
2023.18082	0.519212
2021.25215	0.519669
2019.32347	0.520087
2017.39480	0.520560
2015.46612	0.521180
2013.53744	0.521808
2011.60877	0.522293
2009.68009	0.522705
2007.75142	0.523152
2005.82274	0.523640
2003.89407	0.524120
2001.96539	0.524571
2000.03671	0.525022
1998.10804	0.525485
1996.17936	0.525881
1994.25069	0.526149
1992.32201	0.526471
1990.39334	0.527048
1988.46466	0.527695
1986.53598	0.528197
1984.60731	0.528615
1982.67863	0.529031
1980.74996	0.529440
1978.82128	0.529842
1976.89261	0.530229
1974.96393	0.530624
1973.03525	0.531093
1971.10658	0.531521
1969.17790	0.531753
1967.24923	0.532033
1965.32055	0.532590
1963.39188	0.533190
1961.46320	0.533665
1959.53452	0.534132
1957.60585	0.534593
1955.67717	0.535031
1953.74850	0.535524
1951.81982	0.536012
1949.89115	0.536418
1947.96247	0.536808
1946.03379	0.537152
1944.10512	0.537390
1942.17644	0.537802
1940.24777	0.538547
1938.31909	0.539293
1936.39042	0.539833
1934.46174	0.540265
1932.53306	0.540669
1930.60439	0.541035
1928.67571	0.541398
1926.74704	0.541765
1924.81836	0.542028
1922.88969	0.542295
1920.96101	0.542621
1919.03233	0.542910
1917.10366	0.543491
1915.17498	0.544412
1913.24631	0.545089
1911.31763	0.545411
1909.38896	0.545775
1907.46028	0.546306
1905.53160	0.546840
1903.60293	0.547308
1901.67425	0.547748
1899.74558	0.548159
1897.81690	0.548500
1895.88823	0.548809
1893.95955	0.549188
1892.03087	0.549531
1890.10220	0.549834
1888.17352	0.550382
1886.24485	0.551080
1884.31617	0.551677
1882.38750	0.552213
1880.45882	0.552715
1878.53014	0.553171
1876.60147	0.553598
1874.67279	0.553991
1872.74412	0.554169
1870.81544	0.553999
1868.88677	0.554011
1866.95809	0.554737
1865.02941	0.555745
1863.10074	0.556466
1861.17206	0.556982
1859.24339	0.557508
1857.31471	0.558058
1855.38604	0.558591
1853.45736	0.559135
1851.52868	0.559676
1849.60001	0.560024
1847.67133	0.559940
1845.74266	0.559604
1843.81398	0.559946
1841.88531	0.561219
1839.95663	0.562367
1838.02795	0.562910
1836.09928	0.563334
1834.17060	0.563705
1832.24193	0.563646
1830.31325	0.563504
1828.38458	0.563886
1826.45590	0.564518
1824.52722	0.565251
1822.59855	0.566220
1820.66987	0.567000
1818.74120	0.567397
1816.81252	0.567728
1814.88385	0.568062
1812.95517	0.568205
1811.02649	0.568334
1809.09782	0.568795
1807.16914	0.569411
1805.24047	0.569728
1803.31179	0.569669
1801.38312	0.569728
1799.45444	0.570288
1797.52576	0.570965
1795.59709	0.571144
1793.66841	0.570893
1791.73974	0.571090
1789.81106	0.572066
1787.88239	0.572878
1785.95371	0.573046
1784.02503	0.573176
1782.09636	0.573532
1780.16768	0.574029
1778.23901	0.574606
1776.31033	0.574804
1774.38166	0.574358
1772.45298	0.573962
1770.52430	0.574253
1768.59563	0.575040
1766.66695	0.576006
1764.73828	0.576570
1762.80960	0.576488
1760.88093	0.576553
1758.95225	0.576831
1757.02357	0.576968
1755.09490	0.576984
1753.16622	0.576393
1751.23755	0.575480
1749.30887	0.575352
1747.38020	0.575921
1745.45152	0.576390
1743.52284	0.576508
1741.59417	0.576433
1739.66549	0.576560
1737.73682	0.576583
1735.80814	0.575798
1733.87947	0.575448
1731.95079	0.576717
1730.02211	0.578433
1728.09344	0.579709
1726.16476	0.580551
1724.23609	0.580972
1722.30741	0.581008
1720.37874	0.580349
1718.45006	0.579474
1716.52138	0.579651
1714.59271	0.580970
1712.66403	0.582375
1710.73536	0.583107
1708.80668	0.583017
1706.87801	0.582551
1704.94933	0.582226
1703.02065	0.581400
1701.09198	0.580162
1699.16330	0.580039
1697.23463	0.580820
1695.30595	0.581834
1693.37728	0.583162
1691.44860	0.583830
1689.51992	0.583598
1687.59125	0.582840
1685.66257	0.581598
1683.73390	0.581252
1681.80522	0.582478
1679.87655	0.583752
1677.94787	0.583844
1676.01919	0.583282
1674.09052	0.583145
1672.16184	0.583171
1670.23317	0.583081
1668.30449	0.583795
1666.37582	0.584905
1664.44714	0.585129
1662.51846	0.585042
1660.58979	0.585506
1658.66111	0.585852
1656.73244	0.584804
1654.80376	0.582519
1652.87509	0.581662
1650.94641	0.583081
1649.01773	0.584008
1647.08906	0.583959
1645.16038	0.584827
1643.23171	0.586233
1641.30303	0.586853
1639.37436	0.586431
1637.44568	0.585387
1635.51700	0.585065
1633.58833	0.586206
1631.65965	0.587372
1629.73098	0.587399
1627.80230	0.586865
1625.87363	0.586081
1623.94495	0.584909
1622.01627	0.583958
1620.08760	0.583682
1618.15892	0.584186
1616.23025	0.585950
1614.30157	0.588499
1612.37290	0.590391
1610.44422	0.591345
1608.51554	0.592120
1606.58687	0.593022
1604.65819	0.593801
1602.72952	0.594412
1600.80084	0.595025
1598.87217	0.595593
1596.94349	0.596042
1595.01481	0.596473
1593.08614	0.596952
1591.15746	0.597411
1589.22879	0.597854
1587.30011	0.598350
1585.37144	0.598880
1583.44276	0.599404
1581.51408	0.599813
1579.58541	0.599746
1577.65673	0.599255
1575.72806	0.599415
1573.79938	0.600416
1571.87071	0.600892
1569.94203	0.600843
1568.01335	0.601372
1566.08468	0.602205
1564.15600	0.602511
1562.22733	0.601540
1560.29865	0.599598
1558.36998	0.599107
1556.44130	0.600901
1554.51262	0.602957
1552.58395	0.604124
1550.65527	0.604736
1548.72660	0.605094
1546.79792	0.604912
1544.86925	0.603985
1542.94057	0.602862
1541.01189	0.602430
1539.08322	0.603525
1537.15454	0.605339
1535.22587	0.606074
1533.29719	0.606192
1531.36852	0.606881
1529.43984	0.607448
1527.51116	0.607400
1525.58249	0.607150
1523.65381	0.606410
1521.72514	0.605659
1519.79646	0.606067
1517.86779	0.607135
1515.93911	0.608123
1514.01043	0.608948
1512.08176	0.609122
1510.15308	0.608330
1508.22441	0.607311
1506.29573	0.607793
1504.36706	0.609984
1502.43838	0.611646
1500.50970	0.611641
1498.58103	0.611123
1496.65235	0.611373
1494.72368	0.612208
1492.79500	0.612297
1490.86633	0.611533
1488.93765	0.611338
1487.00897	0.612208
1485.08030	0.613241
1483.15162	0.613676
1481.22295	0.613641
1479.29427	0.613297
1477.36560	0.612432
1475.43692	0.611226
1473.50824	0.610323
1471.57957	0.610388
1469.65089	0.611106
1467.72222	0.611245
1465.79354	0.610863
1463.86487	0.611050
1461.93619	0.611366
1460.00751	0.610372
1458.07884	0.608818
1456.15016	0.609097
1454.22149	0.611135
1452.29281	0.612850
1450.36414	0.613513
1448.43546	0.613750
1446.50678	0.614220
1444.57811	0.614898
1442.64943	0.615416
1440.72076	0.615381
1438.79208	0.614411
1436.86341	0.613637
1434.93473	0.614395
1433.00605	0.615500
1431.07738	0.615727
1429.14870	0.615811
1427.22003	0.616044
1425.29135	0.615960
1423.36268	0.615564
1421.43400	0.614616
1419.50532	0.613579
1417.57665	0.613848
1415.64797	0.615008
1413.71930	0.615622
1411.79062	0.615630
1409.86195	0.615489
1407.93327	0.615209
1406.00459	0.614901
1404.07592	0.614911
1402.14724	0.614927
1400.21857	0.614521
1398.28989	0.614045
1396.36122	0.613773
1394.43254	0.613947
1392.50386	0.614588
1390.57519	0.614673
1388.64651	0.613709
1386.71784	0.612723
1384.78916	0.612502
1382.86049	0.612800
1380.93181	0.613168
1379.00313	0.613305
1377.07446	0.613080
1375.14578	0.612760
1373.21711	0.612795
1371.28843	0.613076
1369.35976	0.613212
1367.43108	0.613217
1365.50240	0.612943
1363.57373	0.612438
1361.64505	0.612388
1359.71638	0.612868
1357.78770	0.613301
1355.85903	0.613513
1353.93035	0.613688
1352.00167	0.613914
1350.07300	0.614189
1348.14432	0.614525
1346.21565	0.614886
1344.28697	0.615147
1342.35830	0.615065
1340.42962	0.614684
1338.50094	0.614534
1336.57227	0.614849
1334.64359	0.615251
1332.71492	0.615422
1330.78624	0.615404
1328.85757	0.615266
1326.92889	0.615048
1325.00021	0.614859
1323.07154	0.614692
1321.14286	0.614444
1319.21419	0.614137
1317.28551	0.613860
1315.35684	0.613584
1313.42816	0.613246
1311.49948	0.612894
1309.57081	0.612501
1307.64213	0.611964
1305.71346	0.611321
1303.78478	0.610694
1301.85611	0.610110
1299.92743	0.609529
1297.99875	0.608956
1296.07008	0.608356
1294.14140	0.607661
1292.21273	0.606914
1290.28405	0.606151
1288.35538	0.605328
1286.42670	0.604447
1284.49802	0.603524
1282.56935	0.602499
1280.64067	0.601336
1278.71200	0.600031
1276.78332	0.598516
1274.85465	0.596798
1272.92597	0.594902
1270.99729	0.592629
1269.06862	0.589741
1267.13994	0.586440
1265.21127	0.583397
1263.28259	0.581179
1261.35392	0.579942
1259.42524	0.579579
1257.49656	0.579669
1255.56789	0.579643
1253.63921	0.579148
1251.71054	0.578122
1249.78186	0.576714
1247.85319	0.575152
1245.92451	0.573555
1243.99583	0.571879
1242.06716	0.570096
1240.13848	0.568250
1238.20981	0.566363
1236.28113	0.564439
1234.35246	0.562465
1232.42378	0.560464
1230.49510	0.558523
1228.56643	0.556677
1226.63775	0.554898
1224.70908	0.553201
1222.78040	0.551592
1220.85173	0.550000
1218.92305	0.548341
1216.99437	0.546578
1215.06570	0.544738
1213.13702	0.542921
1211.20835	0.541252
1209.27967	0.539736
1207.35100	0.538203
1205.42232	0.536588
1203.49364	0.535005
1201.56497	0.533468
1199.63629	0.531903
1197.70762	0.530285
1195.77894	0.528617
1193.85027	0.526894
1191.92159	0.525104
1189.99291	0.523225
1188.06424	0.521236
1186.13556	0.519199
1184.20689	0.517123
1182.27821	0.514879
1180.34954	0.512480
1178.42086	0.510072
1176.49218	0.507698
1174.56351	0.505337
1172.63483	0.502950
1170.70616	0.500473
1168.77748	0.497874
1166.84881	0.495233
1164.92013	0.492679
1162.99145	0.490236
1161.06278	0.487863
1159.13410	0.485566
1157.20543	0.483386
1155.27675	0.481308
1153.34808	0.479296
1151.41940	0.477367
1149.49072	0.475500
1147.56205	0.473645
1145.63337	0.471782
1143.70470	0.469879
1141.77602	0.467962
1139.84735	0.466114
1137.91867	0.464320
1135.98999	0.462443
1134.06132	0.460428
1132.13264	0.458366
1130.20397	0.456267
1128.27529	0.454096
1126.34662	0.451889
1124.41794	0.449648
1122.48926	0.447328
1120.56059	0.444922
1118.63191	0.442472
1116.70324	0.440039
1114.77456	0.437644
1112.84589	0.435230
1110.91721	0.432746
1108.98853	0.430260
1107.05986	0.427892
1105.13118	0.425636
1103.20251	0.423394
1101.27383	0.421158
1099.34516	0.418960
1097.41648	0.416824
1095.48780	0.414851
1093.55913	0.413097
1091.63045	0.411417
1089.70178	0.409659
1087.77310	0.407940
1085.84443	0.406357
1083.91575	0.404729
1081.98707	0.402969
1080.05840	0.401314
1078.12972	0.399941
1076.20105	0.398764
1074.27237	0.397713
1072.34370	0.396895
1070.41502	0.396381
1068.48634	0.396090
1066.55767	0.395952
1064.62899	0.395955
1062.70032	0.396035
1060.77164	0.396195
1058.84297	0.396553
1056.91429	0.397130
1054.98561	0.397797
1053.05694	0.398493
1051.12826	0.399245
1049.19959	0.400071
1047.27091	0.401041
1045.34224	0.402187
1043.41356	0.403387
1041.48488	0.404562
1039.55621	0.405749
1037.62753	0.406943
1035.69886	0.408121
1033.77018	0.409378
1031.84151	0.410765
1029.91283	0.412127
1027.98415	0.413336
1026.05548	0.414530
1024.12680	0.415942
1022.19813	0.417610
1020.26945	0.419381
1018.34078	0.421114
1016.41210	0.422882
1014.48342	0.424854
1012.55475	0.427029
1010.62607	0.429343
1008.69740	0.431740
1006.76872	0.434123
1004.84005	0.436428
1002.91137	0.438577
1000.98269	0.440461
999.05402	0.442053
997.12534	0.443446
995.19667	0.444773
993.26799	0.446153
991.33932	0.447562
989.41064	0.448840
987.48196	0.449994
985.55329	0.451141
983.62461	0.452268
981.69594	0.453245
979.76726	0.453969
977.83859	0.454431
975.90991	0.454685
973.98123	0.454866
972.05256	0.455039
970.12388	0.455083
968.19521	0.454954
966.26653	0.454754
964.33786	0.454483
962.40918	0.454078
960.48050	0.453580
958.55183	0.453027
956.62315	0.452406
954.69448	0.451683
952.76580	0.450793
950.83713	0.449741
948.90845	0.448638
946.97977	0.447588
945.05110	0.446566
943.12242	0.445449
941.19375	0.444221
939.26507	0.442960
937.33640	0.441677
935.40772	0.440300
933.47904	0.438769
931.55037	0.437136
929.62169	0.435534
927.69302	0.434026
925.76434	0.432536
923.83567	0.431029
921.90699	0.429571
919.97831	0.428158
918.04964	0.426686
916.12096	0.425043
914.19229	0.423291
912.26361	0.421642
910.33494	0.420119
908.40626	0.418569
906.47758	0.416927
904.54891	0.415226
902.62023	0.413494
900.69156	0.411754
898.76288	0.410041
896.83421	0.408382
894.90553	0.406762
892.97685	0.405141
891.04818	0.403544
889.11950	0.401947
887.19083	0.400217
885.26215	0.398458
883.33348	0.396891
881.40480	0.395469
879.47612	0.394111
877.54745	0.392809
875.61877	0.391460
873.69010	0.390054
871.76142	0.388703
869.83275	0.387414
867.90407	0.386090
865.97539	0.384705
864.04672	0.383293
862.11804	0.381841
860.18937	0.380367
858.26069	0.378947
856.33202	0.377550
854.40334	0.376095
852.47466	0.374607
850.54599	0.373152
848.61731	0.371776
846.68864	0.370469
844.75996	0.369147
842.83129	0.367803
840.90261	0.366535
838.97394	0.365348
837.04526	0.364161
835.11658	0.362925
833.18791	0.361634
831.25923	0.360262
829.33056	0.358762
827.40188	0.357140
825.47321	0.355456
823.54453	0.353826
821.61585	0.352299
819.68718	0.350871
817.75850	0.349572
815.82983	0.348358
813.90115	0.347120
811.97248	0.345779
810.04380	0.344373
808.11512	0.342981
806.18645	0.341603
804.25777	0.340353
802.32910	0.339365
800.40042	0.338545
798.47175	0.337792
796.54307	0.337185
794.61439	0.336792
792.68572	0.336516
790.75704	0.336261
788.82837	0.336020
786.89969	0.335837
784.97102	0.335660
783.04234	0.335315
781.11366	0.334800
779.18499	0.334256
777.25631	0.333691
775.32764	0.333088
773.39896	0.332543
771.47029	0.332082
769.54161	0.331573
767.61293	0.330945
765.68426	0.330166
763.75558	0.329172
761.82691	0.328047
759.89823	0.326922
757.96956	0.325855
756.04088	0.324819
754.11220	0.323666
752.18353	0.322399
750.25485	0.321223
748.32618	0.320085
746.39750	0.318755
744.46883	0.317369
742.54015	0.316154
740.61147	0.315013
738.68280	0.313942
736.75412	0.313079
734.82545	0.312256
732.89677	0.311192
730.96810	0.309977
729.03942	0.308882
727.11074	0.307874
725.18207	0.306779
723.25339	0.305598
721.32472	0.304454
719.39604	0.303456
717.46737	0.302510
715.53869	0.301461
713.61001	0.300336
711.68134	0.299197
709.75266	0.298019
707.82399	0.296813
705.89531	0.295680
703.96664	0.294644
702.03796	0.293620
700.10928	0.292554
698.18061	0.291510
696.25193	0.290527
694.32326	0.289446
692.39458	0.288266
690.46591	0.287168
688.53723	0.286091
686.60855	0.284867
684.67988	0.283452
682.75120	0.281914
680.82253	0.280354
678.89385	0.278799
676.96518	0.277216
675.03650	0.275523
673.10782	0.273591
671.17915	0.271136
669.25047	0.268297
667.32180	0.266023
665.39312	0.264506
663.46445	0.262870
661.53577	0.260725
659.60709	0.258295
657.67842	0.255907
655.74974	0.253720
653.82107	0.251586
651.89239	0.249422
649.96372	0.247235
648.03504	0.244909
646.10636	0.242428
644.17769	0.239937
642.24901	0.237397
640.32034	0.234646
638.39166	0.231774
636.46299	0.228947
634.53431	0.226128
632.60563	0.223210
630.67696	0.220233
628.74828	0.217290
626.81961	0.214376
624.89093	0.211445
622.96226	0.208536
621.03358	0.205756
619.10490	0.203098
617.17623	0.200393
615.24755	0.197446
613.31888	0.194281
611.39020	0.191151
609.46153	0.188147
607.53285	0.185232
605.60417	0.182507
603.67550	0.180053
601.74682	0.177704
599.81815	0.175317
597.88947	0.173080
595.96080	0.171115
594.03212	0.169221
592.10344	0.167289
590.17477	0.165470
588.24609	0.163812
586.31742	0.162183
584.38874	0.160480
582.46007	0.158590
580.53139	0.156544
578.60271	0.154544
576.67404	0.152686
574.74536	0.150952
572.81669	0.149284
570.88801	0.147702
568.95934	0.146250
567.03066	0.144857
565.10198	0.143487
563.17331	0.142133
561.24463	0.140821
559.31596	0.139594
557.38728	0.138347
555.45861	0.137003
553.52993	0.135701
551.60125	0.134530
549.67258	0.133419
547.74390	0.132346
545.81523	0.131327
543.88655	0.130351
541.95788	0.129447
540.02920	0.128593
538.10052	0.127609
536.17185	0.126355
534.24317	0.125020
532.31450	0.123967
530.38582	0.123175
528.45715	0.122253
526.52847	0.121008
524.59979	0.119549
522.67112	0.117994
520.74244	0.116469
518.81377	0.115147
516.88509	0.113946
514.95642	0.112620
513.02774	0.111256
511.09906	0.110004
509.17039	0.108756
507.24171	0.107437
505.31304	0.106009
503.38436	0.104408
501.45569	0.102662
499.52701	0.100825
497.59833	0.098901
495.66966	0.096907
493.74098	0.094919
491.81231	0.092978
489.88363	0.091026
487.95496	0.088991
486.02628	0.086974
484.09760	0.085179
482.16893	0.083567
480.24025	0.081845
478.31158	0.079824
476.38290	0.077654
474.45423	0.075599
472.52555	0.073761
470.59687	0.072132
468.66820	0.070737
466.73952	0.069642
464.81085	0.068849
462.88217	0.068267
460.95350	0.067782
459.02482	0.067401
457.09614	0.067208
455.16747	0.067071
453.23879	0.066908
451.31012	0.066846
449.38144	0.066832
447.45277	0.066721
445.52409	0.066432
443.59541	0.065808
441.66674	0.064882
439.73806	0.063920
437.80939	0.062864
435.88071	0.061555
433.95204	0.060099
432.02336	0.058505
430.09468	0.056711
428.16601	0.054781
426.23733	0.052797
424.30866	0.050777
422.37998	0.048762
420.45131	0.046769
418.52263	0.044743
416.59395	0.042843
414.66528	0.041244
412.73660	0.039643
410.80793	0.037729
408.87925	0.035669
406.95058	0.033690
405.02190	0.031770
403.09322	0.029900
401.16455	0.028099
399.23587	0.026357
397.30720	0.024759
395.37852	0.023345
393.44985	0.022004
391.52117	0.020570
389.59249	0.019038
387.66382	0.017685
385.73514	0.016557
383.80647	0.015407
381.87779	0.014234
379.94912	0.013101
378.02044	0.011931
376.09176	0.010850
374.16309	0.009980
372.23441	0.009148
370.30574	0.008309
368.37706	0.007531
