7496.76250	0.00120
7494.83382	0.00122
7492.90514	0.00122
7490.97647	0.00122
7489.04779	0.00122
7487.11912	0.00123
7485.19044	0.00124
7483.26177	0.00124
7481.33309	0.00124
7479.40441	0.00125
7477.47574	0.00126
7475.54706	0.00126
7473.61839	0.00126
7471.68971	0.00126
7469.76104	0.00126
7467.83236	0.00127
7465.90368	0.00128
7463.97501	0.00129
7462.04633	0.00130
7460.11766	0.00130
7458.18898	0.00130
7456.26031	0.00129
7454.33163	0.00130
7452.40295	0.00131
7450.47428	0.00131
7448.54560	0.00131
7446.61693	0.00131
7444.68825	0.00131
7442.75958	0.00131
7440.83090	0.00131
7438.90222	0.00132
7436.97355	0.00132
7435.04487	0.00132
7433.11620	0.00132
7431.18752	0.00132
7429.25885	0.00133
7427.33017	0.00133
7425.40149	0.00133
7423.47282	0.00134
7421.54414	0.00134
7419.61547	0.00134
7417.68679	0.00134
7415.75812	0.00135
7413.82944	0.00137
7411.90076	0.00138
7409.97209	0.00137
7408.04341	0.00135
7406.11474	0.00135
7404.18606	0.00135
7402.25739	0.00137
7400.32871	0.00139
7398.40003	0.00140
7396.47136	0.00140
7394.54268	0.00140
7392.61401	0.00141
7390.68533	0.00141
7388.75666	0.00141
7386.82798	0.00140
7384.89930	0.00140
7382.97063	0.00140
7381.04195	0.00140
7379.11328	0.00140
7377.18460	0.00142
7375.25593	0.00145
7373.32725	0.00146
7371.39857	0.00146
7369.46990	0.00144
7367.54122	0.00144
7365.61255	0.00145
7363.68387	0.00147
7361.75520	0.00147
7359.82652	0.00145
7357.89784	0.00145
7355.96917	0.00147
7354.04049	0.00149
7352.11182	0.00150
7350.18314	0.00150
7348.25447	0.00149
7346.32579	0.00148
7344.39711	0.00148
7342.46844	0.00149
7340.53976	0.00150
7338.61109	0.00150
7336.68241	0.00149
7334.75374	0.00149
7332.82506	0.00150
7330.89638	0.00153
7328.96771	0.00155
7327.03903	0.00157
7325.11036	0.00158
7323.18168	0.00158
7321.25301	0.00157
7319.32433	0.00155
7317.39565	0.00155
7315.46698	0.00156
7313.53830	0.00156
7311.60963	0.00157
7309.68095	0.00158
7307.75228	0.00159
7305.82360	0.00160
7303.89492	0.00161
7301.96625	0.00161
7300.03757	0.00160
7298.10890	0.00160
7296.18022	0.00160
7294.25155	0.00159
7292.32287	0.00159
7290.39419	0.00160
7288.46552	0.00161
7286.53684	0.00162
7284.60817	0.00163
7282.67949	0.00162
7280.75082	0.00162
7278.82214	0.00163
7276.89346	0.00165
7274.96479	0.00166
7273.03611	0.00166
7271.10744	0.00166
7269.17876	0.00165
7267.25009	0.00164
7265.32141	0.00164
7263.39273	0.00166
7261.46406	0.00168
7259.53538	0.00167
7257.60671	0.00166
7255.67803	0.00166
7253.74936	0.00168
7251.82068	0.00168
7249.89200	0.00168
7247.96333	0.00168
7246.03465	0.00168
7244.10598	0.00168
7242.17730	0.00168
7240.24863	0.00170
7238.31995	0.00171
7236.39127	0.00172
7234.46260	0.00172
7232.53392	0.00173
7230.60525	0.00172
7228.67657	0.00172
7226.74790	0.00172
7224.81922	0.00172
7222.89054	0.00174
7220.96187	0.00173
7219.03319	0.00172
7217.10452	0.00173
7215.17584	0.00174
7213.24717	0.00176
7211.31849	0.00177
7209.38981	0.00177
7207.46114	0.00179
7205.53246	0.00181
7203.60379	0.00182
7201.67511	0.00181
7199.74644	0.00181
7197.81776	0.00182
7195.88908	0.00182
7193.96041	0.00182
7192.03173	0.00182
7190.10306	0.00185
7188.17438	0.00187
7186.24571	0.00187
7184.31703	0.00186
7182.38835	0.00186
7180.45968	0.00185
7178.53100	0.00185
7176.60233	0.00185
7174.67365	0.00184
7172.74498	0.00184
7170.81630	0.00186
7168.88762	0.00188
7166.95895	0.00188
7165.03027	0.00189
7163.10160	0.00188
7161.17292	0.00188
7159.24425	0.00190
7157.31557	0.00192
7155.38689	0.00192
7153.45822	0.00191
7151.52954	0.00190
7149.60087	0.00190
7147.67219	0.00191
7145.74352	0.00192
7143.81484	0.00192
7141.88616	0.00191
7139.95749	0.00191
7138.02881	0.00191
7136.10014	0.00192
7134.17146	0.00194
7132.24279	0.00196
7130.31411	0.00197
7128.38543	0.00197
7126.45676	0.00197
7124.52808	0.00198
7122.59941	0.00198
7120.67073	0.00198
7118.74206	0.00198
7116.81338	0.00197
7114.88470	0.00198
7112.95603	0.00199
7111.02735	0.00200
7109.09868	0.00200
7107.17000	0.00201
7105.24133	0.00202
7103.31265	0.00202
7101.38397	0.00202
7099.45530	0.00202
7097.52662	0.00203
7095.59795	0.00203
7093.66927	0.00204
7091.74060	0.00205
7089.81192	0.00206
7087.88324	0.00206
7085.95457	0.00206
7084.02589	0.00206
7082.09722	0.00206
7080.16854	0.00207
7078.23987	0.00208
7076.31119	0.00209
7074.38251	0.00209
7072.45384	0.00209
7070.52516	0.00211
7068.59649	0.00213
7066.66781	0.00214
7064.73914	0.00214
7062.81046	0.00215
7060.88178	0.00215
7058.95311	0.00214
7057.02443	0.00213
7055.09576	0.00212
7053.16708	0.00213
7051.23841	0.00214
7049.30973	0.00215
7047.38105	0.00215
7045.45238	0.00217
7043.52370	0.00219
7041.59503	0.00219
7039.66635	0.00219
7037.73768	0.00220
7035.80900	0.00220
7033.88032	0.00221
7031.95165	0.00223
7030.02297	0.00224
7028.09430	0.00224
7026.16562	0.00224
7024.23695	0.00225
7022.30827	0.00226
7020.37959	0.00226
7018.45092	0.00225
7016.52224	0.00225
7014.59357	0.00225
7012.66489	0.00225
7010.73622	0.00226
7008.80754	0.00227
7006.87886	0.00227
7004.95019	0.00227
7003.02151	0.00227
7001.09284	0.00228
6999.16416	0.00228
6997.23549	0.00227
6995.30681	0.00226
6993.37813	0.00227
6991.44946	0.00229
6989.52078	0.00230
6987.59211	0.00231
6985.66343	0.00232
6983.73476	0.00233
6981.80608	0.00234
6979.87740	0.00235
6977.94873	0.00235
6976.02005	0.00234
6974.09138	0.00234
6972.16270	0.00235
6970.23403	0.00237
6968.30535	0.00238
6966.37667	0.00238
6964.44800	0.00238
6962.51932	0.00238
6960.59065	0.00239
6958.66197	0.00240
6956.73330	0.00241
6954.80462	0.00241
6952.87594	0.00240
6950.94727	0.00240
6949.01859	0.00242
6947.08992	0.00244
6945.16124	0.00244
6943.23257	0.00244
6941.30389	0.00244
6939.37521	0.00245
6937.44654	0.00247
6935.51786	0.00248
6933.58919	0.00249
6931.66051	0.00250
6929.73184	0.00249
6927.80316	0.00248
6925.87448	0.00248
6923.94581	0.00248
6922.01713	0.00249
6920.08846	0.00250
6918.15978	0.00252
6916.23111	0.00252
6914.30243	0.00252
6912.37375	0.00252
6910.44508	0.00253
6908.51640	0.00255
6906.58773	0.00257
6904.65905	0.00258
6902.73038	0.00258
6900.80170	0.00258
6898.87302	0.00258
6896.94435	0.00261
6895.01567	0.00262
6893.08700	0.00261
6891.15832	0.00259
6889.22965	0.00260
6887.30097	0.00261
6885.37229	0.00262
6883.44362	0.00263
6881.51494	0.00264
6879.58627	0.00265
6877.65759	0.00266
6875.72892	0.00267
6873.80024	0.00267
6871.87156	0.00267
6869.94289	0.00266
6868.01421	0.00265
6866.08554	0.00266
6864.15686	0.00267
6862.22819	0.00268
6860.29951	0.00268
6858.37083	0.00270
6856.44216	0.00271
6854.51348	0.00270
6852.58481	0.00271
6850.65613	0.00272
6848.72746	0.00273
6846.79878	0.00273
6844.87010	0.00273
6842.94143	0.00274
6841.01275	0.00275
6839.08408	0.00276
6837.15540	0.00276
6835.22673	0.00275
6833.29805	0.00275
6831.36937	0.00277
6829.44070	0.00279
6827.51202	0.00280
6825.58335	0.00280
6823.65467	0.00281
6821.72600	0.00280
6819.79732	0.00278
6817.86864	0.00279
6815.93997	0.00280
6814.01129	0.00282
6812.08262	0.00284
6810.15394	0.00286
6808.22527	0.00287
6806.29659	0.00288
6804.36791	0.00288
6802.43924	0.00288
6800.51056	0.00287
6798.58189	0.00288
6796.65321	0.00290
6794.72454	0.00290
6792.79586	0.00290
6790.86718	0.00291
6788.93851	0.00293
6787.00983	0.00294
6785.08116	0.00294
6783.15248	0.00293
6781.22381	0.00292
6779.29513	0.00292
6777.36645	0.00294
6775.43778	0.00295
6773.50910	0.00295
6771.58043	0.00295
6769.65175	0.00297
6767.72308	0.00298
6765.79440	0.00300
6763.86572	0.00301
6761.93705	0.00302
6760.00837	0.00303
6758.07970	0.00303
6756.15102	0.00303
6754.22235	0.00303
6752.29367	0.00304
6750.36499	0.00305
6748.43632	0.00304
6746.50764	0.00304
6744.57897	0.00305
6742.65029	0.00306
6740.72162	0.00307
6738.79294	0.00308
6736.86426	0.00311
6734.93559	0.00313
6733.00691	0.00313
6731.07824	0.00313
6729.14956	0.00313
6727.22089	0.00313
6725.29221	0.00314
6723.36353	0.00315
6721.43486	0.00316
6719.50618	0.00317
6717.57751	0.00319
6715.64883	0.00321
6713.72016	0.00321
6711.79148	0.00319
6709.86280	0.00318
6707.93413	0.00318
6706.00545	0.00321
6704.07678	0.00323
6702.14810	0.00324
6700.21943	0.00324
6698.29075	0.00324
6696.36207	0.00325
6694.43340	0.00327
6692.50472	0.00328
6690.57605	0.00327
6688.64737	0.00328
6686.71870	0.00329
6684.79002	0.00329
6682.86134	0.00329
6680.93267	0.00329
6679.00399	0.00329
6677.07532	0.00330
6675.14664	0.00332
6673.21797	0.00333
6671.28929	0.00333
6669.36061	0.00334
6667.43194	0.00335
6665.50326	0.00336
6663.57459	0.00337
6661.64591	0.00337
6659.71724	0.00337
6657.78856	0.00337
6655.85988	0.00338
6653.93121	0.00340
6652.00253	0.00342
6650.07386	0.00343
6648.14518	0.00343
6646.21651	0.00343
6644.28783	0.00343
6642.35915	0.00343
6640.43048	0.00345
6638.50180	0.00345
6636.57313	0.00346
6634.64445	0.00348
6632.71578	0.00350
6630.78710	0.00350
6628.85842	0.00351
6626.92975	0.00351
6625.00107	0.00352
6623.07240	0.00353
6621.14372	0.00354
6619.21505	0.00355
6617.28637	0.00357
6615.35769	0.00358
6613.42902	0.00359
6611.50034	0.00359
6609.57167	0.00359
6607.64299	0.00360
6605.71432	0.00359
6603.78564	0.00359
6601.85696	0.00359
6599.92829	0.00360
6597.99961	0.00362
6596.07094	0.00364
6594.14226	0.00365
6592.21359	0.00365
6590.28491	0.00365
6588.35623	0.00366
6586.42756	0.00368
6584.49888	0.00370
6582.57021	0.00370
6580.64153	0.00371
6578.71286	0.00372
6576.78418	0.00373
6574.85550	0.00374
6572.92683	0.00375
6570.99815	0.00375
6569.06948	0.00375
6567.14080	0.00375
6565.21213	0.00375
6563.28345	0.00376
6561.35477	0.00379
6559.42610	0.00381
6557.49742	0.00381
6555.56875	0.00381
6553.64007	0.00380
6551.71140	0.00381
6549.78272	0.00383
6547.85404	0.00384
6545.92537	0.00386
6543.99669	0.00387
6542.06802	0.00388
6540.13934	0.00390
6538.21067	0.00392
6536.28199	0.00392
6534.35331	0.00391
6532.42464	0.00392
6530.49596	0.00393
6528.56729	0.00394
6526.63861	0.00396
6524.70994	0.00397
6522.78126	0.00398
6520.85258	0.00400
6518.92391	0.00401
6516.99523	0.00401
6515.06656	0.00400
6513.13788	0.00401
6511.20921	0.00402
6509.28053	0.00404
6507.35185	0.00404
6505.42318	0.00405
6503.49450	0.00405
6501.56583	0.00405
6499.63715	0.00406
6497.70848	0.00407
6495.77980	0.00409
6493.85112	0.00409
6491.92245	0.00410
6489.99377	0.00410
6488.06510	0.00411
6486.13642	0.00412
6484.20775	0.00412
6482.27907	0.00412
6480.35039	0.00412
6478.42172	0.00412
6476.49304	0.00414
6474.56437	0.00416
6472.63569	0.00418
6470.70702	0.00420
6468.77834	0.00422
6466.84966	0.00424
6464.92099	0.00425
6462.99231	0.00425
6461.06364	0.00424
6459.13496	0.00424
6457.20629	0.00426
6455.27761	0.00427
6453.34893	0.00430
6451.42026	0.00432
6449.49158	0.00434
6447.56291	0.00433
6445.63423	0.00430
6443.70556	0.00429
6441.77688	0.00431
6439.84820	0.00434
6437.91953	0.00437
6435.99085	0.00440
6434.06218	0.00440
6432.13350	0.00440
6430.20483	0.00439
6428.27615	0.00440
6426.34747	0.00442
6424.41880	0.00445
6422.49012	0.00447
6420.56145	0.00449
6418.63277	0.00449
6416.70410	0.00449
6414.77542	0.00450
6412.84674	0.00453
6410.91807	0.00454
6408.98939	0.00454
6407.06072	0.00453
6405.13204	0.00451
6403.20337	0.00451
6401.27469	0.00454
6399.34601	0.00456
6397.41734	0.00456
6395.48866	0.00456
6393.55999	0.00457
6391.63131	0.00458
6389.70264	0.00460
6387.77396	0.00462
6385.84528	0.00463
6383.91661	0.00466
6381.98793	0.00469
6380.05926	0.00471
6378.13058	0.00469
6376.20191	0.00469
6374.27323	0.00471
6372.34455	0.00472
6370.41588	0.00472
6368.48720	0.00472
6366.55853	0.00473
6364.62985	0.00474
6362.70118	0.00476
6360.77250	0.00478
6358.84382	0.00479
6356.91515	0.00481
6354.98647	0.00482
6353.05780	0.00483
6351.12912	0.00485
6349.20045	0.00487
6347.27177	0.00489
6345.34309	0.00490
6343.41442	0.00490
6341.48574	0.00490
6339.55707	0.00489
6337.62839	0.00487
6335.69972	0.00488
6333.77104	0.00490
6331.84236	0.00494
6329.91369	0.00496
6327.98501	0.00496
6326.05634	0.00497
6324.12766	0.00497
6322.19899	0.00497
6320.27031	0.00498
6318.34163	0.00500
6316.41296	0.00502
6314.48428	0.00503
6312.55561	0.00505
6310.62693	0.00507
6308.69826	0.00509
6306.76958	0.00510
6304.84090	0.00512
6302.91223	0.00514
6300.98355	0.00515
6299.05488	0.00515
6297.12620	0.00515
6295.19753	0.00516
6293.26885	0.00518
6291.34017	0.00520
6289.41150	0.00521
6287.48282	0.00521
6285.55415	0.00521
6283.62547	0.00522
6281.69680	0.00524
6279.76812	0.00525
6277.83944	0.00526
6275.91077	0.00528
6273.98209	0.00529
6272.05342	0.00530
6270.12474	0.00530
6268.19607	0.00531
6266.26739	0.00533
6264.33871	0.00537
6262.41004	0.00539
6260.48136	0.00540
6258.55269	0.00540
6256.62401	0.00541
6254.69534	0.00542
6252.76666	0.00542
6250.83798	0.00543
6248.90931	0.00544
6246.98063	0.00544
6245.05196	0.00545
6243.12328	0.00546
6241.19461	0.00547
6239.26593	0.00549
6237.33725	0.00552
6235.40858	0.00553
6233.47990	0.00553
6231.55123	0.00553
6229.62255	0.00554
6227.69388	0.00556
6225.76520	0.00558
6223.83652	0.00560
6221.90785	0.00562
6219.97917	0.00565
6218.05050	0.00567
6216.12182	0.00568
6214.19315	0.00568
6212.26447	0.00569
6210.33579	0.00571
6208.40712	0.00573
6206.47844	0.00574
6204.54977	0.00573
6202.62109	0.00573
6200.69242	0.00574
6198.76374	0.00577
6196.83506	0.00578
6194.90639	0.00576
6192.97771	0.00576
6191.04904	0.00578
6189.12036	0.00581
6187.19169	0.00583
6185.26301	0.00586
6183.33433	0.00587
6181.40566	0.00588
6179.47698	0.00589
6177.54831	0.00590
6175.61963	0.00592
6173.69096	0.00596
6171.76228	0.00600
6169.83360	0.00602
6167.90493	0.00601
6165.97625	0.00600
6164.04758	0.00601
6162.11890	0.00602
6160.19023	0.00603
6158.26155	0.00604
6156.33287	0.00605
6154.40420	0.00605
6152.47552	0.00606
6150.54685	0.00609
6148.61817	0.00612
6146.68950	0.00613
6144.76082	0.00613
6142.83214	0.00613
6140.90347	0.00615
6138.97479	0.00616
6137.04612	0.00618
6135.11744	0.00621
6133.18877	0.00624
6131.26009	0.00626
6129.33141	0.00625
6127.40274	0.00625
6125.47406	0.00626
6123.54539	0.00627
6121.61671	0.00629
6119.68804	0.00630
6117.75936	0.00633
6115.83068	0.00637
6113.90201	0.00640
6111.97333	0.00640
6110.04466	0.00639
6108.11598	0.00640
6106.18731	0.00641
6104.25863	0.00643
6102.32995	0.00646
6100.40128	0.00649
6098.47260	0.00651
6096.54393	0.00651
6094.61525	0.00651
6092.68658	0.00652
6090.75790	0.00653
6088.82922	0.00652
6086.90055	0.00652
6084.97187	0.00652
6083.04320	0.00655
6081.11452	0.00658
6079.18585	0.00661
6077.25717	0.00664
6075.32849	0.00667
6073.39982	0.00668
6071.47114	0.00668
6069.54247	0.00669
6067.61379	0.00670
6065.68512	0.00672
6063.75644	0.00675
6061.82776	0.00678
6059.89909	0.00680
6057.97041	0.00680
6056.04174	0.00682
6054.11306	0.00682
6052.18439	0.00683
6050.25571	0.00685
6048.32703	0.00687
6046.39836	0.00688
6044.46968	0.00689
6042.54101	0.00691
6040.61233	0.00692
6038.68366	0.00693
6036.75498	0.00695
6034.82630	0.00698
6032.89763	0.00701
6030.96895	0.00702
6029.04028	0.00704
6027.11160	0.00707
6025.18293	0.00707
6023.25425	0.00707
6021.32557	0.00707
6019.39690	0.00707
6017.46822	0.00707
6015.53955	0.00710
6013.61087	0.00714
6011.68220	0.00718
6009.75352	0.00720
6007.82484	0.00722
6005.89617	0.00724
6003.96749	0.00724
6002.03882	0.00723
6000.11014	0.00724
5998.18147	0.00726
5996.25279	0.00728
5994.32411	0.00730
5992.39544	0.00731
5990.46676	0.00732
5988.53809	0.00733
5986.60941	0.00736
5984.68074	0.00738
5982.75206	0.00740
5980.82338	0.00742
5978.89471	0.00745
5976.96603	0.00747
5975.03736	0.00749
5973.10868	0.00751
5971.18001	0.00751
5969.25133	0.00752
5967.32265	0.00754
5965.39398	0.00756
5963.46530	0.00757
5961.53663	0.00758
5959.60795	0.00761
5957.67928	0.00764
5955.75060	0.00765
5953.82192	0.00765
5951.89325	0.00766
5949.96457	0.00767
5948.03590	0.00770
5946.10722	0.00770
5944.17855	0.00770
5942.24987	0.00771
5940.32119	0.00774
5938.39252	0.00778
5936.46384	0.00781
5934.53517	0.00782
5932.60649	0.00784
5930.67782	0.00785
5928.74914	0.00785
5926.82046	0.00787
5924.89179	0.00790
5922.96311	0.00792
5921.03444	0.00793
5919.10576	0.00795
5917.17709	0.00797
5915.24841	0.00799
5913.31973	0.00800
5911.39106	0.00802
5909.46238	0.00805
5907.53371	0.00809
5905.60503	0.00812
5903.67636	0.00815
5901.74768	0.00816
5899.81900	0.00817
5897.89033	0.00817
5895.96165	0.00818
5894.03298	0.00819
5892.10430	0.00821
5890.17563	0.00822
5888.24695	0.00823
5886.31827	0.00825
5884.38960	0.00827
5882.46092	0.00829
5880.53225	0.00832
5878.60357	0.00833
5876.67490	0.00833
5874.74622	0.00836
5872.81755	0.00840
5870.88887	0.00842
5868.96019	0.00844
5867.03152	0.00846
5865.10284	0.00849
5863.17417	0.00851
5861.24549	0.00851
5859.31682	0.00851
5857.38814	0.00852
5855.45946	0.00856
5853.53079	0.00859
5851.60211	0.00861
5849.67344	0.00862
5847.74476	0.00864
5845.81609	0.00866
5843.88741	0.00868
5841.95873	0.00870
5840.03006	0.00871
5838.10138	0.00873
5836.17271	0.00875
5834.24403	0.00875
5832.31536	0.00877
5830.38668	0.00880
5828.45800	0.00882
5826.52933	0.00885
5824.60065	0.00888
5822.67198	0.00890
5820.74330	0.00890
5818.81463	0.00890
5816.88595	0.00892
5814.95727	0.00896
5813.02860	0.00900
5811.09992	0.00901
5809.17125	0.00902
5807.24257	0.00903
5805.31390	0.00907
5803.38522	0.00910
5801.45654	0.00911
5799.52787	0.00912
5797.59919	0.00914
5795.67052	0.00917
5793.74184	0.00921
5791.81317	0.00923
5789.88449	0.00924
5787.95581	0.00924
5786.02714	0.00924
5784.09846	0.00925
5782.16979	0.00928
5780.24111	0.00932
5778.31244	0.00934
5776.38376	0.00936
5774.45508	0.00939
5772.52641	0.00942
5770.59773	0.00945
5768.66906	0.00945
5766.74038	0.00944
5764.81171	0.00947
5762.88303	0.00952
5760.95435	0.00955
5759.02568	0.00955
5757.09700	0.00954
5755.16833	0.00956
5753.23965	0.00959
5751.31098	0.00963
5749.38230	0.00966
5747.45362	0.00969
5745.52495	0.00970
5743.59627	0.00970
5741.66760	0.00972
5739.73892	0.00975
5737.81025	0.00978
5735.88157	0.00981
5733.95289	0.00982
5732.02422	0.00982
5730.09554	0.00984
5728.16687	0.00988
5726.23819	0.00993
5724.30952	0.00995
5722.38084	0.00997
5720.45216	0.00998
5718.52349	0.00999
5716.59481	0.01001
5714.66614	0.01003
5712.73746	0.01004
5710.80879	0.01005
5708.88011	0.01007
5706.95143	0.01010
5705.02276	0.01014
5703.09408	0.01019
5701.16541	0.01022
5699.23673	0.01023
5697.30806	0.01025
5695.37938	0.01027
5693.45070	0.01028
5691.52203	0.01030
5689.59335	0.01033
5687.66468	0.01037
5685.73600	0.01038
5683.80733	0.01039
5681.87865	0.01039
5679.94997	0.01040
5678.02130	0.01043
5676.09262	0.01045
5674.16395	0.01049
5672.23527	0.01054
5670.30660	0.01057
5668.37792	0.01059
5666.44924	0.01059
5664.52057	0.01061
5662.59189	0.01063
5660.66322	0.01066
5658.73454	0.01067
5656.80587	0.01068
5654.87719	0.01071
5652.94851	0.01075
5651.01984	0.01077
5649.09116	0.01078
5647.16249	0.01079
5645.23381	0.01080
5643.30514	0.01082
5641.37646	0.01084
5639.44778	0.01088
5637.51911	0.01093
5635.59043	0.01098
5633.66176	0.01101
5631.73308	0.01103
5629.80441	0.01104
5627.87573	0.01105
5625.94705	0.01107
5624.01838	0.01109
5622.08970	0.01113
5620.16103	0.01115
5618.23235	0.01116
5616.30368	0.01119
5614.37500	0.01122
5612.44632	0.01124
5610.51765	0.01124
5608.58897	0.01126
5606.66030	0.01130
5604.73162	0.01134
5602.80295	0.01137
5600.87427	0.01140
5598.94559	0.01143
5597.01692	0.01146
5595.08824	0.01149
5593.15957	0.01151
5591.23089	0.01151
5589.30222	0.01150
5587.37354	0.01151
5585.44486	0.01154
5583.51619	0.01157
5581.58751	0.01160
5579.65884	0.01163
5577.73016	0.01165
5575.80149	0.01167
5573.87281	0.01169
5571.94413	0.01172
5570.01546	0.01175
5568.08678	0.01178
5566.15811	0.01181
5564.22943	0.01182
5562.30076	0.01183
5560.37208	0.01185
5558.44340	0.01190
5556.51473	0.01193
5554.58605	0.01195
5552.65738	0.01197
5550.72870	0.01200
5548.80003	0.01204
5546.87135	0.01208
5544.94267	0.01210
5543.01400	0.01212
5541.08532	0.01213
5539.15665	0.01215
5537.22797	0.01219
5535.29930	0.01221
5533.37062	0.01222
5531.44194	0.01223
5529.51327	0.01226
5527.58459	0.01231
5525.65592	0.01235
5523.72724	0.01238
5521.79857	0.01238
5519.86989	0.01239
5517.94121	0.01242
5516.01254	0.01245
5514.08386	0.01248
5512.15519	0.01250
5510.22651	0.01251
5508.29784	0.01254
5506.36916	0.01256
5504.44048	0.01258
5502.51181	0.01261
5500.58313	0.01262
5498.65446	0.01264
5496.72578	0.01268
5494.79711	0.01273
5492.86843	0.01277
5490.93975	0.01279
5489.01108	0.01282
5487.08240	0.01284
5485.15373	0.01286
5483.22505	0.01287
5481.29638	0.01289
5479.36770	0.01292
5477.43902	0.01294
5475.51035	0.01297
5473.58167	0.01303
5471.65300	0.01308
5469.72432	0.01311
5467.79565	0.01312
5465.86697	0.01315
5463.93829	0.01316
5462.00962	0.01317
5460.08094	0.01320
5458.15227	0.01325
5456.22359	0.01328
5454.29492	0.01329
5452.36624	0.01330
5450.43756	0.01331
5448.50889	0.01333
5446.58021	0.01335
5444.65154	0.01337
5442.72286	0.01339
5440.79419	0.01343
5438.86551	0.01347
5436.93683	0.01351
5435.00816	0.01353
5433.07948	0.01357
5431.15081	0.01361
5429.22213	0.01363
5427.29346	0.01366
5425.36478	0.01367
5423.43610	0.01370
5421.50743	0.01373
5419.57875	0.01377
5417.65008	0.01380
5415.72140	0.01381
5413.79273	0.01382
5411.86405	0.01385
5409.93537	0.01388
5408.00670	0.01391
5406.07802	0.01396
5404.14935	0.01400
5402.22067	0.01403
5400.29200	0.01405
5398.36332	0.01408
5396.43464	0.01410
5394.50597	0.01412
5392.57729	0.01413
5390.64862	0.01416
5388.71994	0.01420
5386.79127	0.01423
5384.86259	0.01427
5382.93391	0.01429
5381.00524	0.01431
5379.07656	0.01432
5377.14789	0.01434
5375.21921	0.01437
5373.29054	0.01441
5371.36186	0.01445
5369.43318	0.01450
5367.50451	0.01454
5365.57583	0.01457
5363.64716	0.01458
5361.71848	0.01459
5359.78981	0.01461
5357.86113	0.01464
5355.93245	0.01467
5354.00378	0.01469
5352.07510	0.01472
5350.14643	0.01476
5348.21775	0.01479
5346.28908	0.01481
5344.36040	0.01483
5342.43172	0.01486
5340.50305	0.01489
5338.57437	0.01492
5336.64570	0.01495
5334.71702	0.01499
5332.78835	0.01504
5330.85967	0.01507
5328.93099	0.01508
5327.00232	0.01511
5325.07364	0.01516
5323.14497	0.01520
5321.21629	0.01523
5319.28762	0.01524
5317.35894	0.01526
5315.43026	0.01531
5313.50159	0.01536
5311.57291	0.01539
5309.64424	0.01539
5307.71556	0.01539
5305.78689	0.01539
5303.85821	0.01542
5301.92953	0.01547
5300.00086	0.01551
5298.07218	0.01557
5296.14351	0.01561
5294.21483	0.01563
5292.28616	0.01566
5290.35748	0.01568
5288.42880	0.01570
5286.50013	0.01575
5284.57145	0.01579
5282.64278	0.01581
5280.71410	0.01583
5278.78543	0.01586
5276.85675	0.01589
5274.92807	0.01592
5272.99940	0.01593
5271.07072	0.01596
5269.14205	0.01600
5267.21337	0.01602
5265.28470	0.01602
5263.35602	0.01605
5261.42734	0.01610
5259.49867	0.01613
5257.56999	0.01616
5255.64132	0.01619
5253.71264	0.01621
5251.78397	0.01625
5249.85529	0.01628
5247.92661	0.01631
5245.99794	0.01634
5244.06926	0.01638
5242.14059	0.01641
5240.21191	0.01644
5238.28324	0.01647
5236.35456	0.01652
5234.42588	0.01656
5232.49721	0.01657
5230.56853	0.01658
5228.63986	0.01661
5226.71118	0.01664
5224.78251	0.01668
5222.85383	0.01673
5220.92515	0.01676
5218.99648	0.01678
5217.06780	0.01680
5215.13913	0.01683
5213.21045	0.01686
5211.28178	0.01689
5209.35310	0.01693
5207.42442	0.01696
5205.49575	0.01699
5203.56707	0.01703
5201.63840	0.01707
5199.70972	0.01710
5197.78105	0.01712
5195.85237	0.01715
5193.92369	0.01718
5191.99502	0.01722
5190.06634	0.01727
5188.13767	0.01731
5186.20899	0.01736
5184.28032	0.01740
5182.35164	0.01741
5180.42296	0.01741
5178.49429	0.01743
5176.56561	0.01745
5174.63694	0.01748
5172.70826	0.01754
5170.77959	0.01759
5168.85091	0.01765
5166.92223	0.01769
5164.99356	0.01771
5163.06488	0.01771
5161.13621	0.01774
5159.20753	0.01777
5157.27886	0.01779
5155.35018	0.01783
5153.42150	0.01788
5151.49283	0.01792
5149.56415	0.01795
5147.63548	0.01798
5145.70680	0.01800
5143.77813	0.01801
5141.84945	0.01803
5139.92077	0.01808
5137.99210	0.01813
5136.06342	0.01816
5134.13475	0.01819
5132.20607	0.01822
5130.27740	0.01825
5128.34872	0.01828
5126.42004	0.01830
5124.49137	0.01833
5122.56269	0.01837
5120.63402	0.01840
5118.70534	0.01843
5116.77667	0.01846
5114.84799	0.01849
5112.91931	0.01853
5110.99064	0.01857
5109.06196	0.01860
5107.13329	0.01861
5105.20461	0.01863
5103.27594	0.01866
5101.34726	0.01871
5099.41858	0.01877
5097.48991	0.01881
5095.56123	0.01885
5093.63256	0.01887
5091.70388	0.01888
5089.77521	0.01890
5087.84653	0.01895
5085.91785	0.01899
5083.98918	0.01902
5082.06050	0.01905
5080.13183	0.01906
5078.20315	0.01910
5076.27448	0.01915
5074.34580	0.01919
5072.41712	0.01923
5070.48845	0.01928
5068.55977	0.01930
5066.63110	0.01931
5064.70242	0.01934
5062.77375	0.01939
5060.84507	0.01944
5058.91639	0.01949
5056.98772	0.01952
5055.05904	0.01953
5053.13037	0.01954
5051.20169	0.01955
5049.27302	0.01958
5047.34434	0.01965
5045.41566	0.01971
5043.48699	0.01973
5041.55831	0.01975
5039.62964	0.01977
5037.70096	0.01981
5035.77229	0.01987
5033.84361	0.01993
5031.91493	0.01997
5029.98626	0.02001
5028.05758	0.02005
5026.12891	0.02008
5024.20023	0.02009
5022.27156	0.02009
5020.34288	0.02011
5018.41420	0.02015
5016.48553	0.02019
5014.55685	0.02026
5012.62818	0.02032
5010.69950	0.02036
5008.77083	0.02039
5006.84215	0.02042
5004.91347	0.02046
5002.98480	0.02049
5001.05612	0.02051
4999.12745	0.02054
4997.19877	0.02057
4995.27010	0.02060
4993.34142	0.02061
4991.41274	0.02062
4989.48407	0.02068
4987.55539	0.02076
4985.62672	0.02083
4983.69804	0.02085
4981.76937	0.02084
4979.84069	0.02085
4977.91201	0.02089
4975.98334	0.02093
4974.05466	0.02098
4972.12599	0.02103
4970.19731	0.02107
4968.26864	0.02110
4966.33996	0.02113
4964.41128	0.02118
4962.48261	0.02123
4960.55393	0.02125
4958.62526	0.02129
4956.69658	0.02135
4954.76791	0.02142
4952.83923	0.02145
4950.91055	0.02147
4948.98188	0.02150
4947.05320	0.02155
4945.12453	0.02159
4943.19585	0.02161
4941.26718	0.02165
4939.33850	0.02169
4937.40982	0.02173
4935.48115	0.02177
4933.55247	0.02180
4931.62380	0.02182
4929.69512	0.02184
4927.76645	0.02188
4925.83777	0.02190
4923.90909	0.02192
4921.98042	0.02195
4920.05174	0.02198
4918.12307	0.02204
4916.19439	0.02210
4914.26572	0.02214
4912.33704	0.02214
4910.40836	0.02215
4908.47969	0.02220
4906.55101	0.02226
4904.62234	0.02231
4902.69366	0.02235
4900.76499	0.02238
4898.83631	0.02242
4896.90763	0.02246
4894.97896	0.02250
4893.05028	0.02253
4891.12161	0.02257
4889.19293	0.02260
4887.26426	0.02263
4885.33558	0.02269
4883.40690	0.02273
4881.47823	0.02277
4879.54955	0.02279
4877.62088	0.02282
4875.69220	0.02286
4873.76353	0.02291
4871.83485	0.02297
4869.90617	0.02302
4867.97750	0.02304
4866.04882	0.02305
4864.12015	0.02309
4862.19147	0.02314
4860.26280	0.02316
4858.33412	0.02318
4856.40544	0.02322
4854.47677	0.02328
4852.54809	0.02334
4850.61942	0.02338
4848.69074	0.02341
4846.76207	0.02343
4844.83339	0.02346
4842.90471	0.02350
4840.97604	0.02355
4839.04736	0.02360
4837.11869	0.02364
4835.19001	0.02367
4833.26134	0.02372
4831.33266	0.02378
4829.40398	0.02381
4827.47531	0.02382
4825.54663	0.02385
4823.61796	0.02390
4821.68928	0.02396
4819.76061	0.02400
4817.83193	0.02402
4815.90325	0.02405
4813.97458	0.02411
4812.04590	0.02416
4810.11723	0.02419
4808.18855	0.02422
4806.25988	0.02425
4804.33120	0.02429
4802.40252	0.02434
4800.47385	0.02439
4798.54517	0.02444
4796.61650	0.02447
4794.68782	0.02451
4792.75915	0.02457
4790.83047	0.02463
4788.90179	0.02466
4786.97312	0.02467
4785.04444	0.02470
4783.11577	0.02475
4781.18709	0.02481
4779.25842	0.02487
4777.32974	0.02491
4775.40106	0.02495
4773.47239	0.02497
4771.54371	0.02499
4769.61504	0.02502
4767.68636	0.02509
4765.75769	0.02515
4763.82901	0.02519
4761.90033	0.02522
4759.97166	0.02527
4758.04298	0.02531
4756.11431	0.02534
4754.18563	0.02537
4752.25696	0.02542
4750.32828	0.02546
4748.39960	0.02550
4746.47093	0.02553
4744.54225	0.02556
4742.61358	0.02560
4740.68490	0.02567
4738.75623	0.02571
4736.82755	0.02573
4734.89887	0.02577
4732.97020	0.02582
4731.04152	0.02585
4729.11285	0.02589
4727.18417	0.02594
4725.25550	0.02599
4723.32682	0.02603
4721.39814	0.02607
4719.46947	0.02611
4717.54079	0.02616
4715.61212	0.02621
4713.68344	0.02627
4711.75477	0.02631
4709.82609	0.02635
4707.89741	0.02640
4705.96874	0.02646
4704.04006	0.02650
4702.11139	0.02653
4700.18271	0.02656
4698.25404	0.02661
4696.32536	0.02667
4694.39668	0.02672
4692.46801	0.02676
4690.53933	0.02682
4688.61066	0.02688
4686.68198	0.02691
4684.75331	0.02694
4682.82463	0.02698
4680.89595	0.02701
4678.96728	0.02704
4677.03860	0.02708
4675.10993	0.02712
4673.18125	0.02716
4671.25258	0.02721
4669.32390	0.02727
4667.39522	0.02733
4665.46655	0.02739
4663.53787	0.02742
4661.60920	0.02744
4659.68052	0.02747
4657.75185	0.02753
4655.82317	0.02758
4653.89449	0.02765
4651.96582	0.02769
4650.03714	0.02773
4648.10847	0.02778
4646.17979	0.02782
4644.25112	0.02786
4642.32244	0.02791
4640.39376	0.02799
4638.46509	0.02807
4636.53641	0.02813
4634.60774	0.02816
4632.67906	0.02818
4630.75039	0.02822
4628.82171	0.02828
4626.89303	0.02832
4624.96436	0.02834
4623.03568	0.02837
4621.10701	0.02842
4619.17833	0.02847
4617.24966	0.02852
4615.32098	0.02858
4613.39230	0.02862
4611.46363	0.02863
4609.53495	0.02865
4607.60628	0.02872
4605.67760	0.02881
4603.74893	0.02887
4601.82025	0.02892
4599.89157	0.02897
4597.96290	0.02903
4596.03422	0.02909
4594.10555	0.02915
4592.17687	0.02919
4590.24820	0.02921
4588.31952	0.02923
4586.39084	0.02927
4584.46217	0.02935
4582.53349	0.02944
4580.60482	0.02949
4578.67614	0.02952
4576.74747	0.02956
4574.81879	0.02960
4572.89011	0.02964
4570.96144	0.02967
4569.03276	0.02971
4567.10409	0.02976
4565.17541	0.02984
4563.24674	0.02990
4561.31806	0.02993
4559.38938	0.02996
4557.46071	0.03001
4555.53203	0.03007
4553.60336	0.03013
4551.67468	0.03021
4549.74601	0.03030
4547.81733	0.03037
4545.88865	0.03040
4543.95998	0.03043
4542.03130	0.03047
4540.10263	0.03053
4538.17395	0.03059
4536.24528	0.03061
4534.31660	0.03062
4532.38792	0.03065
4530.45925	0.03073
4528.53057	0.03081
4526.60190	0.03087
4524.67322	0.03092
4522.74455	0.03098
4520.81587	0.03103
4518.88719	0.03108
4516.95852	0.03112
4515.02984	0.03117
4513.10117	0.03121
4511.17249	0.03126
4509.24382	0.03132
4507.31514	0.03139
4505.38646	0.03146
4503.45779	0.03152
4501.52911	0.03157
4499.60044	0.03160
4497.67176	0.03166
4495.74309	0.03173
4493.81441	0.03178
4491.88573	0.03182
4489.95706	0.03186
4488.02838	0.03192
4486.09971	0.03199
4484.17103	0.03205
4482.24236	0.03209
4480.31368	0.03212
4478.38500	0.03219
4476.45633	0.03227
4474.52765	0.03235
4472.59898	0.03241
4470.67030	0.03244
4468.74163	0.03247
4466.81295	0.03252
4464.88427	0.03258
4462.95560	0.03263
4461.02692	0.03268
4459.09825	0.03275
4457.16957	0.03282
4455.24090	0.03288
4453.31222	0.03294
4451.38354	0.03300
4449.45487	0.03305
4447.52619	0.03308
4445.59752	0.03313
4443.66884	0.03321
4441.74017	0.03329
4439.81149	0.03335
4437.88281	0.03341
4435.95414	0.03347
4434.02546	0.03353
4432.09679	0.03357
4430.16811	0.03362
4428.23944	0.03368
4426.31076	0.03375
4424.38208	0.03381
4422.45341	0.03386
4420.52473	0.03394
4418.59606	0.03402
4416.66738	0.03407
4414.73871	0.03411
4412.81003	0.03415
4410.88135	0.03419
4408.95268	0.03424
4407.02400	0.03431
4405.09533	0.03438
4403.16665	0.03446
4401.23798	0.03454
4399.30930	0.03461
4397.38062	0.03466
4395.45195	0.03471
4393.52327	0.03477
4391.59460	0.03483
4389.66592	0.03489
4387.73725	0.03497
4385.80857	0.03505
4383.87989	0.03512
4381.95122	0.03518
4380.02254	0.03522
4378.09387	0.03525
4376.16519	0.03528
4374.23652	0.03533
4372.30784	0.03541
4370.37916	0.03550
4368.45049	0.03560
4366.52181	0.03567
4364.59314	0.03572
4362.66446	0.03575
4360.73579	0.03580
4358.80711	0.03587
4356.87843	0.03595
4354.94976	0.03602
4353.02108	0.03609
4351.09241	0.03615
4349.16373	0.03622
4347.23506	0.03629
4345.30638	0.03636
4343.37770	0.03644
4341.44903	0.03651
4339.52035	0.03654
4337.59168	0.03658
4335.66300	0.03664
4333.73433	0.03672
4331.80565	0.03679
4329.87697	0.03686
4327.94830	0.03693
4326.01962	0.03700
4324.09095	0.03707
4322.16227	0.03713
4320.23360	0.03719
4318.30492	0.03725
4316.37624	0.03732
4314.44757	0.03741
4312.51889	0.03751
4310.59022	0.03758
4308.66154	0.03762
4306.73287	0.03767
4304.80419	0.03774
4302.87551	0.03781
4300.94684	0.03788
4299.01816	0.03797
4297.08949	0.03804
4295.16081	0.03809
4293.23214	0.03816
4291.30346	0.03822
4289.37478	0.03829
4287.44611	0.03836
4285.51743	0.03843
4283.58876	0.03850
4281.66008	0.03858
4279.73141	0.03866
4277.80273	0.03872
4275.87405	0.03879
4273.94538	0.03889
4272.01670	0.03897
4270.08803	0.03902
4268.15935	0.03906
4266.23068	0.03913
4264.30200	0.03922
4262.37332	0.03931
4260.44465	0.03941
4258.51597	0.03949
4256.58730	0.03954
4254.65862	0.03958
4252.72995	0.03963
4250.80127	0.03969
4248.87259	0.03975
4246.94392	0.03981
4245.01524	0.03989
4243.08657	0.03997
4241.15789	0.04004
4239.22922	0.04012
4237.30054	0.04020
4235.37186	0.04028
4233.44319	0.04035
4231.51451	0.04041
4229.58584	0.04048
4227.65716	0.04057
4225.72849	0.04068
4223.79981	0.04079
4221.87113	0.04090
4219.94246	0.04098
4218.01378	0.04102
4216.08511	0.04105
4214.15643	0.04109
4212.22776	0.04116
4210.29908	0.04126
4208.37040	0.04135
4206.44173	0.04142
4204.51305	0.04146
4202.58438	0.04153
4200.65570	0.04162
4198.72703	0.04170
4196.79835	0.04178
4194.86968	0.04187
4192.94100	0.04197
4191.01232	0.04206
4189.08365	0.04216
4187.15497	0.04224
4185.22630	0.04230
4183.29762	0.04235
4181.36895	0.04242
4179.44027	0.04249
4177.51159	0.04257
4175.58292	0.04266
4173.65424	0.04274
4171.72557	0.04281
4169.79689	0.04289
4167.86822	0.04298
4165.93954	0.04307
4164.01086	0.04315
4162.08219	0.04323
4160.15351	0.04330
4158.22484	0.04336
4156.29616	0.04342
4154.36749	0.04350
4152.43881	0.04360
4150.51013	0.04370
4148.58146	0.04380
4146.65278	0.04388
4144.72411	0.04393
4142.79543	0.04399
4140.86676	0.04406
4138.93808	0.04415
4137.00940	0.04424
4135.08073	0.04432
4133.15205	0.04438
4131.22338	0.04445
4129.29470	0.04455
4127.36603	0.04462
4125.43735	0.04469
4123.50867	0.04480
4121.58000	0.04492
4119.65132	0.04502
4117.72265	0.04511
4115.79397	0.04518
4113.86530	0.04525
4111.93662	0.04532
4110.00794	0.04539
4108.07927	0.04546
4106.15059	0.04554
4104.22192	0.04562
4102.29324	0.04572
4100.36457	0.04582
4098.43589	0.04589
4096.50721	0.04596
4094.57854	0.04605
4092.64986	0.04615
4090.72119	0.04622
4088.79251	0.04628
4086.86384	0.04635
4084.93516	0.04645
4083.00648	0.04657
4081.07781	0.04669
4079.14913	0.04677
4077.22046	0.04685
4075.29178	0.04695
4073.36311	0.04704
4071.43443	0.04712
4069.50575	0.04719
4067.57708	0.04728
4065.64840	0.04738
4063.71973	0.04747
4061.79105	0.04756
4059.86238	0.04766
4057.93370	0.04774
4056.00502	0.04780
4054.07635	0.04787
4052.14767	0.04796
4050.21900	0.04805
4048.29032	0.04815
4046.36165	0.04825
4044.43297	0.04836
4042.50429	0.04844
4040.57562	0.04851
4038.64694	0.04858
4036.71827	0.04866
4034.78959	0.04874
4032.86092	0.04883
4030.93224	0.04895
4029.00356	0.04905
4027.07489	0.04913
4025.14621	0.04922
4023.21754	0.04933
4021.28886	0.04941
4019.36019	0.04946
4017.43151	0.04954
4015.50283	0.04965
4013.57416	0.04976
4011.64548	0.04986
4009.71681	0.04994
4007.78813	0.05003
4005.85946	0.05012
4003.93078	0.05022
4002.00210	0.05030
4000.07343	0.05039
3998.14475	0.05047
3996.21608	0.05054
3994.28740	0.05063
3992.35873	0.05075
3990.43005	0.05086
3988.50137	0.05097
3986.57270	0.05109
3984.64402	0.05118
3982.71535	0.05126
3980.78667	0.05134
3978.85800	0.05142
3976.92932	0.05150
3975.00064	0.05160
3973.07197	0.05172
3971.14329	0.05185
3969.21462	0.05197
3967.28594	0.05205
3965.35727	0.05210
3963.42859	0.05213
3961.49991	0.05221
3959.57124	0.05233
3957.64256	0.05245
3955.71389	0.05256
3953.78521	0.05266
3951.85654	0.05275
3949.92786	0.05283
3947.99918	0.05292
3946.07051	0.05299
3944.14183	0.05306
3942.21316	0.05315
3940.28448	0.05329
3938.35581	0.05344
3936.42713	0.05355
3934.49845	0.05361
3932.56978	0.05367
3930.64110	0.05377
3928.71243	0.05385
3926.78375	0.05392
3924.85508	0.05401
3922.92640	0.05414
3920.99772	0.05425
3919.06905	0.05432
3917.14037	0.05439
3915.21170	0.05452
3913.28302	0.05464
3911.35435	0.05476
3909.42567	0.05486
3907.49699	0.05490
3905.56832	0.05489
3903.63964	0.05493
3901.71097	0.05502
3899.78229	0.05514
3897.85362	0.05532
3895.92494	0.05550
3893.99626	0.05557
3892.06759	0.05561
3890.13891	0.05573
3888.21024	0.05585
3886.28156	0.05590
3884.35289	0.05599
3882.42421	0.05610
3880.49553	0.05620
3878.56686	0.05633
3876.63818	0.05646
3874.70951	0.05654
3872.78083	0.05658
3870.85216	0.05660
3868.92348	0.05670
3866.99480	0.05687
3865.06613	0.05698
3863.13745	0.05709
3861.20878	0.05726
3859.28010	0.05739
3857.35143	0.05732
3855.42275	0.05707
3853.49407	0.05704
3851.56540	0.05741
3849.63672	0.05785
3847.70805	0.05809
3845.77937	0.05819
3843.85070	0.05824
3841.92202	0.05827
3839.99334	0.05830
3838.06467	0.05836
3836.13599	0.05848
3834.20732	0.05863
3832.27864	0.05875
3830.34997	0.05891
3828.42129	0.05909
3826.49261	0.05923
3824.56394	0.05926
3822.63526	0.05920
3820.70659	0.05922
3818.77791	0.05936
3816.84924	0.05950
3814.92056	0.05970
3812.99188	0.05995
3811.06321	0.06011
3809.13453	0.06017
3807.20586	0.06020
3805.27718	0.06023
3803.34851	0.06021
3801.41983	0.06025
3799.49115	0.06047
3797.56248	0.06071
3795.63380	0.06088
3793.70513	0.06106
3791.77645	0.06122
3789.84778	0.06134
3787.91910	0.06141
3785.99042	0.06146
3784.06175	0.06154
3782.13307	0.06163
3780.20440	0.06173
3778.27572	0.06187
3776.34705	0.06201
3774.41837	0.06210
3772.48969	0.06214
3770.56102	0.06220
3768.63234	0.06231
3766.70367	0.06244
3764.77499	0.06257
3762.84632	0.06267
3760.91764	0.06270
3758.98896	0.06275
3757.06029	0.06287
3755.13161	0.06293
3753.20294	0.06283
3751.27426	0.06275
3749.34559	0.06284
3747.41691	0.06291
3745.48823	0.06290
3743.55956	0.06313
3741.63088	0.06357
3739.70221	0.06379
3737.77353	0.06376
3735.84486	0.06376
3733.91618	0.06393
3731.98750	0.06417
3730.05883	0.06436
3728.13015	0.06446
3726.20148	0.06454
3724.27280	0.06466
3722.34413	0.06479
3720.41545	0.06491
3718.48677	0.06503
3716.55810	0.06511
3714.62942	0.06510
3712.70075	0.06504
3710.77207	0.06510
3708.84340	0.06532
3706.91472	0.06556
3704.98604	0.06571
3703.05737	0.06577
3701.12869	0.06583
3699.20002	0.06594
3697.27134	0.06602
3695.34267	0.06608
3693.41399	0.06606
3691.48531	0.06598
3689.55664	0.06595
3687.62796	0.06612
3685.69929	0.06638
3683.77061	0.06653
3681.84194	0.06655
3679.91326	0.06650
3677.98458	0.06639
3676.05591	0.06632
3674.12723	0.06642
3672.19856	0.06650
3670.26988	0.06652
3668.34121	0.06666
3666.41253	0.06685
3664.48385	0.06696
3662.55518	0.06701
3660.62650	0.06703
3658.69783	0.06699
3656.76915	0.06697
3654.84048	0.06699
3652.91180	0.06690
3650.98312	0.06668
3649.05445	0.06655
3647.12577	0.06668
3645.19710	0.06700
3643.26842	0.06729
3641.33975	0.06743
3639.41107	0.06750
3637.48239	0.06755
3635.55372	0.06761
3633.62504	0.06762
3631.69637	0.06753
3629.76769	0.06739
3627.83902	0.06746
3625.91034	0.06770
3623.98166	0.06785
3622.05299	0.06783
3620.12431	0.06779
3618.19564	0.06784
3616.26696	0.06798
3614.33829	0.06805
3612.40961	0.06806
3610.48093	0.06807
3608.55226	0.06813
3606.62358	0.06829
3604.69491	0.06844
3602.76623	0.06853
3600.83756	0.06859
3598.90888	0.06865
3596.98020	0.06868
3595.05153	0.06874
3593.12285	0.06885
3591.19418	0.06889
3589.26550	0.06879
3587.33683	0.06874
3585.40815	0.06888
3583.47947	0.06909
3581.55080	0.06924
3579.62212	0.06934
3577.69345	0.06943
3575.76477	0.06950
3573.83610	0.06955
3571.90742	0.06954
3569.97874	0.06948
3568.05007	0.06946
3566.12139	0.06958
3564.19272	0.06977
3562.26404	0.06990
3560.33537	0.06998
3558.40669	0.07006
3556.47801	0.07014
3554.54934	0.07018
3552.62066	0.07022
3550.69199	0.07028
3548.76331	0.07032
3546.83464	0.07036
3544.90596	0.07045
3542.97728	0.07059
3541.04861	0.07068
3539.11993	0.07070
3537.19126	0.07072
3535.26258	0.07075
3533.33391	0.07079
3531.40523	0.07084
3529.47655	0.07086
3527.54788	0.07088
3525.61920	0.07090
3523.69053	0.07090
3521.76185	0.07093
3519.83318	0.07097
3517.90450	0.07101
3515.97582	0.07103
3514.04715	0.07104
3512.11847	0.07102
3510.18980	0.07102
3508.26112	0.07107
3506.33245	0.07112
3504.40377	0.07111
3502.47509	0.07111
3500.54642	0.07113
3498.61774	0.07112
3496.68907	0.07111
3494.76039	0.07112
3492.83172	0.07115
3490.90304	0.07115
3488.97436	0.07116
3487.04569	0.07118
3485.11701	0.07121
3483.18834	0.07123
3481.25966	0.07127
3479.33099	0.07134
3477.40231	0.07143
3475.47363	0.07152
3473.54496	0.07158
3471.61628	0.07163
3469.68761	0.07168
3467.75893	0.07176
3465.83026	0.07187
3463.90158	0.07198
3461.97290	0.07208
3460.04423	0.07220
3458.11555	0.07231
3456.18688	0.07238
3454.25820	0.07244
3452.32953	0.07252
3450.40085	0.07262
3448.47217	0.07270
3446.54350	0.07278
3444.61482	0.07289
3442.68615	0.07301
3440.75747	0.07315
3438.82880	0.07331
3436.90012	0.07347
3434.97144	0.07368
3433.04277	0.07392
3431.11409	0.07415
3429.18542	0.07436
3427.25674	0.07458
3425.32807	0.07481
3423.39939	0.07502
3421.47071	0.07520
3419.54204	0.07537
3417.61336	0.07553
3415.68469	0.07569
3413.75601	0.07585
3411.82734	0.07601
3409.89866	0.07614
3407.96998	0.07627
3406.04131	0.07642
3404.11263	0.07659
3402.18396	0.07674
3400.25528	0.07687
3398.32661	0.07701
3396.39793	0.07716
3394.46925	0.07731
3392.54058	0.07744
3390.61190	0.07759
3388.68323	0.07776
3386.75455	0.07792
3384.82588	0.07807
3382.89720	0.07823
3380.96852	0.07840
3379.03985	0.07854
3377.11117	0.07865
3375.18250	0.07876
3373.25382	0.07888
3371.32515	0.07903
3369.39647	0.07919
3367.46779	0.07935
3365.53912	0.07949
3363.61044	0.07965
3361.68177	0.07978
3359.75309	0.07989
3357.82442	0.08000
3355.89574	0.08013
3353.96706	0.08027
3352.03839	0.08041
3350.10971	0.08057
3348.18104	0.08075
3346.25236	0.08094
3344.32369	0.08110
3342.39501	0.08121
3340.46633	0.08131
3338.53766	0.08145
3336.60898	0.08160
3334.68031	0.08176
3332.75163	0.08191
3330.82296	0.08206
3328.89428	0.08220
3326.96560	0.08233
3325.03693	0.08248
3323.10825	0.08264
3321.17958	0.08278
3319.25090	0.08291
3317.32223	0.08304
3315.39355	0.08319
3313.46487	0.08334
3311.53620	0.08351
3309.60752	0.08368
3307.67885	0.08387
3305.75017	0.08401
3303.82150	0.08412
3301.89282	0.08425
3299.96414	0.08444
3298.03547	0.08464
3296.10679	0.08484
3294.17812	0.08503
3292.24944	0.08517
3290.32077	0.08528
3288.39209	0.08541
3286.46341	0.08555
3284.53474	0.08569
3282.60606	0.08585
3280.67739	0.08603
3278.74871	0.08621
3276.82004	0.08637
3274.89136	0.08654
3272.96268	0.08671
3271.03401	0.08689
3269.10533	0.08707
3267.17666	0.08725
3265.24798	0.08739
3263.31931	0.08753
3261.39063	0.08772
3259.46195	0.08793
3257.53328	0.08810
3255.60460	0.08822
3253.67593	0.08834
3251.74725	0.08850
3249.81858	0.08867
3247.88990	0.08884
3245.96122	0.08902
3244.03255	0.08917
3242.10387	0.08933
3240.17520	0.08952
3238.24652	0.08973
3236.31785	0.08989
3234.38917	0.09001
3232.46049	0.09014
3230.53182	0.09030
3228.60314	0.09048
3226.67447	0.09068
3224.74579	0.09089
3222.81712	0.09108
3220.88844	0.09123
3218.95976	0.09136
3217.03109	0.09150
3215.10241	0.09165
3213.17374	0.09182
3211.24506	0.09199
3209.31639	0.09216
3207.38771	0.09233
3205.45903	0.09253
3203.53036	0.09274
3201.60168	0.09293
3199.67301	0.09308
3197.74433	0.09325
3195.81566	0.09345
3193.88698	0.09363
3191.95830	0.09380
3190.02963	0.09397
3188.10095	0.09414
3186.17228	0.09433
3184.24360	0.09453
3182.31493	0.09470
3180.38625	0.09486
3178.45757	0.09503
3176.52890	0.09521
3174.60022	0.09539
3172.67155	0.09558
3170.74287	0.09575
3168.81420	0.09593
3166.88552	0.09612
3164.95684	0.09630
3163.02817	0.09648
3161.09949	0.09664
3159.17082	0.09681
3157.24214	0.09699
3155.31347	0.09716
3153.38479	0.09735
3151.45611	0.09756
3149.52744	0.09773
3147.59876	0.09788
3145.67009	0.09803
3143.74141	0.09819
3141.81274	0.09835
3139.88406	0.09853
3137.95538	0.09873
3136.02671	0.09889
3134.09803	0.09904
3132.16936	0.09923
3130.24068	0.09943
3128.31201	0.09961
3126.38333	0.09976
3124.45465	0.09991
3122.52598	0.10004
3120.59730	0.10020
3118.66863	0.10039
3116.73995	0.10057
3114.81128	0.10073
3112.88260	0.10088
3110.95392	0.10105
3109.02525	0.10123
3107.09657	0.10140
3105.16790	0.10155
3103.23922	0.10169
3101.31055	0.10184
3099.38187	0.10203
3097.45319	0.10223
3095.52452	0.10242
3093.59584	0.10258
3091.66717	0.10271
3089.73849	0.10285
3087.80982	0.10303
3085.88114	0.10323
3083.95246	0.10342
3082.02379	0.10359
3080.09511	0.10375
3078.16644	0.10393
3076.23776	0.10412
3074.30909	0.10430
3072.38041	0.10444
3070.45173	0.10460
3068.52306	0.10477
3066.59438	0.10495
3064.66571	0.10513
3062.73703	0.10530
3060.80836	0.10545
3058.87968	0.10558
3056.95100	0.10570
3055.02233	0.10582
3053.09365	0.10596
3051.16498	0.10614
3049.23630	0.10633
3047.30763	0.10650
3045.37895	0.10667
3043.45027	0.10686
3041.52160	0.10704
3039.59292	0.10719
3037.66425	0.10730
3035.73557	0.10738
3033.80690	0.10748
3031.87822	0.10764
3029.94954	0.10785
3028.02087	0.10807
3026.09219	0.10824
3024.16352	0.10839
3022.23484	0.10852
3020.30617	0.10864
3018.37749	0.10879
3016.44881	0.10896
3014.52014	0.10913
3012.59146	0.10929
3010.66279	0.10945
3008.73411	0.10963
3006.80544	0.10979
3004.87676	0.10989
3002.94808	0.11000
3001.01941	0.11014
2999.09073	0.11028
2997.16206	0.11042
2995.23338	0.11053
2993.30471	0.11064
2991.37603	0.11076
2989.44735	0.11089
2987.51868	0.11101
2985.59000	0.11110
2983.66133	0.11117
2981.73265	0.11122
2979.80398	0.11127
2977.87530	0.11131
2975.94662	0.11134
2974.01795	0.11135
2972.08927	0.11136
2970.16060	0.11135
2968.23192	0.11131
2966.30325	0.11128
2964.37457	0.11131
2962.44589	0.11140
2960.51722	0.11155
2958.58854	0.11173
2956.65987	0.11195
2954.73119	0.11220
2952.80252	0.11243
2950.87384	0.11262
2948.94516	0.11279
2947.01649	0.11291
2945.08781	0.11299
2943.15914	0.11304
2941.23046	0.11308
2939.30179	0.11312
2937.37311	0.11316
2935.44443	0.11318
2933.51576	0.11315
2931.58708	0.11309
2929.65841	0.11306
2927.72973	0.11304
2925.80106	0.11303
2923.87238	0.11301
2921.94370	0.11302
2920.01503	0.11310
2918.08635	0.11330
2916.15768	0.11366
2914.22900	0.11418
2912.30033	0.11476
2910.37165	0.11524
2908.44297	0.11561
2906.51430	0.11593
2904.58562	0.11625
2902.65695	0.11660
2900.72827	0.11690
2898.79960	0.11715
2896.87092	0.11738
2894.94224	0.11761
2893.01357	0.11782
2891.08489	0.11803
2889.15622	0.11825
2887.22754	0.11845
2885.29887	0.11865
2883.37019	0.11888
2881.44151	0.11911
2879.51284	0.11929
2877.58416	0.11944
2875.65549	0.11959
2873.72681	0.11976
2871.79814	0.11995
2869.86946	0.12014
2867.94078	0.12031
2866.01211	0.12048
2864.08343	0.12064
2862.15476	0.12074
2860.22608	0.12076
2858.29741	0.12071
2856.36873	0.12068
2854.44005	0.12069
2852.51138	0.12073
2850.58270	0.12083
2848.65403	0.12114
2846.72535	0.12168
2844.79668	0.12228
2842.86800	0.12276
2840.93932	0.12311
2839.01065	0.12341
2837.08197	0.12370
2835.15330	0.12399
2833.22462	0.12428
2831.29595	0.12454
2829.36727	0.12473
2827.43859	0.12489
2825.50992	0.12509
2823.58124	0.12531
2821.65257	0.12549
2819.72389	0.12565
2817.79522	0.12583
2815.86654	0.12602
2813.93786	0.12623
2812.00919	0.12644
2810.08051	0.12664
2808.15184	0.12683
2806.22316	0.12699
2804.29449	0.12714
2802.36581	0.12731
2800.43713	0.12751
2798.50846	0.12772
2796.57978	0.12788
2794.65111	0.12802
2792.72243	0.12818
2790.79376	0.12836
2788.86508	0.12851
2786.93640	0.12865
2785.00773	0.12879
2783.07905	0.12896
2781.15038	0.12914
2779.22170	0.12931
2777.29303	0.12948
2775.36435	0.12968
2773.43567	0.12988
2771.50700	0.13002
2769.57832	0.13015
2767.64965	0.13030
2765.72097	0.13046
2763.79230	0.13061
2761.86362	0.13077
2759.93494	0.13096
2758.00627	0.13115
2756.07759	0.13130
2754.14892	0.13144
2752.22024	0.13161
2750.29157	0.13178
2748.36289	0.13192
2746.43421	0.13207
2744.50554	0.13223
2742.57686	0.13242
2740.64819	0.13261
2738.71951	0.13276
2736.79084	0.13288
2734.86216	0.13298
2732.93348	0.13309
2731.00481	0.13324
2729.07613	0.13342
2727.14746	0.13360
2725.21878	0.13377
2723.29011	0.13393
2721.36143	0.13410
2719.43275	0.13426
2717.50408	0.13439
2715.57540	0.13451
2713.64673	0.13466
2711.71805	0.13484
2709.78938	0.13503
2707.86070	0.13521
2705.93202	0.13534
2704.00335	0.13547
2702.07467	0.13562
2700.14600	0.13578
2698.21732	0.13593
2696.28865	0.13607
2694.35997	0.13621
2692.43129	0.13635
2690.50262	0.13645
2688.57394	0.13657
2686.64527	0.13672
2684.71659	0.13686
2682.78792	0.13702
2680.85924	0.13720
2678.93056	0.13737
2677.00189	0.13752
2675.07321	0.13765
2673.14454	0.13781
2671.21586	0.13799
2669.28719	0.13815
2667.35851	0.13828
2665.42983	0.13840
2663.50116	0.13855
2661.57248	0.13869
2659.64381	0.13882
2657.71513	0.13896
2655.78646	0.13913
2653.85778	0.13933
2651.92910	0.13953
2650.00043	0.13970
2648.07175	0.13984
2646.14308	0.13996
2644.21440	0.14007
2642.28573	0.14021
2640.35705	0.14041
2638.42837	0.14062
2636.49970	0.14081
2634.57102	0.14101
2632.64235	0.14119
2630.71367	0.14133
2628.78500	0.14145
2626.85632	0.14158
2624.92764	0.14171
2622.99897	0.14185
2621.07029	0.14201
2619.14162	0.14219
2617.21294	0.14238
2615.28427	0.14257
2613.35559	0.14270
2611.42691	0.14282
2609.49824	0.14296
2607.56956	0.14313
2605.64089	0.14330
2603.71221	0.14349
2601.78354	0.14368
2599.85486	0.14385
2597.92618	0.14402
2595.99751	0.14419
2594.06883	0.14434
2592.14016	0.14446
2590.21148	0.14458
2588.28281	0.14474
2586.35413	0.14491
2584.42545	0.14508
2582.49678	0.14525
2580.56810	0.14539
2578.63943	0.14552
2576.71075	0.14567
2574.78208	0.14581
2572.85340	0.14591
2570.92472	0.14602
2568.99605	0.14620
2567.06737	0.14642
2565.13870	0.14662
2563.21002	0.14677
2561.28135	0.14689
2559.35267	0.14698
2557.42399	0.14709
2555.49532	0.14724
2553.56664	0.14740
2551.63797	0.14755
2549.70929	0.14770
2547.78062	0.14785
2545.85194	0.14801
2543.92326	0.14816
2541.99459	0.14832
2540.06591	0.14847
2538.13724	0.14860
2536.20856	0.14873
2534.27989	0.14888
2532.35121	0.14904
2530.42253	0.14920
2528.49386	0.14936
2526.56518	0.14953
2524.63651	0.14969
2522.70783	0.14985
2520.77916	0.14997
2518.85048	0.15007
2516.92181	0.15018
2514.99313	0.15034
2513.06445	0.15054
2511.13578	0.15073
2509.20710	0.15093
2507.27843	0.15113
2505.34975	0.15130
2503.42108	0.15143
2501.49240	0.15155
2499.56372	0.15171
2497.63505	0.15189
2495.70637	0.15206
2493.77770	0.15227
2491.84902	0.15248
2489.92035	0.15263
2487.99167	0.15276
2486.06299	0.15289
2484.13432	0.15301
2482.20564	0.15316
2480.27697	0.15335
2478.34829	0.15355
2476.41962	0.15376
2474.49094	0.15394
2472.56226	0.15408
2470.63359	0.15419
2468.70491	0.15434
2466.77624	0.15449
2464.84756	0.15462
2462.91889	0.15474
2460.99021	0.15487
2459.06153	0.15503
2457.13286	0.15520
2455.20418	0.15536
2453.27551	0.15552
2451.34683	0.15568
2449.41816	0.15581
2447.48948	0.15597
2445.56080	0.15614
2443.63213	0.15631
2441.70345	0.15648
2439.77478	0.15667
2437.84610	0.15684
2435.91743	0.15695
2433.98875	0.15705
2432.06007	0.15718
2430.13140	0.15734
2428.20272	0.15751
2426.27405	0.15767
2424.34537	0.15785
2422.41670	0.15802
2420.48802	0.15815
2418.55934	0.15826
2416.63067	0.15839
2414.70199	0.15855
2412.77332	0.15872
2410.84464	0.15888
2408.91597	0.15903
2406.98729	0.15917
2405.05861	0.15933
2403.12994	0.15948
2401.20126	0.15962
2399.27259	0.15974
2397.34391	0.15984
2395.41524	0.15995
2393.48656	0.16010
2391.55788	0.16027
2389.62921	0.16044
2387.70053	0.16062
2385.77186	0.16076
2383.84318	0.16088
2381.91451	0.16097
2379.98583	0.16101
2378.05715	0.16100
2376.12848	0.16099
2374.19980	0.16100
2372.27113	0.16098
2370.34245	0.16093
2368.41378	0.16094
2366.48510	0.16103
2364.55642	0.16114
2362.62775	0.16124
2360.69907	0.16135
2358.77040	0.16150
2356.84172	0.16169
2354.91305	0.16194
2352.98437	0.16225
2351.05569	0.16259
2349.12702	0.16276
2347.19834	0.16265
2345.26967	0.16236
2343.34099	0.16203
2341.41232	0.16177
2339.48364	0.16177
2337.55496	0.16214
2335.62629	0.16277
2333.69761	0.16335
2331.76894	0.16369
2329.84026	0.16386
2327.91159	0.16402
2325.98291	0.16424
2324.05423	0.16447
2322.12556	0.16469
2320.19688	0.16490
2318.26821	0.16511
2316.33953	0.16533
2314.41086	0.16554
2312.48218	0.16572
2310.55350	0.16589
2308.62483	0.16603
2306.69615	0.16615
2304.76748	0.16628
2302.83880	0.16646
2300.91013	0.16664
2298.98145	0.16680
2297.05277	0.16692
2295.12410	0.16706
2293.19542	0.16719
2291.26675	0.16731
2289.33807	0.16743
2287.40940	0.16758
2285.48072	0.16772
2283.55204	0.16784
2281.62337	0.16798
2279.69469	0.16815
2277.76602	0.16830
2275.83734	0.16844
2273.90867	0.16857
2271.97999	0.16866
2270.05131	0.16877
2268.12264	0.16893
2266.19396	0.16909
2264.26529	0.16920
2262.33661	0.16932
2260.40794	0.16949
2258.47926	0.16966
2256.55058	0.16980
2254.62191	0.16993
2252.69323	0.17007
2250.76456	0.17023
2248.83588	0.17040
2246.90721	0.17057
2244.97853	0.17076
2243.04985	0.17095
2241.12118	0.17113
2239.19250	0.17130
2237.26383	0.17147
2235.33515	0.17161
2233.40648	0.17177
2231.47780	0.17198
2229.54912	0.17220
2227.62045	0.17238
2225.69177	0.17252
2223.76310	0.17266
2221.83442	0.17283
2219.90575	0.17300
2217.97707	0.17318
2216.04839	0.17334
2214.11972	0.17347
2212.19104	0.17360
2210.26237	0.17378
2208.33369	0.17398
2206.40502	0.17416
2204.47634	0.17430
2202.54766	0.17441
2200.61899	0.17452
2198.69031	0.17460
2196.76164	0.17470
2194.83296	0.17486
2192.90429	0.17507
2190.97561	0.17527
2189.04693	0.17545
2187.11826	0.17559
2185.18958	0.17570
2183.26091	0.17584
2181.33223	0.17599
2179.40356	0.17613
2177.47488	0.17629
2175.54620	0.17647
2173.61753	0.17664
2171.68885	0.17681
2169.76018	0.17700
2167.83150	0.17716
2165.90283	0.17729
2163.97415	0.17742
2162.04547	0.17753
2160.11680	0.17764
2158.18812	0.17779
2156.25945	0.17797
2154.33077	0.17816
2152.40210	0.17833
2150.47342	0.17845
2148.54474	0.17855
2146.61607	0.17869
2144.68739	0.17888
2142.75872	0.17902
2140.83004	0.17909
2138.90137	0.17917
2136.97269	0.17932
2135.04401	0.17951
2133.11534	0.17968
2131.18666	0.17981
2129.25799	0.17993
2127.32931	0.18007
2125.40064	0.18022
2123.47196	0.18035
2121.54328	0.18050
2119.61461	0.18069
2117.68593	0.18087
2115.75726	0.18104
2113.82858	0.18119
2111.89991	0.18131
2109.97123	0.18143
2108.04255	0.18157
2106.11388	0.18171
2104.18520	0.18189
2102.25653	0.18207
2100.32785	0.18222
2098.39918	0.18237
2096.47050	0.18254
2094.54182	0.18267
2092.61315	0.18277
2090.68447	0.18292
2088.75580	0.18311
2086.82712	0.18328
2084.89845	0.18343
2082.96977	0.18360
2081.04109	0.18376
2079.11242	0.18389
2077.18374	0.18397
2075.25507	0.18405
2073.32639	0.18416
2071.39772	0.18428
2069.46904	0.18444
2067.54036	0.18465
2065.61169	0.18484
2063.68301	0.18497
2061.75434	0.18506
2059.82566	0.18514
2057.89699	0.18527
2055.96831	0.18545
2054.03963	0.18562
2052.11096	0.18576
2050.18228	0.18589
2048.25361	0.18603
2046.32493	0.18618
2044.39626	0.18634
2042.46758	0.18652
2040.53890	0.18670
2038.61023	0.18683
2036.68155	0.18693
2034.75288	0.18707
2032.82420	0.18723
2030.89553	0.18738
2028.96685	0.18754
2027.03817	0.18769
2025.10950	0.18780
2023.18082	0.18791
2021.25215	0.18806
2019.32347	0.18821
2017.39480	0.18833
2015.46612	0.18847
2013.53744	0.18867
2011.60877	0.18885
2009.68009	0.18898
2007.75142	0.18909
2005.82274	0.18918
2003.89407	0.18925
2001.96539	0.18936
2000.03671	0.18952
1998.10804	0.18969
1996.17936	0.18983
1994.25069	0.18990
1992.32201	0.18994
1990.39334	0.19005
1988.46466	0.19024
1986.53598	0.19041
1984.60731	0.19050
1982.67863	0.19056
1980.74996	0.19068
1978.82128	0.19083
1976.89261	0.19097
1974.96393	0.19108
1973.03525	0.19114
1971.10658	0.19118
1969.17790	0.19122
1967.24923	0.19129
1965.32055	0.19146
1963.39188	0.19169
1961.46320	0.19188
1959.53452	0.19199
1957.60585	0.19209
1955.67717	0.19221
1953.74850	0.19233
1951.81982	0.19244
1949.89115	0.19252
1947.96247	0.19259
1946.03379	0.19269
1944.10512	0.19276
1942.17644	0.19287
1940.24777	0.19309
1938.31909	0.19331
1936.39042	0.19346
1934.46174	0.19358
1932.53306	0.19369
1930.60439	0.19377
1928.67571	0.19385
1926.74704	0.19397
1924.81836	0.19408
1922.88969	0.19418
1920.96101	0.19429
1919.03233	0.19440
1917.10366	0.19458
1915.17498	0.19480
1913.24631	0.19493
1911.31763	0.19500
1909.38896	0.19512
1907.46028	0.19530
1905.53160	0.19551
1903.60293	0.19566
1901.67425	0.19576
1899.74558	0.19586
1897.81690	0.19596
1895.88823	0.19605
1893.95955	0.19616
1892.03087	0.19627
1890.10220	0.19636
1888.17352	0.19653
1886.24485	0.19675
1884.31617	0.19689
1882.38750	0.19699
1880.45882	0.19710
1878.53014	0.19723
1876.60147	0.19732
1874.67279	0.19737
1872.74412	0.19738
1870.81544	0.19729
1868.88677	0.19731
1866.95809	0.19758
1865.02941	0.19791
1863.10074	0.19813
1861.17206	0.19830
1859.24339	0.19845
1857.31471	0.19859
1855.38604	0.19874
1853.45736	0.19892
1851.52868	0.19908
1849.60001	0.19916
1847.67133	0.19915
1845.74266	0.19913
1843.81398	0.19922
1841.88531	0.19948
1839.95663	0.19973
1838.02795	0.19990
1836.09928	0.20010
1834.17060	0.20026
1832.24193	0.20025
1830.31325	0.20019
1828.38458	0.20028
1826.45590	0.20043
1824.52722	0.20058
1822.59855	0.20080
1820.66987	0.20103
1818.74120	0.20122
1816.81252	0.20136
1814.88385	0.20140
1812.95517	0.20137
1811.02649	0.20141
1809.09782	0.20153
1807.16914	0.20167
1805.24047	0.20176
1803.31179	0.20176
1801.38312	0.20179
1799.45444	0.20194
1797.52576	0.20210
1795.59709	0.20204
1793.66841	0.20183
1791.73974	0.20183
1789.81106	0.20213
1787.88239	0.20233
1785.95371	0.20234
1784.02503	0.20241
1782.09636	0.20261
1780.16768	0.20285
1778.23901	0.20305
1776.31033	0.20304
1774.38166	0.20280
1772.45298	0.20260
1770.52430	0.20267
1768.59563	0.20292
1766.66695	0.20313
1764.73828	0.20316
1762.80960	0.20301
1760.88093	0.20297
1758.95225	0.20306
1757.02357	0.20313
1755.09490	0.20303
1753.16622	0.20257
1751.23755	0.20208
1749.30887	0.20209
1747.38020	0.20235
1745.45152	0.20245
1743.52284	0.20235
1741.59417	0.20212
1739.66549	0.20196
1737.73682	0.20195
1735.80814	0.20178
1733.87947	0.20161
1731.95079	0.20183
1730.02211	0.20221
1728.09344	0.20246
1726.16476	0.20257
1724.23609	0.20255
1722.30741	0.20244
1720.37874	0.20213
1718.45006	0.20171
1716.52138	0.20165
1714.59271	0.20202
1712.66403	0.20245
1710.73536	0.20269
1708.80668	0.20267
1706.87801	0.20251
1704.94933	0.20237
1703.02065	0.20209
1701.09198	0.20172
1699.16330	0.20172
1697.23463	0.20201
1695.30595	0.20230
1693.37728	0.20255
1691.44860	0.20261
1689.51992	0.20257
1687.59125	0.20245
1685.66257	0.20208
1683.73390	0.20185
1681.80522	0.20207
1679.87655	0.20232
1677.94787	0.20216
1676.01919	0.20180
1674.09052	0.20178
1672.16184	0.20198
1670.23317	0.20212
1668.30449	0.20233
1666.37582	0.20250
1664.44714	0.20241
1662.51846	0.20235
1660.58979	0.20254
1658.66111	0.20267
1656.73244	0.20234
1654.80376	0.20159
1652.87509	0.20118
1650.94641	0.20148
1649.01773	0.20177
1647.08906	0.20186
1645.16038	0.20218
1643.23171	0.20258
1641.30303	0.20274
1639.37436	0.20262
1637.44568	0.20233
1635.51700	0.20227
1633.58833	0.20258
1631.65965	0.20283
1629.73098	0.20281
1627.80230	0.20271
1625.87363	0.20254
1623.94495	0.20217
1622.01627	0.20181
1620.08760	0.20175
1618.15892	0.20195
1616.23025	0.20244
1614.30157	0.20314
1612.37290	0.20368
1610.44422	0.20399
1608.51554	0.20430
1606.58687	0.20465
1604.65819	0.20496
1602.72952	0.20516
1600.80084	0.20534
1598.87217	0.20554
1596.94349	0.20571
1595.01481	0.20586
1593.08614	0.20600
1591.15746	0.20616
1589.22879	0.20633
1587.30011	0.20650
1585.37144	0.20666
1583.44276	0.20685
1581.51408	0.20703
1579.58541	0.20698
1577.65673	0.20670
1575.72806	0.20672
1573.79938	0.20717
1571.87071	0.20750
1569.94203	0.20756
1568.01335	0.20767
1566.08468	0.20784
1564.15600	0.20785
1562.22733	0.20742
1560.29865	0.20682
1558.36998	0.20692
1556.44130	0.20773
1554.51262	0.20845
1552.58395	0.20879
1550.65527	0.20890
1548.72660	0.20888
1546.79792	0.20870
1544.86925	0.20841
1542.94057	0.20822
1541.01189	0.20828
1539.08322	0.20870
1537.15454	0.20912
1535.22587	0.20910
1533.29719	0.20908
1531.36852	0.20949
1529.43984	0.20984
1527.51116	0.20981
1525.58249	0.20961
1523.65381	0.20933
1521.72514	0.20912
1519.79646	0.20925
1517.86779	0.20952
1515.93911	0.20974
1514.01043	0.20993
1512.08176	0.21000
1510.15308	0.20972
1508.22441	0.20920
1506.29573	0.20916
1504.36706	0.20982
1502.43838	0.21032
1500.50970	0.21021
1498.58103	0.20989
1496.65235	0.20985
1494.72368	0.21012
1492.79500	0.21021
1490.86633	0.20993
1488.93765	0.20960
1487.00897	0.20949
1485.08030	0.20952
1483.15162	0.20945
1481.22295	0.20924
1479.29427	0.20886
1477.36560	0.20828
1475.43692	0.20764
1473.50824	0.20711
1471.57957	0.20682
1469.65089	0.20666
1467.72222	0.20628
1465.79354	0.20573
1463.86487	0.20550
1461.93619	0.20548
1460.00751	0.20500
1458.07884	0.20419
1456.15016	0.20401
1454.22149	0.20451
1452.29281	0.20485
1450.36414	0.20484
1448.43546	0.20477
1446.50678	0.20481
1444.57811	0.20495
1442.64943	0.20514
1440.72076	0.20520
1438.79208	0.20503
1436.86341	0.20491
1434.93473	0.20511
1433.00605	0.20537
1431.07738	0.20545
1429.14870	0.20550
1427.22003	0.20556
1425.29135	0.20552
1423.36268	0.20531
1421.43400	0.20476
1419.50532	0.20422
1417.57665	0.20435
1415.64797	0.20487
1413.71930	0.20511
1411.79062	0.20511
1409.86195	0.20509
1407.93327	0.20506
1406.00459	0.20501
1404.07592	0.20496
1402.14724	0.20490
1400.21857	0.20475
1398.28989	0.20458
1396.36122	0.20444
1394.43254	0.20440
1392.50386	0.20446
1390.57519	0.20437
1388.64651	0.20405
1386.71784	0.20365
1384.78916	0.20341
1382.86049	0.20340
1380.93181	0.20348
1379.00313	0.20349
1377.07446	0.20334
1375.14578	0.20310
1373.21711	0.20306
1371.28843	0.20320
1369.35976	0.20326
1367.43108	0.20315
1365.50240	0.20294
1363.57373	0.20268
1361.64505	0.20256
1359.71638	0.20264
1357.78770	0.20275
1355.85903	0.20282
1353.93035	0.20293
1352.00167	0.20307
1350.07300	0.20317
1348.14432	0.20322
1346.21565	0.20326
1344.28697	0.20325
1342.35830	0.20310
1340.42962	0.20285
1338.50094	0.20269
1336.57227	0.20266
1334.64359	0.20261
1332.71492	0.20249
1330.78624	0.20230
1328.85757	0.20201
1326.92889	0.20167
1325.00021	0.20140
1323.07154	0.20118
1321.14286	0.20094
1319.21419	0.20064
1317.28551	0.20036
1315.35684	0.20014
1313.42816	0.19991
1311.49948	0.19961
1309.57081	0.19923
1307.64213	0.19882
1305.71346	0.19841
1303.78478	0.19806
1301.85611	0.19778
1299.92743	0.19754
1297.99875	0.19726
1296.07008	0.19694
1294.14140	0.19659
1292.21273	0.19618
1290.28405	0.19570
1288.35538	0.19520
1286.42670	0.19469
1284.49802	0.19416
1282.56935	0.19360
1280.64067	0.19306
1278.71200	0.19252
1276.78332	0.19194
1274.85465	0.19137
1272.92597	0.19081
1270.99729	0.19014
1269.06862	0.18931
1267.13994	0.18839
1265.21127	0.18754
1263.28259	0.18689
1261.35392	0.18650
1259.42524	0.18638
1257.49656	0.18639
1255.56789	0.18637
1253.63921	0.18619
1251.71054	0.18583
1249.78186	0.18531
1247.85319	0.18469
1245.92451	0.18405
1243.99583	0.18334
1242.06716	0.18253
1240.13848	0.18158
1238.20981	0.18054
1236.28113	0.17948
1234.35246	0.17841
1232.42378	0.17734
1230.49510	0.17624
1228.56643	0.17513
1226.63775	0.17403
1224.70908	0.17289
1222.78040	0.17168
1220.85173	0.17048
1218.92305	0.16931
1216.99437	0.16809
1215.06570	0.16684
1213.13702	0.16562
1211.20835	0.16442
1209.27967	0.16315
1207.35100	0.16183
1205.42232	0.16058
1203.49364	0.15935
1201.56497	0.15809
1199.63629	0.15685
1197.70762	0.15569
1195.77894	0.15459
1193.85027	0.15351
1191.92159	0.15235
1189.99291	0.15107
1188.06424	0.14977
1186.13556	0.14851
1184.20689	0.14727
1182.27821	0.14599
1180.34954	0.14475
1178.42086	0.14356
1176.49218	0.14234
1174.56351	0.14107
1172.63483	0.13982
1170.70616	0.13864
1168.77748	0.13743
1166.84881	0.13611
1164.92013	0.13482
1162.99145	0.13367
1161.06278	0.13264
1159.13410	0.13163
1157.20543	0.13058
1155.27675	0.12952
1153.34808	0.12845
1151.41940	0.12733
1149.49072	0.12620
1147.56205	0.12509
1145.63337	0.12399
1143.70470	0.12285
1141.77602	0.12169
1139.84735	0.12049
1137.91867	0.11929
1135.98999	0.11805
1134.06132	0.11664
1132.13264	0.11498
1130.20397	0.11313
1128.27529	0.11117
1126.34662	0.10911
1124.41794	0.10699
1122.48926	0.10485
1120.56059	0.10274
1118.63191	0.10070
1116.70324	0.09877
1114.77456	0.09694
1112.84589	0.09529
1110.91721	0.09393
1108.98853	0.09278
1107.05986	0.09180
1105.13118	0.09102
1103.20251	0.09042
1101.27383	0.08997
1099.34516	0.08969
1097.41648	0.08950
1095.48780	0.08934
1093.55913	0.08915
1091.63045	0.08892
1089.70178	0.08865
1087.77310	0.08831
1085.84443	0.08783
1083.91575	0.08723
1081.98707	0.08654
1080.05840	0.08573
1078.12972	0.08484
1076.20105	0.08395
1074.27237	0.08311
1072.34370	0.08231
1070.41502	0.08153
1068.48634	0.08084
1066.55767	0.08023
1064.62899	0.07961
1062.70032	0.07898
1060.77164	0.07847
1058.84297	0.07813
1056.91429	0.07788
1054.98561	0.07775
1053.05694	0.07772
1051.12826	0.07773
1049.19959	0.07780
1047.27091	0.07797
1045.34224	0.07830
1043.41356	0.07873
1041.48488	0.07921
1039.55621	0.07972
1037.62753	0.08033
1035.69886	0.08111
1033.77018	0.08201
1031.84151	0.08299
1029.91283	0.08401
1027.98415	0.08505
1026.05548	0.08622
1024.12680	0.08753
1022.19813	0.08890
1020.26945	0.09035
1018.34078	0.09198
1016.41210	0.09381
1014.48342	0.09571
1012.55475	0.09766
1010.62607	0.09973
1008.69740	0.10189
1006.76872	0.10404
1004.84005	0.10619
1002.91137	0.10831
1000.98269	0.11038
999.05402	0.11242
997.12534	0.11444
995.19667	0.11637
993.26799	0.11815
991.33932	0.11977
989.41064	0.12126
987.48196	0.12259
985.55329	0.12380
983.62461	0.12498
981.69594	0.12613
979.76726	0.12713
977.83859	0.12793
975.90991	0.12855
973.98123	0.12899
972.05256	0.12929
970.12388	0.12950
968.19521	0.12973
966.26653	0.12999
964.33786	0.13026
962.40918	0.13049
960.48050	0.13062
958.55183	0.13064
956.62315	0.13062
954.69448	0.13061
952.76580	0.13054
950.83713	0.13045
948.90845	0.13041
946.97977	0.13036
945.05110	0.13022
943.12242	0.13001
941.19375	0.12976
939.26507	0.12947
937.33640	0.12912
935.40772	0.12870
933.47904	0.12826
931.55037	0.12786
929.62169	0.12746
927.69302	0.12705
925.76434	0.12664
923.83567	0.12620
921.90699	0.12564
919.97831	0.12499
918.04964	0.12433
916.12096	0.12372
914.19229	0.12311
912.26361	0.12242
910.33494	0.12172
908.40626	0.12111
906.47758	0.12059
904.54891	0.12006
902.62023	0.11945
900.69156	0.11876
898.76288	0.11802
896.83421	0.11731
894.90553	0.11672
892.97685	0.11622
891.04818	0.11577
889.11950	0.11540
887.19083	0.11510
885.26215	0.11479
883.33348	0.11444
881.40480	0.11413
879.47612	0.11391
877.54745	0.11372
875.61877	0.11368
873.69010	0.11387
871.76142	0.11410
869.83275	0.11424
867.90407	0.11431
865.97539	0.11436
864.04672	0.11443
862.11804	0.11454
860.18937	0.11463
858.26069	0.11467
856.33202	0.11469
854.40334	0.11464
852.47466	0.11442
850.54599	0.11407
848.61731	0.11365
846.68864	0.11319
844.75996	0.11275
842.83129	0.11237
840.90261	0.11200
838.97394	0.11156
837.04526	0.11099
835.11658	0.11025
833.18791	0.10933
831.25923	0.10827
829.33056	0.10708
827.40188	0.10583
825.47321	0.10465
823.54453	0.10371
821.61585	0.10296
819.68718	0.10224
817.75850	0.10155
815.82983	0.10101
813.90115	0.10058
811.97248	0.10019
810.04380	0.09986
808.11512	0.09957
806.18645	0.09936
804.25777	0.09923
802.32910	0.09913
800.40042	0.09898
798.47175	0.09861
796.54307	0.09809
794.61439	0.09766
792.68572	0.09740
790.75704	0.09723
788.82837	0.09708
786.89969	0.09700
784.97102	0.09704
783.04234	0.09709
781.11366	0.09709
779.18499	0.09702
777.25631	0.09686
775.32764	0.09667
773.39896	0.09651
771.47029	0.09634
769.54161	0.09622
767.61293	0.09617
765.68426	0.09613
763.75558	0.09596
761.82691	0.09565
759.89823	0.09525
757.96956	0.09481
756.04088	0.09436
754.11220	0.09391
752.18353	0.09347
750.25485	0.09299
748.32618	0.09247
746.39750	0.09192
744.46883	0.09125
742.54015	0.09050
740.61147	0.08983
738.68280	0.08932
736.75412	0.08908
734.82545	0.08915
732.89677	0.08939
730.96810	0.08967
729.03942	0.08987
727.11074	0.08996
725.18207	0.08996
723.25339	0.08995
721.32472	0.09007
719.39604	0.09033
717.46737	0.09071
715.53869	0.09115
713.61001	0.09160
711.68134	0.09198
709.75266	0.09224
707.82399	0.09235
705.89531	0.09227
703.96664	0.09206
702.03796	0.09182
700.10928	0.09152
698.18061	0.09107
696.25193	0.09055
694.32326	0.09004
692.39458	0.08945
690.46591	0.08880
688.53723	0.08820
686.60855	0.08769
684.67988	0.08717
682.75120	0.08667
680.82253	0.08625
678.89385	0.08582
676.96518	0.08530
675.03650	0.08472
673.10782	0.08411
671.17915	0.08327
669.25047	0.08225
667.32180	0.08141
665.39312	0.08077
663.46445	0.08005
661.53577	0.07924
659.60709	0.07844
657.67842	0.07761
655.74974	0.07674
653.82107	0.07594
651.89239	0.07522
649.96372	0.07449
648.03504	0.07362
646.10636	0.07263
644.17769	0.07170
642.24901	0.07091
640.32034	0.07010
638.39166	0.06920
636.46299	0.06821
634.53431	0.06706
632.60563	0.06553
630.67696	0.06319
628.74828	0.05980
626.81961	0.05564
624.89093	0.05148
622.96226	0.04828
621.03358	0.04635
619.10490	0.04521
617.17623	0.04429
615.24755	0.04327
613.31888	0.04217
611.39020	0.04123
609.46153	0.04075
607.53285	0.04084
605.60417	0.04129
603.67550	0.04196
601.74682	0.04277
599.81815	0.04351
597.88947	0.04402
595.96080	0.04443
594.03212	0.04482
592.10344	0.04514
590.17477	0.04536
588.24609	0.04544
586.31742	0.04536
584.38874	0.04518
582.46007	0.04489
580.53139	0.04448
578.60271	0.04401
576.67404	0.04349
574.74536	0.04295
572.81669	0.04243
570.88801	0.04189
568.95934	0.04133
567.03066	0.04086
565.10198	0.04040
563.17331	0.03997
561.24463	0.03964
559.31596	0.03940
557.38728	0.03921
555.45861	0.03904
553.52993	0.03887
551.60125	0.03874
549.67258	0.03862
547.74390	0.03846
545.81523	0.03829
543.88655	0.03808
541.95788	0.03781
540.02920	0.03765
538.10052	0.03753
536.17185	0.03734
534.24317	0.03716
532.31450	0.03703
530.38582	0.03682
528.45715	0.03647
526.52847	0.03613
524.59979	0.03587
522.67112	0.03549
520.74244	0.03490
518.81377	0.03427
516.88509	0.03366
514.95642	0.03308
513.02774	0.03270
511.09906	0.03255
509.17039	0.03236
507.24171	0.03199
505.31304	0.03152
503.38436	0.03103
501.45569	0.03063
499.52701	0.03025
497.59833	0.02981
495.66966	0.02932
493.74098	0.02875
491.81231	0.02800
489.88363	0.02714
487.95496	0.02637
486.02628	0.02574
484.09760	0.02523
482.16893	0.02480
480.24025	0.02436
478.31158	0.02385
476.38290	0.02327
474.45423	0.02268
472.52555	0.02206
470.59687	0.02142
468.66820	0.02088
466.73952	0.02049
464.81085	0.02022
462.88217	0.02001
460.95350	0.01980
459.02482	0.01962
457.09614	0.01950
455.16747	0.01938
453.23879	0.01922
451.31012	0.01911
449.38144	0.01910
447.45277	0.01903
445.52409	0.01883
443.59541	0.01863
441.66674	0.01845
439.73806	0.01820
437.80939	0.01783
435.88071	0.01732
433.95204	0.01678
432.02336	0.01631
430.09468	0.01587
428.16601	0.01544
426.23733	0.01506
424.30866	0.01471
422.37998	0.01431
420.45131	0.01377
418.52263	0.01307
416.59395	0.01235
414.66528	0.01177
412.73660	0.01137
410.80793	0.01103
408.87925	0.01067
406.95058	0.01026
405.02190	0.00982
403.09322	0.00931
401.16455	0.00869
399.23587	0.00806
397.30720	0.00751
395.37852	0.00703
393.44985	0.00663
391.52117	0.00632
389.59249	0.00597
387.66382	0.00550
385.73514	0.00500
383.80647	0.00452
381.87779	0.00414
379.94912	0.00389
378.02044	0.00366
376.09176	0.00346
374.16309	0.00326
372.23441	0.00299
370.30574	0.00270
368.37706	0.00241
