7496.76250	0.00121
7494.83382	0.00123
7492.90514	0.00123
7490.97647	0.00123
7489.04779	0.00123
7487.11912	0.00124
7485.19044	0.00126
7483.26177	0.00127
7481.33309	0.00127
7479.40441	0.00127
7477.47574	0.00126
7475.54706	0.00126
7473.61839	0.00127
7471.68971	0.00127
7469.76104	0.00127
7467.83236	0.00126
7465.90368	0.00125
7463.97501	0.00124
7462.04633	0.00125
7460.11766	0.00127
7458.18898	0.00129
7456.26031	0.00130
7454.33163	0.00129
7452.40295	0.00128
7450.47428	0.00128
7448.54560	0.00129
7446.61693	0.00130
7444.68825	0.00131
7442.75958	0.00132
7440.83090	0.00132
7438.90222	0.00133
7436.97355	0.00133
7435.04487	0.00133
7433.11620	0.00133
7431.18752	0.00134
7429.25885	0.00135
7427.33017	0.00135
7425.40149	0.00134
7423.47282	0.00135
7421.54414	0.00136
7419.61547	0.00135
7417.68679	0.00135
7415.75812	0.00136
7413.82944	0.00137
7411.90076	0.00139
7409.97209	0.00139
7408.04341	0.00138
7406.11474	0.00138
7404.18606	0.00139
7402.25739	0.00140
7400.32871	0.00140
7398.40003	0.00140
7396.47136	0.00140
7394.54268	0.00140
7392.61401	0.00140
7390.68533	0.00142
7388.75666	0.00144
7386.82798	0.00144
7384.89930	0.00143
7382.97063	0.00142
7381.04195	0.00141
7379.11328	0.00140
7377.18460	0.00139
7375.25593	0.00140
7373.32725	0.00142
7371.39857	0.00144
7369.46990	0.00145
7367.54122	0.00146
7365.61255	0.00145
7363.68387	0.00145
7361.75520	0.00146
7359.82652	0.00147
7357.89784	0.00148
7355.96917	0.00150
7354.04049	0.00150
7352.11182	0.00149
7350.18314	0.00148
7348.25447	0.00147
7346.32579	0.00147
7344.39711	0.00150
7342.46844	0.00153
7340.53976	0.00153
7338.61109	0.00153
7336.68241	0.00154
7334.75374	0.00154
7332.82506	0.00154
7330.89638	0.00154
7328.96771	0.00153
7327.03903	0.00152
7325.11036	0.00153
7323.18168	0.00154
7321.25301	0.00154
7319.32433	0.00154
7317.39565	0.00155
7315.46698	0.00155
7313.53830	0.00156
7311.60963	0.00158
7309.68095	0.00157
7307.75228	0.00156
7305.82360	0.00156
7303.89492	0.00157
7301.96625	0.00159
7300.03757	0.00160
7298.10890	0.00160
7296.18022	0.00159
7294.25155	0.00159
7292.32287	0.00160
7290.39419	0.00159
7288.46552	0.00159
7286.53684	0.00160
7284.60817	0.00161
7282.67949	0.00161
7280.75082	0.00162
7278.82214	0.00163
7276.89346	0.00163
7274.96479	0.00163
7273.03611	0.00163
7271.10744	0.00165
7269.17876	0.00166
7267.25009	0.00167
7265.32141	0.00167
7263.39273	0.00167
7261.46406	0.00167
7259.53538	0.00168
7257.60671	0.00168
7255.67803	0.00167
7253.74936	0.00167
7251.82068	0.00168
7249.89200	0.00170
7247.96333	0.00171
7246.03465	0.00172
7244.10598	0.00172
7242.17730	0.00171
7240.24863	0.00171
7238.31995	0.00171
7236.39127	0.00172
7234.46260	0.00172
7232.53392	0.00173
7230.60525	0.00174
7228.67657	0.00175
7226.74790	0.00175
7224.81922	0.00174
7222.89054	0.00175
7220.96187	0.00176
7219.03319	0.00177
7217.10452	0.00178
7215.17584	0.00178
7213.24717	0.00178
7211.31849	0.00178
7209.38981	0.00178
7207.46114	0.00178
7205.53246	0.00179
7203.60379	0.00179
7201.67511	0.00179
7199.74644	0.00180
7197.81776	0.00181
7195.88908	0.00181
7193.96041	0.00183
7192.03173	0.00184
7190.10306	0.00184
7188.17438	0.00184
7186.24571	0.00184
7184.31703	0.00185
7182.38835	0.00186
7180.45968	0.00186
7178.53100	0.00185
7176.60233	0.00184
7174.67365	0.00184
7172.74498	0.00184
7170.81630	0.00185
7168.88762	0.00185
7166.95895	0.00185
7165.03027	0.00184
7163.10160	0.00184
7161.17292	0.00187
7159.24425	0.00190
7157.31557	0.00190
7155.38689	0.00189
7153.45822	0.00190
7151.52954	0.00191
7149.60087	0.00193
7147.67219	0.00193
7145.74352	0.00191
7143.81484	0.00189
7141.88616	0.00190
7139.95749	0.00192
7138.02881	0.00193
7136.10014	0.00195
7134.17146	0.00196
7132.24279	0.00197
7130.31411	0.00197
7128.38543	0.00197
7126.45676	0.00198
7124.52808	0.00198
7122.59941	0.00197
7120.67073	0.00195
7118.74206	0.00195
7116.81338	0.00196
7114.88470	0.00198
7112.95603	0.00199
7111.02735	0.00201
7109.09868	0.00201
7107.17000	0.00202
7105.24133	0.00202
7103.31265	0.00202
7101.38397	0.00202
7099.45530	0.00203
7097.52662	0.00204
7095.59795	0.00204
7093.66927	0.00205
7091.74060	0.00205
7089.81192	0.00205
7087.88324	0.00206
7085.95457	0.00205
7084.02589	0.00205
7082.09722	0.00206
7080.16854	0.00206
7078.23987	0.00206
7076.31119	0.00207
7074.38251	0.00209
7072.45384	0.00210
7070.52516	0.00210
7068.59649	0.00210
7066.66781	0.00210
7064.73914	0.00210
7062.81046	0.00210
7060.88178	0.00213
7058.95311	0.00214
7057.02443	0.00215
7055.09576	0.00215
7053.16708	0.00215
7051.23841	0.00215
7049.30973	0.00215
7047.38105	0.00215
7045.45238	0.00215
7043.52370	0.00216
7041.59503	0.00217
7039.66635	0.00218
7037.73768	0.00219
7035.80900	0.00219
7033.88032	0.00220
7031.95165	0.00219
7030.02297	0.00220
7028.09430	0.00222
7026.16562	0.00223
7024.23695	0.00222
7022.30827	0.00221
7020.37959	0.00221
7018.45092	0.00222
7016.52224	0.00224
7014.59357	0.00226
7012.66489	0.00226
7010.73622	0.00224
7008.80754	0.00224
7006.87886	0.00225
7004.95019	0.00225
7003.02151	0.00225
7001.09284	0.00226
6999.16416	0.00227
6997.23549	0.00227
6995.30681	0.00227
6993.37813	0.00227
6991.44946	0.00227
6989.52078	0.00228
6987.59211	0.00230
6985.66343	0.00231
6983.73476	0.00233
6981.80608	0.00234
6979.87740	0.00234
6977.94873	0.00233
6976.02005	0.00233
6974.09138	0.00233
6972.16270	0.00234
6970.23403	0.00236
6968.30535	0.00237
6966.37667	0.00238
6964.44800	0.00239
6962.51932	0.00239
6960.59065	0.00240
6958.66197	0.00242
6956.73330	0.00243
6954.80462	0.00243
6952.87594	0.00243
6950.94727	0.00243
6949.01859	0.00243
6947.08992	0.00243
6945.16124	0.00244
6943.23257	0.00243
6941.30389	0.00243
6939.37521	0.00244
6937.44654	0.00244
6935.51786	0.00246
6933.58919	0.00247
6931.66051	0.00248
6929.73184	0.00249
6927.80316	0.00251
6925.87448	0.00252
6923.94581	0.00251
6922.01713	0.00251
6920.08846	0.00251
6918.15978	0.00253
6916.23111	0.00253
6914.30243	0.00252
6912.37375	0.00252
6910.44508	0.00252
6908.51640	0.00253
6906.58773	0.00253
6904.65905	0.00253
6902.73038	0.00254
6900.80170	0.00255
6898.87302	0.00256
6896.94435	0.00256
6895.01567	0.00256
6893.08700	0.00255
6891.15832	0.00255
6889.22965	0.00257
6887.30097	0.00260
6885.37229	0.00261
6883.44362	0.00261
6881.51494	0.00261
6879.58627	0.00263
6877.65759	0.00263
6875.72892	0.00263
6873.80024	0.00264
6871.87156	0.00266
6869.94289	0.00266
6868.01421	0.00267
6866.08554	0.00268
6864.15686	0.00269
6862.22819	0.00268
6860.29951	0.00268
6858.37083	0.00268
6856.44216	0.00268
6854.51348	0.00268
6852.58481	0.00269
6850.65613	0.00270
6848.72746	0.00270
6846.79878	0.00270
6844.87010	0.00271
6842.94143	0.00273
6841.01275	0.00275
6839.08408	0.00276
6837.15540	0.00275
6835.22673	0.00276
6833.29805	0.00278
6831.36937	0.00279
6829.44070	0.00280
6827.51202	0.00281
6825.58335	0.00282
6823.65467	0.00283
6821.72600	0.00282
6819.79732	0.00280
6817.86864	0.00280
6815.93997	0.00280
6814.01129	0.00281
6812.08262	0.00283
6810.15394	0.00284
6808.22527	0.00284
6806.29659	0.00285
6804.36791	0.00286
6802.43924	0.00286
6800.51056	0.00287
6798.58189	0.00288
6796.65321	0.00289
6794.72454	0.00289
6792.79586	0.00290
6790.86718	0.00290
6788.93851	0.00290
6787.00983	0.00290
6785.08116	0.00291
6783.15248	0.00292
6781.22381	0.00292
6779.29513	0.00293
6777.36645	0.00294
6775.43778	0.00294
6773.50910	0.00295
6771.58043	0.00296
6769.65175	0.00298
6767.72308	0.00299
6765.79440	0.00300
6763.86572	0.00300
6761.93705	0.00299
6760.00837	0.00299
6758.07970	0.00301
6756.15102	0.00304
6754.22235	0.00306
6752.29367	0.00306
6750.36499	0.00304
6748.43632	0.00303
6746.50764	0.00305
6744.57897	0.00306
6742.65029	0.00307
6740.72162	0.00308
6738.79294	0.00308
6736.86426	0.00309
6734.93559	0.00311
6733.00691	0.00311
6731.07824	0.00312
6729.14956	0.00314
6727.22089	0.00315
6725.29221	0.00314
6723.36353	0.00314
6721.43486	0.00315
6719.50618	0.00317
6717.57751	0.00317
6715.64883	0.00316
6713.72016	0.00316
6711.79148	0.00318
6709.86280	0.00320
6707.93413	0.00321
6706.00545	0.00322
6704.07678	0.00323
6702.14810	0.00323
6700.21943	0.00323
6698.29075	0.00324
6696.36207	0.00323
6694.43340	0.00323
6692.50472	0.00323
6690.57605	0.00324
6688.64737	0.00325
6686.71870	0.00326
6684.79002	0.00328
6682.86134	0.00329
6680.93267	0.00329
6679.00399	0.00328
6677.07532	0.00328
6675.14664	0.00329
6673.21797	0.00330
6671.28929	0.00332
6669.36061	0.00334
6667.43194	0.00333
6665.50326	0.00333
6663.57459	0.00335
6661.64591	0.00338
6659.71724	0.00340
6657.78856	0.00338
6655.85988	0.00337
6653.93121	0.00338
6652.00253	0.00340
6650.07386	0.00343
6648.14518	0.00343
6646.21651	0.00343
6644.28783	0.00342
6642.35915	0.00342
6640.43048	0.00342
6638.50180	0.00343
6636.57313	0.00344
6634.64445	0.00346
6632.71578	0.00348
6630.78710	0.00348
6628.85842	0.00348
6626.92975	0.00350
6625.00107	0.00352
6623.07240	0.00352
6621.14372	0.00352
6619.21505	0.00353
6617.28637	0.00354
6615.35769	0.00355
6613.42902	0.00355
6611.50034	0.00356
6609.57167	0.00357
6607.64299	0.00358
6605.71432	0.00359
6603.78564	0.00360
6601.85696	0.00361
6599.92829	0.00362
6597.99961	0.00364
6596.07094	0.00364
6594.14226	0.00363
6592.21359	0.00362
6590.28491	0.00363
6588.35623	0.00365
6586.42756	0.00367
6584.49888	0.00368
6582.57021	0.00367
6580.64153	0.00368
6578.71286	0.00369
6576.78418	0.00371
6574.85550	0.00372
6572.92683	0.00372
6570.99815	0.00371
6569.06948	0.00373
6567.14080	0.00374
6565.21213	0.00375
6563.28345	0.00375
6561.35477	0.00377
6559.42610	0.00378
6557.49742	0.00380
6555.56875	0.00381
6553.64007	0.00383
6551.71140	0.00384
6549.78272	0.00385
6547.85404	0.00385
6545.92537	0.00386
6543.99669	0.00387
6542.06802	0.00387
6540.13934	0.00386
6538.21067	0.00386
6536.28199	0.00387
6534.35331	0.00389
6532.42464	0.00390
6530.49596	0.00392
6528.56729	0.00393
6526.63861	0.00394
6524.70994	0.00395
6522.78126	0.00396
6520.85258	0.00397
6518.92391	0.00398
6516.99523	0.00399
6515.06656	0.00399
6513.13788	0.00399
6511.20921	0.00400
6509.28053	0.00402
6507.35185	0.00403
6505.42318	0.00403
6503.49450	0.00405
6501.56583	0.00407
6499.63715	0.00409
6497.70848	0.00408
6495.77980	0.00407
6493.85112	0.00408
6491.92245	0.00409
6489.99377	0.00410
6488.06510	0.00411
6486.13642	0.00413
6484.20775	0.00414
6482.27907	0.00414
6480.35039	0.00414
6478.42172	0.00415
6476.49304	0.00416
6474.56437	0.00417
6472.63569	0.00417
6470.70702	0.00417
6468.77834	0.00419
6466.84966	0.00420
6464.92099	0.00420
6462.99231	0.00422
6461.06364	0.00424
6459.13496	0.00426
6457.20629	0.00427
6455.27761	0.00426
6453.34893	0.00425
6451.42026	0.00425
6449.49158	0.00428
6447.56291	0.00431
6445.63423	0.00432
6443.70556	0.00432
6441.77688	0.00433
6439.84820	0.00435
6437.91953	0.00436
6435.99085	0.00437
6434.06218	0.00438
6432.13350	0.00440
6430.20483	0.00442
6428.27615	0.00443
6426.34747	0.00444
6424.41880	0.00444
6422.49012	0.00444
6420.56145	0.00445
6418.63277	0.00446
6416.70410	0.00446
6414.77542	0.00446
6412.84674	0.00447
6410.91807	0.00448
6408.98939	0.00450
6407.06072	0.00452
6405.13204	0.00454
6403.20337	0.00455
6401.27469	0.00455
6399.34601	0.00456
6397.41734	0.00457
6395.48866	0.00457
6393.55999	0.00458
6391.63131	0.00461
6389.70264	0.00462
6387.77396	0.00462
6385.84528	0.00464
6383.91661	0.00464
6381.98793	0.00463
6380.05926	0.00465
6378.13058	0.00469
6376.20191	0.00472
6374.27323	0.00474
6372.34455	0.00474
6370.41588	0.00474
6368.48720	0.00474
6366.55853	0.00476
6364.62985	0.00477
6362.70118	0.00477
6360.77250	0.00479
6358.84382	0.00479
6356.91515	0.00480
6354.98647	0.00481
6353.05780	0.00481
6351.12912	0.00482
6349.20045	0.00482
6347.27177	0.00482
6345.34309	0.00483
6343.41442	0.00486
6341.48574	0.00488
6339.55707	0.00489
6337.62839	0.00490
6335.69972	0.00492
6333.77104	0.00493
6331.84236	0.00495
6329.91369	0.00496
6327.98501	0.00496
6326.05634	0.00498
6324.12766	0.00500
6322.19899	0.00501
6320.27031	0.00503
6318.34163	0.00504
6316.41296	0.00505
6314.48428	0.00505
6312.55561	0.00505
6310.62693	0.00505
6308.69826	0.00507
6306.76958	0.00507
6304.84090	0.00508
6302.91223	0.00510
6300.98355	0.00512
6299.05488	0.00515
6297.12620	0.00516
6295.19753	0.00517
6293.26885	0.00517
6291.34017	0.00518
6289.41150	0.00518
6287.48282	0.00519
6285.55415	0.00521
6283.62547	0.00523
6281.69680	0.00523
6279.76812	0.00522
6277.83944	0.00522
6275.91077	0.00524
6273.98209	0.00526
6272.05342	0.00529
6270.12474	0.00531
6268.19607	0.00531
6266.26739	0.00530
6264.33871	0.00531
6262.41004	0.00534
6260.48136	0.00535
6258.55269	0.00536
6256.62401	0.00538
6254.69534	0.00541
6252.76666	0.00542
6250.83798	0.00542
6248.90931	0.00544
6246.98063	0.00547
6245.05196	0.00550
6243.12328	0.00552
6241.19461	0.00552
6239.26593	0.00551
6237.33725	0.00551
6235.40858	0.00551
6233.47990	0.00553
6231.55123	0.00555
6229.62255	0.00556
6227.69388	0.00555
6225.76520	0.00555
6223.83652	0.00556
6221.90785	0.00560
6219.97917	0.00563
6218.05050	0.00563
6216.12182	0.00563
6214.19315	0.00564
6212.26447	0.00566
6210.33579	0.00568
6208.40712	0.00570
6206.47844	0.00570
6204.54977	0.00570
6202.62109	0.00571
6200.69242	0.00573
6198.76374	0.00575
6196.83506	0.00576
6194.90639	0.00579
6192.97771	0.00580
6191.04904	0.00582
6189.12036	0.00584
6187.19169	0.00587
6185.26301	0.00588
6183.33433	0.00587
6181.40566	0.00587
6179.47698	0.00589
6177.54831	0.00590
6175.61963	0.00590
6173.69096	0.00591
6171.76228	0.00592
6169.83360	0.00593
6167.90493	0.00594
6165.97625	0.00595
6164.04758	0.00598
6162.11890	0.00602
6160.19023	0.00604
6158.26155	0.00605
6156.33287	0.00606
6154.40420	0.00607
6152.47552	0.00608
6150.54685	0.00609
6148.61817	0.00610
6146.68950	0.00611
6144.76082	0.00611
6142.83214	0.00612
6140.90347	0.00615
6138.97479	0.00617
6137.04612	0.00619
6135.11744	0.00621
6133.18877	0.00622
6131.26009	0.00623
6129.33141	0.00624
6127.40274	0.00625
6125.47406	0.00624
6123.54539	0.00625
6121.61671	0.00628
6119.68804	0.00630
6117.75936	0.00631
6115.83068	0.00632
6113.90201	0.00633
6111.97333	0.00634
6110.04466	0.00636
6108.11598	0.00638
6106.18731	0.00639
6104.25863	0.00639
6102.32995	0.00641
6100.40128	0.00644
6098.47260	0.00647
6096.54393	0.00649
6094.61525	0.00650
6092.68658	0.00652
6090.75790	0.00655
6088.82922	0.00655
6086.90055	0.00655
6084.97187	0.00656
6083.04320	0.00658
6081.11452	0.00661
6079.18585	0.00663
6077.25717	0.00664
6075.32849	0.00664
6073.39982	0.00667
6071.47114	0.00669
6069.54247	0.00670
6067.61379	0.00670
6065.68512	0.00671
6063.75644	0.00673
6061.82776	0.00674
6059.89909	0.00676
6057.97041	0.00679
6056.04174	0.00681
6054.11306	0.00682
6052.18439	0.00682
6050.25571	0.00683
6048.32703	0.00684
6046.39836	0.00687
6044.46968	0.00690
6042.54101	0.00690
6040.61233	0.00690
6038.68366	0.00692
6036.75498	0.00694
6034.82630	0.00694
6032.89763	0.00695
6030.96895	0.00697
6029.04028	0.00700
6027.11160	0.00703
6025.18293	0.00704
6023.25425	0.00705
6021.32557	0.00707
6019.39690	0.00710
6017.46822	0.00712
6015.53955	0.00711
6013.61087	0.00712
6011.68220	0.00713
6009.75352	0.00715
6007.82484	0.00718
6005.89617	0.00720
6003.96749	0.00720
6002.03882	0.00720
6000.11014	0.00722
5998.18147	0.00725
5996.25279	0.00728
5994.32411	0.00731
5992.39544	0.00733
5990.46676	0.00734
5988.53809	0.00733
5986.60941	0.00734
5984.68074	0.00737
5982.75206	0.00740
5980.82338	0.00742
5978.89471	0.00742
5976.96603	0.00743
5975.03736	0.00746
5973.10868	0.00749
5971.18001	0.00750
5969.25133	0.00750
5967.32265	0.00751
5965.39398	0.00751
5963.46530	0.00753
5961.53663	0.00754
5959.60795	0.00757
5957.67928	0.00761
5955.75060	0.00763
5953.82192	0.00764
5951.89325	0.00765
5949.96457	0.00769
5948.03590	0.00772
5946.10722	0.00773
5944.17855	0.00773
5942.24987	0.00774
5940.32119	0.00775
5938.39252	0.00776
5936.46384	0.00779
5934.53517	0.00781
5932.60649	0.00783
5930.67782	0.00784
5928.74914	0.00786
5926.82046	0.00787
5924.89179	0.00789
5922.96311	0.00792
5921.03444	0.00794
5919.10576	0.00796
5917.17709	0.00796
5915.24841	0.00797
5913.31973	0.00799
5911.39106	0.00801
5909.46238	0.00803
5907.53371	0.00805
5905.60503	0.00807
5903.67636	0.00807
5901.74768	0.00809
5899.81900	0.00811
5897.89033	0.00814
5895.96165	0.00816
5894.03298	0.00817
5892.10430	0.00817
5890.17563	0.00818
5888.24695	0.00821
5886.31827	0.00826
5884.38960	0.00829
5882.46092	0.00831
5880.53225	0.00834
5878.60357	0.00837
5876.67490	0.00838
5874.74622	0.00837
5872.81755	0.00836
5870.88887	0.00837
5868.96019	0.00840
5867.03152	0.00843
5865.10284	0.00846
5863.17417	0.00848
5861.24549	0.00850
5859.31682	0.00853
5857.38814	0.00855
5855.45946	0.00857
5853.53079	0.00859
5851.60211	0.00859
5849.67344	0.00859
5847.74476	0.00862
5845.81609	0.00865
5843.88741	0.00868
5841.95873	0.00871
5840.03006	0.00873
5838.10138	0.00873
5836.17271	0.00874
5834.24403	0.00876
5832.31536	0.00878
5830.38668	0.00881
5828.45800	0.00884
5826.52933	0.00886
5824.60065	0.00887
5822.67198	0.00888
5820.74330	0.00888
5818.81463	0.00890
5816.88595	0.00894
5814.95727	0.00896
5813.02860	0.00897
5811.09992	0.00897
5809.17125	0.00900
5807.24257	0.00904
5805.31390	0.00906
5803.38522	0.00909
5801.45654	0.00911
5799.52787	0.00913
5797.59919	0.00913
5795.67052	0.00914
5793.74184	0.00916
5791.81317	0.00918
5789.88449	0.00920
5787.95581	0.00922
5786.02714	0.00925
5784.09846	0.00928
5782.16979	0.00929
5780.24111	0.00931
5778.31244	0.00934
5776.38376	0.00940
5774.45508	0.00943
5772.52641	0.00942
5770.59773	0.00941
5768.66906	0.00944
5766.74038	0.00947
5764.81171	0.00948
5762.88303	0.00947
5760.95435	0.00948
5759.02568	0.00950
5757.09700	0.00954
5755.16833	0.00958
5753.23965	0.00962
5751.31098	0.00964
5749.38230	0.00966
5747.45362	0.00967
5745.52495	0.00969
5743.59627	0.00970
5741.66760	0.00973
5739.73892	0.00975
5737.81025	0.00977
5735.88157	0.00980
5733.95289	0.00983
5732.02422	0.00985
5730.09554	0.00987
5728.16687	0.00987
5726.23819	0.00988
5724.30952	0.00989
5722.38084	0.00992
5720.45216	0.00995
5718.52349	0.00999
5716.59481	0.01002
5714.66614	0.01004
5712.73746	0.01004
5710.80879	0.01006
5708.88011	0.01009
5706.95143	0.01012
5705.02276	0.01014
5703.09408	0.01015
5701.16541	0.01017
5699.23673	0.01018
5697.30806	0.01021
5695.37938	0.01024
5693.45070	0.01027
5691.52203	0.01030
5689.59335	0.01032
5687.66468	0.01033
5685.73600	0.01034
5683.80733	0.01036
5681.87865	0.01038
5679.94997	0.01039
5678.02130	0.01043
5676.09262	0.01046
5674.16395	0.01050
5672.23527	0.01053
5670.30660	0.01055
5668.37792	0.01056
5666.44924	0.01058
5664.52057	0.01061
5662.59189	0.01062
5660.66322	0.01064
5658.73454	0.01067
5656.80587	0.01070
5654.87719	0.01072
5652.94851	0.01072
5651.01984	0.01072
5649.09116	0.01074
5647.16249	0.01076
5645.23381	0.01080
5643.30514	0.01084
5641.37646	0.01089
5639.44778	0.01091
5637.51911	0.01093
5635.59043	0.01095
5633.66176	0.01098
5631.73308	0.01100
5629.80441	0.01101
5627.87573	0.01101
5625.94705	0.01103
5624.01838	0.01105
5622.08970	0.01107
5620.16103	0.01111
5618.23235	0.01116
5616.30368	0.01120
5614.37500	0.01122
5612.44632	0.01124
5610.51765	0.01126
5608.58897	0.01128
5606.66030	0.01129
5604.73162	0.01131
5602.80295	0.01134
5600.87427	0.01136
5598.94559	0.01139
5597.01692	0.01142
5595.08824	0.01144
5593.15957	0.01146
5591.23089	0.01148
5589.30222	0.01150
5587.37354	0.01153
5585.44486	0.01154
5583.51619	0.01156
5581.58751	0.01159
5579.65884	0.01163
5577.73016	0.01165
5575.80149	0.01168
5573.87281	0.01171
5571.94413	0.01173
5570.01546	0.01173
5568.08678	0.01175
5566.15811	0.01178
5564.22943	0.01182
5562.30076	0.01185
5560.37208	0.01187
5558.44340	0.01189
5556.51473	0.01191
5554.58605	0.01194
5552.65738	0.01195
5550.72870	0.01197
5548.80003	0.01200
5546.87135	0.01203
5544.94267	0.01206
5543.01400	0.01208
5541.08532	0.01212
5539.15665	0.01213
5537.22797	0.01215
5535.29930	0.01217
5533.37062	0.01220
5531.44194	0.01222
5529.51327	0.01224
5527.58459	0.01226
5525.65592	0.01229
5523.72724	0.01230
5521.79857	0.01231
5519.86989	0.01234
5517.94121	0.01239
5516.01254	0.01243
5514.08386	0.01245
5512.15519	0.01247
5510.22651	0.01249
5508.29784	0.01253
5506.36916	0.01256
5504.44048	0.01257
5502.51181	0.01259
5500.58313	0.01262
5498.65446	0.01266
5496.72578	0.01269
5494.79711	0.01270
5492.86843	0.01273
5490.93975	0.01277
5489.01108	0.01282
5487.08240	0.01286
5485.15373	0.01288
5483.22505	0.01289
5481.29638	0.01292
5479.36770	0.01294
5477.43902	0.01296
5475.51035	0.01298
5473.58167	0.01300
5471.65300	0.01302
5469.72432	0.01304
5467.79565	0.01306
5465.86697	0.01309
5463.93829	0.01313
5462.00962	0.01316
5460.08094	0.01316
5458.15227	0.01318
5456.22359	0.01321
5454.29492	0.01325
5452.36624	0.01328
5450.43756	0.01331
5448.50889	0.01333
5446.58021	0.01335
5444.65154	0.01336
5442.72286	0.01337
5440.79419	0.01341
5438.86551	0.01346
5436.93683	0.01351
5435.00816	0.01353
5433.07948	0.01355
5431.15081	0.01357
5429.22213	0.01361
5427.29346	0.01364
5425.36478	0.01367
5423.43610	0.01369
5421.50743	0.01372
5419.57875	0.01373
5417.65008	0.01374
5415.72140	0.01377
5413.79273	0.01381
5411.86405	0.01383
5409.93537	0.01385
5408.00670	0.01390
5406.07802	0.01396
5404.14935	0.01400
5402.22067	0.01401
5400.29200	0.01402
5398.36332	0.01406
5396.43464	0.01410
5394.50597	0.01412
5392.57729	0.01414
5390.64862	0.01417
5388.71994	0.01419
5386.79127	0.01421
5384.86259	0.01426
5382.93391	0.01431
5381.00524	0.01434
5379.07656	0.01435
5377.14789	0.01435
5375.21921	0.01437
5373.29054	0.01439
5371.36186	0.01442
5369.43318	0.01446
5367.50451	0.01450
5365.57583	0.01453
5363.64716	0.01455
5361.71848	0.01458
5359.78981	0.01462
5357.86113	0.01463
5355.93245	0.01462
5354.00378	0.01463
5352.07510	0.01468
5350.14643	0.01474
5348.21775	0.01477
5346.28908	0.01479
5344.36040	0.01480
5342.43172	0.01481
5340.50305	0.01484
5338.57437	0.01487
5336.64570	0.01492
5334.71702	0.01496
5332.78835	0.01500
5330.85967	0.01506
5328.93099	0.01509
5327.00232	0.01509
5325.07364	0.01509
5323.14497	0.01512
5321.21629	0.01515
5319.28762	0.01520
5317.35894	0.01524
5315.43026	0.01529
5313.50159	0.01533
5311.57291	0.01535
5309.64424	0.01535
5307.71556	0.01536
5305.78689	0.01538
5303.85821	0.01543
5301.92953	0.01547
5300.00086	0.01550
5298.07218	0.01553
5296.14351	0.01557
5294.21483	0.01559
5292.28616	0.01562
5290.35748	0.01564
5288.42880	0.01567
5286.50013	0.01571
5284.57145	0.01574
5282.64278	0.01575
5280.71410	0.01579
5278.78543	0.01583
5276.85675	0.01584
5274.92807	0.01585
5272.99940	0.01588
5271.07072	0.01591
5269.14205	0.01594
5267.21337	0.01597
5265.28470	0.01599
5263.35602	0.01602
5261.42734	0.01607
5259.49867	0.01614
5257.56999	0.01618
5255.64132	0.01620
5253.71264	0.01622
5251.78397	0.01626
5249.85529	0.01628
5247.92661	0.01630
5245.99794	0.01633
5244.06926	0.01637
5242.14059	0.01641
5240.21191	0.01643
5238.28324	0.01644
5236.35456	0.01646
5234.42588	0.01651
5232.49721	0.01655
5230.56853	0.01658
5228.63986	0.01659
5226.71118	0.01661
5224.78251	0.01664
5222.85383	0.01669
5220.92515	0.01672
5218.99648	0.01674
5217.06780	0.01679
5215.13913	0.01683
5213.21045	0.01686
5211.28178	0.01689
5209.35310	0.01692
5207.42442	0.01695
5205.49575	0.01699
5203.56707	0.01706
5201.63840	0.01711
5199.70972	0.01712
5197.78105	0.01712
5195.85237	0.01715
5193.92369	0.01718
5191.99502	0.01720
5190.06634	0.01723
5188.13767	0.01727
5186.20899	0.01729
5184.28032	0.01731
5182.35164	0.01734
5180.42296	0.01737
5178.49429	0.01741
5176.56561	0.01746
5174.63694	0.01750
5172.70826	0.01753
5170.77959	0.01756
5168.85091	0.01759
5166.92223	0.01763
5164.99356	0.01768
5163.06488	0.01773
5161.13621	0.01775
5159.20753	0.01775
5157.27886	0.01776
5155.35018	0.01780
5153.42150	0.01784
5151.49283	0.01788
5149.56415	0.01791
5147.63548	0.01793
5145.70680	0.01796
5143.77813	0.01800
5141.84945	0.01806
5139.92077	0.01810
5137.99210	0.01810
5136.06342	0.01811
5134.13475	0.01814
5132.20607	0.01818
5130.27740	0.01823
5128.34872	0.01829
5126.42004	0.01833
5124.49137	0.01835
5122.56269	0.01836
5120.63402	0.01839
5118.70534	0.01844
5116.77667	0.01848
5114.84799	0.01851
5112.91931	0.01854
5110.99064	0.01857
5109.06196	0.01860
5107.13329	0.01863
5105.20461	0.01865
5103.27594	0.01868
5101.34726	0.01870
5099.41858	0.01873
5097.48991	0.01877
5095.56123	0.01883
5093.63256	0.01888
5091.70388	0.01890
5089.77521	0.01892
5087.84653	0.01894
5085.91785	0.01896
5083.98918	0.01898
5082.06050	0.01902
5080.13183	0.01907
5078.20315	0.01911
5076.27448	0.01915
5074.34580	0.01919
5072.41712	0.01923
5070.48845	0.01928
5068.55977	0.01931
5066.63110	0.01933
5064.70242	0.01935
5062.77375	0.01938
5060.84507	0.01942
5058.91639	0.01946
5056.98772	0.01950
5055.05904	0.01952
5053.13037	0.01954
5051.20169	0.01957
5049.27302	0.01959
5047.34434	0.01961
5045.41566	0.01963
5043.48699	0.01967
5041.55831	0.01974
5039.62964	0.01979
5037.70096	0.01984
5035.77229	0.01988
5033.84361	0.01992
5031.91493	0.01996
5029.98626	0.01999
5028.05758	0.02002
5026.12891	0.02003
5024.20023	0.02004
5022.27156	0.02007
5020.34288	0.02011
5018.41420	0.02017
5016.48553	0.02021
5014.55685	0.02025
5012.62818	0.02028
5010.69950	0.02032
5008.77083	0.02034
5006.84215	0.02036
5004.91347	0.02041
5002.98480	0.02046
5001.05612	0.02051
4999.12745	0.02053
4997.19877	0.02057
4995.27010	0.02061
4993.34142	0.02064
4991.41274	0.02066
4989.48407	0.02068
4987.55539	0.02071
4985.62672	0.02075
4983.69804	0.02080
4981.76937	0.02085
4979.84069	0.02089
4977.91201	0.02091
4975.98334	0.02094
4974.05466	0.02099
4972.12599	0.02103
4970.19731	0.02105
4968.26864	0.02108
4966.33996	0.02113
4964.41128	0.02117
4962.48261	0.02119
4960.55393	0.02120
4958.62526	0.02123
4956.69658	0.02128
4954.76791	0.02133
4952.83923	0.02138
4950.91055	0.02144
4948.98188	0.02149
4947.05320	0.02152
4945.12453	0.02154
4943.19585	0.02156
4941.26718	0.02160
4939.33850	0.02164
4937.40982	0.02169
4935.48115	0.02172
4933.55247	0.02176
4931.62380	0.02179
4929.69512	0.02181
4927.76645	0.02184
4925.83777	0.02187
4923.90909	0.02191
4921.98042	0.02195
4920.05174	0.02199
4918.12307	0.02204
4916.19439	0.02208
4914.26572	0.02213
4912.33704	0.02217
4910.40836	0.02219
4908.47969	0.02221
4906.55101	0.02225
4904.62234	0.02229
4902.69366	0.02234
4900.76499	0.02237
4898.83631	0.02240
4896.90763	0.02244
4894.97896	0.02249
4893.05028	0.02253
4891.12161	0.02256
4889.19293	0.02259
4887.26426	0.02264
4885.33558	0.02269
4883.40690	0.02272
4881.47823	0.02275
4879.54955	0.02278
4877.62088	0.02282
4875.69220	0.02284
4873.76353	0.02288
4871.83485	0.02293
4869.90617	0.02298
4867.97750	0.02303
4866.04882	0.02307
4864.12015	0.02311
4862.19147	0.02313
4860.26280	0.02317
4858.33412	0.02322
4856.40544	0.02326
4854.47677	0.02330
4852.54809	0.02334
4850.61942	0.02337
4848.69074	0.02339
4846.76207	0.02343
4844.83339	0.02348
4842.90471	0.02353
4840.97604	0.02357
4839.04736	0.02360
4837.11869	0.02362
4835.19001	0.02366
4833.26134	0.02369
4831.33266	0.02373
4829.40398	0.02378
4827.47531	0.02381
4825.54663	0.02384
4823.61796	0.02388
4821.68928	0.02393
4819.76061	0.02398
4817.83193	0.02401
4815.90325	0.02405
4813.97458	0.02408
4812.04590	0.02411
4810.11723	0.02414
4808.18855	0.02419
4806.25988	0.02423
4804.33120	0.02429
4802.40252	0.02435
4800.47385	0.02440
4798.54517	0.02443
4796.61650	0.02446
4794.68782	0.02449
4792.75915	0.02454
4790.83047	0.02460
4788.90179	0.02465
4786.97312	0.02468
4785.04444	0.02471
4783.11577	0.02475
4781.18709	0.02479
4779.25842	0.02482
4777.32974	0.02486
4775.40106	0.02490
4773.47239	0.02496
4771.54371	0.02501
4769.61504	0.02506
4767.68636	0.02509
4765.75769	0.02512
4763.82901	0.02514
4761.90033	0.02518
4759.97166	0.02523
4758.04298	0.02528
4756.11431	0.02532
4754.18563	0.02537
4752.25696	0.02542
4750.32828	0.02547
4748.39960	0.02550
4746.47093	0.02553
4744.54225	0.02556
4742.61358	0.02560
4740.68490	0.02565
4738.75623	0.02569
4736.82755	0.02573
4734.89887	0.02579
4732.97020	0.02585
4731.04152	0.02591
4729.11285	0.02594
4727.18417	0.02598
4725.25550	0.02602
4723.32682	0.02604
4721.39814	0.02607
4719.46947	0.02612
4717.54079	0.02617
4715.61212	0.02621
4713.68344	0.02626
4711.75477	0.02632
4709.82609	0.02636
4707.89741	0.02638
4705.96874	0.02640
4704.04006	0.02645
4702.11139	0.02650
4700.18271	0.02655
4698.25404	0.02660
4696.32536	0.02666
4694.39668	0.02673
4692.46801	0.02679
4690.53933	0.02681
4688.61066	0.02683
4686.68198	0.02686
4684.75331	0.02691
4682.82463	0.02697
4680.89595	0.02702
4678.96728	0.02706
4677.03860	0.02709
4675.10993	0.02712
4673.18125	0.02716
4671.25258	0.02720
4669.32390	0.02726
4667.39522	0.02730
4665.46655	0.02734
4663.53787	0.02740
4661.60920	0.02745
4659.68052	0.02749
4657.75185	0.02752
4655.82317	0.02755
4653.89449	0.02762
4651.96582	0.02769
4650.03714	0.02775
4648.10847	0.02779
4646.17979	0.02782
4644.25112	0.02786
4642.32244	0.02790
4640.39376	0.02794
4638.46509	0.02799
4636.53641	0.02805
4634.60774	0.02810
4632.67906	0.02814
4630.75039	0.02818
4628.82171	0.02823
4626.89303	0.02829
4624.96436	0.02834
4623.03568	0.02839
4621.10701	0.02843
4619.17833	0.02846
4617.24966	0.02850
4615.32098	0.02856
4613.39230	0.02860
4611.46363	0.02866
4609.53495	0.02872
4607.60628	0.02876
4605.67760	0.02879
4603.74893	0.02885
4601.82025	0.02893
4599.89157	0.02899
4597.96290	0.02903
4596.03422	0.02906
4594.10555	0.02910
4592.17687	0.02915
4590.24820	0.02920
4588.31952	0.02924
4586.39084	0.02929
4584.46217	0.02936
4582.53349	0.02942
4580.60482	0.02947
4578.67614	0.02950
4576.74747	0.02953
4574.81879	0.02958
4572.89011	0.02964
4570.96144	0.02969
4569.03276	0.02973
4567.10409	0.02978
4565.17541	0.02983
4563.24674	0.02988
4561.31806	0.02992
4559.38938	0.02995
4557.46071	0.03001
4555.53203	0.03008
4553.60336	0.03013
4551.67468	0.03016
4549.74601	0.03021
4547.81733	0.03027
4545.88865	0.03032
4543.95998	0.03038
4542.03130	0.03043
4540.10263	0.03047
4538.17395	0.03052
4536.24528	0.03058
4534.31660	0.03063
4532.38792	0.03067
4530.45925	0.03072
4528.53057	0.03080
4526.60190	0.03088
4524.67322	0.03094
4522.74455	0.03099
4520.81587	0.03105
4518.88719	0.03109
4516.95852	0.03111
4515.02984	0.03115
4513.10117	0.03120
4511.17249	0.03126
4509.24382	0.03133
4507.31514	0.03138
4505.38646	0.03142
4503.45779	0.03146
4501.52911	0.03151
4499.60044	0.03158
4497.67176	0.03165
4495.74309	0.03169
4493.81441	0.03172
4491.88573	0.03176
4489.95706	0.03181
4488.02838	0.03187
4486.09971	0.03194
4484.17103	0.03201
4482.24236	0.03206
4480.31368	0.03212
4478.38500	0.03219
4476.45633	0.03225
4474.52765	0.03230
4472.59898	0.03235
4470.67030	0.03241
4468.74163	0.03248
4466.81295	0.03254
4464.88427	0.03260
4462.95560	0.03266
4461.02692	0.03271
4459.09825	0.03275
4457.16957	0.03279
4455.24090	0.03283
4453.31222	0.03289
4451.38354	0.03295
4449.45487	0.03300
4447.52619	0.03307
4445.59752	0.03313
4443.66884	0.03317
4441.74017	0.03323
4439.81149	0.03332
4437.88281	0.03339
4435.95414	0.03344
4434.02546	0.03350
4432.09679	0.03355
4430.16811	0.03361
4428.23944	0.03367
4426.31076	0.03372
4424.38208	0.03378
4422.45341	0.03384
4420.52473	0.03392
4418.59606	0.03399
4416.66738	0.03403
4414.73871	0.03408
4412.81003	0.03415
4410.88135	0.03422
4408.95268	0.03429
4407.02400	0.03435
4405.09533	0.03441
4403.16665	0.03445
4401.23798	0.03451
4399.30930	0.03458
4397.38062	0.03464
4395.45195	0.03469
4393.52327	0.03473
4391.59460	0.03479
4389.66592	0.03486
4387.73725	0.03494
4385.80857	0.03500
4383.87989	0.03505
4381.95122	0.03511
4380.02254	0.03516
4378.09387	0.03520
4376.16519	0.03527
4374.23652	0.03535
4372.30784	0.03544
4370.37916	0.03552
4368.45049	0.03558
4366.52181	0.03563
4364.59314	0.03568
4362.66446	0.03574
4360.73579	0.03580
4358.80711	0.03587
4356.87843	0.03594
4354.94976	0.03600
4353.02108	0.03605
4351.09241	0.03610
4349.16373	0.03615
4347.23506	0.03621
4345.30638	0.03629
4343.37770	0.03636
4341.44903	0.03641
4339.52035	0.03647
4337.59168	0.03655
4335.66300	0.03664
4333.73433	0.03671
4331.80565	0.03678
4329.87697	0.03686
4327.94830	0.03692
4326.01962	0.03698
4324.09095	0.03705
4322.16227	0.03713
4320.23360	0.03720
4318.30492	0.03727
4316.37624	0.03733
4314.44757	0.03739
4312.51889	0.03745
4310.59022	0.03752
4308.66154	0.03760
4306.73287	0.03767
4304.80419	0.03772
4302.87551	0.03778
4300.94684	0.03784
4299.01816	0.03790
4297.08949	0.03797
4295.16081	0.03804
4293.23214	0.03811
4291.30346	0.03818
4289.37478	0.03826
4287.44611	0.03833
4285.51743	0.03838
4283.58876	0.03846
4281.66008	0.03855
4279.73141	0.03864
4277.80273	0.03872
4275.87405	0.03877
4273.94538	0.03880
4272.01670	0.03886
4270.08803	0.03894
4268.15935	0.03903
4266.23068	0.03911
4264.30200	0.03919
4262.37332	0.03926
4260.44465	0.03933
4258.51597	0.03940
4256.58730	0.03948
4254.65862	0.03954
4252.72995	0.03960
4250.80127	0.03968
4248.87259	0.03978
4246.94392	0.03986
4245.01524	0.03993
4243.08657	0.03998
4241.15789	0.04004
4239.22922	0.04009
4237.30054	0.04017
4235.37186	0.04025
4233.44319	0.04030
4231.51451	0.04036
4229.58584	0.04043
4227.65716	0.04051
4225.72849	0.04060
4223.79981	0.04070
4221.87113	0.04079
4219.94246	0.04085
4218.01378	0.04090
4216.08511	0.04098
4214.15643	0.04108
4212.22776	0.04117
4210.29908	0.04123
4208.37040	0.04129
4206.44173	0.04138
4204.51305	0.04147
4202.58438	0.04156
4200.65570	0.04165
4198.72703	0.04173
4196.79835	0.04178
4194.86968	0.04183
4192.94100	0.04190
4191.01232	0.04197
4189.08365	0.04204
4187.15497	0.04211
4185.22630	0.04220
4183.29762	0.04230
4181.36895	0.04238
4179.44027	0.04244
4177.51159	0.04251
4175.58292	0.04258
4173.65424	0.04266
4171.72557	0.04275
4169.79689	0.04283
4167.86822	0.04293
4165.93954	0.04303
4164.01086	0.04312
4162.08219	0.04319
4160.15351	0.04326
4158.22484	0.04333
4156.29616	0.04341
4154.36749	0.04350
4152.43881	0.04358
4150.51013	0.04364
4148.58146	0.04369
4146.65278	0.04379
4144.72411	0.04390
4142.79543	0.04398
4140.86676	0.04403
4138.93808	0.04411
4137.00940	0.04420
4135.08073	0.04430
4133.15205	0.04439
4131.22338	0.04447
4129.29470	0.04453
4127.36603	0.04459
4125.43735	0.04468
4123.50867	0.04479
4121.58000	0.04487
4119.65132	0.04491
4117.72265	0.04498
4115.79397	0.04509
4113.86530	0.04519
4111.93662	0.04527
4110.00794	0.04536
4108.07927	0.04544
4106.15059	0.04552
4104.22192	0.04559
4102.29324	0.04568
4100.36457	0.04578
4098.43589	0.04588
4096.50721	0.04596
4094.57854	0.04603
4092.64986	0.04610
4090.72119	0.04620
4088.79251	0.04630
4086.86384	0.04639
4084.93516	0.04646
4083.00648	0.04652
4081.07781	0.04660
4079.14913	0.04668
4077.22046	0.04677
4075.29178	0.04687
4073.36311	0.04699
4071.43443	0.04708
4069.50575	0.04715
4067.57708	0.04721
4065.64840	0.04731
4063.71973	0.04741
4061.79105	0.04751
4059.86238	0.04760
4057.93370	0.04768
4056.00502	0.04777
4054.07635	0.04788
4052.14767	0.04796
4050.21900	0.04800
4048.29032	0.04806
4046.36165	0.04816
4044.43297	0.04828
4042.50429	0.04838
4040.57562	0.04848
4038.64694	0.04857
4036.71827	0.04866
4034.78959	0.04876
4032.86092	0.04885
4030.93224	0.04894
4029.00356	0.04900
4027.07489	0.04907
4025.14621	0.04916
4023.21754	0.04925
4021.28886	0.04934
4019.36019	0.04943
4017.43151	0.04951
4015.50283	0.04959
4013.57416	0.04969
4011.64548	0.04980
4009.71681	0.04990
4007.78813	0.04999
4005.85946	0.05008
4003.93078	0.05020
4002.00210	0.05032
4000.07343	0.05041
3998.14475	0.05050
3996.21608	0.05058
3994.28740	0.05068
3992.35873	0.05078
3990.43005	0.05086
3988.50137	0.05093
3986.57270	0.05102
3984.64402	0.05111
3982.71535	0.05122
3980.78667	0.05133
3978.85800	0.05141
3976.92932	0.05149
3975.00064	0.05158
3973.07197	0.05169
3971.14329	0.05179
3969.21462	0.05188
3967.28594	0.05199
3965.35727	0.05210
3963.42859	0.05218
3961.49991	0.05225
3959.57124	0.05233
3957.64256	0.05244
3955.71389	0.05254
3953.78521	0.05262
3951.85654	0.05268
3949.92786	0.05276
3947.99918	0.05287
3946.07051	0.05296
3944.14183	0.05303
3942.21316	0.05312
3940.28448	0.05325
3938.35581	0.05339
3936.42713	0.05351
3934.49845	0.05358
3932.56978	0.05363
3930.64110	0.05373
3928.71243	0.05384
3926.78375	0.05393
3924.85508	0.05402
3922.92640	0.05411
3920.99772	0.05420
3919.06905	0.05426
3917.14037	0.05435
3915.21170	0.05449
3913.28302	0.05463
3911.35435	0.05474
3909.42567	0.05484
3907.49699	0.05488
3905.56832	0.05483
3903.63964	0.05480
3901.71097	0.05487
3899.78229	0.05506
3897.85362	0.05531
3895.92494	0.05551
3893.99626	0.05556
3892.06759	0.05557
3890.13891	0.05567
3888.21024	0.05579
3886.28156	0.05587
3884.35289	0.05597
3882.42421	0.05606
3880.49553	0.05616
3878.56686	0.05633
3876.63818	0.05649
3874.70951	0.05655
3872.78083	0.05654
3870.85216	0.05654
3868.92348	0.05664
3866.99480	0.05679
3865.06613	0.05689
3863.13745	0.05701
3861.20878	0.05720
3859.28010	0.05735
3857.35143	0.05728
3855.42275	0.05704
3853.49407	0.05704
3851.56540	0.05744
3849.63672	0.05784
3847.70805	0.05804
3845.77937	0.05813
3843.85070	0.05817
3841.92202	0.05817
3839.99334	0.05818
3838.06467	0.05825
3836.13599	0.05840
3834.20732	0.05856
3832.27864	0.05872
3830.34997	0.05890
3828.42129	0.05906
3826.49261	0.05916
3824.56394	0.05919
3822.63526	0.05916
3820.70659	0.05920
3818.77791	0.05936
3816.84924	0.05950
3814.92056	0.05967
3812.99188	0.05990
3811.06321	0.06006
3809.13453	0.06013
3807.20586	0.06018
3805.27718	0.06025
3803.34851	0.06025
3801.41983	0.06027
3799.49115	0.06044
3797.56248	0.06062
3795.63380	0.06077
3793.70513	0.06095
3791.77645	0.06114
3789.84778	0.06127
3787.91910	0.06135
3785.99042	0.06141
3784.06175	0.06150
3782.13307	0.06158
3780.20440	0.06165
3778.27572	0.06179
3776.34705	0.06197
3774.41837	0.06210
3772.48969	0.06215
3770.56102	0.06219
3768.63234	0.06229
3766.70367	0.06243
3764.77499	0.06256
3762.84632	0.06262
3760.91764	0.06263
3758.98896	0.06270
3757.06029	0.06283
3755.13161	0.06289
3753.20294	0.06278
3751.27426	0.06267
3749.34559	0.06274
3747.41691	0.06284
3745.48823	0.06285
3743.55956	0.06305
3741.63088	0.06345
3739.70221	0.06364
3737.77353	0.06358
3735.84486	0.06357
3733.91618	0.06376
3731.98750	0.06405
3730.05883	0.06430
3728.13015	0.06441
3726.20148	0.06447
3724.27280	0.06456
3722.34413	0.06468
3720.41545	0.06482
3718.48677	0.06498
3716.55810	0.06509
3714.62942	0.06509
3712.70075	0.06505
3710.77207	0.06513
3708.84340	0.06534
3706.91472	0.06555
3704.98604	0.06566
3703.05737	0.06568
3701.12869	0.06575
3699.20002	0.06590
3697.27134	0.06602
3695.34267	0.06606
3693.41399	0.06603
3691.48531	0.06594
3689.55664	0.06587
3687.62796	0.06599
3685.69929	0.06626
3683.77061	0.06647
3681.84194	0.06652
3679.91326	0.06645
3677.98458	0.06632
3676.05591	0.06623
3674.12723	0.06631
3672.19856	0.06640
3670.26988	0.06644
3668.34121	0.06656
3666.41253	0.06676
3664.48385	0.06688
3662.55518	0.06695
3660.62650	0.06698
3658.69783	0.06696
3656.76915	0.06693
3654.84048	0.06693
3652.91180	0.06683
3650.98312	0.06659
3649.05445	0.06644
3647.12577	0.06655
3645.19710	0.06686
3643.26842	0.06716
3641.33975	0.06735
3639.41107	0.06746
3637.48239	0.06753
3635.55372	0.06756
3633.62504	0.06752
3631.69637	0.06739
3629.76769	0.06726
3627.83902	0.06738
3625.91034	0.06770
3623.98166	0.06790
3622.05299	0.06787
3620.12431	0.06778
3618.19564	0.06780
3616.26696	0.06791
3614.33829	0.06797
3612.40961	0.06798
3610.48093	0.06797
3608.55226	0.06802
3606.62358	0.06819
3604.69491	0.06837
3602.76623	0.06846
3600.83756	0.06850
3598.90888	0.06853
3596.98020	0.06856
3595.05153	0.06862
3593.12285	0.06873
3591.19418	0.06879
3589.26550	0.06874
3587.33683	0.06872
3585.40815	0.06886
3583.47947	0.06904
3581.55080	0.06916
3579.62212	0.06925
3577.69345	0.06934
3575.76477	0.06942
3573.83610	0.06947
3571.90742	0.06949
3569.97874	0.06944
3568.05007	0.06940
3566.12139	0.06954
3564.19272	0.06973
3562.26404	0.06985
3560.33537	0.06994
3558.40669	0.07002
3556.47801	0.07007
3554.54934	0.07008
3552.62066	0.07012
3550.69199	0.07021
3548.76331	0.07026
3546.83464	0.07030
3544.90596	0.07037
3542.97728	0.07047
3541.04861	0.07056
3539.11993	0.07062
3537.19126	0.07064
3535.26258	0.07068
3533.33391	0.07074
3531.40523	0.07078
3529.47655	0.07079
3527.54788	0.07081
3525.61920	0.07085
3523.69053	0.07086
3521.76185	0.07086
3519.83318	0.07088
3517.90450	0.07093
3515.97582	0.07096
3514.04715	0.07098
3512.11847	0.07101
3510.18980	0.07103
3508.26112	0.07104
3506.33245	0.07104
3504.40377	0.07103
3502.47509	0.07101
3500.54642	0.07103
3498.61774	0.07105
3496.68907	0.07105
3494.76039	0.07105
3492.83172	0.07106
3490.90304	0.07107
3488.97436	0.07109
3487.04569	0.07111
3485.11701	0.07113
3483.18834	0.07115
3481.25966	0.07119
3479.33099	0.07126
3477.40231	0.07131
3475.47363	0.07136
3473.54496	0.07146
3471.61628	0.07156
3469.68761	0.07163
3467.75893	0.07168
3465.83026	0.07175
3463.90158	0.07186
3461.97290	0.07202
3460.04423	0.07214
3458.11555	0.07221
3456.18688	0.07229
3454.25820	0.07239
3452.32953	0.07248
3450.40085	0.07256
3448.47217	0.07264
3446.54350	0.07274
3444.61482	0.07284
3442.68615	0.07299
3440.75747	0.07317
3438.82880	0.07333
3436.90012	0.07348
3434.97144	0.07363
3433.04277	0.07381
3431.11409	0.07401
3429.18542	0.07422
3427.25674	0.07445
3425.32807	0.07469
3423.39939	0.07488
3421.47071	0.07504
3419.54204	0.07521
3417.61336	0.07540
3415.68469	0.07559
3413.75601	0.07577
3411.82734	0.07593
3409.89866	0.07608
3407.96998	0.07624
3406.04131	0.07641
3404.11263	0.07655
3402.18396	0.07667
3400.25528	0.07680
3398.32661	0.07693
3396.39793	0.07707
3394.46925	0.07721
3392.54058	0.07735
3390.61190	0.07751
3388.68323	0.07769
3386.75455	0.07788
3384.82588	0.07804
3382.89720	0.07817
3380.96852	0.07830
3379.03985	0.07843
3377.11117	0.07856
3375.18250	0.07871
3373.25382	0.07888
3371.32515	0.07902
3369.39647	0.07914
3367.46779	0.07926
3365.53912	0.07939
3363.61044	0.07950
3361.68177	0.07961
3359.75309	0.07976
3357.82442	0.07993
3355.89574	0.08010
3353.96706	0.08023
3352.03839	0.08036
3350.10971	0.08049
3348.18104	0.08065
3346.25236	0.08080
3344.32369	0.08093
3342.39501	0.08107
3340.46633	0.08124
3338.53766	0.08140
3336.60898	0.08155
3334.68031	0.08168
3332.75163	0.08180
3330.82296	0.08195
3328.89428	0.08212
3326.96560	0.08228
3325.03693	0.08241
3323.10825	0.08254
3321.17958	0.08268
3319.25090	0.08284
3317.32223	0.08304
3315.39355	0.08323
3313.46487	0.08336
3311.53620	0.08345
3309.60752	0.08357
3307.67885	0.08374
3305.75017	0.08390
3303.82150	0.08405
3301.89282	0.08423
3299.96414	0.08440
3298.03547	0.08455
3296.10679	0.08470
3294.17812	0.08486
3292.24944	0.08500
3290.32077	0.08513
3288.39209	0.08528
3286.46341	0.08546
3284.53474	0.08568
3282.60606	0.08588
3280.67739	0.08602
3278.74871	0.08614
3276.82004	0.08628
3274.89136	0.08645
3272.96268	0.08665
3271.03401	0.08682
3269.10533	0.08699
3267.17666	0.08717
3265.24798	0.08735
3263.31931	0.08752
3261.39063	0.08765
3259.46195	0.08777
3257.53328	0.08790
3255.60460	0.08807
3253.67593	0.08826
3251.74725	0.08846
3249.81858	0.08863
3247.88990	0.08877
3245.96122	0.08893
3244.03255	0.08911
3242.10387	0.08928
3240.17520	0.08945
3238.24652	0.08962
3236.31785	0.08979
3234.38917	0.08997
3232.46049	0.09014
3230.53182	0.09031
3228.60314	0.09048
3226.67447	0.09065
3224.74579	0.09082
3222.81712	0.09098
3220.88844	0.09114
3218.95976	0.09130
3217.03109	0.09146
3215.10241	0.09160
3213.17374	0.09174
3211.24506	0.09189
3209.31639	0.09208
3207.38771	0.09230
3205.45903	0.09251
3203.53036	0.09268
3201.60168	0.09284
3199.67301	0.09300
3197.74433	0.09320
3195.81566	0.09340
3193.88698	0.09357
3191.95830	0.09373
3190.02963	0.09392
3188.10095	0.09412
3186.17228	0.09430
3184.24360	0.09448
3182.31493	0.09465
3180.38625	0.09480
3178.45757	0.09498
3176.52890	0.09515
3174.60022	0.09532
3172.67155	0.09552
3170.74287	0.09573
3168.81420	0.09592
3166.88552	0.09605
3164.95684	0.09617
3163.02817	0.09635
3161.09949	0.09656
3159.17082	0.09675
3157.24214	0.09694
3155.31347	0.09713
3153.38479	0.09731
3151.45611	0.09745
3149.52744	0.09761
3147.59876	0.09778
3145.67009	0.09794
3143.74141	0.09810
3141.81274	0.09826
3139.88406	0.09842
3137.95538	0.09859
3136.02671	0.09876
3134.09803	0.09892
3132.16936	0.09909
3130.24068	0.09929
3128.31201	0.09950
3126.38333	0.09969
3124.45465	0.09986
3122.52598	0.10000
3120.59730	0.10014
3118.66863	0.10029
3116.73995	0.10047
3114.81128	0.10064
3112.88260	0.10083
3110.95392	0.10104
3109.02525	0.10122
3107.09657	0.10135
3105.16790	0.10150
3103.23922	0.10166
3101.31055	0.10183
3099.38187	0.10200
3097.45319	0.10220
3095.52452	0.10239
3093.59584	0.10256
3091.66717	0.10269
3089.73849	0.10280
3087.80982	0.10295
3085.88114	0.10312
3083.95246	0.10329
3082.02379	0.10346
3080.09511	0.10362
3078.16644	0.10378
3076.23776	0.10394
3074.30909	0.10413
3072.38041	0.10433
3070.45173	0.10452
3068.52306	0.10467
3066.59438	0.10481
3064.66571	0.10497
3062.73703	0.10513
3060.80836	0.10529
3058.87968	0.10545
3056.95100	0.10561
3055.02233	0.10578
3053.09365	0.10594
3051.16498	0.10608
3049.23630	0.10623
3047.30763	0.10644
3045.37895	0.10663
3043.45027	0.10678
3041.52160	0.10692
3039.59292	0.10706
3037.66425	0.10721
3035.73557	0.10738
3033.80690	0.10755
3031.87822	0.10772
3029.94954	0.10789
3028.02087	0.10804
3026.09219	0.10816
3024.16352	0.10828
3022.23484	0.10843
3020.30617	0.10862
3018.37749	0.10879
3016.44881	0.10893
3014.52014	0.10906
3012.59146	0.10919
3010.66279	0.10935
3008.73411	0.10950
3006.80544	0.10963
3004.87676	0.10977
3002.94808	0.10993
3001.01941	0.11007
2999.09073	0.11019
2997.16206	0.11033
2995.23338	0.11050
2993.30471	0.11065
2991.37603	0.11076
2989.44735	0.11083
2987.51868	0.11090
2985.59000	0.11097
2983.66133	0.11104
2981.73265	0.11113
2979.80398	0.11121
2977.87530	0.11127
2975.94662	0.11130
2974.01795	0.11130
2972.08927	0.11127
2970.16060	0.11124
2968.23192	0.11120
2966.30325	0.11118
2964.37457	0.11121
2962.44589	0.11131
2960.51722	0.11147
2958.58854	0.11166
2956.65987	0.11189
2954.73119	0.11212
2952.80252	0.11234
2950.87384	0.11254
2948.94516	0.11270
2947.01649	0.11282
2945.08781	0.11292
2943.15914	0.11300
2941.23046	0.11306
2939.30179	0.11308
2937.37311	0.11306
2935.44443	0.11302
2933.51576	0.11298
2931.58708	0.11296
2929.65841	0.11294
2927.72973	0.11290
2925.80106	0.11287
2923.87238	0.11289
2921.94370	0.11297
2920.01503	0.11309
2918.08635	0.11327
2916.15768	0.11359
2914.22900	0.11406
2912.30033	0.11462
2910.37165	0.11517
2908.44297	0.11563
2906.51430	0.11598
2904.58562	0.11624
2902.65695	0.11649
2900.72827	0.11677
2898.79960	0.11704
2896.87092	0.11727
2894.94224	0.11747
2893.01357	0.11769
2891.08489	0.11794
2889.15622	0.11818
2887.22754	0.11838
2885.29887	0.11858
2883.37019	0.11878
2881.44151	0.11896
2879.51284	0.11913
2877.58416	0.11929
2875.65549	0.11946
2873.72681	0.11965
2871.79814	0.11985
2869.86946	0.12004
2867.94078	0.12021
2866.01211	0.12036
2864.08343	0.12046
2862.15476	0.12056
2860.22608	0.12065
2858.29741	0.12068
2856.36873	0.12066
2854.44005	0.12065
2852.51138	0.12068
2850.58270	0.12079
2848.65403	0.12112
2846.72535	0.12164
2844.79668	0.12222
2842.86800	0.12272
2840.93932	0.12312
2839.01065	0.12342
2837.08197	0.12369
2835.15330	0.12395
2833.22462	0.12419
2831.29595	0.12439
2829.36727	0.12461
2827.43859	0.12484
2825.50992	0.12506
2823.58124	0.12525
2821.65257	0.12544
2819.72389	0.12561
2817.79522	0.12576
2815.86654	0.12593
2813.93786	0.12612
2812.00919	0.12634
2810.08051	0.12652
2808.15184	0.12666
2806.22316	0.12682
2804.29449	0.12702
2802.36581	0.12721
2800.43713	0.12738
2798.50846	0.12754
2796.57978	0.12772
2794.65111	0.12792
2792.72243	0.12809
2790.79376	0.12823
2788.86508	0.12838
2786.93640	0.12854
2785.00773	0.12871
2783.07905	0.12887
2781.15038	0.12905
2779.22170	0.12927
2777.29303	0.12948
2775.36435	0.12963
2773.43567	0.12974
2771.50700	0.12985
2769.57832	0.13000
2767.64965	0.13017
2765.72097	0.13036
2763.79230	0.13055
2761.86362	0.13072
2759.93494	0.13087
2758.00627	0.13100
2756.07759	0.13118
2754.14892	0.13138
2752.22024	0.13154
2750.29157	0.13166
2748.36289	0.13177
2746.43421	0.13190
2744.50554	0.13205
2742.57686	0.13222
2740.64819	0.13238
2738.71951	0.13254
2736.79084	0.13268
2734.86216	0.13283
2732.93348	0.13299
2731.00481	0.13318
2729.07613	0.13335
2727.14746	0.13351
2725.21878	0.13366
2723.29011	0.13381
2721.36143	0.13396
2719.43275	0.13411
2717.50408	0.13426
2715.57540	0.13439
2713.64673	0.13451
2711.71805	0.13464
2709.78938	0.13480
2707.86070	0.13497
2705.93202	0.13514
2704.00335	0.13530
2702.07467	0.13545
2700.14600	0.13560
2698.21732	0.13574
2696.28865	0.13589
2694.35997	0.13603
2692.43129	0.13615
2690.50262	0.13629
2688.57394	0.13646
2686.64527	0.13664
2684.71659	0.13682
2682.78792	0.13700
2680.85924	0.13715
2678.93056	0.13729
2677.00189	0.13745
2675.07321	0.13762
2673.14454	0.13774
2671.21586	0.13785
2669.28719	0.13801
2667.35851	0.13821
2665.42983	0.13839
2663.50116	0.13852
2661.57248	0.13863
2659.64381	0.13876
2657.71513	0.13891
2655.78646	0.13909
2653.85778	0.13926
2651.92910	0.13941
2650.00043	0.13958
2648.07175	0.13974
2646.14308	0.13990
2644.21440	0.14005
2642.28573	0.14021
2640.35705	0.14037
2638.42837	0.14052
2636.49970	0.14069
2634.57102	0.14088
2632.64235	0.14107
2630.71367	0.14126
2628.78500	0.14141
2626.85632	0.14152
2624.92764	0.14163
2622.99897	0.14179
2621.07029	0.14194
2619.14162	0.14209
2617.21294	0.14226
2615.28427	0.14243
2613.35559	0.14258
2611.42691	0.14271
2609.49824	0.14287
2607.56956	0.14309
2605.64089	0.14332
2603.71221	0.14350
2601.78354	0.14363
2599.85486	0.14376
2597.92618	0.14389
2595.99751	0.14404
2594.06883	0.14419
2592.14016	0.14434
2590.21148	0.14451
2588.28281	0.14466
2586.35413	0.14480
2584.42545	0.14495
2582.49678	0.14511
2580.56810	0.14524
2578.63943	0.14539
2576.71075	0.14556
2574.78208	0.14571
2572.85340	0.14583
2570.92472	0.14597
2568.99605	0.14615
2567.06737	0.14633
2565.13870	0.14645
2563.21002	0.14655
2561.28135	0.14669
2559.35267	0.14685
2557.42399	0.14704
2555.49532	0.14721
2553.56664	0.14737
2551.63797	0.14750
2549.70929	0.14762
2547.78062	0.14775
2545.85194	0.14790
2543.92326	0.14805
2541.99459	0.14821
2540.06591	0.14840
2538.13724	0.14857
2536.20856	0.14870
2534.27989	0.14881
2532.35121	0.14894
2530.42253	0.14910
2528.49386	0.14927
2526.56518	0.14941
2524.63651	0.14954
2522.70783	0.14969
2520.77916	0.14986
2518.85048	0.15003
2516.92181	0.15020
2514.99313	0.15038
2513.06445	0.15052
2511.13578	0.15062
2509.20710	0.15077
2507.27843	0.15099
2505.34975	0.15121
2503.42108	0.15139
2501.49240	0.15157
2499.56372	0.15171
2497.63505	0.15185
2495.70637	0.15202
2493.77770	0.15220
2491.84902	0.15235
2489.92035	0.15249
2487.99167	0.15265
2486.06299	0.15286
2484.13432	0.15306
2482.20564	0.15321
2480.27697	0.15331
2478.34829	0.15343
2476.41962	0.15359
2474.49094	0.15377
2472.56226	0.15394
2470.63359	0.15410
2468.70491	0.15427
2466.77624	0.15443
2464.84756	0.15459
2462.91889	0.15474
2460.99021	0.15488
2459.06153	0.15502
2457.13286	0.15515
2455.20418	0.15530
2453.27551	0.15548
2451.34683	0.15565
2449.41816	0.15580
2447.48948	0.15594
2445.56080	0.15607
2443.63213	0.15621
2441.70345	0.15639
2439.77478	0.15659
2437.84610	0.15676
2435.91743	0.15690
2433.98875	0.15703
2432.06007	0.15718
2430.13140	0.15733
2428.20272	0.15748
2426.27405	0.15766
2424.34537	0.15784
2422.41670	0.15799
2420.48802	0.15811
2418.55934	0.15823
2416.63067	0.15834
2414.70199	0.15848
2412.77332	0.15865
2410.84464	0.15884
2408.91597	0.15902
2406.98729	0.15918
2405.05861	0.15932
2403.12994	0.15946
2401.20126	0.15958
2399.27259	0.15969
2397.34391	0.15979
2395.41524	0.15992
2393.48656	0.16010
2391.55788	0.16028
2389.62921	0.16045
2387.70053	0.16061
2385.77186	0.16073
2383.84318	0.16082
2381.91451	0.16090
2379.98583	0.16099
2378.05715	0.16102
2376.12848	0.16098
2374.19980	0.16093
2372.27113	0.16093
2370.34245	0.16094
2368.41378	0.16094
2366.48510	0.16097
2364.55642	0.16106
2362.62775	0.16118
2360.69907	0.16131
2358.77040	0.16148
2356.84172	0.16172
2354.91305	0.16199
2352.98437	0.16226
2351.05569	0.16253
2349.12702	0.16269
2347.19834	0.16259
2345.26967	0.16231
2343.34099	0.16199
2341.41232	0.16175
2339.48364	0.16177
2337.55496	0.16217
2335.62629	0.16277
2333.69761	0.16327
2331.76894	0.16357
2329.84026	0.16381
2327.91159	0.16403
2325.98291	0.16420
2324.05423	0.16437
2322.12556	0.16459
2320.19688	0.16480
2318.26821	0.16502
2316.33953	0.16522
2314.41086	0.16542
2312.48218	0.16561
2310.55350	0.16580
2308.62483	0.16598
2306.69615	0.16615
2304.76748	0.16632
2302.83880	0.16644
2300.91013	0.16655
2298.98145	0.16669
2297.05277	0.16687
2295.12410	0.16706
2293.19542	0.16722
2291.26675	0.16732
2289.33807	0.16742
2287.40940	0.16755
2285.48072	0.16769
2283.55204	0.16782
2281.62337	0.16793
2279.69469	0.16802
2277.76602	0.16811
2275.83734	0.16823
2273.90867	0.16837
2271.97999	0.16851
2270.05131	0.16865
2268.12264	0.16880
2266.19396	0.16893
2264.26529	0.16909
2262.33661	0.16925
2260.40794	0.16940
2258.47926	0.16951
2256.55058	0.16965
2254.62191	0.16982
2252.69323	0.17002
2250.76456	0.17020
2248.83588	0.17039
2246.90721	0.17060
2244.97853	0.17081
2243.04985	0.17098
2241.12118	0.17109
2239.19250	0.17122
2237.26383	0.17138
2235.33515	0.17156
2233.40648	0.17175
2231.47780	0.17191
2229.54912	0.17205
2227.62045	0.17222
2225.69177	0.17240
2223.76310	0.17257
2221.83442	0.17272
2219.90575	0.17289
2217.97707	0.17311
2216.04839	0.17331
2214.11972	0.17346
2212.19104	0.17358
2210.26237	0.17374
2208.33369	0.17393
2206.40502	0.17408
2204.47634	0.17418
2202.54766	0.17428
2200.61899	0.17442
2198.69031	0.17459
2196.76164	0.17474
2194.83296	0.17484
2192.90429	0.17494
2190.97561	0.17511
2189.04693	0.17532
2187.11826	0.17554
2185.18958	0.17571
2183.26091	0.17584
2181.33223	0.17597
2179.40356	0.17612
2177.47488	0.17632
2175.54620	0.17651
2173.61753	0.17666
2171.68885	0.17678
2169.76018	0.17694
2167.83150	0.17710
2165.90283	0.17721
2163.97415	0.17729
2162.04547	0.17742
2160.11680	0.17763
2158.18812	0.17780
2156.25945	0.17792
2154.33077	0.17805
2152.40210	0.17821
2150.47342	0.17837
2148.54474	0.17852
2146.61607	0.17867
2144.68739	0.17880
2142.75872	0.17891
2140.83004	0.17902
2138.90137	0.17914
2136.97269	0.17927
2135.04401	0.17943
2133.11534	0.17958
2131.18666	0.17971
2129.25799	0.17984
2127.32931	0.18000
2125.40064	0.18019
2123.47196	0.18039
2121.54328	0.18053
2119.61461	0.18064
2117.68593	0.18078
2115.75726	0.18095
2113.82858	0.18111
2111.89991	0.18126
2109.97123	0.18138
2108.04255	0.18148
2106.11388	0.18165
2104.18520	0.18186
2102.25653	0.18204
2100.32785	0.18220
2098.39918	0.18232
2096.47050	0.18241
2094.54182	0.18250
2092.61315	0.18264
2090.68447	0.18279
2088.75580	0.18295
2086.82712	0.18311
2084.89845	0.18327
2082.96977	0.18344
2081.04109	0.18362
2079.11242	0.18377
2077.18374	0.18390
2075.25507	0.18404
2073.32639	0.18419
2071.39772	0.18435
2069.46904	0.18449
2067.54036	0.18462
2065.61169	0.18475
2063.68301	0.18488
2061.75434	0.18499
2059.82566	0.18511
2057.89699	0.18526
2055.96831	0.18542
2054.03963	0.18558
2052.11096	0.18571
2050.18228	0.18583
2048.25361	0.18595
2046.32493	0.18609
2044.39626	0.18624
2042.46758	0.18638
2040.53890	0.18653
2038.61023	0.18670
2036.68155	0.18690
2034.75288	0.18707
2032.82420	0.18720
2030.89553	0.18730
2028.96685	0.18739
2027.03817	0.18747
2025.10950	0.18759
2023.18082	0.18777
2021.25215	0.18798
2019.32347	0.18811
2017.39480	0.18818
2015.46612	0.18828
2013.53744	0.18842
2011.60877	0.18860
2009.68009	0.18880
2007.75142	0.18900
2005.82274	0.18913
2003.89407	0.18921
2001.96539	0.18929
2000.03671	0.18942
1998.10804	0.18957
1996.17936	0.18967
1994.25069	0.18970
1992.32201	0.18975
1990.39334	0.18990
1988.46466	0.19009
1986.53598	0.19026
1984.60731	0.19038
1982.67863	0.19048
1980.74996	0.19059
1978.82128	0.19072
1976.89261	0.19084
1974.96393	0.19093
1973.03525	0.19101
1971.10658	0.19111
1969.17790	0.19121
1967.24923	0.19133
1965.32055	0.19148
1963.39188	0.19162
1961.46320	0.19172
1959.53452	0.19183
1957.60585	0.19195
1955.67717	0.19210
1953.74850	0.19226
1951.81982	0.19241
1949.89115	0.19253
1947.96247	0.19258
1946.03379	0.19263
1944.10512	0.19272
1942.17644	0.19287
1940.24777	0.19303
1938.31909	0.19317
1936.39042	0.19329
1934.46174	0.19340
1932.53306	0.19353
1930.60439	0.19370
1928.67571	0.19387
1926.74704	0.19397
1924.81836	0.19401
1922.88969	0.19410
1920.96101	0.19425
1919.03233	0.19437
1917.10366	0.19452
1915.17498	0.19476
1913.24631	0.19497
1911.31763	0.19508
1909.38896	0.19517
1907.46028	0.19530
1905.53160	0.19546
1903.60293	0.19560
1901.67425	0.19571
1899.74558	0.19582
1897.81690	0.19591
1895.88823	0.19599
1893.95955	0.19608
1892.03087	0.19620
1890.10220	0.19633
1888.17352	0.19647
1886.24485	0.19664
1884.31617	0.19680
1882.38750	0.19693
1880.45882	0.19703
1878.53014	0.19713
1876.60147	0.19723
1874.67279	0.19730
1872.74412	0.19731
1870.81544	0.19725
1868.88677	0.19734
1866.95809	0.19769
1865.02941	0.19803
1863.10074	0.19820
1861.17206	0.19833
1859.24339	0.19846
1857.31471	0.19861
1855.38604	0.19875
1853.45736	0.19885
1851.52868	0.19895
1849.60001	0.19905
1847.67133	0.19910
1845.74266	0.19907
1843.81398	0.19915
1841.88531	0.19943
1839.95663	0.19971
1838.02795	0.19989
1836.09928	0.20006
1834.17060	0.20017
1832.24193	0.20012
1830.31325	0.20007
1828.38458	0.20020
1826.45590	0.20038
1824.52722	0.20054
1822.59855	0.20075
1820.66987	0.20094
1818.74120	0.20106
1816.81252	0.20118
1814.88385	0.20129
1812.95517	0.20133
1811.02649	0.20138
1809.09782	0.20150
1807.16914	0.20165
1805.24047	0.20175
1803.31179	0.20176
1801.38312	0.20179
1799.45444	0.20190
1797.52576	0.20204
1795.59709	0.20197
1793.66841	0.20179
1791.73974	0.20190
1789.81106	0.20232
1787.88239	0.20255
1785.95371	0.20251
1784.02503	0.20250
1782.09636	0.20259
1780.16768	0.20274
1778.23901	0.20289
1776.31033	0.20291
1774.38166	0.20276
1772.45298	0.20260
1770.52430	0.20263
1768.59563	0.20283
1766.66695	0.20305
1764.73828	0.20313
1762.80960	0.20304
1760.88093	0.20299
1758.95225	0.20304
1757.02357	0.20309
1755.09490	0.20299
1753.16622	0.20255
1751.23755	0.20211
1749.30887	0.20214
1747.38020	0.20236
1745.45152	0.20238
1743.52284	0.20221
1741.59417	0.20198
1739.66549	0.20192
1737.73682	0.20198
1735.80814	0.20181
1733.87947	0.20162
1731.95079	0.20182
1730.02211	0.20216
1728.09344	0.20236
1726.16476	0.20243
1724.23609	0.20241
1722.30741	0.20232
1720.37874	0.20199
1718.45006	0.20155
1716.52138	0.20153
1714.59271	0.20196
1712.66403	0.20235
1710.73536	0.20252
1708.80668	0.20253
1706.87801	0.20244
1704.94933	0.20235
1703.02065	0.20208
1701.09198	0.20169
1699.16330	0.20164
1697.23463	0.20185
1695.30595	0.20213
1693.37728	0.20244
1691.44860	0.20255
1689.51992	0.20247
1687.59125	0.20229
1685.66257	0.20188
1683.73390	0.20165
1681.80522	0.20194
1679.87655	0.20226
1677.94787	0.20210
1676.01919	0.20171
1674.09052	0.20161
1672.16184	0.20172
1670.23317	0.20186
1668.30449	0.20216
1666.37582	0.20239
1664.44714	0.20233
1662.51846	0.20226
1660.58979	0.20240
1658.66111	0.20250
1656.73244	0.20217
1654.80376	0.20137
1652.87509	0.20090
1650.94641	0.20126
1649.01773	0.20164
1647.08906	0.20174
1645.16038	0.20206
1643.23171	0.20247
1641.30303	0.20262
1639.37436	0.20246
1637.44568	0.20217
1635.51700	0.20215
1633.58833	0.20248
1631.65965	0.20274
1629.73098	0.20269
1627.80230	0.20255
1625.87363	0.20238
1623.94495	0.20207
1622.01627	0.20177
1620.08760	0.20167
1618.15892	0.20183
1616.23025	0.20235
1614.30157	0.20309
1612.37290	0.20362
1610.44422	0.20392
1608.51554	0.20418
1606.58687	0.20449
1604.65819	0.20475
1602.72952	0.20493
1600.80084	0.20512
1598.87217	0.20534
1596.94349	0.20549
1595.01481	0.20564
1593.08614	0.20583
1591.15746	0.20601
1589.22879	0.20617
1587.30011	0.20635
1585.37144	0.20651
1583.44276	0.20667
1581.51408	0.20684
1579.58541	0.20682
1577.65673	0.20657
1575.72806	0.20656
1573.79938	0.20694
1571.87071	0.20719
1569.94203	0.20723
1568.01335	0.20739
1566.08468	0.20762
1564.15600	0.20767
1562.22733	0.20729
1560.29865	0.20669
1558.36998	0.20674
1556.44130	0.20752
1554.51262	0.20825
1552.58395	0.20857
1550.65527	0.20867
1548.72660	0.20868
1546.79792	0.20850
1544.86925	0.20816
1542.94057	0.20791
1541.01189	0.20794
1539.08322	0.20839
1537.15454	0.20890
1535.22587	0.20898
1533.29719	0.20897
1531.36852	0.20927
1529.43984	0.20954
1527.51116	0.20949
1525.58249	0.20930
1523.65381	0.20904
1521.72514	0.20896
1519.79646	0.20920
1517.86779	0.20944
1515.93911	0.20958
1514.01043	0.20978
1512.08176	0.20985
1510.15308	0.20945
1508.22441	0.20882
1506.29573	0.20884
1504.36706	0.20962
1502.43838	0.21017
1500.50970	0.21007
1498.58103	0.20973
1496.65235	0.20966
1494.72368	0.20988
1492.79500	0.20995
1490.86633	0.20970
1488.93765	0.20951
1487.00897	0.20954
1485.08030	0.20957
1483.15162	0.20941
1481.22295	0.20910
1479.29427	0.20865
1477.36560	0.20804
1475.43692	0.20739
1473.50824	0.20685
1471.57957	0.20659
1469.65089	0.20650
1467.72222	0.20614
1465.79354	0.20559
1463.86487	0.20533
1461.93619	0.20524
1460.00751	0.20471
1458.07884	0.20395
1456.15016	0.20384
1454.22149	0.20435
1452.29281	0.20468
1450.36414	0.20472
1448.43546	0.20474
1446.50678	0.20484
1444.57811	0.20499
1442.64943	0.20513
1440.72076	0.20517
1438.79208	0.20500
1436.86341	0.20486
1434.93473	0.20500
1433.00605	0.20520
1431.07738	0.20522
1429.14870	0.20525
1427.22003	0.20535
1425.29135	0.20538
1423.36268	0.20520
1421.43400	0.20469
1419.50532	0.20421
1417.57665	0.20437
1415.64797	0.20486
1413.71930	0.20506
1411.79062	0.20505
1409.86195	0.20503
1407.93327	0.20493
1406.00459	0.20477
1404.07592	0.20472
1402.14724	0.20475
1400.21857	0.20466
1398.28989	0.20447
1396.36122	0.20429
1394.43254	0.20423
1392.50386	0.20428
1390.57519	0.20418
1388.64651	0.20383
1386.71784	0.20341
1384.78916	0.20319
1382.86049	0.20327
1380.93181	0.20342
1379.00313	0.20337
1377.07446	0.20314
1375.14578	0.20293
1373.21711	0.20292
1371.28843	0.20302
1369.35976	0.20300
1367.43108	0.20288
1365.50240	0.20273
1363.57373	0.20255
1361.64505	0.20248
1359.71638	0.20257
1357.78770	0.20263
1355.85903	0.20262
1353.93035	0.20265
1352.00167	0.20279
1350.07300	0.20297
1348.14432	0.20307
1346.21565	0.20312
1344.28697	0.20310
1342.35830	0.20293
1340.42962	0.20268
1338.50094	0.20253
1336.57227	0.20251
1334.64359	0.20246
1332.71492	0.20232
1330.78624	0.20210
1328.85757	0.20184
1326.92889	0.20157
1325.00021	0.20131
1323.07154	0.20106
1321.14286	0.20082
1319.21419	0.20054
1317.28551	0.20024
1315.35684	0.19995
1313.42816	0.19968
1311.49948	0.19939
1309.57081	0.19907
1307.64213	0.19870
1305.71346	0.19831
1303.78478	0.19796
1301.85611	0.19764
1299.92743	0.19729
1297.99875	0.19694
1296.07008	0.19663
1294.14140	0.19636
1292.21273	0.19605
1290.28405	0.19564
1288.35538	0.19513
1286.42670	0.19460
1284.49802	0.19404
1282.56935	0.19345
1280.64067	0.19286
1278.71200	0.19223
1276.78332	0.19161
1274.85465	0.19108
1272.92597	0.19057
1270.99729	0.18994
1269.06862	0.18915
1267.13994	0.18825
1265.21127	0.18740
1263.28259	0.18676
1261.35392	0.18642
1259.42524	0.18629
1257.49656	0.18627
1255.56789	0.18624
1253.63921	0.18605
1251.71054	0.18566
1249.78186	0.18511
1247.85319	0.18445
1245.92451	0.18373
1243.99583	0.18296
1242.06716	0.18212
1240.13848	0.18127
1238.20981	0.18041
1236.28113	0.17945
1234.35246	0.17836
1232.42378	0.17724
1230.49510	0.17610
1228.56643	0.17494
1226.63775	0.17381
1224.70908	0.17268
1222.78040	0.17151
1220.85173	0.17036
1218.92305	0.16922
1216.99437	0.16802
1215.06570	0.16674
1213.13702	0.16547
1211.20835	0.16426
1209.27967	0.16303
1207.35100	0.16174
1205.42232	0.16043
1203.49364	0.15913
1201.56497	0.15791
1199.63629	0.15676
1197.70762	0.15561
1195.77894	0.15446
1193.85027	0.15328
1191.92159	0.15209
1189.99291	0.15093
1188.06424	0.14983
1186.13556	0.14864
1184.20689	0.14732
1182.27821	0.14596
1180.34954	0.14467
1178.42086	0.14345
1176.49218	0.14219
1174.56351	0.14093
1172.63483	0.13977
1170.70616	0.13863
1168.77748	0.13739
1166.84881	0.13613
1164.92013	0.13492
1162.99145	0.13374
1161.06278	0.13257
1159.13410	0.13140
1157.20543	0.13031
1155.27675	0.12927
1153.34808	0.12819
1151.41940	0.12709
1149.49072	0.12604
1147.56205	0.12498
1145.63337	0.12389
1143.70470	0.12280
1141.77602	0.12166
1139.84735	0.12043
1137.91867	0.11915
1135.98999	0.11779
1134.06132	0.11630
1132.13264	0.11470
1130.20397	0.11303
1128.27529	0.11120
1126.34662	0.10913
1124.41794	0.10695
1122.48926	0.10476
1120.56059	0.10266
1118.63191	0.10069
1116.70324	0.09882
1114.77456	0.09702
1112.84589	0.09534
1110.91721	0.09387
1108.98853	0.09267
1107.05986	0.09175
1105.13118	0.09100
1103.20251	0.09038
1101.27383	0.08996
1099.34516	0.08967
1097.41648	0.08938
1095.48780	0.08914
1093.55913	0.08902
1091.63045	0.08890
1089.70178	0.08864
1087.77310	0.08825
1085.84443	0.08777
1083.91575	0.08720
1081.98707	0.08649
1080.05840	0.08564
1078.12972	0.08476
1076.20105	0.08394
1074.27237	0.08314
1072.34370	0.08235
1070.41502	0.08161
1068.48634	0.08091
1066.55767	0.08022
1064.62899	0.07955
1062.70032	0.07895
1060.77164	0.07849
1058.84297	0.07817
1056.91429	0.07797
1054.98561	0.07783
1053.05694	0.07769
1051.12826	0.07759
1049.19959	0.07762
1047.27091	0.07782
1045.34224	0.07814
1043.41356	0.07855
1041.48488	0.07904
1039.55621	0.07964
1037.62753	0.08033
1035.69886	0.08108
1033.77018	0.08191
1031.84151	0.08285
1029.91283	0.08390
1027.98415	0.08503
1026.05548	0.08622
1024.12680	0.08744
1022.19813	0.08874
1020.26945	0.09022
1018.34078	0.09192
1016.41210	0.09372
1014.48342	0.09556
1012.55475	0.09755
1010.62607	0.09971
1008.69740	0.10190
1006.76872	0.10409
1004.84005	0.10628
1002.91137	0.10841
1000.98269	0.11045
999.05402	0.11244
997.12534	0.11435
995.19667	0.11618
993.26799	0.11795
991.33932	0.11965
989.41064	0.12125
987.48196	0.12269
985.55329	0.12395
983.62461	0.12503
981.69594	0.12598
979.76726	0.12685
977.83859	0.12764
975.90991	0.12828
973.98123	0.12878
972.05256	0.12920
970.12388	0.12958
968.19521	0.12990
966.26653	0.13014
964.33786	0.13030
962.40918	0.13040
960.48050	0.13045
958.55183	0.13044
956.62315	0.13038
954.69448	0.13032
952.76580	0.13032
950.83713	0.13034
948.90845	0.13032
946.97977	0.13022
945.05110	0.13009
943.12242	0.12992
941.19375	0.12964
939.26507	0.12927
937.33640	0.12893
935.40772	0.12863
933.47904	0.12827
931.55037	0.12784
929.62169	0.12743
927.69302	0.12700
925.76434	0.12648
923.83567	0.12590
921.90699	0.12536
919.97831	0.12484
918.04964	0.12433
916.12096	0.12381
914.19229	0.12322
912.26361	0.12252
910.33494	0.12178
908.40626	0.12107
906.47758	0.12037
904.54891	0.11974
902.62023	0.11916
900.69156	0.11858
898.76288	0.11802
896.83421	0.11751
894.90553	0.11693
892.97685	0.11632
891.04818	0.11580
889.11950	0.11536
887.19083	0.11492
885.26215	0.11454
883.33348	0.11423
881.40480	0.11399
879.47612	0.11385
877.54745	0.11377
875.61877	0.11373
873.69010	0.11375
871.76142	0.11383
869.83275	0.11395
867.90407	0.11406
865.97539	0.11416
864.04672	0.11431
862.11804	0.11448
860.18937	0.11461
858.26069	0.11462
856.33202	0.11454
854.40334	0.11444
852.47466	0.11428
850.54599	0.11397
848.61731	0.11359
846.68864	0.11319
844.75996	0.11276
842.83129	0.11240
840.90261	0.11204
838.97394	0.11154
837.04526	0.11084
835.11658	0.11006
833.18791	0.10919
831.25923	0.10819
829.33056	0.10710
827.40188	0.10599
825.47321	0.10491
823.54453	0.10387
821.61585	0.10297
819.68718	0.10224
817.75850	0.10157
815.82983	0.10097
813.90115	0.10052
811.97248	0.10017
810.04380	0.09989
808.11512	0.09964
806.18645	0.09940
804.25777	0.09929
802.32910	0.09931
800.40042	0.09916
798.47175	0.09870
796.54307	0.09814
794.61439	0.09773
792.68572	0.09749
790.75704	0.09738
788.82837	0.09730
786.89969	0.09719
784.97102	0.09714
783.04234	0.09711
781.11366	0.09705
779.18499	0.09697
777.25631	0.09690
775.32764	0.09682
773.39896	0.09670
771.47029	0.09658
769.54161	0.09648
767.61293	0.09637
765.68426	0.09622
763.75558	0.09595
761.82691	0.09557
759.89823	0.09525
757.96956	0.09503
756.04088	0.09470
754.11220	0.09419
752.18353	0.09362
750.25485	0.09308
748.32618	0.09254
746.39750	0.09195
744.46883	0.09128
742.54015	0.09054
740.61147	0.08982
738.68280	0.08934
736.75412	0.08918
734.82545	0.08922
732.89677	0.08938
730.96810	0.08958
729.03942	0.08975
727.11074	0.08986
725.18207	0.08996
723.25339	0.09004
721.32472	0.09017
719.39604	0.09036
717.46737	0.09065
715.53869	0.09111
713.61001	0.09167
711.68134	0.09205
709.75266	0.09219
707.82399	0.09218
705.89531	0.09211
703.96664	0.09205
702.03796	0.09197
700.10928	0.09164
698.18061	0.09101
696.25193	0.09031
694.32326	0.08978
692.39458	0.08932
690.46591	0.08881
688.53723	0.08831
686.60855	0.08784
684.67988	0.08736
682.75120	0.08688
680.82253	0.08637
678.89385	0.08581
676.96518	0.08527
675.03650	0.08467
673.10782	0.08400
671.17915	0.08321
669.25047	0.08235
667.32180	0.08154
665.39312	0.08081
663.46445	0.08001
661.53577	0.07911
659.60709	0.07823
657.67842	0.07745
655.74974	0.07677
653.82107	0.07611
651.89239	0.07537
649.96372	0.07456
648.03504	0.07379
646.10636	0.07300
644.17769	0.07213
642.24901	0.07117
640.32034	0.07013
638.39166	0.06903
636.46299	0.06798
634.53431	0.06699
632.60563	0.06568
630.67696	0.06343
628.74828	0.06002
626.81961	0.05579
624.89093	0.05152
622.96226	0.04819
621.03358	0.04614
619.10490	0.04500
617.17623	0.04424
615.24755	0.04336
613.31888	0.04226
611.39020	0.04128
609.46153	0.04081
607.53285	0.04093
605.60417	0.04134
603.67550	0.04183
601.74682	0.04249
599.81815	0.04331
597.88947	0.04410
595.96080	0.04473
594.03212	0.04513
592.10344	0.04535
590.17477	0.04554
588.24609	0.04566
586.31742	0.04560
584.38874	0.04538
582.46007	0.04504
580.53139	0.04461
578.60271	0.04406
576.67404	0.04350
574.74536	0.04298
572.81669	0.04246
570.88801	0.04186
568.95934	0.04119
567.03066	0.04065
565.10198	0.04032
563.17331	0.04007
561.24463	0.03983
559.31596	0.03964
557.38728	0.03945
555.45861	0.03923
553.52993	0.03894
551.60125	0.03864
549.67258	0.03843
547.74390	0.03835
545.81523	0.03828
543.88655	0.03816
541.95788	0.03803
540.02920	0.03784
538.10052	0.03761
536.17185	0.03744
534.24317	0.03730
532.31450	0.03708
530.38582	0.03678
528.45715	0.03647
526.52847	0.03611
524.59979	0.03575
522.67112	0.03546
520.74244	0.03509
518.81377	0.03453
516.88509	0.03385
514.95642	0.03313
513.02774	0.03260
511.09906	0.03239
509.17039	0.03235
507.24171	0.03222
505.31304	0.03186
503.38436	0.03131
501.45569	0.03076
499.52701	0.03029
497.59833	0.02978
495.66966	0.02918
493.74098	0.02864
491.81231	0.02815
489.88363	0.02753
487.95496	0.02675
486.02628	0.02600
484.09760	0.02538
482.16893	0.02486
480.24025	0.02435
478.31158	0.02376
476.38290	0.02313
474.45423	0.02251
472.52555	0.02193
470.59687	0.02142
468.66820	0.02099
466.73952	0.02062
464.81085	0.02023
462.88217	0.01987
460.95350	0.01968
459.02482	0.01962
457.09614	0.01952
455.16747	0.01941
453.23879	0.01933
451.31012	0.01924
449.38144	0.01912
447.45277	0.01907
445.52409	0.01902
443.59541	0.01887
441.66674	0.01863
439.73806	0.01829
437.80939	0.01784
435.88071	0.01738
433.95204	0.01699
432.02336	0.01662
430.09468	0.01621
428.16601	0.01578
426.23733	0.01526
424.30866	0.01456
422.37998	0.01395
420.45131	0.01364
418.52263	0.01333
416.59395	0.01279
414.66528	0.01217
412.73660	0.01163
410.80793	0.01112
408.87925	0.01056
406.95058	0.01001
405.02190	0.00944
403.09322	0.00889
401.16455	0.00844
399.23587	0.00806
397.30720	0.00769
395.37852	0.00736
393.44985	0.00701
391.52117	0.00652
389.59249	0.00594
387.66382	0.00548
385.73514	0.00518
383.80647	0.00486
381.87779	0.00445
379.94912	0.00402
378.02044	0.00370
376.09176	0.00344
374.16309	0.00306
372.23441	0.00267
370.30574	0.00252
368.37706	0.00246
