7496.76250	0.00120
7494.83382	0.00121
7492.90514	0.00122
7490.97647	0.00122
7489.04779	0.00123
7487.11912	0.00122
7485.19044	0.00123
7483.26177	0.00125
7481.33309	0.00125
7479.40441	0.00124
7477.47574	0.00124
7475.54706	0.00125
7473.61839	0.00126
7471.68971	0.00128
7469.76104	0.00129
7467.83236	0.00129
7465.90368	0.00128
7463.97501	0.00127
7462.04633	0.00128
7460.11766	0.00129
7458.18898	0.00130
7456.26031	0.00130
7454.33163	0.00131
7452.40295	0.00131
7450.47428	0.00132
7448.54560	0.00131
7446.61693	0.00130
7444.68825	0.00129
7442.75958	0.00130
7440.83090	0.00131
7438.90222	0.00133
7436.97355	0.00134
7435.04487	0.00133
7433.11620	0.00133
7431.18752	0.00133
7429.25885	0.00134
7427.33017	0.00134
7425.40149	0.00134
7423.47282	0.00133
7421.54414	0.00133
7419.61547	0.00134
7417.68679	0.00136
7415.75812	0.00139
7413.82944	0.00139
7411.90076	0.00137
7409.97209	0.00137
7408.04341	0.00138
7406.11474	0.00138
7404.18606	0.00137
7402.25739	0.00137
7400.32871	0.00137
7398.40003	0.00137
7396.47136	0.00138
7394.54268	0.00139
7392.61401	0.00141
7390.68533	0.00142
7388.75666	0.00142
7386.82798	0.00142
7384.89930	0.00142
7382.97063	0.00143
7381.04195	0.00144
7379.11328	0.00144
7377.18460	0.00143
7375.25593	0.00143
7373.32725	0.00143
7371.39857	0.00143
7369.46990	0.00144
7367.54122	0.00144
7365.61255	0.00144
7363.68387	0.00144
7361.75520	0.00144
7359.82652	0.00144
7357.89784	0.00144
7355.96917	0.00145
7354.04049	0.00145
7352.11182	0.00145
7350.18314	0.00145
7348.25447	0.00144
7346.32579	0.00145
7344.39711	0.00146
7342.46844	0.00148
7340.53976	0.00150
7338.61109	0.00151
7336.68241	0.00152
7334.75374	0.00153
7332.82506	0.00153
7330.89638	0.00152
7328.96771	0.00152
7327.03903	0.00151
7325.11036	0.00153
7323.18168	0.00155
7321.25301	0.00157
7319.32433	0.00157
7317.39565	0.00156
7315.46698	0.00155
7313.53830	0.00156
7311.60963	0.00157
7309.68095	0.00157
7307.75228	0.00158
7305.82360	0.00157
7303.89492	0.00157
7301.96625	0.00158
7300.03757	0.00159
7298.10890	0.00160
7296.18022	0.00161
7294.25155	0.00162
7292.32287	0.00161
7290.39419	0.00159
7288.46552	0.00159
7286.53684	0.00162
7284.60817	0.00162
7282.67949	0.00162
7280.75082	0.00163
7278.82214	0.00163
7276.89346	0.00163
7274.96479	0.00163
7273.03611	0.00164
7271.10744	0.00164
7269.17876	0.00164
7267.25009	0.00166
7265.32141	0.00168
7263.39273	0.00168
7261.46406	0.00167
7259.53538	0.00167
7257.60671	0.00165
7255.67803	0.00164
7253.74936	0.00165
7251.82068	0.00167
7249.89200	0.00168
7247.96333	0.00170
7246.03465	0.00172
7244.10598	0.00173
7242.17730	0.00172
7240.24863	0.00171
7238.31995	0.00170
7236.39127	0.00171
7234.46260	0.00172
7232.53392	0.00173
7230.60525	0.00173
7228.67657	0.00173
7226.74790	0.00172
7224.81922	0.00173
7222.89054	0.00174
7220.96187	0.00175
7219.03319	0.00176
7217.10452	0.00175
7215.17584	0.00175
7213.24717	0.00175
7211.31849	0.00176
7209.38981	0.00177
7207.46114	0.00178
7205.53246	0.00178
7203.60379	0.00179
7201.67511	0.00181
7199.74644	0.00181
7197.81776	0.00182
7195.88908	0.00181
7193.96041	0.00180
7192.03173	0.00179
7190.10306	0.00179
7188.17438	0.00180
7186.24571	0.00182
7184.31703	0.00184
7182.38835	0.00185
7180.45968	0.00186
7178.53100	0.00186
7176.60233	0.00186
7174.67365	0.00186
7172.74498	0.00188
7170.81630	0.00189
7168.88762	0.00187
7166.95895	0.00186
7165.03027	0.00186
7163.10160	0.00187
7161.17292	0.00188
7159.24425	0.00188
7157.31557	0.00187
7155.38689	0.00186
7153.45822	0.00186
7151.52954	0.00189
7149.60087	0.00191
7147.67219	0.00192
7145.74352	0.00190
7143.81484	0.00189
7141.88616	0.00190
7139.95749	0.00192
7138.02881	0.00192
7136.10014	0.00192
7134.17146	0.00192
7132.24279	0.00193
7130.31411	0.00194
7128.38543	0.00195
7126.45676	0.00196
7124.52808	0.00198
7122.59941	0.00198
7120.67073	0.00197
7118.74206	0.00197
7116.81338	0.00197
7114.88470	0.00197
7112.95603	0.00198
7111.02735	0.00199
7109.09868	0.00200
7107.17000	0.00200
7105.24133	0.00200
7103.31265	0.00201
7101.38397	0.00203
7099.45530	0.00205
7097.52662	0.00206
7095.59795	0.00205
7093.66927	0.00205
7091.74060	0.00206
7089.81192	0.00205
7087.88324	0.00203
7085.95457	0.00203
7084.02589	0.00204
7082.09722	0.00205
7080.16854	0.00206
7078.23987	0.00208
7076.31119	0.00210
7074.38251	0.00210
7072.45384	0.00210
7070.52516	0.00210
7068.59649	0.00209
7066.66781	0.00209
7064.73914	0.00210
7062.81046	0.00210
7060.88178	0.00210
7058.95311	0.00211
7057.02443	0.00211
7055.09576	0.00213
7053.16708	0.00214
7051.23841	0.00214
7049.30973	0.00214
7047.38105	0.00214
7045.45238	0.00215
7043.52370	0.00216
7041.59503	0.00216
7039.66635	0.00216
7037.73768	0.00216
7035.80900	0.00217
7033.88032	0.00218
7031.95165	0.00220
7030.02297	0.00222
7028.09430	0.00223
7026.16562	0.00223
7024.23695	0.00222
7022.30827	0.00223
7020.37959	0.00224
7018.45092	0.00224
7016.52224	0.00223
7014.59357	0.00221
7012.66489	0.00221
7010.73622	0.00223
7008.80754	0.00226
7006.87886	0.00227
7004.95019	0.00227
7003.02151	0.00226
7001.09284	0.00226
6999.16416	0.00226
6997.23549	0.00228
6995.30681	0.00230
6993.37813	0.00230
6991.44946	0.00230
6989.52078	0.00231
6987.59211	0.00231
6985.66343	0.00230
6983.73476	0.00231
6981.80608	0.00231
6979.87740	0.00232
6977.94873	0.00233
6976.02005	0.00234
6974.09138	0.00234
6972.16270	0.00235
6970.23403	0.00236
6968.30535	0.00238
6966.37667	0.00239
6964.44800	0.00237
6962.51932	0.00236
6960.59065	0.00237
6958.66197	0.00240
6956.73330	0.00241
6954.80462	0.00239
6952.87594	0.00237
6950.94727	0.00238
6949.01859	0.00239
6947.08992	0.00240
6945.16124	0.00240
6943.23257	0.00242
6941.30389	0.00244
6939.37521	0.00246
6937.44654	0.00245
6935.51786	0.00243
6933.58919	0.00243
6931.66051	0.00244
6929.73184	0.00245
6927.80316	0.00246
6925.87448	0.00247
6923.94581	0.00248
6922.01713	0.00248
6920.08846	0.00249
6918.15978	0.00251
6916.23111	0.00252
6914.30243	0.00252
6912.37375	0.00252
6910.44508	0.00251
6908.51640	0.00251
6906.58773	0.00252
6904.65905	0.00254
6902.73038	0.00255
6900.80170	0.00256
6898.87302	0.00257
6896.94435	0.00258
6895.01567	0.00258
6893.08700	0.00258
6891.15832	0.00258
6889.22965	0.00259
6887.30097	0.00258
6885.37229	0.00258
6883.44362	0.00259
6881.51494	0.00260
6879.58627	0.00262
6877.65759	0.00262
6875.72892	0.00263
6873.80024	0.00263
6871.87156	0.00262
6869.94289	0.00261
6868.01421	0.00262
6866.08554	0.00265
6864.15686	0.00267
6862.22819	0.00268
6860.29951	0.00268
6858.37083	0.00268
6856.44216	0.00268
6854.51348	0.00269
6852.58481	0.00271
6850.65613	0.00272
6848.72746	0.00272
6846.79878	0.00272
6844.87010	0.00274
6842.94143	0.00275
6841.01275	0.00276
6839.08408	0.00277
6837.15540	0.00277
6835.22673	0.00277
6833.29805	0.00277
6831.36937	0.00277
6829.44070	0.00276
6827.51202	0.00276
6825.58335	0.00277
6823.65467	0.00278
6821.72600	0.00279
6819.79732	0.00281
6817.86864	0.00281
6815.93997	0.00281
6814.01129	0.00281
6812.08262	0.00282
6810.15394	0.00283
6808.22527	0.00285
6806.29659	0.00285
6804.36791	0.00284
6802.43924	0.00284
6800.51056	0.00284
6798.58189	0.00284
6796.65321	0.00285
6794.72454	0.00286
6792.79586	0.00287
6790.86718	0.00289
6788.93851	0.00291
6787.00983	0.00291
6785.08116	0.00292
6783.15248	0.00293
6781.22381	0.00295
6779.29513	0.00295
6777.36645	0.00295
6775.43778	0.00293
6773.50910	0.00294
6771.58043	0.00295
6769.65175	0.00296
6767.72308	0.00296
6765.79440	0.00298
6763.86572	0.00300
6761.93705	0.00301
6760.00837	0.00301
6758.07970	0.00301
6756.15102	0.00302
6754.22235	0.00303
6752.29367	0.00303
6750.36499	0.00304
6748.43632	0.00305
6746.50764	0.00306
6744.57897	0.00307
6742.65029	0.00308
6740.72162	0.00308
6738.79294	0.00307
6736.86426	0.00306
6734.93559	0.00305
6733.00691	0.00305
6731.07824	0.00307
6729.14956	0.00311
6727.22089	0.00313
6725.29221	0.00313
6723.36353	0.00313
6721.43486	0.00314
6719.50618	0.00315
6717.57751	0.00316
6715.64883	0.00317
6713.72016	0.00317
6711.79148	0.00317
6709.86280	0.00317
6707.93413	0.00317
6706.00545	0.00319
6704.07678	0.00321
6702.14810	0.00322
6700.21943	0.00323
6698.29075	0.00324
6696.36207	0.00323
6694.43340	0.00324
6692.50472	0.00325
6690.57605	0.00326
6688.64737	0.00326
6686.71870	0.00326
6684.79002	0.00327
6682.86134	0.00328
6680.93267	0.00328
6679.00399	0.00328
6677.07532	0.00329
6675.14664	0.00330
6673.21797	0.00329
6671.28929	0.00329
6669.36061	0.00330
6667.43194	0.00332
6665.50326	0.00334
6663.57459	0.00336
6661.64591	0.00338
6659.71724	0.00339
6657.78856	0.00339
6655.85988	0.00340
6653.93121	0.00340
6652.00253	0.00341
6650.07386	0.00341
6648.14518	0.00342
6646.21651	0.00342
6644.28783	0.00342
6642.35915	0.00341
6640.43048	0.00342
6638.50180	0.00344
6636.57313	0.00345
6634.64445	0.00344
6632.71578	0.00345
6630.78710	0.00347
6628.85842	0.00349
6626.92975	0.00350
6625.00107	0.00350
6623.07240	0.00351
6621.14372	0.00352
6619.21505	0.00353
6617.28637	0.00354
6615.35769	0.00356
6613.42902	0.00356
6611.50034	0.00357
6609.57167	0.00357
6607.64299	0.00357
6605.71432	0.00356
6603.78564	0.00355
6601.85696	0.00357
6599.92829	0.00360
6597.99961	0.00361
6596.07094	0.00362
6594.14226	0.00361
6592.21359	0.00361
6590.28491	0.00364
6588.35623	0.00366
6586.42756	0.00366
6584.49888	0.00366
6582.57021	0.00366
6580.64153	0.00368
6578.71286	0.00370
6576.78418	0.00371
6574.85550	0.00371
6572.92683	0.00372
6570.99815	0.00374
6569.06948	0.00375
6567.14080	0.00375
6565.21213	0.00375
6563.28345	0.00375
6561.35477	0.00377
6559.42610	0.00379
6557.49742	0.00381
6555.56875	0.00380
6553.64007	0.00379
6551.71140	0.00379
6549.78272	0.00379
6547.85404	0.00380
6545.92537	0.00382
6543.99669	0.00385
6542.06802	0.00385
6540.13934	0.00384
6538.21067	0.00385
6536.28199	0.00387
6534.35331	0.00388
6532.42464	0.00388
6530.49596	0.00388
6528.56729	0.00388
6526.63861	0.00390
6524.70994	0.00392
6522.78126	0.00394
6520.85258	0.00395
6518.92391	0.00396
6516.99523	0.00397
6515.06656	0.00397
6513.13788	0.00399
6511.20921	0.00402
6509.28053	0.00405
6507.35185	0.00406
6505.42318	0.00405
6503.49450	0.00404
6501.56583	0.00404
6499.63715	0.00404
6497.70848	0.00404
6495.77980	0.00405
6493.85112	0.00408
6491.92245	0.00410
6489.99377	0.00411
6488.06510	0.00411
6486.13642	0.00412
6484.20775	0.00413
6482.27907	0.00416
6480.35039	0.00417
6478.42172	0.00416
6476.49304	0.00417
6474.56437	0.00418
6472.63569	0.00420
6470.70702	0.00419
6468.77834	0.00418
6466.84966	0.00419
6464.92099	0.00423
6462.99231	0.00426
6461.06364	0.00427
6459.13496	0.00426
6457.20629	0.00425
6455.27761	0.00425
6453.34893	0.00425
6451.42026	0.00425
6449.49158	0.00427
6447.56291	0.00428
6445.63423	0.00430
6443.70556	0.00432
6441.77688	0.00433
6439.84820	0.00434
6437.91953	0.00435
6435.99085	0.00436
6434.06218	0.00437
6432.13350	0.00437
6430.20483	0.00437
6428.27615	0.00437
6426.34747	0.00439
6424.41880	0.00442
6422.49012	0.00444
6420.56145	0.00445
6418.63277	0.00445
6416.70410	0.00446
6414.77542	0.00447
6412.84674	0.00448
6410.91807	0.00449
6408.98939	0.00450
6407.06072	0.00452
6405.13204	0.00454
6403.20337	0.00455
6401.27469	0.00454
6399.34601	0.00454
6397.41734	0.00456
6395.48866	0.00458
6393.55999	0.00461
6391.63131	0.00462
6389.70264	0.00461
6387.77396	0.00461
6385.84528	0.00462
6383.91661	0.00464
6381.98793	0.00466
6380.05926	0.00466
6378.13058	0.00466
6376.20191	0.00466
6374.27323	0.00467
6372.34455	0.00469
6370.41588	0.00471
6368.48720	0.00471
6366.55853	0.00471
6364.62985	0.00471
6362.70118	0.00472
6360.77250	0.00475
6358.84382	0.00477
6356.91515	0.00477
6354.98647	0.00477
6353.05780	0.00478
6351.12912	0.00479
6349.20045	0.00479
6347.27177	0.00480
6345.34309	0.00482
6343.41442	0.00484
6341.48574	0.00485
6339.55707	0.00488
6337.62839	0.00490
6335.69972	0.00490
6333.77104	0.00490
6331.84236	0.00491
6329.91369	0.00492
6327.98501	0.00493
6326.05634	0.00495
6324.12766	0.00496
6322.19899	0.00497
6320.27031	0.00498
6318.34163	0.00499
6316.41296	0.00500
6314.48428	0.00502
6312.55561	0.00503
6310.62693	0.00504
6308.69826	0.00505
6306.76958	0.00507
6304.84090	0.00508
6302.91223	0.00508
6300.98355	0.00510
6299.05488	0.00511
6297.12620	0.00511
6295.19753	0.00512
6293.26885	0.00515
6291.34017	0.00517
6289.41150	0.00518
6287.48282	0.00519
6285.55415	0.00519
6283.62547	0.00519
6281.69680	0.00519
6279.76812	0.00520
6277.83944	0.00521
6275.91077	0.00523
6273.98209	0.00525
6272.05342	0.00527
6270.12474	0.00530
6268.19607	0.00532
6266.26739	0.00533
6264.33871	0.00533
6262.41004	0.00533
6260.48136	0.00533
6258.55269	0.00533
6256.62401	0.00535
6254.69534	0.00538
6252.76666	0.00540
6250.83798	0.00540
6248.90931	0.00541
6246.98063	0.00544
6245.05196	0.00546
6243.12328	0.00546
6241.19461	0.00546
6239.26593	0.00548
6237.33725	0.00549
6235.40858	0.00549
6233.47990	0.00551
6231.55123	0.00554
6229.62255	0.00557
6227.69388	0.00558
6225.76520	0.00558
6223.83652	0.00557
6221.90785	0.00557
6219.97917	0.00558
6218.05050	0.00560
6216.12182	0.00562
6214.19315	0.00564
6212.26447	0.00565
6210.33579	0.00566
6208.40712	0.00568
6206.47844	0.00571
6204.54977	0.00571
6202.62109	0.00570
6200.69242	0.00569
6198.76374	0.00569
6196.83506	0.00571
6194.90639	0.00573
6192.97771	0.00576
6191.04904	0.00577
6189.12036	0.00578
6187.19169	0.00579
6185.26301	0.00581
6183.33433	0.00583
6181.40566	0.00585
6179.47698	0.00588
6177.54831	0.00589
6175.61963	0.00588
6173.69096	0.00587
6171.76228	0.00590
6169.83360	0.00594
6167.90493	0.00597
6165.97625	0.00599
6164.04758	0.00599
6162.11890	0.00600
6160.19023	0.00602
6158.26155	0.00603
6156.33287	0.00603
6154.40420	0.00603
6152.47552	0.00604
6150.54685	0.00606
6148.61817	0.00607
6146.68950	0.00610
6144.76082	0.00612
6142.83214	0.00613
6140.90347	0.00614
6138.97479	0.00615
6137.04612	0.00616
6135.11744	0.00618
6133.18877	0.00620
6131.26009	0.00622
6129.33141	0.00622
6127.40274	0.00624
6125.47406	0.00626
6123.54539	0.00627
6121.61671	0.00627
6119.68804	0.00628
6117.75936	0.00630
6115.83068	0.00632
6113.90201	0.00634
6111.97333	0.00637
6110.04466	0.00638
6108.11598	0.00638
6106.18731	0.00638
6104.25863	0.00638
6102.32995	0.00639
6100.40128	0.00640
6098.47260	0.00642
6096.54393	0.00645
6094.61525	0.00649
6092.68658	0.00650
6090.75790	0.00650
6088.82922	0.00651
6086.90055	0.00653
6084.97187	0.00654
6083.04320	0.00654
6081.11452	0.00656
6079.18585	0.00657
6077.25717	0.00659
6075.32849	0.00660
6073.39982	0.00661
6071.47114	0.00663
6069.54247	0.00666
6067.61379	0.00668
6065.68512	0.00670
6063.75644	0.00670
6061.82776	0.00671
6059.89909	0.00672
6057.97041	0.00675
6056.04174	0.00678
6054.11306	0.00680
6052.18439	0.00680
6050.25571	0.00680
6048.32703	0.00682
6046.39836	0.00684
6044.46968	0.00687
6042.54101	0.00688
6040.61233	0.00690
6038.68366	0.00691
6036.75498	0.00692
6034.82630	0.00692
6032.89763	0.00694
6030.96895	0.00697
6029.04028	0.00700
6027.11160	0.00701
6025.18293	0.00702
6023.25425	0.00704
6021.32557	0.00706
6019.39690	0.00707
6017.46822	0.00708
6015.53955	0.00710
6013.61087	0.00711
6011.68220	0.00712
6009.75352	0.00713
6007.82484	0.00714
6005.89617	0.00715
6003.96749	0.00717
6002.03882	0.00719
6000.11014	0.00722
5998.18147	0.00724
5996.25279	0.00726
5994.32411	0.00728
5992.39544	0.00730
5990.46676	0.00731
5988.53809	0.00730
5986.60941	0.00731
5984.68074	0.00735
5982.75206	0.00739
5980.82338	0.00741
5978.89471	0.00741
5976.96603	0.00742
5975.03736	0.00744
5973.10868	0.00745
5971.18001	0.00747
5969.25133	0.00750
5967.32265	0.00752
5965.39398	0.00754
5963.46530	0.00755
5961.53663	0.00755
5959.60795	0.00755
5957.67928	0.00756
5955.75060	0.00760
5953.82192	0.00763
5951.89325	0.00764
5949.96457	0.00766
5948.03590	0.00766
5946.10722	0.00767
5944.17855	0.00769
5942.24987	0.00772
5940.32119	0.00774
5938.39252	0.00775
5936.46384	0.00777
5934.53517	0.00780
5932.60649	0.00783
5930.67782	0.00786
5928.74914	0.00786
5926.82046	0.00788
5924.89179	0.00790
5922.96311	0.00790
5921.03444	0.00790
5919.10576	0.00791
5917.17709	0.00794
5915.24841	0.00796
5913.31973	0.00798
5911.39106	0.00800
5909.46238	0.00801
5907.53371	0.00804
5905.60503	0.00807
5903.67636	0.00809
5901.74768	0.00809
5899.81900	0.00809
5897.89033	0.00811
5895.96165	0.00812
5894.03298	0.00815
5892.10430	0.00818
5890.17563	0.00818
5888.24695	0.00819
5886.31827	0.00823
5884.38960	0.00825
5882.46092	0.00827
5880.53225	0.00830
5878.60357	0.00833
5876.67490	0.00835
5874.74622	0.00835
5872.81755	0.00835
5870.88887	0.00837
5868.96019	0.00840
5867.03152	0.00844
5865.10284	0.00845
5863.17417	0.00844
5861.24549	0.00844
5859.31682	0.00847
5857.38814	0.00851
5855.45946	0.00854
5853.53079	0.00854
5851.60211	0.00855
5849.67344	0.00857
5847.74476	0.00859
5845.81609	0.00863
5843.88741	0.00865
5841.95873	0.00866
5840.03006	0.00866
5838.10138	0.00869
5836.17271	0.00873
5834.24403	0.00876
5832.31536	0.00878
5830.38668	0.00880
5828.45800	0.00881
5826.52933	0.00882
5824.60065	0.00885
5822.67198	0.00888
5820.74330	0.00889
5818.81463	0.00888
5816.88595	0.00890
5814.95727	0.00893
5813.02860	0.00897
5811.09992	0.00899
5809.17125	0.00902
5807.24257	0.00904
5805.31390	0.00904
5803.38522	0.00905
5801.45654	0.00907
5799.52787	0.00910
5797.59919	0.00912
5795.67052	0.00913
5793.74184	0.00914
5791.81317	0.00916
5789.88449	0.00918
5787.95581	0.00921
5786.02714	0.00925
5784.09846	0.00927
5782.16979	0.00928
5780.24111	0.00927
5778.31244	0.00927
5776.38376	0.00931
5774.45508	0.00934
5772.52641	0.00937
5770.59773	0.00939
5768.66906	0.00942
5766.74038	0.00944
5764.81171	0.00945
5762.88303	0.00946
5760.95435	0.00946
5759.02568	0.00947
5757.09700	0.00950
5755.16833	0.00955
5753.23965	0.00959
5751.31098	0.00960
5749.38230	0.00961
5747.45362	0.00963
5745.52495	0.00964
5743.59627	0.00965
5741.66760	0.00969
5739.73892	0.00974
5737.81025	0.00978
5735.88157	0.00979
5733.95289	0.00978
5732.02422	0.00978
5730.09554	0.00979
5728.16687	0.00983
5726.23819	0.00986
5724.30952	0.00988
5722.38084	0.00990
5720.45216	0.00991
5718.52349	0.00994
5716.59481	0.00998
5714.66614	0.01001
5712.73746	0.01001
5710.80879	0.01001
5708.88011	0.01004
5706.95143	0.01008
5705.02276	0.01011
5703.09408	0.01011
5701.16541	0.01012
5699.23673	0.01014
5697.30806	0.01017
5695.37938	0.01021
5693.45070	0.01026
5691.52203	0.01030
5689.59335	0.01032
5687.66468	0.01034
5685.73600	0.01035
5683.80733	0.01037
5681.87865	0.01039
5679.94997	0.01039
5678.02130	0.01039
5676.09262	0.01041
5674.16395	0.01045
5672.23527	0.01049
5670.30660	0.01050
5668.37792	0.01051
5666.44924	0.01053
5664.52057	0.01057
5662.59189	0.01060
5660.66322	0.01061
5658.73454	0.01063
5656.80587	0.01066
5654.87719	0.01067
5652.94851	0.01067
5651.01984	0.01069
5649.09116	0.01072
5647.16249	0.01075
5645.23381	0.01078
5643.30514	0.01081
5641.37646	0.01084
5639.44778	0.01086
5637.51911	0.01088
5635.59043	0.01091
5633.66176	0.01092
5631.73308	0.01092
5629.80441	0.01094
5627.87573	0.01099
5625.94705	0.01102
5624.01838	0.01104
5622.08970	0.01106
5620.16103	0.01109
5618.23235	0.01113
5616.30368	0.01115
5614.37500	0.01116
5612.44632	0.01118
5610.51765	0.01121
5608.58897	0.01124
5606.66030	0.01125
5604.73162	0.01126
5602.80295	0.01129
5600.87427	0.01130
5598.94559	0.01132
5597.01692	0.01134
5595.08824	0.01139
5593.15957	0.01143
5591.23089	0.01145
5589.30222	0.01146
5587.37354	0.01147
5585.44486	0.01150
5583.51619	0.01153
5581.58751	0.01157
5579.65884	0.01158
5577.73016	0.01159
5575.80149	0.01161
5573.87281	0.01166
5571.94413	0.01171
5570.01546	0.01174
5568.08678	0.01176
5566.15811	0.01178
5564.22943	0.01179
5562.30076	0.01181
5560.37208	0.01183
5558.44340	0.01186
5556.51473	0.01189
5554.58605	0.01192
5552.65738	0.01194
5550.72870	0.01195
5548.80003	0.01197
5546.87135	0.01200
5544.94267	0.01203
5543.01400	0.01205
5541.08532	0.01207
5539.15665	0.01210
5537.22797	0.01212
5535.29930	0.01214
5533.37062	0.01216
5531.44194	0.01220
5529.51327	0.01222
5527.58459	0.01224
5525.65592	0.01226
5523.72724	0.01228
5521.79857	0.01231
5519.86989	0.01234
5517.94121	0.01238
5516.01254	0.01241
5514.08386	0.01242
5512.15519	0.01244
5510.22651	0.01245
5508.29784	0.01247
5506.36916	0.01250
5504.44048	0.01253
5502.51181	0.01257
5500.58313	0.01260
5498.65446	0.01262
5496.72578	0.01264
5494.79711	0.01266
5492.86843	0.01269
5490.93975	0.01273
5489.01108	0.01275
5487.08240	0.01277
5485.15373	0.01280
5483.22505	0.01285
5481.29638	0.01290
5479.36770	0.01293
5477.43902	0.01294
5475.51035	0.01295
5473.58167	0.01297
5471.65300	0.01301
5469.72432	0.01304
5467.79565	0.01306
5465.86697	0.01307
5463.93829	0.01308
5462.00962	0.01310
5460.08094	0.01313
5458.15227	0.01316
5456.22359	0.01317
5454.29492	0.01318
5452.36624	0.01321
5450.43756	0.01327
5448.50889	0.01332
5446.58021	0.01334
5444.65154	0.01335
5442.72286	0.01336
5440.79419	0.01338
5438.86551	0.01341
5436.93683	0.01346
5435.00816	0.01350
5433.07948	0.01353
5431.15081	0.01355
5429.22213	0.01355
5427.29346	0.01356
5425.36478	0.01359
5423.43610	0.01364
5421.50743	0.01369
5419.57875	0.01373
5417.65008	0.01374
5415.72140	0.01375
5413.79273	0.01376
5411.86405	0.01379
5409.93537	0.01382
5408.00670	0.01388
5406.07802	0.01393
5404.14935	0.01396
5402.22067	0.01397
5400.29200	0.01399
5398.36332	0.01400
5396.43464	0.01400
5394.50597	0.01402
5392.57729	0.01406
5390.64862	0.01411
5388.71994	0.01413
5386.79127	0.01414
5384.86259	0.01416
5382.93391	0.01418
5381.00524	0.01421
5379.07656	0.01425
5377.14789	0.01429
5375.21921	0.01433
5373.29054	0.01437
5371.36186	0.01441
5369.43318	0.01444
5367.50451	0.01447
5365.57583	0.01449
5363.64716	0.01452
5361.71848	0.01454
5359.78981	0.01457
5357.86113	0.01461
5355.93245	0.01464
5354.00378	0.01467
5352.07510	0.01471
5350.14643	0.01474
5348.21775	0.01474
5346.28908	0.01474
5344.36040	0.01477
5342.43172	0.01483
5340.50305	0.01488
5338.57437	0.01490
5336.64570	0.01492
5334.71702	0.01494
5332.78835	0.01496
5330.85967	0.01498
5328.93099	0.01500
5327.00232	0.01502
5325.07364	0.01505
5323.14497	0.01509
5321.21629	0.01513
5319.28762	0.01518
5317.35894	0.01523
5315.43026	0.01527
5313.50159	0.01531
5311.57291	0.01534
5309.64424	0.01535
5307.71556	0.01538
5305.78689	0.01542
5303.85821	0.01545
5301.92953	0.01547
5300.00086	0.01549
5298.07218	0.01550
5296.14351	0.01554
5294.21483	0.01557
5292.28616	0.01560
5290.35748	0.01561
5288.42880	0.01564
5286.50013	0.01568
5284.57145	0.01572
5282.64278	0.01576
5280.71410	0.01580
5278.78543	0.01582
5276.85675	0.01584
5274.92807	0.01588
5272.99940	0.01591
5271.07072	0.01593
5269.14205	0.01595
5267.21337	0.01598
5265.28470	0.01600
5263.35602	0.01602
5261.42734	0.01604
5259.49867	0.01608
5257.56999	0.01612
5255.64132	0.01612
5253.71264	0.01614
5251.78397	0.01620
5249.85529	0.01626
5247.92661	0.01628
5245.99794	0.01630
5244.06926	0.01633
5242.14059	0.01637
5240.21191	0.01641
5238.28324	0.01643
5236.35456	0.01645
5234.42588	0.01646
5232.49721	0.01647
5230.56853	0.01651
5228.63986	0.01655
5226.71118	0.01659
5224.78251	0.01663
5222.85383	0.01667
5220.92515	0.01670
5218.99648	0.01673
5217.06780	0.01676
5215.13913	0.01678
5213.21045	0.01679
5211.28178	0.01680
5209.35310	0.01682
5207.42442	0.01686
5205.49575	0.01692
5203.56707	0.01699
5201.63840	0.01703
5199.70972	0.01706
5197.78105	0.01708
5195.85237	0.01709
5193.92369	0.01712
5191.99502	0.01717
5190.06634	0.01721
5188.13767	0.01724
5186.20899	0.01725
5184.28032	0.01729
5182.35164	0.01734
5180.42296	0.01738
5178.49429	0.01743
5176.56561	0.01746
5174.63694	0.01747
5172.70826	0.01748
5170.77959	0.01750
5168.85091	0.01754
5166.92223	0.01757
5164.99356	0.01759
5163.06488	0.01762
5161.13621	0.01766
5159.20753	0.01771
5157.27886	0.01774
5155.35018	0.01777
5153.42150	0.01779
5151.49283	0.01781
5149.56415	0.01784
5147.63548	0.01788
5145.70680	0.01792
5143.77813	0.01796
5141.84945	0.01801
5139.92077	0.01805
5137.99210	0.01808
5136.06342	0.01812
5134.13475	0.01815
5132.20607	0.01818
5130.27740	0.01820
5128.34872	0.01821
5126.42004	0.01824
5124.49137	0.01827
5122.56269	0.01831
5120.63402	0.01834
5118.70534	0.01835
5116.77667	0.01836
5114.84799	0.01839
5112.91931	0.01842
5110.99064	0.01846
5109.06196	0.01851
5107.13329	0.01855
5105.20461	0.01860
5103.27594	0.01865
5101.34726	0.01869
5099.41858	0.01870
5097.48991	0.01871
5095.56123	0.01874
5093.63256	0.01880
5091.70388	0.01884
5089.77521	0.01887
5087.84653	0.01890
5085.91785	0.01893
5083.98918	0.01897
5082.06050	0.01902
5080.13183	0.01907
5078.20315	0.01912
5076.27448	0.01915
5074.34580	0.01917
5072.41712	0.01919
5070.48845	0.01922
5068.55977	0.01925
5066.63110	0.01927
5064.70242	0.01929
5062.77375	0.01932
5060.84507	0.01936
5058.91639	0.01940
5056.98772	0.01945
5055.05904	0.01949
5053.13037	0.01951
5051.20169	0.01954
5049.27302	0.01957
5047.34434	0.01961
5045.41566	0.01965
5043.48699	0.01969
5041.55831	0.01973
5039.62964	0.01975
5037.70096	0.01976
5035.77229	0.01978
5033.84361	0.01982
5031.91493	0.01987
5029.98626	0.01992
5028.05758	0.01996
5026.12891	0.02000
5024.20023	0.02003
5022.27156	0.02007
5020.34288	0.02010
5018.41420	0.02013
5016.48553	0.02017
5014.55685	0.02020
5012.62818	0.02023
5010.69950	0.02028
5008.77083	0.02031
5006.84215	0.02034
5004.91347	0.02038
5002.98480	0.02041
5001.05612	0.02043
4999.12745	0.02045
4997.19877	0.02049
4995.27010	0.02055
4993.34142	0.02059
4991.41274	0.02061
4989.48407	0.02065
4987.55539	0.02069
4985.62672	0.02072
4983.69804	0.02077
4981.76937	0.02080
4979.84069	0.02084
4977.91201	0.02088
4975.98334	0.02091
4974.05466	0.02092
4972.12599	0.02094
4970.19731	0.02100
4968.26864	0.02105
4966.33996	0.02109
4964.41128	0.02113
4962.48261	0.02116
4960.55393	0.02117
4958.62526	0.02121
4956.69658	0.02128
4954.76791	0.02136
4952.83923	0.02142
4950.91055	0.02146
4948.98188	0.02145
4947.05320	0.02144
4945.12453	0.02146
4943.19585	0.02150
4941.26718	0.02156
4939.33850	0.02161
4937.40982	0.02164
4935.48115	0.02168
4933.55247	0.02173
4931.62380	0.02176
4929.69512	0.02178
4927.76645	0.02178
4925.83777	0.02180
4923.90909	0.02183
4921.98042	0.02189
4920.05174	0.02196
4918.12307	0.02200
4916.19439	0.02202
4914.26572	0.02205
4912.33704	0.02209
4910.40836	0.02214
4908.47969	0.02219
4906.55101	0.02222
4904.62234	0.02225
4902.69366	0.02228
4900.76499	0.02231
4898.83631	0.02235
4896.90763	0.02241
4894.97896	0.02246
4893.05028	0.02249
4891.12161	0.02252
4889.19293	0.02255
4887.26426	0.02258
4885.33558	0.02260
4883.40690	0.02264
4881.47823	0.02269
4879.54955	0.02274
4877.62088	0.02279
4875.69220	0.02285
4873.76353	0.02288
4871.83485	0.02290
4869.90617	0.02292
4867.97750	0.02296
4866.04882	0.02302
4864.12015	0.02305
4862.19147	0.02307
4860.26280	0.02310
4858.33412	0.02313
4856.40544	0.02317
4854.47677	0.02321
4852.54809	0.02325
4850.61942	0.02330
4848.69074	0.02334
4846.76207	0.02338
4844.83339	0.02341
4842.90471	0.02345
4840.97604	0.02346
4839.04736	0.02348
4837.11869	0.02354
4835.19001	0.02364
4833.26134	0.02371
4831.33266	0.02375
4829.40398	0.02378
4827.47531	0.02379
4825.54663	0.02382
4823.61796	0.02385
4821.68928	0.02389
4819.76061	0.02394
4817.83193	0.02397
4815.90325	0.02401
4813.97458	0.02405
4812.04590	0.02409
4810.11723	0.02413
4808.18855	0.02418
4806.25988	0.02424
4804.33120	0.02429
4802.40252	0.02433
4800.47385	0.02436
4798.54517	0.02440
4796.61650	0.02442
4794.68782	0.02444
4792.75915	0.02446
4790.83047	0.02450
4788.90179	0.02455
4786.97312	0.02459
4785.04444	0.02463
4783.11577	0.02468
4781.18709	0.02474
4779.25842	0.02480
4777.32974	0.02486
4775.40106	0.02490
4773.47239	0.02493
4771.54371	0.02496
4769.61504	0.02500
4767.68636	0.02505
4765.75769	0.02509
4763.82901	0.02514
4761.90033	0.02518
4759.97166	0.02523
4758.04298	0.02528
4756.11431	0.02530
4754.18563	0.02533
4752.25696	0.02535
4750.32828	0.02538
4748.39960	0.02542
4746.47093	0.02547
4744.54225	0.02553
4742.61358	0.02558
4740.68490	0.02562
4738.75623	0.02566
4736.82755	0.02569
4734.89887	0.02575
4732.97020	0.02582
4731.04152	0.02586
4729.11285	0.02589
4727.18417	0.02591
4725.25550	0.02592
4723.32682	0.02596
4721.39814	0.02601
4719.46947	0.02606
4717.54079	0.02612
4715.61212	0.02618
4713.68344	0.02622
4711.75477	0.02625
4709.82609	0.02629
4707.89741	0.02634
4705.96874	0.02640
4704.04006	0.02644
4702.11139	0.02648
4700.18271	0.02653
4698.25404	0.02657
4696.32536	0.02660
4694.39668	0.02663
4692.46801	0.02666
4690.53933	0.02671
4688.61066	0.02678
4686.68198	0.02684
4684.75331	0.02688
4682.82463	0.02693
4680.89595	0.02698
4678.96728	0.02702
4677.03860	0.02707
4675.10993	0.02711
4673.18125	0.02715
4671.25258	0.02719
4669.32390	0.02724
4667.39522	0.02727
4665.46655	0.02730
4663.53787	0.02735
4661.60920	0.02741
4659.68052	0.02745
4657.75185	0.02750
4655.82317	0.02755
4653.89449	0.02759
4651.96582	0.02764
4650.03714	0.02769
4648.10847	0.02774
4646.17979	0.02780
4644.25112	0.02784
4642.32244	0.02787
4640.39376	0.02789
4638.46509	0.02792
4636.53641	0.02797
4634.60774	0.02804
4632.67906	0.02812
4630.75039	0.02818
4628.82171	0.02821
4626.89303	0.02822
4624.96436	0.02825
4623.03568	0.02830
4621.10701	0.02836
4619.17833	0.02841
4617.24966	0.02846
4615.32098	0.02852
4613.39230	0.02859
4611.46363	0.02866
4609.53495	0.02871
4607.60628	0.02875
4605.67760	0.02878
4603.74893	0.02882
4601.82025	0.02888
4599.89157	0.02893
4597.96290	0.02898
4596.03422	0.02900
4594.10555	0.02904
4592.17687	0.02909
4590.24820	0.02913
4588.31952	0.02916
4586.39084	0.02920
4584.46217	0.02926
4582.53349	0.02934
4580.60482	0.02941
4578.67614	0.02946
4576.74747	0.02948
4574.81879	0.02949
4572.89011	0.02952
4570.96144	0.02957
4569.03276	0.02964
4567.10409	0.02973
4565.17541	0.02980
4563.24674	0.02986
4561.31806	0.02991
4559.38938	0.02996
4557.46071	0.03000
4555.53203	0.03004
4553.60336	0.03010
4551.67468	0.03014
4549.74601	0.03016
4547.81733	0.03020
4545.88865	0.03025
4543.95998	0.03030
4542.03130	0.03034
4540.10263	0.03038
4538.17395	0.03044
4536.24528	0.03052
4534.31660	0.03057
4532.38792	0.03062
4530.45925	0.03068
4528.53057	0.03074
4526.60190	0.03081
4524.67322	0.03089
4522.74455	0.03095
4520.81587	0.03100
4518.88719	0.03103
4516.95852	0.03107
4515.02984	0.03113
4513.10117	0.03119
4511.17249	0.03124
4509.24382	0.03129
4507.31514	0.03134
4505.38646	0.03138
4503.45779	0.03143
4501.52911	0.03150
4499.60044	0.03157
4497.67176	0.03162
4495.74309	0.03166
4493.81441	0.03170
4491.88573	0.03174
4489.95706	0.03181
4488.02838	0.03188
4486.09971	0.03194
4484.17103	0.03200
4482.24236	0.03205
4480.31368	0.03207
4478.38500	0.03210
4476.45633	0.03218
4474.52765	0.03226
4472.59898	0.03231
4470.67030	0.03235
4468.74163	0.03241
4466.81295	0.03247
4464.88427	0.03254
4462.95560	0.03262
4461.02692	0.03268
4459.09825	0.03272
4457.16957	0.03276
4455.24090	0.03281
4453.31222	0.03287
4451.38354	0.03293
4449.45487	0.03299
4447.52619	0.03306
4445.59752	0.03311
4443.66884	0.03314
4441.74017	0.03319
4439.81149	0.03326
4437.88281	0.03333
4435.95414	0.03339
4434.02546	0.03345
4432.09679	0.03351
4430.16811	0.03358
4428.23944	0.03365
4426.31076	0.03370
4424.38208	0.03375
4422.45341	0.03381
4420.52473	0.03386
4418.59606	0.03390
4416.66738	0.03397
4414.73871	0.03406
4412.81003	0.03412
4410.88135	0.03415
4408.95268	0.03418
4407.02400	0.03423
4405.09533	0.03429
4403.16665	0.03438
4401.23798	0.03446
4399.30930	0.03453
4397.38062	0.03459
4395.45195	0.03463
4393.52327	0.03468
4391.59460	0.03474
4389.66592	0.03479
4387.73725	0.03485
4385.80857	0.03494
4383.87989	0.03502
4381.95122	0.03509
4380.02254	0.03515
4378.09387	0.03522
4376.16519	0.03528
4374.23652	0.03533
4372.30784	0.03539
4370.37916	0.03544
4368.45049	0.03550
4366.52181	0.03557
4364.59314	0.03563
4362.66446	0.03568
4360.73579	0.03575
4358.80711	0.03582
4356.87843	0.03589
4354.94976	0.03592
4353.02108	0.03598
4351.09241	0.03607
4349.16373	0.03615
4347.23506	0.03621
4345.30638	0.03627
4343.37770	0.03635
4341.44903	0.03642
4339.52035	0.03648
4337.59168	0.03653
4335.66300	0.03658
4333.73433	0.03667
4331.80565	0.03675
4329.87697	0.03682
4327.94830	0.03687
4326.01962	0.03693
4324.09095	0.03702
4322.16227	0.03711
4320.23360	0.03718
4318.30492	0.03724
4316.37624	0.03731
4314.44757	0.03738
4312.51889	0.03744
4310.59022	0.03749
4308.66154	0.03753
4306.73287	0.03758
4304.80419	0.03766
4302.87551	0.03775
4300.94684	0.03782
4299.01816	0.03788
4297.08949	0.03797
4295.16081	0.03806
4293.23214	0.03814
4291.30346	0.03820
4289.37478	0.03827
4287.44611	0.03836
4285.51743	0.03845
4283.58876	0.03852
4281.66008	0.03857
4279.73141	0.03861
4277.80273	0.03867
4275.87405	0.03874
4273.94538	0.03880
4272.01670	0.03888
4270.08803	0.03897
4268.15935	0.03905
4266.23068	0.03911
4264.30200	0.03916
4262.37332	0.03923
4260.44465	0.03931
4258.51597	0.03938
4256.58730	0.03946
4254.65862	0.03954
4252.72995	0.03960
4250.80127	0.03966
4248.87259	0.03974
4246.94392	0.03982
4245.01524	0.03988
4243.08657	0.03993
4241.15789	0.03999
4239.22922	0.04007
4237.30054	0.04015
4235.37186	0.04021
4233.44319	0.04029
4231.51451	0.04037
4229.58584	0.04045
4227.65716	0.04052
4225.72849	0.04058
4223.79981	0.04068
4221.87113	0.04079
4219.94246	0.04089
4218.01378	0.04095
4216.08511	0.04099
4214.15643	0.04105
4212.22776	0.04113
4210.29908	0.04119
4208.37040	0.04125
4206.44173	0.04134
4204.51305	0.04145
4202.58438	0.04154
4200.65570	0.04160
4198.72703	0.04166
4196.79835	0.04174
4194.86968	0.04183
4192.94100	0.04192
4191.01232	0.04199
4189.08365	0.04207
4187.15497	0.04214
4185.22630	0.04221
4183.29762	0.04228
4181.36895	0.04235
4179.44027	0.04241
4177.51159	0.04249
4175.58292	0.04260
4173.65424	0.04271
4171.72557	0.04277
4169.79689	0.04281
4167.86822	0.04287
4165.93954	0.04294
4164.01086	0.04302
4162.08219	0.04311
4160.15351	0.04322
4158.22484	0.04331
4156.29616	0.04338
4154.36749	0.04346
4152.43881	0.04355
4150.51013	0.04365
4148.58146	0.04374
4146.65278	0.04382
4144.72411	0.04389
4142.79543	0.04395
4140.86676	0.04401
4138.93808	0.04409
4137.00940	0.04418
4135.08073	0.04429
4133.15205	0.04436
4131.22338	0.04444
4129.29470	0.04453
4127.36603	0.04461
4125.43735	0.04468
4123.50867	0.04476
4121.58000	0.04483
4119.65132	0.04490
4117.72265	0.04498
4115.79397	0.04508
4113.86530	0.04517
4111.93662	0.04527
4110.00794	0.04537
4108.07927	0.04546
4106.15059	0.04553
4104.22192	0.04558
4102.29324	0.04564
4100.36457	0.04571
4098.43589	0.04580
4096.50721	0.04590
4094.57854	0.04602
4092.64986	0.04613
4090.72119	0.04619
4088.79251	0.04625
4086.86384	0.04633
4084.93516	0.04641
4083.00648	0.04647
4081.07781	0.04655
4079.14913	0.04667
4077.22046	0.04678
4075.29178	0.04686
4073.36311	0.04695
4071.43443	0.04704
4069.50575	0.04714
4067.57708	0.04721
4065.64840	0.04729
4063.71973	0.04739
4061.79105	0.04748
4059.86238	0.04755
4057.93370	0.04765
4056.00502	0.04777
4054.07635	0.04788
4052.14767	0.04797
4050.21900	0.04804
4048.29032	0.04810
4046.36165	0.04818
4044.43297	0.04827
4042.50429	0.04834
4040.57562	0.04839
4038.64694	0.04846
4036.71827	0.04858
4034.78959	0.04869
4032.86092	0.04878
4030.93224	0.04886
4029.00356	0.04895
4027.07489	0.04905
4025.14621	0.04915
4023.21754	0.04926
4021.28886	0.04936
4019.36019	0.04945
4017.43151	0.04951
4015.50283	0.04957
4013.57416	0.04967
4011.64548	0.04978
4009.71681	0.04990
4007.78813	0.05000
4005.85946	0.05008
4003.93078	0.05015
4002.00210	0.05023
4000.07343	0.05032
3998.14475	0.05042
3996.21608	0.05049
3994.28740	0.05058
3992.35873	0.05069
3990.43005	0.05080
3988.50137	0.05091
3986.57270	0.05102
3984.64402	0.05112
3982.71535	0.05121
3980.78667	0.05129
3978.85800	0.05137
3976.92932	0.05144
3975.00064	0.05152
3973.07197	0.05163
3971.14329	0.05174
3969.21462	0.05184
3967.28594	0.05192
3965.35727	0.05200
3963.42859	0.05207
3961.49991	0.05216
3959.57124	0.05225
3957.64256	0.05235
3955.71389	0.05247
3953.78521	0.05259
3951.85654	0.05267
3949.92786	0.05273
3947.99918	0.05281
3946.07051	0.05291
3944.14183	0.05299
3942.21316	0.05309
3940.28448	0.05322
3938.35581	0.05334
3936.42713	0.05341
3934.49845	0.05346
3932.56978	0.05353
3930.64110	0.05367
3928.71243	0.05381
3926.78375	0.05390
3924.85508	0.05394
3922.92640	0.05402
3920.99772	0.05412
3919.06905	0.05419
3917.14037	0.05427
3915.21170	0.05444
3913.28302	0.05462
3911.35435	0.05474
3909.42567	0.05481
3907.49699	0.05481
3905.56832	0.05477
3903.63964	0.05477
3901.71097	0.05485
3899.78229	0.05501
3897.85362	0.05523
3895.92494	0.05544
3893.99626	0.05552
3892.06759	0.05555
3890.13891	0.05566
3888.21024	0.05579
3886.28156	0.05585
3884.35289	0.05594
3882.42421	0.05602
3880.49553	0.05611
3878.56686	0.05628
3876.63818	0.05643
3874.70951	0.05649
3872.78083	0.05649
3870.85216	0.05648
3868.92348	0.05656
3866.99480	0.05671
3865.06613	0.05682
3863.13745	0.05696
3861.20878	0.05715
3859.28010	0.05729
3857.35143	0.05720
3855.42275	0.05693
3853.49407	0.05693
3851.56540	0.05735
3849.63672	0.05781
3847.70805	0.05804
3845.77937	0.05810
3843.85070	0.05811
3841.92202	0.05813
3839.99334	0.05814
3838.06467	0.05818
3836.13599	0.05830
3834.20732	0.05848
3832.27864	0.05866
3830.34997	0.05884
3828.42129	0.05900
3826.49261	0.05911
3824.56394	0.05916
3822.63526	0.05913
3820.70659	0.05917
3818.77791	0.05931
3816.84924	0.05942
3814.92056	0.05961
3812.99188	0.05987
3811.06321	0.06003
3809.13453	0.06007
3807.20586	0.06010
3805.27718	0.06018
3803.34851	0.06017
3801.41983	0.06019
3799.49115	0.06037
3797.56248	0.06058
3795.63380	0.06077
3793.70513	0.06097
3791.77645	0.06113
3789.84778	0.06122
3787.91910	0.06132
3785.99042	0.06142
3784.06175	0.06152
3782.13307	0.06159
3780.20440	0.06165
3778.27572	0.06178
3776.34705	0.06195
3774.41837	0.06205
3772.48969	0.06208
3770.56102	0.06211
3768.63234	0.06223
3766.70367	0.06237
3764.77499	0.06250
3762.84632	0.06257
3760.91764	0.06260
3758.98896	0.06269
3757.06029	0.06283
3755.13161	0.06286
3753.20294	0.06271
3751.27426	0.06264
3749.34559	0.06276
3747.41691	0.06284
3745.48823	0.06277
3743.55956	0.06295
3741.63088	0.06341
3739.70221	0.06365
3737.77353	0.06359
3735.84486	0.06358
3733.91618	0.06376
3731.98750	0.06403
3730.05883	0.06427
3728.13015	0.06439
3726.20148	0.06445
3724.27280	0.06452
3722.34413	0.06463
3720.41545	0.06478
3718.48677	0.06497
3716.55810	0.06510
3714.62942	0.06509
3712.70075	0.06502
3710.77207	0.06508
3708.84340	0.06531
3706.91472	0.06555
3704.98604	0.06568
3703.05737	0.06571
3701.12869	0.06575
3699.20002	0.06585
3697.27134	0.06595
3695.34267	0.06602
3693.41399	0.06602
3691.48531	0.06592
3689.55664	0.06586
3687.62796	0.06600
3685.69929	0.06626
3683.77061	0.06642
3681.84194	0.06647
3679.91326	0.06646
3677.98458	0.06635
3676.05591	0.06625
3674.12723	0.06631
3672.19856	0.06638
3670.26988	0.06642
3668.34121	0.06660
3666.41253	0.06683
3664.48385	0.06695
3662.55518	0.06699
3660.62650	0.06701
3658.69783	0.06698
3656.76915	0.06694
3654.84048	0.06695
3652.91180	0.06685
3650.98312	0.06661
3649.05445	0.06644
3647.12577	0.06654
3645.19710	0.06685
3643.26842	0.06717
3641.33975	0.06735
3639.41107	0.06745
3637.48239	0.06750
3635.55372	0.06753
3633.62504	0.06753
3631.69637	0.06742
3629.76769	0.06727
3627.83902	0.06735
3625.91034	0.06763
3623.98166	0.06779
3622.05299	0.06777
3620.12431	0.06773
3618.19564	0.06779
3616.26696	0.06790
3614.33829	0.06795
3612.40961	0.06795
3610.48093	0.06792
3608.55226	0.06799
3606.62358	0.06819
3604.69491	0.06837
3602.76623	0.06846
3600.83756	0.06851
3598.90888	0.06856
3596.98020	0.06861
3595.05153	0.06865
3593.12285	0.06873
3591.19418	0.06877
3589.26550	0.06873
3587.33683	0.06873
3585.40815	0.06889
3583.47947	0.06908
3581.55080	0.06919
3579.62212	0.06926
3577.69345	0.06932
3575.76477	0.06939
3573.83610	0.06945
3571.90742	0.06946
3569.97874	0.06938
3568.05007	0.06930
3566.12139	0.06941
3564.19272	0.06965
3562.26404	0.06982
3560.33537	0.06991
3558.40669	0.06999
3556.47801	0.07004
3554.54934	0.07008
3552.62066	0.07012
3550.69199	0.07020
3548.76331	0.07028
3546.83464	0.07031
3544.90596	0.07036
3542.97728	0.07045
3541.04861	0.07053
3539.11993	0.07057
3537.19126	0.07060
3535.26258	0.07067
3533.33391	0.07072
3531.40523	0.07073
3529.47655	0.07072
3527.54788	0.07074
3525.61920	0.07075
3523.69053	0.07076
3521.76185	0.07079
3519.83318	0.07085
3517.90450	0.07091
3515.97582	0.07097
3514.04715	0.07100
3512.11847	0.07100
3510.18980	0.07099
3508.26112	0.07099
3506.33245	0.07100
3504.40377	0.07100
3502.47509	0.07100
3500.54642	0.07104
3498.61774	0.07108
3496.68907	0.07110
3494.76039	0.07110
3492.83172	0.07111
3490.90304	0.07112
3488.97436	0.07114
3487.04569	0.07114
3485.11701	0.07113
3483.18834	0.07113
3481.25966	0.07117
3479.33099	0.07122
3477.40231	0.07130
3475.47363	0.07138
3473.54496	0.07144
3471.61628	0.07150
3469.68761	0.07159
3467.75893	0.07169
3465.83026	0.07179
3463.90158	0.07188
3461.97290	0.07197
3460.04423	0.07203
3458.11555	0.07213
3456.18688	0.07227
3454.25820	0.07242
3452.32953	0.07252
3450.40085	0.07256
3448.47217	0.07257
3446.54350	0.07262
3444.61482	0.07273
3442.68615	0.07286
3440.75747	0.07300
3438.82880	0.07319
3436.90012	0.07340
3434.97144	0.07360
3433.04277	0.07377
3431.11409	0.07396
3429.18542	0.07422
3427.25674	0.07450
3425.32807	0.07471
3423.39939	0.07488
3421.47071	0.07505
3419.54204	0.07524
3417.61336	0.07544
3415.68469	0.07562
3413.75601	0.07578
3411.82734	0.07593
3409.89866	0.07608
3407.96998	0.07622
3406.04131	0.07636
3404.11263	0.07649
3402.18396	0.07660
3400.25528	0.07672
3398.32661	0.07686
3396.39793	0.07701
3394.46925	0.07717
3392.54058	0.07736
3390.61190	0.07755
3388.68323	0.07770
3386.75455	0.07784
3384.82588	0.07798
3382.89720	0.07813
3380.96852	0.07826
3379.03985	0.07838
3377.11117	0.07851
3375.18250	0.07867
3373.25382	0.07883
3371.32515	0.07898
3369.39647	0.07914
3367.46779	0.07929
3365.53912	0.07941
3363.61044	0.07954
3361.68177	0.07970
3359.75309	0.07984
3357.82442	0.07997
3355.89574	0.08009
3353.96706	0.08022
3352.03839	0.08038
3350.10971	0.08055
3348.18104	0.08071
3346.25236	0.08084
3344.32369	0.08094
3342.39501	0.08107
3340.46633	0.08123
3338.53766	0.08141
3336.60898	0.08156
3334.68031	0.08169
3332.75163	0.08182
3330.82296	0.08196
3328.89428	0.08211
3326.96560	0.08227
3325.03693	0.08242
3323.10825	0.08257
3321.17958	0.08272
3319.25090	0.08289
3317.32223	0.08305
3315.39355	0.08320
3313.46487	0.08333
3311.53620	0.08345
3309.60752	0.08360
3307.67885	0.08376
3305.75017	0.08391
3303.82150	0.08405
3301.89282	0.08419
3299.96414	0.08436
3298.03547	0.08453
3296.10679	0.08469
3294.17812	0.08484
3292.24944	0.08499
3290.32077	0.08514
3288.39209	0.08531
3286.46341	0.08550
3284.53474	0.08568
3282.60606	0.08585
3280.67739	0.08603
3278.74871	0.08618
3276.82004	0.08631
3274.89136	0.08647
3272.96268	0.08665
3271.03401	0.08680
3269.10533	0.08694
3267.17666	0.08708
3265.24798	0.08722
3263.31931	0.08739
3261.39063	0.08758
3259.46195	0.08778
3257.53328	0.08798
3255.60460	0.08815
3253.67593	0.08831
3251.74725	0.08848
3249.81858	0.08865
3247.88990	0.08880
3245.96122	0.08895
3244.03255	0.08912
3242.10387	0.08927
3240.17520	0.08944
3238.24652	0.08961
3236.31785	0.08979
3234.38917	0.08994
3232.46049	0.09009
3230.53182	0.09026
3228.60314	0.09045
3226.67447	0.09064
3224.74579	0.09081
3222.81712	0.09098
3220.88844	0.09115
3218.95976	0.09132
3217.03109	0.09149
3215.10241	0.09166
3213.17374	0.09181
3211.24506	0.09196
3209.31639	0.09214
3207.38771	0.09232
3205.45903	0.09249
3203.53036	0.09264
3201.60168	0.09282
3199.67301	0.09302
3197.74433	0.09320
3195.81566	0.09337
3193.88698	0.09356
3191.95830	0.09374
3190.02963	0.09391
3188.10095	0.09411
3186.17228	0.09433
3184.24360	0.09452
3182.31493	0.09469
3180.38625	0.09485
3178.45757	0.09503
3176.52890	0.09520
3174.60022	0.09536
3172.67155	0.09552
3170.74287	0.09571
3168.81420	0.09589
3166.88552	0.09607
3164.95684	0.09624
3163.02817	0.09640
3161.09949	0.09656
3159.17082	0.09674
3157.24214	0.09693
3155.31347	0.09713
3153.38479	0.09731
3151.45611	0.09748
3149.52744	0.09763
3147.59876	0.09779
3145.67009	0.09795
3143.74141	0.09812
3141.81274	0.09831
3139.88406	0.09852
3137.95538	0.09870
3136.02671	0.09885
3134.09803	0.09901
3132.16936	0.09920
3130.24068	0.09937
3128.31201	0.09952
3126.38333	0.09968
3124.45465	0.09985
3122.52598	0.10000
3120.59730	0.10015
3118.66863	0.10031
3116.73995	0.10048
3114.81128	0.10067
3112.88260	0.10083
3110.95392	0.10097
3109.02525	0.10112
3107.09657	0.10132
3105.16790	0.10153
3103.23922	0.10171
3101.31055	0.10188
3099.38187	0.10205
3097.45319	0.10222
3095.52452	0.10239
3093.59584	0.10255
3091.66717	0.10269
3089.73849	0.10281
3087.80982	0.10293
3085.88114	0.10306
3083.95246	0.10324
3082.02379	0.10344
3080.09511	0.10363
3078.16644	0.10382
3076.23776	0.10399
3074.30909	0.10417
3072.38041	0.10436
3070.45173	0.10453
3068.52306	0.10467
3066.59438	0.10480
3064.66571	0.10497
3062.73703	0.10516
3060.80836	0.10534
3058.87968	0.10550
3056.95100	0.10566
3055.02233	0.10580
3053.09365	0.10595
3051.16498	0.10610
3049.23630	0.10625
3047.30763	0.10643
3045.37895	0.10661
3043.45027	0.10675
3041.52160	0.10687
3039.59292	0.10702
3037.66425	0.10721
3035.73557	0.10739
3033.80690	0.10753
3031.87822	0.10766
3029.94954	0.10780
3028.02087	0.10797
3026.09219	0.10814
3024.16352	0.10832
3022.23484	0.10848
3020.30617	0.10860
3018.37749	0.10872
3016.44881	0.10886
3014.52014	0.10902
3012.59146	0.10919
3010.66279	0.10935
3008.73411	0.10949
3006.80544	0.10961
3004.87676	0.10975
3002.94808	0.10991
3001.01941	0.11007
2999.09073	0.11020
2997.16206	0.11033
2995.23338	0.11046
2993.30471	0.11061
2991.37603	0.11075
2989.44735	0.11087
2987.51868	0.11096
2985.59000	0.11103
2983.66133	0.11109
2981.73265	0.11114
2979.80398	0.11121
2977.87530	0.11127
2975.94662	0.11128
2974.01795	0.11127
2972.08927	0.11126
2970.16060	0.11123
2968.23192	0.11118
2966.30325	0.11116
2964.37457	0.11118
2962.44589	0.11128
2960.51722	0.11147
2958.58854	0.11169
2956.65987	0.11189
2954.73119	0.11210
2952.80252	0.11231
2950.87384	0.11251
2948.94516	0.11268
2947.01649	0.11280
2945.08781	0.11289
2943.15914	0.11295
2941.23046	0.11300
2939.30179	0.11299
2937.37311	0.11294
2935.44443	0.11293
2933.51576	0.11293
2931.58708	0.11289
2929.65841	0.11284
2927.72973	0.11284
2925.80106	0.11288
2923.87238	0.11291
2921.94370	0.11294
2920.01503	0.11302
2918.08635	0.11320
2916.15768	0.11355
2914.22900	0.11406
2912.30033	0.11463
2910.37165	0.11516
2908.44297	0.11562
2906.51430	0.11599
2904.58562	0.11629
2902.65695	0.11656
2900.72827	0.11682
2898.79960	0.11706
2896.87092	0.11728
2894.94224	0.11749
2893.01357	0.11770
2891.08489	0.11794
2889.15622	0.11818
2887.22754	0.11841
2885.29887	0.11860
2883.37019	0.11879
2881.44151	0.11896
2879.51284	0.11914
2877.58416	0.11932
2875.65549	0.11949
2873.72681	0.11966
2871.79814	0.11985
2869.86946	0.12003
2867.94078	0.12021
2866.01211	0.12037
2864.08343	0.12051
2862.15476	0.12061
2860.22608	0.12068
2858.29741	0.12071
2856.36873	0.12069
2854.44005	0.12065
2852.51138	0.12065
2850.58270	0.12076
2848.65403	0.12108
2846.72535	0.12160
2844.79668	0.12219
2842.86800	0.12272
2840.93932	0.12316
2839.01065	0.12348
2837.08197	0.12371
2835.15330	0.12392
2833.22462	0.12415
2831.29595	0.12440
2829.36727	0.12462
2827.43859	0.12482
2825.50992	0.12501
2823.58124	0.12521
2821.65257	0.12542
2819.72389	0.12563
2817.79522	0.12583
2815.86654	0.12601
2813.93786	0.12616
2812.00919	0.12629
2810.08051	0.12645
2808.15184	0.12665
2806.22316	0.12685
2804.29449	0.12704
2802.36581	0.12722
2800.43713	0.12741
2798.50846	0.12760
2796.57978	0.12779
2794.65111	0.12797
2792.72243	0.12811
2790.79376	0.12825
2788.86508	0.12841
2786.93640	0.12857
2785.00773	0.12874
2783.07905	0.12893
2781.15038	0.12911
2779.22170	0.12926
2777.29303	0.12942
2775.36435	0.12958
2773.43567	0.12977
2771.50700	0.12995
2769.57832	0.13009
2767.64965	0.13022
2765.72097	0.13035
2763.79230	0.13052
2761.86362	0.13072
2759.93494	0.13090
2758.00627	0.13106
2756.07759	0.13121
2754.14892	0.13135
2752.22024	0.13150
2750.29157	0.13167
2748.36289	0.13186
2746.43421	0.13207
2744.50554	0.13225
2742.57686	0.13235
2740.64819	0.13243
2738.71951	0.13258
2736.79084	0.13277
2734.86216	0.13296
2732.93348	0.13312
2731.00481	0.13326
2729.07613	0.13338
2727.14746	0.13352
2725.21878	0.13368
2723.29011	0.13385
2721.36143	0.13400
2719.43275	0.13416
2717.50408	0.13431
2715.57540	0.13446
2713.64673	0.13462
2711.71805	0.13478
2709.78938	0.13491
2707.86070	0.13506
2705.93202	0.13524
2704.00335	0.13539
2702.07467	0.13552
2700.14600	0.13567
2698.21732	0.13583
2696.28865	0.13601
2694.35997	0.13620
2692.43129	0.13634
2690.50262	0.13645
2688.57394	0.13657
2686.64527	0.13671
2684.71659	0.13684
2682.78792	0.13699
2680.85924	0.13714
2678.93056	0.13729
2677.00189	0.13745
2675.07321	0.13762
2673.14454	0.13779
2671.21586	0.13792
2669.28719	0.13804
2667.35851	0.13818
2665.42983	0.13833
2663.50116	0.13849
2661.57248	0.13866
2659.64381	0.13884
2657.71513	0.13900
2655.78646	0.13916
2653.85778	0.13934
2651.92910	0.13950
2650.00043	0.13961
2648.07175	0.13973
2646.14308	0.13989
2644.21440	0.14007
2642.28573	0.14025
2640.35705	0.14042
2638.42837	0.14057
2636.49970	0.14070
2634.57102	0.14086
2632.64235	0.14105
2630.71367	0.14121
2628.78500	0.14134
2626.85632	0.14147
2624.92764	0.14164
2622.99897	0.14184
2621.07029	0.14204
2619.14162	0.14222
2617.21294	0.14236
2615.28427	0.14248
2613.35559	0.14262
2611.42691	0.14279
2609.49824	0.14295
2607.56956	0.14308
2605.64089	0.14325
2603.71221	0.14346
2601.78354	0.14365
2599.85486	0.14381
2597.92618	0.14396
2595.99751	0.14409
2594.06883	0.14422
2592.14016	0.14439
2590.21148	0.14456
2588.28281	0.14469
2586.35413	0.14480
2584.42545	0.14494
2582.49678	0.14512
2580.56810	0.14529
2578.63943	0.14545
2576.71075	0.14560
2574.78208	0.14573
2572.85340	0.14588
2570.92472	0.14606
2568.99605	0.14625
2567.06737	0.14642
2565.13870	0.14660
2563.21002	0.14678
2561.28135	0.14691
2559.35267	0.14699
2557.42399	0.14709
2555.49532	0.14720
2553.56664	0.14734
2551.63797	0.14749
2549.70929	0.14765
2547.78062	0.14778
2545.85194	0.14789
2543.92326	0.14802
2541.99459	0.14817
2540.06591	0.14833
2538.13724	0.14848
2536.20856	0.14865
2534.27989	0.14881
2532.35121	0.14897
2530.42253	0.14912
2528.49386	0.14927
2526.56518	0.14945
2524.63651	0.14961
2522.70783	0.14978
2520.77916	0.14995
2518.85048	0.15011
2516.92181	0.15025
2514.99313	0.15038
2513.06445	0.15054
2511.13578	0.15070
2509.20710	0.15085
2507.27843	0.15100
2505.34975	0.15117
2503.42108	0.15135
2501.49240	0.15153
2499.56372	0.15171
2497.63505	0.15187
2495.70637	0.15200
2493.77770	0.15215
2491.84902	0.15236
2489.92035	0.15259
2487.99167	0.15274
2486.06299	0.15285
2484.13432	0.15298
2482.20564	0.15314
2480.27697	0.15330
2478.34829	0.15347
2476.41962	0.15363
2474.49094	0.15379
2472.56226	0.15398
2470.63359	0.15417
2468.70491	0.15427
2466.77624	0.15433
2464.84756	0.15448
2462.91889	0.15472
2460.99021	0.15492
2459.06153	0.15506
2457.13286	0.15519
2455.20418	0.15535
2453.27551	0.15551
2451.34683	0.15568
2449.41816	0.15584
2447.48948	0.15598
2445.56080	0.15612
2443.63213	0.15627
2441.70345	0.15641
2439.77478	0.15657
2437.84610	0.15675
2435.91743	0.15693
2433.98875	0.15708
2432.06007	0.15725
2430.13140	0.15740
2428.20272	0.15751
2426.27405	0.15760
2424.34537	0.15773
2422.41670	0.15792
2420.48802	0.15816
2418.55934	0.15834
2416.63067	0.15846
2414.70199	0.15856
2412.77332	0.15870
2410.84464	0.15888
2408.91597	0.15903
2406.98729	0.15914
2405.05861	0.15927
2403.12994	0.15941
2401.20126	0.15956
2399.27259	0.15973
2397.34391	0.15991
2395.41524	0.16007
2393.48656	0.16020
2391.55788	0.16028
2389.62921	0.16035
2387.70053	0.16047
2385.77186	0.16063
2383.84318	0.16076
2381.91451	0.16084
2379.98583	0.16090
2378.05715	0.16097
2376.12848	0.16100
2374.19980	0.16098
2372.27113	0.16092
2370.34245	0.16087
2368.41378	0.16088
2366.48510	0.16097
2364.55642	0.16105
2362.62775	0.16114
2360.69907	0.16129
2358.77040	0.16148
2356.84172	0.16170
2354.91305	0.16193
2352.98437	0.16221
2351.05569	0.16251
2349.12702	0.16267
2347.19834	0.16256
2345.26967	0.16229
2343.34099	0.16197
2341.41232	0.16174
2339.48364	0.16178
2337.55496	0.16216
2335.62629	0.16276
2333.69761	0.16330
2331.76894	0.16366
2329.84026	0.16386
2327.91159	0.16403
2325.98291	0.16422
2324.05423	0.16442
2322.12556	0.16461
2320.19688	0.16480
2318.26821	0.16499
2316.33953	0.16521
2314.41086	0.16542
2312.48218	0.16561
2310.55350	0.16580
2308.62483	0.16601
2306.69615	0.16621
2304.76748	0.16636
2302.83880	0.16643
2300.91013	0.16652
2298.98145	0.16668
2297.05277	0.16686
2295.12410	0.16697
2293.19542	0.16706
2291.26675	0.16718
2289.33807	0.16736
2287.40940	0.16755
2285.48072	0.16768
2283.55204	0.16779
2281.62337	0.16791
2279.69469	0.16809
2277.76602	0.16827
2275.83734	0.16836
2273.90867	0.16846
2271.97999	0.16860
2270.05131	0.16874
2268.12264	0.16885
2266.19396	0.16900
2264.26529	0.16917
2262.33661	0.16932
2260.40794	0.16946
2258.47926	0.16961
2256.55058	0.16975
2254.62191	0.16989
2252.69323	0.17004
2250.76456	0.17021
2248.83588	0.17039
2246.90721	0.17055
2244.97853	0.17068
2243.04985	0.17083
2241.12118	0.17101
2239.19250	0.17120
2237.26383	0.17137
2235.33515	0.17155
2233.40648	0.17174
2231.47780	0.17195
2229.54912	0.17212
2227.62045	0.17226
2225.69177	0.17241
2223.76310	0.17259
2221.83442	0.17279
2219.90575	0.17298
2217.97707	0.17311
2216.04839	0.17325
2214.11972	0.17345
2212.19104	0.17364
2210.26237	0.17377
2208.33369	0.17389
2206.40502	0.17405
2204.47634	0.17421
2202.54766	0.17436
2200.61899	0.17449
2198.69031	0.17462
2196.76164	0.17476
2194.83296	0.17491
2192.90429	0.17507
2190.97561	0.17524
2189.04693	0.17540
2187.11826	0.17555
2185.18958	0.17567
2183.26091	0.17580
2181.33223	0.17594
2179.40356	0.17613
2177.47488	0.17631
2175.54620	0.17645
2173.61753	0.17659
2171.68885	0.17675
2169.76018	0.17690
2167.83150	0.17705
2165.90283	0.17722
2163.97415	0.17740
2162.04547	0.17755
2160.11680	0.17766
2158.18812	0.17781
2156.25945	0.17797
2154.33077	0.17810
2152.40210	0.17822
2150.47342	0.17837
2148.54474	0.17851
2146.61607	0.17867
2144.68739	0.17883
2142.75872	0.17895
2140.83004	0.17906
2138.90137	0.17920
2136.97269	0.17937
2135.04401	0.17955
2133.11534	0.17968
2131.18666	0.17976
2129.25799	0.17989
2127.32931	0.18009
2125.40064	0.18028
2123.47196	0.18042
2121.54328	0.18054
2119.61461	0.18064
2117.68593	0.18077
2115.75726	0.18095
2113.82858	0.18114
2111.89991	0.18129
2109.97123	0.18144
2108.04255	0.18160
2106.11388	0.18175
2104.18520	0.18187
2102.25653	0.18201
2100.32785	0.18219
2098.39918	0.18236
2096.47050	0.18253
2094.54182	0.18268
2092.61315	0.18279
2090.68447	0.18291
2088.75580	0.18308
2086.82712	0.18325
2084.89845	0.18338
2082.96977	0.18351
2081.04109	0.18367
2079.11242	0.18384
2077.18374	0.18400
2075.25507	0.18412
2073.32639	0.18423
2071.39772	0.18435
2069.46904	0.18450
2067.54036	0.18464
2065.61169	0.18475
2063.68301	0.18487
2061.75434	0.18499
2059.82566	0.18512
2057.89699	0.18528
2055.96831	0.18544
2054.03963	0.18559
2052.11096	0.18575
2050.18228	0.18588
2048.25361	0.18599
2046.32493	0.18612
2044.39626	0.18628
2042.46758	0.18641
2040.53890	0.18655
2038.61023	0.18670
2036.68155	0.18686
2034.75288	0.18700
2032.82420	0.18714
2030.89553	0.18728
2028.96685	0.18743
2027.03817	0.18760
2025.10950	0.18774
2023.18082	0.18785
2021.25215	0.18796
2019.32347	0.18809
2017.39480	0.18823
2015.46612	0.18839
2013.53744	0.18856
2011.60877	0.18872
2009.68009	0.18887
2007.75142	0.18901
2005.82274	0.18914
2003.89407	0.18927
2001.96539	0.18937
2000.03671	0.18947
1998.10804	0.18959
1996.17936	0.18973
1994.25069	0.18981
1992.32201	0.18988
1990.39334	0.18998
1988.46466	0.19010
1986.53598	0.19025
1984.60731	0.19044
1982.67863	0.19059
1980.74996	0.19071
1978.82128	0.19081
1976.89261	0.19090
1974.96393	0.19100
1973.03525	0.19110
1971.10658	0.19118
1969.17790	0.19123
1967.24923	0.19133
1965.32055	0.19150
1963.39188	0.19167
1961.46320	0.19181
1959.53452	0.19195
1957.60585	0.19207
1955.67717	0.19216
1953.74850	0.19224
1951.81982	0.19236
1949.89115	0.19250
1947.96247	0.19264
1946.03379	0.19274
1944.10512	0.19284
1942.17644	0.19301
1940.24777	0.19322
1938.31909	0.19337
1936.39042	0.19348
1934.46174	0.19360
1932.53306	0.19370
1930.60439	0.19375
1928.67571	0.19387
1926.74704	0.19401
1924.81836	0.19407
1922.88969	0.19413
1920.96101	0.19424
1919.03233	0.19435
1917.10366	0.19454
1915.17498	0.19481
1913.24631	0.19502
1911.31763	0.19515
1909.38896	0.19527
1907.46028	0.19539
1905.53160	0.19553
1903.60293	0.19567
1901.67425	0.19581
1899.74558	0.19591
1897.81690	0.19598
1895.88823	0.19604
1893.95955	0.19614
1892.03087	0.19622
1890.10220	0.19629
1888.17352	0.19642
1886.24485	0.19658
1884.31617	0.19678
1882.38750	0.19697
1880.45882	0.19711
1878.53014	0.19721
1876.60147	0.19733
1874.67279	0.19744
1872.74412	0.19741
1870.81544	0.19719
1868.88677	0.19713
1866.95809	0.19748
1865.02941	0.19793
1863.10074	0.19819
1861.17206	0.19837
1859.24339	0.19853
1857.31471	0.19865
1855.38604	0.19876
1853.45736	0.19888
1851.52868	0.19900
1849.60001	0.19912
1847.67133	0.19917
1845.74266	0.19911
1843.81398	0.19916
1841.88531	0.19943
1839.95663	0.19969
1838.02795	0.19984
1836.09928	0.20000
1834.17060	0.20015
1832.24193	0.20015
1830.31325	0.20012
1828.38458	0.20026
1826.45590	0.20046
1824.52722	0.20062
1822.59855	0.20080
1820.66987	0.20098
1818.74120	0.20114
1816.81252	0.20128
1814.88385	0.20135
1812.95517	0.20135
1811.02649	0.20139
1809.09782	0.20152
1807.16914	0.20168
1805.24047	0.20180
1803.31179	0.20180
1801.38312	0.20176
1799.45444	0.20184
1797.52576	0.20198
1795.59709	0.20193
1793.66841	0.20173
1791.73974	0.20181
1789.81106	0.20222
1787.88239	0.20245
1785.95371	0.20240
1784.02503	0.20240
1782.09636	0.20253
1780.16768	0.20268
1778.23901	0.20285
1776.31033	0.20292
1774.38166	0.20281
1772.45298	0.20268
1770.52430	0.20271
1768.59563	0.20285
1766.66695	0.20301
1764.73828	0.20303
1762.80960	0.20290
1760.88093	0.20290
1758.95225	0.20305
1757.02357	0.20313
1755.09490	0.20299
1753.16622	0.20249
1751.23755	0.20200
1749.30887	0.20198
1747.38020	0.20219
1745.45152	0.20224
1743.52284	0.20211
1741.59417	0.20189
1739.66549	0.20180
1737.73682	0.20189
1735.80814	0.20178
1733.87947	0.20166
1731.95079	0.20187
1730.02211	0.20218
1728.09344	0.20231
1726.16476	0.20232
1724.23609	0.20230
1722.30741	0.20227
1720.37874	0.20201
1718.45006	0.20162
1716.52138	0.20155
1714.59271	0.20189
1712.66403	0.20228
1710.73536	0.20253
1708.80668	0.20253
1706.87801	0.20238
1704.94933	0.20223
1703.02065	0.20191
1701.09198	0.20150
1699.16330	0.20150
1697.23463	0.20184
1695.30595	0.20217
1693.37728	0.20243
1691.44860	0.20246
1689.51992	0.20236
1687.59125	0.20226
1685.66257	0.20197
1683.73390	0.20177
1681.80522	0.20199
1679.87655	0.20227
1677.94787	0.20211
1676.01919	0.20172
1674.09052	0.20164
1672.16184	0.20175
1670.23317	0.20180
1668.30449	0.20196
1666.37582	0.20214
1664.44714	0.20211
1662.51846	0.20207
1660.58979	0.20221
1658.66111	0.20230
1656.73244	0.20201
1654.80376	0.20128
1652.87509	0.20086
1650.94641	0.20113
1649.01773	0.20142
1647.08906	0.20155
1645.16038	0.20195
1643.23171	0.20240
1641.30303	0.20254
1639.37436	0.20233
1637.44568	0.20199
1635.51700	0.20196
1633.58833	0.20233
1631.65965	0.20263
1629.73098	0.20259
1627.80230	0.20243
1625.87363	0.20220
1623.94495	0.20184
1622.01627	0.20156
1620.08760	0.20149
1618.15892	0.20155
1616.23025	0.20200
1614.30157	0.20285
1612.37290	0.20351
1610.44422	0.20383
1608.51554	0.20409
1606.58687	0.20441
1604.65819	0.20470
1602.72952	0.20490
1600.80084	0.20507
1598.87217	0.20525
1596.94349	0.20540
1595.01481	0.20550
1593.08614	0.20564
1591.15746	0.20584
1589.22879	0.20603
1587.30011	0.20621
1585.37144	0.20639
1583.44276	0.20657
1581.51408	0.20675
1579.58541	0.20676
1577.65673	0.20654
1575.72806	0.20655
1573.79938	0.20696
1571.87071	0.20726
1569.94203	0.20731
1568.01335	0.20743
1566.08468	0.20761
1564.15600	0.20759
1562.22733	0.20713
1560.29865	0.20656
1558.36998	0.20670
1556.44130	0.20747
1554.51262	0.20812
1552.58395	0.20840
1550.65527	0.20852
1548.72660	0.20855
1546.79792	0.20840
1544.86925	0.20807
1542.94057	0.20782
1541.01189	0.20792
1539.08322	0.20841
1537.15454	0.20883
1535.22587	0.20874
1533.29719	0.20867
1531.36852	0.20908
1529.43984	0.20941
1527.51116	0.20932
1525.58249	0.20910
1523.65381	0.20887
1521.72514	0.20879
1519.79646	0.20900
1517.86779	0.20921
1515.93911	0.20935
1514.01043	0.20959
1512.08176	0.20968
1510.15308	0.20925
1508.22441	0.20860
1506.29573	0.20865
1504.36706	0.20950
1502.43838	0.21009
1500.50970	0.20996
1498.58103	0.20968
1496.65235	0.20975
1494.72368	0.20999
1492.79500	0.20988
1490.86633	0.20942
1488.93765	0.20910
1487.00897	0.20917
1485.08030	0.20936
1483.15162	0.20933
1481.22295	0.20906
1479.29427	0.20859
1477.36560	0.20790
1475.43692	0.20720
1473.50824	0.20671
1471.57957	0.20651
1469.65089	0.20645
1467.72222	0.20606
1465.79354	0.20544
1463.86487	0.20521
1461.93619	0.20515
1460.00751	0.20453
1458.07884	0.20359
1456.15016	0.20344
1454.22149	0.20409
1452.29281	0.20456
1450.36414	0.20461
1448.43546	0.20461
1446.50678	0.20472
1444.57811	0.20486
1442.64943	0.20495
1440.72076	0.20496
1438.79208	0.20481
1436.86341	0.20470
1434.93473	0.20488
1433.00605	0.20516
1431.07738	0.20523
1429.14870	0.20528
1427.22003	0.20536
1425.29135	0.20534
1423.36268	0.20513
1421.43400	0.20460
1419.50532	0.20407
1417.57665	0.20421
1415.64797	0.20472
1413.71930	0.20497
1411.79062	0.20500
1409.86195	0.20498
1407.93327	0.20489
1406.00459	0.20475
1404.07592	0.20470
1402.14724	0.20468
1400.21857	0.20454
1398.28989	0.20436
1396.36122	0.20423
1394.43254	0.20420
1392.50386	0.20427
1390.57519	0.20418
1388.64651	0.20378
1386.71784	0.20336
1384.78916	0.20320
1382.86049	0.20327
1380.93181	0.20333
1379.00313	0.20326
1377.07446	0.20308
1375.14578	0.20285
1373.21711	0.20276
1371.28843	0.20284
1369.35976	0.20291
1367.43108	0.20289
1365.50240	0.20276
1363.57373	0.20254
1361.64505	0.20243
1359.71638	0.20252
1357.78770	0.20261
1355.85903	0.20265
1353.93035	0.20266
1352.00167	0.20269
1350.07300	0.20277
1348.14432	0.20290
1346.21565	0.20303
1344.28697	0.20309
1342.35830	0.20297
1340.42962	0.20269
1338.50094	0.20247
1336.57227	0.20240
1334.64359	0.20239
1332.71492	0.20235
1330.78624	0.20220
1328.85757	0.20194
1326.92889	0.20166
1325.00021	0.20143
1323.07154	0.20119
1321.14286	0.20087
1319.21419	0.20051
1317.28551	0.20022
1315.35684	0.19999
1313.42816	0.19973
1311.49948	0.19937
1309.57081	0.19899
1307.64213	0.19865
1305.71346	0.19831
1303.78478	0.19792
1301.85611	0.19755
1299.92743	0.19723
1297.99875	0.19694
1296.07008	0.19664
1294.14140	0.19630
1292.21273	0.19590
1290.28405	0.19546
1288.35538	0.19499
1286.42670	0.19450
1284.49802	0.19396
1282.56935	0.19333
1280.64067	0.19268
1278.71200	0.19211
1276.78332	0.19168
1274.85465	0.19127
1272.92597	0.19076
1270.99729	0.19007
1269.06862	0.18915
1267.13994	0.18814
1265.21127	0.18728
1263.28259	0.18670
1261.35392	0.18638
1259.42524	0.18623
1257.49656	0.18619
1255.56789	0.18615
1253.63921	0.18594
1251.71054	0.18553
1249.78186	0.18502
1247.85319	0.18443
1245.92451	0.18374
1243.99583	0.18301
1242.06716	0.18224
1240.13848	0.18138
1238.20981	0.18041
1236.28113	0.17936
1234.35246	0.17824
1232.42378	0.17708
1230.49510	0.17589
1228.56643	0.17469
1226.63775	0.17359
1224.70908	0.17252
1222.78040	0.17142
1220.85173	0.17028
1218.92305	0.16911
1216.99437	0.16787
1215.06570	0.16658
1213.13702	0.16531
1211.20835	0.16407
1209.27967	0.16287
1207.35100	0.16168
1205.42232	0.16046
1203.49364	0.15920
1201.56497	0.15793
1199.63629	0.15673
1197.70762	0.15560
1195.77894	0.15446
1193.85027	0.15328
1191.92159	0.15204
1189.99291	0.15082
1188.06424	0.14964
1186.13556	0.14844
1184.20689	0.14719
1182.27821	0.14593
1180.34954	0.14470
1178.42086	0.14344
1176.49218	0.14212
1174.56351	0.14081
1172.63483	0.13956
1170.70616	0.13833
1168.77748	0.13713
1166.84881	0.13595
1164.92013	0.13473
1162.99145	0.13349
1161.06278	0.13232
1159.13410	0.13122
1157.20543	0.13017
1155.27675	0.12914
1153.34808	0.12810
1151.41940	0.12702
1149.49072	0.12595
1147.56205	0.12485
1145.63337	0.12372
1143.70470	0.12262
1141.77602	0.12152
1139.84735	0.12031
1137.91867	0.11901
1135.98999	0.11772
1134.06132	0.11635
1132.13264	0.11475
1130.20397	0.11297
1128.27529	0.11106
1126.34662	0.10898
1124.41794	0.10678
1122.48926	0.10462
1120.56059	0.10257
1118.63191	0.10061
1116.70324	0.09873
1114.77456	0.09695
1112.84589	0.09530
1110.91721	0.09381
1108.98853	0.09256
1107.05986	0.09156
1105.13118	0.09078
1103.20251	0.09017
1101.27383	0.08970
1099.34516	0.08935
1097.41648	0.08911
1095.48780	0.08898
1093.55913	0.08891
1091.63045	0.08874
1089.70178	0.08842
1087.77310	0.08800
1085.84443	0.08749
1083.91575	0.08689
1081.98707	0.08619
1080.05840	0.08542
1078.12972	0.08461
1076.20105	0.08378
1074.27237	0.08292
1072.34370	0.08206
1070.41502	0.08126
1068.48634	0.08056
1066.55767	0.07995
1064.62899	0.07939
1062.70032	0.07885
1060.77164	0.07836
1058.84297	0.07798
1056.91429	0.07772
1054.98561	0.07756
1053.05694	0.07748
1051.12826	0.07748
1049.19959	0.07757
1047.27091	0.07777
1045.34224	0.07811
1043.41356	0.07857
1041.48488	0.07906
1039.55621	0.07964
1037.62753	0.08027
1035.69886	0.08092
1033.77018	0.08166
1031.84151	0.08259
1029.91283	0.08366
1027.98415	0.08478
1026.05548	0.08596
1024.12680	0.08725
1022.19813	0.08861
1020.26945	0.09009
1018.34078	0.09177
1016.41210	0.09360
1014.48342	0.09550
1012.55475	0.09750
1010.62607	0.09959
1008.69740	0.10170
1006.76872	0.10382
1004.84005	0.10597
1002.91137	0.10813
1000.98269	0.11023
999.05402	0.11226
997.12534	0.11422
995.19667	0.11606
993.26799	0.11779
991.33932	0.11943
989.41064	0.12095
987.48196	0.12231
985.55329	0.12360
983.62461	0.12483
981.69594	0.12592
979.76726	0.12678
977.83859	0.12751
975.90991	0.12813
973.98123	0.12861
972.05256	0.12901
970.12388	0.12939
968.19521	0.12967
966.26653	0.12981
964.33786	0.12994
962.40918	0.13011
960.48050	0.13027
958.55183	0.13035
956.62315	0.13035
954.69448	0.13030
952.76580	0.13024
950.83713	0.13015
948.90845	0.13006
946.97977	0.12995
945.05110	0.12978
943.12242	0.12955
941.19375	0.12928
939.26507	0.12899
937.33640	0.12869
935.40772	0.12838
933.47904	0.12801
931.55037	0.12757
929.62169	0.12711
927.69302	0.12666
925.76434	0.12621
923.83567	0.12575
921.90699	0.12526
919.97831	0.12477
918.04964	0.12427
916.12096	0.12367
914.19229	0.12294
912.26361	0.12218
910.33494	0.12150
908.40626	0.12088
906.47758	0.12023
904.54891	0.11954
902.62023	0.11891
900.69156	0.11833
898.76288	0.11776
896.83421	0.11720
894.90553	0.11665
892.97685	0.11611
891.04818	0.11560
889.11950	0.11519
887.19083	0.11487
885.26215	0.11455
883.33348	0.11423
881.40480	0.11400
879.47612	0.11384
877.54745	0.11376
875.61877	0.11375
873.69010	0.11377
871.76142	0.11375
869.83275	0.11375
867.90407	0.11388
865.97539	0.11411
864.04672	0.11432
862.11804	0.11444
860.18937	0.11449
858.26069	0.11449
856.33202	0.11441
854.40334	0.11425
852.47466	0.11404
850.54599	0.11376
848.61731	0.11341
846.68864	0.11301
844.75996	0.11261
842.83129	0.11226
840.90261	0.11189
838.97394	0.11140
837.04526	0.11074
835.11658	0.10992
833.18791	0.10899
831.25923	0.10794
829.33056	0.10679
827.40188	0.10563
825.47321	0.10457
823.54453	0.10364
821.61585	0.10284
819.68718	0.10214
817.75850	0.10149
815.82983	0.10094
813.90115	0.10053
811.97248	0.10021
810.04380	0.09989
808.11512	0.09958
806.18645	0.09937
804.25777	0.09924
802.32910	0.09911
800.40042	0.09889
798.47175	0.09847
796.54307	0.09797
794.61439	0.09760
792.68572	0.09736
790.75704	0.09721
788.82837	0.09714
786.89969	0.09710
784.97102	0.09704
783.04234	0.09696
781.11366	0.09685
779.18499	0.09670
777.25631	0.09656
775.32764	0.09648
773.39896	0.09646
771.47029	0.09643
769.54161	0.09629
767.61293	0.09610
765.68426	0.09589
763.75558	0.09563
761.82691	0.09532
759.89823	0.09499
757.96956	0.09464
756.04088	0.09428
754.11220	0.09390
752.18353	0.09347
750.25485	0.09300
748.32618	0.09247
746.39750	0.09185
744.46883	0.09109
742.54015	0.09026
740.61147	0.08957
738.68280	0.08920
736.75412	0.08912
734.82545	0.08913
732.89677	0.08916
730.96810	0.08933
729.03942	0.08958
727.11074	0.08974
725.18207	0.08982
723.25339	0.08995
721.32472	0.09018
719.39604	0.09049
717.46737	0.09077
715.53869	0.09101
713.61001	0.09132
711.68134	0.09166
709.75266	0.09189
707.82399	0.09206
705.89531	0.09213
703.96664	0.09197
702.03796	0.09164
700.10928	0.09129
698.18061	0.09085
696.25193	0.09029
694.32326	0.08973
692.39458	0.08925
690.46591	0.08879
688.53723	0.08833
686.60855	0.08791
684.67988	0.08745
682.75120	0.08689
680.82253	0.08629
678.89385	0.08574
676.96518	0.08521
675.03650	0.08456
673.10782	0.08379
671.17915	0.08299
669.25047	0.08219
667.32180	0.08138
665.39312	0.08057
663.46445	0.07982
661.53577	0.07919
659.60709	0.07856
657.67842	0.07777
655.74974	0.07688
653.82107	0.07596
651.89239	0.07507
649.96372	0.07429
648.03504	0.07357
646.10636	0.07279
644.17769	0.07189
642.24901	0.07090
640.32034	0.06993
638.39166	0.06901
636.46299	0.06804
634.53431	0.06694
632.60563	0.06551
630.67696	0.06325
628.74828	0.05993
626.81961	0.05583
624.89093	0.05154
622.96226	0.04808
621.03358	0.04598
619.10490	0.04488
617.17623	0.04414
615.24755	0.04333
613.31888	0.04232
611.39020	0.04137
609.46153	0.04085
607.53285	0.04086
605.60417	0.04117
603.67550	0.04161
601.74682	0.04227
599.81815	0.04321
597.88947	0.04416
595.96080	0.04485
594.03212	0.04518
592.10344	0.04525
590.17477	0.04527
588.24609	0.04532
586.31742	0.04533
584.38874	0.04520
582.46007	0.04490
580.53139	0.04444
578.60271	0.04382
576.67404	0.04322
574.74536	0.04276
572.81669	0.04228
570.88801	0.04170
568.95934	0.04113
567.03066	0.04063
565.10198	0.04024
563.17331	0.04004
561.24463	0.03987
559.31596	0.03950
557.38728	0.03905
555.45861	0.03875
553.52993	0.03859
551.60125	0.03844
549.67258	0.03829
547.74390	0.03824
545.81523	0.03824
543.88655	0.03809
541.95788	0.03782
540.02920	0.03765
538.10052	0.03760
536.17185	0.03746
534.24317	0.03719
532.31450	0.03692
530.38582	0.03668
528.45715	0.03639
526.52847	0.03605
524.59979	0.03568
522.67112	0.03523
520.74244	0.03475
518.81377	0.03431
516.88509	0.03388
514.95642	0.03335
513.02774	0.03275
511.09906	0.03236
509.17039	0.03221
507.24171	0.03203
505.31304	0.03168
503.38436	0.03122
501.45569	0.03075
499.52701	0.03033
497.59833	0.02992
495.66966	0.02932
493.74098	0.02856
491.81231	0.02787
489.88363	0.02733
487.95496	0.02683
486.02628	0.02624
484.09760	0.02557
482.16893	0.02490
480.24025	0.02422
478.31158	0.02353
476.38290	0.02293
474.45423	0.02242
472.52555	0.02186
470.59687	0.02129
468.66820	0.02082
466.73952	0.02047
464.81085	0.02014
462.88217	0.01986
460.95350	0.01968
459.02482	0.01961
457.09614	0.01956
455.16747	0.01946
453.23879	0.01931
451.31012	0.01921
449.38144	0.01916
447.45277	0.01903
445.52409	0.01879
443.59541	0.01858
441.66674	0.01842
439.73806	0.01815
437.80939	0.01775
435.88071	0.01733
433.95204	0.01697
432.02336	0.01669
430.09468	0.01630
428.16601	0.01570
426.23733	0.01504
424.30866	0.01447
422.37998	0.01395
420.45131	0.01339
418.52263	0.01295
416.59395	0.01268
414.66528	0.01236
412.73660	0.01183
410.80793	0.01117
408.87925	0.01051
406.95058	0.00993
405.02190	0.00943
403.09322	0.00888
401.16455	0.00837
399.23587	0.00796
397.30720	0.00748
395.37852	0.00690
393.44985	0.00644
391.52117	0.00619
389.59249	0.00592
387.66382	0.00549
385.73514	0.00508
383.80647	0.00479
381.87779	0.00449
379.94912	0.00404
378.02044	0.00358
376.09176	0.00326
374.16309	0.00298
372.23441	0.00269
370.30574	0.00245
368.37706	0.00219
