7496.76250	0.00122
7494.83382	0.00123
7492.90514	0.00123
7490.97647	0.00123
7489.04779	0.00122
7487.11912	0.00122
7485.19044	0.00123
7483.26177	0.00124
7481.33309	0.00125
7479.40441	0.00125
7477.47574	0.00124
7475.54706	0.00124
7473.61839	0.00124
7471.68971	0.00126
7469.76104	0.00127
7467.83236	0.00127
7465.90368	0.00127
7463.97501	0.00127
7462.04633	0.00128
7460.11766	0.00128
7458.18898	0.00128
7456.26031	0.00129
7454.33163	0.00131
7452.40295	0.00130
7450.47428	0.00129
7448.54560	0.00129
7446.61693	0.00130
7444.68825	0.00131
7442.75958	0.00131
7440.83090	0.00131
7438.90222	0.00133
7436.97355	0.00134
7435.04487	0.00135
7433.11620	0.00135
7431.18752	0.00136
7429.25885	0.00136
7427.33017	0.00136
7425.40149	0.00135
7423.47282	0.00135
7421.54414	0.00136
7419.61547	0.00137
7417.68679	0.00137
7415.75812	0.00138
7413.82944	0.00138
7411.90076	0.00137
7409.97209	0.00136
7408.04341	0.00137
7406.11474	0.00139
7404.18606	0.00141
7402.25739	0.00141
7400.32871	0.00141
7398.40003	0.00140
7396.47136	0.00138
7394.54268	0.00138
7392.61401	0.00140
7390.68533	0.00142
7388.75666	0.00143
7386.82798	0.00142
7384.89930	0.00141
7382.97063	0.00141
7381.04195	0.00142
7379.11328	0.00142
7377.18460	0.00143
7375.25593	0.00144
7373.32725	0.00144
7371.39857	0.00145
7369.46990	0.00146
7367.54122	0.00145
7365.61255	0.00144
7363.68387	0.00145
7361.75520	0.00147
7359.82652	0.00148
7357.89784	0.00148
7355.96917	0.00147
7354.04049	0.00147
7352.11182	0.00148
7350.18314	0.00148
7348.25447	0.00148
7346.32579	0.00147
7344.39711	0.00147
7342.46844	0.00148
7340.53976	0.00150
7338.61109	0.00152
7336.68241	0.00154
7334.75374	0.00155
7332.82506	0.00155
7330.89638	0.00153
7328.96771	0.00153
7327.03903	0.00153
7325.11036	0.00154
7323.18168	0.00156
7321.25301	0.00157
7319.32433	0.00157
7317.39565	0.00157
7315.46698	0.00157
7313.53830	0.00156
7311.60963	0.00157
7309.68095	0.00157
7307.75228	0.00157
7305.82360	0.00157
7303.89492	0.00157
7301.96625	0.00158
7300.03757	0.00159
7298.10890	0.00159
7296.18022	0.00159
7294.25155	0.00160
7292.32287	0.00161
7290.39419	0.00160
7288.46552	0.00160
7286.53684	0.00162
7284.60817	0.00163
7282.67949	0.00162
7280.75082	0.00161
7278.82214	0.00162
7276.89346	0.00164
7274.96479	0.00165
7273.03611	0.00165
7271.10744	0.00165
7269.17876	0.00166
7267.25009	0.00166
7265.32141	0.00165
7263.39273	0.00164
7261.46406	0.00164
7259.53538	0.00164
7257.60671	0.00165
7255.67803	0.00166
7253.74936	0.00167
7251.82068	0.00168
7249.89200	0.00170
7247.96333	0.00171
7246.03465	0.00170
7244.10598	0.00170
7242.17730	0.00170
7240.24863	0.00171
7238.31995	0.00172
7236.39127	0.00173
7234.46260	0.00173
7232.53392	0.00172
7230.60525	0.00173
7228.67657	0.00174
7226.74790	0.00175
7224.81922	0.00176
7222.89054	0.00175
7220.96187	0.00174
7219.03319	0.00175
7217.10452	0.00177
7215.17584	0.00177
7213.24717	0.00178
7211.31849	0.00179
7209.38981	0.00180
7207.46114	0.00181
7205.53246	0.00180
7203.60379	0.00180
7201.67511	0.00180
7199.74644	0.00182
7197.81776	0.00183
7195.88908	0.00183
7193.96041	0.00183
7192.03173	0.00183
7190.10306	0.00184
7188.17438	0.00184
7186.24571	0.00184
7184.31703	0.00183
7182.38835	0.00182
7180.45968	0.00182
7178.53100	0.00184
7176.60233	0.00186
7174.67365	0.00188
7172.74498	0.00189
7170.81630	0.00188
7168.88762	0.00188
7166.95895	0.00189
7165.03027	0.00190
7163.10160	0.00190
7161.17292	0.00190
7159.24425	0.00190
7157.31557	0.00189
7155.38689	0.00188
7153.45822	0.00188
7151.52954	0.00190
7149.60087	0.00191
7147.67219	0.00192
7145.74352	0.00193
7143.81484	0.00194
7141.88616	0.00194
7139.95749	0.00193
7138.02881	0.00192
7136.10014	0.00192
7134.17146	0.00194
7132.24279	0.00195
7130.31411	0.00196
7128.38543	0.00198
7126.45676	0.00199
7124.52808	0.00198
7122.59941	0.00197
7120.67073	0.00198
7118.74206	0.00199
7116.81338	0.00200
7114.88470	0.00201
7112.95603	0.00201
7111.02735	0.00202
7109.09868	0.00201
7107.17000	0.00201
7105.24133	0.00200
7103.31265	0.00201
7101.38397	0.00201
7099.45530	0.00202
7097.52662	0.00203
7095.59795	0.00202
7093.66927	0.00202
7091.74060	0.00204
7089.81192	0.00207
7087.88324	0.00208
7085.95457	0.00208
7084.02589	0.00208
7082.09722	0.00209
7080.16854	0.00210
7078.23987	0.00211
7076.31119	0.00211
7074.38251	0.00209
7072.45384	0.00208
7070.52516	0.00208
7068.59649	0.00209
7066.66781	0.00210
7064.73914	0.00211
7062.81046	0.00213
7060.88178	0.00214
7058.95311	0.00214
7057.02443	0.00213
7055.09576	0.00213
7053.16708	0.00213
7051.23841	0.00212
7049.30973	0.00211
7047.38105	0.00214
7045.45238	0.00216
7043.52370	0.00215
7041.59503	0.00213
7039.66635	0.00214
7037.73768	0.00216
7035.80900	0.00218
7033.88032	0.00219
7031.95165	0.00220
7030.02297	0.00221
7028.09430	0.00222
7026.16562	0.00222
7024.23695	0.00222
7022.30827	0.00222
7020.37959	0.00222
7018.45092	0.00224
7016.52224	0.00224
7014.59357	0.00225
7012.66489	0.00225
7010.73622	0.00225
7008.80754	0.00224
7006.87886	0.00225
7004.95019	0.00225
7003.02151	0.00226
7001.09284	0.00227
6999.16416	0.00228
6997.23549	0.00229
6995.30681	0.00229
6993.37813	0.00228
6991.44946	0.00230
6989.52078	0.00232
6987.59211	0.00234
6985.66343	0.00234
6983.73476	0.00234
6981.80608	0.00234
6979.87740	0.00235
6977.94873	0.00235
6976.02005	0.00235
6974.09138	0.00236
6972.16270	0.00236
6970.23403	0.00235
6968.30535	0.00234
6966.37667	0.00235
6964.44800	0.00236
6962.51932	0.00237
6960.59065	0.00238
6958.66197	0.00239
6956.73330	0.00240
6954.80462	0.00242
6952.87594	0.00242
6950.94727	0.00241
6949.01859	0.00241
6947.08992	0.00241
6945.16124	0.00243
6943.23257	0.00244
6941.30389	0.00247
6939.37521	0.00247
6937.44654	0.00246
6935.51786	0.00245
6933.58919	0.00246
6931.66051	0.00246
6929.73184	0.00246
6927.80316	0.00246
6925.87448	0.00246
6923.94581	0.00247
6922.01713	0.00250
6920.08846	0.00252
6918.15978	0.00253
6916.23111	0.00252
6914.30243	0.00252
6912.37375	0.00252
6910.44508	0.00253
6908.51640	0.00255
6906.58773	0.00255
6904.65905	0.00255
6902.73038	0.00255
6900.80170	0.00256
6898.87302	0.00256
6896.94435	0.00256
6895.01567	0.00256
6893.08700	0.00257
6891.15832	0.00257
6889.22965	0.00258
6887.30097	0.00259
6885.37229	0.00261
6883.44362	0.00262
6881.51494	0.00263
6879.58627	0.00263
6877.65759	0.00264
6875.72892	0.00266
6873.80024	0.00267
6871.87156	0.00266
6869.94289	0.00265
6868.01421	0.00265
6866.08554	0.00265
6864.15686	0.00266
6862.22819	0.00267
6860.29951	0.00267
6858.37083	0.00267
6856.44216	0.00269
6854.51348	0.00270
6852.58481	0.00272
6850.65613	0.00273
6848.72746	0.00274
6846.79878	0.00274
6844.87010	0.00273
6842.94143	0.00272
6841.01275	0.00272
6839.08408	0.00274
6837.15540	0.00277
6835.22673	0.00277
6833.29805	0.00277
6831.36937	0.00277
6829.44070	0.00276
6827.51202	0.00276
6825.58335	0.00276
6823.65467	0.00277
6821.72600	0.00278
6819.79732	0.00278
6817.86864	0.00280
6815.93997	0.00281
6814.01129	0.00281
6812.08262	0.00281
6810.15394	0.00282
6808.22527	0.00283
6806.29659	0.00285
6804.36791	0.00286
6802.43924	0.00287
6800.51056	0.00287
6798.58189	0.00288
6796.65321	0.00288
6794.72454	0.00288
6792.79586	0.00289
6790.86718	0.00291
6788.93851	0.00293
6787.00983	0.00294
6785.08116	0.00294
6783.15248	0.00294
6781.22381	0.00294
6779.29513	0.00295
6777.36645	0.00295
6775.43778	0.00294
6773.50910	0.00294
6771.58043	0.00296
6769.65175	0.00298
6767.72308	0.00298
6765.79440	0.00299
6763.86572	0.00299
6761.93705	0.00299
6760.00837	0.00300
6758.07970	0.00302
6756.15102	0.00302
6754.22235	0.00302
6752.29367	0.00302
6750.36499	0.00304
6748.43632	0.00305
6746.50764	0.00306
6744.57897	0.00307
6742.65029	0.00307
6740.72162	0.00308
6738.79294	0.00307
6736.86426	0.00306
6734.93559	0.00306
6733.00691	0.00307
6731.07824	0.00309
6729.14956	0.00312
6727.22089	0.00314
6725.29221	0.00313
6723.36353	0.00313
6721.43486	0.00313
6719.50618	0.00313
6717.57751	0.00314
6715.64883	0.00315
6713.72016	0.00316
6711.79148	0.00317
6709.86280	0.00318
6707.93413	0.00319
6706.00545	0.00318
6704.07678	0.00318
6702.14810	0.00320
6700.21943	0.00322
6698.29075	0.00324
6696.36207	0.00325
6694.43340	0.00328
6692.50472	0.00329
6690.57605	0.00328
6688.64737	0.00327
6686.71870	0.00326
6684.79002	0.00327
6682.86134	0.00329
6680.93267	0.00330
6679.00399	0.00330
6677.07532	0.00329
6675.14664	0.00329
6673.21797	0.00329
6671.28929	0.00332
6669.36061	0.00332
6667.43194	0.00332
6665.50326	0.00333
6663.57459	0.00336
6661.64591	0.00338
6659.71724	0.00339
6657.78856	0.00340
6655.85988	0.00341
6653.93121	0.00342
6652.00253	0.00342
6650.07386	0.00342
6648.14518	0.00341
6646.21651	0.00341
6644.28783	0.00343
6642.35915	0.00345
6640.43048	0.00346
6638.50180	0.00345
6636.57313	0.00346
6634.64445	0.00348
6632.71578	0.00349
6630.78710	0.00349
6628.85842	0.00349
6626.92975	0.00349
6625.00107	0.00351
6623.07240	0.00354
6621.14372	0.00357
6619.21505	0.00359
6617.28637	0.00360
6615.35769	0.00359
6613.42902	0.00358
6611.50034	0.00357
6609.57167	0.00358
6607.64299	0.00360
6605.71432	0.00361
6603.78564	0.00361
6601.85696	0.00361
6599.92829	0.00360
6597.99961	0.00361
6596.07094	0.00362
6594.14226	0.00363
6592.21359	0.00365
6590.28491	0.00366
6588.35623	0.00368
6586.42756	0.00369
6584.49888	0.00369
6582.57021	0.00368
6580.64153	0.00368
6578.71286	0.00370
6576.78418	0.00372
6574.85550	0.00372
6572.92683	0.00373
6570.99815	0.00373
6569.06948	0.00374
6567.14080	0.00374
6565.21213	0.00376
6563.28345	0.00376
6561.35477	0.00376
6559.42610	0.00377
6557.49742	0.00380
6555.56875	0.00382
6553.64007	0.00383
6551.71140	0.00383
6549.78272	0.00381
6547.85404	0.00382
6545.92537	0.00385
6543.99669	0.00387
6542.06802	0.00389
6540.13934	0.00391
6538.21067	0.00393
6536.28199	0.00394
6534.35331	0.00394
6532.42464	0.00393
6530.49596	0.00393
6528.56729	0.00392
6526.63861	0.00392
6524.70994	0.00391
6522.78126	0.00392
6520.85258	0.00395
6518.92391	0.00397
6516.99523	0.00398
6515.06656	0.00398
6513.13788	0.00399
6511.20921	0.00401
6509.28053	0.00403
6507.35185	0.00405
6505.42318	0.00407
6503.49450	0.00407
6501.56583	0.00406
6499.63715	0.00407
6497.70848	0.00408
6495.77980	0.00408
6493.85112	0.00409
6491.92245	0.00410
6489.99377	0.00410
6488.06510	0.00410
6486.13642	0.00409
6484.20775	0.00410
6482.27907	0.00412
6480.35039	0.00415
6478.42172	0.00417
6476.49304	0.00417
6474.56437	0.00417
6472.63569	0.00416
6470.70702	0.00418
6468.77834	0.00420
6466.84966	0.00421
6464.92099	0.00422
6462.99231	0.00425
6461.06364	0.00428
6459.13496	0.00427
6457.20629	0.00425
6455.27761	0.00425
6453.34893	0.00426
6451.42026	0.00428
6449.49158	0.00430
6447.56291	0.00430
6445.63423	0.00429
6443.70556	0.00430
6441.77688	0.00432
6439.84820	0.00434
6437.91953	0.00435
6435.99085	0.00435
6434.06218	0.00435
6432.13350	0.00437
6430.20483	0.00440
6428.27615	0.00442
6426.34747	0.00444
6424.41880	0.00445
6422.49012	0.00445
6420.56145	0.00445
6418.63277	0.00446
6416.70410	0.00446
6414.77542	0.00446
6412.84674	0.00446
6410.91807	0.00448
6408.98939	0.00451
6407.06072	0.00452
6405.13204	0.00453
6403.20337	0.00453
6401.27469	0.00454
6399.34601	0.00456
6397.41734	0.00458
6395.48866	0.00459
6393.55999	0.00460
6391.63131	0.00461
6389.70264	0.00461
6387.77396	0.00461
6385.84528	0.00462
6383.91661	0.00463
6381.98793	0.00466
6380.05926	0.00468
6378.13058	0.00468
6376.20191	0.00468
6374.27323	0.00468
6372.34455	0.00469
6370.41588	0.00470
6368.48720	0.00471
6366.55853	0.00473
6364.62985	0.00473
6362.70118	0.00474
6360.77250	0.00476
6358.84382	0.00478
6356.91515	0.00479
6354.98647	0.00480
6353.05780	0.00481
6351.12912	0.00482
6349.20045	0.00483
6347.27177	0.00485
6345.34309	0.00486
6343.41442	0.00486
6341.48574	0.00487
6339.55707	0.00489
6337.62839	0.00492
6335.69972	0.00492
6333.77104	0.00491
6331.84236	0.00490
6329.91369	0.00492
6327.98501	0.00494
6326.05634	0.00497
6324.12766	0.00499
6322.19899	0.00500
6320.27031	0.00500
6318.34163	0.00500
6316.41296	0.00500
6314.48428	0.00503
6312.55561	0.00506
6310.62693	0.00506
6308.69826	0.00507
6306.76958	0.00508
6304.84090	0.00509
6302.91223	0.00511
6300.98355	0.00513
6299.05488	0.00515
6297.12620	0.00516
6295.19753	0.00517
6293.26885	0.00517
6291.34017	0.00519
6289.41150	0.00521
6287.48282	0.00522
6285.55415	0.00522
6283.62547	0.00523
6281.69680	0.00525
6279.76812	0.00527
6277.83944	0.00529
6275.91077	0.00528
6273.98209	0.00527
6272.05342	0.00526
6270.12474	0.00527
6268.19607	0.00529
6266.26739	0.00531
6264.33871	0.00532
6262.41004	0.00533
6260.48136	0.00535
6258.55269	0.00536
6256.62401	0.00537
6254.69534	0.00539
6252.76666	0.00540
6250.83798	0.00540
6248.90931	0.00541
6246.98063	0.00544
6245.05196	0.00546
6243.12328	0.00546
6241.19461	0.00546
6239.26593	0.00547
6237.33725	0.00550
6235.40858	0.00552
6233.47990	0.00553
6231.55123	0.00553
6229.62255	0.00554
6227.69388	0.00556
6225.76520	0.00559
6223.83652	0.00562
6221.90785	0.00562
6219.97917	0.00562
6218.05050	0.00563
6216.12182	0.00566
6214.19315	0.00569
6212.26447	0.00571
6210.33579	0.00572
6208.40712	0.00572
6206.47844	0.00573
6204.54977	0.00573
6202.62109	0.00574
6200.69242	0.00575
6198.76374	0.00576
6196.83506	0.00579
6194.90639	0.00581
6192.97771	0.00581
6191.04904	0.00580
6189.12036	0.00580
6187.19169	0.00582
6185.26301	0.00584
6183.33433	0.00586
6181.40566	0.00587
6179.47698	0.00589
6177.54831	0.00591
6175.61963	0.00591
6173.69096	0.00590
6171.76228	0.00591
6169.83360	0.00595
6167.90493	0.00598
6165.97625	0.00599
6164.04758	0.00600
6162.11890	0.00602
6160.19023	0.00604
6158.26155	0.00605
6156.33287	0.00605
6154.40420	0.00605
6152.47552	0.00606
6150.54685	0.00606
6148.61817	0.00609
6146.68950	0.00612
6144.76082	0.00614
6142.83214	0.00614
6140.90347	0.00615
6138.97479	0.00616
6137.04612	0.00616
6135.11744	0.00616
6133.18877	0.00619
6131.26009	0.00621
6129.33141	0.00622
6127.40274	0.00624
6125.47406	0.00625
6123.54539	0.00626
6121.61671	0.00628
6119.68804	0.00629
6117.75936	0.00630
6115.83068	0.00632
6113.90201	0.00631
6111.97333	0.00632
6110.04466	0.00635
6108.11598	0.00637
6106.18731	0.00640
6104.25863	0.00642
6102.32995	0.00645
6100.40128	0.00646
6098.47260	0.00647
6096.54393	0.00647
6094.61525	0.00648
6092.68658	0.00649
6090.75790	0.00649
6088.82922	0.00650
6086.90055	0.00653
6084.97187	0.00656
6083.04320	0.00659
6081.11452	0.00660
6079.18585	0.00661
6077.25717	0.00664
6075.32849	0.00666
6073.39982	0.00667
6071.47114	0.00667
6069.54247	0.00669
6067.61379	0.00670
6065.68512	0.00670
6063.75644	0.00671
6061.82776	0.00675
6059.89909	0.00679
6057.97041	0.00680
6056.04174	0.00679
6054.11306	0.00678
6052.18439	0.00679
6050.25571	0.00683
6048.32703	0.00686
6046.39836	0.00688
6044.46968	0.00688
6042.54101	0.00689
6040.61233	0.00693
6038.68366	0.00696
6036.75498	0.00696
6034.82630	0.00695
6032.89763	0.00696
6030.96895	0.00699
6029.04028	0.00702
6027.11160	0.00703
6025.18293	0.00704
6023.25425	0.00705
6021.32557	0.00707
6019.39690	0.00708
6017.46822	0.00708
6015.53955	0.00710
6013.61087	0.00714
6011.68220	0.00716
6009.75352	0.00717
6007.82484	0.00718
6005.89617	0.00720
6003.96749	0.00722
6002.03882	0.00724
6000.11014	0.00726
5998.18147	0.00727
5996.25279	0.00728
5994.32411	0.00729
5992.39544	0.00731
5990.46676	0.00733
5988.53809	0.00734
5986.60941	0.00736
5984.68074	0.00738
5982.75206	0.00740
5980.82338	0.00741
5978.89471	0.00742
5976.96603	0.00744
5975.03736	0.00746
5973.10868	0.00748
5971.18001	0.00750
5969.25133	0.00752
5967.32265	0.00752
5965.39398	0.00752
5963.46530	0.00753
5961.53663	0.00756
5959.60795	0.00760
5957.67928	0.00763
5955.75060	0.00765
5953.82192	0.00765
5951.89325	0.00765
5949.96457	0.00766
5948.03590	0.00767
5946.10722	0.00769
5944.17855	0.00772
5942.24987	0.00774
5940.32119	0.00776
5938.39252	0.00778
5936.46384	0.00780
5934.53517	0.00782
5932.60649	0.00784
5930.67782	0.00787
5928.74914	0.00789
5926.82046	0.00789
5924.89179	0.00789
5922.96311	0.00789
5921.03444	0.00788
5919.10576	0.00788
5917.17709	0.00791
5915.24841	0.00794
5913.31973	0.00799
5911.39106	0.00802
5909.46238	0.00803
5907.53371	0.00806
5905.60503	0.00809
5903.67636	0.00811
5901.74768	0.00812
5899.81900	0.00814
5897.89033	0.00816
5895.96165	0.00818
5894.03298	0.00821
5892.10430	0.00821
5890.17563	0.00821
5888.24695	0.00822
5886.31827	0.00823
5884.38960	0.00825
5882.46092	0.00828
5880.53225	0.00831
5878.60357	0.00834
5876.67490	0.00836
5874.74622	0.00835
5872.81755	0.00835
5870.88887	0.00837
5868.96019	0.00840
5867.03152	0.00842
5865.10284	0.00845
5863.17417	0.00848
5861.24549	0.00850
5859.31682	0.00852
5857.38814	0.00854
5855.45946	0.00856
5853.53079	0.00857
5851.60211	0.00857
5849.67344	0.00858
5847.74476	0.00859
5845.81609	0.00862
5843.88741	0.00866
5841.95873	0.00869
5840.03006	0.00870
5838.10138	0.00872
5836.17271	0.00874
5834.24403	0.00874
5832.31536	0.00874
5830.38668	0.00876
5828.45800	0.00878
5826.52933	0.00882
5824.60065	0.00884
5822.67198	0.00886
5820.74330	0.00889
5818.81463	0.00893
5816.88595	0.00896
5814.95727	0.00897
5813.02860	0.00898
5811.09992	0.00900
5809.17125	0.00900
5807.24257	0.00900
5805.31390	0.00902
5803.38522	0.00905
5801.45654	0.00909
5799.52787	0.00912
5797.59919	0.00914
5795.67052	0.00915
5793.74184	0.00917
5791.81317	0.00919
5789.88449	0.00921
5787.95581	0.00922
5786.02714	0.00924
5784.09846	0.00926
5782.16979	0.00929
5780.24111	0.00932
5778.31244	0.00935
5776.38376	0.00937
5774.45508	0.00938
5772.52641	0.00939
5770.59773	0.00942
5768.66906	0.00943
5766.74038	0.00944
5764.81171	0.00945
5762.88303	0.00948
5760.95435	0.00950
5759.02568	0.00952
5757.09700	0.00953
5755.16833	0.00956
5753.23965	0.00959
5751.31098	0.00960
5749.38230	0.00962
5747.45362	0.00965
5745.52495	0.00968
5743.59627	0.00972
5741.66760	0.00975
5739.73892	0.00977
5737.81025	0.00978
5735.88157	0.00979
5733.95289	0.00980
5732.02422	0.00982
5730.09554	0.00985
5728.16687	0.00987
5726.23819	0.00989
5724.30952	0.00990
5722.38084	0.00990
5720.45216	0.00991
5718.52349	0.00993
5716.59481	0.00996
5714.66614	0.00999
5712.73746	0.01001
5710.80879	0.01003
5708.88011	0.01006
5706.95143	0.01010
5705.02276	0.01012
5703.09408	0.01013
5701.16541	0.01014
5699.23673	0.01017
5697.30806	0.01021
5695.37938	0.01023
5693.45070	0.01026
5691.52203	0.01030
5689.59335	0.01033
5687.66468	0.01033
5685.73600	0.01032
5683.80733	0.01033
5681.87865	0.01036
5679.94997	0.01039
5678.02130	0.01042
5676.09262	0.01044
5674.16395	0.01045
5672.23527	0.01047
5670.30660	0.01050
5668.37792	0.01051
5666.44924	0.01053
5664.52057	0.01056
5662.59189	0.01059
5660.66322	0.01061
5658.73454	0.01064
5656.80587	0.01067
5654.87719	0.01071
5652.94851	0.01074
5651.01984	0.01076
5649.09116	0.01077
5647.16249	0.01078
5645.23381	0.01081
5643.30514	0.01083
5641.37646	0.01085
5639.44778	0.01089
5637.51911	0.01093
5635.59043	0.01096
5633.66176	0.01096
5631.73308	0.01097
5629.80441	0.01100
5627.87573	0.01103
5625.94705	0.01107
5624.01838	0.01109
5622.08970	0.01110
5620.16103	0.01112
5618.23235	0.01115
5616.30368	0.01117
5614.37500	0.01120
5612.44632	0.01122
5610.51765	0.01124
5608.58897	0.01127
5606.66030	0.01130
5604.73162	0.01133
5602.80295	0.01134
5600.87427	0.01135
5598.94559	0.01137
5597.01692	0.01139
5595.08824	0.01143
5593.15957	0.01145
5591.23089	0.01147
5589.30222	0.01148
5587.37354	0.01150
5585.44486	0.01152
5583.51619	0.01152
5581.58751	0.01155
5579.65884	0.01159
5577.73016	0.01163
5575.80149	0.01165
5573.87281	0.01166
5571.94413	0.01168
5570.01546	0.01171
5568.08678	0.01175
5566.15811	0.01178
5564.22943	0.01181
5562.30076	0.01185
5560.37208	0.01187
5558.44340	0.01188
5556.51473	0.01187
5554.58605	0.01189
5552.65738	0.01193
5550.72870	0.01197
5548.80003	0.01199
5546.87135	0.01202
5544.94267	0.01206
5543.01400	0.01210
5541.08532	0.01212
5539.15665	0.01211
5537.22797	0.01212
5535.29930	0.01215
5533.37062	0.01217
5531.44194	0.01221
5529.51327	0.01225
5527.58459	0.01229
5525.65592	0.01230
5523.72724	0.01232
5521.79857	0.01233
5519.86989	0.01236
5517.94121	0.01239
5516.01254	0.01243
5514.08386	0.01247
5512.15519	0.01250
5510.22651	0.01252
5508.29784	0.01254
5506.36916	0.01255
5504.44048	0.01258
5502.51181	0.01261
5500.58313	0.01263
5498.65446	0.01265
5496.72578	0.01267
5494.79711	0.01270
5492.86843	0.01273
5490.93975	0.01275
5489.01108	0.01278
5487.08240	0.01280
5485.15373	0.01283
5483.22505	0.01287
5481.29638	0.01292
5479.36770	0.01294
5477.43902	0.01294
5475.51035	0.01295
5473.58167	0.01297
5471.65300	0.01299
5469.72432	0.01302
5467.79565	0.01305
5465.86697	0.01307
5463.93829	0.01310
5462.00962	0.01313
5460.08094	0.01318
5458.15227	0.01322
5456.22359	0.01324
5454.29492	0.01327
5452.36624	0.01330
5450.43756	0.01333
5448.50889	0.01333
5446.58021	0.01333
5444.65154	0.01337
5442.72286	0.01341
5440.79419	0.01343
5438.86551	0.01345
5436.93683	0.01348
5435.00816	0.01351
5433.07948	0.01353
5431.15081	0.01356
5429.22213	0.01357
5427.29346	0.01360
5425.36478	0.01365
5423.43610	0.01369
5421.50743	0.01372
5419.57875	0.01373
5417.65008	0.01375
5415.72140	0.01376
5413.79273	0.01379
5411.86405	0.01382
5409.93537	0.01386
5408.00670	0.01391
5406.07802	0.01394
5404.14935	0.01397
5402.22067	0.01400
5400.29200	0.01403
5398.36332	0.01404
5396.43464	0.01405
5394.50597	0.01406
5392.57729	0.01409
5390.64862	0.01415
5388.71994	0.01420
5386.79127	0.01421
5384.86259	0.01423
5382.93391	0.01425
5381.00524	0.01428
5379.07656	0.01430
5377.14789	0.01431
5375.21921	0.01433
5373.29054	0.01438
5371.36186	0.01442
5369.43318	0.01445
5367.50451	0.01447
5365.57583	0.01450
5363.64716	0.01454
5361.71848	0.01458
5359.78981	0.01461
5357.86113	0.01463
5355.93245	0.01464
5354.00378	0.01466
5352.07510	0.01469
5350.14643	0.01473
5348.21775	0.01475
5346.28908	0.01477
5344.36040	0.01479
5342.43172	0.01482
5340.50305	0.01485
5338.57437	0.01487
5336.64570	0.01491
5334.71702	0.01495
5332.78835	0.01497
5330.85967	0.01499
5328.93099	0.01502
5327.00232	0.01507
5325.07364	0.01513
5323.14497	0.01517
5321.21629	0.01518
5319.28762	0.01518
5317.35894	0.01521
5315.43026	0.01525
5313.50159	0.01528
5311.57291	0.01529
5309.64424	0.01533
5307.71556	0.01538
5305.78689	0.01542
5303.85821	0.01544
5301.92953	0.01547
5300.00086	0.01549
5298.07218	0.01552
5296.14351	0.01555
5294.21483	0.01557
5292.28616	0.01560
5290.35748	0.01563
5288.42880	0.01566
5286.50013	0.01568
5284.57145	0.01571
5282.64278	0.01574
5280.71410	0.01579
5278.78543	0.01583
5276.85675	0.01588
5274.92807	0.01591
5272.99940	0.01593
5271.07072	0.01595
5269.14205	0.01600
5267.21337	0.01602
5265.28470	0.01602
5263.35602	0.01603
5261.42734	0.01607
5259.49867	0.01612
5257.56999	0.01616
5255.64132	0.01617
5253.71264	0.01618
5251.78397	0.01620
5249.85529	0.01622
5247.92661	0.01626
5245.99794	0.01630
5244.06926	0.01634
5242.14059	0.01637
5240.21191	0.01640
5238.28324	0.01644
5236.35456	0.01647
5234.42588	0.01650
5232.49721	0.01651
5230.56853	0.01654
5228.63986	0.01659
5226.71118	0.01662
5224.78251	0.01663
5222.85383	0.01664
5220.92515	0.01667
5218.99648	0.01672
5217.06780	0.01680
5215.13913	0.01686
5213.21045	0.01689
5211.28178	0.01689
5209.35310	0.01691
5207.42442	0.01692
5205.49575	0.01695
5203.56707	0.01698
5201.63840	0.01701
5199.70972	0.01704
5197.78105	0.01707
5195.85237	0.01710
5193.92369	0.01714
5191.99502	0.01717
5190.06634	0.01720
5188.13767	0.01723
5186.20899	0.01728
5184.28032	0.01733
5182.35164	0.01736
5180.42296	0.01737
5178.49429	0.01740
5176.56561	0.01743
5174.63694	0.01745
5172.70826	0.01748
5170.77959	0.01752
5168.85091	0.01756
5166.92223	0.01760
5164.99356	0.01764
5163.06488	0.01767
5161.13621	0.01770
5159.20753	0.01772
5157.27886	0.01774
5155.35018	0.01777
5153.42150	0.01782
5151.49283	0.01786
5149.56415	0.01788
5147.63548	0.01790
5145.70680	0.01793
5143.77813	0.01798
5141.84945	0.01802
5139.92077	0.01804
5137.99210	0.01806
5136.06342	0.01809
5134.13475	0.01814
5132.20607	0.01817
5130.27740	0.01818
5128.34872	0.01820
5126.42004	0.01823
5124.49137	0.01828
5122.56269	0.01833
5120.63402	0.01837
5118.70534	0.01841
5116.77667	0.01843
5114.84799	0.01846
5112.91931	0.01850
5110.99064	0.01854
5109.06196	0.01859
5107.13329	0.01861
5105.20461	0.01861
5103.27594	0.01863
5101.34726	0.01868
5099.41858	0.01873
5097.48991	0.01877
5095.56123	0.01880
5093.63256	0.01883
5091.70388	0.01886
5089.77521	0.01888
5087.84653	0.01889
5085.91785	0.01892
5083.98918	0.01896
5082.06050	0.01899
5080.13183	0.01903
5078.20315	0.01908
5076.27448	0.01911
5074.34580	0.01913
5072.41712	0.01916
5070.48845	0.01919
5068.55977	0.01923
5066.63110	0.01926
5064.70242	0.01932
5062.77375	0.01937
5060.84507	0.01939
5058.91639	0.01941
5056.98772	0.01944
5055.05904	0.01948
5053.13037	0.01950
5051.20169	0.01953
5049.27302	0.01957
5047.34434	0.01960
5045.41566	0.01964
5043.48699	0.01967
5041.55831	0.01973
5039.62964	0.01980
5037.70096	0.01986
5035.77229	0.01987
5033.84361	0.01987
5031.91493	0.01988
5029.98626	0.01990
5028.05758	0.01992
5026.12891	0.01995
5024.20023	0.02000
5022.27156	0.02004
5020.34288	0.02008
5018.41420	0.02011
5016.48553	0.02014
5014.55685	0.02017
5012.62818	0.02020
5010.69950	0.02025
5008.77083	0.02030
5006.84215	0.02034
5004.91347	0.02037
5002.98480	0.02040
5001.05612	0.02045
4999.12745	0.02050
4997.19877	0.02055
4995.27010	0.02058
4993.34142	0.02058
4991.41274	0.02058
4989.48407	0.02062
4987.55539	0.02068
4985.62672	0.02074
4983.69804	0.02076
4981.76937	0.02078
4979.84069	0.02081
4977.91201	0.02083
4975.98334	0.02086
4974.05466	0.02091
4972.12599	0.02095
4970.19731	0.02099
4968.26864	0.02103
4966.33996	0.02107
4964.41128	0.02111
4962.48261	0.02115
4960.55393	0.02119
4958.62526	0.02123
4956.69658	0.02128
4954.76791	0.02133
4952.83923	0.02135
4950.91055	0.02138
4948.98188	0.02141
4947.05320	0.02144
4945.12453	0.02148
4943.19585	0.02151
4941.26718	0.02154
4939.33850	0.02158
4937.40982	0.02161
4935.48115	0.02164
4933.55247	0.02166
4931.62380	0.02168
4929.69512	0.02173
4927.76645	0.02181
4925.83777	0.02186
4923.90909	0.02190
4921.98042	0.02193
4920.05174	0.02197
4918.12307	0.02199
4916.19439	0.02200
4914.26572	0.02204
4912.33704	0.02209
4910.40836	0.02213
4908.47969	0.02217
4906.55101	0.02221
4904.62234	0.02225
4902.69366	0.02228
4900.76499	0.02232
4898.83631	0.02237
4896.90763	0.02241
4894.97896	0.02242
4893.05028	0.02244
4891.12161	0.02248
4889.19293	0.02253
4887.26426	0.02256
4885.33558	0.02259
4883.40690	0.02264
4881.47823	0.02269
4879.54955	0.02272
4877.62088	0.02274
4875.69220	0.02277
4873.76353	0.02280
4871.83485	0.02285
4869.90617	0.02291
4867.97750	0.02296
4866.04882	0.02299
4864.12015	0.02302
4862.19147	0.02306
4860.26280	0.02311
4858.33412	0.02314
4856.40544	0.02317
4854.47677	0.02320
4852.54809	0.02325
4850.61942	0.02331
4848.69074	0.02336
4846.76207	0.02339
4844.83339	0.02342
4842.90471	0.02345
4840.97604	0.02348
4839.04736	0.02353
4837.11869	0.02358
4835.19001	0.02361
4833.26134	0.02364
4831.33266	0.02367
4829.40398	0.02371
4827.47531	0.02375
4825.54663	0.02380
4823.61796	0.02386
4821.68928	0.02391
4819.76061	0.02394
4817.83193	0.02395
4815.90325	0.02399
4813.97458	0.02404
4812.04590	0.02407
4810.11723	0.02410
4808.18855	0.02414
4806.25988	0.02418
4804.33120	0.02422
4802.40252	0.02425
4800.47385	0.02428
4798.54517	0.02434
4796.61650	0.02439
4794.68782	0.02443
4792.75915	0.02447
4790.83047	0.02452
4788.90179	0.02460
4786.97312	0.02465
4785.04444	0.02467
4783.11577	0.02470
4781.18709	0.02474
4779.25842	0.02479
4777.32974	0.02483
4775.40106	0.02486
4773.47239	0.02489
4771.54371	0.02493
4769.61504	0.02498
4767.68636	0.02503
4765.75769	0.02508
4763.82901	0.02513
4761.90033	0.02516
4759.97166	0.02519
4758.04298	0.02522
4756.11431	0.02526
4754.18563	0.02530
4752.25696	0.02533
4750.32828	0.02537
4748.39960	0.02541
4746.47093	0.02546
4744.54225	0.02550
4742.61358	0.02556
4740.68490	0.02561
4738.75623	0.02564
4736.82755	0.02565
4734.89887	0.02569
4732.97020	0.02574
4731.04152	0.02580
4729.11285	0.02585
4727.18417	0.02590
4725.25550	0.02594
4723.32682	0.02598
4721.39814	0.02603
4719.46947	0.02607
4717.54079	0.02611
4715.61212	0.02615
4713.68344	0.02619
4711.75477	0.02623
4709.82609	0.02627
4707.89741	0.02631
4705.96874	0.02634
4704.04006	0.02637
4702.11139	0.02640
4700.18271	0.02647
4698.25404	0.02653
4696.32536	0.02657
4694.39668	0.02663
4692.46801	0.02669
4690.53933	0.02674
4688.61066	0.02676
4686.68198	0.02679
4684.75331	0.02683
4682.82463	0.02689
4680.89595	0.02693
4678.96728	0.02697
4677.03860	0.02702
4675.10993	0.02709
4673.18125	0.02715
4671.25258	0.02719
4669.32390	0.02722
4667.39522	0.02728
4665.46655	0.02733
4663.53787	0.02736
4661.60920	0.02740
4659.68052	0.02744
4657.75185	0.02745
4655.82317	0.02748
4653.89449	0.02755
4651.96582	0.02761
4650.03714	0.02764
4648.10847	0.02766
4646.17979	0.02770
4644.25112	0.02775
4642.32244	0.02779
4640.39376	0.02784
4638.46509	0.02790
4636.53641	0.02796
4634.60774	0.02800
4632.67906	0.02806
4630.75039	0.02810
4628.82171	0.02812
4626.89303	0.02817
4624.96436	0.02824
4623.03568	0.02831
4621.10701	0.02837
4619.17833	0.02841
4617.24966	0.02844
4615.32098	0.02849
4613.39230	0.02853
4611.46363	0.02857
4609.53495	0.02859
4607.60628	0.02865
4605.67760	0.02873
4603.74893	0.02880
4601.82025	0.02885
4599.89157	0.02889
4597.96290	0.02893
4596.03422	0.02897
4594.10555	0.02903
4592.17687	0.02909
4590.24820	0.02914
4588.31952	0.02918
4586.39084	0.02923
4584.46217	0.02927
4582.53349	0.02932
4580.60482	0.02936
4578.67614	0.02941
4576.74747	0.02949
4574.81879	0.02956
4572.89011	0.02960
4570.96144	0.02963
4569.03276	0.02967
4567.10409	0.02972
4565.17541	0.02976
4563.24674	0.02980
4561.31806	0.02986
4559.38938	0.02990
4557.46071	0.02994
4555.53203	0.02999
4553.60336	0.03004
4551.67468	0.03008
4549.74601	0.03012
4547.81733	0.03017
4545.88865	0.03022
4543.95998	0.03028
4542.03130	0.03033
4540.10263	0.03040
4538.17395	0.03045
4536.24528	0.03049
4534.31660	0.03054
4532.38792	0.03059
4530.45925	0.03063
4528.53057	0.03068
4526.60190	0.03077
4524.67322	0.03085
4522.74455	0.03091
4520.81587	0.03095
4518.88719	0.03100
4516.95852	0.03105
4515.02984	0.03112
4513.10117	0.03119
4511.17249	0.03125
4509.24382	0.03128
4507.31514	0.03130
4505.38646	0.03135
4503.45779	0.03141
4501.52911	0.03148
4499.60044	0.03155
4497.67176	0.03159
4495.74309	0.03162
4493.81441	0.03167
4491.88573	0.03174
4489.95706	0.03180
4488.02838	0.03185
4486.09971	0.03191
4484.17103	0.03196
4482.24236	0.03201
4480.31368	0.03207
4478.38500	0.03212
4476.45633	0.03215
4474.52765	0.03218
4472.59898	0.03224
4470.67030	0.03230
4468.74163	0.03236
4466.81295	0.03242
4464.88427	0.03248
4462.95560	0.03252
4461.02692	0.03257
4459.09825	0.03264
4457.16957	0.03269
4455.24090	0.03276
4453.31222	0.03284
4451.38354	0.03291
4449.45487	0.03296
4447.52619	0.03300
4445.59752	0.03304
4443.66884	0.03309
4441.74017	0.03314
4439.81149	0.03320
4437.88281	0.03327
4435.95414	0.03333
4434.02546	0.03339
4432.09679	0.03346
4430.16811	0.03352
4428.23944	0.03357
4426.31076	0.03362
4424.38208	0.03367
4422.45341	0.03373
4420.52473	0.03380
4418.59606	0.03386
4416.66738	0.03391
4414.73871	0.03397
4412.81003	0.03405
4410.88135	0.03413
4408.95268	0.03419
4407.02400	0.03424
4405.09533	0.03430
4403.16665	0.03437
4401.23798	0.03444
4399.30930	0.03449
4397.38062	0.03452
4395.45195	0.03456
4393.52327	0.03462
4391.59460	0.03470
4389.66592	0.03477
4387.73725	0.03481
4385.80857	0.03486
4383.87989	0.03492
4381.95122	0.03498
4380.02254	0.03505
4378.09387	0.03512
4376.16519	0.03519
4374.23652	0.03524
4372.30784	0.03530
4370.37916	0.03537
4368.45049	0.03545
4366.52181	0.03552
4364.59314	0.03557
4362.66446	0.03562
4360.73579	0.03570
4358.80711	0.03578
4356.87843	0.03583
4354.94976	0.03587
4353.02108	0.03594
4351.09241	0.03603
4349.16373	0.03610
4347.23506	0.03615
4345.30638	0.03621
4343.37770	0.03627
4341.44903	0.03634
4339.52035	0.03641
4337.59168	0.03649
4335.66300	0.03655
4333.73433	0.03660
4331.80565	0.03665
4329.87697	0.03673
4327.94830	0.03682
4326.01962	0.03688
4324.09095	0.03692
4322.16227	0.03698
4320.23360	0.03708
4318.30492	0.03717
4316.37624	0.03721
4314.44757	0.03725
4312.51889	0.03732
4310.59022	0.03741
4308.66154	0.03749
4306.73287	0.03754
4304.80419	0.03760
4302.87551	0.03767
4300.94684	0.03775
4299.01816	0.03783
4297.08949	0.03791
4295.16081	0.03796
4293.23214	0.03800
4291.30346	0.03805
4289.37478	0.03813
4287.44611	0.03824
4285.51743	0.03831
4283.58876	0.03836
4281.66008	0.03841
4279.73141	0.03849
4277.80273	0.03858
4275.87405	0.03865
4273.94538	0.03872
4272.01670	0.03877
4270.08803	0.03881
4268.15935	0.03888
4266.23068	0.03898
4264.30200	0.03906
4262.37332	0.03914
4260.44465	0.03921
4258.51597	0.03929
4256.58730	0.03935
4254.65862	0.03942
4252.72995	0.03950
4250.80127	0.03958
4248.87259	0.03964
4246.94392	0.03970
4245.01524	0.03977
4243.08657	0.03984
4241.15789	0.03989
4239.22922	0.03995
4237.30054	0.04003
4235.37186	0.04013
4233.44319	0.04024
4231.51451	0.04031
4229.58584	0.04038
4227.65716	0.04046
4225.72849	0.04055
4223.79981	0.04061
4221.87113	0.04066
4219.94246	0.04075
4218.01378	0.04085
4216.08511	0.04090
4214.15643	0.04094
4212.22776	0.04101
4210.29908	0.04111
4208.37040	0.04121
4206.44173	0.04131
4204.51305	0.04139
4202.58438	0.04144
4200.65570	0.04148
4198.72703	0.04155
4196.79835	0.04164
4194.86968	0.04172
4192.94100	0.04179
4191.01232	0.04187
4189.08365	0.04196
4187.15497	0.04205
4185.22630	0.04213
4183.29762	0.04220
4181.36895	0.04225
4179.44027	0.04233
4177.51159	0.04244
4175.58292	0.04253
4173.65424	0.04260
4171.72557	0.04266
4169.79689	0.04273
4167.86822	0.04280
4165.93954	0.04289
4164.01086	0.04299
4162.08219	0.04309
4160.15351	0.04316
4158.22484	0.04320
4156.29616	0.04324
4154.36749	0.04333
4152.43881	0.04344
4150.51013	0.04353
4148.58146	0.04360
4146.65278	0.04366
4144.72411	0.04373
4142.79543	0.04382
4140.86676	0.04394
4138.93808	0.04403
4137.00940	0.04410
4135.08073	0.04416
4133.15205	0.04422
4131.22338	0.04430
4129.29470	0.04440
4127.36603	0.04451
4125.43735	0.04459
4123.50867	0.04465
4121.58000	0.04473
4119.65132	0.04483
4117.72265	0.04493
4115.79397	0.04501
4113.86530	0.04509
4111.93662	0.04516
4110.00794	0.04521
4108.07927	0.04529
4106.15059	0.04541
4104.22192	0.04552
4102.29324	0.04560
4100.36457	0.04566
4098.43589	0.04574
4096.50721	0.04585
4094.57854	0.04595
4092.64986	0.04603
4090.72119	0.04610
4088.79251	0.04616
4086.86384	0.04623
4084.93516	0.04630
4083.00648	0.04636
4081.07781	0.04647
4079.14913	0.04658
4077.22046	0.04669
4075.29178	0.04678
4073.36311	0.04683
4071.43443	0.04689
4069.50575	0.04699
4067.57708	0.04711
4065.64840	0.04721
4063.71973	0.04730
4061.79105	0.04738
4059.86238	0.04748
4057.93370	0.04757
4056.00502	0.04764
4054.07635	0.04771
4052.14767	0.04781
4050.21900	0.04794
4048.29032	0.04806
4046.36165	0.04812
4044.43297	0.04818
4042.50429	0.04827
4040.57562	0.04837
4038.64694	0.04844
4036.71827	0.04851
4034.78959	0.04858
4032.86092	0.04867
4030.93224	0.04875
4029.00356	0.04885
4027.07489	0.04897
4025.14621	0.04908
4023.21754	0.04917
4021.28886	0.04924
4019.36019	0.04933
4017.43151	0.04942
4015.50283	0.04952
4013.57416	0.04962
4011.64548	0.04971
4009.71681	0.04979
4007.78813	0.04988
4005.85946	0.04997
4003.93078	0.05006
4002.00210	0.05015
4000.07343	0.05025
3998.14475	0.05034
3996.21608	0.05043
3994.28740	0.05053
3992.35873	0.05062
3990.43005	0.05069
3988.50137	0.05078
3986.57270	0.05088
3984.64402	0.05097
3982.71535	0.05106
3980.78667	0.05116
3978.85800	0.05125
3976.92932	0.05131
3975.00064	0.05138
3973.07197	0.05148
3971.14329	0.05160
3969.21462	0.05172
3967.28594	0.05182
3965.35727	0.05192
3963.42859	0.05203
3961.49991	0.05213
3959.57124	0.05224
3957.64256	0.05233
3955.71389	0.05240
3953.78521	0.05248
3951.85654	0.05257
3949.92786	0.05267
3947.99918	0.05276
3946.07051	0.05283
3944.14183	0.05290
3942.21316	0.05301
3940.28448	0.05313
3938.35581	0.05324
3936.42713	0.05333
3934.49845	0.05337
3932.56978	0.05342
3930.64110	0.05355
3928.71243	0.05371
3926.78375	0.05380
3924.85508	0.05385
3922.92640	0.05394
3920.99772	0.05405
3919.06905	0.05409
3917.14037	0.05414
3915.21170	0.05427
3913.28302	0.05442
3911.35435	0.05456
3909.42567	0.05466
3907.49699	0.05471
3905.56832	0.05471
3903.63964	0.05472
3901.71097	0.05479
3899.78229	0.05493
3897.85362	0.05513
3895.92494	0.05531
3893.99626	0.05537
3892.06759	0.05539
3890.13891	0.05549
3888.21024	0.05560
3886.28156	0.05569
3884.35289	0.05580
3882.42421	0.05592
3880.49553	0.05600
3878.56686	0.05615
3876.63818	0.05629
3874.70951	0.05635
3872.78083	0.05636
3870.85216	0.05637
3868.92348	0.05648
3866.99480	0.05664
3865.06613	0.05676
3863.13745	0.05689
3861.20878	0.05706
3859.28010	0.05718
3857.35143	0.05711
3855.42275	0.05687
3853.49407	0.05683
3851.56540	0.05719
3849.63672	0.05763
3847.70805	0.05788
3845.77937	0.05795
3843.85070	0.05795
3841.92202	0.05797
3839.99334	0.05802
3838.06467	0.05810
3836.13599	0.05823
3834.20732	0.05837
3832.27864	0.05851
3830.34997	0.05868
3828.42129	0.05884
3826.49261	0.05896
3824.56394	0.05901
3822.63526	0.05898
3820.70659	0.05901
3818.77791	0.05913
3816.84924	0.05924
3814.92056	0.05944
3812.99188	0.05971
3811.06321	0.05988
3809.13453	0.05993
3807.20586	0.05996
3805.27718	0.06003
3803.34851	0.06003
3801.41983	0.06008
3799.49115	0.06028
3797.56248	0.06049
3795.63380	0.06064
3793.70513	0.06080
3791.77645	0.06093
3789.84778	0.06105
3787.91910	0.06114
3785.99042	0.06123
3784.06175	0.06133
3782.13307	0.06141
3780.20440	0.06149
3778.27572	0.06162
3776.34705	0.06178
3774.41837	0.06192
3772.48969	0.06200
3770.56102	0.06205
3768.63234	0.06213
3766.70367	0.06223
3764.77499	0.06233
3762.84632	0.06243
3760.91764	0.06246
3758.98896	0.06251
3757.06029	0.06261
3755.13161	0.06264
3753.20294	0.06253
3751.27426	0.06246
3749.34559	0.06258
3747.41691	0.06268
3745.48823	0.06265
3743.55956	0.06284
3741.63088	0.06327
3739.70221	0.06349
3737.77353	0.06344
3735.84486	0.06344
3733.91618	0.06362
3731.98750	0.06389
3730.05883	0.06413
3728.13015	0.06425
3726.20148	0.06429
3724.27280	0.06434
3722.34413	0.06444
3720.41545	0.06458
3718.48677	0.06475
3716.55810	0.06489
3714.62942	0.06492
3712.70075	0.06491
3710.77207	0.06497
3708.84340	0.06513
3706.91472	0.06530
3704.98604	0.06541
3703.05737	0.06546
3701.12869	0.06554
3699.20002	0.06566
3697.27134	0.06577
3695.34267	0.06584
3693.41399	0.06583
3691.48531	0.06574
3689.55664	0.06568
3687.62796	0.06580
3685.69929	0.06604
3683.77061	0.06619
3681.84194	0.06624
3679.91326	0.06623
3677.98458	0.06613
3676.05591	0.06605
3674.12723	0.06613
3672.19856	0.06624
3670.26988	0.06629
3668.34121	0.06643
3666.41253	0.06663
3664.48385	0.06674
3662.55518	0.06678
3660.62650	0.06681
3658.69783	0.06680
3656.76915	0.06678
3654.84048	0.06677
3652.91180	0.06665
3650.98312	0.06638
3649.05445	0.06621
3647.12577	0.06633
3645.19710	0.06665
3643.26842	0.06695
3641.33975	0.06713
3639.41107	0.06725
3637.48239	0.06732
3635.55372	0.06738
3633.62504	0.06741
3631.69637	0.06730
3629.76769	0.06715
3627.83902	0.06724
3625.91034	0.06751
3623.98166	0.06768
3622.05299	0.06769
3620.12431	0.06768
3618.19564	0.06771
3616.26696	0.06775
3614.33829	0.06776
3612.40961	0.06776
3610.48093	0.06776
3608.55226	0.06784
3606.62358	0.06804
3604.69491	0.06819
3602.76623	0.06824
3600.83756	0.06827
3598.90888	0.06834
3596.98020	0.06842
3595.05153	0.06850
3593.12285	0.06860
3591.19418	0.06863
3589.26550	0.06857
3587.33683	0.06855
3585.40815	0.06871
3583.47947	0.06891
3581.55080	0.06902
3579.62212	0.06907
3577.69345	0.06912
3575.76477	0.06920
3573.83610	0.06927
3571.90742	0.06931
3569.97874	0.06927
3568.05007	0.06924
3566.12139	0.06932
3564.19272	0.06948
3562.26404	0.06962
3560.33537	0.06973
3558.40669	0.06981
3556.47801	0.06986
3554.54934	0.06988
3552.62066	0.06994
3550.69199	0.07002
3548.76331	0.07008
3546.83464	0.07012
3544.90596	0.07017
3542.97728	0.07026
3541.04861	0.07034
3539.11993	0.07042
3537.19126	0.07047
3535.26258	0.07051
3533.33391	0.07055
3531.40523	0.07056
3529.47655	0.07057
3527.54788	0.07060
3525.61920	0.07063
3523.69053	0.07064
3521.76185	0.07066
3519.83318	0.07070
3517.90450	0.07074
3515.97582	0.07078
3514.04715	0.07080
3512.11847	0.07080
3510.18980	0.07080
3508.26112	0.07082
3506.33245	0.07085
3504.40377	0.07083
3502.47509	0.07080
3500.54642	0.07080
3498.61774	0.07083
3496.68907	0.07085
3494.76039	0.07086
3492.83172	0.07087
3490.90304	0.07088
3488.97436	0.07089
3487.04569	0.07091
3485.11701	0.07096
3483.18834	0.07102
3481.25966	0.07106
3479.33099	0.07111
3477.40231	0.07117
3475.47363	0.07123
3473.54496	0.07127
3471.61628	0.07132
3469.68761	0.07140
3467.75893	0.07146
3465.83026	0.07152
3463.90158	0.07163
3461.97290	0.07174
3460.04423	0.07187
3458.11555	0.07201
3456.18688	0.07214
3454.25820	0.07224
3452.32953	0.07230
3450.40085	0.07233
3448.47217	0.07238
3446.54350	0.07249
3444.61482	0.07261
3442.68615	0.07272
3440.75747	0.07284
3438.82880	0.07300
3436.90012	0.07322
3434.97144	0.07345
3433.04277	0.07364
3431.11409	0.07382
3429.18542	0.07402
3427.25674	0.07424
3425.32807	0.07448
3423.39939	0.07471
3421.47071	0.07490
3419.54204	0.07507
3417.61336	0.07523
3415.68469	0.07540
3413.75601	0.07559
3411.82734	0.07577
3409.89866	0.07589
3407.96998	0.07599
3406.04131	0.07611
3404.11263	0.07625
3402.18396	0.07640
3400.25528	0.07655
3398.32661	0.07671
3396.39793	0.07684
3394.46925	0.07698
3392.54058	0.07715
3390.61190	0.07733
3388.68323	0.07747
3386.75455	0.07760
3384.82588	0.07773
3382.89720	0.07787
3380.96852	0.07801
3379.03985	0.07814
3377.11117	0.07828
3375.18250	0.07842
3373.25382	0.07855
3371.32515	0.07872
3369.39647	0.07889
3367.46779	0.07903
3365.53912	0.07914
3363.61044	0.07927
3361.68177	0.07943
3359.75309	0.07959
3357.82442	0.07975
3355.89574	0.07990
3353.96706	0.08005
3352.03839	0.08020
3350.10971	0.08034
3348.18104	0.08046
3346.25236	0.08058
3344.32369	0.08072
3342.39501	0.08083
3340.46633	0.08095
3338.53766	0.08108
3336.60898	0.08123
3334.68031	0.08138
3332.75163	0.08153
3330.82296	0.08169
3328.89428	0.08184
3326.96560	0.08199
3325.03693	0.08213
3323.10825	0.08230
3321.17958	0.08246
3319.25090	0.08261
3317.32223	0.08274
3315.39355	0.08288
3313.46487	0.08303
3311.53620	0.08319
3309.60752	0.08335
3307.67885	0.08352
3305.75017	0.08370
3303.82150	0.08387
3301.89282	0.08403
3299.96414	0.08418
3298.03547	0.08432
3296.10679	0.08444
3294.17812	0.08459
3292.24944	0.08476
3290.32077	0.08493
3288.39209	0.08508
3286.46341	0.08522
3284.53474	0.08537
3282.60606	0.08554
3280.67739	0.08573
3278.74871	0.08590
3276.82004	0.08605
3274.89136	0.08618
3272.96268	0.08631
3271.03401	0.08648
3269.10533	0.08667
3267.17666	0.08686
3265.24798	0.08703
3263.31931	0.08721
3261.39063	0.08739
3259.46195	0.08756
3257.53328	0.08772
3255.60460	0.08787
3253.67593	0.08803
3251.74725	0.08821
3249.81858	0.08840
3247.88990	0.08855
3245.96122	0.08868
3244.03255	0.08884
3242.10387	0.08904
3240.17520	0.08922
3238.24652	0.08938
3236.31785	0.08953
3234.38917	0.08969
3232.46049	0.08986
3230.53182	0.09002
3228.60314	0.09017
3226.67447	0.09032
3224.74579	0.09049
3222.81712	0.09065
3220.88844	0.09081
3218.95976	0.09099
3217.03109	0.09117
3215.10241	0.09133
3213.17374	0.09147
3211.24506	0.09163
3209.31639	0.09180
3207.38771	0.09197
3205.45903	0.09214
3203.53036	0.09233
3201.60168	0.09253
3199.67301	0.09272
3197.74433	0.09290
3195.81566	0.09306
3193.88698	0.09324
3191.95830	0.09343
3190.02963	0.09360
3188.10095	0.09378
3186.17228	0.09397
3184.24360	0.09415
3182.31493	0.09430
3180.38625	0.09448
3178.45757	0.09467
3176.52890	0.09486
3174.60022	0.09507
3172.67155	0.09526
3170.74287	0.09542
3168.81420	0.09555
3166.88552	0.09568
3164.95684	0.09586
3163.02817	0.09606
3161.09949	0.09623
3159.17082	0.09638
3157.24214	0.09657
3155.31347	0.09678
3153.38479	0.09697
3151.45611	0.09714
3149.52744	0.09730
3147.59876	0.09746
3145.67009	0.09762
3143.74141	0.09780
3141.81274	0.09797
3139.88406	0.09815
3137.95538	0.09833
3136.02671	0.09851
3134.09803	0.09868
3132.16936	0.09883
3130.24068	0.09897
3128.31201	0.09911
3126.38333	0.09928
3124.45465	0.09949
3122.52598	0.09969
3120.59730	0.09985
3118.66863	0.09999
3116.73995	0.10013
3114.81128	0.10029
3112.88260	0.10049
3110.95392	0.10068
3109.02525	0.10085
3107.09657	0.10103
3105.16790	0.10121
3103.23922	0.10137
3101.31055	0.10152
3099.38187	0.10168
3097.45319	0.10183
3095.52452	0.10198
3093.59584	0.10213
3091.66717	0.10228
3089.73849	0.10242
3087.80982	0.10259
3085.88114	0.10280
3083.95246	0.10301
3082.02379	0.10320
3080.09511	0.10338
3078.16644	0.10352
3076.23776	0.10363
3074.30909	0.10376
3072.38041	0.10392
3070.45173	0.10410
3068.52306	0.10427
3066.59438	0.10443
3064.66571	0.10459
3062.73703	0.10478
3060.80836	0.10496
3058.87968	0.10508
3056.95100	0.10521
3055.02233	0.10540
3053.09365	0.10560
3051.16498	0.10575
3049.23630	0.10589
3047.30763	0.10606
3045.37895	0.10626
3043.45027	0.10644
3041.52160	0.10657
3039.59292	0.10669
3037.66425	0.10683
3035.73557	0.10696
3033.80690	0.10709
3031.87822	0.10726
3029.94954	0.10746
3028.02087	0.10763
3026.09219	0.10780
3024.16352	0.10796
3022.23484	0.10810
3020.30617	0.10822
3018.37749	0.10837
3016.44881	0.10853
3014.52014	0.10868
3012.59146	0.10883
3010.66279	0.10898
3008.73411	0.10910
3006.80544	0.10921
3004.87676	0.10934
3002.94808	0.10948
3001.01941	0.10964
2999.09073	0.10980
2997.16206	0.10996
2995.23338	0.11010
2993.30471	0.11022
2991.37603	0.11034
2989.44735	0.11046
2987.51868	0.11056
2985.59000	0.11064
2983.66133	0.11070
2981.73265	0.11075
2979.80398	0.11081
2977.87530	0.11087
2975.94662	0.11091
2974.01795	0.11090
2972.08927	0.11086
2970.16060	0.11083
2968.23192	0.11083
2966.30325	0.11087
2964.37457	0.11093
2962.44589	0.11102
2960.51722	0.11117
2958.58854	0.11133
2956.65987	0.11150
2954.73119	0.11169
2952.80252	0.11190
2950.87384	0.11208
2948.94516	0.11222
2947.01649	0.11235
2945.08781	0.11248
2943.15914	0.11259
2941.23046	0.11265
2939.30179	0.11268
2937.37311	0.11268
2935.44443	0.11266
2933.51576	0.11260
2931.58708	0.11253
2929.65841	0.11248
2927.72973	0.11246
2925.80106	0.11247
2923.87238	0.11250
2921.94370	0.11255
2920.01503	0.11266
2918.08635	0.11287
2916.15768	0.11323
2914.22900	0.11373
2912.30033	0.11427
2910.37165	0.11475
2908.44297	0.11514
2906.51430	0.11547
2904.58562	0.11577
2902.65695	0.11605
2900.72827	0.11633
2898.79960	0.11658
2896.87092	0.11681
2894.94224	0.11705
2893.01357	0.11728
2891.08489	0.11751
2889.15622	0.11773
2887.22754	0.11797
2885.29887	0.11821
2883.37019	0.11842
2881.44151	0.11857
2879.51284	0.11871
2877.58416	0.11887
2875.65549	0.11905
2873.72681	0.11925
2871.79814	0.11945
2869.86946	0.11962
2867.94078	0.11977
2866.01211	0.11992
2864.08343	0.12004
2862.15476	0.12012
2860.22608	0.12016
2858.29741	0.12017
2856.36873	0.12015
2854.44005	0.12014
2852.51138	0.12017
2850.58270	0.12033
2848.65403	0.12070
2846.72535	0.12122
2844.79668	0.12178
2842.86800	0.12227
2840.93932	0.12267
2839.01065	0.12297
2837.08197	0.12324
2835.15330	0.12349
2833.22462	0.12372
2831.29595	0.12395
2829.36727	0.12420
2827.43859	0.12442
2825.50992	0.12461
2823.58124	0.12480
2821.65257	0.12501
2819.72389	0.12520
2817.79522	0.12537
2815.86654	0.12554
2813.93786	0.12572
2812.00919	0.12589
2810.08051	0.12605
2808.15184	0.12620
2806.22316	0.12638
2804.29449	0.12657
2802.36581	0.12676
2800.43713	0.12694
2798.50846	0.12712
2796.57978	0.12728
2794.65111	0.12744
2792.72243	0.12760
2790.79376	0.12775
2788.86508	0.12788
2786.93640	0.12806
2785.00773	0.12827
2783.07905	0.12844
2781.15038	0.12859
2779.22170	0.12875
2777.29303	0.12893
2775.36435	0.12910
2773.43567	0.12929
2771.50700	0.12947
2769.57832	0.12963
2767.64965	0.12978
2765.72097	0.12994
2763.79230	0.13010
2761.86362	0.13026
2759.93494	0.13041
2758.00627	0.13057
2756.07759	0.13073
2754.14892	0.13087
2752.22024	0.13102
2750.29157	0.13118
2748.36289	0.13134
2746.43421	0.13149
2744.50554	0.13163
2742.57686	0.13176
2740.64819	0.13191
2738.71951	0.13208
2736.79084	0.13227
2734.86216	0.13244
2732.93348	0.13259
2731.00481	0.13274
2729.07613	0.13290
2727.14746	0.13307
2725.21878	0.13322
2723.29011	0.13338
2721.36143	0.13353
2719.43275	0.13366
2717.50408	0.13379
2715.57540	0.13396
2713.64673	0.13415
2711.71805	0.13429
2709.78938	0.13441
2707.86070	0.13455
2705.93202	0.13475
2704.00335	0.13493
2702.07467	0.13507
2700.14600	0.13517
2698.21732	0.13528
2696.28865	0.13543
2694.35997	0.13558
2692.43129	0.13572
2690.50262	0.13585
2688.57394	0.13599
2686.64527	0.13615
2684.71659	0.13631
2682.78792	0.13643
2680.85924	0.13657
2678.93056	0.13674
2677.00189	0.13692
2675.07321	0.13709
2673.14454	0.13725
2671.21586	0.13740
2669.28719	0.13756
2667.35851	0.13772
2665.42983	0.13788
2663.50116	0.13805
2661.57248	0.13819
2659.64381	0.13831
2657.71513	0.13845
2655.78646	0.13861
2653.85778	0.13879
2651.92910	0.13895
2650.00043	0.13907
2648.07175	0.13919
2646.14308	0.13936
2644.21440	0.13954
2642.28573	0.13971
2640.35705	0.13986
2638.42837	0.14001
2636.49970	0.14015
2634.57102	0.14029
2632.64235	0.14045
2630.71367	0.14064
2628.78500	0.14081
2626.85632	0.14096
2624.92764	0.14113
2622.99897	0.14131
2621.07029	0.14149
2619.14162	0.14167
2617.21294	0.14183
2615.28427	0.14192
2613.35559	0.14201
2611.42691	0.14217
2609.49824	0.14237
2607.56956	0.14253
2605.64089	0.14270
2603.71221	0.14289
2601.78354	0.14307
2599.85486	0.14324
2597.92618	0.14340
2595.99751	0.14354
2594.06883	0.14369
2592.14016	0.14384
2590.21148	0.14399
2588.28281	0.14415
2586.35413	0.14433
2584.42545	0.14450
2582.49678	0.14462
2580.56810	0.14473
2578.63943	0.14489
2576.71075	0.14506
2574.78208	0.14520
2572.85340	0.14535
2570.92472	0.14552
2568.99605	0.14565
2567.06737	0.14575
2565.13870	0.14584
2563.21002	0.14598
2561.28135	0.14617
2559.35267	0.14637
2557.42399	0.14652
2555.49532	0.14663
2553.56664	0.14676
2551.63797	0.14691
2549.70929	0.14708
2547.78062	0.14726
2545.85194	0.14742
2543.92326	0.14756
2541.99459	0.14769
2540.06591	0.14782
2538.13724	0.14797
2536.20856	0.14816
2534.27989	0.14831
2532.35121	0.14844
2530.42253	0.14856
2528.49386	0.14870
2526.56518	0.14886
2524.63651	0.14902
2522.70783	0.14916
2520.77916	0.14929
2518.85048	0.14942
2516.92181	0.14958
2514.99313	0.14975
2513.06445	0.14992
2511.13578	0.15008
2509.20710	0.15024
2507.27843	0.15042
2505.34975	0.15059
2503.42108	0.15073
2501.49240	0.15088
2499.56372	0.15104
2497.63505	0.15118
2495.70637	0.15135
2493.77770	0.15156
2491.84902	0.15177
2489.92035	0.15193
2487.99167	0.15209
2486.06299	0.15227
2484.13432	0.15243
2482.20564	0.15258
2480.27697	0.15273
2478.34829	0.15290
2476.41962	0.15305
2474.49094	0.15320
2472.56226	0.15336
2470.63359	0.15351
2468.70491	0.15365
2466.77624	0.15378
2464.84756	0.15395
2462.91889	0.15409
2460.99021	0.15422
2459.06153	0.15436
2457.13286	0.15454
2455.20418	0.15469
2453.27551	0.15481
2451.34683	0.15494
2449.41816	0.15508
2447.48948	0.15528
2445.56080	0.15550
2443.63213	0.15566
2441.70345	0.15577
2439.77478	0.15590
2437.84610	0.15609
2435.91743	0.15630
2433.98875	0.15648
2432.06007	0.15659
2430.13140	0.15669
2428.20272	0.15683
2426.27405	0.15696
2424.34537	0.15709
2422.41670	0.15725
2420.48802	0.15741
2418.55934	0.15756
2416.63067	0.15772
2414.70199	0.15789
2412.77332	0.15805
2410.84464	0.15820
2408.91597	0.15834
2406.98729	0.15846
2405.05861	0.15856
2403.12994	0.15871
2401.20126	0.15889
2399.27259	0.15910
2397.34391	0.15925
2395.41524	0.15935
2393.48656	0.15945
2391.55788	0.15958
2389.62921	0.15971
2387.70053	0.15984
2385.77186	0.15997
2383.84318	0.16011
2381.91451	0.16025
2379.98583	0.16033
2378.05715	0.16033
2376.12848	0.16030
2374.19980	0.16031
2372.27113	0.16030
2370.34245	0.16028
2368.41378	0.16028
2366.48510	0.16032
2364.55642	0.16041
2362.62775	0.16052
2360.69907	0.16066
2358.77040	0.16084
2356.84172	0.16109
2354.91305	0.16137
2352.98437	0.16168
2351.05569	0.16200
2349.12702	0.16215
2347.19834	0.16200
2345.26967	0.16165
2343.34099	0.16126
2341.41232	0.16100
2339.48364	0.16104
2337.55496	0.16143
2335.62629	0.16208
2333.69761	0.16263
2331.76894	0.16291
2329.84026	0.16309
2327.91159	0.16329
2325.98291	0.16353
2324.05423	0.16377
2322.12556	0.16398
2320.19688	0.16416
2318.26821	0.16435
2316.33953	0.16453
2314.41086	0.16471
2312.48218	0.16490
2310.55350	0.16511
2308.62483	0.16530
2306.69615	0.16547
2304.76748	0.16567
2302.83880	0.16588
2300.91013	0.16605
2298.98145	0.16618
2297.05277	0.16628
2295.12410	0.16637
2293.19542	0.16647
2291.26675	0.16659
2289.33807	0.16674
2287.40940	0.16690
2285.48072	0.16703
2283.55204	0.16713
2281.62337	0.16724
2279.69469	0.16737
2277.76602	0.16752
2275.83734	0.16769
2273.90867	0.16785
2271.97999	0.16800
2270.05131	0.16812
2268.12264	0.16820
2266.19396	0.16828
2264.26529	0.16843
2262.33661	0.16861
2260.40794	0.16879
2258.47926	0.16896
2256.55058	0.16915
2254.62191	0.16931
2252.69323	0.16943
2250.76456	0.16958
2248.83588	0.16975
2246.90721	0.16994
2244.97853	0.17013
2243.04985	0.17030
2241.12118	0.17046
2239.19250	0.17060
2237.26383	0.17075
2235.33515	0.17092
2233.40648	0.17108
2231.47780	0.17123
2229.54912	0.17139
2227.62045	0.17160
2225.69177	0.17184
2223.76310	0.17203
2221.83442	0.17220
2219.90575	0.17236
2217.97707	0.17251
2216.04839	0.17265
2214.11972	0.17278
2212.19104	0.17293
2210.26237	0.17312
2208.33369	0.17333
2206.40502	0.17350
2204.47634	0.17364
2202.54766	0.17375
2200.61899	0.17385
2198.69031	0.17395
2196.76164	0.17411
2194.83296	0.17427
2192.90429	0.17439
2190.97561	0.17452
2189.04693	0.17467
2187.11826	0.17483
2185.18958	0.17497
2183.26091	0.17510
2181.33223	0.17527
2179.40356	0.17547
2177.47488	0.17563
2175.54620	0.17577
2173.61753	0.17592
2171.68885	0.17611
2169.76018	0.17626
2167.83150	0.17637
2165.90283	0.17651
2163.97415	0.17671
2162.04547	0.17689
2160.11680	0.17702
2158.18812	0.17713
2156.25945	0.17729
2154.33077	0.17743
2152.40210	0.17756
2150.47342	0.17771
2148.54474	0.17786
2146.61607	0.17800
2144.68739	0.17812
2142.75872	0.17826
2140.83004	0.17842
2138.90137	0.17857
2136.97269	0.17869
2135.04401	0.17882
2133.11534	0.17897
2131.18666	0.17912
2129.25799	0.17927
2127.32931	0.17941
2125.40064	0.17954
2123.47196	0.17964
2121.54328	0.17975
2119.61461	0.17991
2117.68593	0.18007
2115.75726	0.18023
2113.82858	0.18038
2111.89991	0.18057
2109.97123	0.18080
2108.04255	0.18098
2106.11388	0.18111
2104.18520	0.18123
2102.25653	0.18136
2100.32785	0.18151
2098.39918	0.18165
2096.47050	0.18174
2094.54182	0.18185
2092.61315	0.18203
2090.68447	0.18222
2088.75580	0.18233
2086.82712	0.18242
2084.89845	0.18255
2082.96977	0.18274
2081.04109	0.18294
2079.11242	0.18308
2077.18374	0.18321
2075.25507	0.18336
2073.32639	0.18354
2071.39772	0.18369
2069.46904	0.18381
2067.54036	0.18394
2065.61169	0.18406
2063.68301	0.18414
2061.75434	0.18422
2059.82566	0.18434
2057.89699	0.18450
2055.96831	0.18468
2054.03963	0.18484
2052.11096	0.18499
2050.18228	0.18513
2048.25361	0.18526
2046.32493	0.18538
2044.39626	0.18550
2042.46758	0.18563
2040.53890	0.18580
2038.61023	0.18599
2036.68155	0.18618
2034.75288	0.18634
2032.82420	0.18642
2030.89553	0.18652
2028.96685	0.18668
2027.03817	0.18685
2025.10950	0.18704
2023.18082	0.18720
2021.25215	0.18730
2019.32347	0.18738
2017.39480	0.18749
2015.46612	0.18763
2013.53744	0.18780
2011.60877	0.18796
2009.68009	0.18810
2007.75142	0.18823
2005.82274	0.18837
2003.89407	0.18851
2001.96539	0.18860
2000.03671	0.18866
1998.10804	0.18876
1996.17936	0.18892
1994.25069	0.18903
1992.32201	0.18910
1990.39334	0.18922
1988.46466	0.18937
1986.53598	0.18951
1984.60731	0.18966
1982.67863	0.18977
1980.74996	0.18983
1978.82128	0.18994
1976.89261	0.19008
1974.96393	0.19018
1973.03525	0.19026
1971.10658	0.19036
1969.17790	0.19043
1967.24923	0.19053
1965.32055	0.19068
1963.39188	0.19081
1961.46320	0.19091
1959.53452	0.19104
1957.60585	0.19117
1955.67717	0.19128
1953.74850	0.19140
1951.81982	0.19153
1949.89115	0.19165
1947.96247	0.19176
1946.03379	0.19186
1944.10512	0.19194
1942.17644	0.19206
1940.24777	0.19223
1938.31909	0.19237
1936.39042	0.19251
1934.46174	0.19268
1932.53306	0.19279
1930.60439	0.19285
1928.67571	0.19299
1926.74704	0.19316
1924.81836	0.19323
1922.88969	0.19326
1920.96101	0.19332
1919.03233	0.19339
1917.10366	0.19358
1915.17498	0.19387
1913.24631	0.19408
1911.31763	0.19417
1909.38896	0.19422
1907.46028	0.19430
1905.53160	0.19445
1903.60293	0.19463
1901.67425	0.19482
1899.74558	0.19498
1897.81690	0.19508
1895.88823	0.19512
1893.95955	0.19522
1892.03087	0.19535
1890.10220	0.19544
1888.17352	0.19558
1886.24485	0.19577
1884.31617	0.19596
1882.38750	0.19612
1880.45882	0.19625
1878.53014	0.19633
1876.60147	0.19640
1874.67279	0.19649
1872.74412	0.19650
1870.81544	0.19636
1868.88677	0.19635
1866.95809	0.19666
1865.02941	0.19705
1863.10074	0.19733
1861.17206	0.19748
1859.24339	0.19758
1857.31471	0.19769
1855.38604	0.19783
1853.45736	0.19798
1851.52868	0.19810
1849.60001	0.19815
1847.67133	0.19814
1845.74266	0.19810
1843.81398	0.19822
1841.88531	0.19852
1839.95663	0.19880
1838.02795	0.19897
1836.09928	0.19913
1834.17060	0.19925
1832.24193	0.19928
1830.31325	0.19928
1828.38458	0.19939
1826.45590	0.19954
1824.52722	0.19968
1822.59855	0.19987
1820.66987	0.20008
1818.74120	0.20023
1816.81252	0.20034
1814.88385	0.20042
1812.95517	0.20047
1811.02649	0.20053
1809.09782	0.20063
1807.16914	0.20076
1805.24047	0.20085
1803.31179	0.20086
1801.38312	0.20085
1799.45444	0.20092
1797.52576	0.20103
1795.59709	0.20102
1793.66841	0.20089
1791.73974	0.20096
1789.81106	0.20128
1787.88239	0.20150
1785.95371	0.20149
1784.02503	0.20150
1782.09636	0.20156
1780.16768	0.20166
1778.23901	0.20181
1776.31033	0.20189
1774.38166	0.20175
1772.45298	0.20156
1770.52430	0.20165
1768.59563	0.20197
1766.66695	0.20222
1764.73828	0.20223
1762.80960	0.20207
1760.88093	0.20202
1758.95225	0.20208
1757.02357	0.20212
1755.09490	0.20205
1753.16622	0.20165
1751.23755	0.20119
1749.30887	0.20114
1747.38020	0.20131
1745.45152	0.20133
1743.52284	0.20116
1741.59417	0.20095
1739.66549	0.20089
1737.73682	0.20097
1735.80814	0.20083
1733.87947	0.20067
1731.95079	0.20087
1730.02211	0.20116
1728.09344	0.20138
1726.16476	0.20153
1724.23609	0.20159
1722.30741	0.20153
1720.37874	0.20123
1718.45006	0.20083
1716.52138	0.20077
1714.59271	0.20112
1712.66403	0.20148
1710.73536	0.20164
1708.80668	0.20157
1706.87801	0.20136
1704.94933	0.20119
1703.02065	0.20096
1701.09198	0.20066
1699.16330	0.20067
1697.23463	0.20091
1695.30595	0.20116
1693.37728	0.20138
1691.44860	0.20143
1689.51992	0.20137
1687.59125	0.20127
1685.66257	0.20095
1683.73390	0.20075
1681.80522	0.20102
1679.87655	0.20136
1677.94787	0.20120
1676.01919	0.20080
1674.09052	0.20072
1672.16184	0.20084
1670.23317	0.20091
1668.30449	0.20110
1666.37582	0.20129
1664.44714	0.20124
1662.51846	0.20119
1660.58979	0.20137
1658.66111	0.20149
1656.73244	0.20118
1654.80376	0.20046
1652.87509	0.20003
1650.94641	0.20030
1649.01773	0.20060
1647.08906	0.20073
1645.16038	0.20108
1643.23171	0.20144
1641.30303	0.20153
1639.37436	0.20140
1637.44568	0.20116
1635.51700	0.20117
1633.58833	0.20153
1631.65965	0.20181
1629.73098	0.20174
1627.80230	0.20154
1625.87363	0.20133
1623.94495	0.20099
1622.01627	0.20070
1620.08760	0.20058
1618.15892	0.20065
1616.23025	0.20113
1614.30157	0.20194
1612.37290	0.20256
1610.44422	0.20289
1608.51554	0.20316
1606.58687	0.20345
1604.65819	0.20368
1602.72952	0.20387
1600.80084	0.20409
1598.87217	0.20433
1596.94349	0.20451
1595.01481	0.20465
1593.08614	0.20481
1591.15746	0.20497
1589.22879	0.20514
1587.30011	0.20536
1585.37144	0.20554
1583.44276	0.20569
1581.51408	0.20584
1579.58541	0.20582
1577.65673	0.20558
1575.72806	0.20560
1573.79938	0.20602
1571.87071	0.20629
1569.94203	0.20631
1568.01335	0.20642
1566.08468	0.20663
1564.15600	0.20671
1562.22733	0.20632
1560.29865	0.20570
1558.36998	0.20574
1556.44130	0.20651
1554.51262	0.20718
1552.58395	0.20746
1550.65527	0.20759
1548.72660	0.20768
1546.79792	0.20755
1544.86925	0.20723
1542.94057	0.20699
1541.01189	0.20698
1539.08322	0.20736
1537.15454	0.20782
1535.22587	0.20787
1533.29719	0.20785
1531.36852	0.20819
1529.43984	0.20844
1527.51116	0.20833
1525.58249	0.20811
1523.65381	0.20785
1521.72514	0.20775
1519.79646	0.20800
1517.86779	0.20830
1515.93911	0.20848
1514.01043	0.20865
1512.08176	0.20870
1510.15308	0.20835
1508.22441	0.20779
1506.29573	0.20784
1504.36706	0.20859
1502.43838	0.20907
1500.50970	0.20888
1498.58103	0.20853
1496.65235	0.20850
1494.72368	0.20872
1492.79500	0.20875
1490.86633	0.20847
1488.93765	0.20821
1487.00897	0.20816
1485.08030	0.20819
1483.15162	0.20813
1481.22295	0.20794
1479.29427	0.20753
1477.36560	0.20684
1475.43692	0.20611
1473.50824	0.20562
1471.57957	0.20541
1469.65089	0.20531
1467.72222	0.20493
1465.79354	0.20434
1463.86487	0.20406
1461.93619	0.20399
1460.00751	0.20347
1458.07884	0.20265
1456.15016	0.20248
1454.22149	0.20300
1452.29281	0.20341
1450.36414	0.20348
1448.43546	0.20354
1446.50678	0.20368
1444.57811	0.20379
1442.64943	0.20381
1440.72076	0.20378
1438.79208	0.20367
1436.86341	0.20364
1434.93473	0.20389
1433.00605	0.20412
1431.07738	0.20416
1429.14870	0.20423
1427.22003	0.20433
1425.29135	0.20429
1423.36268	0.20406
1421.43400	0.20353
1419.50532	0.20303
1417.57665	0.20315
1415.64797	0.20361
1413.71930	0.20384
1411.79062	0.20385
1409.86195	0.20381
1407.93327	0.20373
1406.00459	0.20366
1404.07592	0.20365
1402.14724	0.20360
1400.21857	0.20341
1398.28989	0.20323
1396.36122	0.20315
1394.43254	0.20315
1392.50386	0.20316
1390.57519	0.20299
1388.64651	0.20259
1386.71784	0.20220
1384.78916	0.20197
1382.86049	0.20197
1380.93181	0.20209
1379.00313	0.20217
1377.07446	0.20205
1375.14578	0.20182
1373.21711	0.20173
1371.28843	0.20183
1369.35976	0.20188
1367.43108	0.20176
1365.50240	0.20153
1363.57373	0.20132
1361.64505	0.20129
1359.71638	0.20143
1357.78770	0.20153
1355.85903	0.20157
1353.93035	0.20163
1352.00167	0.20170
1350.07300	0.20176
1348.14432	0.20182
1346.21565	0.20187
1344.28697	0.20187
1342.35830	0.20175
1340.42962	0.20154
1338.50094	0.20142
1336.57227	0.20146
1334.64359	0.20147
1332.71492	0.20131
1330.78624	0.20103
1328.85757	0.20073
1326.92889	0.20043
1325.00021	0.20019
1323.07154	0.19997
1321.14286	0.19973
1319.21419	0.19947
1317.28551	0.19921
1315.35684	0.19889
1313.42816	0.19853
1311.49948	0.19817
1309.57081	0.19787
1307.64213	0.19761
1305.71346	0.19730
1303.78478	0.19692
1301.85611	0.19647
1299.92743	0.19605
1297.99875	0.19572
1296.07008	0.19543
1294.14140	0.19514
1292.21273	0.19481
1290.28405	0.19440
1288.35538	0.19393
1286.42670	0.19343
1284.49802	0.19286
1282.56935	0.19226
1280.64067	0.19169
1278.71200	0.19118
1276.78332	0.19068
1274.85465	0.19014
1272.92597	0.18954
1270.99729	0.18885
1269.06862	0.18801
1267.13994	0.18710
1265.21127	0.18628
1263.28259	0.18564
1261.35392	0.18527
1259.42524	0.18514
1257.49656	0.18515
1255.56789	0.18517
1253.63921	0.18500
1251.71054	0.18461
1249.78186	0.18406
1247.85319	0.18340
1245.92451	0.18266
1243.99583	0.18189
1242.06716	0.18110
1240.13848	0.18028
1238.20981	0.17939
1236.28113	0.17837
1234.35246	0.17725
1232.42378	0.17610
1230.49510	0.17496
1228.56643	0.17383
1226.63775	0.17270
1224.70908	0.17157
1222.78040	0.17046
1220.85173	0.16932
1218.92305	0.16814
1216.99437	0.16693
1215.06570	0.16570
1213.13702	0.16444
1211.20835	0.16320
1209.27967	0.16201
1207.35100	0.16082
1205.42232	0.15960
1203.49364	0.15835
1201.56497	0.15714
1199.63629	0.15593
1197.70762	0.15473
1195.77894	0.15355
1193.85027	0.15241
1191.92159	0.15125
1189.99291	0.15009
1188.06424	0.14892
1186.13556	0.14769
1184.20689	0.14639
1182.27821	0.14513
1180.34954	0.14394
1178.42086	0.14274
1176.49218	0.14153
1174.56351	0.14031
1172.63483	0.13905
1170.70616	0.13779
1168.77748	0.13656
1166.84881	0.13536
1164.92013	0.13418
1162.99145	0.13301
1161.06278	0.13188
1159.13410	0.13075
1157.20543	0.12959
1155.27675	0.12845
1153.34808	0.12741
1151.41940	0.12642
1149.49072	0.12538
1147.56205	0.12430
1145.63337	0.12323
1143.70470	0.12210
1141.77602	0.12092
1139.84735	0.11977
1137.91867	0.11859
1135.98999	0.11726
1134.06132	0.11581
1132.13264	0.11427
1130.20397	0.11260
1128.27529	0.11075
1126.34662	0.10872
1124.41794	0.10657
1122.48926	0.10439
1120.56059	0.10225
1118.63191	0.10019
1116.70324	0.09824
1114.77456	0.09646
1112.84589	0.09491
1110.91721	0.09356
1108.98853	0.09233
1107.05986	0.09124
1105.13118	0.09038
1103.20251	0.08980
1101.27383	0.08947
1099.34516	0.08927
1097.41648	0.08903
1095.48780	0.08878
1093.55913	0.08855
1091.63045	0.08828
1089.70178	0.08798
1087.77310	0.08768
1085.84443	0.08732
1083.91575	0.08677
1081.98707	0.08603
1080.05840	0.08520
1078.12972	0.08432
1076.20105	0.08342
1074.27237	0.08257
1072.34370	0.08179
1070.41502	0.08102
1068.48634	0.08027
1066.55767	0.07965
1064.62899	0.07913
1062.70032	0.07864
1060.77164	0.07818
1058.84297	0.07780
1056.91429	0.07753
1054.98561	0.07736
1053.05694	0.07729
1051.12826	0.07730
1049.19959	0.07737
1047.27091	0.07752
1045.34224	0.07778
1043.41356	0.07814
1041.48488	0.07863
1039.55621	0.07928
1037.62753	0.08000
1035.69886	0.08072
1033.77018	0.08147
1031.84151	0.08237
1029.91283	0.08345
1027.98415	0.08462
1026.05548	0.08580
1024.12680	0.08698
1022.19813	0.08828
1020.26945	0.08979
1018.34078	0.09146
1016.41210	0.09319
1014.48342	0.09506
1012.55475	0.09705
1010.62607	0.09910
1008.69740	0.10119
1006.76872	0.10336
1004.84005	0.10555
1002.91137	0.10771
1000.98269	0.10975
999.05402	0.11171
997.12534	0.11360
995.19667	0.11538
993.26799	0.11707
991.33932	0.11873
989.41064	0.12032
987.48196	0.12177
985.55329	0.12308
983.62461	0.12425
981.69594	0.12529
979.76726	0.12621
977.83859	0.12701
975.90991	0.12767
973.98123	0.12811
972.05256	0.12839
970.12388	0.12864
968.19521	0.12890
966.26653	0.12912
964.33786	0.12927
962.40918	0.12937
960.48050	0.12946
958.55183	0.12952
956.62315	0.12951
954.69448	0.12947
952.76580	0.12943
950.83713	0.12938
948.90845	0.12928
946.97977	0.12918
945.05110	0.12913
943.12242	0.12901
941.19375	0.12876
939.26507	0.12842
937.33640	0.12804
935.40772	0.12761
933.47904	0.12716
931.55037	0.12671
929.62169	0.12627
927.69302	0.12584
925.76434	0.12541
923.83567	0.12496
921.90699	0.12450
919.97831	0.12401
918.04964	0.12341
916.12096	0.12274
914.19229	0.12211
912.26361	0.12145
910.33494	0.12075
908.40626	0.12007
906.47758	0.11947
904.54891	0.11891
902.62023	0.11837
900.69156	0.11784
898.76288	0.11727
896.83421	0.11667
894.90553	0.11605
892.97685	0.11544
891.04818	0.11491
889.11950	0.11446
887.19083	0.11404
885.26215	0.11369
883.33348	0.11341
881.40480	0.11319
879.47612	0.11300
877.54745	0.11288
875.61877	0.11285
873.69010	0.11294
871.76142	0.11309
869.83275	0.11326
867.90407	0.11343
865.97539	0.11351
864.04672	0.11351
862.11804	0.11352
860.18937	0.11364
858.26069	0.11378
856.33202	0.11372
854.40334	0.11348
852.47466	0.11322
850.54599	0.11296
848.61731	0.11267
846.68864	0.11232
844.75996	0.11193
842.83129	0.11152
840.90261	0.11106
838.97394	0.11051
837.04526	0.10987
835.11658	0.10911
833.18791	0.10825
831.25923	0.10730
829.33056	0.10627
827.40188	0.10517
825.47321	0.10405
823.54453	0.10303
821.61585	0.10212
819.68718	0.10131
817.75850	0.10062
815.82983	0.10004
813.90115	0.09954
811.97248	0.09910
810.04380	0.09876
808.11512	0.09852
806.18645	0.09844
804.25777	0.09849
802.32910	0.09854
800.40042	0.09835
798.47175	0.09788
796.54307	0.09733
794.61439	0.09695
792.68572	0.09677
790.75704	0.09663
788.82837	0.09648
786.89969	0.09638
784.97102	0.09633
783.04234	0.09628
781.11366	0.09618
779.18499	0.09604
777.25631	0.09588
775.32764	0.09579
773.39896	0.09577
771.47029	0.09570
769.54161	0.09557
767.61293	0.09545
765.68426	0.09527
763.75558	0.09508
761.82691	0.09489
759.89823	0.09459
757.96956	0.09417
756.04088	0.09374
754.11220	0.09333
752.18353	0.09286
750.25485	0.09235
748.32618	0.09183
746.39750	0.09128
744.46883	0.09063
742.54015	0.08991
740.61147	0.08919
738.68280	0.08860
736.75412	0.08833
734.82545	0.08835
732.89677	0.08854
730.96810	0.08876
729.03942	0.08891
727.11074	0.08899
725.18207	0.08914
723.25339	0.08941
721.32472	0.08968
719.39604	0.08988
717.46737	0.09005
715.53869	0.09035
713.61001	0.09084
711.68134	0.09135
709.75266	0.09158
707.82399	0.09151
705.89531	0.09132
703.96664	0.09112
702.03796	0.09092
700.10928	0.09066
698.18061	0.09025
696.25193	0.08970
694.32326	0.08914
692.39458	0.08867
690.46591	0.08826
688.53723	0.08783
686.60855	0.08735
684.67988	0.08683
682.75120	0.08631
680.82253	0.08582
678.89385	0.08533
676.96518	0.08479
675.03650	0.08413
673.10782	0.08339
671.17915	0.08262
669.25047	0.08179
667.32180	0.08094
665.39312	0.08013
663.46445	0.07930
661.53577	0.07845
659.60709	0.07770
657.67842	0.07707
655.74974	0.07638
653.82107	0.07551
651.89239	0.07453
649.96372	0.07371
648.03504	0.07311
646.10636	0.07242
644.17769	0.07149
642.24901	0.07048
640.32034	0.06952
638.39166	0.06859
636.46299	0.06765
634.53431	0.06662
632.60563	0.06520
630.67696	0.06291
628.74828	0.05959
626.81961	0.05547
624.89093	0.05121
622.96226	0.04776
621.03358	0.04560
619.10490	0.04448
617.17623	0.04382
615.24755	0.04305
613.31888	0.04201
611.39020	0.04100
609.46153	0.04048
607.53285	0.04057
605.60417	0.04093
603.67550	0.04147
601.74682	0.04224
599.81815	0.04311
597.88947	0.04384
595.96080	0.04441
594.03212	0.04489
592.10344	0.04522
590.17477	0.04531
588.24609	0.04521
586.31742	0.04500
584.38874	0.04470
582.46007	0.04433
580.53139	0.04399
578.60271	0.04367
576.67404	0.04329
574.74536	0.04276
572.81669	0.04212
570.88801	0.04145
568.95934	0.04090
567.03066	0.04049
565.10198	0.04015
563.17331	0.03983
561.24463	0.03959
559.31596	0.03943
557.38728	0.03922
555.45861	0.03888
553.52993	0.03851
551.60125	0.03825
549.67258	0.03810
547.74390	0.03795
545.81523	0.03779
543.88655	0.03772
541.95788	0.03771
540.02920	0.03766
538.10052	0.03754
536.17185	0.03737
534.24317	0.03713
532.31450	0.03683
530.38582	0.03652
528.45715	0.03620
526.52847	0.03579
524.59979	0.03532
522.67112	0.03487
520.74244	0.03450
518.81377	0.03405
516.88509	0.03352
514.95642	0.03303
513.02774	0.03265
511.09906	0.03241
509.17039	0.03218
507.24171	0.03182
505.31304	0.03147
503.38436	0.03120
501.45569	0.03075
499.52701	0.03010
497.59833	0.02945
495.66966	0.02888
493.74098	0.02835
491.81231	0.02779
489.88363	0.02714
487.95496	0.02650
486.02628	0.02598
484.09760	0.02544
482.16893	0.02474
480.24025	0.02402
478.31158	0.02345
476.38290	0.02295
474.45423	0.02239
472.52555	0.02182
470.59687	0.02131
468.66820	0.02083
466.73952	0.02049
464.81085	0.02033
462.88217	0.02013
460.95350	0.01982
459.02482	0.01958
457.09614	0.01950
455.16747	0.01948
453.23879	0.01945
451.31012	0.01943
449.38144	0.01937
447.45277	0.01928
445.52409	0.01909
443.59541	0.01870
441.66674	0.01822
439.73806	0.01783
437.80939	0.01747
435.88071	0.01712
433.95204	0.01682
432.02336	0.01652
430.09468	0.01617
428.16601	0.01572
426.23733	0.01508
424.30866	0.01438
422.37998	0.01386
420.45131	0.01351
418.52263	0.01308
416.59395	0.01248
414.66528	0.01190
412.73660	0.01142
410.80793	0.01089
408.87925	0.01032
406.95058	0.00981
405.02190	0.00932
403.09322	0.00882
401.16455	0.00828
399.23587	0.00779
397.30720	0.00747
395.37852	0.00728
393.44985	0.00700
391.52117	0.00652
389.59249	0.00595
387.66382	0.00547
385.73514	0.00512
383.80647	0.00480
381.87779	0.00441
379.94912	0.00402
378.02044	0.00370
376.09176	0.00341
374.16309	0.00311
372.23441	0.00283
370.30574	0.00260
368.37706	0.00242
