7496.76250	0.00227
7494.83382	0.00228
7492.90514	0.00230
7490.97647	0.00230
7489.04779	0.00230
7487.11912	0.00230
7485.19044	0.00230
7483.26177	0.00230
7481.33309	0.00230
7479.40441	0.00232
7477.47574	0.00234
7475.54706	0.00234
7473.61839	0.00234
7471.68971	0.00235
7469.76104	0.00236
7467.83236	0.00237
7465.90368	0.00238
7463.97501	0.00239
7462.04633	0.00239
7460.11766	0.00237
7458.18898	0.00238
7456.26031	0.00239
7454.33163	0.00240
7452.40295	0.00241
7450.47428	0.00242
7448.54560	0.00244
7446.61693	0.00245
7444.68825	0.00243
7442.75958	0.00243
7440.83090	0.00244
7438.90222	0.00245
7436.97355	0.00246
7435.04487	0.00246
7433.11620	0.00246
7431.18752	0.00247
7429.25885	0.00249
7427.33017	0.00251
7425.40149	0.00253
7423.47282	0.00253
7421.54414	0.00251
7419.61547	0.00249
7417.68679	0.00250
7415.75812	0.00252
7413.82944	0.00254
7411.90076	0.00256
7409.97209	0.00256
7408.04341	0.00256
7406.11474	0.00255
7404.18606	0.00256
7402.25739	0.00258
7400.32871	0.00260
7398.40003	0.00260
7396.47136	0.00259
7394.54268	0.00260
7392.61401	0.00260
7390.68533	0.00260
7388.75666	0.00261
7386.82798	0.00263
7384.89930	0.00265
7382.97063	0.00266
7381.04195	0.00266
7379.11328	0.00267
7377.18460	0.00268
7375.25593	0.00268
7373.32725	0.00269
7371.39857	0.00269
7369.46990	0.00268
7367.54122	0.00268
7365.61255	0.00269
7363.68387	0.00272
7361.75520	0.00273
7359.82652	0.00273
7357.89784	0.00272
7355.96917	0.00272
7354.04049	0.00273
7352.11182	0.00275
7350.18314	0.00276
7348.25447	0.00277
7346.32579	0.00276
7344.39711	0.00276
7342.46844	0.00277
7340.53976	0.00279
7338.61109	0.00282
7336.68241	0.00284
7334.75374	0.00284
7332.82506	0.00283
7330.89638	0.00283
7328.96771	0.00282
7327.03903	0.00283
7325.11036	0.00285
7323.18168	0.00286
7321.25301	0.00286
7319.32433	0.00286
7317.39565	0.00286
7315.46698	0.00287
7313.53830	0.00289
7311.60963	0.00290
7309.68095	0.00289
7307.75228	0.00288
7305.82360	0.00289
7303.89492	0.00291
7301.96625	0.00293
7300.03757	0.00294
7298.10890	0.00293
7296.18022	0.00292
7294.25155	0.00292
7292.32287	0.00294
7290.39419	0.00296
7288.46552	0.00297
7286.53684	0.00299
7284.60817	0.00300
7282.67949	0.00301
7280.75082	0.00301
7278.82214	0.00301
7276.89346	0.00301
7274.96479	0.00302
7273.03611	0.00303
7271.10744	0.00304
7269.17876	0.00304
7267.25009	0.00305
7265.32141	0.00307
7263.39273	0.00308
7261.46406	0.00308
7259.53538	0.00309
7257.60671	0.00310
7255.67803	0.00310
7253.74936	0.00309
7251.82068	0.00309
7249.89200	0.00311
7247.96333	0.00313
7246.03465	0.00314
7244.10598	0.00315
7242.17730	0.00315
7240.24863	0.00315
7238.31995	0.00315
7236.39127	0.00315
7234.46260	0.00316
7232.53392	0.00316
7230.60525	0.00318
7228.67657	0.00319
7226.74790	0.00320
7224.81922	0.00321
7222.89054	0.00321
7220.96187	0.00321
7219.03319	0.00321
7217.10452	0.00321
7215.17584	0.00322
7213.24717	0.00324
7211.31849	0.00326
7209.38981	0.00327
7207.46114	0.00327
7205.53246	0.00328
7203.60379	0.00329
7201.67511	0.00329
7199.74644	0.00330
7197.81776	0.00332
7195.88908	0.00333
7193.96041	0.00335
7192.03173	0.00336
7190.10306	0.00337
7188.17438	0.00336
7186.24571	0.00336
7184.31703	0.00337
7182.38835	0.00337
7180.45968	0.00338
7178.53100	0.00339
7176.60233	0.00339
7174.67365	0.00339
7172.74498	0.00340
7170.81630	0.00342
7168.88762	0.00343
7166.95895	0.00343
7165.03027	0.00344
7163.10160	0.00345
7161.17292	0.00345
7159.24425	0.00347
7157.31557	0.00348
7155.38689	0.00348
7153.45822	0.00347
7151.52954	0.00348
7149.60087	0.00350
7147.67219	0.00350
7145.74352	0.00350
7143.81484	0.00351
7141.88616	0.00351
7139.95749	0.00352
7138.02881	0.00353
7136.10014	0.00355
7134.17146	0.00357
7132.24279	0.00358
7130.31411	0.00358
7128.38543	0.00357
7126.45676	0.00357
7124.52808	0.00358
7122.59941	0.00359
7120.67073	0.00360
7118.74206	0.00360
7116.81338	0.00362
7114.88470	0.00364
7112.95603	0.00365
7111.02735	0.00364
7109.09868	0.00366
7107.17000	0.00368
7105.24133	0.00369
7103.31265	0.00369
7101.38397	0.00369
7099.45530	0.00368
7097.52662	0.00369
7095.59795	0.00370
7093.66927	0.00372
7091.74060	0.00374
7089.81192	0.00375
7087.88324	0.00376
7085.95457	0.00376
7084.02589	0.00378
7082.09722	0.00379
7080.16854	0.00379
7078.23987	0.00380
7076.31119	0.00381
7074.38251	0.00382
7072.45384	0.00383
7070.52516	0.00385
7068.59649	0.00385
7066.66781	0.00385
7064.73914	0.00386
7062.81046	0.00388
7060.88178	0.00389
7058.95311	0.00389
7057.02443	0.00389
7055.09576	0.00389
7053.16708	0.00389
7051.23841	0.00390
7049.30973	0.00391
7047.38105	0.00391
7045.45238	0.00391
7043.52370	0.00392
7041.59503	0.00393
7039.66635	0.00395
7037.73768	0.00396
7035.80900	0.00397
7033.88032	0.00398
7031.95165	0.00401
7030.02297	0.00403
7028.09430	0.00403
7026.16562	0.00402
7024.23695	0.00403
7022.30827	0.00405
7020.37959	0.00407
7018.45092	0.00407
7016.52224	0.00407
7014.59357	0.00408
7012.66489	0.00408
7010.73622	0.00408
7008.80754	0.00409
7006.87886	0.00410
7004.95019	0.00411
7003.02151	0.00413
7001.09284	0.00413
6999.16416	0.00414
6997.23549	0.00415
6995.30681	0.00414
6993.37813	0.00413
6991.44946	0.00414
6989.52078	0.00416
6987.59211	0.00416
6985.66343	0.00417
6983.73476	0.00419
6981.80608	0.00420
6979.87740	0.00420
6977.94873	0.00421
6976.02005	0.00423
6974.09138	0.00424
6972.16270	0.00426
6970.23403	0.00427
6968.30535	0.00428
6966.37667	0.00429
6964.44800	0.00429
6962.51932	0.00429
6960.59065	0.00431
6958.66197	0.00432
6956.73330	0.00433
6954.80462	0.00434
6952.87594	0.00435
6950.94727	0.00434
6949.01859	0.00435
6947.08992	0.00436
6945.16124	0.00438
6943.23257	0.00439
6941.30389	0.00441
6939.37521	0.00443
6937.44654	0.00444
6935.51786	0.00444
6933.58919	0.00444
6931.66051	0.00444
6929.73184	0.00445
6927.80316	0.00445
6925.87448	0.00446
6923.94581	0.00447
6922.01713	0.00447
6920.08846	0.00448
6918.15978	0.00451
6916.23111	0.00453
6914.30243	0.00454
6912.37375	0.00455
6910.44508	0.00455
6908.51640	0.00455
6906.58773	0.00455
6904.65905	0.00456
6902.73038	0.00457
6900.80170	0.00459
6898.87302	0.00460
6896.94435	0.00459
6895.01567	0.00459
6893.08700	0.00460
6891.15832	0.00461
6889.22965	0.00462
6887.30097	0.00465
6885.37229	0.00468
6883.44362	0.00470
6881.51494	0.00471
6879.58627	0.00472
6877.65759	0.00472
6875.72892	0.00472
6873.80024	0.00472
6871.87156	0.00474
6869.94289	0.00475
6868.01421	0.00476
6866.08554	0.00478
6864.15686	0.00481
6862.22819	0.00481
6860.29951	0.00480
6858.37083	0.00480
6856.44216	0.00482
6854.51348	0.00484
6852.58481	0.00485
6850.65613	0.00486
6848.72746	0.00486
6846.79878	0.00486
6844.87010	0.00487
6842.94143	0.00489
6841.01275	0.00492
6839.08408	0.00493
6837.15540	0.00493
6835.22673	0.00493
6833.29805	0.00494
6831.36937	0.00494
6829.44070	0.00495
6827.51202	0.00497
6825.58335	0.00500
6823.65467	0.00502
6821.72600	0.00503
6819.79732	0.00504
6817.86864	0.00504
6815.93997	0.00506
6814.01129	0.00509
6812.08262	0.00510
6810.15394	0.00510
6808.22527	0.00510
6806.29659	0.00510
6804.36791	0.00510
6802.43924	0.00510
6800.51056	0.00510
6798.58189	0.00513
6796.65321	0.00514
6794.72454	0.00514
6792.79586	0.00516
6790.86718	0.00518
6788.93851	0.00519
6787.00983	0.00519
6785.08116	0.00518
6783.15248	0.00519
6781.22381	0.00520
6779.29513	0.00523
6777.36645	0.00526
6775.43778	0.00529
6773.50910	0.00531
6771.58043	0.00531
6769.65175	0.00528
6767.72308	0.00527
6765.79440	0.00528
6763.86572	0.00530
6761.93705	0.00533
6760.00837	0.00535
6758.07970	0.00537
6756.15102	0.00538
6754.22235	0.00540
6752.29367	0.00541
6750.36499	0.00542
6748.43632	0.00542
6746.50764	0.00542
6744.57897	0.00544
6742.65029	0.00545
6740.72162	0.00545
6738.79294	0.00545
6736.86426	0.00547
6734.93559	0.00548
6733.00691	0.00551
6731.07824	0.00553
6729.14956	0.00555
6727.22089	0.00555
6725.29221	0.00554
6723.36353	0.00555
6721.43486	0.00556
6719.50618	0.00556
6717.57751	0.00557
6715.64883	0.00559
6713.72016	0.00561
6711.79148	0.00561
6709.86280	0.00563
6707.93413	0.00565
6706.00545	0.00566
6704.07678	0.00568
6702.14810	0.00569
6700.21943	0.00570
6698.29075	0.00569
6696.36207	0.00569
6694.43340	0.00569
6692.50472	0.00571
6690.57605	0.00574
6688.64737	0.00577
6686.71870	0.00579
6684.79002	0.00580
6682.86134	0.00580
6680.93267	0.00581
6679.00399	0.00583
6677.07532	0.00585
6675.14664	0.00587
6673.21797	0.00589
6671.28929	0.00589
6669.36061	0.00589
6667.43194	0.00589
6665.50326	0.00590
6663.57459	0.00593
6661.64591	0.00595
6659.71724	0.00595
6657.78856	0.00596
6655.85988	0.00599
6653.93121	0.00602
6652.00253	0.00603
6650.07386	0.00603
6648.14518	0.00604
6646.21651	0.00604
6644.28783	0.00606
6642.35915	0.00608
6640.43048	0.00608
6638.50180	0.00608
6636.57313	0.00608
6634.64445	0.00609
6632.71578	0.00610
6630.78710	0.00611
6628.85842	0.00613
6626.92975	0.00615
6625.00107	0.00616
6623.07240	0.00617
6621.14372	0.00618
6619.21505	0.00620
6617.28637	0.00622
6615.35769	0.00624
6613.42902	0.00626
6611.50034	0.00627
6609.57167	0.00627
6607.64299	0.00628
6605.71432	0.00630
6603.78564	0.00632
6601.85696	0.00633
6599.92829	0.00633
6597.99961	0.00634
6596.07094	0.00635
6594.14226	0.00638
6592.21359	0.00640
6590.28491	0.00641
6588.35623	0.00641
6586.42756	0.00641
6584.49888	0.00642
6582.57021	0.00644
6580.64153	0.00645
6578.71286	0.00647
6576.78418	0.00648
6574.85550	0.00648
6572.92683	0.00649
6570.99815	0.00651
6569.06948	0.00655
6567.14080	0.00658
6565.21213	0.00658
6563.28345	0.00657
6561.35477	0.00658
6559.42610	0.00660
6557.49742	0.00663
6555.56875	0.00665
6553.64007	0.00667
6551.71140	0.00668
6549.78272	0.00669
6547.85404	0.00670
6545.92537	0.00671
6543.99669	0.00672
6542.06802	0.00673
6540.13934	0.00674
6538.21067	0.00676
6536.28199	0.00680
6534.35331	0.00682
6532.42464	0.00684
6530.49596	0.00685
6528.56729	0.00684
6526.63861	0.00683
6524.70994	0.00684
6522.78126	0.00687
6520.85258	0.00689
6518.92391	0.00691
6516.99523	0.00693
6515.06656	0.00696
6513.13788	0.00697
6511.20921	0.00697
6509.28053	0.00697
6507.35185	0.00698
6505.42318	0.00699
6503.49450	0.00701
6501.56583	0.00702
6499.63715	0.00703
6497.70848	0.00705
6495.77980	0.00708
6493.85112	0.00711
6491.92245	0.00714
6489.99377	0.00717
6488.06510	0.00717
6486.13642	0.00717
6484.20775	0.00717
6482.27907	0.00718
6480.35039	0.00718
6478.42172	0.00720
6476.49304	0.00722
6474.56437	0.00724
6472.63569	0.00726
6470.70702	0.00728
6468.77834	0.00730
6466.84966	0.00731
6464.92099	0.00732
6462.99231	0.00733
6461.06364	0.00735
6459.13496	0.00737
6457.20629	0.00737
6455.27761	0.00737
6453.34893	0.00738
6451.42026	0.00740
6449.49158	0.00743
6447.56291	0.00745
6445.63423	0.00747
6443.70556	0.00748
6441.77688	0.00749
6439.84820	0.00752
6437.91953	0.00755
6435.99085	0.00758
6434.06218	0.00759
6432.13350	0.00761
6430.20483	0.00761
6428.27615	0.00761
6426.34747	0.00762
6424.41880	0.00764
6422.49012	0.00767
6420.56145	0.00769
6418.63277	0.00769
6416.70410	0.00770
6414.77542	0.00772
6412.84674	0.00774
6410.91807	0.00775
6408.98939	0.00777
6407.06072	0.00777
6405.13204	0.00779
6403.20337	0.00781
6401.27469	0.00783
6399.34601	0.00785
6397.41734	0.00788
6395.48866	0.00791
6393.55999	0.00793
6391.63131	0.00794
6389.70264	0.00793
6387.77396	0.00795
6385.84528	0.00797
6383.91661	0.00798
6381.98793	0.00801
6380.05926	0.00803
6378.13058	0.00805
6376.20191	0.00805
6374.27323	0.00806
6372.34455	0.00807
6370.41588	0.00810
6368.48720	0.00812
6366.55853	0.00814
6364.62985	0.00815
6362.70118	0.00817
6360.77250	0.00820
6358.84382	0.00822
6356.91515	0.00822
6354.98647	0.00821
6353.05780	0.00823
6351.12912	0.00826
6349.20045	0.00828
6347.27177	0.00830
6345.34309	0.00831
6343.41442	0.00832
6341.48574	0.00833
6339.55707	0.00836
6337.62839	0.00840
6335.69972	0.00843
6333.77104	0.00844
6331.84236	0.00845
6329.91369	0.00847
6327.98501	0.00849
6326.05634	0.00850
6324.12766	0.00852
6322.19899	0.00853
6320.27031	0.00855
6318.34163	0.00856
6316.41296	0.00858
6314.48428	0.00859
6312.55561	0.00859
6310.62693	0.00860
6308.69826	0.00863
6306.76958	0.00865
6304.84090	0.00867
6302.91223	0.00870
6300.98355	0.00874
6299.05488	0.00876
6297.12620	0.00877
6295.19753	0.00878
6293.26885	0.00880
6291.34017	0.00881
6289.41150	0.00882
6287.48282	0.00881
6285.55415	0.00882
6283.62547	0.00886
6281.69680	0.00889
6279.76812	0.00891
6277.83944	0.00892
6275.91077	0.00893
6273.98209	0.00896
6272.05342	0.00898
6270.12474	0.00900
6268.19607	0.00902
6266.26739	0.00903
6264.33871	0.00906
6262.41004	0.00908
6260.48136	0.00910
6258.55269	0.00911
6256.62401	0.00913
6254.69534	0.00916
6252.76666	0.00920
6250.83798	0.00924
6248.90931	0.00926
6246.98063	0.00928
6245.05196	0.00928
6243.12328	0.00929
6241.19461	0.00930
6239.26593	0.00932
6237.33725	0.00934
6235.40858	0.00937
6233.47990	0.00940
6231.55123	0.00941
6229.62255	0.00941
6227.69388	0.00942
6225.76520	0.00945
6223.83652	0.00947
6221.90785	0.00948
6219.97917	0.00949
6218.05050	0.00952
6216.12182	0.00956
6214.19315	0.00959
6212.26447	0.00960
6210.33579	0.00962
6208.40712	0.00963
6206.47844	0.00963
6204.54977	0.00964
6202.62109	0.00966
6200.69242	0.00968
6198.76374	0.00970
6196.83506	0.00974
6194.90639	0.00975
6192.97771	0.00977
6191.04904	0.00981
6189.12036	0.00983
6187.19169	0.00985
6185.26301	0.00987
6183.33433	0.00988
6181.40566	0.00990
6179.47698	0.00992
6177.54831	0.00995
6175.61963	0.00998
6173.69096	0.01000
6171.76228	0.01002
6169.83360	0.01003
6167.90493	0.01004
6165.97625	0.01006
6164.04758	0.01008
6162.11890	0.01009
6160.19023	0.01010
6158.26155	0.01014
6156.33287	0.01018
6154.40420	0.01019
6152.47552	0.01019
6150.54685	0.01023
6148.61817	0.01027
6146.68950	0.01030
6144.76082	0.01032
6142.83214	0.01035
6140.90347	0.01037
6138.97479	0.01037
6137.04612	0.01039
6135.11744	0.01041
6133.18877	0.01043
6131.26009	0.01045
6129.33141	0.01047
6127.40274	0.01049
6125.47406	0.01051
6123.54539	0.01053
6121.61671	0.01054
6119.68804	0.01056
6117.75936	0.01058
6115.83068	0.01060
6113.90201	0.01064
6111.97333	0.01067
6110.04466	0.01069
6108.11598	0.01070
6106.18731	0.01071
6104.25863	0.01072
6102.32995	0.01075
6100.40128	0.01078
6098.47260	0.01081
6096.54393	0.01083
6094.61525	0.01086
6092.68658	0.01088
6090.75790	0.01091
6088.82922	0.01095
6086.90055	0.01099
6084.97187	0.01102
6083.04320	0.01104
6081.11452	0.01106
6079.18585	0.01107
6077.25717	0.01107
6075.32849	0.01110
6073.39982	0.01113
6071.47114	0.01115
6069.54247	0.01117
6067.61379	0.01118
6065.68512	0.01119
6063.75644	0.01122
6061.82776	0.01125
6059.89909	0.01126
6057.97041	0.01129
6056.04174	0.01132
6054.11306	0.01134
6052.18439	0.01138
6050.25571	0.01141
6048.32703	0.01144
6046.39836	0.01146
6044.46968	0.01148
6042.54101	0.01149
6040.61233	0.01150
6038.68366	0.01151
6036.75498	0.01152
6034.82630	0.01155
6032.89763	0.01159
6030.96895	0.01162
6029.04028	0.01165
6027.11160	0.01167
6025.18293	0.01168
6023.25425	0.01170
6021.32557	0.01173
6019.39690	0.01176
6017.46822	0.01178
6015.53955	0.01182
6013.61087	0.01185
6011.68220	0.01189
6009.75352	0.01192
6007.82484	0.01194
6005.89617	0.01195
6003.96749	0.01197
6002.03882	0.01199
6000.11014	0.01201
5998.18147	0.01204
5996.25279	0.01207
5994.32411	0.01211
5992.39544	0.01213
5990.46676	0.01215
5988.53809	0.01218
5986.60941	0.01221
5984.68074	0.01225
5982.75206	0.01228
5980.82338	0.01231
5978.89471	0.01233
5976.96603	0.01235
5975.03736	0.01236
5973.10868	0.01238
5971.18001	0.01241
5969.25133	0.01243
5967.32265	0.01244
5965.39398	0.01246
5963.46530	0.01249
5961.53663	0.01254
5959.60795	0.01256
5957.67928	0.01258
5955.75060	0.01260
5953.82192	0.01263
5951.89325	0.01268
5949.96457	0.01270
5948.03590	0.01270
5946.10722	0.01271
5944.17855	0.01274
5942.24987	0.01277
5940.32119	0.01279
5938.39252	0.01283
5936.46384	0.01285
5934.53517	0.01288
5932.60649	0.01291
5930.67782	0.01295
5928.74914	0.01297
5926.82046	0.01300
5924.89179	0.01302
5922.96311	0.01304
5921.03444	0.01306
5919.10576	0.01308
5917.17709	0.01312
5915.24841	0.01317
5913.31973	0.01320
5911.39106	0.01320
5909.46238	0.01322
5907.53371	0.01325
5905.60503	0.01328
5903.67636	0.01330
5901.74768	0.01332
5899.81900	0.01334
5897.89033	0.01335
5895.96165	0.01338
5894.03298	0.01344
5892.10430	0.01348
5890.17563	0.01351
5888.24695	0.01353
5886.31827	0.01356
5884.38960	0.01360
5882.46092	0.01363
5880.53225	0.01364
5878.60357	0.01364
5876.67490	0.01367
5874.74622	0.01371
5872.81755	0.01374
5870.88887	0.01377
5868.96019	0.01380
5867.03152	0.01385
5865.10284	0.01388
5863.17417	0.01389
5861.24549	0.01392
5859.31682	0.01395
5857.38814	0.01399
5855.45946	0.01400
5853.53079	0.01401
5851.60211	0.01404
5849.67344	0.01408
5847.74476	0.01410
5845.81609	0.01411
5843.88741	0.01414
5841.95873	0.01419
5840.03006	0.01423
5838.10138	0.01426
5836.17271	0.01428
5834.24403	0.01429
5832.31536	0.01432
5830.38668	0.01436
5828.45800	0.01439
5826.52933	0.01442
5824.60065	0.01445
5822.67198	0.01448
5820.74330	0.01451
5818.81463	0.01453
5816.88595	0.01457
5814.95727	0.01460
5813.02860	0.01462
5811.09992	0.01464
5809.17125	0.01467
5807.24257	0.01472
5805.31390	0.01476
5803.38522	0.01479
5801.45654	0.01480
5799.52787	0.01482
5797.59919	0.01486
5795.67052	0.01489
5793.74184	0.01491
5791.81317	0.01494
5789.88449	0.01497
5787.95581	0.01501
5786.02714	0.01504
5784.09846	0.01507
5782.16979	0.01511
5780.24111	0.01515
5778.31244	0.01518
5776.38376	0.01520
5774.45508	0.01522
5772.52641	0.01523
5770.59773	0.01525
5768.66906	0.01528
5766.74038	0.01532
5764.81171	0.01537
5762.88303	0.01541
5760.95435	0.01544
5759.02568	0.01548
5757.09700	0.01552
5755.16833	0.01555
5753.23965	0.01557
5751.31098	0.01559
5749.38230	0.01563
5747.45362	0.01567
5745.52495	0.01571
5743.59627	0.01574
5741.66760	0.01577
5739.73892	0.01580
5737.81025	0.01583
5735.88157	0.01586
5733.95289	0.01589
5732.02422	0.01591
5730.09554	0.01594
5728.16687	0.01597
5726.23819	0.01602
5724.30952	0.01606
5722.38084	0.01610
5720.45216	0.01611
5718.52349	0.01612
5716.59481	0.01615
5714.66614	0.01620
5712.73746	0.01623
5710.80879	0.01625
5708.88011	0.01625
5706.95143	0.01627
5705.02276	0.01631
5703.09408	0.01636
5701.16541	0.01641
5699.23673	0.01645
5697.30806	0.01649
5695.37938	0.01651
5693.45070	0.01653
5691.52203	0.01656
5689.59335	0.01662
5687.66468	0.01666
5685.73600	0.01670
5683.80733	0.01674
5681.87865	0.01678
5679.94997	0.01681
5678.02130	0.01684
5676.09262	0.01685
5674.16395	0.01687
5672.23527	0.01689
5670.30660	0.01693
5668.37792	0.01697
5666.44924	0.01700
5664.52057	0.01703
5662.59189	0.01706
5660.66322	0.01710
5658.73454	0.01714
5656.80587	0.01717
5654.87719	0.01719
5652.94851	0.01722
5651.01984	0.01725
5649.09116	0.01728
5647.16249	0.01731
5645.23381	0.01735
5643.30514	0.01739
5641.37646	0.01744
5639.44778	0.01748
5637.51911	0.01752
5635.59043	0.01755
5633.66176	0.01758
5631.73308	0.01762
5629.80441	0.01766
5627.87573	0.01769
5625.94705	0.01773
5624.01838	0.01777
5622.08970	0.01780
5620.16103	0.01783
5618.23235	0.01786
5616.30368	0.01787
5614.37500	0.01790
5612.44632	0.01793
5610.51765	0.01796
5608.58897	0.01799
5606.66030	0.01804
5604.73162	0.01809
5602.80295	0.01814
5600.87427	0.01820
5598.94559	0.01824
5597.01692	0.01826
5595.08824	0.01829
5593.15957	0.01832
5591.23089	0.01835
5589.30222	0.01838
5587.37354	0.01841
5585.44486	0.01846
5583.51619	0.01852
5581.58751	0.01856
5579.65884	0.01859
5577.73016	0.01860
5575.80149	0.01863
5573.87281	0.01867
5571.94413	0.01871
5570.01546	0.01875
5568.08678	0.01877
5566.15811	0.01879
5564.22943	0.01881
5562.30076	0.01884
5560.37208	0.01888
5558.44340	0.01892
5556.51473	0.01895
5554.58605	0.01899
5552.65738	0.01905
5550.72870	0.01912
5548.80003	0.01915
5546.87135	0.01918
5544.94267	0.01920
5543.01400	0.01923
5541.08532	0.01927
5539.15665	0.01932
5537.22797	0.01936
5535.29930	0.01939
5533.37062	0.01943
5531.44194	0.01946
5529.51327	0.01949
5527.58459	0.01953
5525.65592	0.01957
5523.72724	0.01961
5521.79857	0.01964
5519.86989	0.01968
5517.94121	0.01973
5516.01254	0.01979
5514.08386	0.01981
5512.15519	0.01983
5510.22651	0.01985
5508.29784	0.01988
5506.36916	0.01992
5504.44048	0.01998
5502.51181	0.02004
5500.58313	0.02007
5498.65446	0.02009
5496.72578	0.02012
5494.79711	0.02015
5492.86843	0.02017
5490.93975	0.02020
5489.01108	0.02024
5487.08240	0.02030
5485.15373	0.02034
5483.22505	0.02036
5481.29638	0.02039
5479.36770	0.02043
5477.43902	0.02047
5475.51035	0.02050
5473.58167	0.02054
5471.65300	0.02060
5469.72432	0.02064
5467.79565	0.02068
5465.86697	0.02072
5463.93829	0.02077
5462.00962	0.02082
5460.08094	0.02085
5458.15227	0.02087
5456.22359	0.02089
5454.29492	0.02094
5452.36624	0.02100
5450.43756	0.02104
5448.50889	0.02107
5446.58021	0.02110
5444.65154	0.02112
5442.72286	0.02115
5440.79419	0.02122
5438.86551	0.02129
5436.93683	0.02133
5435.00816	0.02136
5433.07948	0.02138
5431.15081	0.02140
5429.22213	0.02142
5427.29346	0.02147
5425.36478	0.02153
5423.43610	0.02159
5421.50743	0.02166
5419.57875	0.02170
5417.65008	0.02172
5415.72140	0.02174
5413.79273	0.02176
5411.86405	0.02180
5409.93537	0.02185
5408.00670	0.02190
5406.07802	0.02194
5404.14935	0.02196
5402.22067	0.02199
5400.29200	0.02204
5398.36332	0.02208
5396.43464	0.02210
5394.50597	0.02213
5392.57729	0.02220
5390.64862	0.02228
5388.71994	0.02234
5386.79127	0.02238
5384.86259	0.02240
5382.93391	0.02244
5381.00524	0.02249
5379.07656	0.02252
5377.14789	0.02255
5375.21921	0.02259
5373.29054	0.02264
5371.36186	0.02269
5369.43318	0.02273
5367.50451	0.02276
5365.57583	0.02278
5363.64716	0.02280
5361.71848	0.02284
5359.78981	0.02288
5357.86113	0.02293
5355.93245	0.02297
5354.00378	0.02303
5352.07510	0.02310
5350.14643	0.02314
5348.21775	0.02315
5346.28908	0.02316
5344.36040	0.02319
5342.43172	0.02326
5340.50305	0.02331
5338.57437	0.02333
5336.64570	0.02337
5334.71702	0.02344
5332.78835	0.02350
5330.85967	0.02354
5328.93099	0.02357
5327.00232	0.02362
5325.07364	0.02367
5323.14497	0.02374
5321.21629	0.02379
5319.28762	0.02382
5317.35894	0.02385
5315.43026	0.02389
5313.50159	0.02393
5311.57291	0.02398
5309.64424	0.02402
5307.71556	0.02403
5305.78689	0.02406
5303.85821	0.02412
5301.92953	0.02418
5300.00086	0.02423
5298.07218	0.02427
5296.14351	0.02431
5294.21483	0.02435
5292.28616	0.02439
5290.35748	0.02445
5288.42880	0.02450
5286.50013	0.02453
5284.57145	0.02456
5282.64278	0.02458
5280.71410	0.02460
5278.78543	0.02465
5276.85675	0.02471
5274.92807	0.02477
5272.99940	0.02483
5271.07072	0.02488
5269.14205	0.02493
5267.21337	0.02496
5265.28470	0.02498
5263.35602	0.02500
5261.42734	0.02503
5259.49867	0.02507
5257.56999	0.02512
5255.64132	0.02516
5253.71264	0.02520
5251.78397	0.02526
5249.85529	0.02532
5247.92661	0.02536
5245.99794	0.02541
5244.06926	0.02546
5242.14059	0.02550
5240.21191	0.02554
5238.28324	0.02558
5236.35456	0.02562
5234.42588	0.02567
5232.49721	0.02571
5230.56853	0.02576
5228.63986	0.02581
5226.71118	0.02583
5224.78251	0.02586
5222.85383	0.02591
5220.92515	0.02597
5218.99648	0.02604
5217.06780	0.02609
5215.13913	0.02613
5213.21045	0.02618
5211.28178	0.02624
5209.35310	0.02629
5207.42442	0.02632
5205.49575	0.02635
5203.56707	0.02638
5201.63840	0.02641
5199.70972	0.02646
5197.78105	0.02654
5195.85237	0.02661
5193.92369	0.02664
5191.99502	0.02667
5190.06634	0.02670
5188.13767	0.02674
5186.20899	0.02680
5184.28032	0.02686
5182.35164	0.02692
5180.42296	0.02697
5178.49429	0.02701
5176.56561	0.02705
5174.63694	0.02710
5172.70826	0.02712
5170.77959	0.02714
5168.85091	0.02717
5166.92223	0.02722
5164.99356	0.02726
5163.06488	0.02732
5161.13621	0.02738
5159.20753	0.02743
5157.27886	0.02745
5155.35018	0.02749
5153.42150	0.02756
5151.49283	0.02764
5149.56415	0.02770
5147.63548	0.02773
5145.70680	0.02776
5143.77813	0.02782
5141.84945	0.02787
5139.92077	0.02792
5137.99210	0.02797
5136.06342	0.02801
5134.13475	0.02804
5132.20607	0.02808
5130.27740	0.02813
5128.34872	0.02818
5126.42004	0.02821
5124.49137	0.02827
5122.56269	0.02832
5120.63402	0.02836
5118.70534	0.02839
5116.77667	0.02843
5114.84799	0.02846
5112.91931	0.02850
5110.99064	0.02856
5109.06196	0.02862
5107.13329	0.02867
5105.20461	0.02873
5103.27594	0.02878
5101.34726	0.02883
5099.41858	0.02889
5097.48991	0.02893
5095.56123	0.02896
5093.63256	0.02899
5091.70388	0.02904
5089.77521	0.02909
5087.84653	0.02913
5085.91785	0.02917
5083.98918	0.02922
5082.06050	0.02928
5080.13183	0.02934
5078.20315	0.02939
5076.27448	0.02944
5074.34580	0.02951
5072.41712	0.02957
5070.48845	0.02962
5068.55977	0.02965
5066.63110	0.02968
5064.70242	0.02971
5062.77375	0.02974
5060.84507	0.02978
5058.91639	0.02985
5056.98772	0.02992
5055.05904	0.02998
5053.13037	0.03002
5051.20169	0.03006
5049.27302	0.03012
5047.34434	0.03016
5045.41566	0.03021
5043.48699	0.03026
5041.55831	0.03033
5039.62964	0.03039
5037.70096	0.03043
5035.77229	0.03047
5033.84361	0.03051
5031.91493	0.03055
5029.98626	0.03060
5028.05758	0.03064
5026.12891	0.03066
5024.20023	0.03070
5022.27156	0.03075
5020.34288	0.03081
5018.41420	0.03089
5016.48553	0.03096
5014.55685	0.03100
5012.62818	0.03104
5010.69950	0.03110
5008.77083	0.03117
5006.84215	0.03122
5004.91347	0.03125
5002.98480	0.03129
5001.05612	0.03134
4999.12745	0.03142
4997.19877	0.03149
4995.27010	0.03155
4993.34142	0.03158
4991.41274	0.03161
4989.48407	0.03167
4987.55539	0.03172
4985.62672	0.03176
4983.69804	0.03180
4981.76937	0.03184
4979.84069	0.03189
4977.91201	0.03195
4975.98334	0.03202
4974.05466	0.03207
4972.12599	0.03212
4970.19731	0.03216
4968.26864	0.03222
4966.33996	0.03227
4964.41128	0.03230
4962.48261	0.03233
4960.55393	0.03239
4958.62526	0.03246
4956.69658	0.03252
4954.76791	0.03257
4952.83923	0.03261
4950.91055	0.03266
4948.98188	0.03271
4947.05320	0.03278
4945.12453	0.03284
4943.19585	0.03290
4941.26718	0.03293
4939.33850	0.03297
4937.40982	0.03303
4935.48115	0.03310
4933.55247	0.03316
4931.62380	0.03320
4929.69512	0.03325
4927.76645	0.03330
4925.83777	0.03334
4923.90909	0.03339
4921.98042	0.03345
4920.05174	0.03349
4918.12307	0.03355
4916.19439	0.03363
4914.26572	0.03370
4912.33704	0.03376
4910.40836	0.03380
4908.47969	0.03383
4906.55101	0.03387
4904.62234	0.03393
4902.69366	0.03401
4900.76499	0.03407
4898.83631	0.03412
4896.90763	0.03417
4894.97896	0.03422
4893.05028	0.03427
4891.12161	0.03432
4889.19293	0.03437
4887.26426	0.03443
4885.33558	0.03448
4883.40690	0.03451
4881.47823	0.03453
4879.54955	0.03457
4877.62088	0.03465
4875.69220	0.03474
4873.76353	0.03481
4871.83485	0.03486
4869.90617	0.03492
4867.97750	0.03497
4866.04882	0.03500
4864.12015	0.03505
4862.19147	0.03512
4860.26280	0.03519
4858.33412	0.03524
4856.40544	0.03529
4854.47677	0.03533
4852.54809	0.03536
4850.61942	0.03541
4848.69074	0.03549
4846.76207	0.03556
4844.83339	0.03562
4842.90471	0.03568
4840.97604	0.03574
4839.04736	0.03578
4837.11869	0.03583
4835.19001	0.03587
4833.26134	0.03592
4831.33266	0.03599
4829.40398	0.03607
4827.47531	0.03614
4825.54663	0.03619
4823.61796	0.03624
4821.68928	0.03630
4819.76061	0.03635
4817.83193	0.03640
4815.90325	0.03647
4813.97458	0.03655
4812.04590	0.03662
4810.11723	0.03666
4808.18855	0.03670
4806.25988	0.03676
4804.33120	0.03681
4802.40252	0.03687
4800.47385	0.03693
4798.54517	0.03699
4796.61650	0.03704
4794.68782	0.03710
4792.75915	0.03717
4790.83047	0.03723
4788.90179	0.03729
4786.97312	0.03735
4785.04444	0.03741
4783.11577	0.03747
4781.18709	0.03752
4779.25842	0.03756
4777.32974	0.03761
4775.40106	0.03768
4773.47239	0.03774
4771.54371	0.03779
4769.61504	0.03784
4767.68636	0.03792
4765.75769	0.03800
4763.82901	0.03807
4761.90033	0.03812
4759.97166	0.03816
4758.04298	0.03821
4756.11431	0.03828
4754.18563	0.03835
4752.25696	0.03842
4750.32828	0.03849
4748.39960	0.03856
4746.47093	0.03860
4744.54225	0.03864
4742.61358	0.03870
4740.68490	0.03878
4738.75623	0.03884
4736.82755	0.03888
4734.89887	0.03891
4732.97020	0.03895
4731.04152	0.03902
4729.11285	0.03909
4727.18417	0.03916
4725.25550	0.03924
4723.32682	0.03931
4721.39814	0.03938
4719.46947	0.03946
4717.54079	0.03954
4715.61212	0.03961
4713.68344	0.03966
4711.75477	0.03968
4709.82609	0.03973
4707.89741	0.03979
4705.96874	0.03986
4704.04006	0.03994
4702.11139	0.04003
4700.18271	0.04011
4698.25404	0.04017
4696.32536	0.04022
4694.39668	0.04026
4692.46801	0.04031
4690.53933	0.04038
4688.61066	0.04046
4686.68198	0.04051
4684.75331	0.04057
4682.82463	0.04062
4680.89595	0.04069
4678.96728	0.04076
4677.03860	0.04085
4675.10993	0.04093
4673.18125	0.04099
4671.25258	0.04104
4669.32390	0.04109
4667.39522	0.04116
4665.46655	0.04122
4663.53787	0.04130
4661.60920	0.04138
4659.68052	0.04142
4657.75185	0.04146
4655.82317	0.04151
4653.89449	0.04159
4651.96582	0.04168
4650.03714	0.04176
4648.10847	0.04183
4646.17979	0.04189
4644.25112	0.04196
4642.32244	0.04202
4640.39376	0.04207
4638.46509	0.04214
4636.53641	0.04222
4634.60774	0.04229
4632.67906	0.04236
4630.75039	0.04244
4628.82171	0.04251
4626.89303	0.04256
4624.96436	0.04260
4623.03568	0.04266
4621.10701	0.04272
4619.17833	0.04278
4617.24966	0.04284
4615.32098	0.04292
4613.39230	0.04300
4611.46363	0.04310
4609.53495	0.04319
4607.60628	0.04326
4605.67760	0.04332
4603.74893	0.04339
4601.82025	0.04346
4599.89157	0.04354
4597.96290	0.04360
4596.03422	0.04365
4594.10555	0.04372
4592.17687	0.04381
4590.24820	0.04390
4588.31952	0.04399
4586.39084	0.04406
4584.46217	0.04413
4582.53349	0.04420
4580.60482	0.04425
4578.67614	0.04430
4576.74747	0.04438
4574.81879	0.04446
4572.89011	0.04454
4570.96144	0.04460
4569.03276	0.04467
4567.10409	0.04474
4565.17541	0.04482
4563.24674	0.04490
4561.31806	0.04496
4559.38938	0.04502
4557.46071	0.04509
4555.53203	0.04518
4553.60336	0.04526
4551.67468	0.04534
4549.74601	0.04540
4547.81733	0.04546
4545.88865	0.04553
4543.95998	0.04560
4542.03130	0.04568
4540.10263	0.04576
4538.17395	0.04585
4536.24528	0.04593
4534.31660	0.04601
4532.38792	0.04607
4530.45925	0.04614
4528.53057	0.04622
4526.60190	0.04631
4524.67322	0.04640
4522.74455	0.04649
4520.81587	0.04658
4518.88719	0.04666
4516.95852	0.04673
4515.02984	0.04682
4513.10117	0.04690
4511.17249	0.04697
4509.24382	0.04704
4507.31514	0.04712
4505.38646	0.04722
4503.45779	0.04729
4501.52911	0.04733
4499.60044	0.04738
4497.67176	0.04746
4495.74309	0.04755
4493.81441	0.04763
4491.88573	0.04770
4489.95706	0.04778
4488.02838	0.04787
4486.09971	0.04795
4484.17103	0.04801
4482.24236	0.04809
4480.31368	0.04817
4478.38500	0.04827
4476.45633	0.04836
4474.52765	0.04844
4472.59898	0.04851
4470.67030	0.04861
4468.74163	0.04870
4466.81295	0.04878
4464.88427	0.04885
4462.95560	0.04893
4461.02692	0.04901
4459.09825	0.04911
4457.16957	0.04921
4455.24090	0.04929
4453.31222	0.04937
4451.38354	0.04945
4449.45487	0.04954
4447.52619	0.04962
4445.59752	0.04970
4443.66884	0.04979
4441.74017	0.04988
4439.81149	0.04996
4437.88281	0.05005
4435.95414	0.05014
4434.02546	0.05024
4432.09679	0.05031
4430.16811	0.05037
4428.23944	0.05045
4426.31076	0.05053
4424.38208	0.05062
4422.45341	0.05071
4420.52473	0.05080
4418.59606	0.05090
4416.66738	0.05099
4414.73871	0.05107
4412.81003	0.05115
4410.88135	0.05124
4408.95268	0.05133
4407.02400	0.05142
4405.09533	0.05151
4403.16665	0.05160
4401.23798	0.05169
4399.30930	0.05178
4397.38062	0.05186
4395.45195	0.05194
4393.52327	0.05201
4391.59460	0.05210
4389.66592	0.05219
4387.73725	0.05229
4385.80857	0.05239
4383.87989	0.05248
4381.95122	0.05256
4380.02254	0.05265
4378.09387	0.05275
4376.16519	0.05287
4374.23652	0.05298
4372.30784	0.05307
4370.37916	0.05313
4368.45049	0.05322
4366.52181	0.05333
4364.59314	0.05342
4362.66446	0.05351
4360.73579	0.05360
4358.80711	0.05369
4356.87843	0.05379
4354.94976	0.05390
4353.02108	0.05400
4351.09241	0.05408
4349.16373	0.05417
4347.23506	0.05425
4345.30638	0.05433
4343.37770	0.05442
4341.44903	0.05453
4339.52035	0.05464
4337.59168	0.05475
4335.66300	0.05484
4333.73433	0.05494
4331.80565	0.05506
4329.87697	0.05518
4327.94830	0.05527
4326.01962	0.05534
4324.09095	0.05541
4322.16227	0.05549
4320.23360	0.05558
4318.30492	0.05569
4316.37624	0.05582
4314.44757	0.05594
4312.51889	0.05603
4310.59022	0.05611
4308.66154	0.05619
4306.73287	0.05629
4304.80419	0.05639
4302.87551	0.05650
4300.94684	0.05662
4299.01816	0.05674
4297.08949	0.05684
4295.16081	0.05694
4293.23214	0.05704
4291.30346	0.05715
4289.37478	0.05725
4287.44611	0.05735
4285.51743	0.05743
4283.58876	0.05752
4281.66008	0.05765
4279.73141	0.05780
4277.80273	0.05793
4275.87405	0.05804
4273.94538	0.05815
4272.01670	0.05824
4270.08803	0.05833
4268.15935	0.05842
4266.23068	0.05852
4264.30200	0.05862
4262.37332	0.05872
4260.44465	0.05881
4258.51597	0.05892
4256.58730	0.05904
4254.65862	0.05917
4252.72995	0.05927
4250.80127	0.05937
4248.87259	0.05947
4246.94392	0.05957
4245.01524	0.05965
4243.08657	0.05975
4241.15789	0.05988
4239.22922	0.06002
4237.30054	0.06013
4235.37186	0.06019
4233.44319	0.06028
4231.51451	0.06040
4229.58584	0.06053
4227.65716	0.06065
4225.72849	0.06078
4223.79981	0.06089
4221.87113	0.06099
4219.94246	0.06109
4218.01378	0.06120
4216.08511	0.06132
4214.15643	0.06144
4212.22776	0.06156
4210.29908	0.06167
4208.37040	0.06178
4206.44173	0.06189
4204.51305	0.06201
4202.58438	0.06213
4200.65570	0.06225
4198.72703	0.06237
4196.79835	0.06248
4194.86968	0.06260
4192.94100	0.06274
4191.01232	0.06286
4189.08365	0.06296
4187.15497	0.06306
4185.22630	0.06318
4183.29762	0.06329
4181.36895	0.06339
4179.44027	0.06350
4177.51159	0.06362
4175.58292	0.06373
4173.65424	0.06384
4171.72557	0.06397
4169.79689	0.06410
4167.86822	0.06421
4165.93954	0.06433
4164.01086	0.06445
4162.08219	0.06459
4160.15351	0.06471
4158.22484	0.06482
4156.29616	0.06494
4154.36749	0.06508
4152.43881	0.06521
4150.51013	0.06533
4148.58146	0.06546
4146.65278	0.06559
4144.72411	0.06571
4142.79543	0.06583
4140.86676	0.06593
4138.93808	0.06605
4137.00940	0.06619
4135.08073	0.06633
4133.15205	0.06646
4131.22338	0.06657
4129.29470	0.06667
4127.36603	0.06680
4125.43735	0.06694
4123.50867	0.06707
4121.58000	0.06719
4119.65132	0.06730
4117.72265	0.06741
4115.79397	0.06752
4113.86530	0.06763
4111.93662	0.06775
4110.00794	0.06789
4108.07927	0.06803
4106.15059	0.06816
4104.22192	0.06828
4102.29324	0.06842
4100.36457	0.06855
4098.43589	0.06868
4096.50721	0.06882
4094.57854	0.06895
4092.64986	0.06908
4090.72119	0.06921
4088.79251	0.06935
4086.86384	0.06947
4084.93516	0.06958
4083.00648	0.06970
4081.07781	0.06983
4079.14913	0.06998
4077.22046	0.07012
4075.29178	0.07024
4073.36311	0.07037
4071.43443	0.07049
4069.50575	0.07061
4067.57708	0.07074
4065.64840	0.07087
4063.71973	0.07100
4061.79105	0.07113
4059.86238	0.07127
4057.93370	0.07142
4056.00502	0.07158
4054.07635	0.07175
4052.14767	0.07189
4050.21900	0.07199
4048.29032	0.07209
4046.36165	0.07221
4044.43297	0.07235
4042.50429	0.07250
4040.57562	0.07264
4038.64694	0.07278
4036.71827	0.07290
4034.78959	0.07304
4032.86092	0.07319
4030.93224	0.07332
4029.00356	0.07343
4027.07489	0.07357
4025.14621	0.07371
4023.21754	0.07386
4021.28886	0.07402
4019.36019	0.07418
4017.43151	0.07432
4015.50283	0.07443
4013.57416	0.07455
4011.64548	0.07468
4009.71681	0.07480
4007.78813	0.07493
4005.85946	0.07507
4003.93078	0.07525
4002.00210	0.07542
4000.07343	0.07558
3998.14475	0.07572
3996.21608	0.07586
3994.28740	0.07599
3992.35873	0.07612
3990.43005	0.07624
3988.50137	0.07637
3986.57270	0.07652
3984.64402	0.07668
3982.71535	0.07684
3980.78667	0.07698
3978.85800	0.07711
3976.92932	0.07725
3975.00064	0.07738
3973.07197	0.07752
3971.14329	0.07768
3969.21462	0.07785
3967.28594	0.07802
3965.35727	0.07816
3963.42859	0.07829
3961.49991	0.07842
3959.57124	0.07855
3957.64256	0.07871
3955.71389	0.07889
3953.78521	0.07903
3951.85654	0.07912
3949.92786	0.07924
3947.99918	0.07942
3946.07051	0.07962
3944.14183	0.07975
3942.21316	0.07986
3940.28448	0.08002
3938.35581	0.08019
3936.42713	0.08033
3934.49845	0.08043
3932.56978	0.08055
3930.64110	0.08071
3928.71243	0.08087
3926.78375	0.08102
3924.85508	0.08117
3922.92640	0.08132
3920.99772	0.08143
3919.06905	0.08153
3917.14037	0.08170
3915.21170	0.08193
3913.28302	0.08214
3911.35435	0.08231
3909.42567	0.08244
3907.49699	0.08248
3905.56832	0.08246
3903.63964	0.08250
3901.71097	0.08265
3899.78229	0.08289
3897.85362	0.08319
3895.92494	0.08344
3893.99626	0.08355
3892.06759	0.08364
3890.13891	0.08380
3888.21024	0.08393
3886.28156	0.08401
3884.35289	0.08418
3882.42421	0.08438
3880.49553	0.08455
3878.56686	0.08478
3876.63818	0.08500
3874.70951	0.08511
3872.78083	0.08517
3870.85216	0.08524
3868.92348	0.08540
3866.99480	0.08562
3865.06613	0.08578
3863.13745	0.08595
3861.20878	0.08619
3859.28010	0.08638
3857.35143	0.08634
3855.42275	0.08607
3853.49407	0.08604
3851.56540	0.08652
3849.63672	0.08710
3847.70805	0.08742
3845.77937	0.08755
3843.85070	0.08761
3841.92202	0.08767
3839.99334	0.08772
3838.06467	0.08783
3836.13599	0.08806
3834.20732	0.08833
3832.27864	0.08857
3830.34997	0.08882
3828.42129	0.08902
3826.49261	0.08919
3824.56394	0.08930
3822.63526	0.08932
3820.70659	0.08940
3818.77791	0.08958
3816.84924	0.08974
3814.92056	0.09001
3812.99188	0.09039
3811.06321	0.09063
3809.13453	0.09067
3807.20586	0.09070
3805.27718	0.09085
3803.34851	0.09095
3801.41983	0.09107
3799.49115	0.09134
3797.56248	0.09162
3795.63380	0.09186
3793.70513	0.09210
3791.77645	0.09233
3789.84778	0.09251
3787.91910	0.09268
3785.99042	0.09282
3784.06175	0.09295
3782.13307	0.09306
3780.20440	0.09315
3778.27572	0.09335
3776.34705	0.09363
3774.41837	0.09383
3772.48969	0.09390
3770.56102	0.09396
3768.63234	0.09410
3766.70367	0.09431
3764.77499	0.09450
3762.84632	0.09468
3760.91764	0.09479
3758.98896	0.09491
3757.06029	0.09509
3755.13161	0.09518
3753.20294	0.09509
3751.27426	0.09504
3749.34559	0.09522
3747.41691	0.09539
3745.48823	0.09541
3743.55956	0.09569
3741.63088	0.09625
3739.70221	0.09655
3737.77353	0.09651
3735.84486	0.09652
3733.91618	0.09676
3731.98750	0.09715
3730.05883	0.09752
3728.13015	0.09772
3726.20148	0.09782
3724.27280	0.09799
3722.34413	0.09822
3720.41545	0.09844
3718.48677	0.09868
3716.55810	0.09885
3714.62942	0.09891
3712.70075	0.09891
3710.77207	0.09906
3708.84340	0.09938
3706.91472	0.09973
3704.98604	0.09994
3703.05737	0.10004
3701.12869	0.10019
3699.20002	0.10043
3697.27134	0.10065
3695.34267	0.10080
3693.41399	0.10087
3691.48531	0.10082
3689.55664	0.10084
3687.62796	0.10112
3685.69929	0.10157
3683.77061	0.10191
3681.84194	0.10205
3679.91326	0.10205
3677.98458	0.10193
3676.05591	0.10188
3674.12723	0.10211
3672.19856	0.10238
3670.26988	0.10256
3668.34121	0.10289
3666.41253	0.10329
3664.48385	0.10358
3662.55518	0.10378
3660.62650	0.10390
3658.69783	0.10392
3656.76915	0.10394
3654.84048	0.10404
3652.91180	0.10403
3650.98312	0.10379
3649.05445	0.10367
3647.12577	0.10395
3645.19710	0.10448
3643.26842	0.10495
3641.33975	0.10526
3639.41107	0.10548
3637.48239	0.10564
3635.55372	0.10575
3633.62504	0.10579
3631.69637	0.10570
3629.76769	0.10559
3627.83902	0.10582
3625.91034	0.10629
3623.98166	0.10659
3622.05299	0.10663
3620.12431	0.10658
3618.19564	0.10667
3616.26696	0.10688
3614.33829	0.10703
3612.40961	0.10710
3610.48093	0.10715
3608.55226	0.10729
3606.62358	0.10757
3604.69491	0.10784
3602.76623	0.10799
3600.83756	0.10813
3598.90888	0.10828
3596.98020	0.10839
3595.05153	0.10848
3593.12285	0.10864
3591.19418	0.10875
3589.26550	0.10873
3587.33683	0.10880
3585.40815	0.10907
3583.47947	0.10936
3581.55080	0.10954
3579.62212	0.10969
3577.69345	0.10987
3575.76477	0.11005
3573.83610	0.11021
3571.90742	0.11031
3569.97874	0.11029
3568.05007	0.11027
3566.12139	0.11043
3564.19272	0.11073
3562.26404	0.11099
3560.33537	0.11116
3558.40669	0.11131
3556.47801	0.11144
3554.54934	0.11155
3552.62066	0.11167
3550.69199	0.11181
3548.76331	0.11189
3546.83464	0.11195
3544.90596	0.11210
3542.97728	0.11230
3541.04861	0.11246
3539.11993	0.11256
3537.19126	0.11267
3535.26258	0.11278
3533.33391	0.11287
3531.40523	0.11293
3529.47655	0.11300
3527.54788	0.11308
3525.61920	0.11317
3523.69053	0.11325
3521.76185	0.11334
3519.83318	0.11343
3517.90450	0.11352
3515.97582	0.11360
3514.04715	0.11367
3512.11847	0.11374
3510.18980	0.11381
3508.26112	0.11388
3506.33245	0.11394
3504.40377	0.11399
3502.47509	0.11404
3500.54642	0.11410
3498.61774	0.11416
3496.68907	0.11419
3494.76039	0.11422
3492.83172	0.11425
3490.90304	0.11429
3488.97436	0.11435
3487.04569	0.11442
3485.11701	0.11450
3483.18834	0.11457
3481.25966	0.11466
3479.33099	0.11479
3477.40231	0.11492
3475.47363	0.11503
3473.54496	0.11515
3471.61628	0.11531
3469.68761	0.11547
3467.75893	0.11562
3465.83026	0.11581
3463.90158	0.11605
3461.97290	0.11629
3460.04423	0.11650
3458.11555	0.11668
3456.18688	0.11684
3454.25820	0.11702
3452.32953	0.11719
3450.40085	0.11735
3448.47217	0.11750
3446.54350	0.11766
3444.61482	0.11785
3442.68615	0.11804
3440.75747	0.11826
3438.82880	0.11855
3436.90012	0.11891
3434.97144	0.11926
3433.04277	0.11958
3431.11409	0.11989
3429.18542	0.12024
3427.25674	0.12063
3425.32807	0.12103
3423.39939	0.12140
3421.47071	0.12176
3419.54204	0.12211
3417.61336	0.12246
3415.68469	0.12280
3413.75601	0.12309
3411.82734	0.12334
3409.89866	0.12357
3407.96998	0.12382
3406.04131	0.12407
3404.11263	0.12433
3402.18396	0.12460
3400.25528	0.12487
3398.32661	0.12511
3396.39793	0.12532
3394.46925	0.12554
3392.54058	0.12581
3390.61190	0.12610
3388.68323	0.12637
3386.75455	0.12662
3384.82588	0.12685
3382.89720	0.12707
3380.96852	0.12729
3379.03985	0.12753
3377.11117	0.12781
3375.18250	0.12808
3373.25382	0.12831
3371.32515	0.12851
3369.39647	0.12874
3367.46779	0.12900
3365.53912	0.12924
3363.61044	0.12946
3361.68177	0.12968
3359.75309	0.12991
3357.82442	0.13013
3355.89574	0.13035
3353.96706	0.13059
3352.03839	0.13086
3350.10971	0.13111
3348.18104	0.13135
3346.25236	0.13157
3344.32369	0.13179
3342.39501	0.13199
3340.46633	0.13220
3338.53766	0.13241
3336.60898	0.13263
3334.68031	0.13287
3332.75163	0.13312
3330.82296	0.13334
3328.89428	0.13357
3326.96560	0.13381
3325.03693	0.13406
3323.10825	0.13429
3321.17958	0.13453
3319.25090	0.13477
3317.32223	0.13502
3315.39355	0.13529
3313.46487	0.13553
3311.53620	0.13573
3309.60752	0.13593
3307.67885	0.13617
3305.75017	0.13642
3303.82150	0.13666
3301.89282	0.13692
3299.96414	0.13718
3298.03547	0.13741
3296.10679	0.13764
3294.17812	0.13786
3292.24944	0.13813
3290.32077	0.13841
3288.39209	0.13868
3286.46341	0.13891
3284.53474	0.13915
3282.60606	0.13943
3280.67739	0.13970
3278.74871	0.13994
3276.82004	0.14017
3274.89136	0.14043
3272.96268	0.14070
3271.03401	0.14096
3269.10533	0.14122
3267.17666	0.14150
3265.24798	0.14177
3263.31931	0.14201
3261.39063	0.14225
3259.46195	0.14252
3257.53328	0.14277
3255.60460	0.14300
3253.67593	0.14325
3251.74725	0.14351
3249.81858	0.14377
3247.88990	0.14404
3245.96122	0.14429
3244.03255	0.14452
3242.10387	0.14477
3240.17520	0.14503
3238.24652	0.14528
3236.31785	0.14552
3234.38917	0.14580
3232.46049	0.14611
3230.53182	0.14637
3228.60314	0.14658
3226.67447	0.14679
3224.74579	0.14703
3222.81712	0.14727
3220.88844	0.14752
3218.95976	0.14779
3217.03109	0.14808
3215.10241	0.14836
3213.17374	0.14862
3211.24506	0.14886
3209.31639	0.14909
3207.38771	0.14931
3205.45903	0.14955
3203.53036	0.14981
3201.60168	0.15009
3199.67301	0.15039
3197.74433	0.15070
3195.81566	0.15100
3193.88698	0.15126
3191.95830	0.15151
3190.02963	0.15178
3188.10095	0.15206
3186.17228	0.15233
3184.24360	0.15259
3182.31493	0.15286
3180.38625	0.15313
3178.45757	0.15338
3176.52890	0.15364
3174.60022	0.15393
3172.67155	0.15421
3170.74287	0.15446
3168.81420	0.15472
3166.88552	0.15497
3164.95684	0.15521
3163.02817	0.15547
3161.09949	0.15578
3159.17082	0.15609
3157.24214	0.15634
3155.31347	0.15658
3153.38479	0.15686
3151.45611	0.15713
3149.52744	0.15737
3147.59876	0.15762
3145.67009	0.15792
3143.74141	0.15820
3141.81274	0.15842
3139.88406	0.15864
3137.95538	0.15890
3136.02671	0.15919
3134.09803	0.15943
3132.16936	0.15967
3130.24068	0.15993
3128.31201	0.16019
3126.38333	0.16045
3124.45465	0.16070
3122.52598	0.16095
3120.59730	0.16121
3118.66863	0.16150
3116.73995	0.16178
3114.81128	0.16204
3112.88260	0.16231
3110.95392	0.16258
3109.02525	0.16286
3107.09657	0.16311
3105.16790	0.16336
3103.23922	0.16362
3101.31055	0.16389
3099.38187	0.16416
3097.45319	0.16442
3095.52452	0.16467
3093.59584	0.16495
3091.66717	0.16525
3089.73849	0.16552
3087.80982	0.16576
3085.88114	0.16599
3083.95246	0.16624
3082.02379	0.16647
3080.09511	0.16673
3078.16644	0.16701
3076.23776	0.16730
3074.30909	0.16758
3072.38041	0.16782
3070.45173	0.16804
3068.52306	0.16829
3066.59438	0.16856
3064.66571	0.16885
3062.73703	0.16912
3060.80836	0.16935
3058.87968	0.16959
3056.95100	0.16987
3055.02233	0.17017
3053.09365	0.17045
3051.16498	0.17072
3049.23630	0.17098
3047.30763	0.17122
3045.37895	0.17145
3043.45027	0.17172
3041.52160	0.17199
3039.59292	0.17223
3037.66425	0.17245
3035.73557	0.17270
3033.80690	0.17298
3031.87822	0.17327
3029.94954	0.17354
3028.02087	0.17381
3026.09219	0.17407
3024.16352	0.17434
3022.23484	0.17461
3020.30617	0.17488
3018.37749	0.17515
3016.44881	0.17539
3014.52014	0.17562
3012.59146	0.17589
3010.66279	0.17622
3008.73411	0.17651
3006.80544	0.17673
3004.87676	0.17693
3002.94808	0.17716
3001.01941	0.17743
2999.09073	0.17770
2997.16206	0.17794
2995.23338	0.17817
2993.30471	0.17840
2991.37603	0.17861
2989.44735	0.17882
2987.51868	0.17903
2985.59000	0.17922
2983.66133	0.17939
2981.73265	0.17955
2979.80398	0.17966
2977.87530	0.17977
2975.94662	0.17986
2974.01795	0.17991
2972.08927	0.17990
2970.16060	0.17987
2968.23192	0.17982
2966.30325	0.17983
2964.37457	0.17992
2962.44589	0.18008
2960.51722	0.18029
2958.58854	0.18057
2956.65987	0.18093
2954.73119	0.18130
2952.80252	0.18166
2950.87384	0.18197
2948.94516	0.18225
2947.01649	0.18251
2945.08781	0.18271
2943.15914	0.18282
2941.23046	0.18287
2939.30179	0.18289
2937.37311	0.18288
2935.44443	0.18286
2933.51576	0.18283
2931.58708	0.18278
2929.65841	0.18271
2927.72973	0.18264
2925.80106	0.18261
2923.87238	0.18263
2921.94370	0.18266
2920.01503	0.18277
2918.08635	0.18308
2916.15768	0.18367
2914.22900	0.18450
2912.30033	0.18541
2910.37165	0.18622
2908.44297	0.18688
2906.51430	0.18741
2904.58562	0.18787
2902.65695	0.18832
2900.72827	0.18875
2898.79960	0.18914
2896.87092	0.18949
2894.94224	0.18982
2893.01357	0.19020
2891.08489	0.19059
2889.15622	0.19096
2887.22754	0.19132
2885.29887	0.19167
2883.37019	0.19199
2881.44151	0.19228
2879.51284	0.19253
2877.58416	0.19276
2875.65549	0.19298
2873.72681	0.19320
2871.79814	0.19344
2869.86946	0.19367
2867.94078	0.19390
2866.01211	0.19412
2864.08343	0.19430
2862.15476	0.19444
2860.22608	0.19450
2858.29741	0.19451
2856.36873	0.19451
2854.44005	0.19447
2852.51138	0.19442
2850.58270	0.19459
2848.65403	0.19513
2846.72535	0.19597
2844.79668	0.19687
2842.86800	0.19765
2840.93932	0.19828
2839.01065	0.19882
2837.08197	0.19928
2835.15330	0.19971
2833.22462	0.20010
2831.29595	0.20044
2829.36727	0.20076
2827.43859	0.20109
2825.50992	0.20141
2823.58124	0.20172
2821.65257	0.20203
2819.72389	0.20232
2817.79522	0.20260
2815.86654	0.20286
2813.93786	0.20315
2812.00919	0.20347
2810.08051	0.20381
2808.15184	0.20414
2806.22316	0.20446
2804.29449	0.20474
2802.36581	0.20502
2800.43713	0.20532
2798.50846	0.20563
2796.57978	0.20592
2794.65111	0.20620
2792.72243	0.20650
2790.79376	0.20680
2788.86508	0.20706
2786.93640	0.20733
2785.00773	0.20762
2783.07905	0.20791
2781.15038	0.20817
2779.22170	0.20842
2777.29303	0.20872
2775.36435	0.20903
2773.43567	0.20933
2771.50700	0.20965
2769.57832	0.20995
2767.64965	0.21021
2765.72097	0.21046
2763.79230	0.21077
2761.86362	0.21108
2759.93494	0.21137
2758.00627	0.21163
2756.07759	0.21189
2754.14892	0.21214
2752.22024	0.21238
2750.29157	0.21266
2748.36289	0.21296
2746.43421	0.21322
2744.50554	0.21347
2742.57686	0.21375
2740.64819	0.21407
2738.71951	0.21437
2736.79084	0.21459
2734.86216	0.21481
2732.93348	0.21509
2731.00481	0.21539
2729.07613	0.21568
2727.14746	0.21596
2725.21878	0.21624
2723.29011	0.21651
2721.36143	0.21678
2719.43275	0.21704
2717.50408	0.21732
2715.57540	0.21761
2713.64673	0.21787
2711.71805	0.21811
2709.78938	0.21838
2707.86070	0.21865
2705.93202	0.21894
2704.00335	0.21923
2702.07467	0.21949
2700.14600	0.21972
2698.21732	0.21997
2696.28865	0.22023
2694.35997	0.22049
2692.43129	0.22079
2690.50262	0.22109
2688.57394	0.22136
2686.64527	0.22160
2684.71659	0.22187
2682.78792	0.22217
2680.85924	0.22247
2678.93056	0.22275
2677.00189	0.22302
2675.07321	0.22329
2673.14454	0.22355
2671.21586	0.22379
2669.28719	0.22404
2667.35851	0.22429
2665.42983	0.22456
2663.50116	0.22483
2661.57248	0.22513
2659.64381	0.22546
2657.71513	0.22577
2655.78646	0.22604
2653.85778	0.22628
2651.92910	0.22655
2650.00043	0.22687
2648.07175	0.22717
2646.14308	0.22742
2644.21440	0.22770
2642.28573	0.22801
2640.35705	0.22831
2638.42837	0.22858
2636.49970	0.22887
2634.57102	0.22922
2632.64235	0.22955
2630.71367	0.22983
2628.78500	0.23009
2626.85632	0.23036
2624.92764	0.23068
2622.99897	0.23100
2621.07029	0.23131
2619.14162	0.23162
2617.21294	0.23194
2615.28427	0.23224
2613.35559	0.23252
2611.42691	0.23280
2609.49824	0.23312
2607.56956	0.23345
2605.64089	0.23376
2603.71221	0.23403
2601.78354	0.23429
2599.85486	0.23455
2597.92618	0.23482
2595.99751	0.23510
2594.06883	0.23539
2592.14016	0.23568
2590.21148	0.23596
2588.28281	0.23624
2586.35413	0.23653
2584.42545	0.23683
2582.49678	0.23713
2580.56810	0.23741
2578.63943	0.23767
2576.71075	0.23794
2574.78208	0.23823
2572.85340	0.23852
2570.92472	0.23882
2568.99605	0.23909
2567.06737	0.23934
2565.13870	0.23959
2563.21002	0.23984
2561.28135	0.24010
2559.35267	0.24036
2557.42399	0.24063
2555.49532	0.24093
2553.56664	0.24124
2551.63797	0.24153
2549.70929	0.24184
2547.78062	0.24214
2545.85194	0.24241
2543.92326	0.24269
2541.99459	0.24297
2540.06591	0.24324
2538.13724	0.24349
2536.20856	0.24376
2534.27989	0.24405
2532.35121	0.24436
2530.42253	0.24467
2528.49386	0.24496
2526.56518	0.24524
2524.63651	0.24554
2522.70783	0.24584
2520.77916	0.24615
2518.85048	0.24646
2516.92181	0.24677
2514.99313	0.24707
2513.06445	0.24734
2511.13578	0.24762
2509.20710	0.24795
2507.27843	0.24830
2505.34975	0.24862
2503.42108	0.24890
2501.49240	0.24918
2499.56372	0.24948
2497.63505	0.24980
2495.70637	0.25012
2493.77770	0.25044
2491.84902	0.25078
2489.92035	0.25111
2487.99167	0.25140
2486.06299	0.25169
2484.13432	0.25201
2482.20564	0.25233
2480.27697	0.25266
2478.34829	0.25300
2476.41962	0.25331
2474.49094	0.25361
2472.56226	0.25389
2470.63359	0.25415
2468.70491	0.25445
2466.77624	0.25479
2464.84756	0.25512
2462.91889	0.25543
2460.99021	0.25570
2459.06153	0.25598
2457.13286	0.25628
2455.20418	0.25662
2453.27551	0.25695
2451.34683	0.25721
2449.41816	0.25745
2447.48948	0.25769
2445.56080	0.25798
2443.63213	0.25835
2441.70345	0.25873
2439.77478	0.25904
2437.84610	0.25931
2435.91743	0.25960
2433.98875	0.25992
2432.06007	0.26025
2430.13140	0.26057
2428.20272	0.26086
2426.27405	0.26113
2424.34537	0.26141
2422.41670	0.26169
2420.48802	0.26197
2418.55934	0.26227
2416.63067	0.26257
2414.70199	0.26288
2412.77332	0.26317
2410.84464	0.26346
2408.91597	0.26376
2406.98729	0.26410
2405.05861	0.26443
2403.12994	0.26472
2401.20126	0.26500
2399.27259	0.26530
2397.34391	0.26560
2395.41524	0.26586
2393.48656	0.26614
2391.55788	0.26646
2389.62921	0.26678
2387.70053	0.26707
2385.77186	0.26730
2383.84318	0.26752
2381.91451	0.26773
2379.98583	0.26792
2378.05715	0.26804
2376.12848	0.26812
2374.19980	0.26818
2372.27113	0.26825
2370.34245	0.26830
2368.41378	0.26838
2366.48510	0.26852
2364.55642	0.26867
2362.62775	0.26886
2360.69907	0.26913
2358.77040	0.26950
2356.84172	0.26995
2354.91305	0.27048
2352.98437	0.27108
2351.05569	0.27171
2349.12702	0.27221
2347.19834	0.27242
2345.26967	0.27241
2343.34099	0.27243
2341.41232	0.27260
2339.48364	0.27287
2337.55496	0.27318
2335.62629	0.27350
2333.69761	0.27379
2331.76894	0.27407
2329.84026	0.27441
2327.91159	0.27480
2325.98291	0.27521
2324.05423	0.27563
2322.12556	0.27605
2320.19688	0.27646
2318.26821	0.27686
2316.33953	0.27728
2314.41086	0.27771
2312.48218	0.27815
2310.55350	0.27856
2308.62483	0.27890
2306.69615	0.27923
2304.76748	0.27959
2302.83880	0.27994
2300.91013	0.28028
2298.98145	0.28059
2297.05277	0.28089
2295.12410	0.28123
2293.19542	0.28159
2291.26675	0.28190
2289.33807	0.28216
2287.40940	0.28244
2285.48072	0.28276
2283.55204	0.28309
2281.62337	0.28338
2279.69469	0.28364
2277.76602	0.28392
2275.83734	0.28425
2273.90867	0.28458
2271.97999	0.28488
2270.05131	0.28516
2268.12264	0.28543
2266.19396	0.28573
2264.26529	0.28607
2262.33661	0.28644
2260.40794	0.28675
2258.47926	0.28700
2256.55058	0.28727
2254.62191	0.28756
2252.69323	0.28787
2250.76456	0.28819
2248.83588	0.28850
2246.90721	0.28881
2244.97853	0.28909
2243.04985	0.28936
2241.12118	0.28964
2239.19250	0.28990
2237.26383	0.29019
2235.33515	0.29050
2233.40648	0.29082
2231.47780	0.29112
2229.54912	0.29143
2227.62045	0.29172
2225.69177	0.29201
2223.76310	0.29231
2221.83442	0.29263
2219.90575	0.29292
2217.97707	0.29317
2216.04839	0.29345
2214.11972	0.29375
2212.19104	0.29406
2210.26237	0.29436
2208.33369	0.29469
2206.40502	0.29502
2204.47634	0.29530
2202.54766	0.29555
2200.61899	0.29583
2198.69031	0.29612
2196.76164	0.29641
2194.83296	0.29670
2192.90429	0.29697
2190.97561	0.29723
2189.04693	0.29753
2187.11826	0.29785
2185.18958	0.29816
2183.26091	0.29847
2181.33223	0.29876
2179.40356	0.29904
2177.47488	0.29934
2175.54620	0.29965
2173.61753	0.29994
2171.68885	0.30024
2169.76018	0.30056
2167.83150	0.30086
2165.90283	0.30114
2163.97415	0.30144
2162.04547	0.30180
2160.11680	0.30213
2158.18812	0.30243
2156.25945	0.30273
2154.33077	0.30303
2152.40210	0.30333
2150.47342	0.30362
2148.54474	0.30392
2146.61607	0.30422
2144.68739	0.30456
2142.75872	0.30490
2140.83004	0.30521
2138.90137	0.30545
2136.97269	0.30571
2135.04401	0.30603
2133.11534	0.30636
2131.18666	0.30666
2129.25799	0.30697
2127.32931	0.30728
2125.40064	0.30759
2123.47196	0.30787
2121.54328	0.30814
2119.61461	0.30842
2117.68593	0.30871
2115.75726	0.30900
2113.82858	0.30930
2111.89991	0.30963
2109.97123	0.30996
2108.04255	0.31028
2106.11388	0.31060
2104.18520	0.31090
2102.25653	0.31121
2100.32785	0.31154
2098.39918	0.31188
2096.47050	0.31218
2094.54182	0.31244
2092.61315	0.31268
2090.68447	0.31296
2088.75580	0.31327
2086.82712	0.31359
2084.89845	0.31388
2082.96977	0.31417
2081.04109	0.31447
2079.11242	0.31477
2077.18374	0.31508
2075.25507	0.31542
2073.32639	0.31573
2071.39772	0.31602
2069.46904	0.31631
2067.54036	0.31659
2065.61169	0.31687
2063.68301	0.31720
2061.75434	0.31755
2059.82566	0.31787
2057.89699	0.31814
2055.96831	0.31840
2054.03963	0.31869
2052.11096	0.31898
2050.18228	0.31931
2048.25361	0.31966
2046.32493	0.31999
2044.39626	0.32031
2042.46758	0.32060
2040.53890	0.32087
2038.61023	0.32117
2036.68155	0.32151
2034.75288	0.32183
2032.82420	0.32212
2030.89553	0.32244
2028.96685	0.32278
2027.03817	0.32309
2025.10950	0.32338
2023.18082	0.32368
2021.25215	0.32396
2019.32347	0.32423
2017.39480	0.32453
2015.46612	0.32486
2013.53744	0.32518
2011.60877	0.32549
2009.68009	0.32580
2007.75142	0.32609
2005.82274	0.32640
2003.89407	0.32675
2001.96539	0.32707
2000.03671	0.32735
1998.10804	0.32764
1996.17936	0.32791
1994.25069	0.32813
1992.32201	0.32837
1990.39334	0.32868
1988.46466	0.32897
1986.53598	0.32921
1984.60731	0.32947
1982.67863	0.32977
1980.74996	0.33006
1978.82128	0.33031
1976.89261	0.33054
1974.96393	0.33082
1973.03525	0.33113
1971.10658	0.33141
1969.17790	0.33163
1967.24923	0.33187
1965.32055	0.33218
1963.39188	0.33249
1961.46320	0.33275
1959.53452	0.33302
1957.60585	0.33331
1955.67717	0.33359
1953.74850	0.33385
1951.81982	0.33409
1949.89115	0.33434
1947.96247	0.33463
1946.03379	0.33493
1944.10512	0.33520
1942.17644	0.33550
1940.24777	0.33591
1938.31909	0.33632
1936.39042	0.33668
1934.46174	0.33699
1932.53306	0.33723
1930.60439	0.33741
1928.67571	0.33764
1926.74704	0.33795
1924.81836	0.33823
1922.88969	0.33847
1920.96101	0.33867
1919.03233	0.33884
1917.10366	0.33916
1915.17498	0.33969
1913.24631	0.34015
1911.31763	0.34041
1909.38896	0.34061
1907.46028	0.34090
1905.53160	0.34126
1903.60293	0.34158
1901.67425	0.34186
1899.74558	0.34213
1897.81690	0.34237
1895.88823	0.34260
1893.95955	0.34286
1892.03087	0.34309
1890.10220	0.34329
1888.17352	0.34362
1886.24485	0.34403
1884.31617	0.34440
1882.38750	0.34474
1880.45882	0.34505
1878.53014	0.34533
1876.60147	0.34560
1874.67279	0.34586
1872.74412	0.34602
1870.81544	0.34598
1868.88677	0.34606
1866.95809	0.34656
1865.02941	0.34720
1863.10074	0.34766
1861.17206	0.34800
1859.24339	0.34835
1857.31471	0.34867
1855.38604	0.34899
1853.45736	0.34932
1851.52868	0.34962
1849.60001	0.34980
1847.67133	0.34979
1845.74266	0.34966
1843.81398	0.34987
1841.88531	0.35059
1839.95663	0.35127
1838.02795	0.35165
1836.09928	0.35195
1834.17060	0.35222
1832.24193	0.35225
1830.31325	0.35222
1828.38458	0.35247
1826.45590	0.35287
1824.52722	0.35330
1822.59855	0.35381
1820.66987	0.35422
1818.74120	0.35446
1816.81252	0.35474
1814.88385	0.35505
1812.95517	0.35523
1811.02649	0.35537
1809.09782	0.35568
1807.16914	0.35611
1805.24047	0.35635
1803.31179	0.35634
1801.38312	0.35636
1799.45444	0.35665
1797.52576	0.35703
1795.59709	0.35715
1793.66841	0.35703
1791.73974	0.35720
1789.81106	0.35783
1787.88239	0.35833
1785.95371	0.35846
1784.02503	0.35860
1782.09636	0.35885
1780.16768	0.35913
1778.23901	0.35945
1776.31033	0.35955
1774.38166	0.35930
1772.45298	0.35913
1770.52430	0.35936
1768.59563	0.35987
1766.66695	0.36046
1764.73828	0.36083
1762.80960	0.36082
1760.88093	0.36086
1758.95225	0.36106
1757.02357	0.36123
1755.09490	0.36135
1753.16622	0.36109
1751.23755	0.36064
1749.30887	0.36064
1747.38020	0.36104
1745.45152	0.36130
1743.52284	0.36133
1741.59417	0.36130
1739.66549	0.36138
1737.73682	0.36138
1735.80814	0.36093
1733.87947	0.36075
1731.95079	0.36151
1730.02211	0.36252
1728.09344	0.36324
1726.16476	0.36370
1724.23609	0.36396
1722.30741	0.36408
1720.37874	0.36378
1718.45006	0.36326
1716.52138	0.36333
1714.59271	0.36413
1712.66403	0.36506
1710.73536	0.36560
1708.80668	0.36560
1706.87801	0.36532
1704.94933	0.36510
1703.02065	0.36465
1701.09198	0.36405
1699.16330	0.36407
1697.23463	0.36452
1695.30595	0.36504
1693.37728	0.36579
1691.44860	0.36626
1689.51992	0.36621
1687.59125	0.36578
1685.66257	0.36507
1683.73390	0.36489
1681.80522	0.36561
1679.87655	0.36637
1677.94787	0.36643
1676.01919	0.36609
1674.09052	0.36603
1672.16184	0.36609
1670.23317	0.36610
1668.30449	0.36654
1666.37582	0.36718
1664.44714	0.36734
1662.51846	0.36733
1660.58979	0.36766
1658.66111	0.36790
1656.73244	0.36729
1654.80376	0.36597
1652.87509	0.36549
1650.94641	0.36639
1649.01773	0.36703
1647.08906	0.36705
1645.16038	0.36754
1643.23171	0.36833
1641.30303	0.36866
1639.37436	0.36840
1637.44568	0.36782
1635.51700	0.36768
1633.58833	0.36836
1631.65965	0.36906
1629.73098	0.36911
1627.80230	0.36882
1625.87363	0.36841
1623.94495	0.36779
1622.01627	0.36731
1620.08760	0.36723
1618.15892	0.36753
1616.23025	0.36849
1614.30157	0.36995
1612.37290	0.37111
1610.44422	0.37172
1608.51554	0.37215
1606.58687	0.37258
1604.65819	0.37300
1602.72952	0.37338
1600.80084	0.37377
1598.87217	0.37414
1596.94349	0.37445
1595.01481	0.37473
1593.08614	0.37505
1591.15746	0.37542
1589.22879	0.37580
1587.30011	0.37615
1585.37144	0.37644
1583.44276	0.37670
1581.51408	0.37694
1579.58541	0.37693
1577.65673	0.37667
1575.72806	0.37683
1573.79938	0.37748
1571.87071	0.37773
1569.94203	0.37766
1568.01335	0.37800
1566.08468	0.37854
1564.15600	0.37876
1562.22733	0.37828
1560.29865	0.37725
1558.36998	0.37701
1556.44130	0.37807
1554.51262	0.37932
1552.58395	0.38006
1550.65527	0.38044
1548.72660	0.38066
1546.79792	0.38061
1544.86925	0.38020
1542.94057	0.37964
1541.01189	0.37935
1539.08322	0.37991
1537.15454	0.38096
1535.22587	0.38147
1533.29719	0.38161
1531.36852	0.38204
1529.43984	0.38234
1527.51116	0.38224
1525.58249	0.38206
1523.65381	0.38166
1521.72514	0.38123
1519.79646	0.38143
1517.86779	0.38203
1515.93911	0.38262
1514.01043	0.38312
1512.08176	0.38328
1510.15308	0.38288
1508.22441	0.38224
1506.29573	0.38238
1504.36706	0.38355
1502.43838	0.38456
1500.50970	0.38465
1498.58103	0.38438
1496.65235	0.38446
1494.72368	0.38492
1492.79500	0.38508
1490.86633	0.38478
1488.93765	0.38472
1487.00897	0.38522
1485.08030	0.38576
1483.15162	0.38593
1481.22295	0.38586
1479.29427	0.38568
1477.36560	0.38524
1475.43692	0.38452
1473.50824	0.38390
1471.57957	0.38384
1469.65089	0.38420
1467.72222	0.38425
1465.79354	0.38399
1463.86487	0.38406
1461.93619	0.38423
1460.00751	0.38367
1458.07884	0.38274
1456.15016	0.38285
1454.22149	0.38400
1452.29281	0.38495
1450.36414	0.38523
1448.43546	0.38529
1446.50678	0.38551
1444.57811	0.38588
1442.64943	0.38618
1440.72076	0.38619
1438.79208	0.38568
1436.86341	0.38522
1434.93473	0.38553
1433.00605	0.38603
1431.07738	0.38614
1429.14870	0.38621
1427.22003	0.38634
1425.29135	0.38623
1423.36268	0.38589
1421.43400	0.38527
1419.50532	0.38471
1417.57665	0.38484
1415.64797	0.38541
1413.71930	0.38572
1411.79062	0.38578
1409.86195	0.38579
1407.93327	0.38566
1406.00459	0.38540
1404.07592	0.38529
1402.14724	0.38525
1400.21857	0.38499
1398.28989	0.38464
1396.36122	0.38441
1394.43254	0.38446
1392.50386	0.38476
1390.57519	0.38471
1388.64651	0.38405
1386.71784	0.38340
1384.78916	0.38318
1382.86049	0.38328
1380.93181	0.38344
1379.00313	0.38346
1377.07446	0.38330
1375.14578	0.38314
1373.21711	0.38316
1371.28843	0.38331
1369.35976	0.38338
1367.43108	0.38334
1365.50240	0.38311
1363.57373	0.38277
1361.64505	0.38267
1359.71638	0.38285
1357.78770	0.38302
1355.85903	0.38306
1353.93035	0.38310
1352.00167	0.38324
1350.07300	0.38342
1348.14432	0.38361
1346.21565	0.38378
1344.28697	0.38383
1342.35830	0.38369
1340.42962	0.38351
1338.50094	0.38351
1336.57227	0.38363
1334.64359	0.38373
1332.71492	0.38374
1330.78624	0.38367
1328.85757	0.38353
1326.92889	0.38337
1325.00021	0.38326
1323.07154	0.38315
1321.14286	0.38300
1319.21419	0.38283
1317.28551	0.38269
1315.35684	0.38254
1313.42816	0.38235
1311.49948	0.38210
1309.57081	0.38177
1307.64213	0.38138
1305.71346	0.38102
1303.78478	0.38073
1301.85611	0.38045
1299.92743	0.38014
1297.99875	0.37976
1296.07008	0.37930
1294.14140	0.37883
1292.21273	0.37841
1290.28405	0.37797
1288.35538	0.37749
1286.42670	0.37702
1284.49802	0.37657
1282.56935	0.37606
1280.64067	0.37545
1278.71200	0.37472
1276.78332	0.37385
1274.85465	0.37285
1272.92597	0.37178
1270.99729	0.37050
1269.06862	0.36885
1267.13994	0.36695
1265.21127	0.36523
1263.28259	0.36401
1261.35392	0.36337
1259.42524	0.36328
1257.49656	0.36357
1255.56789	0.36388
1253.63921	0.36388
1251.71054	0.36350
1249.78186	0.36290
1247.85319	0.36221
1245.92451	0.36148
1243.99583	0.36071
1242.06716	0.35988
1240.13848	0.35900
1238.20981	0.35806
1236.28113	0.35703
1234.35246	0.35590
1232.42378	0.35477
1230.49510	0.35375
1228.56643	0.35281
1226.63775	0.35182
1224.70908	0.35078
1222.78040	0.34983
1220.85173	0.34898
1218.92305	0.34811
1216.99437	0.34722
1215.06570	0.34630
1213.13702	0.34535
1211.20835	0.34440
1209.27967	0.34348
1207.35100	0.34256
1205.42232	0.34162
1203.49364	0.34062
1201.56497	0.33965
1199.63629	0.33880
1197.70762	0.33799
1195.77894	0.33710
1193.85027	0.33615
1191.92159	0.33515
1189.99291	0.33404
1188.06424	0.33288
1186.13556	0.33170
1184.20689	0.33048
1182.27821	0.32920
1180.34954	0.32785
1178.42086	0.32647
1176.49218	0.32508
1174.56351	0.32367
1172.63483	0.32223
1170.70616	0.32079
1168.77748	0.31936
1166.84881	0.31790
1164.92013	0.31640
1162.99145	0.31496
1161.06278	0.31361
1159.13410	0.31229
1157.20543	0.31097
1155.27675	0.30968
1153.34808	0.30839
1151.41940	0.30713
1149.49072	0.30599
1147.56205	0.30492
1145.63337	0.30381
1143.70470	0.30264
1141.77602	0.30147
1139.84735	0.30029
1137.91867	0.29906
1135.98999	0.29786
1134.06132	0.29668
1132.13264	0.29543
1130.20397	0.29405
1128.27529	0.29264
1126.34662	0.29123
1124.41794	0.28983
1122.48926	0.28843
1120.56059	0.28694
1118.63191	0.28536
1116.70324	0.28378
1114.77456	0.28220
1112.84589	0.28059
1110.91721	0.27895
1108.98853	0.27739
1107.05986	0.27592
1105.13118	0.27448
1103.20251	0.27302
1101.27383	0.27159
1099.34516	0.27025
1097.41648	0.26899
1095.48780	0.26777
1093.55913	0.26661
1091.63045	0.26551
1089.70178	0.26440
1087.77310	0.26325
1085.84443	0.26210
1083.91575	0.26102
1081.98707	0.26002
1080.05840	0.25905
1078.12972	0.25813
1076.20105	0.25729
1074.27237	0.25655
1072.34370	0.25595
1070.41502	0.25548
1068.48634	0.25519
1066.55767	0.25510
1064.62899	0.25507
1062.70032	0.25505
1060.77164	0.25513
1058.84297	0.25535
1056.91429	0.25567
1054.98561	0.25605
1053.05694	0.25644
1051.12826	0.25684
1049.19959	0.25736
1047.27091	0.25800
1045.34224	0.25873
1043.41356	0.25949
1041.48488	0.26023
1039.55621	0.26096
1037.62753	0.26176
1035.69886	0.26254
1033.77018	0.26324
1031.84151	0.26399
1029.91283	0.26487
1027.98415	0.26568
1026.05548	0.26642
1024.12680	0.26724
1022.19813	0.26815
1020.26945	0.26911
1018.34078	0.27013
1016.41210	0.27119
1014.48342	0.27231
1012.55475	0.27359
1010.62607	0.27501
1008.69740	0.27643
1006.76872	0.27778
1004.84005	0.27909
1002.91137	0.28031
1000.98269	0.28136
999.05402	0.28225
997.12534	0.28307
995.19667	0.28383
993.26799	0.28450
991.33932	0.28513
989.41064	0.28576
987.48196	0.28641
985.55329	0.28705
983.62461	0.28760
981.69594	0.28801
979.76726	0.28827
977.83859	0.28838
975.90991	0.28846
973.98123	0.28852
972.05256	0.28849
970.12388	0.28837
968.19521	0.28826
966.26653	0.28817
964.33786	0.28798
962.40918	0.28770
960.48050	0.28743
958.55183	0.28714
956.62315	0.28672
954.69448	0.28626
952.76580	0.28581
950.83713	0.28534
948.90845	0.28481
946.97977	0.28422
945.05110	0.28361
943.12242	0.28300
941.19375	0.28237
939.26507	0.28171
937.33640	0.28107
935.40772	0.28041
933.47904	0.27971
931.55037	0.27902
929.62169	0.27837
927.69302	0.27770
925.76434	0.27703
923.83567	0.27642
921.90699	0.27579
919.97831	0.27502
918.04964	0.27417
916.12096	0.27340
914.19229	0.27265
912.26361	0.27186
910.33494	0.27106
908.40626	0.27022
906.47758	0.26936
904.54891	0.26852
902.62023	0.26762
900.69156	0.26665
898.76288	0.26566
896.83421	0.26476
894.90553	0.26391
892.97685	0.26302
891.04818	0.26208
889.11950	0.26116
887.19083	0.26031
885.26215	0.25952
883.33348	0.25869
881.40480	0.25785
879.47612	0.25704
877.54745	0.25621
875.61877	0.25540
873.69010	0.25463
871.76142	0.25389
869.83275	0.25320
867.90407	0.25243
865.97539	0.25156
864.04672	0.25069
862.11804	0.24991
860.18937	0.24909
858.26069	0.24819
856.33202	0.24734
854.40334	0.24651
852.47466	0.24558
850.54599	0.24460
848.61731	0.24365
846.68864	0.24270
844.75996	0.24176
842.83129	0.24084
840.90261	0.23993
838.97394	0.23907
837.04526	0.23820
835.11658	0.23731
833.18791	0.23642
831.25923	0.23548
829.33056	0.23441
827.40188	0.23317
825.47321	0.23192
823.54453	0.23077
821.61585	0.22974
819.68718	0.22875
817.75850	0.22781
815.82983	0.22687
813.90115	0.22585
811.97248	0.22477
810.04380	0.22379
808.11512	0.22294
806.18645	0.22209
804.25777	0.22120
802.32910	0.22039
800.40042	0.21977
798.47175	0.21928
796.54307	0.21884
794.61439	0.21845
792.68572	0.21812
790.75704	0.21784
788.82837	0.21757
786.89969	0.21725
784.97102	0.21689
783.04234	0.21655
781.11366	0.21613
779.18499	0.21564
777.25631	0.21518
775.32764	0.21475
773.39896	0.21428
771.47029	0.21376
769.54161	0.21320
767.61293	0.21262
765.68426	0.21201
763.75558	0.21124
761.82691	0.21040
759.89823	0.20960
757.96956	0.20883
756.04088	0.20806
754.11220	0.20720
752.18353	0.20623
750.25485	0.20522
748.32618	0.20425
746.39750	0.20335
744.46883	0.20246
742.54015	0.20160
740.61147	0.20081
738.68280	0.20006
736.75412	0.19928
734.82545	0.19851
732.89677	0.19778
730.96810	0.19709
729.03942	0.19645
727.11074	0.19576
725.18207	0.19499
723.25339	0.19419
721.32472	0.19343
719.39604	0.19268
717.46737	0.19192
715.53869	0.19124
713.61001	0.19058
711.68134	0.18984
709.75266	0.18900
707.82399	0.18815
705.89531	0.18728
703.96664	0.18636
702.03796	0.18549
700.10928	0.18478
698.18061	0.18412
696.25193	0.18338
694.32326	0.18257
692.39458	0.18171
690.46591	0.18081
688.53723	0.17994
686.60855	0.17907
684.67988	0.17811
682.75120	0.17709
680.82253	0.17605
678.89385	0.17495
676.96518	0.17376
675.03650	0.17255
673.10782	0.17128
671.17915	0.16984
669.25047	0.16818
667.32180	0.16657
665.39312	0.16523
663.46445	0.16388
661.53577	0.16229
659.60709	0.16068
657.67842	0.15917
655.74974	0.15774
653.82107	0.15633
651.89239	0.15488
649.96372	0.15340
648.03504	0.15189
646.10636	0.15039
644.17769	0.14881
642.24901	0.14700
640.32034	0.14506
638.39166	0.14320
636.46299	0.14145
634.53431	0.13974
632.60563	0.13804
630.67696	0.13627
628.74828	0.13449
626.81961	0.13273
624.89093	0.13092
622.96226	0.12911
621.03358	0.12741
619.10490	0.12584
617.17623	0.12426
615.24755	0.12251
613.31888	0.12060
611.39020	0.11875
609.46153	0.11705
607.53285	0.11536
605.60417	0.11370
603.67550	0.11216
601.74682	0.11068
599.81815	0.10925
597.88947	0.10793
595.96080	0.10665
594.03212	0.10538
592.10344	0.10421
590.17477	0.10313
588.24609	0.10204
586.31742	0.10095
584.38874	0.09987
582.46007	0.09875
580.53139	0.09756
578.60271	0.09636
576.67404	0.09521
574.74536	0.09414
572.81669	0.09314
570.88801	0.09223
568.95934	0.09139
567.03066	0.09062
565.10198	0.08986
563.17331	0.08913
561.24463	0.08846
559.31596	0.08779
557.38728	0.08704
555.45861	0.08625
553.52993	0.08546
551.60125	0.08473
549.67258	0.08411
547.74390	0.08355
545.81523	0.08304
543.88655	0.08256
541.95788	0.08202
540.02920	0.08146
538.10052	0.08097
536.17185	0.08056
534.24317	0.08009
532.31450	0.07946
530.38582	0.07877
528.45715	0.07816
526.52847	0.07758
524.59979	0.07693
522.67112	0.07617
520.74244	0.07539
518.81377	0.07461
516.88509	0.07380
514.95642	0.07293
513.02774	0.07205
511.09906	0.07123
509.17039	0.07048
507.24171	0.06975
505.31304	0.06894
503.38436	0.06794
501.45569	0.06682
499.52701	0.06564
497.59833	0.06440
495.66966	0.06316
493.74098	0.06198
491.81231	0.06082
489.88363	0.05963
487.95496	0.05842
486.02628	0.05724
484.09760	0.05610
482.16893	0.05492
480.24025	0.05360
478.31158	0.05216
476.38290	0.05081
474.45423	0.04968
472.52555	0.04874
470.59687	0.04788
468.66820	0.04704
466.73952	0.04623
464.81085	0.04545
462.88217	0.04480
460.95350	0.04436
459.02482	0.04408
457.09614	0.04394
455.16747	0.04392
453.23879	0.04390
451.31012	0.04383
449.38144	0.04374
447.45277	0.04359
445.52409	0.04331
443.59541	0.04284
441.66674	0.04227
439.73806	0.04169
437.80939	0.04093
435.88071	0.03990
433.95204	0.03879
432.02336	0.03774
430.09468	0.03666
428.16601	0.03549
426.23733	0.03417
424.30866	0.03275
422.37998	0.03141
420.45131	0.03014
418.52263	0.02891
416.59395	0.02773
414.66528	0.02650
412.73660	0.02525
410.80793	0.02409
408.87925	0.02297
406.95058	0.02184
405.02190	0.02069
403.09322	0.01946
401.16455	0.01825
399.23587	0.01711
397.30720	0.01600
395.37852	0.01503
393.44985	0.01424
391.52117	0.01350
389.59249	0.01269
387.66382	0.01173
385.73514	0.01073
383.80647	0.00985
381.87779	0.00911
379.94912	0.00845
378.02044	0.00784
376.09176	0.00722
374.16309	0.00657
372.23441	0.00588
370.30574	0.00520
368.37706	0.00463
