7496.76250	0.00147
7494.83382	0.00146
7492.90514	0.00146
7490.97647	0.00148
7489.04779	0.00149
7487.11912	0.00150
7485.19044	0.00151
7483.26177	0.00153
7481.33309	0.00152
7479.40441	0.00151
7477.47574	0.00150
7475.54706	0.00151
7473.61839	0.00153
7471.68971	0.00155
7469.76104	0.00156
7467.83236	0.00155
7465.90368	0.00154
7463.97501	0.00153
7462.04633	0.00153
7460.11766	0.00155
7458.18898	0.00158
7456.26031	0.00159
7454.33163	0.00158
7452.40295	0.00157
7450.47428	0.00158
7448.54560	0.00160
7446.61693	0.00161
7444.68825	0.00161
7442.75958	0.00163
7440.83090	0.00163
7438.90222	0.00162
7436.97355	0.00161
7435.04487	0.00161
7433.11620	0.00161
7431.18752	0.00162
7429.25885	0.00163
7427.33017	0.00164
7425.40149	0.00165
7423.47282	0.00166
7421.54414	0.00167
7419.61547	0.00166
7417.68679	0.00165
7415.75812	0.00165
7413.82944	0.00167
7411.90076	0.00169
7409.97209	0.00169
7408.04341	0.00168
7406.11474	0.00166
7404.18606	0.00166
7402.25739	0.00166
7400.32871	0.00167
7398.40003	0.00168
7396.47136	0.00168
7394.54268	0.00169
7392.61401	0.00170
7390.68533	0.00172
7388.75666	0.00173
7386.82798	0.00175
7384.89930	0.00176
7382.97063	0.00175
7381.04195	0.00174
7379.11328	0.00173
7377.18460	0.00173
7375.25593	0.00174
7373.32725	0.00175
7371.39857	0.00175
7369.46990	0.00175
7367.54122	0.00174
7365.61255	0.00173
7363.68387	0.00174
7361.75520	0.00176
7359.82652	0.00178
7357.89784	0.00178
7355.96917	0.00177
7354.04049	0.00177
7352.11182	0.00179
7350.18314	0.00181
7348.25447	0.00181
7346.32579	0.00182
7344.39711	0.00182
7342.46844	0.00183
7340.53976	0.00183
7338.61109	0.00184
7336.68241	0.00183
7334.75374	0.00183
7332.82506	0.00182
7330.89638	0.00182
7328.96771	0.00183
7327.03903	0.00185
7325.11036	0.00187
7323.18168	0.00187
7321.25301	0.00188
7319.32433	0.00188
7317.39565	0.00189
7315.46698	0.00190
7313.53830	0.00191
7311.60963	0.00192
7309.68095	0.00193
7307.75228	0.00193
7305.82360	0.00191
7303.89492	0.00191
7301.96625	0.00193
7300.03757	0.00195
7298.10890	0.00195
7296.18022	0.00195
7294.25155	0.00195
7292.32287	0.00195
7290.39419	0.00194
7288.46552	0.00194
7286.53684	0.00195
7284.60817	0.00195
7282.67949	0.00195
7280.75082	0.00195
7278.82214	0.00196
7276.89346	0.00196
7274.96479	0.00196
7273.03611	0.00196
7271.10744	0.00198
7269.17876	0.00200
7267.25009	0.00201
7265.32141	0.00202
7263.39273	0.00203
7261.46406	0.00203
7259.53538	0.00203
7257.60671	0.00204
7255.67803	0.00204
7253.74936	0.00204
7251.82068	0.00203
7249.89200	0.00204
7247.96333	0.00206
7246.03465	0.00208
7244.10598	0.00209
7242.17730	0.00209
7240.24863	0.00209
7238.31995	0.00208
7236.39127	0.00208
7234.46260	0.00208
7232.53392	0.00207
7230.60525	0.00207
7228.67657	0.00207
7226.74790	0.00209
7224.81922	0.00210
7222.89054	0.00210
7220.96187	0.00210
7219.03319	0.00210
7217.10452	0.00211
7215.17584	0.00212
7213.24717	0.00213
7211.31849	0.00213
7209.38981	0.00213
7207.46114	0.00214
7205.53246	0.00214
7203.60379	0.00215
7201.67511	0.00217
7199.74644	0.00218
7197.81776	0.00218
7195.88908	0.00217
7193.96041	0.00218
7192.03173	0.00220
7190.10306	0.00221
7188.17438	0.00221
7186.24571	0.00221
7184.31703	0.00220
7182.38835	0.00221
7180.45968	0.00222
7178.53100	0.00222
7176.60233	0.00223
7174.67365	0.00223
7172.74498	0.00223
7170.81630	0.00225
7168.88762	0.00226
7166.95895	0.00226
7165.03027	0.00225
7163.10160	0.00225
7161.17292	0.00227
7159.24425	0.00228
7157.31557	0.00227
7155.38689	0.00228
7153.45822	0.00229
7151.52954	0.00231
7149.60087	0.00231
7147.67219	0.00231
7145.74352	0.00231
7143.81484	0.00232
7141.88616	0.00233
7139.95749	0.00233
7138.02881	0.00233
7136.10014	0.00232
7134.17146	0.00233
7132.24279	0.00234
7130.31411	0.00234
7128.38543	0.00233
7126.45676	0.00233
7124.52808	0.00234
7122.59941	0.00236
7120.67073	0.00238
7118.74206	0.00239
7116.81338	0.00240
7114.88470	0.00240
7112.95603	0.00240
7111.02735	0.00241
7109.09868	0.00242
7107.17000	0.00244
7105.24133	0.00244
7103.31265	0.00244
7101.38397	0.00243
7099.45530	0.00243
7097.52662	0.00243
7095.59795	0.00243
7093.66927	0.00244
7091.74060	0.00246
7089.81192	0.00247
7087.88324	0.00247
7085.95457	0.00248
7084.02589	0.00247
7082.09722	0.00246
7080.16854	0.00247
7078.23987	0.00249
7076.31119	0.00250
7074.38251	0.00251
7072.45384	0.00250
7070.52516	0.00249
7068.59649	0.00250
7066.66781	0.00252
7064.73914	0.00255
7062.81046	0.00256
7060.88178	0.00256
7058.95311	0.00255
7057.02443	0.00256
7055.09576	0.00257
7053.16708	0.00258
7051.23841	0.00257
7049.30973	0.00257
7047.38105	0.00258
7045.45238	0.00258
7043.52370	0.00259
7041.59503	0.00259
7039.66635	0.00260
7037.73768	0.00261
7035.80900	0.00263
7033.88032	0.00263
7031.95165	0.00263
7030.02297	0.00264
7028.09430	0.00265
7026.16562	0.00266
7024.23695	0.00268
7022.30827	0.00269
7020.37959	0.00268
7018.45092	0.00267
7016.52224	0.00268
7014.59357	0.00270
7012.66489	0.00271
7010.73622	0.00271
7008.80754	0.00272
7006.87886	0.00272
7004.95019	0.00272
7003.02151	0.00272
7001.09284	0.00272
6999.16416	0.00273
6997.23549	0.00273
6995.30681	0.00273
6993.37813	0.00274
6991.44946	0.00276
6989.52078	0.00277
6987.59211	0.00277
6985.66343	0.00278
6983.73476	0.00280
6981.80608	0.00280
6979.87740	0.00280
6977.94873	0.00281
6976.02005	0.00282
6974.09138	0.00284
6972.16270	0.00285
6970.23403	0.00283
6968.30535	0.00282
6966.37667	0.00282
6964.44800	0.00282
6962.51932	0.00284
6960.59065	0.00286
6958.66197	0.00288
6956.73330	0.00288
6954.80462	0.00286
6952.87594	0.00286
6950.94727	0.00286
6949.01859	0.00287
6947.08992	0.00288
6945.16124	0.00289
6943.23257	0.00290
6941.30389	0.00291
6939.37521	0.00292
6937.44654	0.00292
6935.51786	0.00293
6933.58919	0.00294
6931.66051	0.00295
6929.73184	0.00295
6927.80316	0.00296
6925.87448	0.00296
6923.94581	0.00296
6922.01713	0.00297
6920.08846	0.00299
6918.15978	0.00301
6916.23111	0.00302
6914.30243	0.00301
6912.37375	0.00301
6910.44508	0.00300
6908.51640	0.00300
6906.58773	0.00300
6904.65905	0.00301
6902.73038	0.00303
6900.80170	0.00305
6898.87302	0.00307
6896.94435	0.00307
6895.01567	0.00307
6893.08700	0.00307
6891.15832	0.00307
6889.22965	0.00308
6887.30097	0.00309
6885.37229	0.00311
6883.44362	0.00312
6881.51494	0.00311
6879.58627	0.00311
6877.65759	0.00311
6875.72892	0.00313
6873.80024	0.00315
6871.87156	0.00316
6869.94289	0.00315
6868.01421	0.00314
6866.08554	0.00312
6864.15686	0.00312
6862.22819	0.00314
6860.29951	0.00317
6858.37083	0.00318
6856.44216	0.00317
6854.51348	0.00316
6852.58481	0.00318
6850.65613	0.00321
6848.72746	0.00322
6846.79878	0.00322
6844.87010	0.00324
6842.94143	0.00326
6841.01275	0.00328
6839.08408	0.00329
6837.15540	0.00329
6835.22673	0.00327
6833.29805	0.00328
6831.36937	0.00329
6829.44070	0.00330
6827.51202	0.00330
6825.58335	0.00331
6823.65467	0.00332
6821.72600	0.00333
6819.79732	0.00335
6817.86864	0.00335
6815.93997	0.00334
6814.01129	0.00334
6812.08262	0.00334
6810.15394	0.00336
6808.22527	0.00337
6806.29659	0.00338
6804.36791	0.00339
6802.43924	0.00339
6800.51056	0.00340
6798.58189	0.00341
6796.65321	0.00342
6794.72454	0.00343
6792.79586	0.00344
6790.86718	0.00342
6788.93851	0.00342
6787.00983	0.00344
6785.08116	0.00347
6783.15248	0.00347
6781.22381	0.00347
6779.29513	0.00347
6777.36645	0.00348
6775.43778	0.00349
6773.50910	0.00350
6771.58043	0.00351
6769.65175	0.00353
6767.72308	0.00354
6765.79440	0.00355
6763.86572	0.00355
6761.93705	0.00354
6760.00837	0.00354
6758.07970	0.00356
6756.15102	0.00358
6754.22235	0.00358
6752.29367	0.00358
6750.36499	0.00359
6748.43632	0.00360
6746.50764	0.00361
6744.57897	0.00363
6742.65029	0.00365
6740.72162	0.00363
6738.79294	0.00362
6736.86426	0.00363
6734.93559	0.00365
6733.00691	0.00366
6731.07824	0.00366
6729.14956	0.00368
6727.22089	0.00370
6725.29221	0.00372
6723.36353	0.00371
6721.43486	0.00370
6719.50618	0.00370
6717.57751	0.00372
6715.64883	0.00372
6713.72016	0.00372
6711.79148	0.00373
6709.86280	0.00375
6707.93413	0.00376
6706.00545	0.00378
6704.07678	0.00378
6702.14810	0.00378
6700.21943	0.00380
6698.29075	0.00382
6696.36207	0.00382
6694.43340	0.00382
6692.50472	0.00383
6690.57605	0.00384
6688.64737	0.00385
6686.71870	0.00385
6684.79002	0.00385
6682.86134	0.00384
6680.93267	0.00385
6679.00399	0.00387
6677.07532	0.00388
6675.14664	0.00389
6673.21797	0.00390
6671.28929	0.00390
6669.36061	0.00392
6667.43194	0.00393
6665.50326	0.00394
6663.57459	0.00395
6661.64591	0.00396
6659.71724	0.00397
6657.78856	0.00397
6655.85988	0.00397
6653.93121	0.00398
6652.00253	0.00398
6650.07386	0.00399
6648.14518	0.00399
6646.21651	0.00401
6644.28783	0.00402
6642.35915	0.00403
6640.43048	0.00403
6638.50180	0.00404
6636.57313	0.00406
6634.64445	0.00407
6632.71578	0.00408
6630.78710	0.00408
6628.85842	0.00407
6626.92975	0.00408
6625.00107	0.00409
6623.07240	0.00411
6621.14372	0.00412
6619.21505	0.00412
6617.28637	0.00412
6615.35769	0.00413
6613.42902	0.00414
6611.50034	0.00416
6609.57167	0.00418
6607.64299	0.00419
6605.71432	0.00421
6603.78564	0.00421
6601.85696	0.00420
6599.92829	0.00420
6597.99961	0.00422
6596.07094	0.00425
6594.14226	0.00427
6592.21359	0.00427
6590.28491	0.00427
6588.35623	0.00427
6586.42756	0.00428
6584.49888	0.00429
6582.57021	0.00430
6580.64153	0.00430
6578.71286	0.00431
6576.78418	0.00432
6574.85550	0.00432
6572.92683	0.00432
6570.99815	0.00432
6569.06948	0.00433
6567.14080	0.00436
6565.21213	0.00440
6563.28345	0.00441
6561.35477	0.00439
6559.42610	0.00438
6557.49742	0.00440
6555.56875	0.00443
6553.64007	0.00445
6551.71140	0.00446
6549.78272	0.00445
6547.85404	0.00445
6545.92537	0.00447
6543.99669	0.00449
6542.06802	0.00450
6540.13934	0.00451
6538.21067	0.00453
6536.28199	0.00454
6534.35331	0.00455
6532.42464	0.00456
6530.49596	0.00455
6528.56729	0.00456
6526.63861	0.00456
6524.70994	0.00457
6522.78126	0.00458
6520.85258	0.00461
6518.92391	0.00463
6516.99523	0.00464
6515.06656	0.00463
6513.13788	0.00464
6511.20921	0.00465
6509.28053	0.00466
6507.35185	0.00467
6505.42318	0.00467
6503.49450	0.00467
6501.56583	0.00467
6499.63715	0.00469
6497.70848	0.00472
6495.77980	0.00476
6493.85112	0.00477
6491.92245	0.00478
6489.99377	0.00479
6488.06510	0.00480
6486.13642	0.00479
6484.20775	0.00478
6482.27907	0.00479
6480.35039	0.00481
6478.42172	0.00482
6476.49304	0.00482
6474.56437	0.00482
6472.63569	0.00483
6470.70702	0.00484
6468.77834	0.00486
6466.84966	0.00489
6464.92099	0.00489
6462.99231	0.00487
6461.06364	0.00486
6459.13496	0.00486
6457.20629	0.00488
6455.27761	0.00490
6453.34893	0.00492
6451.42026	0.00494
6449.49158	0.00497
6447.56291	0.00499
6445.63423	0.00499
6443.70556	0.00500
6441.77688	0.00500
6439.84820	0.00501
6437.91953	0.00502
6435.99085	0.00504
6434.06218	0.00505
6432.13350	0.00504
6430.20483	0.00505
6428.27615	0.00506
6426.34747	0.00508
6424.41880	0.00508
6422.49012	0.00509
6420.56145	0.00510
6418.63277	0.00512
6416.70410	0.00515
6414.77542	0.00518
6412.84674	0.00518
6410.91807	0.00517
6408.98939	0.00516
6407.06072	0.00517
6405.13204	0.00519
6403.20337	0.00522
6401.27469	0.00523
6399.34601	0.00524
6397.41734	0.00523
6395.48866	0.00524
6393.55999	0.00525
6391.63131	0.00527
6389.70264	0.00530
6387.77396	0.00532
6385.84528	0.00532
6383.91661	0.00533
6381.98793	0.00535
6380.05926	0.00537
6378.13058	0.00537
6376.20191	0.00539
6374.27323	0.00541
6372.34455	0.00540
6370.41588	0.00539
6368.48720	0.00541
6366.55853	0.00543
6364.62985	0.00546
6362.70118	0.00547
6360.77250	0.00550
6358.84382	0.00551
6356.91515	0.00551
6354.98647	0.00551
6353.05780	0.00551
6351.12912	0.00552
6349.20045	0.00553
6347.27177	0.00554
6345.34309	0.00556
6343.41442	0.00557
6341.48574	0.00558
6339.55707	0.00558
6337.62839	0.00559
6335.69972	0.00561
6333.77104	0.00562
6331.84236	0.00563
6329.91369	0.00565
6327.98501	0.00567
6326.05634	0.00570
6324.12766	0.00572
6322.19899	0.00572
6320.27031	0.00572
6318.34163	0.00572
6316.41296	0.00573
6314.48428	0.00575
6312.55561	0.00577
6310.62693	0.00579
6308.69826	0.00580
6306.76958	0.00582
6304.84090	0.00583
6302.91223	0.00583
6300.98355	0.00582
6299.05488	0.00583
6297.12620	0.00585
6295.19753	0.00587
6293.26885	0.00587
6291.34017	0.00587
6289.41150	0.00588
6287.48282	0.00591
6285.55415	0.00594
6283.62547	0.00596
6281.69680	0.00598
6279.76812	0.00599
6277.83944	0.00599
6275.91077	0.00600
6273.98209	0.00600
6272.05342	0.00601
6270.12474	0.00600
6268.19607	0.00601
6266.26739	0.00602
6264.33871	0.00604
6262.41004	0.00606
6260.48136	0.00607
6258.55269	0.00608
6256.62401	0.00610
6254.69534	0.00613
6252.76666	0.00614
6250.83798	0.00615
6248.90931	0.00616
6246.98063	0.00617
6245.05196	0.00619
6243.12328	0.00620
6241.19461	0.00622
6239.26593	0.00624
6237.33725	0.00626
6235.40858	0.00628
6233.47990	0.00629
6231.55123	0.00630
6229.62255	0.00631
6227.69388	0.00632
6225.76520	0.00634
6223.83652	0.00635
6221.90785	0.00634
6219.97917	0.00634
6218.05050	0.00635
6216.12182	0.00638
6214.19315	0.00641
6212.26447	0.00643
6210.33579	0.00643
6208.40712	0.00644
6206.47844	0.00645
6204.54977	0.00647
6202.62109	0.00648
6200.69242	0.00650
6198.76374	0.00652
6196.83506	0.00653
6194.90639	0.00654
6192.97771	0.00653
6191.04904	0.00654
6189.12036	0.00655
6187.19169	0.00656
6185.26301	0.00657
6183.33433	0.00658
6181.40566	0.00659
6179.47698	0.00661
6177.54831	0.00664
6175.61963	0.00665
6173.69096	0.00668
6171.76228	0.00671
6169.83360	0.00675
6167.90493	0.00676
6165.97625	0.00676
6164.04758	0.00677
6162.11890	0.00678
6160.19023	0.00679
6158.26155	0.00680
6156.33287	0.00680
6154.40420	0.00680
6152.47552	0.00681
6150.54685	0.00683
6148.61817	0.00685
6146.68950	0.00686
6144.76082	0.00687
6142.83214	0.00689
6140.90347	0.00691
6138.97479	0.00692
6137.04612	0.00694
6135.11744	0.00696
6133.18877	0.00698
6131.26009	0.00699
6129.33141	0.00700
6127.40274	0.00703
6125.47406	0.00706
6123.54539	0.00708
6121.61671	0.00709
6119.68804	0.00710
6117.75936	0.00711
6115.83068	0.00711
6113.90201	0.00712
6111.97333	0.00714
6110.04466	0.00717
6108.11598	0.00720
6106.18731	0.00722
6104.25863	0.00722
6102.32995	0.00722
6100.40128	0.00722
6098.47260	0.00723
6096.54393	0.00726
6094.61525	0.00729
6092.68658	0.00732
6090.75790	0.00733
6088.82922	0.00733
6086.90055	0.00734
6084.97187	0.00736
6083.04320	0.00738
6081.11452	0.00739
6079.18585	0.00741
6077.25717	0.00741
6075.32849	0.00742
6073.39982	0.00744
6071.47114	0.00746
6069.54247	0.00747
6067.61379	0.00747
6065.68512	0.00749
6063.75644	0.00752
6061.82776	0.00752
6059.89909	0.00752
6057.97041	0.00753
6056.04174	0.00755
6054.11306	0.00759
6052.18439	0.00762
6050.25571	0.00765
6048.32703	0.00766
6046.39836	0.00766
6044.46968	0.00767
6042.54101	0.00769
6040.61233	0.00770
6038.68366	0.00772
6036.75498	0.00776
6034.82630	0.00777
6032.89763	0.00777
6030.96895	0.00777
6029.04028	0.00778
6027.11160	0.00780
6025.18293	0.00781
6023.25425	0.00781
6021.32557	0.00784
6019.39690	0.00789
6017.46822	0.00791
6015.53955	0.00792
6013.61087	0.00794
6011.68220	0.00797
6009.75352	0.00799
6007.82484	0.00800
6005.89617	0.00801
6003.96749	0.00802
6002.03882	0.00803
6000.11014	0.00805
5998.18147	0.00809
5996.25279	0.00811
5994.32411	0.00811
5992.39544	0.00812
5990.46676	0.00814
5988.53809	0.00816
5986.60941	0.00817
5984.68074	0.00817
5982.75206	0.00817
5980.82338	0.00819
5978.89471	0.00823
5976.96603	0.00825
5975.03736	0.00826
5973.10868	0.00827
5971.18001	0.00831
5969.25133	0.00833
5967.32265	0.00833
5965.39398	0.00834
5963.46530	0.00835
5961.53663	0.00837
5959.60795	0.00839
5957.67928	0.00842
5955.75060	0.00845
5953.82192	0.00847
5951.89325	0.00849
5949.96457	0.00850
5948.03590	0.00852
5946.10722	0.00854
5944.17855	0.00857
5942.24987	0.00859
5940.32119	0.00858
5938.39252	0.00858
5936.46384	0.00859
5934.53517	0.00861
5932.60649	0.00863
5930.67782	0.00865
5928.74914	0.00867
5926.82046	0.00869
5924.89179	0.00870
5922.96311	0.00872
5921.03444	0.00876
5919.10576	0.00880
5917.17709	0.00880
5915.24841	0.00880
5913.31973	0.00881
5911.39106	0.00883
5909.46238	0.00885
5907.53371	0.00888
5905.60503	0.00891
5903.67636	0.00892
5901.74768	0.00891
5899.81900	0.00891
5897.89033	0.00893
5895.96165	0.00895
5894.03298	0.00896
5892.10430	0.00898
5890.17563	0.00903
5888.24695	0.00906
5886.31827	0.00906
5884.38960	0.00906
5882.46092	0.00907
5880.53225	0.00909
5878.60357	0.00913
5876.67490	0.00917
5874.74622	0.00920
5872.81755	0.00921
5870.88887	0.00920
5868.96019	0.00920
5867.03152	0.00921
5865.10284	0.00925
5863.17417	0.00928
5861.24549	0.00931
5859.31682	0.00935
5857.38814	0.00937
5855.45946	0.00939
5853.53079	0.00938
5851.60211	0.00937
5849.67344	0.00939
5847.74476	0.00943
5845.81609	0.00946
5843.88741	0.00948
5841.95873	0.00950
5840.03006	0.00952
5838.10138	0.00955
5836.17271	0.00958
5834.24403	0.00958
5832.31536	0.00959
5830.38668	0.00961
5828.45800	0.00964
5826.52933	0.00966
5824.60065	0.00966
5822.67198	0.00968
5820.74330	0.00970
5818.81463	0.00971
5816.88595	0.00974
5814.95727	0.00978
5813.02860	0.00980
5811.09992	0.00981
5809.17125	0.00983
5807.24257	0.00985
5805.31390	0.00987
5803.38522	0.00990
5801.45654	0.00992
5799.52787	0.00991
5797.59919	0.00990
5795.67052	0.00991
5793.74184	0.00994
5791.81317	0.00999
5789.88449	0.01003
5787.95581	0.01005
5786.02714	0.01005
5784.09846	0.01007
5782.16979	0.01010
5780.24111	0.01011
5778.31244	0.01011
5776.38376	0.01014
5774.45508	0.01018
5772.52641	0.01022
5770.59773	0.01025
5768.66906	0.01025
5766.74038	0.01025
5764.81171	0.01026
5762.88303	0.01029
5760.95435	0.01033
5759.02568	0.01035
5757.09700	0.01037
5755.16833	0.01039
5753.23965	0.01041
5751.31098	0.01041
5749.38230	0.01042
5747.45362	0.01046
5745.52495	0.01050
5743.59627	0.01051
5741.66760	0.01052
5739.73892	0.01054
5737.81025	0.01058
5735.88157	0.01060
5733.95289	0.01062
5732.02422	0.01065
5730.09554	0.01066
5728.16687	0.01067
5726.23819	0.01069
5724.30952	0.01071
5722.38084	0.01072
5720.45216	0.01075
5718.52349	0.01078
5716.59481	0.01080
5714.66614	0.01083
5712.73746	0.01085
5710.80879	0.01087
5708.88011	0.01090
5706.95143	0.01092
5705.02276	0.01093
5703.09408	0.01094
5701.16541	0.01095
5699.23673	0.01097
5697.30806	0.01101
5695.37938	0.01104
5693.45070	0.01106
5691.52203	0.01107
5689.59335	0.01109
5687.66468	0.01113
5685.73600	0.01116
5683.80733	0.01117
5681.87865	0.01117
5679.94997	0.01119
5678.02130	0.01122
5676.09262	0.01126
5674.16395	0.01129
5672.23527	0.01132
5670.30660	0.01134
5668.37792	0.01136
5666.44924	0.01137
5664.52057	0.01139
5662.59189	0.01140
5660.66322	0.01142
5658.73454	0.01145
5656.80587	0.01148
5654.87719	0.01150
5652.94851	0.01152
5651.01984	0.01153
5649.09116	0.01156
5647.16249	0.01160
5645.23381	0.01165
5643.30514	0.01168
5641.37646	0.01170
5639.44778	0.01171
5637.51911	0.01172
5635.59043	0.01174
5633.66176	0.01177
5631.73308	0.01178
5629.80441	0.01179
5627.87573	0.01181
5625.94705	0.01184
5624.01838	0.01187
5622.08970	0.01190
5620.16103	0.01192
5618.23235	0.01194
5616.30368	0.01195
5614.37500	0.01198
5612.44632	0.01200
5610.51765	0.01202
5608.58897	0.01203
5606.66030	0.01205
5604.73162	0.01210
5602.80295	0.01213
5600.87427	0.01215
5598.94559	0.01217
5597.01692	0.01220
5595.08824	0.01223
5593.15957	0.01225
5591.23089	0.01227
5589.30222	0.01228
5587.37354	0.01231
5585.44486	0.01233
5583.51619	0.01235
5581.58751	0.01236
5579.65884	0.01238
5577.73016	0.01242
5575.80149	0.01245
5573.87281	0.01246
5571.94413	0.01248
5570.01546	0.01251
5568.08678	0.01254
5566.15811	0.01257
5564.22943	0.01258
5562.30076	0.01260
5560.37208	0.01263
5558.44340	0.01267
5556.51473	0.01270
5554.58605	0.01273
5552.65738	0.01274
5550.72870	0.01275
5548.80003	0.01278
5546.87135	0.01281
5544.94267	0.01283
5543.01400	0.01286
5541.08532	0.01289
5539.15665	0.01290
5537.22797	0.01293
5535.29930	0.01296
5533.37062	0.01298
5531.44194	0.01298
5529.51327	0.01298
5527.58459	0.01300
5525.65592	0.01305
5523.72724	0.01310
5521.79857	0.01314
5519.86989	0.01316
5517.94121	0.01317
5516.01254	0.01318
5514.08386	0.01321
5512.15519	0.01324
5510.22651	0.01328
5508.29784	0.01329
5506.36916	0.01329
5504.44048	0.01331
5502.51181	0.01336
5500.58313	0.01340
5498.65446	0.01343
5496.72578	0.01344
5494.79711	0.01346
5492.86843	0.01348
5490.93975	0.01350
5489.01108	0.01350
5487.08240	0.01351
5485.15373	0.01354
5483.22505	0.01359
5481.29638	0.01364
5479.36770	0.01368
5477.43902	0.01369
5475.51035	0.01370
5473.58167	0.01371
5471.65300	0.01374
5469.72432	0.01376
5467.79565	0.01379
5465.86697	0.01381
5463.93829	0.01383
5462.00962	0.01385
5460.08094	0.01387
5458.15227	0.01390
5456.22359	0.01393
5454.29492	0.01396
5452.36624	0.01400
5450.43756	0.01402
5448.50889	0.01403
5446.58021	0.01404
5444.65154	0.01407
5442.72286	0.01411
5440.79419	0.01415
5438.86551	0.01418
5436.93683	0.01420
5435.00816	0.01423
5433.07948	0.01425
5431.15081	0.01427
5429.22213	0.01428
5427.29346	0.01431
5425.36478	0.01435
5423.43610	0.01439
5421.50743	0.01442
5419.57875	0.01444
5417.65008	0.01446
5415.72140	0.01448
5413.79273	0.01451
5411.86405	0.01453
5409.93537	0.01454
5408.00670	0.01457
5406.07802	0.01460
5404.14935	0.01463
5402.22067	0.01465
5400.29200	0.01469
5398.36332	0.01472
5396.43464	0.01476
5394.50597	0.01480
5392.57729	0.01482
5390.64862	0.01483
5388.71994	0.01485
5386.79127	0.01488
5384.86259	0.01493
5382.93391	0.01497
5381.00524	0.01499
5379.07656	0.01499
5377.14789	0.01499
5375.21921	0.01501
5373.29054	0.01503
5371.36186	0.01507
5369.43318	0.01512
5367.50451	0.01517
5365.57583	0.01520
5363.64716	0.01520
5361.71848	0.01521
5359.78981	0.01524
5357.86113	0.01528
5355.93245	0.01530
5354.00378	0.01533
5352.07510	0.01535
5350.14643	0.01537
5348.21775	0.01540
5346.28908	0.01543
5344.36040	0.01547
5342.43172	0.01550
5340.50305	0.01551
5338.57437	0.01553
5336.64570	0.01557
5334.71702	0.01561
5332.78835	0.01565
5330.85967	0.01567
5328.93099	0.01567
5327.00232	0.01570
5325.07364	0.01575
5323.14497	0.01578
5321.21629	0.01580
5319.28762	0.01582
5317.35894	0.01585
5315.43026	0.01589
5313.50159	0.01592
5311.57291	0.01593
5309.64424	0.01595
5307.71556	0.01598
5305.78689	0.01601
5303.85821	0.01604
5301.92953	0.01607
5300.00086	0.01609
5298.07218	0.01612
5296.14351	0.01614
5294.21483	0.01617
5292.28616	0.01621
5290.35748	0.01624
5288.42880	0.01627
5286.50013	0.01628
5284.57145	0.01632
5282.64278	0.01638
5280.71410	0.01642
5278.78543	0.01643
5276.85675	0.01644
5274.92807	0.01646
5272.99940	0.01649
5271.07072	0.01653
5269.14205	0.01656
5267.21337	0.01656
5265.28470	0.01655
5263.35602	0.01657
5261.42734	0.01661
5259.49867	0.01667
5257.56999	0.01671
5255.64132	0.01672
5253.71264	0.01674
5251.78397	0.01676
5249.85529	0.01679
5247.92661	0.01682
5245.99794	0.01686
5244.06926	0.01690
5242.14059	0.01694
5240.21191	0.01696
5238.28324	0.01698
5236.35456	0.01699
5234.42588	0.01702
5232.49721	0.01706
5230.56853	0.01711
5228.63986	0.01713
5226.71118	0.01715
5224.78251	0.01718
5222.85383	0.01723
5220.92515	0.01728
5218.99648	0.01730
5217.06780	0.01731
5215.13913	0.01732
5213.21045	0.01734
5211.28178	0.01736
5209.35310	0.01739
5207.42442	0.01744
5205.49575	0.01747
5203.56707	0.01750
5201.63840	0.01754
5199.70972	0.01758
5197.78105	0.01762
5195.85237	0.01766
5193.92369	0.01768
5191.99502	0.01770
5190.06634	0.01773
5188.13767	0.01776
5186.20899	0.01778
5184.28032	0.01780
5182.35164	0.01784
5180.42296	0.01789
5178.49429	0.01793
5176.56561	0.01795
5174.63694	0.01796
5172.70826	0.01797
5170.77959	0.01800
5168.85091	0.01804
5166.92223	0.01807
5164.99356	0.01808
5163.06488	0.01810
5161.13621	0.01812
5159.20753	0.01816
5157.27886	0.01820
5155.35018	0.01825
5153.42150	0.01828
5151.49283	0.01829
5149.56415	0.01831
5147.63548	0.01834
5145.70680	0.01838
5143.77813	0.01841
5141.84945	0.01843
5139.92077	0.01848
5137.99210	0.01853
5136.06342	0.01856
5134.13475	0.01859
5132.20607	0.01862
5130.27740	0.01866
5128.34872	0.01871
5126.42004	0.01875
5124.49137	0.01879
5122.56269	0.01881
5120.63402	0.01882
5118.70534	0.01883
5116.77667	0.01885
5114.84799	0.01888
5112.91931	0.01893
5110.99064	0.01897
5109.06196	0.01899
5107.13329	0.01899
5105.20461	0.01901
5103.27594	0.01904
5101.34726	0.01907
5099.41858	0.01909
5097.48991	0.01912
5095.56123	0.01915
5093.63256	0.01919
5091.70388	0.01921
5089.77521	0.01924
5087.84653	0.01928
5085.91785	0.01933
5083.98918	0.01936
5082.06050	0.01938
5080.13183	0.01938
5078.20315	0.01941
5076.27448	0.01947
5074.34580	0.01951
5072.41712	0.01954
5070.48845	0.01956
5068.55977	0.01959
5066.63110	0.01962
5064.70242	0.01964
5062.77375	0.01966
5060.84507	0.01970
5058.91639	0.01976
5056.98772	0.01981
5055.05904	0.01985
5053.13037	0.01988
5051.20169	0.01990
5049.27302	0.01992
5047.34434	0.01995
5045.41566	0.01998
5043.48699	0.02002
5041.55831	0.02006
5039.62964	0.02008
5037.70096	0.02008
5035.77229	0.02010
5033.84361	0.02013
5031.91493	0.02019
5029.98626	0.02025
5028.05758	0.02029
5026.12891	0.02034
5024.20023	0.02037
5022.27156	0.02039
5020.34288	0.02041
5018.41420	0.02044
5016.48553	0.02047
5014.55685	0.02050
5012.62818	0.02055
5010.69950	0.02058
5008.77083	0.02062
5006.84215	0.02064
5004.91347	0.02066
5002.98480	0.02069
5001.05612	0.02073
4999.12745	0.02076
4997.19877	0.02079
4995.27010	0.02083
4993.34142	0.02087
4991.41274	0.02088
4989.48407	0.02089
4987.55539	0.02091
4985.62672	0.02094
4983.69804	0.02097
4981.76937	0.02103
4979.84069	0.02109
4977.91201	0.02112
4975.98334	0.02113
4974.05466	0.02115
4972.12599	0.02120
4970.19731	0.02125
4968.26864	0.02127
4966.33996	0.02127
4964.41128	0.02130
4962.48261	0.02135
4960.55393	0.02139
4958.62526	0.02143
4956.69658	0.02147
4954.76791	0.02150
4952.83923	0.02155
4950.91055	0.02161
4948.98188	0.02165
4947.05320	0.02166
4945.12453	0.02168
4943.19585	0.02172
4941.26718	0.02176
4939.33850	0.02179
4937.40982	0.02181
4935.48115	0.02182
4933.55247	0.02184
4931.62380	0.02187
4929.69512	0.02191
4927.76645	0.02196
4925.83777	0.02202
4923.90909	0.02206
4921.98042	0.02208
4920.05174	0.02210
4918.12307	0.02214
4916.19439	0.02217
4914.26572	0.02220
4912.33704	0.02226
4910.40836	0.02231
4908.47969	0.02234
4906.55101	0.02237
4904.62234	0.02240
4902.69366	0.02243
4900.76499	0.02245
4898.83631	0.02247
4896.90763	0.02249
4894.97896	0.02251
4893.05028	0.02253
4891.12161	0.02257
4889.19293	0.02262
4887.26426	0.02265
4885.33558	0.02269
4883.40690	0.02273
4881.47823	0.02279
4879.54955	0.02283
4877.62088	0.02287
4875.69220	0.02290
4873.76353	0.02292
4871.83485	0.02293
4869.90617	0.02294
4867.97750	0.02297
4866.04882	0.02304
4864.12015	0.02310
4862.19147	0.02314
4860.26280	0.02316
4858.33412	0.02319
4856.40544	0.02322
4854.47677	0.02324
4852.54809	0.02327
4850.61942	0.02330
4848.69074	0.02333
4846.76207	0.02335
4844.83339	0.02338
4842.90471	0.02342
4840.97604	0.02347
4839.04736	0.02354
4837.11869	0.02361
4835.19001	0.02365
4833.26134	0.02366
4831.33266	0.02367
4829.40398	0.02369
4827.47531	0.02372
4825.54663	0.02378
4823.61796	0.02385
4821.68928	0.02391
4819.76061	0.02393
4817.83193	0.02393
4815.90325	0.02394
4813.97458	0.02397
4812.04590	0.02401
4810.11723	0.02405
4808.18855	0.02411
4806.25988	0.02416
4804.33120	0.02420
4802.40252	0.02421
4800.47385	0.02422
4798.54517	0.02424
4796.61650	0.02430
4794.68782	0.02437
4792.75915	0.02442
4790.83047	0.02445
4788.90179	0.02449
4786.97312	0.02451
4785.04444	0.02452
4783.11577	0.02455
4781.18709	0.02461
4779.25842	0.02467
4777.32974	0.02472
4775.40106	0.02474
4773.47239	0.02476
4771.54371	0.02480
4769.61504	0.02484
4767.68636	0.02488
4765.75769	0.02492
4763.82901	0.02495
4761.90033	0.02497
4759.97166	0.02501
4758.04298	0.02505
4756.11431	0.02509
4754.18563	0.02513
4752.25696	0.02517
4750.32828	0.02521
4748.39960	0.02525
4746.47093	0.02527
4744.54225	0.02530
4742.61358	0.02533
4740.68490	0.02537
4738.75623	0.02542
4736.82755	0.02547
4734.89887	0.02551
4732.97020	0.02554
4731.04152	0.02559
4729.11285	0.02564
4727.18417	0.02569
4725.25550	0.02572
4723.32682	0.02574
4721.39814	0.02577
4719.46947	0.02581
4717.54079	0.02586
4715.61212	0.02591
4713.68344	0.02595
4711.75477	0.02598
4709.82609	0.02600
4707.89741	0.02604
4705.96874	0.02608
4704.04006	0.02611
4702.11139	0.02615
4700.18271	0.02619
4698.25404	0.02624
4696.32536	0.02628
4694.39668	0.02630
4692.46801	0.02633
4690.53933	0.02636
4688.61066	0.02641
4686.68198	0.02648
4684.75331	0.02654
4682.82463	0.02656
4680.89595	0.02659
4678.96728	0.02664
4677.03860	0.02668
4675.10993	0.02672
4673.18125	0.02676
4671.25258	0.02681
4669.32390	0.02686
4667.39522	0.02690
4665.46655	0.02693
4663.53787	0.02697
4661.60920	0.02702
4659.68052	0.02705
4657.75185	0.02709
4655.82317	0.02714
4653.89449	0.02717
4651.96582	0.02719
4650.03714	0.02725
4648.10847	0.02731
4646.17979	0.02737
4644.25112	0.02742
4642.32244	0.02745
4640.39376	0.02750
4638.46509	0.02757
4636.53641	0.02761
4634.60774	0.02763
4632.67906	0.02765
4630.75039	0.02768
4628.82171	0.02772
4626.89303	0.02778
4624.96436	0.02783
4623.03568	0.02787
4621.10701	0.02789
4619.17833	0.02793
4617.24966	0.02797
4615.32098	0.02802
4613.39230	0.02806
4611.46363	0.02811
4609.53495	0.02815
4607.60628	0.02819
4605.67760	0.02823
4603.74893	0.02826
4601.82025	0.02830
4599.89157	0.02835
4597.96290	0.02840
4596.03422	0.02845
4594.10555	0.02850
4592.17687	0.02855
4590.24820	0.02860
4588.31952	0.02865
4586.39084	0.02870
4584.46217	0.02872
4582.53349	0.02875
4580.60482	0.02878
4578.67614	0.02881
4576.74747	0.02886
4574.81879	0.02892
4572.89011	0.02897
4570.96144	0.02902
4569.03276	0.02906
4567.10409	0.02911
4565.17541	0.02915
4563.24674	0.02921
4561.31806	0.02926
4559.38938	0.02930
4557.46071	0.02933
4555.53203	0.02938
4553.60336	0.02942
4551.67468	0.02946
4549.74601	0.02950
4547.81733	0.02957
4545.88865	0.02962
4543.95998	0.02966
4542.03130	0.02970
4540.10263	0.02975
4538.17395	0.02981
4536.24528	0.02987
4534.31660	0.02993
4532.38792	0.02998
4530.45925	0.03003
4528.53057	0.03007
4526.60190	0.03011
4524.67322	0.03014
4522.74455	0.03016
4520.81587	0.03020
4518.88719	0.03027
4516.95852	0.03034
4515.02984	0.03041
4513.10117	0.03048
4511.17249	0.03053
4509.24382	0.03055
4507.31514	0.03056
4505.38646	0.03060
4503.45779	0.03066
4501.52911	0.03072
4499.60044	0.03079
4497.67176	0.03085
4495.74309	0.03088
4493.81441	0.03089
4491.88573	0.03094
4489.95706	0.03101
4488.02838	0.03105
4486.09971	0.03110
4484.17103	0.03115
4482.24236	0.03119
4480.31368	0.03122
4478.38500	0.03127
4476.45633	0.03134
4474.52765	0.03141
4472.59898	0.03147
4470.67030	0.03153
4468.74163	0.03160
4466.81295	0.03165
4464.88427	0.03168
4462.95560	0.03171
4461.02692	0.03173
4459.09825	0.03175
4457.16957	0.03179
4455.24090	0.03187
4453.31222	0.03195
4451.38354	0.03202
4449.45487	0.03208
4447.52619	0.03213
4445.59752	0.03219
4443.66884	0.03225
4441.74017	0.03230
4439.81149	0.03233
4437.88281	0.03237
4435.95414	0.03244
4434.02546	0.03250
4432.09679	0.03254
4430.16811	0.03257
4428.23944	0.03263
4426.31076	0.03270
4424.38208	0.03277
4422.45341	0.03281
4420.52473	0.03285
4418.59606	0.03289
4416.66738	0.03294
4414.73871	0.03300
4412.81003	0.03306
4410.88135	0.03312
4408.95268	0.03316
4407.02400	0.03322
4405.09533	0.03328
4403.16665	0.03335
4401.23798	0.03341
4399.30930	0.03346
4397.38062	0.03349
4395.45195	0.03352
4393.52327	0.03355
4391.59460	0.03359
4389.66592	0.03366
4387.73725	0.03374
4385.80857	0.03381
4383.87989	0.03388
4381.95122	0.03393
4380.02254	0.03397
4378.09387	0.03402
4376.16519	0.03409
4374.23652	0.03415
4372.30784	0.03421
4370.37916	0.03428
4368.45049	0.03434
4366.52181	0.03440
4364.59314	0.03447
4362.66446	0.03453
4360.73579	0.03459
4358.80711	0.03464
4356.87843	0.03469
4354.94976	0.03474
4353.02108	0.03479
4351.09241	0.03484
4349.16373	0.03490
4347.23506	0.03496
4345.30638	0.03503
4343.37770	0.03510
4341.44903	0.03514
4339.52035	0.03517
4337.59168	0.03523
4335.66300	0.03531
4333.73433	0.03539
4331.80565	0.03542
4329.87697	0.03545
4327.94830	0.03551
4326.01962	0.03560
4324.09095	0.03566
4322.16227	0.03571
4320.23360	0.03577
4318.30492	0.03585
4316.37624	0.03593
4314.44757	0.03600
4312.51889	0.03607
4310.59022	0.03613
4308.66154	0.03617
4306.73287	0.03622
4304.80419	0.03630
4302.87551	0.03636
4300.94684	0.03641
4299.01816	0.03646
4297.08949	0.03653
4295.16081	0.03662
4293.23214	0.03668
4291.30346	0.03673
4289.37478	0.03678
4287.44611	0.03685
4285.51743	0.03692
4283.58876	0.03699
4281.66008	0.03706
4279.73141	0.03713
4277.80273	0.03719
4275.87405	0.03724
4273.94538	0.03730
4272.01670	0.03735
4270.08803	0.03741
4268.15935	0.03748
4266.23068	0.03756
4264.30200	0.03763
4262.37332	0.03768
4260.44465	0.03773
4258.51597	0.03780
4256.58730	0.03787
4254.65862	0.03793
4252.72995	0.03799
4250.80127	0.03804
4248.87259	0.03810
4246.94392	0.03819
4245.01524	0.03827
4243.08657	0.03833
4241.15789	0.03838
4239.22922	0.03844
4237.30054	0.03852
4235.37186	0.03859
4233.44319	0.03864
4231.51451	0.03869
4229.58584	0.03874
4227.65716	0.03878
4225.72849	0.03884
4223.79981	0.03893
4221.87113	0.03902
4219.94246	0.03909
4218.01378	0.03914
4216.08511	0.03920
4214.15643	0.03926
4212.22776	0.03931
4210.29908	0.03938
4208.37040	0.03946
4206.44173	0.03954
4204.51305	0.03961
4202.58438	0.03967
4200.65570	0.03973
4198.72703	0.03981
4196.79835	0.03987
4194.86968	0.03992
4192.94100	0.04002
4191.01232	0.04013
4189.08365	0.04021
4187.15497	0.04028
4185.22630	0.04034
4183.29762	0.04041
4181.36895	0.04049
4179.44027	0.04058
4177.51159	0.04066
4175.58292	0.04071
4173.65424	0.04075
4171.72557	0.04080
4169.79689	0.04088
4167.86822	0.04096
4165.93954	0.04102
4164.01086	0.04110
4162.08219	0.04119
4160.15351	0.04125
4158.22484	0.04128
4156.29616	0.04134
4154.36749	0.04143
4152.43881	0.04154
4150.51013	0.04163
4148.58146	0.04170
4146.65278	0.04176
4144.72411	0.04183
4142.79543	0.04191
4140.86676	0.04197
4138.93808	0.04205
4137.00940	0.04215
4135.08073	0.04224
4133.15205	0.04230
4131.22338	0.04236
4129.29470	0.04245
4127.36603	0.04254
4125.43735	0.04261
4123.50867	0.04267
4121.58000	0.04272
4119.65132	0.04280
4117.72265	0.04288
4115.79397	0.04295
4113.86530	0.04303
4111.93662	0.04312
4110.00794	0.04319
4108.07927	0.04326
4106.15059	0.04336
4104.22192	0.04347
4102.29324	0.04356
4100.36457	0.04362
4098.43589	0.04366
4096.50721	0.04373
4094.57854	0.04380
4092.64986	0.04388
4090.72119	0.04396
4088.79251	0.04404
4086.86384	0.04413
4084.93516	0.04423
4083.00648	0.04431
4081.07781	0.04438
4079.14913	0.04445
4077.22046	0.04452
4075.29178	0.04458
4073.36311	0.04465
4071.43443	0.04474
4069.50575	0.04483
4067.57708	0.04491
4065.64840	0.04498
4063.71973	0.04506
4061.79105	0.04514
4059.86238	0.04522
4057.93370	0.04528
4056.00502	0.04537
4054.07635	0.04548
4052.14767	0.04557
4050.21900	0.04564
4048.29032	0.04572
4046.36165	0.04581
4044.43297	0.04589
4042.50429	0.04594
4040.57562	0.04601
4038.64694	0.04610
4036.71827	0.04618
4034.78959	0.04625
4032.86092	0.04633
4030.93224	0.04643
4029.00356	0.04654
4027.07489	0.04663
4025.14621	0.04669
4023.21754	0.04678
4021.28886	0.04688
4019.36019	0.04697
4017.43151	0.04704
4015.50283	0.04710
4013.57416	0.04718
4011.64548	0.04726
4009.71681	0.04735
4007.78813	0.04743
4005.85946	0.04751
4003.93078	0.04760
4002.00210	0.04768
4000.07343	0.04774
3998.14475	0.04782
3996.21608	0.04790
3994.28740	0.04799
3992.35873	0.04807
3990.43005	0.04815
3988.50137	0.04825
3986.57270	0.04835
3984.64402	0.04845
3982.71535	0.04853
3980.78667	0.04860
3978.85800	0.04868
3976.92932	0.04876
3975.00064	0.04885
3973.07197	0.04897
3971.14329	0.04907
3969.21462	0.04913
3967.28594	0.04918
3965.35727	0.04923
3963.42859	0.04930
3961.49991	0.04940
3959.57124	0.04952
3957.64256	0.04962
3955.71389	0.04971
3953.78521	0.04981
3951.85654	0.04991
3949.92786	0.04999
3947.99918	0.05005
3946.07051	0.05012
3944.14183	0.05018
3942.21316	0.05028
3940.28448	0.05040
3938.35581	0.05051
3936.42713	0.05059
3934.49845	0.05064
3932.56978	0.05069
3930.64110	0.05078
3928.71243	0.05088
3926.78375	0.05095
3924.85508	0.05105
3922.92640	0.05119
3920.99772	0.05130
3919.06905	0.05135
3917.14037	0.05141
3915.21170	0.05153
3913.28302	0.05167
3911.35435	0.05176
3909.42567	0.05183
3907.49699	0.05185
3905.56832	0.05183
3903.63964	0.05181
3901.71097	0.05185
3899.78229	0.05198
3897.85362	0.05221
3895.92494	0.05243
3893.99626	0.05251
3892.06759	0.05253
3890.13891	0.05264
3888.21024	0.05275
3886.28156	0.05280
3884.35289	0.05287
3882.42421	0.05292
3880.49553	0.05300
3878.56686	0.05321
3876.63818	0.05339
3874.70951	0.05347
3872.78083	0.05350
3870.85216	0.05351
3868.92348	0.05357
3866.99480	0.05367
3865.06613	0.05375
3863.13745	0.05388
3861.20878	0.05406
3859.28010	0.05419
3857.35143	0.05411
3855.42275	0.05385
3853.49407	0.05382
3851.56540	0.05420
3849.63672	0.05462
3847.70805	0.05482
3845.77937	0.05485
3843.85070	0.05485
3841.92202	0.05489
3839.99334	0.05491
3838.06467	0.05495
3836.13599	0.05508
3834.20732	0.05526
3832.27864	0.05543
3830.34997	0.05560
3828.42129	0.05573
3826.49261	0.05581
3824.56394	0.05584
3822.63526	0.05582
3820.70659	0.05586
3818.77791	0.05598
3816.84924	0.05609
3814.92056	0.05627
3812.99188	0.05652
3811.06321	0.05667
3809.13453	0.05669
3807.20586	0.05669
3805.27718	0.05675
3803.34851	0.05679
3801.41983	0.05684
3799.49115	0.05701
3797.56248	0.05718
3795.63380	0.05734
3793.70513	0.05752
3791.77645	0.05766
3789.84778	0.05776
3787.91910	0.05786
3785.99042	0.05794
3784.06175	0.05801
3782.13307	0.05808
3780.20440	0.05814
3778.27572	0.05823
3776.34705	0.05838
3774.41837	0.05851
3772.48969	0.05855
3770.56102	0.05859
3768.63234	0.05870
3766.70367	0.05885
3764.77499	0.05899
3762.84632	0.05906
3760.91764	0.05904
3758.98896	0.05907
3757.06029	0.05917
3755.13161	0.05918
3753.20294	0.05908
3751.27426	0.05907
3749.34559	0.05923
3747.41691	0.05930
3745.48823	0.05922
3743.55956	0.05939
3741.63088	0.05980
3739.70221	0.06000
3737.77353	0.05996
3735.84486	0.05997
3733.91618	0.06014
3731.98750	0.06040
3730.05883	0.06064
3728.13015	0.06076
3726.20148	0.06083
3724.27280	0.06093
3722.34413	0.06103
3720.41545	0.06115
3718.48677	0.06132
3716.55810	0.06147
3714.62942	0.06153
3712.70075	0.06150
3710.77207	0.06155
3708.84340	0.06174
3706.91472	0.06195
3704.98604	0.06206
3703.05737	0.06210
3701.12869	0.06219
3699.20002	0.06232
3697.27134	0.06245
3695.34267	0.06250
3693.41399	0.06248
3691.48531	0.06242
3689.55664	0.06247
3687.62796	0.06270
3685.69929	0.06299
3683.77061	0.06316
3681.84194	0.06323
3679.91326	0.06324
3677.98458	0.06318
3676.05591	0.06317
3674.12723	0.06332
3672.19856	0.06347
3670.26988	0.06355
3668.34121	0.06373
3666.41253	0.06398
3664.48385	0.06415
3662.55518	0.06425
3660.62650	0.06430
3658.69783	0.06430
3656.76915	0.06432
3654.84048	0.06437
3652.91180	0.06430
3650.98312	0.06410
3649.05445	0.06400
3647.12577	0.06416
3645.19710	0.06450
3643.26842	0.06482
3641.33975	0.06502
3639.41107	0.06515
3637.48239	0.06524
3635.55372	0.06532
3633.62504	0.06537
3631.69637	0.06530
3629.76769	0.06518
3627.83902	0.06527
3625.91034	0.06557
3623.98166	0.06577
3622.05299	0.06577
3620.12431	0.06572
3618.19564	0.06578
3616.26696	0.06591
3614.33829	0.06596
3612.40961	0.06596
3610.48093	0.06597
3608.55226	0.06608
3606.62358	0.06628
3604.69491	0.06647
3602.76623	0.06655
3600.83756	0.06658
3598.90888	0.06665
3596.98020	0.06675
3595.05153	0.06681
3593.12285	0.06688
3591.19418	0.06691
3589.26550	0.06688
3587.33683	0.06688
3585.40815	0.06705
3583.47947	0.06730
3581.55080	0.06745
3579.62212	0.06754
3577.69345	0.06763
3575.76477	0.06771
3573.83610	0.06777
3571.90742	0.06780
3569.97874	0.06775
3568.05007	0.06771
3566.12139	0.06781
3564.19272	0.06802
3562.26404	0.06818
3560.33537	0.06828
3558.40669	0.06837
3556.47801	0.06846
3554.54934	0.06851
3552.62066	0.06854
3550.69199	0.06861
3548.76331	0.06868
3546.83464	0.06872
3544.90596	0.06877
3542.97728	0.06888
3541.04861	0.06899
3539.11993	0.06906
3537.19126	0.06912
3535.26258	0.06916
3533.33391	0.06922
3531.40523	0.06928
3529.47655	0.06931
3527.54788	0.06932
3525.61920	0.06935
3523.69053	0.06938
3521.76185	0.06943
3519.83318	0.06948
3517.90450	0.06951
3515.97582	0.06951
3514.04715	0.06955
3512.11847	0.06962
3510.18980	0.06966
3508.26112	0.06967
3506.33245	0.06970
3504.40377	0.06973
3502.47509	0.06974
3500.54642	0.06976
3498.61774	0.06981
3496.68907	0.06984
3494.76039	0.06984
3492.83172	0.06983
3490.90304	0.06983
3488.97436	0.06984
3487.04569	0.06990
3485.11701	0.06998
3483.18834	0.07003
3481.25966	0.07008
3479.33099	0.07014
3477.40231	0.07019
3475.47363	0.07025
3473.54496	0.07032
3471.61628	0.07040
3469.68761	0.07049
3467.75893	0.07059
3465.83026	0.07070
3463.90158	0.07084
3461.97290	0.07099
3460.04423	0.07111
3458.11555	0.07118
3456.18688	0.07123
3454.25820	0.07131
3452.32953	0.07143
3450.40085	0.07155
3448.47217	0.07162
3446.54350	0.07169
3444.61482	0.07180
3442.68615	0.07193
3440.75747	0.07209
3438.82880	0.07226
3436.90012	0.07243
3434.97144	0.07260
3433.04277	0.07282
3431.11409	0.07307
3429.18542	0.07333
3427.25674	0.07355
3425.32807	0.07377
3423.39939	0.07396
3421.47071	0.07416
3419.54204	0.07437
3417.61336	0.07458
3415.68469	0.07473
3413.75601	0.07488
3411.82734	0.07506
3409.89866	0.07522
3407.96998	0.07536
3406.04131	0.07550
3404.11263	0.07563
3402.18396	0.07577
3400.25528	0.07592
3398.32661	0.07609
3396.39793	0.07628
3394.46925	0.07643
3392.54058	0.07656
3390.61190	0.07670
3388.68323	0.07684
3386.75455	0.07698
3384.82588	0.07713
3382.89720	0.07727
3380.96852	0.07738
3379.03985	0.07752
3377.11117	0.07767
3375.18250	0.07783
3373.25382	0.07798
3371.32515	0.07811
3369.39647	0.07824
3367.46779	0.07838
3365.53912	0.07851
3363.61044	0.07864
3361.68177	0.07879
3359.75309	0.07893
3357.82442	0.07906
3355.89574	0.07919
3353.96706	0.07933
3352.03839	0.07944
3350.10971	0.07956
3348.18104	0.07970
3346.25236	0.07984
3344.32369	0.07996
3342.39501	0.08008
3340.46633	0.08021
3338.53766	0.08034
3336.60898	0.08047
3334.68031	0.08061
3332.75163	0.08074
3330.82296	0.08090
3328.89428	0.08104
3326.96560	0.08114
3325.03693	0.08125
3323.10825	0.08139
3321.17958	0.08155
3319.25090	0.08171
3317.32223	0.08189
3315.39355	0.08208
3313.46487	0.08222
3311.53620	0.08231
3309.60752	0.08241
3307.67885	0.08254
3305.75017	0.08267
3303.82150	0.08280
3301.89282	0.08296
3299.96414	0.08311
3298.03547	0.08323
3296.10679	0.08336
3294.17812	0.08354
3292.24944	0.08371
3290.32077	0.08385
3288.39209	0.08402
3286.46341	0.08417
3284.53474	0.08427
3282.60606	0.08436
3280.67739	0.08451
3278.74871	0.08469
3276.82004	0.08486
3274.89136	0.08503
3272.96268	0.08518
3271.03401	0.08534
3269.10533	0.08546
3267.17666	0.08558
3265.24798	0.08569
3263.31931	0.08584
3261.39063	0.08602
3259.46195	0.08619
3257.53328	0.08634
3255.60460	0.08648
3253.67593	0.08662
3251.74725	0.08674
3249.81858	0.08687
3247.88990	0.08704
3245.96122	0.08721
3244.03255	0.08738
3242.10387	0.08755
3240.17520	0.08771
3238.24652	0.08785
3236.31785	0.08794
3234.38917	0.08804
3232.46049	0.08817
3230.53182	0.08834
3228.60314	0.08850
3226.67447	0.08863
3224.74579	0.08876
3222.81712	0.08890
3220.88844	0.08905
3218.95976	0.08920
3217.03109	0.08935
3215.10241	0.08950
3213.17374	0.08966
3211.24506	0.08982
3209.31639	0.08995
3207.38771	0.09006
3205.45903	0.09018
3203.53036	0.09034
3201.60168	0.09050
3199.67301	0.09063
3197.74433	0.09079
3195.81566	0.09094
3193.88698	0.09107
3191.95830	0.09122
3190.02963	0.09140
3188.10095	0.09160
3186.17228	0.09180
3184.24360	0.09199
3182.31493	0.09216
3180.38625	0.09231
3178.45757	0.09245
3176.52890	0.09258
3174.60022	0.09270
3172.67155	0.09282
3170.74287	0.09297
3168.81420	0.09314
3166.88552	0.09330
3164.95684	0.09345
3163.02817	0.09361
3161.09949	0.09377
3159.17082	0.09390
3157.24214	0.09404
3155.31347	0.09417
3153.38479	0.09433
3151.45611	0.09451
3149.52744	0.09465
3147.59876	0.09476
3145.67009	0.09491
3143.74141	0.09507
3141.81274	0.09523
3139.88406	0.09540
3137.95538	0.09555
3136.02671	0.09567
3134.09803	0.09580
3132.16936	0.09594
3130.24068	0.09607
3128.31201	0.09622
3126.38333	0.09638
3124.45465	0.09653
3122.52598	0.09667
3120.59730	0.09679
3118.66863	0.09692
3116.73995	0.09705
3114.81128	0.09718
3112.88260	0.09733
3110.95392	0.09749
3109.02525	0.09764
3107.09657	0.09778
3105.16790	0.09792
3103.23922	0.09806
3101.31055	0.09823
3099.38187	0.09841
3097.45319	0.09858
3095.52452	0.09873
3093.59584	0.09886
3091.66717	0.09900
3089.73849	0.09914
3087.80982	0.09927
3085.88114	0.09942
3083.95246	0.09961
3082.02379	0.09977
3080.09511	0.09991
3078.16644	0.10004
3076.23776	0.10019
3074.30909	0.10036
3072.38041	0.10052
3070.45173	0.10062
3068.52306	0.10070
3066.59438	0.10085
3064.66571	0.10102
3062.73703	0.10117
3060.80836	0.10132
3058.87968	0.10145
3056.95100	0.10157
3055.02233	0.10170
3053.09365	0.10187
3051.16498	0.10203
3049.23630	0.10217
3047.30763	0.10231
3045.37895	0.10242
3043.45027	0.10254
3041.52160	0.10268
3039.59292	0.10284
3037.66425	0.10299
3035.73557	0.10312
3033.80690	0.10327
3031.87822	0.10344
3029.94954	0.10359
3028.02087	0.10371
3026.09219	0.10383
3024.16352	0.10397
3022.23484	0.10409
3020.30617	0.10420
3018.37749	0.10429
3016.44881	0.10441
3014.52014	0.10458
3012.59146	0.10476
3010.66279	0.10489
3008.73411	0.10500
3006.80544	0.10509
3004.87676	0.10520
3002.94808	0.10531
3001.01941	0.10540
2999.09073	0.10552
2997.16206	0.10563
2995.23338	0.10573
2993.30471	0.10582
2991.37603	0.10587
2989.44735	0.10588
2987.51868	0.10587
2985.59000	0.10584
2983.66133	0.10580
2981.73265	0.10572
2979.80398	0.10556
2977.87530	0.10529
2975.94662	0.10497
2974.01795	0.10462
2972.08927	0.10424
2970.16060	0.10381
2968.23192	0.10335
2966.30325	0.10293
2964.37457	0.10264
2962.44589	0.10251
2960.51722	0.10256
2958.58854	0.10283
2956.65987	0.10334
2954.73119	0.10404
2952.80252	0.10485
2950.87384	0.10565
2948.94516	0.10635
2947.01649	0.10692
2945.08781	0.10737
2943.15914	0.10770
2941.23046	0.10796
2939.30179	0.10811
2937.37311	0.10818
2935.44443	0.10820
2933.51576	0.10818
2931.58708	0.10809
2929.65841	0.10800
2927.72973	0.10794
2925.80106	0.10793
2923.87238	0.10796
2921.94370	0.10801
2920.01503	0.10804
2918.08635	0.10814
2916.15768	0.10842
2914.22900	0.10882
2912.30033	0.10928
2910.37165	0.10971
2908.44297	0.11004
2906.51430	0.11027
2904.58562	0.11047
2902.65695	0.11071
2900.72827	0.11098
2898.79960	0.11126
2896.87092	0.11154
2894.94224	0.11182
2893.01357	0.11211
2891.08489	0.11243
2889.15622	0.11275
2887.22754	0.11301
2885.29887	0.11321
2883.37019	0.11341
2881.44151	0.11361
2879.51284	0.11380
2877.58416	0.11395
2875.65549	0.11410
2873.72681	0.11429
2871.79814	0.11449
2869.86946	0.11466
2867.94078	0.11481
2866.01211	0.11496
2864.08343	0.11509
2862.15476	0.11514
2860.22608	0.11515
2858.29741	0.11517
2856.36873	0.11520
2854.44005	0.11520
2852.51138	0.11517
2850.58270	0.11522
2848.65403	0.11553
2846.72535	0.11607
2844.79668	0.11663
2842.86800	0.11708
2840.93932	0.11744
2839.01065	0.11778
2837.08197	0.11809
2835.15330	0.11834
2833.22462	0.11853
2831.29595	0.11869
2829.36727	0.11885
2827.43859	0.11902
2825.50992	0.11917
2823.58124	0.11931
2821.65257	0.11949
2819.72389	0.11972
2817.79522	0.11995
2815.86654	0.12013
2813.93786	0.12028
2812.00919	0.12044
2810.08051	0.12059
2808.15184	0.12073
2806.22316	0.12086
2804.29449	0.12099
2802.36581	0.12118
2800.43713	0.12143
2798.50846	0.12163
2796.57978	0.12176
2794.65111	0.12189
2792.72243	0.12207
2790.79376	0.12225
2788.86508	0.12242
2786.93640	0.12260
2785.00773	0.12279
2783.07905	0.12296
2781.15038	0.12311
2779.22170	0.12328
2777.29303	0.12346
2775.36435	0.12364
2773.43567	0.12380
2771.50700	0.12395
2769.57832	0.12408
2767.64965	0.12422
2765.72097	0.12440
2763.79230	0.12459
2761.86362	0.12474
2759.93494	0.12490
2758.00627	0.12510
2756.07759	0.12528
2754.14892	0.12542
2752.22024	0.12555
2750.29157	0.12569
2748.36289	0.12585
2746.43421	0.12598
2744.50554	0.12613
2742.57686	0.12630
2740.64819	0.12646
2738.71951	0.12659
2736.79084	0.12672
2734.86216	0.12685
2732.93348	0.12699
2731.00481	0.12716
2729.07613	0.12735
2727.14746	0.12753
2725.21878	0.12768
2723.29011	0.12779
2721.36143	0.12790
2719.43275	0.12808
2717.50408	0.12826
2715.57540	0.12841
2713.64673	0.12854
2711.71805	0.12867
2709.78938	0.12879
2707.86070	0.12894
2705.93202	0.12909
2704.00335	0.12924
2702.07467	0.12940
2700.14600	0.12956
2698.21732	0.12970
2696.28865	0.12981
2694.35997	0.12993
2692.43129	0.13010
2690.50262	0.13029
2688.57394	0.13048
2686.64527	0.13064
2684.71659	0.13079
2682.78792	0.13095
2680.85924	0.13111
2678.93056	0.13123
2677.00189	0.13131
2675.07321	0.13142
2673.14454	0.13155
2671.21586	0.13170
2669.28719	0.13186
2667.35851	0.13202
2665.42983	0.13217
2663.50116	0.13231
2661.57248	0.13244
2659.64381	0.13259
2657.71513	0.13277
2655.78646	0.13295
2653.85778	0.13313
2651.92910	0.13332
2650.00043	0.13348
2648.07175	0.13361
2646.14308	0.13375
2644.21440	0.13394
2642.28573	0.13412
2640.35705	0.13428
2638.42837	0.13444
2636.49970	0.13457
2634.57102	0.13467
2632.64235	0.13480
2630.71367	0.13496
2628.78500	0.13514
2626.85632	0.13530
2624.92764	0.13546
2622.99897	0.13563
2621.07029	0.13579
2619.14162	0.13596
2617.21294	0.13614
2615.28427	0.13632
2613.35559	0.13649
2611.42691	0.13664
2609.49824	0.13678
2607.56956	0.13691
2605.64089	0.13707
2603.71221	0.13727
2601.78354	0.13748
2599.85486	0.13764
2597.92618	0.13778
2595.99751	0.13793
2594.06883	0.13810
2592.14016	0.13823
2590.21148	0.13834
2588.28281	0.13849
2586.35413	0.13864
2584.42545	0.13875
2582.49678	0.13886
2580.56810	0.13900
2578.63943	0.13916
2576.71075	0.13935
2574.78208	0.13956
2572.85340	0.13972
2570.92472	0.13983
2568.99605	0.13995
2567.06737	0.14011
2565.13870	0.14032
2563.21002	0.14049
2561.28135	0.14062
2559.35267	0.14076
2557.42399	0.14087
2555.49532	0.14097
2553.56664	0.14113
2551.63797	0.14133
2549.70929	0.14150
2547.78062	0.14164
2545.85194	0.14175
2543.92326	0.14189
2541.99459	0.14206
2540.06591	0.14224
2538.13724	0.14241
2536.20856	0.14258
2534.27989	0.14272
2532.35121	0.14285
2530.42253	0.14296
2528.49386	0.14308
2526.56518	0.14323
2524.63651	0.14342
2522.70783	0.14364
2520.77916	0.14383
2518.85048	0.14395
2516.92181	0.14402
2514.99313	0.14416
2513.06445	0.14439
2511.13578	0.14464
2509.20710	0.14484
2507.27843	0.14494
2505.34975	0.14501
2503.42108	0.14516
2501.49240	0.14538
2499.56372	0.14559
2497.63505	0.14577
2495.70637	0.14591
2493.77770	0.14606
2491.84902	0.14623
2489.92035	0.14637
2487.99167	0.14652
2486.06299	0.14671
2484.13432	0.14689
2482.20564	0.14705
2480.27697	0.14721
2478.34829	0.14737
2476.41962	0.14751
2474.49094	0.14767
2472.56226	0.14784
2470.63359	0.14799
2468.70491	0.14814
2466.77624	0.14830
2464.84756	0.14847
2462.91889	0.14865
2460.99021	0.14881
2459.06153	0.14895
2457.13286	0.14911
2455.20418	0.14924
2453.27551	0.14937
2451.34683	0.14952
2449.41816	0.14967
2447.48948	0.14983
2445.56080	0.15001
2443.63213	0.15021
2441.70345	0.15040
2439.77478	0.15057
2437.84610	0.15072
2435.91743	0.15086
2433.98875	0.15100
2432.06007	0.15115
2430.13140	0.15131
2428.20272	0.15146
2426.27405	0.15161
2424.34537	0.15179
2422.41670	0.15198
2420.48802	0.15215
2418.55934	0.15232
2416.63067	0.15248
2414.70199	0.15263
2412.77332	0.15277
2410.84464	0.15292
2408.91597	0.15308
2406.98729	0.15326
2405.05861	0.15342
2403.12994	0.15353
2401.20126	0.15362
2399.27259	0.15376
2397.34391	0.15396
2395.41524	0.15417
2393.48656	0.15434
2391.55788	0.15448
2389.62921	0.15459
2387.70053	0.15468
2385.77186	0.15480
2383.84318	0.15497
2381.91451	0.15511
2379.98583	0.15520
2378.05715	0.15526
2376.12848	0.15533
2374.19980	0.15540
2372.27113	0.15541
2370.34245	0.15538
2368.41378	0.15535
2366.48510	0.15538
2364.55642	0.15548
2362.62775	0.15562
2360.69907	0.15580
2358.77040	0.15603
2356.84172	0.15628
2354.91305	0.15655
2352.98437	0.15685
2351.05569	0.15718
2349.12702	0.15745
2347.19834	0.15755
2345.26967	0.15753
2343.34099	0.15755
2341.41232	0.15762
2339.48364	0.15773
2337.55496	0.15789
2335.62629	0.15807
2333.69761	0.15827
2331.76894	0.15847
2329.84026	0.15865
2327.91159	0.15883
2325.98291	0.15904
2324.05423	0.15927
2322.12556	0.15949
2320.19688	0.15970
2318.26821	0.15989
2316.33953	0.16009
2314.41086	0.16033
2312.48218	0.16059
2310.55350	0.16082
2308.62483	0.16103
2306.69615	0.16121
2304.76748	0.16138
2302.83880	0.16152
2300.91013	0.16167
2298.98145	0.16185
2297.05277	0.16204
2295.12410	0.16222
2293.19542	0.16238
2291.26675	0.16250
2289.33807	0.16266
2287.40940	0.16285
2285.48072	0.16301
2283.55204	0.16317
2281.62337	0.16335
2279.69469	0.16352
2277.76602	0.16366
2275.83734	0.16382
2273.90867	0.16401
2271.97999	0.16416
2270.05131	0.16428
2268.12264	0.16439
2266.19396	0.16454
2264.26529	0.16473
2262.33661	0.16489
2260.40794	0.16505
2258.47926	0.16524
2256.55058	0.16541
2254.62191	0.16557
2252.69323	0.16570
2250.76456	0.16583
2248.83588	0.16600
2246.90721	0.16618
2244.97853	0.16631
2243.04985	0.16644
2241.12118	0.16657
2239.19250	0.16670
2237.26383	0.16686
2235.33515	0.16704
2233.40648	0.16719
2231.47780	0.16732
2229.54912	0.16743
2227.62045	0.16755
2225.69177	0.16772
2223.76310	0.16792
2221.83442	0.16809
2219.90575	0.16827
2217.97707	0.16846
2216.04839	0.16863
2214.11972	0.16879
2212.19104	0.16894
2210.26237	0.16905
2208.33369	0.16916
2206.40502	0.16929
2204.47634	0.16943
2202.54766	0.16953
2200.61899	0.16963
2198.69031	0.16982
2196.76164	0.17002
2194.83296	0.17013
2192.90429	0.17022
2190.97561	0.17035
2189.04693	0.17052
2187.11826	0.17068
2185.18958	0.17081
2183.26091	0.17092
2181.33223	0.17110
2179.40356	0.17130
2177.47488	0.17143
2175.54620	0.17152
2173.61753	0.17164
2171.68885	0.17177
2169.76018	0.17188
2167.83150	0.17198
2165.90283	0.17208
2163.97415	0.17219
2162.04547	0.17233
2160.11680	0.17249
2158.18812	0.17264
2156.25945	0.17281
2154.33077	0.17295
2152.40210	0.17311
2150.47342	0.17328
2148.54474	0.17341
2146.61607	0.17356
2144.68739	0.17373
2142.75872	0.17387
2140.83004	0.17401
2138.90137	0.17415
2136.97269	0.17426
2135.04401	0.17438
2133.11534	0.17452
2131.18666	0.17468
2129.25799	0.17491
2127.32931	0.17513
2125.40064	0.17529
2123.47196	0.17543
2121.54328	0.17561
2119.61461	0.17582
2117.68593	0.17602
2115.75726	0.17621
2113.82858	0.17639
2111.89991	0.17656
2109.97123	0.17670
2108.04255	0.17686
2106.11388	0.17707
2104.18520	0.17730
2102.25653	0.17751
2100.32785	0.17773
2098.39918	0.17792
2096.47050	0.17804
2094.54182	0.17817
2092.61315	0.17836
2090.68447	0.17858
2088.75580	0.17881
2086.82712	0.17900
2084.89845	0.17916
2082.96977	0.17932
2081.04109	0.17950
2079.11242	0.17969
2077.18374	0.17990
2075.25507	0.18012
2073.32639	0.18035
2071.39772	0.18053
2069.46904	0.18068
2067.54036	0.18081
2065.61169	0.18094
2063.68301	0.18109
2061.75434	0.18127
2059.82566	0.18146
2057.89699	0.18165
2055.96831	0.18187
2054.03963	0.18210
2052.11096	0.18227
2050.18228	0.18242
2048.25361	0.18257
2046.32493	0.18274
2044.39626	0.18293
2042.46758	0.18312
2040.53890	0.18327
2038.61023	0.18340
2036.68155	0.18355
2034.75288	0.18371
2032.82420	0.18388
2030.89553	0.18403
2028.96685	0.18417
2027.03817	0.18435
2025.10950	0.18455
2023.18082	0.18471
2021.25215	0.18484
2019.32347	0.18499
2017.39480	0.18514
2015.46612	0.18531
2013.53744	0.18552
2011.60877	0.18574
2009.68009	0.18589
2007.75142	0.18599
2005.82274	0.18612
2003.89407	0.18630
2001.96539	0.18648
2000.03671	0.18662
1998.10804	0.18677
1996.17936	0.18693
1994.25069	0.18703
1992.32201	0.18711
1990.39334	0.18724
1988.46466	0.18740
1986.53598	0.18758
1984.60731	0.18775
1982.67863	0.18788
1980.74996	0.18803
1978.82128	0.18817
1976.89261	0.18825
1974.96393	0.18834
1973.03525	0.18842
1971.10658	0.18852
1969.17790	0.18866
1967.24923	0.18882
1965.32055	0.18899
1963.39188	0.18914
1961.46320	0.18925
1959.53452	0.18937
1957.60585	0.18953
1955.67717	0.18971
1953.74850	0.18989
1951.81982	0.19007
1949.89115	0.19018
1947.96247	0.19024
1946.03379	0.19029
1944.10512	0.19035
1942.17644	0.19050
1940.24777	0.19078
1938.31909	0.19107
1936.39042	0.19127
1934.46174	0.19141
1932.53306	0.19150
1930.60439	0.19160
1928.67571	0.19173
1926.74704	0.19186
1924.81836	0.19194
1922.88969	0.19207
1920.96101	0.19221
1919.03233	0.19230
1917.10366	0.19245
1915.17498	0.19274
1913.24631	0.19301
1911.31763	0.19319
1909.38896	0.19332
1907.46028	0.19344
1905.53160	0.19356
1903.60293	0.19370
1901.67425	0.19386
1899.74558	0.19405
1897.81690	0.19421
1895.88823	0.19434
1893.95955	0.19448
1892.03087	0.19457
1890.10220	0.19463
1888.17352	0.19476
1886.24485	0.19494
1884.31617	0.19513
1882.38750	0.19534
1880.45882	0.19549
1878.53014	0.19560
1876.60147	0.19575
1874.67279	0.19592
1872.74412	0.19594
1870.81544	0.19572
1868.88677	0.19565
1866.95809	0.19602
1865.02941	0.19651
1863.10074	0.19681
1861.17206	0.19697
1859.24339	0.19712
1857.31471	0.19732
1855.38604	0.19752
1853.45736	0.19768
1851.52868	0.19779
1849.60001	0.19785
1847.67133	0.19784
1845.74266	0.19782
1843.81398	0.19797
1841.88531	0.19830
1839.95663	0.19859
1838.02795	0.19877
1836.09928	0.19891
1834.17060	0.19905
1832.24193	0.19909
1830.31325	0.19910
1828.38458	0.19923
1826.45590	0.19941
1824.52722	0.19960
1822.59855	0.19986
1820.66987	0.20012
1818.74120	0.20026
1816.81252	0.20037
1814.88385	0.20047
1812.95517	0.20048
1811.02649	0.20053
1809.09782	0.20070
1807.16914	0.20088
1805.24047	0.20099
1803.31179	0.20098
1801.38312	0.20093
1799.45444	0.20102
1797.52576	0.20118
1795.59709	0.20117
1793.66841	0.20104
1791.73974	0.20116
1789.81106	0.20159
1787.88239	0.20186
1785.95371	0.20183
1784.02503	0.20186
1782.09636	0.20204
1780.16768	0.20224
1778.23901	0.20242
1776.31033	0.20249
1774.38166	0.20236
1772.45298	0.20222
1770.52430	0.20235
1768.59563	0.20267
1766.66695	0.20295
1764.73828	0.20303
1762.80960	0.20295
1760.88093	0.20299
1758.95225	0.20317
1757.02357	0.20325
1755.09490	0.20317
1753.16622	0.20279
1751.23755	0.20238
1749.30887	0.20244
1747.38020	0.20276
1745.45152	0.20289
1743.52284	0.20278
1741.59417	0.20259
1739.66549	0.20258
1737.73682	0.20272
1735.80814	0.20265
1733.87947	0.20259
1731.95079	0.20290
1730.02211	0.20331
1728.09344	0.20356
1726.16476	0.20369
1724.23609	0.20380
1722.30741	0.20385
1720.37874	0.20369
1718.45006	0.20347
1716.52138	0.20359
1714.59271	0.20405
1712.66403	0.20450
1710.73536	0.20477
1708.80668	0.20484
1706.87801	0.20475
1704.94933	0.20462
1703.02065	0.20431
1701.09198	0.20395
1699.16330	0.20404
1697.23463	0.20446
1695.30595	0.20484
1693.37728	0.20512
1691.44860	0.20519
1689.51992	0.20517
1687.59125	0.20512
1685.66257	0.20486
1683.73390	0.20472
1681.80522	0.20502
1679.87655	0.20542
1677.94787	0.20541
1676.01919	0.20509
1674.09052	0.20503
1672.16184	0.20515
1670.23317	0.20519
1668.30449	0.20539
1666.37582	0.20564
1664.44714	0.20560
1662.51846	0.20557
1660.58979	0.20585
1658.66111	0.20610
1656.73244	0.20583
1654.80376	0.20508
1652.87509	0.20468
1650.94641	0.20502
1649.01773	0.20532
1647.08906	0.20541
1645.16038	0.20578
1643.23171	0.20620
1641.30303	0.20634
1639.37436	0.20622
1637.44568	0.20594
1635.51700	0.20590
1633.58833	0.20631
1631.65965	0.20667
1629.73098	0.20667
1627.80230	0.20654
1625.87363	0.20630
1623.94495	0.20591
1622.01627	0.20558
1620.08760	0.20547
1618.15892	0.20559
1616.23025	0.20616
1614.30157	0.20702
1612.37290	0.20763
1610.44422	0.20789
1608.51554	0.20810
1606.58687	0.20840
1604.65819	0.20866
1602.72952	0.20886
1600.80084	0.20909
1598.87217	0.20931
1596.94349	0.20943
1595.01481	0.20954
1593.08614	0.20972
1591.15746	0.20990
1589.22879	0.21007
1587.30011	0.21026
1585.37144	0.21046
1583.44276	0.21062
1581.51408	0.21070
1579.58541	0.21060
1577.65673	0.21039
1575.72806	0.21047
1573.79938	0.21089
1571.87071	0.21117
1569.94203	0.21123
1568.01335	0.21135
1566.08468	0.21150
1564.15600	0.21148
1562.22733	0.21103
1560.29865	0.21044
1558.36998	0.21058
1556.44130	0.21142
1554.51262	0.21211
1552.58395	0.21239
1550.65527	0.21251
1548.72660	0.21256
1546.79792	0.21239
1544.86925	0.21203
1542.94057	0.21178
1541.01189	0.21181
1539.08322	0.21225
1537.15454	0.21274
1535.22587	0.21270
1533.29719	0.21261
1531.36852	0.21298
1529.43984	0.21330
1527.51116	0.21319
1525.58249	0.21296
1523.65381	0.21269
1521.72514	0.21255
1519.79646	0.21277
1517.86779	0.21308
1515.93911	0.21331
1514.01043	0.21360
1512.08176	0.21367
1510.15308	0.21322
1508.22441	0.21258
1506.29573	0.21261
1504.36706	0.21344
1502.43838	0.21406
1500.50970	0.21396
1498.58103	0.21367
1496.65235	0.21369
1494.72368	0.21391
1492.79500	0.21390
1490.86633	0.21357
1488.93765	0.21331
1487.00897	0.21336
1485.08030	0.21354
1483.15162	0.21354
1481.22295	0.21338
1479.29427	0.21304
1477.36560	0.21242
1475.43692	0.21176
1473.50824	0.21128
1471.57957	0.21105
1469.65089	0.21104
1467.72222	0.21080
1465.79354	0.21029
1463.86487	0.21010
1461.93619	0.21008
1460.00751	0.20947
1458.07884	0.20849
1456.15016	0.20827
1454.22149	0.20886
1452.29281	0.20933
1450.36414	0.20938
1448.43546	0.20932
1446.50678	0.20943
1444.57811	0.20967
1442.64943	0.20984
1440.72076	0.20987
1438.79208	0.20973
1436.86341	0.20964
1434.93473	0.20988
1433.00605	0.21013
1431.07738	0.21016
1429.14870	0.21025
1427.22003	0.21042
1425.29135	0.21044
1423.36268	0.21021
1421.43400	0.20962
1419.50532	0.20902
1417.57665	0.20905
1415.64797	0.20946
1413.71930	0.20972
1411.79062	0.20984
1409.86195	0.20989
1407.93327	0.20988
1406.00459	0.20984
1404.07592	0.20984
1402.14724	0.20985
1400.21857	0.20981
1398.28989	0.20974
1396.36122	0.20972
1394.43254	0.20987
1392.50386	0.21011
1390.57519	0.21013
1388.64651	0.20979
1386.71784	0.20938
1384.78916	0.20923
1382.86049	0.20935
1380.93181	0.20948
1379.00313	0.20951
1377.07446	0.20943
1375.14578	0.20930
1373.21711	0.20930
1371.28843	0.20941
1369.35976	0.20941
1367.43108	0.20937
1365.50240	0.20928
1363.57373	0.20903
1361.64505	0.20883
1359.71638	0.20883
1357.78770	0.20888
1355.85903	0.20896
1353.93035	0.20913
1352.00167	0.20927
1350.07300	0.20938
1348.14432	0.20950
1346.21565	0.20961
1344.28697	0.20970
1342.35830	0.20964
1340.42962	0.20941
1338.50094	0.20930
1336.57227	0.20937
1334.64359	0.20938
1332.71492	0.20925
1330.78624	0.20906
1328.85757	0.20888
1326.92889	0.20871
1325.00021	0.20850
1323.07154	0.20826
1321.14286	0.20802
1319.21419	0.20778
1317.28551	0.20756
1315.35684	0.20735
1313.42816	0.20716
1311.49948	0.20700
1309.57081	0.20680
1307.64213	0.20647
1305.71346	0.20610
1303.78478	0.20581
1301.85611	0.20555
1299.92743	0.20526
1297.99875	0.20495
1296.07008	0.20462
1294.14140	0.20436
1292.21273	0.20414
1290.28405	0.20389
1288.35538	0.20358
1286.42670	0.20323
1284.49802	0.20281
1282.56935	0.20234
1280.64067	0.20185
1278.71200	0.20114
1276.78332	0.20015
1274.85465	0.19892
1272.92597	0.19738
1270.99729	0.19544
1269.06862	0.19305
1267.13994	0.19022
1265.21127	0.18716
1263.28259	0.18427
1261.35392	0.18219
1259.42524	0.18133
1257.49656	0.18157
1255.56789	0.18242
1253.63921	0.18353
1251.71054	0.18497
1249.78186	0.18684
1247.85319	0.18889
1245.92451	0.19066
1243.99583	0.19194
1242.06716	0.19280
1240.13848	0.19334
1238.20981	0.19357
1236.28113	0.19351
1234.35246	0.19321
1232.42378	0.19270
1230.49510	0.19213
1228.56643	0.19160
1226.63775	0.19113
1224.70908	0.19067
1222.78040	0.19017
1220.85173	0.18966
1218.92305	0.18912
1216.99437	0.18848
1215.06570	0.18782
1213.13702	0.18722
1211.20835	0.18663
1209.27967	0.18599
1207.35100	0.18536
1205.42232	0.18471
1203.49364	0.18403
1201.56497	0.18337
1199.63629	0.18271
1197.70762	0.18203
1195.77894	0.18135
1193.85027	0.18068
1191.92159	0.17994
1189.99291	0.17912
1188.06424	0.17826
1186.13556	0.17739
1184.20689	0.17649
1182.27821	0.17554
1180.34954	0.17462
1178.42086	0.17371
1176.49218	0.17274
1174.56351	0.17172
1172.63483	0.17072
1170.70616	0.16971
1168.77748	0.16872
1166.84881	0.16775
1164.92013	0.16675
1162.99145	0.16575
1161.06278	0.16476
1159.13410	0.16372
1157.20543	0.16265
1155.27675	0.16164
1153.34808	0.16070
1151.41940	0.15979
1149.49072	0.15883
1147.56205	0.15781
1145.63337	0.15674
1143.70470	0.15557
1141.77602	0.15428
1139.84735	0.15297
1137.91867	0.15162
1135.98999	0.15014
1134.06132	0.14853
1132.13264	0.14670
1130.20397	0.14452
1128.27529	0.14210
1126.34662	0.13956
1124.41794	0.13692
1122.48926	0.13421
1120.56059	0.13158
1118.63191	0.12920
1116.70324	0.12703
1114.77456	0.12500
1112.84589	0.12309
1110.91721	0.12145
1108.98853	0.12014
1107.05986	0.11915
1105.13118	0.11846
1103.20251	0.11804
1101.27383	0.11789
1099.34516	0.11803
1097.41648	0.11829
1095.48780	0.11857
1093.55913	0.11892
1091.63045	0.11933
1089.70178	0.11972
1087.77310	0.12004
1085.84443	0.12024
1083.91575	0.12037
1081.98707	0.12040
1080.05840	0.12029
1078.12972	0.12010
1076.20105	0.11994
1074.27237	0.11977
1072.34370	0.11958
1070.41502	0.11931
1068.48634	0.11894
1066.55767	0.11862
1064.62899	0.11846
1062.70032	0.11831
1060.77164	0.11814
1058.84297	0.11800
1056.91429	0.11789
1054.98561	0.11778
1053.05694	0.11769
1051.12826	0.11757
1049.19959	0.11746
1047.27091	0.11745
1045.34224	0.11754
1043.41356	0.11768
1041.48488	0.11782
1039.55621	0.11792
1037.62753	0.11807
1035.69886	0.11833
1033.77018	0.11864
1031.84151	0.11899
1029.91283	0.11942
1027.98415	0.11995
1026.05548	0.12057
1024.12680	0.12132
1022.19813	0.12215
1020.26945	0.12309
1018.34078	0.12418
1016.41210	0.12542
1014.48342	0.12683
1012.55475	0.12833
1010.62607	0.12986
1008.69740	0.13138
1006.76872	0.13285
1004.84005	0.13428
1002.91137	0.13568
1000.98269	0.13694
999.05402	0.13803
997.12534	0.13905
995.19667	0.14000
993.26799	0.14085
991.33932	0.14166
989.41064	0.14241
987.48196	0.14305
985.55329	0.14359
983.62461	0.14413
981.69594	0.14465
979.76726	0.14504
977.83859	0.14523
975.90991	0.14538
973.98123	0.14559
972.05256	0.14576
970.12388	0.14591
968.19521	0.14602
966.26653	0.14599
964.33786	0.14588
962.40918	0.14579
960.48050	0.14575
958.55183	0.14575
956.62315	0.14572
954.69448	0.14560
952.76580	0.14548
950.83713	0.14538
948.90845	0.14525
946.97977	0.14512
945.05110	0.14495
943.12242	0.14464
941.19375	0.14427
939.26507	0.14382
937.33640	0.14322
935.40772	0.14260
933.47904	0.14207
931.55037	0.14160
929.62169	0.14115
927.69302	0.14065
925.76434	0.14000
923.83567	0.13921
921.90699	0.13837
919.97831	0.13756
918.04964	0.13678
916.12096	0.13591
914.19229	0.13487
912.26361	0.13384
910.33494	0.13294
908.40626	0.13213
906.47758	0.13140
904.54891	0.13072
902.62023	0.13007
900.69156	0.12953
898.76288	0.12901
896.83421	0.12846
894.90553	0.12793
892.97685	0.12738
891.04818	0.12678
889.11950	0.12625
887.19083	0.12576
885.26215	0.12523
883.33348	0.12477
881.40480	0.12432
879.47612	0.12381
877.54745	0.12329
875.61877	0.12279
873.69010	0.12237
871.76142	0.12208
869.83275	0.12176
867.90407	0.12129
865.97539	0.12072
864.04672	0.12017
862.11804	0.11974
860.18937	0.11939
858.26069	0.11894
856.33202	0.11839
854.40334	0.11775
852.47466	0.11687
850.54599	0.11575
848.61731	0.11451
846.68864	0.11321
844.75996	0.11204
842.83129	0.11118
840.90261	0.11064
838.97394	0.11045
837.04526	0.11057
835.11658	0.11074
833.18791	0.11081
831.25923	0.11068
829.33056	0.11028
827.40188	0.10970
825.47321	0.10912
823.54453	0.10848
821.61585	0.10777
819.68718	0.10704
817.75850	0.10629
815.82983	0.10556
813.90115	0.10484
811.97248	0.10414
810.04380	0.10344
808.11512	0.10264
806.18645	0.10175
804.25777	0.10097
802.32910	0.10034
800.40042	0.09973
798.47175	0.09908
796.54307	0.09857
794.61439	0.09837
792.68572	0.09848
790.75704	0.09870
788.82837	0.09900
786.89969	0.09945
784.97102	0.09989
783.04234	0.10020
781.11366	0.10040
779.18499	0.10047
777.25631	0.10041
775.32764	0.10030
773.39896	0.10018
771.47029	0.10003
769.54161	0.09988
767.61293	0.09970
765.68426	0.09944
763.75558	0.09913
761.82691	0.09879
759.89823	0.09837
757.96956	0.09792
756.04088	0.09751
754.11220	0.09717
752.18353	0.09692
750.25485	0.09672
748.32618	0.09655
746.39750	0.09627
744.46883	0.09579
742.54015	0.09522
740.61147	0.09466
738.68280	0.09424
736.75412	0.09413
734.82545	0.09427
732.89677	0.09437
730.96810	0.09443
729.03942	0.09452
727.11074	0.09462
725.18207	0.09477
723.25339	0.09496
721.32472	0.09509
719.39604	0.09525
717.46737	0.09552
715.53869	0.09586
713.61001	0.09635
711.68134	0.09683
709.75266	0.09705
707.82399	0.09703
705.89531	0.09687
703.96664	0.09662
702.03796	0.09632
700.10928	0.09590
698.18061	0.09542
696.25193	0.09497
694.32326	0.09443
692.39458	0.09379
690.46591	0.09319
688.53723	0.09264
686.60855	0.09209
684.67988	0.09157
682.75120	0.09110
680.82253	0.09064
678.89385	0.09022
676.96518	0.08974
675.03650	0.08911
673.10782	0.08839
671.17915	0.08762
669.25047	0.08684
667.32180	0.08607
665.39312	0.08534
663.46445	0.08464
661.53577	0.08387
659.60709	0.08296
657.67842	0.08195
655.74974	0.08102
653.82107	0.08021
651.89239	0.07948
649.96372	0.07875
648.03504	0.07795
646.10636	0.07703
644.17769	0.07598
642.24901	0.07492
640.32034	0.07399
638.39166	0.07308
636.46299	0.07195
634.53431	0.07069
632.60563	0.06919
630.67696	0.06674
628.74828	0.06308
626.81961	0.05861
624.89093	0.05406
622.96226	0.05052
621.03358	0.04840
619.10490	0.04731
617.17623	0.04663
615.24755	0.04576
613.31888	0.04457
611.39020	0.04357
609.46153	0.04313
607.53285	0.04320
605.60417	0.04354
603.67550	0.04415
601.74682	0.04506
599.81815	0.04609
597.88947	0.04690
595.96080	0.04741
594.03212	0.04783
592.10344	0.04819
590.17477	0.04834
588.24609	0.04827
586.31742	0.04806
584.38874	0.04776
582.46007	0.04738
580.53139	0.04695
578.60271	0.04653
576.67404	0.04614
574.74536	0.04569
572.81669	0.04512
570.88801	0.04450
568.95934	0.04391
567.03066	0.04338
565.10198	0.04296
563.17331	0.04258
561.24463	0.04224
559.31596	0.04202
557.38728	0.04178
555.45861	0.04144
553.52993	0.04111
551.60125	0.04089
549.67258	0.04078
547.74390	0.04066
545.81523	0.04044
543.88655	0.04025
541.95788	0.04015
540.02920	0.04003
538.10052	0.03992
536.17185	0.03983
534.24317	0.03961
532.31450	0.03931
530.38582	0.03907
528.45715	0.03879
526.52847	0.03845
524.59979	0.03811
522.67112	0.03771
520.74244	0.03728
518.81377	0.03677
516.88509	0.03617
514.95642	0.03564
513.02774	0.03519
511.09906	0.03480
509.17039	0.03459
507.24171	0.03442
505.31304	0.03407
503.38436	0.03367
501.45569	0.03330
499.52701	0.03281
497.59833	0.03225
495.66966	0.03167
493.74098	0.03111
491.81231	0.03064
489.88363	0.03018
487.95496	0.02961
486.02628	0.02901
484.09760	0.02844
482.16893	0.02794
480.24025	0.02746
478.31158	0.02689
476.38290	0.02622
474.45423	0.02566
472.52555	0.02516
470.59687	0.02468
468.66820	0.02429
466.73952	0.02395
464.81085	0.02364
462.88217	0.02348
460.95350	0.02338
459.02482	0.02322
457.09614	0.02309
455.16747	0.02301
453.23879	0.02294
451.31012	0.02289
449.38144	0.02286
447.45277	0.02286
445.52409	0.02285
443.59541	0.02264
441.66674	0.02229
439.73806	0.02197
437.80939	0.02157
435.88071	0.02103
433.95204	0.02044
432.02336	0.01980
430.09468	0.01920
428.16601	0.01870
426.23733	0.01805
424.30866	0.01723
422.37998	0.01642
420.45131	0.01568
418.52263	0.01507
416.59395	0.01458
414.66528	0.01404
412.73660	0.01348
410.80793	0.01286
408.87925	0.01212
406.95058	0.01145
405.02190	0.01091
403.09322	0.01030
401.16455	0.00971
399.23587	0.00918
397.30720	0.00854
395.37852	0.00784
393.44985	0.00719
391.52117	0.00667
389.59249	0.00634
387.66382	0.00607
385.73514	0.00576
383.80647	0.00538
381.87779	0.00483
379.94912	0.00430
378.02044	0.00408
376.09176	0.00392
374.16309	0.00356
372.23441	0.00328
370.30574	0.00307
368.37706	0.00272
