7496.76250	0.00149
7494.83382	0.00149
7492.90514	0.00149
7490.97647	0.00148
7489.04779	0.00148
7487.11912	0.00149
7485.19044	0.00151
7483.26177	0.00152
7481.33309	0.00152
7479.40441	0.00153
7477.47574	0.00155
7475.54706	0.00155
7473.61839	0.00154
7471.68971	0.00153
7469.76104	0.00154
7467.83236	0.00155
7465.90368	0.00156
7463.97501	0.00157
7462.04633	0.00157
7460.11766	0.00157
7458.18898	0.00158
7456.26031	0.00157
7454.33163	0.00157
7452.40295	0.00157
7450.47428	0.00157
7448.54560	0.00156
7446.61693	0.00157
7444.68825	0.00159
7442.75958	0.00160
7440.83090	0.00161
7438.90222	0.00161
7436.97355	0.00160
7435.04487	0.00161
7433.11620	0.00162
7431.18752	0.00162
7429.25885	0.00164
7427.33017	0.00164
7425.40149	0.00164
7423.47282	0.00164
7421.54414	0.00165
7419.61547	0.00167
7417.68679	0.00166
7415.75812	0.00166
7413.82944	0.00166
7411.90076	0.00167
7409.97209	0.00168
7408.04341	0.00169
7406.11474	0.00168
7404.18606	0.00167
7402.25739	0.00168
7400.32871	0.00169
7398.40003	0.00170
7396.47136	0.00170
7394.54268	0.00169
7392.61401	0.00170
7390.68533	0.00173
7388.75666	0.00174
7386.82798	0.00173
7384.89930	0.00171
7382.97063	0.00172
7381.04195	0.00174
7379.11328	0.00176
7377.18460	0.00175
7375.25593	0.00174
7373.32725	0.00174
7371.39857	0.00175
7369.46990	0.00176
7367.54122	0.00176
7365.61255	0.00177
7363.68387	0.00178
7361.75520	0.00178
7359.82652	0.00177
7357.89784	0.00177
7355.96917	0.00178
7354.04049	0.00178
7352.11182	0.00179
7350.18314	0.00181
7348.25447	0.00183
7346.32579	0.00182
7344.39711	0.00181
7342.46844	0.00181
7340.53976	0.00182
7338.61109	0.00183
7336.68241	0.00182
7334.75374	0.00182
7332.82506	0.00182
7330.89638	0.00183
7328.96771	0.00184
7327.03903	0.00186
7325.11036	0.00186
7323.18168	0.00185
7321.25301	0.00185
7319.32433	0.00187
7317.39565	0.00188
7315.46698	0.00188
7313.53830	0.00188
7311.60963	0.00190
7309.68095	0.00190
7307.75228	0.00189
7305.82360	0.00187
7303.89492	0.00188
7301.96625	0.00191
7300.03757	0.00192
7298.10890	0.00193
7296.18022	0.00193
7294.25155	0.00192
7292.32287	0.00193
7290.39419	0.00194
7288.46552	0.00195
7286.53684	0.00197
7284.60817	0.00197
7282.67949	0.00196
7280.75082	0.00196
7278.82214	0.00196
7276.89346	0.00197
7274.96479	0.00197
7273.03611	0.00199
7271.10744	0.00200
7269.17876	0.00199
7267.25009	0.00199
7265.32141	0.00200
7263.39273	0.00201
7261.46406	0.00201
7259.53538	0.00201
7257.60671	0.00202
7255.67803	0.00203
7253.74936	0.00204
7251.82068	0.00204
7249.89200	0.00203
7247.96333	0.00202
7246.03465	0.00202
7244.10598	0.00203
7242.17730	0.00206
7240.24863	0.00207
7238.31995	0.00207
7236.39127	0.00207
7234.46260	0.00207
7232.53392	0.00207
7230.60525	0.00207
7228.67657	0.00207
7226.74790	0.00207
7224.81922	0.00209
7222.89054	0.00211
7220.96187	0.00212
7219.03319	0.00213
7217.10452	0.00213
7215.17584	0.00212
7213.24717	0.00212
7211.31849	0.00212
7209.38981	0.00213
7207.46114	0.00215
7205.53246	0.00216
7203.60379	0.00217
7201.67511	0.00217
7199.74644	0.00217
7197.81776	0.00217
7195.88908	0.00218
7193.96041	0.00220
7192.03173	0.00221
7190.10306	0.00220
7188.17438	0.00221
7186.24571	0.00222
7184.31703	0.00222
7182.38835	0.00221
7180.45968	0.00220
7178.53100	0.00220
7176.60233	0.00221
7174.67365	0.00221
7172.74498	0.00223
7170.81630	0.00224
7168.88762	0.00225
7166.95895	0.00225
7165.03027	0.00226
7163.10160	0.00226
7161.17292	0.00226
7159.24425	0.00227
7157.31557	0.00227
7155.38689	0.00228
7153.45822	0.00229
7151.52954	0.00230
7149.60087	0.00231
7147.67219	0.00231
7145.74352	0.00232
7143.81484	0.00233
7141.88616	0.00233
7139.95749	0.00234
7138.02881	0.00235
7136.10014	0.00235
7134.17146	0.00234
7132.24279	0.00234
7130.31411	0.00235
7128.38543	0.00235
7126.45676	0.00236
7124.52808	0.00237
7122.59941	0.00237
7120.67073	0.00238
7118.74206	0.00239
7116.81338	0.00239
7114.88470	0.00240
7112.95603	0.00240
7111.02735	0.00241
7109.09868	0.00241
7107.17000	0.00243
7105.24133	0.00244
7103.31265	0.00244
7101.38397	0.00243
7099.45530	0.00242
7097.52662	0.00243
7095.59795	0.00244
7093.66927	0.00245
7091.74060	0.00246
7089.81192	0.00245
7087.88324	0.00245
7085.95457	0.00246
7084.02589	0.00248
7082.09722	0.00249
7080.16854	0.00249
7078.23987	0.00249
7076.31119	0.00251
7074.38251	0.00252
7072.45384	0.00252
7070.52516	0.00250
7068.59649	0.00252
7066.66781	0.00254
7064.73914	0.00256
7062.81046	0.00255
7060.88178	0.00256
7058.95311	0.00256
7057.02443	0.00256
7055.09576	0.00255
7053.16708	0.00255
7051.23841	0.00257
7049.30973	0.00258
7047.38105	0.00258
7045.45238	0.00258
7043.52370	0.00258
7041.59503	0.00258
7039.66635	0.00259
7037.73768	0.00261
7035.80900	0.00264
7033.88032	0.00264
7031.95165	0.00264
7030.02297	0.00266
7028.09430	0.00267
7026.16562	0.00267
7024.23695	0.00266
7022.30827	0.00266
7020.37959	0.00266
7018.45092	0.00267
7016.52224	0.00268
7014.59357	0.00268
7012.66489	0.00268
7010.73622	0.00268
7008.80754	0.00270
7006.87886	0.00272
7004.95019	0.00272
7003.02151	0.00272
7001.09284	0.00272
6999.16416	0.00273
6997.23549	0.00274
6995.30681	0.00273
6993.37813	0.00274
6991.44946	0.00274
6989.52078	0.00275
6987.59211	0.00277
6985.66343	0.00280
6983.73476	0.00281
6981.80608	0.00281
6979.87740	0.00280
6977.94873	0.00280
6976.02005	0.00280
6974.09138	0.00281
6972.16270	0.00282
6970.23403	0.00282
6968.30535	0.00281
6966.37667	0.00281
6964.44800	0.00283
6962.51932	0.00286
6960.59065	0.00286
6958.66197	0.00284
6956.73330	0.00283
6954.80462	0.00284
6952.87594	0.00286
6950.94727	0.00287
6949.01859	0.00287
6947.08992	0.00287
6945.16124	0.00288
6943.23257	0.00290
6941.30389	0.00293
6939.37521	0.00294
6937.44654	0.00294
6935.51786	0.00292
6933.58919	0.00292
6931.66051	0.00293
6929.73184	0.00294
6927.80316	0.00295
6925.87448	0.00296
6923.94581	0.00296
6922.01713	0.00296
6920.08846	0.00296
6918.15978	0.00297
6916.23111	0.00298
6914.30243	0.00298
6912.37375	0.00298
6910.44508	0.00299
6908.51640	0.00300
6906.58773	0.00301
6904.65905	0.00301
6902.73038	0.00302
6900.80170	0.00304
6898.87302	0.00306
6896.94435	0.00306
6895.01567	0.00306
6893.08700	0.00307
6891.15832	0.00308
6889.22965	0.00309
6887.30097	0.00311
6885.37229	0.00312
6883.44362	0.00313
6881.51494	0.00313
6879.58627	0.00314
6877.65759	0.00315
6875.72892	0.00314
6873.80024	0.00312
6871.87156	0.00311
6869.94289	0.00313
6868.01421	0.00315
6866.08554	0.00316
6864.15686	0.00316
6862.22819	0.00316
6860.29951	0.00317
6858.37083	0.00319
6856.44216	0.00320
6854.51348	0.00321
6852.58481	0.00319
6850.65613	0.00319
6848.72746	0.00320
6846.79878	0.00322
6844.87010	0.00324
6842.94143	0.00325
6841.01275	0.00326
6839.08408	0.00327
6837.15540	0.00327
6835.22673	0.00325
6833.29805	0.00325
6831.36937	0.00327
6829.44070	0.00329
6827.51202	0.00329
6825.58335	0.00330
6823.65467	0.00331
6821.72600	0.00334
6819.79732	0.00336
6817.86864	0.00337
6815.93997	0.00336
6814.01129	0.00335
6812.08262	0.00335
6810.15394	0.00335
6808.22527	0.00335
6806.29659	0.00335
6804.36791	0.00336
6802.43924	0.00338
6800.51056	0.00339
6798.58189	0.00340
6796.65321	0.00340
6794.72454	0.00340
6792.79586	0.00341
6790.86718	0.00342
6788.93851	0.00342
6787.00983	0.00344
6785.08116	0.00344
6783.15248	0.00344
6781.22381	0.00345
6779.29513	0.00347
6777.36645	0.00348
6775.43778	0.00348
6773.50910	0.00349
6771.58043	0.00350
6769.65175	0.00351
6767.72308	0.00352
6765.79440	0.00353
6763.86572	0.00355
6761.93705	0.00356
6760.00837	0.00356
6758.07970	0.00356
6756.15102	0.00356
6754.22235	0.00356
6752.29367	0.00356
6750.36499	0.00357
6748.43632	0.00359
6746.50764	0.00360
6744.57897	0.00361
6742.65029	0.00362
6740.72162	0.00364
6738.79294	0.00364
6736.86426	0.00365
6734.93559	0.00366
6733.00691	0.00367
6731.07824	0.00368
6729.14956	0.00368
6727.22089	0.00368
6725.29221	0.00369
6723.36353	0.00369
6721.43486	0.00370
6719.50618	0.00371
6717.57751	0.00372
6715.64883	0.00374
6713.72016	0.00375
6711.79148	0.00375
6709.86280	0.00376
6707.93413	0.00376
6706.00545	0.00377
6704.07678	0.00378
6702.14810	0.00379
6700.21943	0.00379
6698.29075	0.00380
6696.36207	0.00380
6694.43340	0.00381
6692.50472	0.00383
6690.57605	0.00383
6688.64737	0.00383
6686.71870	0.00382
6684.79002	0.00384
6682.86134	0.00387
6680.93267	0.00389
6679.00399	0.00389
6677.07532	0.00388
6675.14664	0.00388
6673.21797	0.00388
6671.28929	0.00389
6669.36061	0.00390
6667.43194	0.00391
6665.50326	0.00393
6663.57459	0.00395
6661.64591	0.00395
6659.71724	0.00397
6657.78856	0.00400
6655.85988	0.00402
6653.93121	0.00400
6652.00253	0.00399
6650.07386	0.00399
6648.14518	0.00400
6646.21651	0.00400
6644.28783	0.00401
6642.35915	0.00403
6640.43048	0.00405
6638.50180	0.00405
6636.57313	0.00404
6634.64445	0.00406
6632.71578	0.00408
6630.78710	0.00408
6628.85842	0.00408
6626.92975	0.00410
6625.00107	0.00411
6623.07240	0.00411
6621.14372	0.00410
6619.21505	0.00411
6617.28637	0.00413
6615.35769	0.00415
6613.42902	0.00417
6611.50034	0.00418
6609.57167	0.00419
6607.64299	0.00419
6605.71432	0.00420
6603.78564	0.00422
6601.85696	0.00422
6599.92829	0.00422
6597.99961	0.00422
6596.07094	0.00422
6594.14226	0.00423
6592.21359	0.00425
6590.28491	0.00427
6588.35623	0.00427
6586.42756	0.00427
6584.49888	0.00427
6582.57021	0.00429
6580.64153	0.00431
6578.71286	0.00430
6576.78418	0.00431
6574.85550	0.00434
6572.92683	0.00436
6570.99815	0.00437
6569.06948	0.00437
6567.14080	0.00438
6565.21213	0.00439
6563.28345	0.00441
6561.35477	0.00443
6559.42610	0.00443
6557.49742	0.00443
6555.56875	0.00443
6553.64007	0.00445
6551.71140	0.00447
6549.78272	0.00449
6547.85404	0.00450
6545.92537	0.00448
6543.99669	0.00446
6542.06802	0.00446
6540.13934	0.00447
6538.21067	0.00450
6536.28199	0.00451
6534.35331	0.00451
6532.42464	0.00451
6530.49596	0.00453
6528.56729	0.00456
6526.63861	0.00458
6524.70994	0.00458
6522.78126	0.00459
6520.85258	0.00459
6518.92391	0.00459
6516.99523	0.00459
6515.06656	0.00461
6513.13788	0.00463
6511.20921	0.00465
6509.28053	0.00466
6507.35185	0.00465
6505.42318	0.00467
6503.49450	0.00470
6501.56583	0.00471
6499.63715	0.00471
6497.70848	0.00470
6495.77980	0.00469
6493.85112	0.00471
6491.92245	0.00473
6489.99377	0.00474
6488.06510	0.00475
6486.13642	0.00477
6484.20775	0.00478
6482.27907	0.00479
6480.35039	0.00480
6478.42172	0.00481
6476.49304	0.00482
6474.56437	0.00482
6472.63569	0.00484
6470.70702	0.00486
6468.77834	0.00487
6466.84966	0.00487
6464.92099	0.00487
6462.99231	0.00488
6461.06364	0.00489
6459.13496	0.00489
6457.20629	0.00491
6455.27761	0.00493
6453.34893	0.00496
6451.42026	0.00498
6449.49158	0.00498
6447.56291	0.00497
6445.63423	0.00497
6443.70556	0.00497
6441.77688	0.00499
6439.84820	0.00502
6437.91953	0.00504
6435.99085	0.00505
6434.06218	0.00506
6432.13350	0.00505
6430.20483	0.00504
6428.27615	0.00506
6426.34747	0.00508
6424.41880	0.00510
6422.49012	0.00512
6420.56145	0.00514
6418.63277	0.00515
6416.70410	0.00514
6414.77542	0.00515
6412.84674	0.00517
6410.91807	0.00520
6408.98939	0.00521
6407.06072	0.00521
6405.13204	0.00522
6403.20337	0.00522
6401.27469	0.00523
6399.34601	0.00524
6397.41734	0.00525
6395.48866	0.00526
6393.55999	0.00527
6391.63131	0.00529
6389.70264	0.00531
6387.77396	0.00533
6385.84528	0.00533
6383.91661	0.00533
6381.98793	0.00534
6380.05926	0.00536
6378.13058	0.00537
6376.20191	0.00539
6374.27323	0.00540
6372.34455	0.00541
6370.41588	0.00542
6368.48720	0.00543
6366.55853	0.00543
6364.62985	0.00545
6362.70118	0.00546
6360.77250	0.00546
6358.84382	0.00547
6356.91515	0.00548
6354.98647	0.00549
6353.05780	0.00550
6351.12912	0.00552
6349.20045	0.00553
6347.27177	0.00553
6345.34309	0.00553
6343.41442	0.00553
6341.48574	0.00553
6339.55707	0.00555
6337.62839	0.00557
6335.69972	0.00559
6333.77104	0.00561
6331.84236	0.00563
6329.91369	0.00566
6327.98501	0.00568
6326.05634	0.00570
6324.12766	0.00572
6322.19899	0.00572
6320.27031	0.00573
6318.34163	0.00573
6316.41296	0.00573
6314.48428	0.00573
6312.55561	0.00574
6310.62693	0.00575
6308.69826	0.00577
6306.76958	0.00578
6304.84090	0.00579
6302.91223	0.00582
6300.98355	0.00583
6299.05488	0.00584
6297.12620	0.00585
6295.19753	0.00587
6293.26885	0.00588
6291.34017	0.00589
6289.41150	0.00590
6287.48282	0.00589
6285.55415	0.00589
6283.62547	0.00591
6281.69680	0.00592
6279.76812	0.00594
6277.83944	0.00596
6275.91077	0.00598
6273.98209	0.00602
6272.05342	0.00604
6270.12474	0.00604
6268.19607	0.00604
6266.26739	0.00604
6264.33871	0.00606
6262.41004	0.00608
6260.48136	0.00610
6258.55269	0.00611
6256.62401	0.00613
6254.69534	0.00614
6252.76666	0.00614
6250.83798	0.00615
6248.90931	0.00615
6246.98063	0.00616
6245.05196	0.00617
6243.12328	0.00619
6241.19461	0.00622
6239.26593	0.00625
6237.33725	0.00627
6235.40858	0.00628
6233.47990	0.00630
6231.55123	0.00631
6229.62255	0.00631
6227.69388	0.00630
6225.76520	0.00631
6223.83652	0.00632
6221.90785	0.00634
6219.97917	0.00635
6218.05050	0.00636
6216.12182	0.00637
6214.19315	0.00639
6212.26447	0.00641
6210.33579	0.00644
6208.40712	0.00646
6206.47844	0.00647
6204.54977	0.00647
6202.62109	0.00646
6200.69242	0.00648
6198.76374	0.00651
6196.83506	0.00653
6194.90639	0.00654
6192.97771	0.00655
6191.04904	0.00656
6189.12036	0.00658
6187.19169	0.00661
6185.26301	0.00662
6183.33433	0.00662
6181.40566	0.00663
6179.47698	0.00664
6177.54831	0.00665
6175.61963	0.00667
6173.69096	0.00669
6171.76228	0.00669
6169.83360	0.00669
6167.90493	0.00670
6165.97625	0.00672
6164.04758	0.00673
6162.11890	0.00676
6160.19023	0.00679
6158.26155	0.00681
6156.33287	0.00681
6154.40420	0.00681
6152.47552	0.00681
6150.54685	0.00683
6148.61817	0.00686
6146.68950	0.00689
6144.76082	0.00691
6142.83214	0.00692
6140.90347	0.00692
6138.97479	0.00692
6137.04612	0.00693
6135.11744	0.00696
6133.18877	0.00700
6131.26009	0.00703
6129.33141	0.00703
6127.40274	0.00701
6125.47406	0.00703
6123.54539	0.00706
6121.61671	0.00708
6119.68804	0.00709
6117.75936	0.00709
6115.83068	0.00711
6113.90201	0.00712
6111.97333	0.00714
6110.04466	0.00716
6108.11598	0.00718
6106.18731	0.00719
6104.25863	0.00720
6102.32995	0.00721
6100.40128	0.00722
6098.47260	0.00723
6096.54393	0.00726
6094.61525	0.00729
6092.68658	0.00731
6090.75790	0.00731
6088.82922	0.00732
6086.90055	0.00733
6084.97187	0.00735
6083.04320	0.00736
6081.11452	0.00737
6079.18585	0.00739
6077.25717	0.00740
6075.32849	0.00741
6073.39982	0.00742
6071.47114	0.00744
6069.54247	0.00747
6067.61379	0.00749
6065.68512	0.00751
6063.75644	0.00753
6061.82776	0.00755
6059.89909	0.00756
6057.97041	0.00757
6056.04174	0.00759
6054.11306	0.00761
6052.18439	0.00762
6050.25571	0.00764
6048.32703	0.00767
6046.39836	0.00769
6044.46968	0.00770
6042.54101	0.00770
6040.61233	0.00770
6038.68366	0.00770
6036.75498	0.00771
6034.82630	0.00774
6032.89763	0.00778
6030.96895	0.00781
6029.04028	0.00782
6027.11160	0.00785
6025.18293	0.00788
6023.25425	0.00791
6021.32557	0.00791
6019.39690	0.00791
6017.46822	0.00791
6015.53955	0.00792
6013.61087	0.00791
6011.68220	0.00792
6009.75352	0.00795
6007.82484	0.00799
6005.89617	0.00801
6003.96749	0.00802
6002.03882	0.00802
6000.11014	0.00804
5998.18147	0.00806
5996.25279	0.00807
5994.32411	0.00807
5992.39544	0.00810
5990.46676	0.00813
5988.53809	0.00816
5986.60941	0.00818
5984.68074	0.00819
5982.75206	0.00820
5980.82338	0.00822
5978.89471	0.00824
5976.96603	0.00825
5975.03736	0.00826
5973.10868	0.00829
5971.18001	0.00831
5969.25133	0.00833
5967.32265	0.00834
5965.39398	0.00835
5963.46530	0.00836
5961.53663	0.00836
5959.60795	0.00837
5957.67928	0.00839
5955.75060	0.00844
5953.82192	0.00848
5951.89325	0.00850
5949.96457	0.00849
5948.03590	0.00849
5946.10722	0.00851
5944.17855	0.00853
5942.24987	0.00854
5940.32119	0.00854
5938.39252	0.00857
5936.46384	0.00860
5934.53517	0.00861
5932.60649	0.00863
5930.67782	0.00865
5928.74914	0.00868
5926.82046	0.00871
5924.89179	0.00873
5922.96311	0.00874
5921.03444	0.00875
5919.10576	0.00877
5917.17709	0.00878
5915.24841	0.00878
5913.31973	0.00879
5911.39106	0.00880
5909.46238	0.00883
5907.53371	0.00888
5905.60503	0.00891
5903.67636	0.00892
5901.74768	0.00893
5899.81900	0.00895
5897.89033	0.00898
5895.96165	0.00900
5894.03298	0.00902
5892.10430	0.00902
5890.17563	0.00903
5888.24695	0.00905
5886.31827	0.00907
5884.38960	0.00909
5882.46092	0.00912
5880.53225	0.00914
5878.60357	0.00915
5876.67490	0.00914
5874.74622	0.00916
5872.81755	0.00918
5870.88887	0.00919
5868.96019	0.00921
5867.03152	0.00925
5865.10284	0.00929
5863.17417	0.00931
5861.24549	0.00931
5859.31682	0.00931
5857.38814	0.00934
5855.45946	0.00937
5853.53079	0.00939
5851.60211	0.00941
5849.67344	0.00942
5847.74476	0.00944
5845.81609	0.00947
5843.88741	0.00950
5841.95873	0.00952
5840.03006	0.00953
5838.10138	0.00954
5836.17271	0.00956
5834.24403	0.00958
5832.31536	0.00959
5830.38668	0.00960
5828.45800	0.00962
5826.52933	0.00965
5824.60065	0.00965
5822.67198	0.00966
5820.74330	0.00969
5818.81463	0.00972
5816.88595	0.00974
5814.95727	0.00976
5813.02860	0.00979
5811.09992	0.00983
5809.17125	0.00983
5807.24257	0.00983
5805.31390	0.00983
5803.38522	0.00986
5801.45654	0.00989
5799.52787	0.00991
5797.59919	0.00994
5795.67052	0.00996
5793.74184	0.00997
5791.81317	0.00998
5789.88449	0.00999
5787.95581	0.01001
5786.02714	0.01003
5784.09846	0.01005
5782.16979	0.01008
5780.24111	0.01011
5778.31244	0.01014
5776.38376	0.01017
5774.45508	0.01018
5772.52641	0.01018
5770.59773	0.01021
5768.66906	0.01024
5766.74038	0.01027
5764.81171	0.01029
5762.88303	0.01030
5760.95435	0.01031
5759.02568	0.01033
5757.09700	0.01035
5755.16833	0.01038
5753.23965	0.01041
5751.31098	0.01044
5749.38230	0.01046
5747.45362	0.01049
5745.52495	0.01052
5743.59627	0.01054
5741.66760	0.01055
5739.73892	0.01057
5737.81025	0.01059
5735.88157	0.01061
5733.95289	0.01062
5732.02422	0.01063
5730.09554	0.01065
5728.16687	0.01067
5726.23819	0.01068
5724.30952	0.01071
5722.38084	0.01074
5720.45216	0.01077
5718.52349	0.01078
5716.59481	0.01079
5714.66614	0.01083
5712.73746	0.01087
5710.80879	0.01091
5708.88011	0.01092
5706.95143	0.01091
5705.02276	0.01090
5703.09408	0.01091
5701.16541	0.01094
5699.23673	0.01098
5697.30806	0.01103
5695.37938	0.01105
5693.45070	0.01106
5691.52203	0.01107
5689.59335	0.01109
5687.66468	0.01111
5685.73600	0.01114
5683.80733	0.01116
5681.87865	0.01118
5679.94997	0.01122
5678.02130	0.01126
5676.09262	0.01129
5674.16395	0.01131
5672.23527	0.01131
5670.30660	0.01133
5668.37792	0.01135
5666.44924	0.01136
5664.52057	0.01137
5662.59189	0.01138
5660.66322	0.01140
5658.73454	0.01145
5656.80587	0.01149
5654.87719	0.01151
5652.94851	0.01152
5651.01984	0.01153
5649.09116	0.01155
5647.16249	0.01158
5645.23381	0.01161
5643.30514	0.01163
5641.37646	0.01164
5639.44778	0.01166
5637.51911	0.01170
5635.59043	0.01174
5633.66176	0.01177
5631.73308	0.01178
5629.80441	0.01179
5627.87573	0.01180
5625.94705	0.01181
5624.01838	0.01183
5622.08970	0.01186
5620.16103	0.01190
5618.23235	0.01193
5616.30368	0.01196
5614.37500	0.01198
5612.44632	0.01201
5610.51765	0.01203
5608.58897	0.01204
5606.66030	0.01207
5604.73162	0.01210
5602.80295	0.01212
5600.87427	0.01215
5598.94559	0.01218
5597.01692	0.01221
5595.08824	0.01223
5593.15957	0.01226
5591.23089	0.01228
5589.30222	0.01230
5587.37354	0.01232
5585.44486	0.01234
5583.51619	0.01235
5581.58751	0.01236
5579.65884	0.01239
5577.73016	0.01242
5575.80149	0.01245
5573.87281	0.01247
5571.94413	0.01249
5570.01546	0.01254
5568.08678	0.01257
5566.15811	0.01258
5564.22943	0.01260
5562.30076	0.01262
5560.37208	0.01264
5558.44340	0.01265
5556.51473	0.01267
5554.58605	0.01270
5552.65738	0.01273
5550.72870	0.01275
5548.80003	0.01278
5546.87135	0.01282
5544.94267	0.01287
5543.01400	0.01290
5541.08532	0.01291
5539.15665	0.01293
5537.22797	0.01294
5535.29930	0.01294
5533.37062	0.01295
5531.44194	0.01298
5529.51327	0.01300
5527.58459	0.01302
5525.65592	0.01305
5523.72724	0.01309
5521.79857	0.01313
5519.86989	0.01316
5517.94121	0.01318
5516.01254	0.01319
5514.08386	0.01322
5512.15519	0.01324
5510.22651	0.01326
5508.29784	0.01329
5506.36916	0.01331
5504.44048	0.01332
5502.51181	0.01334
5500.58313	0.01336
5498.65446	0.01338
5496.72578	0.01339
5494.79711	0.01343
5492.86843	0.01347
5490.93975	0.01350
5489.01108	0.01352
5487.08240	0.01353
5485.15373	0.01356
5483.22505	0.01362
5481.29638	0.01365
5479.36770	0.01366
5477.43902	0.01368
5475.51035	0.01370
5473.58167	0.01372
5471.65300	0.01373
5469.72432	0.01374
5467.79565	0.01377
5465.86697	0.01381
5463.93829	0.01385
5462.00962	0.01387
5460.08094	0.01389
5458.15227	0.01393
5456.22359	0.01397
5454.29492	0.01399
5452.36624	0.01401
5450.43756	0.01405
5448.50889	0.01407
5446.58021	0.01408
5444.65154	0.01408
5442.72286	0.01410
5440.79419	0.01412
5438.86551	0.01414
5436.93683	0.01417
5435.00816	0.01420
5433.07948	0.01424
5431.15081	0.01427
5429.22213	0.01431
5427.29346	0.01434
5425.36478	0.01436
5423.43610	0.01436
5421.50743	0.01438
5419.57875	0.01442
5417.65008	0.01445
5415.72140	0.01446
5413.79273	0.01446
5411.86405	0.01449
5409.93537	0.01456
5408.00670	0.01462
5406.07802	0.01466
5404.14935	0.01468
5402.22067	0.01469
5400.29200	0.01470
5398.36332	0.01471
5396.43464	0.01473
5394.50597	0.01475
5392.57729	0.01478
5390.64862	0.01482
5388.71994	0.01486
5386.79127	0.01488
5384.86259	0.01490
5382.93391	0.01493
5381.00524	0.01496
5379.07656	0.01500
5377.14789	0.01503
5375.21921	0.01505
5373.29054	0.01509
5371.36186	0.01511
5369.43318	0.01513
5367.50451	0.01515
5365.57583	0.01517
5363.64716	0.01519
5361.71848	0.01521
5359.78981	0.01524
5357.86113	0.01528
5355.93245	0.01530
5354.00378	0.01532
5352.07510	0.01535
5350.14643	0.01537
5348.21775	0.01539
5346.28908	0.01541
5344.36040	0.01545
5342.43172	0.01550
5340.50305	0.01555
5338.57437	0.01558
5336.64570	0.01561
5334.71702	0.01562
5332.78835	0.01564
5330.85967	0.01565
5328.93099	0.01567
5327.00232	0.01572
5325.07364	0.01578
5323.14497	0.01583
5321.21629	0.01583
5319.28762	0.01582
5317.35894	0.01583
5315.43026	0.01586
5313.50159	0.01590
5311.57291	0.01594
5309.64424	0.01596
5307.71556	0.01598
5305.78689	0.01602
5303.85821	0.01607
5301.92953	0.01612
5300.00086	0.01615
5298.07218	0.01616
5296.14351	0.01617
5294.21483	0.01618
5292.28616	0.01620
5290.35748	0.01622
5288.42880	0.01626
5286.50013	0.01630
5284.57145	0.01634
5282.64278	0.01636
5280.71410	0.01638
5278.78543	0.01641
5276.85675	0.01645
5274.92807	0.01647
5272.99940	0.01648
5271.07072	0.01651
5269.14205	0.01655
5267.21337	0.01658
5265.28470	0.01659
5263.35602	0.01660
5261.42734	0.01663
5259.49867	0.01667
5257.56999	0.01672
5255.64132	0.01676
5253.71264	0.01679
5251.78397	0.01681
5249.85529	0.01682
5247.92661	0.01683
5245.99794	0.01685
5244.06926	0.01689
5242.14059	0.01692
5240.21191	0.01694
5238.28324	0.01696
5236.35456	0.01700
5234.42588	0.01705
5232.49721	0.01708
5230.56853	0.01710
5228.63986	0.01713
5226.71118	0.01716
5224.78251	0.01721
5222.85383	0.01725
5220.92515	0.01728
5218.99648	0.01730
5217.06780	0.01731
5215.13913	0.01734
5213.21045	0.01738
5211.28178	0.01740
5209.35310	0.01740
5207.42442	0.01742
5205.49575	0.01746
5203.56707	0.01750
5201.63840	0.01753
5199.70972	0.01757
5197.78105	0.01760
5195.85237	0.01764
5193.92369	0.01768
5191.99502	0.01771
5190.06634	0.01773
5188.13767	0.01773
5186.20899	0.01774
5184.28032	0.01778
5182.35164	0.01782
5180.42296	0.01785
5178.49429	0.01788
5176.56561	0.01791
5174.63694	0.01794
5172.70826	0.01797
5170.77959	0.01801
5168.85091	0.01805
5166.92223	0.01808
5164.99356	0.01810
5163.06488	0.01811
5161.13621	0.01813
5159.20753	0.01817
5157.27886	0.01821
5155.35018	0.01824
5153.42150	0.01826
5151.49283	0.01830
5149.56415	0.01832
5147.63548	0.01835
5145.70680	0.01839
5143.77813	0.01842
5141.84945	0.01845
5139.92077	0.01848
5137.99210	0.01851
5136.06342	0.01854
5134.13475	0.01858
5132.20607	0.01862
5130.27740	0.01866
5128.34872	0.01868
5126.42004	0.01869
5124.49137	0.01871
5122.56269	0.01874
5120.63402	0.01878
5118.70534	0.01882
5116.77667	0.01886
5114.84799	0.01891
5112.91931	0.01895
5110.99064	0.01896
5109.06196	0.01897
5107.13329	0.01899
5105.20461	0.01903
5103.27594	0.01906
5101.34726	0.01909
5099.41858	0.01912
5097.48991	0.01916
5095.56123	0.01921
5093.63256	0.01923
5091.70388	0.01924
5089.77521	0.01927
5087.84653	0.01932
5085.91785	0.01935
5083.98918	0.01936
5082.06050	0.01938
5080.13183	0.01943
5078.20315	0.01948
5076.27448	0.01952
5074.34580	0.01955
5072.41712	0.01957
5070.48845	0.01959
5068.55977	0.01961
5066.63110	0.01963
5064.70242	0.01966
5062.77375	0.01972
5060.84507	0.01976
5058.91639	0.01979
5056.98772	0.01980
5055.05904	0.01981
5053.13037	0.01982
5051.20169	0.01985
5049.27302	0.01989
5047.34434	0.01992
5045.41566	0.01996
5043.48699	0.02001
5041.55831	0.02006
5039.62964	0.02009
5037.70096	0.02012
5035.77229	0.02015
5033.84361	0.02018
5031.91493	0.02021
5029.98626	0.02024
5028.05758	0.02028
5026.12891	0.02031
5024.20023	0.02034
5022.27156	0.02039
5020.34288	0.02045
5018.41420	0.02048
5016.48553	0.02049
5014.55685	0.02050
5012.62818	0.02052
5010.69950	0.02055
5008.77083	0.02058
5006.84215	0.02061
5004.91347	0.02065
5002.98480	0.02068
5001.05612	0.02071
4999.12745	0.02075
4997.19877	0.02079
4995.27010	0.02083
4993.34142	0.02087
4991.41274	0.02090
4989.48407	0.02094
4987.55539	0.02097
4985.62672	0.02099
4983.69804	0.02102
4981.76937	0.02105
4979.84069	0.02108
4977.91201	0.02111
4975.98334	0.02114
4974.05466	0.02118
4972.12599	0.02121
4970.19731	0.02124
4968.26864	0.02127
4966.33996	0.02131
4964.41128	0.02134
4962.48261	0.02136
4960.55393	0.02139
4958.62526	0.02142
4956.69658	0.02146
4954.76791	0.02150
4952.83923	0.02155
4950.91055	0.02159
4948.98188	0.02163
4947.05320	0.02164
4945.12453	0.02166
4943.19585	0.02170
4941.26718	0.02174
4939.33850	0.02174
4937.40982	0.02174
4935.48115	0.02178
4933.55247	0.02182
4931.62380	0.02186
4929.69512	0.02192
4927.76645	0.02198
4925.83777	0.02204
4923.90909	0.02207
4921.98042	0.02209
4920.05174	0.02211
4918.12307	0.02214
4916.19439	0.02217
4914.26572	0.02218
4912.33704	0.02220
4910.40836	0.02225
4908.47969	0.02230
4906.55101	0.02234
4904.62234	0.02237
4902.69366	0.02241
4900.76499	0.02245
4898.83631	0.02249
4896.90763	0.02253
4894.97896	0.02255
4893.05028	0.02257
4891.12161	0.02261
4889.19293	0.02265
4887.26426	0.02269
4885.33558	0.02272
4883.40690	0.02274
4881.47823	0.02277
4879.54955	0.02279
4877.62088	0.02282
4875.69220	0.02286
4873.76353	0.02290
4871.83485	0.02295
4869.90617	0.02300
4867.97750	0.02304
4866.04882	0.02306
4864.12015	0.02306
4862.19147	0.02306
4860.26280	0.02309
4858.33412	0.02315
4856.40544	0.02321
4854.47677	0.02326
4852.54809	0.02329
4850.61942	0.02330
4848.69074	0.02332
4846.76207	0.02335
4844.83339	0.02340
4842.90471	0.02345
4840.97604	0.02351
4839.04736	0.02356
4837.11869	0.02359
4835.19001	0.02362
4833.26134	0.02366
4831.33266	0.02370
4829.40398	0.02373
4827.47531	0.02376
4825.54663	0.02379
4823.61796	0.02384
4821.68928	0.02387
4819.76061	0.02390
4817.83193	0.02393
4815.90325	0.02396
4813.97458	0.02398
4812.04590	0.02403
4810.11723	0.02406
4808.18855	0.02408
4806.25988	0.02412
4804.33120	0.02417
4802.40252	0.02420
4800.47385	0.02422
4798.54517	0.02426
4796.61650	0.02431
4794.68782	0.02436
4792.75915	0.02442
4790.83047	0.02446
4788.90179	0.02449
4786.97312	0.02451
4785.04444	0.02454
4783.11577	0.02457
4781.18709	0.02460
4779.25842	0.02463
4777.32974	0.02468
4775.40106	0.02473
4773.47239	0.02477
4771.54371	0.02479
4769.61504	0.02482
4767.68636	0.02485
4765.75769	0.02491
4763.82901	0.02496
4761.90033	0.02501
4759.97166	0.02504
4758.04298	0.02508
4756.11431	0.02513
4754.18563	0.02517
4752.25696	0.02521
4750.32828	0.02523
4748.39960	0.02525
4746.47093	0.02529
4744.54225	0.02533
4742.61358	0.02536
4740.68490	0.02539
4738.75623	0.02542
4736.82755	0.02547
4734.89887	0.02552
4732.97020	0.02557
4731.04152	0.02560
4729.11285	0.02563
4727.18417	0.02565
4725.25550	0.02568
4723.32682	0.02572
4721.39814	0.02576
4719.46947	0.02581
4717.54079	0.02586
4715.61212	0.02591
4713.68344	0.02595
4711.75477	0.02599
4709.82609	0.02602
4707.89741	0.02605
4705.96874	0.02610
4704.04006	0.02615
4702.11139	0.02620
4700.18271	0.02625
4698.25404	0.02626
4696.32536	0.02627
4694.39668	0.02631
4692.46801	0.02636
4690.53933	0.02639
4688.61066	0.02643
4686.68198	0.02647
4684.75331	0.02652
4682.82463	0.02658
4680.89595	0.02664
4678.96728	0.02668
4677.03860	0.02671
4675.10993	0.02674
4673.18125	0.02677
4671.25258	0.02682
4669.32390	0.02686
4667.39522	0.02690
4665.46655	0.02694
4663.53787	0.02700
4661.60920	0.02704
4659.68052	0.02707
4657.75185	0.02711
4655.82317	0.02714
4653.89449	0.02717
4651.96582	0.02721
4650.03714	0.02725
4648.10847	0.02730
4646.17979	0.02734
4644.25112	0.02739
4642.32244	0.02744
4640.39376	0.02748
4638.46509	0.02751
4636.53641	0.02755
4634.60774	0.02761
4632.67906	0.02766
4630.75039	0.02768
4628.82171	0.02771
4626.89303	0.02776
4624.96436	0.02782
4623.03568	0.02787
4621.10701	0.02791
4619.17833	0.02794
4617.24966	0.02798
4615.32098	0.02803
4613.39230	0.02808
4611.46363	0.02811
4609.53495	0.02816
4607.60628	0.02820
4605.67760	0.02824
4603.74893	0.02828
4601.82025	0.02831
4599.89157	0.02835
4597.96290	0.02840
4596.03422	0.02845
4594.10555	0.02850
4592.17687	0.02854
4590.24820	0.02857
4588.31952	0.02861
4586.39084	0.02866
4584.46217	0.02871
4582.53349	0.02874
4580.60482	0.02878
4578.67614	0.02884
4576.74747	0.02891
4574.81879	0.02897
4572.89011	0.02901
4570.96144	0.02907
4569.03276	0.02912
4567.10409	0.02915
4565.17541	0.02918
4563.24674	0.02921
4561.31806	0.02924
4559.38938	0.02928
4557.46071	0.02932
4555.53203	0.02937
4553.60336	0.02942
4551.67468	0.02946
4549.74601	0.02952
4547.81733	0.02961
4545.88865	0.02968
4543.95998	0.02970
4542.03130	0.02973
4540.10263	0.02979
4538.17395	0.02984
4536.24528	0.02987
4534.31660	0.02989
4532.38792	0.02993
4530.45925	0.02999
4528.53057	0.03004
4526.60190	0.03008
4524.67322	0.03013
4522.74455	0.03018
4520.81587	0.03023
4518.88719	0.03027
4516.95852	0.03033
4515.02984	0.03039
4513.10117	0.03043
4511.17249	0.03046
4509.24382	0.03051
4507.31514	0.03055
4505.38646	0.03059
4503.45779	0.03063
4501.52911	0.03067
4499.60044	0.03073
4497.67176	0.03079
4495.74309	0.03085
4493.81441	0.03089
4491.88573	0.03095
4489.95706	0.03101
4488.02838	0.03105
4486.09971	0.03109
4484.17103	0.03114
4482.24236	0.03118
4480.31368	0.03121
4478.38500	0.03128
4476.45633	0.03135
4474.52765	0.03141
4472.59898	0.03144
4470.67030	0.03149
4468.74163	0.03154
4466.81295	0.03156
4464.88427	0.03159
4462.95560	0.03166
4461.02692	0.03172
4459.09825	0.03178
4457.16957	0.03183
4455.24090	0.03190
4453.31222	0.03197
4451.38354	0.03202
4449.45487	0.03206
4447.52619	0.03211
4445.59752	0.03217
4443.66884	0.03221
4441.74017	0.03225
4439.81149	0.03229
4437.88281	0.03234
4435.95414	0.03240
4434.02546	0.03245
4432.09679	0.03251
4430.16811	0.03256
4428.23944	0.03260
4426.31076	0.03265
4424.38208	0.03270
4422.45341	0.03276
4420.52473	0.03283
4418.59606	0.03287
4416.66738	0.03290
4414.73871	0.03296
4412.81003	0.03304
4410.88135	0.03312
4408.95268	0.03316
4407.02400	0.03319
4405.09533	0.03323
4403.16665	0.03331
4401.23798	0.03341
4399.30930	0.03349
4397.38062	0.03354
4395.45195	0.03357
4393.52327	0.03361
4391.59460	0.03366
4389.66592	0.03370
4387.73725	0.03375
4385.80857	0.03382
4383.87989	0.03388
4381.95122	0.03391
4380.02254	0.03395
4378.09387	0.03402
4376.16519	0.03410
4374.23652	0.03415
4372.30784	0.03419
4370.37916	0.03424
4368.45049	0.03429
4366.52181	0.03434
4364.59314	0.03438
4362.66446	0.03443
4360.73579	0.03448
4358.80711	0.03454
4356.87843	0.03463
4354.94976	0.03472
4353.02108	0.03480
4351.09241	0.03486
4349.16373	0.03491
4347.23506	0.03495
4345.30638	0.03500
4343.37770	0.03506
4341.44903	0.03515
4339.52035	0.03524
4337.59168	0.03530
4335.66300	0.03533
4333.73433	0.03537
4331.80565	0.03544
4329.87697	0.03551
4327.94830	0.03558
4326.01962	0.03564
4324.09095	0.03570
4322.16227	0.03575
4320.23360	0.03581
4318.30492	0.03586
4316.37624	0.03589
4314.44757	0.03592
4312.51889	0.03599
4310.59022	0.03607
4308.66154	0.03615
4306.73287	0.03620
4304.80419	0.03625
4302.87551	0.03630
4300.94684	0.03636
4299.01816	0.03641
4297.08949	0.03648
4295.16081	0.03656
4293.23214	0.03663
4291.30346	0.03669
4289.37478	0.03676
4287.44611	0.03684
4285.51743	0.03691
4283.58876	0.03697
4281.66008	0.03704
4279.73141	0.03711
4277.80273	0.03719
4275.87405	0.03724
4273.94538	0.03729
4272.01670	0.03737
4270.08803	0.03744
4268.15935	0.03747
4266.23068	0.03749
4264.30200	0.03753
4262.37332	0.03759
4260.44465	0.03767
4258.51597	0.03776
4256.58730	0.03784
4254.65862	0.03790
4252.72995	0.03795
4250.80127	0.03801
4248.87259	0.03809
4246.94392	0.03817
4245.01524	0.03825
4243.08657	0.03830
4241.15789	0.03835
4239.22922	0.03843
4237.30054	0.03850
4235.37186	0.03855
4233.44319	0.03861
4231.51451	0.03869
4229.58584	0.03878
4227.65716	0.03886
4225.72849	0.03891
4223.79981	0.03898
4221.87113	0.03905
4219.94246	0.03912
4218.01378	0.03919
4216.08511	0.03925
4214.15643	0.03931
4212.22776	0.03937
4210.29908	0.03944
4208.37040	0.03951
4206.44173	0.03959
4204.51305	0.03966
4202.58438	0.03974
4200.65570	0.03982
4198.72703	0.03988
4196.79835	0.03993
4194.86968	0.03998
4192.94100	0.04004
4191.01232	0.04010
4189.08365	0.04017
4187.15497	0.04025
4185.22630	0.04032
4183.29762	0.04037
4181.36895	0.04043
4179.44027	0.04051
4177.51159	0.04061
4175.58292	0.04070
4173.65424	0.04077
4171.72557	0.04084
4169.79689	0.04090
4167.86822	0.04095
4165.93954	0.04102
4164.01086	0.04111
4162.08219	0.04119
4160.15351	0.04126
4158.22484	0.04135
4156.29616	0.04144
4154.36749	0.04153
4152.43881	0.04161
4150.51013	0.04168
4148.58146	0.04173
4146.65278	0.04178
4144.72411	0.04185
4142.79543	0.04191
4140.86676	0.04197
4138.93808	0.04205
4137.00940	0.04213
4135.08073	0.04219
4133.15205	0.04226
4131.22338	0.04234
4129.29470	0.04245
4127.36603	0.04253
4125.43735	0.04259
4123.50867	0.04267
4121.58000	0.04275
4119.65132	0.04281
4117.72265	0.04288
4115.79397	0.04297
4113.86530	0.04306
4111.93662	0.04312
4110.00794	0.04320
4108.07927	0.04329
4106.15059	0.04337
4104.22192	0.04342
4102.29324	0.04349
4100.36457	0.04357
4098.43589	0.04365
4096.50721	0.04374
4094.57854	0.04382
4092.64986	0.04388
4090.72119	0.04392
4088.79251	0.04399
4086.86384	0.04408
4084.93516	0.04417
4083.00648	0.04423
4081.07781	0.04429
4079.14913	0.04437
4077.22046	0.04446
4075.29178	0.04456
4073.36311	0.04463
4071.43443	0.04470
4069.50575	0.04477
4067.57708	0.04487
4065.64840	0.04497
4063.71973	0.04504
4061.79105	0.04512
4059.86238	0.04520
4057.93370	0.04529
4056.00502	0.04540
4054.07635	0.04549
4052.14767	0.04556
4050.21900	0.04562
4048.29032	0.04568
4046.36165	0.04576
4044.43297	0.04585
4042.50429	0.04593
4040.57562	0.04601
4038.64694	0.04609
4036.71827	0.04617
4034.78959	0.04626
4032.86092	0.04634
4030.93224	0.04641
4029.00356	0.04647
4027.07489	0.04655
4025.14621	0.04664
4023.21754	0.04674
4021.28886	0.04685
4019.36019	0.04695
4017.43151	0.04705
4015.50283	0.04713
4013.57416	0.04719
4011.64548	0.04723
4009.71681	0.04729
4007.78813	0.04737
4005.85946	0.04749
4003.93078	0.04761
4002.00210	0.04773
4000.07343	0.04781
3998.14475	0.04786
3996.21608	0.04792
3994.28740	0.04801
3992.35873	0.04810
3990.43005	0.04820
3988.50137	0.04828
3986.57270	0.04835
3984.64402	0.04842
3982.71535	0.04851
3980.78667	0.04862
3978.85800	0.04872
3976.92932	0.04877
3975.00064	0.04882
3973.07197	0.04888
3971.14329	0.04897
3969.21462	0.04908
3967.28594	0.04918
3965.35727	0.04928
3963.42859	0.04938
3961.49991	0.04946
3959.57124	0.04953
3957.64256	0.04962
3955.71389	0.04973
3953.78521	0.04984
3951.85654	0.04992
3949.92786	0.04996
3947.99918	0.05003
3946.07051	0.05012
3944.14183	0.05018
3942.21316	0.05025
3940.28448	0.05037
3938.35581	0.05051
3936.42713	0.05060
3934.49845	0.05065
3932.56978	0.05068
3930.64110	0.05076
3928.71243	0.05087
3926.78375	0.05096
3924.85508	0.05106
3922.92640	0.05115
3920.99772	0.05121
3919.06905	0.05126
3917.14037	0.05136
3915.21170	0.05153
3913.28302	0.05168
3911.35435	0.05178
3909.42567	0.05185
3907.49699	0.05187
3905.56832	0.05182
3903.63964	0.05179
3901.71097	0.05188
3899.78229	0.05206
3897.85362	0.05226
3895.92494	0.05240
3893.99626	0.05246
3892.06759	0.05250
3890.13891	0.05259
3888.21024	0.05265
3886.28156	0.05269
3884.35289	0.05281
3882.42421	0.05294
3880.49553	0.05303
3878.56686	0.05316
3876.63818	0.05327
3874.70951	0.05333
3872.78083	0.05335
3870.85216	0.05338
3868.92348	0.05350
3866.99480	0.05364
3865.06613	0.05373
3863.13745	0.05385
3861.20878	0.05402
3859.28010	0.05414
3857.35143	0.05407
3855.42275	0.05386
3853.49407	0.05384
3851.56540	0.05417
3849.63672	0.05457
3847.70805	0.05480
3845.77937	0.05486
3843.85070	0.05484
3841.92202	0.05482
3839.99334	0.05482
3838.06467	0.05491
3836.13599	0.05510
3834.20732	0.05530
3832.27864	0.05547
3830.34997	0.05562
3828.42129	0.05572
3826.49261	0.05578
3824.56394	0.05581
3822.63526	0.05579
3820.70659	0.05583
3818.77791	0.05596
3816.84924	0.05608
3814.92056	0.05627
3812.99188	0.05652
3811.06321	0.05663
3809.13453	0.05660
3807.20586	0.05660
3805.27718	0.05671
3803.34851	0.05680
3801.41983	0.05686
3799.49115	0.05699
3797.56248	0.05712
3795.63380	0.05729
3793.70513	0.05750
3791.77645	0.05765
3789.84778	0.05772
3787.91910	0.05779
3785.99042	0.05787
3784.06175	0.05797
3782.13307	0.05806
3780.20440	0.05812
3778.27572	0.05823
3776.34705	0.05838
3774.41837	0.05848
3772.48969	0.05850
3770.56102	0.05850
3768.63234	0.05858
3766.70367	0.05871
3764.77499	0.05886
3762.84632	0.05897
3760.91764	0.05901
3758.98896	0.05908
3757.06029	0.05924
3755.13161	0.05932
3753.20294	0.05923
3751.27426	0.05916
3749.34559	0.05926
3747.41691	0.05934
3745.48823	0.05929
3743.55956	0.05944
3741.63088	0.05981
3739.70221	0.06000
3737.77353	0.05993
3735.84486	0.05989
3733.91618	0.06004
3731.98750	0.06031
3730.05883	0.06057
3728.13015	0.06071
3726.20148	0.06077
3724.27280	0.06086
3722.34413	0.06099
3720.41545	0.06115
3718.48677	0.06129
3716.55810	0.06139
3714.62942	0.06142
3712.70075	0.06139
3710.77207	0.06144
3708.84340	0.06162
3706.91472	0.06183
3704.98604	0.06196
3703.05737	0.06199
3701.12869	0.06206
3699.20002	0.06221
3697.27134	0.06239
3695.34267	0.06250
3693.41399	0.06250
3691.48531	0.06242
3689.55664	0.06244
3687.62796	0.06263
3685.69929	0.06290
3683.77061	0.06309
3681.84194	0.06316
3679.91326	0.06314
3677.98458	0.06303
3676.05591	0.06298
3674.12723	0.06315
3672.19856	0.06336
3670.26988	0.06349
3668.34121	0.06368
3666.41253	0.06394
3664.48385	0.06412
3662.55518	0.06420
3660.62650	0.06426
3658.69783	0.06428
3656.76915	0.06430
3654.84048	0.06435
3652.91180	0.06430
3650.98312	0.06409
3649.05445	0.06398
3647.12577	0.06414
3645.19710	0.06447
3643.26842	0.06477
3641.33975	0.06498
3639.41107	0.06512
3637.48239	0.06521
3635.55372	0.06527
3633.62504	0.06530
3631.69637	0.06524
3629.76769	0.06515
3627.83902	0.06526
3625.91034	0.06555
3623.98166	0.06573
3622.05299	0.06573
3620.12431	0.06569
3618.19564	0.06575
3616.26696	0.06586
3614.33829	0.06593
3612.40961	0.06597
3610.48093	0.06603
3608.55226	0.06613
3606.62358	0.06630
3604.69491	0.06648
3602.76623	0.06655
3600.83756	0.06658
3598.90888	0.06664
3596.98020	0.06673
3595.05153	0.06678
3593.12285	0.06683
3591.19418	0.06684
3589.26550	0.06679
3587.33683	0.06684
3585.40815	0.06702
3583.47947	0.06723
3581.55080	0.06737
3579.62212	0.06747
3577.69345	0.06753
3575.76477	0.06757
3573.83610	0.06764
3571.90742	0.06772
3569.97874	0.06773
3568.05007	0.06770
3566.12139	0.06777
3564.19272	0.06793
3562.26404	0.06808
3560.33537	0.06820
3558.40669	0.06830
3556.47801	0.06838
3554.54934	0.06843
3552.62066	0.06848
3550.69199	0.06855
3548.76331	0.06861
3546.83464	0.06865
3544.90596	0.06873
3542.97728	0.06885
3541.04861	0.06895
3539.11993	0.06901
3537.19126	0.06906
3535.26258	0.06914
3533.33391	0.06922
3531.40523	0.06926
3529.47655	0.06926
3527.54788	0.06925
3525.61920	0.06926
3523.69053	0.06929
3521.76185	0.06936
3519.83318	0.06944
3517.90450	0.06953
3515.97582	0.06958
3514.04715	0.06958
3512.11847	0.06958
3510.18980	0.06959
3508.26112	0.06964
3506.33245	0.06968
3504.40377	0.06969
3502.47509	0.06971
3500.54642	0.06976
3498.61774	0.06982
3496.68907	0.06985
3494.76039	0.06984
3492.83172	0.06984
3490.90304	0.06985
3488.97436	0.06988
3487.04569	0.06991
3485.11701	0.06994
3483.18834	0.06998
3481.25966	0.07003
3479.33099	0.07008
3477.40231	0.07013
3475.47363	0.07020
3473.54496	0.07028
3471.61628	0.07036
3469.68761	0.07047
3467.75893	0.07059
3465.83026	0.07073
3463.90158	0.07085
3461.97290	0.07095
3460.04423	0.07105
3458.11555	0.07116
3456.18688	0.07126
3454.25820	0.07137
3452.32953	0.07147
3450.40085	0.07154
3448.47217	0.07158
3446.54350	0.07164
3444.61482	0.07176
3442.68615	0.07192
3440.75747	0.07209
3438.82880	0.07224
3436.90012	0.07240
3434.97144	0.07260
3433.04277	0.07280
3431.11409	0.07299
3429.18542	0.07323
3427.25674	0.07351
3425.32807	0.07376
3423.39939	0.07394
3421.47071	0.07412
3419.54204	0.07433
3417.61336	0.07454
3415.68469	0.07473
3413.75601	0.07488
3411.82734	0.07502
3409.89866	0.07518
3407.96998	0.07534
3406.04131	0.07547
3404.11263	0.07560
3402.18396	0.07574
3400.25528	0.07588
3398.32661	0.07602
3396.39793	0.07616
3394.46925	0.07631
3392.54058	0.07647
3390.61190	0.07665
3388.68323	0.07682
3386.75455	0.07697
3384.82588	0.07712
3382.89720	0.07726
3380.96852	0.07741
3379.03985	0.07756
3377.11117	0.07772
3375.18250	0.07785
3373.25382	0.07797
3371.32515	0.07811
3369.39647	0.07824
3367.46779	0.07834
3365.53912	0.07846
3363.61044	0.07861
3361.68177	0.07876
3359.75309	0.07887
3357.82442	0.07895
3355.89574	0.07905
3353.96706	0.07920
3352.03839	0.07936
3350.10971	0.07950
3348.18104	0.07962
3346.25236	0.07975
3344.32369	0.07990
3342.39501	0.08004
3340.46633	0.08017
3338.53766	0.08030
3336.60898	0.08044
3334.68031	0.08057
3332.75163	0.08070
3330.82296	0.08084
3328.89428	0.08096
3326.96560	0.08109
3325.03693	0.08124
3323.10825	0.08137
3321.17958	0.08148
3319.25090	0.08161
3317.32223	0.08178
3315.39355	0.08194
3313.46487	0.08208
3311.53620	0.08220
3309.60752	0.08231
3307.67885	0.08245
3305.75017	0.08262
3303.82150	0.08279
3301.89282	0.08293
3299.96414	0.08306
3298.03547	0.08322
3296.10679	0.08337
3294.17812	0.08350
3292.24944	0.08363
3290.32077	0.08377
3288.39209	0.08390
3286.46341	0.08401
3284.53474	0.08414
3282.60606	0.08431
3280.67739	0.08448
3278.74871	0.08464
3276.82004	0.08479
3274.89136	0.08493
3272.96268	0.08506
3271.03401	0.08519
3269.10533	0.08533
3267.17666	0.08548
3265.24798	0.08563
3263.31931	0.08578
3261.39063	0.08593
3259.46195	0.08608
3257.53328	0.08621
3255.60460	0.08632
3253.67593	0.08646
3251.74725	0.08662
3249.81858	0.08676
3247.88990	0.08688
3245.96122	0.08703
3244.03255	0.08720
3242.10387	0.08735
3240.17520	0.08749
3238.24652	0.08763
3236.31785	0.08778
3234.38917	0.08795
3232.46049	0.08812
3230.53182	0.08829
3228.60314	0.08843
3226.67447	0.08854
3224.74579	0.08867
3222.81712	0.08882
3220.88844	0.08899
3218.95976	0.08914
3217.03109	0.08926
3215.10241	0.08938
3213.17374	0.08954
3211.24506	0.08970
3209.31639	0.08984
3207.38771	0.08996
3205.45903	0.09008
3203.53036	0.09022
3201.60168	0.09039
3199.67301	0.09055
3197.74433	0.09072
3195.81566	0.09089
3193.88698	0.09105
3191.95830	0.09119
3190.02963	0.09132
3188.10095	0.09147
3186.17228	0.09164
3184.24360	0.09181
3182.31493	0.09198
3180.38625	0.09214
3178.45757	0.09231
3176.52890	0.09247
3174.60022	0.09260
3172.67155	0.09272
3170.74287	0.09285
3168.81420	0.09299
3166.88552	0.09315
3164.95684	0.09332
3163.02817	0.09347
3161.09949	0.09362
3159.17082	0.09377
3157.24214	0.09393
3155.31347	0.09409
3153.38479	0.09423
3151.45611	0.09436
3149.52744	0.09452
3147.59876	0.09469
3145.67009	0.09484
3143.74141	0.09497
3141.81274	0.09508
3139.88406	0.09520
3137.95538	0.09534
3136.02671	0.09550
3134.09803	0.09565
3132.16936	0.09577
3130.24068	0.09591
3128.31201	0.09608
3126.38333	0.09625
3124.45465	0.09643
3122.52598	0.09661
3120.59730	0.09679
3118.66863	0.09694
3116.73995	0.09706
3114.81128	0.09719
3112.88260	0.09732
3110.95392	0.09746
3109.02525	0.09758
3107.09657	0.09770
3105.16790	0.09784
3103.23922	0.09799
3101.31055	0.09814
3099.38187	0.09828
3097.45319	0.09843
3095.52452	0.09859
3093.59584	0.09875
3091.66717	0.09888
3089.73849	0.09902
3087.80982	0.09918
3085.88114	0.09933
3083.95246	0.09946
3082.02379	0.09961
3080.09511	0.09975
3078.16644	0.09990
3076.23776	0.10007
3074.30909	0.10024
3072.38041	0.10039
3070.45173	0.10053
3068.52306	0.10065
3066.59438	0.10075
3064.66571	0.10088
3062.73703	0.10105
3060.80836	0.10120
3058.87968	0.10134
3056.95100	0.10150
3055.02233	0.10166
3053.09365	0.10180
3051.16498	0.10194
3049.23630	0.10209
3047.30763	0.10225
3045.37895	0.10239
3043.45027	0.10254
3041.52160	0.10268
3039.59292	0.10282
3037.66425	0.10295
3035.73557	0.10304
3033.80690	0.10316
3031.87822	0.10332
3029.94954	0.10349
3028.02087	0.10363
3026.09219	0.10374
3024.16352	0.10385
3022.23484	0.10397
3020.30617	0.10411
3018.37749	0.10425
3016.44881	0.10441
3014.52014	0.10455
3012.59146	0.10467
3010.66279	0.10479
3008.73411	0.10491
3006.80544	0.10506
3004.87676	0.10520
3002.94808	0.10532
3001.01941	0.10542
2999.09073	0.10548
2997.16206	0.10554
2995.23338	0.10563
2993.30471	0.10572
2991.37603	0.10579
2989.44735	0.10581
2987.51868	0.10579
2985.59000	0.10574
2983.66133	0.10569
2981.73265	0.10564
2979.80398	0.10552
2977.87530	0.10531
2975.94662	0.10501
2974.01795	0.10466
2972.08927	0.10425
2970.16060	0.10377
2968.23192	0.10329
2966.30325	0.10287
2964.37457	0.10256
2962.44589	0.10243
2960.51722	0.10252
2958.58854	0.10283
2956.65987	0.10333
2954.73119	0.10402
2952.80252	0.10482
2950.87384	0.10559
2948.94516	0.10625
2947.01649	0.10683
2945.08781	0.10733
2943.15914	0.10768
2941.23046	0.10790
2939.30179	0.10803
2937.37311	0.10811
2935.44443	0.10812
2933.51576	0.10807
2931.58708	0.10802
2929.65841	0.10799
2927.72973	0.10800
2925.80106	0.10801
2923.87238	0.10801
2921.94370	0.10803
2920.01503	0.10807
2918.08635	0.10816
2916.15768	0.10841
2914.22900	0.10882
2912.30033	0.10927
2910.37165	0.10965
2908.44297	0.10994
2906.51430	0.11021
2904.58562	0.11049
2902.65695	0.11075
2900.72827	0.11101
2898.79960	0.11128
2896.87092	0.11157
2894.94224	0.11186
2893.01357	0.11217
2891.08489	0.11246
2889.15622	0.11272
2887.22754	0.11296
2885.29887	0.11321
2883.37019	0.11345
2881.44151	0.11366
2879.51284	0.11382
2877.58416	0.11398
2875.65549	0.11414
2873.72681	0.11428
2871.79814	0.11440
2869.86946	0.11454
2867.94078	0.11470
2866.01211	0.11485
2864.08343	0.11497
2862.15476	0.11505
2860.22608	0.11509
2858.29741	0.11511
2856.36873	0.11511
2854.44005	0.11509
2852.51138	0.11508
2850.58270	0.11517
2848.65403	0.11547
2846.72535	0.11597
2844.79668	0.11655
2842.86800	0.11705
2840.93932	0.11746
2839.01065	0.11775
2837.08197	0.11797
2835.15330	0.11817
2833.22462	0.11839
2831.29595	0.11860
2829.36727	0.11879
2827.43859	0.11896
2825.50992	0.11913
2823.58124	0.11936
2821.65257	0.11956
2819.72389	0.11969
2817.79522	0.11980
2815.86654	0.11996
2813.93786	0.12014
2812.00919	0.12030
2810.08051	0.12046
2808.15184	0.12062
2806.22316	0.12078
2804.29449	0.12095
2802.36581	0.12113
2800.43713	0.12132
2798.50846	0.12150
2796.57978	0.12168
2794.65111	0.12186
2792.72243	0.12203
2790.79376	0.12220
2788.86508	0.12234
2786.93640	0.12248
2785.00773	0.12264
2783.07905	0.12278
2781.15038	0.12295
2779.22170	0.12314
2777.29303	0.12332
2775.36435	0.12346
2773.43567	0.12358
2771.50700	0.12371
2769.57832	0.12388
2767.64965	0.12407
2765.72097	0.12427
2763.79230	0.12445
2761.86362	0.12460
2759.93494	0.12473
2758.00627	0.12489
2756.07759	0.12505
2754.14892	0.12519
2752.22024	0.12533
2750.29157	0.12550
2748.36289	0.12565
2746.43421	0.12579
2744.50554	0.12594
2742.57686	0.12609
2740.64819	0.12623
2738.71951	0.12639
2736.79084	0.12656
2734.86216	0.12672
2732.93348	0.12688
2731.00481	0.12705
2729.07613	0.12722
2727.14746	0.12736
2725.21878	0.12748
2723.29011	0.12759
2721.36143	0.12769
2719.43275	0.12782
2717.50408	0.12799
2715.57540	0.12818
2713.64673	0.12836
2711.71805	0.12852
2709.78938	0.12865
2707.86070	0.12874
2705.93202	0.12885
2704.00335	0.12904
2702.07467	0.12926
2700.14600	0.12940
2698.21732	0.12949
2696.28865	0.12959
2694.35997	0.12975
2692.43129	0.12991
2690.50262	0.13008
2688.57394	0.13022
2686.64527	0.13034
2684.71659	0.13048
2682.78792	0.13063
2680.85924	0.13078
2678.93056	0.13093
2677.00189	0.13107
2675.07321	0.13121
2673.14454	0.13136
2671.21586	0.13153
2669.28719	0.13167
2667.35851	0.13180
2665.42983	0.13195
2663.50116	0.13210
2661.57248	0.13224
2659.64381	0.13237
2657.71513	0.13253
2655.78646	0.13270
2653.85778	0.13287
2651.92910	0.13301
2650.00043	0.13317
2648.07175	0.13333
2646.14308	0.13351
2644.21440	0.13369
2642.28573	0.13387
2640.35705	0.13404
2638.42837	0.13421
2636.49970	0.13436
2634.57102	0.13447
2632.64235	0.13461
2630.71367	0.13475
2628.78500	0.13489
2626.85632	0.13502
2624.92764	0.13520
2622.99897	0.13540
2621.07029	0.13560
2619.14162	0.13577
2617.21294	0.13593
2615.28427	0.13606
2613.35559	0.13619
2611.42691	0.13633
2609.49824	0.13650
2607.56956	0.13670
2605.64089	0.13687
2603.71221	0.13702
2601.78354	0.13715
2599.85486	0.13728
2597.92618	0.13742
2595.99751	0.13758
2594.06883	0.13776
2592.14016	0.13793
2590.21148	0.13809
2588.28281	0.13824
2586.35413	0.13839
2584.42545	0.13853
2582.49678	0.13868
2580.56810	0.13883
2578.63943	0.13899
2576.71075	0.13914
2574.78208	0.13929
2572.85340	0.13946
2570.92472	0.13961
2568.99605	0.13973
2567.06737	0.13987
2565.13870	0.14004
2563.21002	0.14018
2561.28135	0.14034
2559.35267	0.14052
2557.42399	0.14067
2555.49532	0.14082
2553.56664	0.14098
2551.63797	0.14114
2549.70929	0.14129
2547.78062	0.14145
2545.85194	0.14158
2543.92326	0.14168
2541.99459	0.14182
2540.06591	0.14201
2538.13724	0.14219
2536.20856	0.14236
2534.27989	0.14253
2532.35121	0.14268
2530.42253	0.14281
2528.49386	0.14295
2526.56518	0.14310
2524.63651	0.14325
2522.70783	0.14339
2520.77916	0.14352
2518.85048	0.14368
2516.92181	0.14387
2514.99313	0.14408
2513.06445	0.14425
2511.13578	0.14439
2509.20710	0.14452
2507.27843	0.14467
2505.34975	0.14484
2503.42108	0.14504
2501.49240	0.14523
2499.56372	0.14538
2497.63505	0.14552
2495.70637	0.14566
2493.77770	0.14581
2491.84902	0.14599
2489.92035	0.14618
2487.99167	0.14636
2486.06299	0.14652
2484.13432	0.14669
2482.20564	0.14688
2480.27697	0.14707
2478.34829	0.14725
2476.41962	0.14739
2474.49094	0.14751
2472.56226	0.14763
2470.63359	0.14779
2468.70491	0.14799
2466.77624	0.14816
2464.84756	0.14829
2462.91889	0.14845
2460.99021	0.14863
2459.06153	0.14877
2457.13286	0.14890
2455.20418	0.14907
2453.27551	0.14926
2451.34683	0.14944
2449.41816	0.14960
2447.48948	0.14976
2445.56080	0.14996
2443.63213	0.15015
2441.70345	0.15030
2439.77478	0.15042
2437.84610	0.15057
2435.91743	0.15076
2433.98875	0.15095
2432.06007	0.15111
2430.13140	0.15128
2428.20272	0.15145
2426.27405	0.15162
2424.34537	0.15180
2422.41670	0.15198
2420.48802	0.15211
2418.55934	0.15223
2416.63067	0.15236
2414.70199	0.15251
2412.77332	0.15267
2410.84464	0.15284
2408.91597	0.15300
2406.98729	0.15316
2405.05861	0.15336
2403.12994	0.15356
2401.20126	0.15370
2399.27259	0.15382
2397.34391	0.15401
2395.41524	0.15421
2393.48656	0.15436
2391.55788	0.15445
2389.62921	0.15456
2387.70053	0.15472
2385.77186	0.15490
2383.84318	0.15506
2381.91451	0.15519
2379.98583	0.15528
2378.05715	0.15532
2376.12848	0.15534
2374.19980	0.15534
2372.27113	0.15531
2370.34245	0.15529
2368.41378	0.15534
2366.48510	0.15541
2364.55642	0.15550
2362.62775	0.15561
2360.69907	0.15578
2358.77040	0.15599
2356.84172	0.15626
2354.91305	0.15657
2352.98437	0.15689
2351.05569	0.15719
2349.12702	0.15744
2347.19834	0.15756
2345.26967	0.15753
2343.34099	0.15751
2341.41232	0.15760
2339.48364	0.15773
2337.55496	0.15787
2335.62629	0.15803
2333.69761	0.15820
2331.76894	0.15837
2329.84026	0.15856
2327.91159	0.15879
2325.98291	0.15905
2324.05423	0.15927
2322.12556	0.15944
2320.19688	0.15962
2318.26821	0.15986
2316.33953	0.16015
2314.41086	0.16041
2312.48218	0.16062
2310.55350	0.16081
2308.62483	0.16100
2306.69615	0.16119
2304.76748	0.16138
2302.83880	0.16154
2300.91013	0.16172
2298.98145	0.16188
2297.05277	0.16203
2295.12410	0.16217
2293.19542	0.16233
2291.26675	0.16250
2289.33807	0.16265
2287.40940	0.16282
2285.48072	0.16300
2283.55204	0.16316
2281.62337	0.16328
2279.69469	0.16342
2277.76602	0.16364
2275.83734	0.16387
2273.90867	0.16404
2271.97999	0.16416
2270.05131	0.16433
2268.12264	0.16452
2266.19396	0.16466
2264.26529	0.16474
2262.33661	0.16486
2260.40794	0.16505
2258.47926	0.16522
2256.55058	0.16535
2254.62191	0.16546
2252.69323	0.16562
2250.76456	0.16579
2248.83588	0.16594
2246.90721	0.16608
2244.97853	0.16624
2243.04985	0.16639
2241.12118	0.16654
2239.19250	0.16667
2237.26383	0.16682
2235.33515	0.16699
2233.40648	0.16715
2231.47780	0.16730
2229.54912	0.16742
2227.62045	0.16754
2225.69177	0.16768
2223.76310	0.16783
2221.83442	0.16800
2219.90575	0.16818
2217.97707	0.16834
2216.04839	0.16849
2214.11972	0.16866
2212.19104	0.16883
2210.26237	0.16899
2208.33369	0.16913
2206.40502	0.16923
2204.47634	0.16932
2202.54766	0.16942
2200.61899	0.16955
2198.69031	0.16972
2196.76164	0.16989
2194.83296	0.17002
2192.90429	0.17014
2190.97561	0.17028
2189.04693	0.17041
2187.11826	0.17055
2185.18958	0.17067
2183.26091	0.17077
2181.33223	0.17088
2179.40356	0.17102
2177.47488	0.17116
2175.54620	0.17129
2173.61753	0.17139
2171.68885	0.17151
2169.76018	0.17162
2167.83150	0.17174
2165.90283	0.17188
2163.97415	0.17202
2162.04547	0.17216
2160.11680	0.17231
2158.18812	0.17246
2156.25945	0.17263
2154.33077	0.17280
2152.40210	0.17291
2150.47342	0.17300
2148.54474	0.17315
2146.61607	0.17332
2144.68739	0.17347
2142.75872	0.17362
2140.83004	0.17378
2138.90137	0.17395
2136.97269	0.17406
2135.04401	0.17412
2133.11534	0.17424
2131.18666	0.17444
2129.25799	0.17465
2127.32931	0.17484
2125.40064	0.17499
2123.47196	0.17513
2121.54328	0.17529
2119.61461	0.17546
2117.68593	0.17564
2115.75726	0.17582
2113.82858	0.17603
2111.89991	0.17626
2109.97123	0.17647
2108.04255	0.17668
2106.11388	0.17688
2104.18520	0.17706
2102.25653	0.17724
2100.32785	0.17742
2098.39918	0.17761
2096.47050	0.17778
2094.54182	0.17793
2092.61315	0.17808
2090.68447	0.17827
2088.75580	0.17846
2086.82712	0.17860
2084.89845	0.17877
2082.96977	0.17900
2081.04109	0.17921
2079.11242	0.17937
2077.18374	0.17954
2075.25507	0.17973
2073.32639	0.17988
2071.39772	0.18003
2069.46904	0.18023
2067.54036	0.18048
2065.61169	0.18070
2063.68301	0.18089
2061.75434	0.18108
2059.82566	0.18125
2057.89699	0.18139
2055.96831	0.18156
2054.03963	0.18175
2052.11096	0.18193
2050.18228	0.18209
2048.25361	0.18222
2046.32493	0.18237
2044.39626	0.18255
2042.46758	0.18273
2040.53890	0.18285
2038.61023	0.18298
2036.68155	0.18316
2034.75288	0.18335
2032.82420	0.18354
2030.89553	0.18370
2028.96685	0.18385
2027.03817	0.18399
2025.10950	0.18413
2023.18082	0.18431
2021.25215	0.18451
2019.32347	0.18465
2017.39480	0.18478
2015.46612	0.18498
2013.53744	0.18519
2011.60877	0.18536
2009.68009	0.18550
2007.75142	0.18560
2005.82274	0.18572
2003.89407	0.18587
2001.96539	0.18603
2000.03671	0.18620
1998.10804	0.18639
1996.17936	0.18656
1994.25069	0.18668
1992.32201	0.18677
1990.39334	0.18688
1988.46466	0.18703
1986.53598	0.18721
1984.60731	0.18741
1982.67863	0.18759
1980.74996	0.18775
1978.82128	0.18790
1976.89261	0.18800
1974.96393	0.18804
1973.03525	0.18813
1971.10658	0.18825
1969.17790	0.18835
1967.24923	0.18845
1965.32055	0.18864
1963.39188	0.18884
1961.46320	0.18900
1959.53452	0.18916
1957.60585	0.18934
1955.67717	0.18947
1953.74850	0.18957
1951.81982	0.18969
1949.89115	0.18984
1947.96247	0.18999
1946.03379	0.19011
1944.10512	0.19020
1942.17644	0.19034
1940.24777	0.19055
1938.31909	0.19075
1936.39042	0.19089
1934.46174	0.19101
1932.53306	0.19114
1930.60439	0.19126
1928.67571	0.19143
1926.74704	0.19161
1924.81836	0.19172
1922.88969	0.19181
1920.96101	0.19188
1919.03233	0.19190
1917.10366	0.19205
1915.17498	0.19239
1913.24631	0.19266
1911.31763	0.19279
1909.38896	0.19294
1907.46028	0.19318
1905.53160	0.19342
1903.60293	0.19355
1901.67425	0.19364
1899.74558	0.19376
1897.81690	0.19385
1895.88823	0.19393
1893.95955	0.19404
1892.03087	0.19417
1890.10220	0.19431
1888.17352	0.19451
1886.24485	0.19474
1884.31617	0.19493
1882.38750	0.19509
1880.45882	0.19525
1878.53014	0.19538
1876.60147	0.19547
1874.67279	0.19562
1872.74412	0.19571
1870.81544	0.19563
1868.88677	0.19562
1866.95809	0.19591
1865.02941	0.19626
1863.10074	0.19650
1861.17206	0.19672
1859.24339	0.19697
1857.31471	0.19721
1855.38604	0.19739
1853.45736	0.19748
1851.52868	0.19756
1849.60001	0.19768
1847.67133	0.19774
1845.74266	0.19769
1843.81398	0.19778
1841.88531	0.19808
1839.95663	0.19837
1838.02795	0.19854
1836.09928	0.19869
1834.17060	0.19883
1832.24193	0.19878
1830.31325	0.19872
1828.38458	0.19895
1826.45590	0.19929
1824.52722	0.19951
1822.59855	0.19972
1820.66987	0.19994
1818.74120	0.20013
1816.81252	0.20028
1814.88385	0.20037
1812.95517	0.20038
1811.02649	0.20040
1809.09782	0.20052
1807.16914	0.20071
1805.24047	0.20087
1803.31179	0.20092
1801.38312	0.20088
1799.45444	0.20090
1797.52576	0.20102
1795.59709	0.20107
1793.66841	0.20097
1791.73974	0.20107
1789.81106	0.20149
1787.88239	0.20178
1785.95371	0.20181
1784.02503	0.20183
1782.09636	0.20191
1780.16768	0.20205
1778.23901	0.20235
1776.31033	0.20253
1774.38166	0.20238
1772.45298	0.20226
1770.52430	0.20245
1768.59563	0.20275
1766.66695	0.20295
1764.73828	0.20294
1762.80960	0.20281
1760.88093	0.20288
1758.95225	0.20310
1757.02357	0.20326
1755.09490	0.20329
1753.16622	0.20304
1751.23755	0.20268
1749.30887	0.20263
1747.38020	0.20282
1745.45152	0.20292
1743.52284	0.20287
1741.59417	0.20276
1739.66549	0.20275
1737.73682	0.20276
1735.80814	0.20252
1733.87947	0.20244
1731.95079	0.20288
1730.02211	0.20340
1728.09344	0.20370
1726.16476	0.20382
1724.23609	0.20386
1722.30741	0.20389
1720.37874	0.20379
1718.45006	0.20360
1716.52138	0.20362
1714.59271	0.20397
1712.66403	0.20442
1710.73536	0.20473
1708.80668	0.20478
1706.87801	0.20468
1704.94933	0.20451
1703.02065	0.20408
1701.09198	0.20363
1699.16330	0.20381
1697.23463	0.20436
1695.30595	0.20479
1693.37728	0.20512
1691.44860	0.20525
1689.51992	0.20518
1687.59125	0.20496
1685.66257	0.20460
1683.73390	0.20457
1681.80522	0.20505
1679.87655	0.20545
1677.94787	0.20537
1676.01919	0.20509
1674.09052	0.20503
1672.16184	0.20510
1670.23317	0.20518
1668.30449	0.20548
1666.37582	0.20575
1664.44714	0.20564
1662.51846	0.20552
1660.58979	0.20577
1658.66111	0.20599
1656.73244	0.20571
1654.80376	0.20503
1652.87509	0.20472
1650.94641	0.20500
1649.01773	0.20519
1647.08906	0.20526
1645.16038	0.20566
1643.23171	0.20613
1641.30303	0.20631
1639.37436	0.20613
1637.44568	0.20570
1635.51700	0.20554
1633.58833	0.20593
1631.65965	0.20635
1629.73098	0.20639
1627.80230	0.20625
1625.87363	0.20603
1623.94495	0.20568
1622.01627	0.20534
1620.08760	0.20520
1618.15892	0.20530
1616.23025	0.20584
1614.30157	0.20671
1612.37290	0.20735
1610.44422	0.20764
1608.51554	0.20790
1606.58687	0.20818
1604.65819	0.20841
1602.72952	0.20863
1600.80084	0.20889
1598.87217	0.20906
1596.94349	0.20912
1595.01481	0.20923
1593.08614	0.20945
1591.15746	0.20964
1589.22879	0.20978
1587.30011	0.20995
1585.37144	0.21013
1583.44276	0.21029
1581.51408	0.21043
1579.58541	0.21043
1577.65673	0.21031
1575.72806	0.21038
1573.79938	0.21069
1571.87071	0.21084
1569.94203	0.21084
1568.01335	0.21096
1566.08468	0.21116
1564.15600	0.21118
1562.22733	0.21074
1560.29865	0.21012
1558.36998	0.21022
1556.44130	0.21105
1554.51262	0.21176
1552.58395	0.21205
1550.65527	0.21214
1548.72660	0.21218
1546.79792	0.21210
1544.86925	0.21187
1542.94057	0.21156
1541.01189	0.21139
1539.08322	0.21174
1537.15454	0.21229
1535.22587	0.21237
1533.29719	0.21230
1531.36852	0.21259
1529.43984	0.21281
1527.51116	0.21265
1525.58249	0.21239
1523.65381	0.21211
1521.72514	0.21196
1519.79646	0.21218
1517.86779	0.21255
1515.93911	0.21288
1514.01043	0.21315
1512.08176	0.21314
1510.15308	0.21275
1508.22441	0.21228
1506.29573	0.21233
1504.36706	0.21301
1502.43838	0.21349
1500.50970	0.21334
1498.58103	0.21311
1496.65235	0.21329
1494.72368	0.21356
1492.79500	0.21340
1490.86633	0.21293
1488.93765	0.21272
1487.00897	0.21296
1485.08030	0.21328
1483.15162	0.21332
1481.22295	0.21306
1479.29427	0.21260
1477.36560	0.21196
1475.43692	0.21129
1473.50824	0.21074
1471.57957	0.21049
1469.65089	0.21048
1467.72222	0.21023
1465.79354	0.20974
1463.86487	0.20956
1461.93619	0.20955
1460.00751	0.20898
1458.07884	0.20801
1456.15016	0.20780
1454.22149	0.20843
1452.29281	0.20893
1450.36414	0.20903
1448.43546	0.20903
1446.50678	0.20911
1444.57811	0.20926
1442.64943	0.20941
1440.72076	0.20940
1438.79208	0.20914
1436.86341	0.20898
1434.93473	0.20926
1433.00605	0.20962
1431.07738	0.20972
1429.14870	0.20982
1427.22003	0.20998
1425.29135	0.21001
1423.36268	0.20983
1421.43400	0.20931
1419.50532	0.20876
1417.57665	0.20877
1415.64797	0.20911
1413.71930	0.20929
1411.79062	0.20931
1409.86195	0.20932
1407.93327	0.20931
1406.00459	0.20927
1404.07592	0.20925
1402.14724	0.20920
1400.21857	0.20907
1398.28989	0.20902
1396.36122	0.20912
1394.43254	0.20935
1392.50386	0.20961
1390.57519	0.20955
1388.64651	0.20911
1386.71784	0.20873
1384.78916	0.20872
1382.86049	0.20894
1380.93181	0.20912
1379.00313	0.20915
1377.07446	0.20906
1375.14578	0.20895
1373.21711	0.20894
1371.28843	0.20902
1369.35976	0.20903
1367.43108	0.20895
1365.50240	0.20877
1363.57373	0.20853
1361.64505	0.20846
1359.71638	0.20861
1357.78770	0.20873
1355.85903	0.20869
1353.93035	0.20865
1352.00167	0.20877
1350.07300	0.20896
1348.14432	0.20913
1346.21565	0.20926
1344.28697	0.20929
1342.35830	0.20918
1340.42962	0.20901
1338.50094	0.20895
1336.57227	0.20901
1334.64359	0.20905
1332.71492	0.20896
1330.78624	0.20872
1328.85757	0.20843
1326.92889	0.20819
1325.00021	0.20801
1323.07154	0.20782
1321.14286	0.20763
1319.21419	0.20744
1317.28551	0.20725
1315.35684	0.20706
1313.42816	0.20684
1311.49948	0.20660
1309.57081	0.20634
1307.64213	0.20598
1305.71346	0.20559
1303.78478	0.20533
1301.85611	0.20517
1299.92743	0.20491
1297.99875	0.20457
1296.07008	0.20429
1294.14140	0.20406
1292.21273	0.20376
1290.28405	0.20342
1288.35538	0.20316
1286.42670	0.20290
1284.49802	0.20253
1282.56935	0.20207
1280.64067	0.20153
1278.71200	0.20086
1276.78332	0.19998
1274.85465	0.19879
1272.92597	0.19719
1270.99729	0.19521
1269.06862	0.19278
1267.13994	0.18984
1265.21127	0.18668
1263.28259	0.18386
1261.35392	0.18195
1259.42524	0.18117
1257.49656	0.18136
1255.56789	0.18216
1253.63921	0.18322
1251.71054	0.18456
1249.78186	0.18640
1247.85319	0.18856
1245.92451	0.19051
1243.99583	0.19188
1242.06716	0.19272
1240.13848	0.19325
1238.20981	0.19358
1236.28113	0.19355
1234.35246	0.19319
1232.42378	0.19269
1230.49510	0.19216
1228.56643	0.19157
1226.63775	0.19097
1224.70908	0.19044
1222.78040	0.19000
1220.85173	0.18955
1218.92305	0.18901
1216.99437	0.18843
1215.06570	0.18782
1213.13702	0.18716
1211.20835	0.18648
1209.27967	0.18586
1207.35100	0.18530
1205.42232	0.18473
1203.49364	0.18409
1201.56497	0.18344
1199.63629	0.18276
1197.70762	0.18206
1195.77894	0.18132
1193.85027	0.18058
1191.92159	0.17986
1189.99291	0.17916
1188.06424	0.17838
1186.13556	0.17749
1184.20689	0.17659
1182.27821	0.17567
1180.34954	0.17469
1178.42086	0.17364
1176.49218	0.17262
1174.56351	0.17167
1172.63483	0.17075
1170.70616	0.16978
1168.77748	0.16879
1166.84881	0.16781
1164.92013	0.16680
1162.99145	0.16574
1161.06278	0.16474
1159.13410	0.16380
1157.20543	0.16281
1155.27675	0.16177
1153.34808	0.16075
1151.41940	0.15981
1149.49072	0.15888
1147.56205	0.15784
1145.63337	0.15672
1143.70470	0.15556
1141.77602	0.15438
1139.84735	0.15310
1137.91867	0.15168
1135.98999	0.15015
1134.06132	0.14850
1132.13264	0.14661
1130.20397	0.14442
1128.27529	0.14202
1126.34662	0.13958
1124.41794	0.13712
1122.48926	0.13454
1120.56059	0.13190
1118.63191	0.12939
1116.70324	0.12710
1114.77456	0.12500
1112.84589	0.12311
1110.91721	0.12155
1108.98853	0.12034
1107.05986	0.11937
1105.13118	0.11863
1103.20251	0.11817
1101.27383	0.11796
1099.34516	0.11796
1097.41648	0.11818
1095.48780	0.11857
1093.55913	0.11896
1091.63045	0.11934
1089.70178	0.11972
1087.77310	0.12007
1085.84443	0.12035
1083.91575	0.12049
1081.98707	0.12046
1080.05840	0.12032
1078.12972	0.12011
1076.20105	0.11986
1074.27237	0.11964
1072.34370	0.11943
1070.41502	0.11918
1068.48634	0.11896
1066.55767	0.11873
1064.62899	0.11846
1062.70032	0.11823
1060.77164	0.11808
1058.84297	0.11794
1056.91429	0.11776
1054.98561	0.11760
1053.05694	0.11752
1051.12826	0.11751
1049.19959	0.11749
1047.27091	0.11745
1045.34224	0.11744
1043.41356	0.11753
1041.48488	0.11770
1039.55621	0.11792
1037.62753	0.11821
1035.69886	0.11849
1033.77018	0.11876
1031.84151	0.11910
1029.91283	0.11952
1027.98415	0.11996
1026.05548	0.12048
1024.12680	0.12117
1022.19813	0.12205
1020.26945	0.12306
1018.34078	0.12415
1016.41210	0.12536
1014.48342	0.12669
1012.55475	0.12810
1010.62607	0.12958
1008.69740	0.13113
1006.76872	0.13268
1004.84005	0.13418
1002.91137	0.13563
1000.98269	0.13696
999.05402	0.13818
997.12534	0.13928
995.19667	0.14018
993.26799	0.14090
991.33932	0.14160
989.41064	0.14228
987.48196	0.14285
985.55329	0.14335
983.62461	0.14389
981.69594	0.14441
979.76726	0.14477
977.83859	0.14495
975.90991	0.14513
973.98123	0.14538
972.05256	0.14560
970.12388	0.14573
968.19521	0.14574
966.26653	0.14571
964.33786	0.14571
962.40918	0.14568
960.48050	0.14561
958.55183	0.14560
956.62315	0.14564
954.69448	0.14559
952.76580	0.14546
950.83713	0.14531
948.90845	0.14513
946.97977	0.14487
945.05110	0.14458
943.12242	0.14428
941.19375	0.14397
939.26507	0.14358
937.33640	0.14304
935.40772	0.14244
933.47904	0.14193
931.55037	0.14148
929.62169	0.14095
927.69302	0.14029
925.76434	0.13963
923.83567	0.13902
921.90699	0.13835
919.97831	0.13745
918.04964	0.13645
916.12096	0.13550
914.19229	0.13458
912.26361	0.13354
910.33494	0.13253
908.40626	0.13175
906.47758	0.13110
904.54891	0.13039
902.62023	0.12973
900.69156	0.12919
898.76288	0.12865
896.83421	0.12805
894.90553	0.12747
892.97685	0.12693
891.04818	0.12640
889.11950	0.12591
887.19083	0.12552
885.26215	0.12510
883.33348	0.12458
881.40480	0.12403
879.47612	0.12354
877.54745	0.12312
875.61877	0.12273
873.69010	0.12231
871.76142	0.12188
869.83275	0.12145
867.90407	0.12104
865.97539	0.12060
864.04672	0.12016
862.11804	0.11974
860.18937	0.11929
858.26069	0.11879
856.33202	0.11816
854.40334	0.11740
852.47466	0.11649
850.54599	0.11544
848.61731	0.11427
846.68864	0.11304
844.75996	0.11195
842.83129	0.11112
840.90261	0.11057
838.97394	0.11034
837.04526	0.11042
835.11658	0.11060
833.18791	0.11066
831.25923	0.11056
829.33056	0.11023
827.40188	0.10966
825.47321	0.10899
823.54453	0.10831
821.61585	0.10765
819.68718	0.10696
817.75850	0.10625
815.82983	0.10556
813.90115	0.10488
811.97248	0.10412
810.04380	0.10326
808.11512	0.10240
806.18645	0.10162
804.25777	0.10096
802.32910	0.10040
800.40042	0.09984
798.47175	0.09919
796.54307	0.09860
794.61439	0.09834
792.68572	0.09838
790.75704	0.09860
788.82837	0.09897
786.89969	0.09940
784.97102	0.09976
783.04234	0.09999
781.11366	0.10011
779.18499	0.10012
777.25631	0.10011
775.32764	0.10010
773.39896	0.10001
771.47029	0.09983
769.54161	0.09958
767.61293	0.09932
765.68426	0.09915
763.75558	0.09898
761.82691	0.09870
759.89823	0.09831
757.96956	0.09792
756.04088	0.09756
754.11220	0.09722
752.18353	0.09693
750.25485	0.09669
748.32618	0.09646
746.39750	0.09613
744.46883	0.09559
742.54015	0.09491
740.61147	0.09433
738.68280	0.09406
736.75412	0.09405
734.82545	0.09407
732.89677	0.09403
730.96810	0.09406
729.03942	0.09418
727.11074	0.09438
725.18207	0.09464
723.25339	0.09486
721.32472	0.09498
719.39604	0.09511
717.46737	0.09540
715.53869	0.09585
713.61001	0.09630
711.68134	0.09669
709.75266	0.09702
707.82399	0.09713
705.89531	0.09694
703.96664	0.09663
702.03796	0.09629
700.10928	0.09589
698.18061	0.09537
696.25193	0.09470
694.32326	0.09396
692.39458	0.09330
690.46591	0.09276
688.53723	0.09224
686.60855	0.09179
684.67988	0.09141
682.75120	0.09100
680.82253	0.09048
678.89385	0.08991
676.96518	0.08941
675.03650	0.08892
673.10782	0.08832
671.17915	0.08755
669.25047	0.08675
667.32180	0.08604
665.39312	0.08527
663.46445	0.08437
661.53577	0.08340
659.60709	0.08249
657.67842	0.08169
655.74974	0.08092
653.82107	0.08013
651.89239	0.07935
649.96372	0.07858
648.03504	0.07776
646.10636	0.07691
644.17769	0.07598
642.24901	0.07495
640.32034	0.07385
638.39166	0.07281
636.46299	0.07182
634.53431	0.07069
632.60563	0.06912
630.67696	0.06661
628.74828	0.06297
626.81961	0.05858
624.89093	0.05415
622.96226	0.05066
621.03358	0.04854
619.10490	0.04736
617.17623	0.04648
615.24755	0.04544
613.31888	0.04423
611.39020	0.04322
609.46153	0.04280
607.53285	0.04298
605.60417	0.04344
603.67550	0.04401
601.74682	0.04482
599.81815	0.04579
597.88947	0.04666
595.96080	0.04731
594.03212	0.04777
592.10344	0.04804
590.17477	0.04815
588.24609	0.04819
586.31742	0.04815
584.38874	0.04789
582.46007	0.04741
580.53139	0.04692
578.60271	0.04656
576.67404	0.04616
574.74536	0.04559
572.81669	0.04490
570.88801	0.04421
568.95934	0.04357
567.03066	0.04301
565.10198	0.04259
563.17331	0.04232
561.24463	0.04211
559.31596	0.04184
557.38728	0.04157
555.45861	0.04138
553.52993	0.04124
551.60125	0.04111
549.67258	0.04094
547.74390	0.04076
545.81523	0.04056
543.88655	0.04029
541.95788	0.04005
540.02920	0.03993
538.10052	0.03986
536.17185	0.03978
534.24317	0.03966
532.31450	0.03942
530.38582	0.03909
528.45715	0.03870
526.52847	0.03831
524.59979	0.03799
522.67112	0.03769
520.74244	0.03726
518.81377	0.03667
516.88509	0.03598
514.95642	0.03533
513.02774	0.03494
511.09906	0.03482
509.17039	0.03471
507.24171	0.03451
505.31304	0.03429
503.38436	0.03396
501.45569	0.03347
499.52701	0.03295
497.59833	0.03251
495.66966	0.03207
493.74098	0.03144
491.81231	0.03071
489.88363	0.03006
487.95496	0.02942
486.02628	0.02877
484.09760	0.02826
482.16893	0.02784
480.24025	0.02729
478.31158	0.02651
476.38290	0.02574
474.45423	0.02526
472.52555	0.02491
470.59687	0.02442
468.66820	0.02395
466.73952	0.02374
464.81085	0.02363
462.88217	0.02343
460.95350	0.02324
459.02482	0.02320
457.09614	0.02317
455.16747	0.02306
453.23879	0.02297
451.31012	0.02297
449.38144	0.02298
447.45277	0.02290
445.52409	0.02272
443.59541	0.02252
441.66674	0.02228
439.73806	0.02185
437.80939	0.02132
435.88071	0.02087
433.95204	0.02042
432.02336	0.01981
430.09468	0.01916
428.16601	0.01861
426.23733	0.01807
424.30866	0.01746
422.37998	0.01683
420.45131	0.01617
418.52263	0.01549
416.59395	0.01475
414.66528	0.01396
412.73660	0.01319
410.80793	0.01254
408.87925	0.01197
406.95058	0.01135
405.02190	0.01069
403.09322	0.01008
401.16455	0.00954
399.23587	0.00906
397.30720	0.00858
395.37852	0.00804
393.44985	0.00746
391.52117	0.00690
389.59249	0.00649
387.66382	0.00626
385.73514	0.00603
383.80647	0.00563
381.87779	0.00512
379.94912	0.00464
378.02044	0.00424
376.09176	0.00391
374.16309	0.00354
372.23441	0.00316
370.30574	0.00302
368.37706	0.00295
