7496.76250	0.00152
7494.83382	0.00151
7492.90514	0.00150
7490.97647	0.00148
7489.04779	0.00147
7487.11912	0.00147
7485.19044	0.00149
7483.26177	0.00149
7481.33309	0.00150
7479.40441	0.00151
7477.47574	0.00151
7475.54706	0.00152
7473.61839	0.00154
7471.68971	0.00154
7469.76104	0.00153
7467.83236	0.00153
7465.90368	0.00153
7463.97501	0.00153
7462.04633	0.00152
7460.11766	0.00151
7458.18898	0.00152
7456.26031	0.00154
7454.33163	0.00156
7452.40295	0.00157
7450.47428	0.00157
7448.54560	0.00158
7446.61693	0.00159
7444.68825	0.00160
7442.75958	0.00160
7440.83090	0.00160
7438.90222	0.00158
7436.97355	0.00158
7435.04487	0.00159
7433.11620	0.00160
7431.18752	0.00161
7429.25885	0.00163
7427.33017	0.00165
7425.40149	0.00165
7423.47282	0.00164
7421.54414	0.00165
7419.61547	0.00165
7417.68679	0.00165
7415.75812	0.00164
7413.82944	0.00165
7411.90076	0.00165
7409.97209	0.00166
7408.04341	0.00166
7406.11474	0.00167
7404.18606	0.00169
7402.25739	0.00170
7400.32871	0.00169
7398.40003	0.00169
7396.47136	0.00168
7394.54268	0.00168
7392.61401	0.00169
7390.68533	0.00169
7388.75666	0.00169
7386.82798	0.00170
7384.89930	0.00171
7382.97063	0.00172
7381.04195	0.00173
7379.11328	0.00174
7377.18460	0.00174
7375.25593	0.00173
7373.32725	0.00174
7371.39857	0.00176
7369.46990	0.00178
7367.54122	0.00177
7365.61255	0.00176
7363.68387	0.00175
7361.75520	0.00176
7359.82652	0.00176
7357.89784	0.00177
7355.96917	0.00177
7354.04049	0.00176
7352.11182	0.00177
7350.18314	0.00179
7348.25447	0.00181
7346.32579	0.00182
7344.39711	0.00182
7342.46844	0.00181
7340.53976	0.00181
7338.61109	0.00182
7336.68241	0.00183
7334.75374	0.00184
7332.82506	0.00184
7330.89638	0.00183
7328.96771	0.00182
7327.03903	0.00182
7325.11036	0.00183
7323.18168	0.00185
7321.25301	0.00186
7319.32433	0.00187
7317.39565	0.00186
7315.46698	0.00186
7313.53830	0.00186
7311.60963	0.00186
7309.68095	0.00187
7307.75228	0.00188
7305.82360	0.00189
7303.89492	0.00190
7301.96625	0.00190
7300.03757	0.00191
7298.10890	0.00191
7296.18022	0.00192
7294.25155	0.00192
7292.32287	0.00192
7290.39419	0.00195
7288.46552	0.00197
7286.53684	0.00198
7284.60817	0.00197
7282.67949	0.00195
7280.75082	0.00196
7278.82214	0.00197
7276.89346	0.00198
7274.96479	0.00198
7273.03611	0.00199
7271.10744	0.00198
7269.17876	0.00197
7267.25009	0.00197
7265.32141	0.00199
7263.39273	0.00200
7261.46406	0.00201
7259.53538	0.00201
7257.60671	0.00200
7255.67803	0.00201
7253.74936	0.00203
7251.82068	0.00205
7249.89200	0.00206
7247.96333	0.00206
7246.03465	0.00207
7244.10598	0.00207
7242.17730	0.00206
7240.24863	0.00205
7238.31995	0.00206
7236.39127	0.00207
7234.46260	0.00207
7232.53392	0.00207
7230.60525	0.00207
7228.67657	0.00208
7226.74790	0.00208
7224.81922	0.00208
7222.89054	0.00208
7220.96187	0.00209
7219.03319	0.00209
7217.10452	0.00211
7215.17584	0.00213
7213.24717	0.00215
7211.31849	0.00215
7209.38981	0.00214
7207.46114	0.00214
7205.53246	0.00214
7203.60379	0.00215
7201.67511	0.00216
7199.74644	0.00217
7197.81776	0.00217
7195.88908	0.00217
7193.96041	0.00217
7192.03173	0.00218
7190.10306	0.00219
7188.17438	0.00221
7186.24571	0.00222
7184.31703	0.00223
7182.38835	0.00223
7180.45968	0.00222
7178.53100	0.00222
7176.60233	0.00222
7174.67365	0.00222
7172.74498	0.00222
7170.81630	0.00223
7168.88762	0.00223
7166.95895	0.00223
7165.03027	0.00223
7163.10160	0.00223
7161.17292	0.00224
7159.24425	0.00225
7157.31557	0.00226
7155.38689	0.00226
7153.45822	0.00226
7151.52954	0.00227
7149.60087	0.00228
7147.67219	0.00228
7145.74352	0.00227
7143.81484	0.00228
7141.88616	0.00228
7139.95749	0.00229
7138.02881	0.00230
7136.10014	0.00231
7134.17146	0.00233
7132.24279	0.00233
7130.31411	0.00233
7128.38543	0.00233
7126.45676	0.00234
7124.52808	0.00236
7122.59941	0.00238
7120.67073	0.00238
7118.74206	0.00237
7116.81338	0.00237
7114.88470	0.00239
7112.95603	0.00240
7111.02735	0.00240
7109.09868	0.00241
7107.17000	0.00242
7105.24133	0.00243
7103.31265	0.00243
7101.38397	0.00244
7099.45530	0.00245
7097.52662	0.00245
7095.59795	0.00246
7093.66927	0.00248
7091.74060	0.00249
7089.81192	0.00248
7087.88324	0.00247
7085.95457	0.00247
7084.02589	0.00248
7082.09722	0.00249
7080.16854	0.00249
7078.23987	0.00248
7076.31119	0.00247
7074.38251	0.00249
7072.45384	0.00252
7070.52516	0.00254
7068.59649	0.00255
7066.66781	0.00254
7064.73914	0.00254
7062.81046	0.00254
7060.88178	0.00254
7058.95311	0.00253
7057.02443	0.00253
7055.09576	0.00254
7053.16708	0.00256
7051.23841	0.00257
7049.30973	0.00258
7047.38105	0.00259
7045.45238	0.00260
7043.52370	0.00260
7041.59503	0.00261
7039.66635	0.00261
7037.73768	0.00260
7035.80900	0.00259
7033.88032	0.00260
7031.95165	0.00262
7030.02297	0.00262
7028.09430	0.00263
7026.16562	0.00264
7024.23695	0.00265
7022.30827	0.00266
7020.37959	0.00266
7018.45092	0.00268
7016.52224	0.00268
7014.59357	0.00268
7012.66489	0.00268
7010.73622	0.00270
7008.80754	0.00271
7006.87886	0.00272
7004.95019	0.00272
7003.02151	0.00273
7001.09284	0.00273
6999.16416	0.00273
6997.23549	0.00273
6995.30681	0.00273
6993.37813	0.00273
6991.44946	0.00274
6989.52078	0.00274
6987.59211	0.00274
6985.66343	0.00274
6983.73476	0.00275
6981.80608	0.00276
6979.87740	0.00278
6977.94873	0.00280
6976.02005	0.00281
6974.09138	0.00280
6972.16270	0.00278
6970.23403	0.00278
6968.30535	0.00279
6966.37667	0.00281
6964.44800	0.00284
6962.51932	0.00285
6960.59065	0.00284
6958.66197	0.00284
6956.73330	0.00285
6954.80462	0.00287
6952.87594	0.00289
6950.94727	0.00289
6949.01859	0.00289
6947.08992	0.00289
6945.16124	0.00288
6943.23257	0.00289
6941.30389	0.00290
6939.37521	0.00291
6937.44654	0.00292
6935.51786	0.00293
6933.58919	0.00294
6931.66051	0.00295
6929.73184	0.00294
6927.80316	0.00294
6925.87448	0.00295
6923.94581	0.00296
6922.01713	0.00296
6920.08846	0.00297
6918.15978	0.00298
6916.23111	0.00299
6914.30243	0.00299
6912.37375	0.00300
6910.44508	0.00301
6908.51640	0.00301
6906.58773	0.00302
6904.65905	0.00304
6902.73038	0.00305
6900.80170	0.00306
6898.87302	0.00305
6896.94435	0.00304
6895.01567	0.00304
6893.08700	0.00305
6891.15832	0.00305
6889.22965	0.00306
6887.30097	0.00307
6885.37229	0.00308
6883.44362	0.00308
6881.51494	0.00308
6879.58627	0.00308
6877.65759	0.00310
6875.72892	0.00311
6873.80024	0.00312
6871.87156	0.00312
6869.94289	0.00312
6868.01421	0.00312
6866.08554	0.00314
6864.15686	0.00317
6862.22819	0.00319
6860.29951	0.00318
6858.37083	0.00317
6856.44216	0.00317
6854.51348	0.00319
6852.58481	0.00319
6850.65613	0.00319
6848.72746	0.00318
6846.79878	0.00320
6844.87010	0.00323
6842.94143	0.00326
6841.01275	0.00327
6839.08408	0.00327
6837.15540	0.00328
6835.22673	0.00328
6833.29805	0.00327
6831.36937	0.00327
6829.44070	0.00327
6827.51202	0.00327
6825.58335	0.00326
6823.65467	0.00326
6821.72600	0.00328
6819.79732	0.00331
6817.86864	0.00332
6815.93997	0.00333
6814.01129	0.00333
6812.08262	0.00335
6810.15394	0.00337
6808.22527	0.00338
6806.29659	0.00338
6804.36791	0.00337
6802.43924	0.00339
6800.51056	0.00340
6798.58189	0.00341
6796.65321	0.00340
6794.72454	0.00340
6792.79586	0.00340
6790.86718	0.00341
6788.93851	0.00342
6787.00983	0.00343
6785.08116	0.00344
6783.15248	0.00345
6781.22381	0.00346
6779.29513	0.00348
6777.36645	0.00349
6775.43778	0.00350
6773.50910	0.00350
6771.58043	0.00350
6769.65175	0.00350
6767.72308	0.00352
6765.79440	0.00353
6763.86572	0.00354
6761.93705	0.00355
6760.00837	0.00356
6758.07970	0.00356
6756.15102	0.00355
6754.22235	0.00354
6752.29367	0.00355
6750.36499	0.00357
6748.43632	0.00358
6746.50764	0.00358
6744.57897	0.00359
6742.65029	0.00360
6740.72162	0.00360
6738.79294	0.00361
6736.86426	0.00362
6734.93559	0.00365
6733.00691	0.00367
6731.07824	0.00367
6729.14956	0.00367
6727.22089	0.00367
6725.29221	0.00367
6723.36353	0.00368
6721.43486	0.00370
6719.50618	0.00373
6717.57751	0.00374
6715.64883	0.00372
6713.72016	0.00371
6711.79148	0.00373
6709.86280	0.00375
6707.93413	0.00376
6706.00545	0.00376
6704.07678	0.00376
6702.14810	0.00376
6700.21943	0.00376
6698.29075	0.00378
6696.36207	0.00379
6694.43340	0.00379
6692.50472	0.00381
6690.57605	0.00382
6688.64737	0.00383
6686.71870	0.00383
6684.79002	0.00383
6682.86134	0.00384
6680.93267	0.00385
6679.00399	0.00385
6677.07532	0.00387
6675.14664	0.00388
6673.21797	0.00389
6671.28929	0.00390
6669.36061	0.00391
6667.43194	0.00392
6665.50326	0.00392
6663.57459	0.00392
6661.64591	0.00394
6659.71724	0.00395
6657.78856	0.00395
6655.85988	0.00395
6653.93121	0.00396
6652.00253	0.00397
6650.07386	0.00396
6648.14518	0.00396
6646.21651	0.00396
6644.28783	0.00397
6642.35915	0.00399
6640.43048	0.00401
6638.50180	0.00402
6636.57313	0.00403
6634.64445	0.00404
6632.71578	0.00405
6630.78710	0.00406
6628.85842	0.00407
6626.92975	0.00409
6625.00107	0.00409
6623.07240	0.00409
6621.14372	0.00409
6619.21505	0.00411
6617.28637	0.00413
6615.35769	0.00415
6613.42902	0.00415
6611.50034	0.00416
6609.57167	0.00418
6607.64299	0.00420
6605.71432	0.00420
6603.78564	0.00421
6601.85696	0.00422
6599.92829	0.00423
6597.99961	0.00423
6596.07094	0.00423
6594.14226	0.00424
6592.21359	0.00425
6590.28491	0.00427
6588.35623	0.00427
6586.42756	0.00428
6584.49888	0.00428
6582.57021	0.00430
6580.64153	0.00431
6578.71286	0.00431
6576.78418	0.00430
6574.85550	0.00430
6572.92683	0.00432
6570.99815	0.00435
6569.06948	0.00437
6567.14080	0.00438
6565.21213	0.00437
6563.28345	0.00438
6561.35477	0.00438
6559.42610	0.00438
6557.49742	0.00439
6555.56875	0.00440
6553.64007	0.00441
6551.71140	0.00441
6549.78272	0.00441
6547.85404	0.00443
6545.92537	0.00444
6543.99669	0.00445
6542.06802	0.00447
6540.13934	0.00448
6538.21067	0.00450
6536.28199	0.00450
6534.35331	0.00451
6532.42464	0.00452
6530.49596	0.00452
6528.56729	0.00453
6526.63861	0.00456
6524.70994	0.00458
6522.78126	0.00459
6520.85258	0.00460
6518.92391	0.00461
6516.99523	0.00462
6515.06656	0.00463
6513.13788	0.00464
6511.20921	0.00464
6509.28053	0.00465
6507.35185	0.00465
6505.42318	0.00466
6503.49450	0.00467
6501.56583	0.00469
6499.63715	0.00472
6497.70848	0.00472
6495.77980	0.00472
6493.85112	0.00473
6491.92245	0.00476
6489.99377	0.00476
6488.06510	0.00476
6486.13642	0.00476
6484.20775	0.00478
6482.27907	0.00479
6480.35039	0.00479
6478.42172	0.00480
6476.49304	0.00481
6474.56437	0.00483
6472.63569	0.00484
6470.70702	0.00483
6468.77834	0.00483
6466.84966	0.00484
6464.92099	0.00485
6462.99231	0.00486
6461.06364	0.00486
6459.13496	0.00489
6457.20629	0.00491
6455.27761	0.00493
6453.34893	0.00494
6451.42026	0.00495
6449.49158	0.00495
6447.56291	0.00496
6445.63423	0.00495
6443.70556	0.00493
6441.77688	0.00493
6439.84820	0.00495
6437.91953	0.00500
6435.99085	0.00503
6434.06218	0.00504
6432.13350	0.00504
6430.20483	0.00502
6428.27615	0.00501
6426.34747	0.00504
6424.41880	0.00507
6422.49012	0.00509
6420.56145	0.00510
6418.63277	0.00511
6416.70410	0.00511
6414.77542	0.00512
6412.84674	0.00514
6410.91807	0.00517
6408.98939	0.00519
6407.06072	0.00521
6405.13204	0.00523
6403.20337	0.00522
6401.27469	0.00522
6399.34601	0.00523
6397.41734	0.00524
6395.48866	0.00525
6393.55999	0.00524
6391.63131	0.00524
6389.70264	0.00526
6387.77396	0.00528
6385.84528	0.00530
6383.91661	0.00531
6381.98793	0.00532
6380.05926	0.00533
6378.13058	0.00534
6376.20191	0.00535
6374.27323	0.00538
6372.34455	0.00540
6370.41588	0.00541
6368.48720	0.00542
6366.55853	0.00542
6364.62985	0.00544
6362.70118	0.00545
6360.77250	0.00546
6358.84382	0.00547
6356.91515	0.00549
6354.98647	0.00550
6353.05780	0.00551
6351.12912	0.00552
6349.20045	0.00552
6347.27177	0.00552
6345.34309	0.00553
6343.41442	0.00554
6341.48574	0.00555
6339.55707	0.00556
6337.62839	0.00558
6335.69972	0.00560
6333.77104	0.00562
6331.84236	0.00563
6329.91369	0.00563
6327.98501	0.00563
6326.05634	0.00563
6324.12766	0.00563
6322.19899	0.00564
6320.27031	0.00566
6318.34163	0.00569
6316.41296	0.00572
6314.48428	0.00574
6312.55561	0.00574
6310.62693	0.00573
6308.69826	0.00573
6306.76958	0.00576
6304.84090	0.00580
6302.91223	0.00582
6300.98355	0.00583
6299.05488	0.00584
6297.12620	0.00585
6295.19753	0.00585
6293.26885	0.00587
6291.34017	0.00589
6289.41150	0.00589
6287.48282	0.00589
6285.55415	0.00590
6283.62547	0.00592
6281.69680	0.00592
6279.76812	0.00592
6277.83944	0.00594
6275.91077	0.00597
6273.98209	0.00599
6272.05342	0.00601
6270.12474	0.00603
6268.19607	0.00604
6266.26739	0.00603
6264.33871	0.00604
6262.41004	0.00606
6260.48136	0.00609
6258.55269	0.00611
6256.62401	0.00612
6254.69534	0.00613
6252.76666	0.00614
6250.83798	0.00615
6248.90931	0.00614
6246.98063	0.00615
6245.05196	0.00615
6243.12328	0.00617
6241.19461	0.00618
6239.26593	0.00619
6237.33725	0.00621
6235.40858	0.00624
6233.47990	0.00626
6231.55123	0.00627
6229.62255	0.00627
6227.69388	0.00627
6225.76520	0.00628
6223.83652	0.00629
6221.90785	0.00631
6219.97917	0.00633
6218.05050	0.00635
6216.12182	0.00637
6214.19315	0.00638
6212.26447	0.00638
6210.33579	0.00641
6208.40712	0.00645
6206.47844	0.00647
6204.54977	0.00648
6202.62109	0.00649
6200.69242	0.00650
6198.76374	0.00653
6196.83506	0.00654
6194.90639	0.00654
6192.97771	0.00655
6191.04904	0.00656
6189.12036	0.00656
6187.19169	0.00656
6185.26301	0.00657
6183.33433	0.00658
6181.40566	0.00660
6179.47698	0.00662
6177.54831	0.00666
6175.61963	0.00669
6173.69096	0.00670
6171.76228	0.00671
6169.83360	0.00671
6167.90493	0.00671
6165.97625	0.00671
6164.04758	0.00673
6162.11890	0.00676
6160.19023	0.00678
6158.26155	0.00679
6156.33287	0.00680
6154.40420	0.00680
6152.47552	0.00682
6150.54685	0.00684
6148.61817	0.00686
6146.68950	0.00687
6144.76082	0.00688
6142.83214	0.00689
6140.90347	0.00691
6138.97479	0.00692
6137.04612	0.00693
6135.11744	0.00693
6133.18877	0.00695
6131.26009	0.00697
6129.33141	0.00699
6127.40274	0.00699
6125.47406	0.00700
6123.54539	0.00703
6121.61671	0.00706
6119.68804	0.00708
6117.75936	0.00708
6115.83068	0.00708
6113.90201	0.00711
6111.97333	0.00712
6110.04466	0.00712
6108.11598	0.00713
6106.18731	0.00715
6104.25863	0.00717
6102.32995	0.00718
6100.40128	0.00719
6098.47260	0.00722
6096.54393	0.00724
6094.61525	0.00725
6092.68658	0.00726
6090.75790	0.00727
6088.82922	0.00729
6086.90055	0.00732
6084.97187	0.00734
6083.04320	0.00736
6081.11452	0.00739
6079.18585	0.00739
6077.25717	0.00738
6075.32849	0.00740
6073.39982	0.00742
6071.47114	0.00744
6069.54247	0.00744
6067.61379	0.00745
6065.68512	0.00747
6063.75644	0.00749
6061.82776	0.00752
6059.89909	0.00755
6057.97041	0.00757
6056.04174	0.00758
6054.11306	0.00758
6052.18439	0.00759
6050.25571	0.00759
6048.32703	0.00760
6046.39836	0.00761
6044.46968	0.00762
6042.54101	0.00765
6040.61233	0.00768
6038.68366	0.00771
6036.75498	0.00772
6034.82630	0.00773
6032.89763	0.00774
6030.96895	0.00776
6029.04028	0.00778
6027.11160	0.00781
6025.18293	0.00784
6023.25425	0.00786
6021.32557	0.00787
6019.39690	0.00788
6017.46822	0.00788
6015.53955	0.00789
6013.61087	0.00791
6011.68220	0.00793
6009.75352	0.00794
6007.82484	0.00795
6005.89617	0.00796
6003.96749	0.00797
6002.03882	0.00798
6000.11014	0.00799
5998.18147	0.00802
5996.25279	0.00807
5994.32411	0.00809
5992.39544	0.00810
5990.46676	0.00810
5988.53809	0.00811
5986.60941	0.00811
5984.68074	0.00813
5982.75206	0.00816
5980.82338	0.00817
5978.89471	0.00818
5976.96603	0.00820
5975.03736	0.00822
5973.10868	0.00824
5971.18001	0.00825
5969.25133	0.00827
5967.32265	0.00829
5965.39398	0.00831
5963.46530	0.00834
5961.53663	0.00836
5959.60795	0.00837
5957.67928	0.00838
5955.75060	0.00840
5953.82192	0.00843
5951.89325	0.00845
5949.96457	0.00846
5948.03590	0.00846
5946.10722	0.00846
5944.17855	0.00849
5942.24987	0.00853
5940.32119	0.00856
5938.39252	0.00858
5936.46384	0.00859
5934.53517	0.00859
5932.60649	0.00859
5930.67782	0.00861
5928.74914	0.00865
5926.82046	0.00867
5924.89179	0.00868
5922.96311	0.00867
5921.03444	0.00869
5919.10576	0.00871
5917.17709	0.00873
5915.24841	0.00874
5913.31973	0.00876
5911.39106	0.00880
5909.46238	0.00884
5907.53371	0.00889
5905.60503	0.00891
5903.67636	0.00891
5901.74768	0.00891
5899.81900	0.00893
5897.89033	0.00894
5895.96165	0.00895
5894.03298	0.00898
5892.10430	0.00900
5890.17563	0.00900
5888.24695	0.00901
5886.31827	0.00903
5884.38960	0.00907
5882.46092	0.00909
5880.53225	0.00910
5878.60357	0.00914
5876.67490	0.00917
5874.74622	0.00919
5872.81755	0.00918
5870.88887	0.00917
5868.96019	0.00918
5867.03152	0.00921
5865.10284	0.00924
5863.17417	0.00926
5861.24549	0.00928
5859.31682	0.00928
5857.38814	0.00929
5855.45946	0.00932
5853.53079	0.00934
5851.60211	0.00936
5849.67344	0.00938
5847.74476	0.00939
5845.81609	0.00942
5843.88741	0.00945
5841.95873	0.00947
5840.03006	0.00949
5838.10138	0.00950
5836.17271	0.00951
5834.24403	0.00953
5832.31536	0.00957
5830.38668	0.00960
5828.45800	0.00960
5826.52933	0.00961
5824.60065	0.00965
5822.67198	0.00968
5820.74330	0.00968
5818.81463	0.00969
5816.88595	0.00970
5814.95727	0.00973
5813.02860	0.00976
5811.09992	0.00978
5809.17125	0.00979
5807.24257	0.00980
5805.31390	0.00981
5803.38522	0.00984
5801.45654	0.00988
5799.52787	0.00991
5797.59919	0.00994
5795.67052	0.00996
5793.74184	0.00999
5791.81317	0.01002
5789.88449	0.01003
5787.95581	0.01004
5786.02714	0.01004
5784.09846	0.01006
5782.16979	0.01009
5780.24111	0.01012
5778.31244	0.01013
5776.38376	0.01013
5774.45508	0.01015
5772.52641	0.01018
5770.59773	0.01019
5768.66906	0.01020
5766.74038	0.01021
5764.81171	0.01024
5762.88303	0.01028
5760.95435	0.01029
5759.02568	0.01030
5757.09700	0.01032
5755.16833	0.01035
5753.23965	0.01036
5751.31098	0.01037
5749.38230	0.01038
5747.45362	0.01041
5745.52495	0.01042
5743.59627	0.01044
5741.66760	0.01047
5739.73892	0.01052
5737.81025	0.01054
5735.88157	0.01056
5733.95289	0.01059
5732.02422	0.01062
5730.09554	0.01064
5728.16687	0.01066
5726.23819	0.01068
5724.30952	0.01070
5722.38084	0.01072
5720.45216	0.01074
5718.52349	0.01076
5716.59481	0.01079
5714.66614	0.01082
5712.73746	0.01082
5710.80879	0.01083
5708.88011	0.01086
5706.95143	0.01089
5705.02276	0.01091
5703.09408	0.01093
5701.16541	0.01096
5699.23673	0.01099
5697.30806	0.01100
5695.37938	0.01102
5693.45070	0.01105
5691.52203	0.01108
5689.59335	0.01109
5687.66468	0.01111
5685.73600	0.01113
5683.80733	0.01116
5681.87865	0.01119
5679.94997	0.01121
5678.02130	0.01123
5676.09262	0.01125
5674.16395	0.01126
5672.23527	0.01128
5670.30660	0.01131
5668.37792	0.01132
5666.44924	0.01133
5664.52057	0.01135
5662.59189	0.01139
5660.66322	0.01141
5658.73454	0.01143
5656.80587	0.01145
5654.87719	0.01147
5652.94851	0.01150
5651.01984	0.01152
5649.09116	0.01153
5647.16249	0.01154
5645.23381	0.01157
5643.30514	0.01161
5641.37646	0.01163
5639.44778	0.01164
5637.51911	0.01166
5635.59043	0.01169
5633.66176	0.01172
5631.73308	0.01175
5629.80441	0.01178
5627.87573	0.01180
5625.94705	0.01182
5624.01838	0.01183
5622.08970	0.01184
5620.16103	0.01186
5618.23235	0.01190
5616.30368	0.01194
5614.37500	0.01197
5612.44632	0.01200
5610.51765	0.01201
5608.58897	0.01202
5606.66030	0.01204
5604.73162	0.01208
5602.80295	0.01211
5600.87427	0.01213
5598.94559	0.01213
5597.01692	0.01215
5595.08824	0.01217
5593.15957	0.01220
5591.23089	0.01223
5589.30222	0.01226
5587.37354	0.01229
5585.44486	0.01232
5583.51619	0.01235
5581.58751	0.01236
5579.65884	0.01237
5577.73016	0.01239
5575.80149	0.01240
5573.87281	0.01242
5571.94413	0.01245
5570.01546	0.01247
5568.08678	0.01248
5566.15811	0.01251
5564.22943	0.01254
5562.30076	0.01255
5560.37208	0.01256
5558.44340	0.01260
5556.51473	0.01265
5554.58605	0.01267
5552.65738	0.01268
5550.72870	0.01269
5548.80003	0.01273
5546.87135	0.01277
5544.94267	0.01279
5543.01400	0.01282
5541.08532	0.01285
5539.15665	0.01288
5537.22797	0.01290
5535.29930	0.01292
5533.37062	0.01294
5531.44194	0.01296
5529.51327	0.01299
5527.58459	0.01301
5525.65592	0.01303
5523.72724	0.01305
5521.79857	0.01307
5519.86989	0.01310
5517.94121	0.01312
5516.01254	0.01315
5514.08386	0.01317
5512.15519	0.01320
5510.22651	0.01321
5508.29784	0.01322
5506.36916	0.01325
5504.44048	0.01329
5502.51181	0.01332
5500.58313	0.01335
5498.65446	0.01338
5496.72578	0.01340
5494.79711	0.01341
5492.86843	0.01343
5490.93975	0.01346
5489.01108	0.01348
5487.08240	0.01350
5485.15373	0.01354
5483.22505	0.01358
5481.29638	0.01361
5479.36770	0.01362
5477.43902	0.01364
5475.51035	0.01367
5473.58167	0.01371
5471.65300	0.01373
5469.72432	0.01374
5467.79565	0.01375
5465.86697	0.01377
5463.93829	0.01379
5462.00962	0.01381
5460.08094	0.01384
5458.15227	0.01387
5456.22359	0.01391
5454.29492	0.01395
5452.36624	0.01399
5450.43756	0.01402
5448.50889	0.01401
5446.58021	0.01401
5444.65154	0.01405
5442.72286	0.01409
5440.79419	0.01411
5438.86551	0.01413
5436.93683	0.01416
5435.00816	0.01419
5433.07948	0.01422
5431.15081	0.01425
5429.22213	0.01427
5427.29346	0.01428
5425.36478	0.01430
5423.43610	0.01434
5421.50743	0.01438
5419.57875	0.01441
5417.65008	0.01444
5415.72140	0.01446
5413.79273	0.01448
5411.86405	0.01450
5409.93537	0.01451
5408.00670	0.01453
5406.07802	0.01457
5404.14935	0.01461
5402.22067	0.01463
5400.29200	0.01466
5398.36332	0.01469
5396.43464	0.01472
5394.50597	0.01473
5392.57729	0.01475
5390.64862	0.01479
5388.71994	0.01482
5386.79127	0.01483
5384.86259	0.01486
5382.93391	0.01489
5381.00524	0.01493
5379.07656	0.01494
5377.14789	0.01497
5375.21921	0.01501
5373.29054	0.01505
5371.36186	0.01509
5369.43318	0.01512
5367.50451	0.01514
5365.57583	0.01516
5363.64716	0.01518
5361.71848	0.01519
5359.78981	0.01523
5357.86113	0.01525
5355.93245	0.01526
5354.00378	0.01527
5352.07510	0.01530
5350.14643	0.01534
5348.21775	0.01537
5346.28908	0.01540
5344.36040	0.01543
5342.43172	0.01546
5340.50305	0.01547
5338.57437	0.01547
5336.64570	0.01550
5334.71702	0.01554
5332.78835	0.01557
5330.85967	0.01561
5328.93099	0.01564
5327.00232	0.01567
5325.07364	0.01571
5323.14497	0.01574
5321.21629	0.01577
5319.28762	0.01580
5317.35894	0.01582
5315.43026	0.01586
5313.50159	0.01590
5311.57291	0.01593
5309.64424	0.01595
5307.71556	0.01598
5305.78689	0.01602
5303.85821	0.01604
5301.92953	0.01605
5300.00086	0.01607
5298.07218	0.01611
5296.14351	0.01613
5294.21483	0.01614
5292.28616	0.01616
5290.35748	0.01620
5288.42880	0.01624
5286.50013	0.01629
5284.57145	0.01633
5282.64278	0.01636
5280.71410	0.01637
5278.78543	0.01637
5276.85675	0.01639
5274.92807	0.01643
5272.99940	0.01646
5271.07072	0.01649
5269.14205	0.01652
5267.21337	0.01656
5265.28470	0.01657
5263.35602	0.01658
5261.42734	0.01660
5259.49867	0.01662
5257.56999	0.01665
5255.64132	0.01669
5253.71264	0.01672
5251.78397	0.01674
5249.85529	0.01676
5247.92661	0.01679
5245.99794	0.01681
5244.06926	0.01684
5242.14059	0.01690
5240.21191	0.01694
5238.28324	0.01696
5236.35456	0.01698
5234.42588	0.01700
5232.49721	0.01702
5230.56853	0.01705
5228.63986	0.01707
5226.71118	0.01708
5224.78251	0.01711
5222.85383	0.01715
5220.92515	0.01720
5218.99648	0.01723
5217.06780	0.01726
5215.13913	0.01729
5213.21045	0.01732
5211.28178	0.01734
5209.35310	0.01737
5207.42442	0.01740
5205.49575	0.01744
5203.56707	0.01748
5201.63840	0.01750
5199.70972	0.01753
5197.78105	0.01757
5195.85237	0.01760
5193.92369	0.01763
5191.99502	0.01766
5190.06634	0.01768
5188.13767	0.01770
5186.20899	0.01773
5184.28032	0.01777
5182.35164	0.01779
5180.42296	0.01781
5178.49429	0.01784
5176.56561	0.01788
5174.63694	0.01794
5172.70826	0.01799
5170.77959	0.01800
5168.85091	0.01800
5166.92223	0.01802
5164.99356	0.01805
5163.06488	0.01807
5161.13621	0.01809
5159.20753	0.01814
5157.27886	0.01817
5155.35018	0.01820
5153.42150	0.01823
5151.49283	0.01827
5149.56415	0.01830
5147.63548	0.01833
5145.70680	0.01837
5143.77813	0.01841
5141.84945	0.01845
5139.92077	0.01848
5137.99210	0.01850
5136.06342	0.01851
5134.13475	0.01854
5132.20607	0.01857
5130.27740	0.01861
5128.34872	0.01864
5126.42004	0.01867
5124.49137	0.01870
5122.56269	0.01873
5120.63402	0.01875
5118.70534	0.01877
5116.77667	0.01879
5114.84799	0.01881
5112.91931	0.01884
5110.99064	0.01890
5109.06196	0.01894
5107.13329	0.01897
5105.20461	0.01898
5103.27594	0.01900
5101.34726	0.01902
5099.41858	0.01905
5097.48991	0.01908
5095.56123	0.01913
5093.63256	0.01917
5091.70388	0.01920
5089.77521	0.01923
5087.84653	0.01927
5085.91785	0.01929
5083.98918	0.01932
5082.06050	0.01936
5080.13183	0.01940
5078.20315	0.01943
5076.27448	0.01944
5074.34580	0.01946
5072.41712	0.01950
5070.48845	0.01954
5068.55977	0.01955
5066.63110	0.01956
5064.70242	0.01960
5062.77375	0.01965
5060.84507	0.01969
5058.91639	0.01972
5056.98772	0.01976
5055.05904	0.01979
5053.13037	0.01981
5051.20169	0.01984
5049.27302	0.01987
5047.34434	0.01990
5045.41566	0.01994
5043.48699	0.01999
5041.55831	0.02003
5039.62964	0.02006
5037.70096	0.02009
5035.77229	0.02011
5033.84361	0.02013
5031.91493	0.02015
5029.98626	0.02018
5028.05758	0.02022
5026.12891	0.02023
5024.20023	0.02025
5022.27156	0.02030
5020.34288	0.02036
5018.41420	0.02039
5016.48553	0.02041
5014.55685	0.02046
5012.62818	0.02052
5010.69950	0.02056
5008.77083	0.02058
5006.84215	0.02059
5004.91347	0.02060
5002.98480	0.02062
5001.05612	0.02065
4999.12745	0.02069
4997.19877	0.02073
4995.27010	0.02076
4993.34142	0.02080
4991.41274	0.02083
4989.48407	0.02084
4987.55539	0.02086
4985.62672	0.02091
4983.69804	0.02097
4981.76937	0.02100
4979.84069	0.02101
4977.91201	0.02105
4975.98334	0.02111
4974.05466	0.02115
4972.12599	0.02118
4970.19731	0.02120
4968.26864	0.02121
4966.33996	0.02122
4964.41128	0.02124
4962.48261	0.02128
4960.55393	0.02134
4958.62526	0.02141
4956.69658	0.02147
4954.76791	0.02148
4952.83923	0.02148
4950.91055	0.02151
4948.98188	0.02154
4947.05320	0.02158
4945.12453	0.02161
4943.19585	0.02164
4941.26718	0.02168
4939.33850	0.02170
4937.40982	0.02173
4935.48115	0.02179
4933.55247	0.02184
4931.62380	0.02186
4929.69512	0.02186
4927.76645	0.02188
4925.83777	0.02193
4923.90909	0.02196
4921.98042	0.02199
4920.05174	0.02204
4918.12307	0.02209
4916.19439	0.02212
4914.26572	0.02214
4912.33704	0.02218
4910.40836	0.02222
4908.47969	0.02226
4906.55101	0.02227
4904.62234	0.02228
4902.69366	0.02231
4900.76499	0.02235
4898.83631	0.02240
4896.90763	0.02245
4894.97896	0.02248
4893.05028	0.02251
4891.12161	0.02254
4889.19293	0.02257
4887.26426	0.02261
4885.33558	0.02265
4883.40690	0.02268
4881.47823	0.02271
4879.54955	0.02274
4877.62088	0.02278
4875.69220	0.02281
4873.76353	0.02284
4871.83485	0.02288
4869.90617	0.02291
4867.97750	0.02295
4866.04882	0.02297
4864.12015	0.02300
4862.19147	0.02305
4860.26280	0.02309
4858.33412	0.02312
4856.40544	0.02315
4854.47677	0.02319
4852.54809	0.02324
4850.61942	0.02328
4848.69074	0.02331
4846.76207	0.02335
4844.83339	0.02338
4842.90471	0.02340
4840.97604	0.02341
4839.04736	0.02343
4837.11869	0.02347
4835.19001	0.02353
4833.26134	0.02359
4831.33266	0.02363
4829.40398	0.02366
4827.47531	0.02369
4825.54663	0.02372
4823.61796	0.02375
4821.68928	0.02379
4819.76061	0.02383
4817.83193	0.02388
4815.90325	0.02392
4813.97458	0.02396
4812.04590	0.02398
4810.11723	0.02400
4808.18855	0.02404
4806.25988	0.02409
4804.33120	0.02414
4802.40252	0.02419
4800.47385	0.02423
4798.54517	0.02427
4796.61650	0.02431
4794.68782	0.02434
4792.75915	0.02436
4790.83047	0.02438
4788.90179	0.02441
4786.97312	0.02443
4785.04444	0.02446
4783.11577	0.02451
4781.18709	0.02454
4779.25842	0.02457
4777.32974	0.02461
4775.40106	0.02467
4773.47239	0.02472
4771.54371	0.02475
4769.61504	0.02478
4767.68636	0.02482
4765.75769	0.02487
4763.82901	0.02491
4761.90033	0.02494
4759.97166	0.02495
4758.04298	0.02498
4756.11431	0.02503
4754.18563	0.02508
4752.25696	0.02513
4750.32828	0.02517
4748.39960	0.02520
4746.47093	0.02523
4744.54225	0.02527
4742.61358	0.02529
4740.68490	0.02533
4738.75623	0.02537
4736.82755	0.02540
4734.89887	0.02543
4732.97020	0.02547
4731.04152	0.02553
4729.11285	0.02559
4727.18417	0.02563
4725.25550	0.02565
4723.32682	0.02568
4721.39814	0.02571
4719.46947	0.02574
4717.54079	0.02577
4715.61212	0.02582
4713.68344	0.02589
4711.75477	0.02593
4709.82609	0.02596
4707.89741	0.02600
4705.96874	0.02605
4704.04006	0.02608
4702.11139	0.02610
4700.18271	0.02612
4698.25404	0.02614
4696.32536	0.02618
4694.39668	0.02622
4692.46801	0.02627
4690.53933	0.02632
4688.61066	0.02637
4686.68198	0.02640
4684.75331	0.02645
4682.82463	0.02651
4680.89595	0.02656
4678.96728	0.02660
4677.03860	0.02666
4675.10993	0.02671
4673.18125	0.02674
4671.25258	0.02676
4669.32390	0.02679
4667.39522	0.02684
4665.46655	0.02689
4663.53787	0.02693
4661.60920	0.02694
4659.68052	0.02695
4657.75185	0.02697
4655.82317	0.02702
4653.89449	0.02708
4651.96582	0.02715
4650.03714	0.02720
4648.10847	0.02723
4646.17979	0.02727
4644.25112	0.02730
4642.32244	0.02734
4640.39376	0.02737
4638.46509	0.02740
4636.53641	0.02745
4634.60774	0.02751
4632.67906	0.02755
4630.75039	0.02760
4628.82171	0.02765
4626.89303	0.02770
4624.96436	0.02774
4623.03568	0.02776
4621.10701	0.02779
4619.17833	0.02784
4617.24966	0.02792
4615.32098	0.02799
4613.39230	0.02803
4611.46363	0.02804
4609.53495	0.02805
4607.60628	0.02810
4605.67760	0.02816
4603.74893	0.02821
4601.82025	0.02827
4599.89157	0.02832
4597.96290	0.02837
4596.03422	0.02841
4594.10555	0.02844
4592.17687	0.02846
4590.24820	0.02848
4588.31952	0.02852
4586.39084	0.02859
4584.46217	0.02866
4582.53349	0.02870
4580.60482	0.02874
4578.67614	0.02878
4576.74747	0.02884
4574.81879	0.02888
4572.89011	0.02892
4570.96144	0.02895
4569.03276	0.02899
4567.10409	0.02903
4565.17541	0.02909
4563.24674	0.02915
4561.31806	0.02918
4559.38938	0.02920
4557.46071	0.02924
4555.53203	0.02929
4553.60336	0.02936
4551.67468	0.02943
4549.74601	0.02949
4547.81733	0.02952
4545.88865	0.02955
4543.95998	0.02959
4542.03130	0.02966
4540.10263	0.02973
4538.17395	0.02975
4536.24528	0.02974
4534.31660	0.02976
4532.38792	0.02982
4530.45925	0.02990
4528.53057	0.02996
4526.60190	0.03001
4524.67322	0.03008
4522.74455	0.03015
4520.81587	0.03021
4518.88719	0.03026
4516.95852	0.03031
4515.02984	0.03035
4513.10117	0.03037
4511.17249	0.03040
4509.24382	0.03044
4507.31514	0.03048
4505.38646	0.03051
4503.45779	0.03055
4501.52911	0.03060
4499.60044	0.03066
4497.67176	0.03073
4495.74309	0.03080
4493.81441	0.03085
4491.88573	0.03090
4489.95706	0.03094
4488.02838	0.03099
4486.09971	0.03105
4484.17103	0.03110
4482.24236	0.03113
4480.31368	0.03118
4478.38500	0.03124
4476.45633	0.03131
4474.52765	0.03135
4472.59898	0.03138
4470.67030	0.03141
4468.74163	0.03149
4466.81295	0.03156
4464.88427	0.03159
4462.95560	0.03160
4461.02692	0.03163
4459.09825	0.03169
4457.16957	0.03176
4455.24090	0.03181
4453.31222	0.03187
4451.38354	0.03193
4449.45487	0.03200
4447.52619	0.03205
4445.59752	0.03210
4443.66884	0.03216
4441.74017	0.03221
4439.81149	0.03227
4437.88281	0.03231
4435.95414	0.03235
4434.02546	0.03240
4432.09679	0.03246
4430.16811	0.03253
4428.23944	0.03259
4426.31076	0.03264
4424.38208	0.03267
4422.45341	0.03271
4420.52473	0.03278
4418.59606	0.03286
4416.66738	0.03292
4414.73871	0.03295
4412.81003	0.03298
4410.88135	0.03302
4408.95268	0.03308
4407.02400	0.03312
4405.09533	0.03316
4403.16665	0.03320
4401.23798	0.03326
4399.30930	0.03333
4397.38062	0.03340
4395.45195	0.03345
4393.52327	0.03350
4391.59460	0.03355
4389.66592	0.03361
4387.73725	0.03368
4385.80857	0.03375
4383.87989	0.03381
4381.95122	0.03384
4380.02254	0.03389
4378.09387	0.03394
4376.16519	0.03399
4374.23652	0.03404
4372.30784	0.03412
4370.37916	0.03420
4368.45049	0.03426
4366.52181	0.03429
4364.59314	0.03433
4362.66446	0.03438
4360.73579	0.03444
4358.80711	0.03450
4356.87843	0.03456
4354.94976	0.03461
4353.02108	0.03466
4351.09241	0.03470
4349.16373	0.03477
4347.23506	0.03484
4345.30638	0.03491
4343.37770	0.03497
4341.44903	0.03502
4339.52035	0.03507
4337.59168	0.03515
4335.66300	0.03523
4333.73433	0.03528
4331.80565	0.03533
4329.87697	0.03539
4327.94830	0.03547
4326.01962	0.03555
4324.09095	0.03561
4322.16227	0.03564
4320.23360	0.03569
4318.30492	0.03576
4316.37624	0.03582
4314.44757	0.03588
4312.51889	0.03595
4310.59022	0.03603
4308.66154	0.03610
4306.73287	0.03615
4304.80419	0.03619
4302.87551	0.03624
4300.94684	0.03629
4299.01816	0.03636
4297.08949	0.03645
4295.16081	0.03654
4293.23214	0.03660
4291.30346	0.03665
4289.37478	0.03670
4287.44611	0.03676
4285.51743	0.03680
4283.58876	0.03685
4281.66008	0.03693
4279.73141	0.03702
4277.80273	0.03710
4275.87405	0.03717
4273.94538	0.03724
4272.01670	0.03731
4270.08803	0.03737
4268.15935	0.03743
4266.23068	0.03747
4264.30200	0.03750
4262.37332	0.03753
4260.44465	0.03758
4258.51597	0.03767
4256.58730	0.03777
4254.65862	0.03786
4252.72995	0.03790
4250.80127	0.03795
4248.87259	0.03801
4246.94392	0.03808
4245.01524	0.03815
4243.08657	0.03821
4241.15789	0.03827
4239.22922	0.03834
4237.30054	0.03840
4235.37186	0.03845
4233.44319	0.03850
4231.51451	0.03855
4229.58584	0.03862
4227.65716	0.03870
4225.72849	0.03879
4223.79981	0.03887
4221.87113	0.03894
4219.94246	0.03900
4218.01378	0.03905
4216.08511	0.03910
4214.15643	0.03916
4212.22776	0.03923
4210.29908	0.03930
4208.37040	0.03939
4206.44173	0.03946
4204.51305	0.03954
4202.58438	0.03963
4200.65570	0.03970
4198.72703	0.03975
4196.79835	0.03981
4194.86968	0.03989
4192.94100	0.03999
4191.01232	0.04006
4189.08365	0.04012
4187.15497	0.04019
4185.22630	0.04024
4183.29762	0.04028
4181.36895	0.04036
4179.44027	0.04045
4177.51159	0.04053
4175.58292	0.04059
4173.65424	0.04067
4171.72557	0.04076
4169.79689	0.04082
4167.86822	0.04088
4165.93954	0.04093
4164.01086	0.04101
4162.08219	0.04109
4160.15351	0.04119
4158.22484	0.04126
4156.29616	0.04131
4154.36749	0.04137
4152.43881	0.04146
4150.51013	0.04156
4148.58146	0.04163
4146.65278	0.04169
4144.72411	0.04175
4142.79543	0.04181
4140.86676	0.04187
4138.93808	0.04195
4137.00940	0.04203
4135.08073	0.04212
4133.15205	0.04219
4131.22338	0.04228
4129.29470	0.04236
4127.36603	0.04242
4125.43735	0.04248
4123.50867	0.04256
4121.58000	0.04263
4119.65132	0.04269
4117.72265	0.04277
4115.79397	0.04285
4113.86530	0.04293
4111.93662	0.04300
4110.00794	0.04308
4108.07927	0.04315
4106.15059	0.04323
4104.22192	0.04333
4102.29324	0.04342
4100.36457	0.04349
4098.43589	0.04355
4096.50721	0.04363
4094.57854	0.04369
4092.64986	0.04375
4090.72119	0.04384
4088.79251	0.04395
4086.86384	0.04404
4084.93516	0.04411
4083.00648	0.04417
4081.07781	0.04422
4079.14913	0.04427
4077.22046	0.04435
4075.29178	0.04447
4073.36311	0.04460
4071.43443	0.04470
4069.50575	0.04476
4067.57708	0.04481
4065.64840	0.04487
4063.71973	0.04495
4061.79105	0.04505
4059.86238	0.04517
4057.93370	0.04529
4056.00502	0.04537
4054.07635	0.04543
4052.14767	0.04548
4050.21900	0.04554
4048.29032	0.04560
4046.36165	0.04567
4044.43297	0.04573
4042.50429	0.04580
4040.57562	0.04590
4038.64694	0.04599
4036.71827	0.04607
4034.78959	0.04617
4032.86092	0.04626
4030.93224	0.04636
4029.00356	0.04644
4027.07489	0.04649
4025.14621	0.04655
4023.21754	0.04662
4021.28886	0.04670
4019.36019	0.04678
4017.43151	0.04688
4015.50283	0.04699
4013.57416	0.04707
4011.64548	0.04716
4009.71681	0.04726
4007.78813	0.04734
4005.85946	0.04741
4003.93078	0.04747
4002.00210	0.04755
4000.07343	0.04764
3998.14475	0.04773
3996.21608	0.04782
3994.28740	0.04793
3992.35873	0.04804
3990.43005	0.04813
3988.50137	0.04821
3986.57270	0.04827
3984.64402	0.04831
3982.71535	0.04837
3980.78667	0.04847
3978.85800	0.04857
3976.92932	0.04867
3975.00064	0.04876
3973.07197	0.04884
3971.14329	0.04892
3969.21462	0.04901
3967.28594	0.04911
3965.35727	0.04920
3963.42859	0.04926
3961.49991	0.04932
3959.57124	0.04942
3957.64256	0.04953
3955.71389	0.04960
3953.78521	0.04966
3951.85654	0.04973
3949.92786	0.04979
3947.99918	0.04987
3946.07051	0.04997
3944.14183	0.05008
3942.21316	0.05018
3940.28448	0.05030
3938.35581	0.05040
3936.42713	0.05048
3934.49845	0.05051
3932.56978	0.05054
3930.64110	0.05065
3928.71243	0.05080
3926.78375	0.05089
3924.85508	0.05095
3922.92640	0.05103
3920.99772	0.05110
3919.06905	0.05116
3917.14037	0.05125
3915.21170	0.05140
3913.28302	0.05156
3911.35435	0.05167
3909.42567	0.05175
3907.49699	0.05178
3905.56832	0.05173
3903.63964	0.05170
3901.71097	0.05174
3899.78229	0.05186
3897.85362	0.05206
3895.92494	0.05228
3893.99626	0.05237
3892.06759	0.05241
3890.13891	0.05253
3888.21024	0.05265
3886.28156	0.05267
3884.35289	0.05272
3882.42421	0.05279
3880.49553	0.05287
3878.56686	0.05305
3876.63818	0.05320
3874.70951	0.05326
3872.78083	0.05326
3870.85216	0.05325
3868.92348	0.05332
3866.99480	0.05345
3865.06613	0.05356
3863.13745	0.05371
3861.20878	0.05390
3859.28010	0.05401
3857.35143	0.05389
3855.42275	0.05363
3853.49407	0.05363
3851.56540	0.05405
3849.63672	0.05447
3847.70805	0.05467
3845.77937	0.05472
3843.85070	0.05474
3841.92202	0.05477
3839.99334	0.05479
3838.06467	0.05482
3836.13599	0.05492
3834.20732	0.05508
3832.27864	0.05526
3830.34997	0.05541
3828.42129	0.05553
3826.49261	0.05562
3824.56394	0.05566
3822.63526	0.05563
3820.70659	0.05565
3818.77791	0.05576
3816.84924	0.05588
3814.92056	0.05609
3812.99188	0.05637
3811.06321	0.05652
3809.13453	0.05653
3807.20586	0.05655
3805.27718	0.05662
3803.34851	0.05661
3801.41983	0.05663
3799.49115	0.05681
3797.56248	0.05704
3795.63380	0.05721
3793.70513	0.05736
3791.77645	0.05749
3789.84778	0.05759
3787.91910	0.05764
3785.99042	0.05770
3784.06175	0.05780
3782.13307	0.05788
3780.20440	0.05792
3778.27572	0.05803
3776.34705	0.05822
3774.41837	0.05837
3772.48969	0.05842
3770.56102	0.05844
3768.63234	0.05852
3766.70367	0.05864
3764.77499	0.05878
3762.84632	0.05889
3760.91764	0.05894
3758.98896	0.05899
3757.06029	0.05906
3755.13161	0.05905
3753.20294	0.05892
3751.27426	0.05888
3749.34559	0.05902
3747.41691	0.05909
3745.48823	0.05900
3743.55956	0.05918
3741.63088	0.05962
3739.70221	0.05985
3737.77353	0.05980
3735.84486	0.05980
3733.91618	0.06001
3731.98750	0.06029
3730.05883	0.06048
3728.13015	0.06055
3726.20148	0.06061
3724.27280	0.06071
3722.34413	0.06082
3720.41545	0.06095
3718.48677	0.06111
3716.55810	0.06124
3714.62942	0.06126
3712.70075	0.06124
3710.77207	0.06135
3708.84340	0.06157
3706.91472	0.06178
3704.98604	0.06188
3703.05737	0.06192
3701.12869	0.06200
3699.20002	0.06216
3697.27134	0.06228
3695.34267	0.06234
3693.41399	0.06235
3691.48531	0.06231
3689.55664	0.06227
3687.62796	0.06244
3685.69929	0.06276
3683.77061	0.06302
3681.84194	0.06311
3679.91326	0.06309
3677.98458	0.06301
3676.05591	0.06300
3674.12723	0.06311
3672.19856	0.06322
3670.26988	0.06330
3668.34121	0.06351
3666.41253	0.06378
3664.48385	0.06396
3662.55518	0.06405
3660.62650	0.06411
3658.69783	0.06415
3656.76915	0.06420
3654.84048	0.06426
3652.91180	0.06417
3650.98312	0.06393
3649.05445	0.06379
3647.12577	0.06394
3645.19710	0.06431
3643.26842	0.06466
3641.33975	0.06487
3639.41107	0.06500
3637.48239	0.06511
3635.55372	0.06518
3633.62504	0.06520
3631.69637	0.06511
3629.76769	0.06500
3627.83902	0.06513
3625.91034	0.06544
3623.98166	0.06564
3622.05299	0.06565
3620.12431	0.06561
3618.19564	0.06567
3616.26696	0.06577
3614.33829	0.06583
3612.40961	0.06583
3610.48093	0.06582
3608.55226	0.06588
3606.62358	0.06608
3604.69491	0.06629
3602.76623	0.06641
3600.83756	0.06647
3598.90888	0.06652
3596.98020	0.06656
3595.05153	0.06663
3593.12285	0.06674
3591.19418	0.06681
3589.26550	0.06677
3587.33683	0.06675
3585.40815	0.06689
3583.47947	0.06709
3581.55080	0.06723
3579.62212	0.06732
3577.69345	0.06740
3575.76477	0.06747
3573.83610	0.06756
3571.90742	0.06762
3569.97874	0.06760
3568.05007	0.06756
3566.12139	0.06769
3564.19272	0.06793
3562.26404	0.06808
3560.33537	0.06815
3558.40669	0.06821
3556.47801	0.06828
3554.54934	0.06835
3552.62066	0.06841
3550.69199	0.06848
3548.76331	0.06851
3546.83464	0.06851
3544.90596	0.06857
3542.97728	0.06869
3541.04861	0.06879
3539.11993	0.06888
3537.19126	0.06895
3535.26258	0.06900
3533.33391	0.06904
3531.40523	0.06908
3529.47655	0.06909
3527.54788	0.06911
3525.61920	0.06916
3523.69053	0.06922
3521.76185	0.06927
3519.83318	0.06930
3517.90450	0.06936
3515.97582	0.06945
3514.04715	0.06950
3512.11847	0.06950
3510.18980	0.06949
3508.26112	0.06952
3506.33245	0.06954
3504.40377	0.06955
3502.47509	0.06957
3500.54642	0.06961
3498.61774	0.06963
3496.68907	0.06964
3494.76039	0.06966
3492.83172	0.06969
3490.90304	0.06971
3488.97436	0.06974
3487.04569	0.06976
3485.11701	0.06979
3483.18834	0.06982
3481.25966	0.06987
3479.33099	0.06996
3477.40231	0.07006
3475.47363	0.07014
3473.54496	0.07022
3471.61628	0.07031
3469.68761	0.07042
3467.75893	0.07052
3465.83026	0.07061
3463.90158	0.07069
3461.97290	0.07079
3460.04423	0.07093
3458.11555	0.07107
3456.18688	0.07117
3454.25820	0.07126
3452.32953	0.07135
3450.40085	0.07143
3448.47217	0.07147
3446.54350	0.07153
3444.61482	0.07162
3442.68615	0.07175
3440.75747	0.07191
3438.82880	0.07210
3436.90012	0.07231
3434.97144	0.07252
3433.04277	0.07272
3431.11409	0.07293
3429.18542	0.07316
3427.25674	0.07336
3425.32807	0.07355
3423.39939	0.07376
3421.47071	0.07396
3419.54204	0.07416
3417.61336	0.07439
3415.68469	0.07459
3413.75601	0.07473
3411.82734	0.07486
3409.89866	0.07504
3407.96998	0.07524
3406.04131	0.07537
3404.11263	0.07547
3402.18396	0.07559
3400.25528	0.07577
3398.32661	0.07597
3396.39793	0.07614
3394.46925	0.07624
3392.54058	0.07633
3390.61190	0.07647
3388.68323	0.07665
3386.75455	0.07680
3384.82588	0.07693
3382.89720	0.07707
3380.96852	0.07722
3379.03985	0.07737
3377.11117	0.07754
3375.18250	0.07769
3373.25382	0.07781
3371.32515	0.07792
3369.39647	0.07805
3367.46779	0.07821
3365.53912	0.07836
3363.61044	0.07849
3361.68177	0.07862
3359.75309	0.07873
3357.82442	0.07882
3355.89574	0.07894
3353.96706	0.07909
3352.03839	0.07925
3350.10971	0.07940
3348.18104	0.07952
3346.25236	0.07964
3344.32369	0.07976
3342.39501	0.07989
3340.46633	0.08001
3338.53766	0.08013
3336.60898	0.08026
3334.68031	0.08040
3332.75163	0.08053
3330.82296	0.08067
3328.89428	0.08081
3326.96560	0.08092
3325.03693	0.08101
3323.10825	0.08112
3321.17958	0.08127
3319.25090	0.08145
3317.32223	0.08164
3315.39355	0.08178
3313.46487	0.08189
3311.53620	0.08200
3309.60752	0.08214
3307.67885	0.08228
3305.75017	0.08242
3303.82150	0.08258
3301.89282	0.08275
3299.96414	0.08290
3298.03547	0.08302
3296.10679	0.08315
3294.17812	0.08330
3292.24944	0.08347
3290.32077	0.08364
3288.39209	0.08377
3286.46341	0.08391
3284.53474	0.08406
3282.60606	0.08420
3280.67739	0.08432
3278.74871	0.08445
3276.82004	0.08457
3274.89136	0.08469
3272.96268	0.08484
3271.03401	0.08503
3269.10533	0.08521
3267.17666	0.08535
3265.24798	0.08547
3263.31931	0.08562
3261.39063	0.08579
3259.46195	0.08593
3257.53328	0.08603
3255.60460	0.08615
3253.67593	0.08628
3251.74725	0.08641
3249.81858	0.08655
3247.88990	0.08669
3245.96122	0.08683
3244.03255	0.08700
3242.10387	0.08719
3240.17520	0.08734
3238.24652	0.08750
3236.31785	0.08767
3234.38917	0.08781
3232.46049	0.08793
3230.53182	0.08806
3228.60314	0.08822
3226.67447	0.08838
3224.74579	0.08853
3222.81712	0.08867
3220.88844	0.08878
3218.95976	0.08888
3217.03109	0.08900
3215.10241	0.08915
3213.17374	0.08933
3211.24506	0.08948
3209.31639	0.08960
3207.38771	0.08975
3205.45903	0.08991
3203.53036	0.09009
3201.60168	0.09025
3199.67301	0.09039
3197.74433	0.09051
3195.81566	0.09064
3193.88698	0.09079
3191.95830	0.09096
3190.02963	0.09114
3188.10095	0.09130
3186.17228	0.09145
3184.24360	0.09159
3182.31493	0.09174
3180.38625	0.09189
3178.45757	0.09204
3176.52890	0.09221
3174.60022	0.09239
3172.67155	0.09255
3170.74287	0.09271
3168.81420	0.09286
3166.88552	0.09302
3164.95684	0.09318
3163.02817	0.09332
3161.09949	0.09348
3159.17082	0.09365
3157.24214	0.09381
3155.31347	0.09393
3153.38479	0.09404
3151.45611	0.09414
3149.52744	0.09427
3147.59876	0.09442
3145.67009	0.09458
3143.74141	0.09471
3141.81274	0.09484
3139.88406	0.09500
3137.95538	0.09517
3136.02671	0.09531
3134.09803	0.09545
3132.16936	0.09558
3130.24068	0.09573
3128.31201	0.09588
3126.38333	0.09602
3124.45465	0.09617
3122.52598	0.09634
3120.59730	0.09652
3118.66863	0.09669
3116.73995	0.09681
3114.81128	0.09693
3112.88260	0.09707
3110.95392	0.09720
3109.02525	0.09732
3107.09657	0.09745
3105.16790	0.09761
3103.23922	0.09778
3101.31055	0.09793
3099.38187	0.09806
3097.45319	0.09820
3095.52452	0.09837
3093.59584	0.09854
3091.66717	0.09868
3089.73849	0.09882
3087.80982	0.09896
3085.88114	0.09910
3083.95246	0.09926
3082.02379	0.09942
3080.09511	0.09955
3078.16644	0.09967
3076.23776	0.09982
3074.30909	0.10000
3072.38041	0.10016
3070.45173	0.10029
3068.52306	0.10040
3066.59438	0.10053
3064.66571	0.10068
3062.73703	0.10082
3060.80836	0.10096
3058.87968	0.10110
3056.95100	0.10126
3055.02233	0.10140
3053.09365	0.10153
3051.16498	0.10168
3049.23630	0.10184
3047.30763	0.10199
3045.37895	0.10213
3043.45027	0.10226
3041.52160	0.10241
3039.59292	0.10256
3037.66425	0.10271
3035.73557	0.10283
3033.80690	0.10295
3031.87822	0.10309
3029.94954	0.10326
3028.02087	0.10344
3026.09219	0.10358
3024.16352	0.10370
3022.23484	0.10381
3020.30617	0.10392
3018.37749	0.10405
3016.44881	0.10418
3014.52014	0.10432
3012.59146	0.10447
3010.66279	0.10461
3008.73411	0.10474
3006.80544	0.10486
3004.87676	0.10497
3002.94808	0.10506
3001.01941	0.10514
2999.09073	0.10523
2997.16206	0.10533
2995.23338	0.10541
2993.30471	0.10549
2991.37603	0.10553
2989.44735	0.10554
2987.51868	0.10552
2985.59000	0.10546
2983.66133	0.10538
2981.73265	0.10530
2979.80398	0.10516
2977.87530	0.10497
2975.94662	0.10474
2974.01795	0.10445
2972.08927	0.10403
2970.16060	0.10355
2968.23192	0.10308
2966.30325	0.10266
2964.37457	0.10232
2962.44589	0.10216
2960.51722	0.10224
2958.58854	0.10257
2956.65987	0.10308
2954.73119	0.10376
2952.80252	0.10456
2950.87384	0.10537
2948.94516	0.10608
2947.01649	0.10665
2945.08781	0.10711
2943.15914	0.10749
2941.23046	0.10775
2939.30179	0.10788
2937.37311	0.10793
2935.44443	0.10794
2933.51576	0.10793
2931.58708	0.10791
2929.65841	0.10787
2927.72973	0.10781
2925.80106	0.10778
2923.87238	0.10775
2921.94370	0.10773
2920.01503	0.10777
2918.08635	0.10791
2916.15768	0.10816
2914.22900	0.10854
2912.30033	0.10901
2910.37165	0.10944
2908.44297	0.10975
2906.51430	0.10999
2904.58562	0.11025
2902.65695	0.11052
2900.72827	0.11079
2898.79960	0.11107
2896.87092	0.11137
2894.94224	0.11167
2893.01357	0.11195
2891.08489	0.11223
2889.15622	0.11250
2887.22754	0.11277
2885.29887	0.11301
2883.37019	0.11318
2881.44151	0.11333
2879.51284	0.11349
2877.58416	0.11368
2875.65549	0.11388
2873.72681	0.11407
2871.79814	0.11422
2869.86946	0.11437
2867.94078	0.11454
2866.01211	0.11467
2864.08343	0.11476
2862.15476	0.11483
2860.22608	0.11487
2858.29741	0.11489
2856.36873	0.11488
2854.44005	0.11487
2852.51138	0.11490
2850.58270	0.11503
2848.65403	0.11533
2846.72535	0.11583
2844.79668	0.11638
2842.86800	0.11684
2840.93932	0.11718
2839.01065	0.11747
2837.08197	0.11773
2835.15330	0.11795
2833.22462	0.11814
2831.29595	0.11831
2829.36727	0.11851
2827.43859	0.11872
2825.50992	0.11892
2823.58124	0.11912
2821.65257	0.11932
2819.72389	0.11949
2817.79522	0.11964
2815.86654	0.11981
2813.93786	0.11998
2812.00919	0.12015
2810.08051	0.12031
2808.15184	0.12045
2806.22316	0.12059
2804.29449	0.12077
2802.36581	0.12095
2800.43713	0.12112
2798.50846	0.12128
2796.57978	0.12147
2794.65111	0.12166
2792.72243	0.12182
2790.79376	0.12195
2788.86508	0.12207
2786.93640	0.12221
2785.00773	0.12240
2783.07905	0.12262
2781.15038	0.12281
2779.22170	0.12297
2777.29303	0.12312
2775.36435	0.12329
2773.43567	0.12345
2771.50700	0.12358
2769.57832	0.12371
2767.64965	0.12387
2765.72097	0.12403
2763.79230	0.12417
2761.86362	0.12433
2759.93494	0.12450
2758.00627	0.12465
2756.07759	0.12482
2754.14892	0.12496
2752.22024	0.12509
2750.29157	0.12524
2748.36289	0.12541
2746.43421	0.12556
2744.50554	0.12569
2742.57686	0.12582
2740.64819	0.12596
2738.71951	0.12613
2736.79084	0.12633
2734.86216	0.12651
2732.93348	0.12667
2731.00481	0.12681
2729.07613	0.12695
2727.14746	0.12712
2725.21878	0.12725
2723.29011	0.12735
2721.36143	0.12748
2719.43275	0.12764
2717.50408	0.12779
2715.57540	0.12790
2713.64673	0.12803
2711.71805	0.12819
2709.78938	0.12834
2707.86070	0.12847
2705.93202	0.12860
2704.00335	0.12875
2702.07467	0.12892
2700.14600	0.12912
2698.21732	0.12929
2696.28865	0.12939
2694.35997	0.12947
2692.43129	0.12959
2690.50262	0.12974
2688.57394	0.12990
2686.64527	0.13007
2684.71659	0.13023
2682.78792	0.13038
2680.85924	0.13055
2678.93056	0.13072
2677.00189	0.13087
2675.07321	0.13098
2673.14454	0.13109
2671.21586	0.13121
2669.28719	0.13135
2667.35851	0.13151
2665.42983	0.13167
2663.50116	0.13182
2661.57248	0.13196
2659.64381	0.13209
2657.71513	0.13224
2655.78646	0.13239
2653.85778	0.13252
2651.92910	0.13268
2650.00043	0.13287
2648.07175	0.13305
2646.14308	0.13321
2644.21440	0.13334
2642.28573	0.13349
2640.35705	0.13367
2638.42837	0.13386
2636.49970	0.13405
2634.57102	0.13421
2632.64235	0.13433
2630.71367	0.13447
2628.78500	0.13465
2626.85632	0.13483
2624.92764	0.13495
2622.99897	0.13510
2621.07029	0.13528
2619.14162	0.13544
2617.21294	0.13559
2615.28427	0.13575
2613.35559	0.13590
2611.42691	0.13606
2609.49824	0.13623
2607.56956	0.13639
2605.64089	0.13653
2603.71221	0.13668
2601.78354	0.13688
2599.85486	0.13710
2597.92618	0.13729
2595.99751	0.13741
2594.06883	0.13751
2592.14016	0.13765
2590.21148	0.13780
2588.28281	0.13792
2586.35413	0.13806
2584.42545	0.13823
2582.49678	0.13838
2580.56810	0.13851
2578.63943	0.13865
2576.71075	0.13879
2574.78208	0.13893
2572.85340	0.13909
2570.92472	0.13927
2568.99605	0.13946
2567.06737	0.13963
2565.13870	0.13976
2563.21002	0.13988
2561.28135	0.14001
2559.35267	0.14014
2557.42399	0.14030
2555.49532	0.14049
2553.56664	0.14068
2551.63797	0.14082
2549.70929	0.14093
2547.78062	0.14106
2545.85194	0.14122
2543.92326	0.14138
2541.99459	0.14153
2540.06591	0.14171
2538.13724	0.14187
2536.20856	0.14200
2534.27989	0.14212
2532.35121	0.14226
2530.42253	0.14242
2528.49386	0.14259
2526.56518	0.14278
2524.63651	0.14295
2522.70783	0.14307
2520.77916	0.14320
2518.85048	0.14336
2516.92181	0.14352
2514.99313	0.14368
2513.06445	0.14383
2511.13578	0.14399
2509.20710	0.14416
2507.27843	0.14433
2505.34975	0.14450
2503.42108	0.14469
2501.49240	0.14488
2499.56372	0.14504
2497.63505	0.14518
2495.70637	0.14534
2493.77770	0.14555
2491.84902	0.14576
2489.92035	0.14593
2487.99167	0.14609
2486.06299	0.14625
2484.13432	0.14643
2482.20564	0.14658
2480.27697	0.14672
2478.34829	0.14686
2476.41962	0.14703
2474.49094	0.14723
2472.56226	0.14741
2470.63359	0.14757
2468.70491	0.14773
2466.77624	0.14787
2464.84756	0.14800
2462.91889	0.14813
2460.99021	0.14830
2459.06153	0.14848
2457.13286	0.14869
2455.20418	0.14887
2453.27551	0.14899
2451.34683	0.14910
2449.41816	0.14924
2447.48948	0.14941
2445.56080	0.14955
2443.63213	0.14969
2441.70345	0.14986
2439.77478	0.15004
2437.84610	0.15021
2435.91743	0.15037
2433.98875	0.15054
2432.06007	0.15074
2430.13140	0.15092
2428.20272	0.15107
2426.27405	0.15119
2424.34537	0.15135
2422.41670	0.15156
2420.48802	0.15175
2418.55934	0.15190
2416.63067	0.15202
2414.70199	0.15215
2412.77332	0.15231
2410.84464	0.15249
2408.91597	0.15267
2406.98729	0.15283
2405.05861	0.15300
2403.12994	0.15315
2401.20126	0.15328
2399.27259	0.15341
2397.34391	0.15352
2395.41524	0.15365
2393.48656	0.15383
2391.55788	0.15404
2389.62921	0.15422
2387.70053	0.15437
2385.77186	0.15450
2383.84318	0.15462
2381.91451	0.15471
2379.98583	0.15477
2378.05715	0.15482
2376.12848	0.15489
2374.19980	0.15496
2372.27113	0.15498
2370.34245	0.15498
2368.41378	0.15501
2366.48510	0.15508
2364.55642	0.15516
2362.62775	0.15526
2360.69907	0.15538
2358.77040	0.15554
2356.84172	0.15578
2354.91305	0.15606
2352.98437	0.15640
2351.05569	0.15679
2349.12702	0.15707
2347.19834	0.15715
2345.26967	0.15716
2343.34099	0.15719
2341.41232	0.15729
2339.48364	0.15744
2337.55496	0.15757
2335.62629	0.15769
2333.69761	0.15782
2331.76894	0.15798
2329.84026	0.15819
2327.91159	0.15843
2325.98291	0.15865
2324.05423	0.15885
2322.12556	0.15907
2320.19688	0.15933
2318.26821	0.15956
2316.33953	0.15974
2314.41086	0.15990
2312.48218	0.16010
2310.55350	0.16031
2308.62483	0.16052
2306.69615	0.16072
2304.76748	0.16093
2302.83880	0.16112
2300.91013	0.16126
2298.98145	0.16143
2297.05277	0.16163
2295.12410	0.16184
2293.19542	0.16201
2291.26675	0.16219
2289.33807	0.16242
2287.40940	0.16261
2285.48072	0.16273
2283.55204	0.16284
2281.62337	0.16295
2279.69469	0.16304
2277.76602	0.16313
2275.83734	0.16328
2273.90867	0.16346
2271.97999	0.16364
2270.05131	0.16380
2268.12264	0.16396
2266.19396	0.16412
2264.26529	0.16429
2262.33661	0.16448
2260.40794	0.16465
2258.47926	0.16478
2256.55058	0.16494
2254.62191	0.16515
2252.69323	0.16535
2250.76456	0.16550
2248.83588	0.16560
2246.90721	0.16571
2244.97853	0.16584
2243.04985	0.16600
2241.12118	0.16618
2239.19250	0.16636
2237.26383	0.16649
2235.33515	0.16660
2233.40648	0.16672
2231.47780	0.16685
2229.54912	0.16700
2227.62045	0.16717
2225.69177	0.16734
2223.76310	0.16750
2221.83442	0.16763
2219.90575	0.16773
2217.97707	0.16784
2216.04839	0.16800
2214.11972	0.16818
2212.19104	0.16832
2210.26237	0.16846
2208.33369	0.16863
2206.40502	0.16880
2204.47634	0.16893
2202.54766	0.16906
2200.61899	0.16920
2198.69031	0.16934
2196.76164	0.16946
2194.83296	0.16957
2192.90429	0.16968
2190.97561	0.16982
2189.04693	0.16997
2187.11826	0.17010
2185.18958	0.17020
2183.26091	0.17029
2181.33223	0.17042
2179.40356	0.17060
2177.47488	0.17075
2175.54620	0.17084
2173.61753	0.17096
2171.68885	0.17111
2169.76018	0.17125
2167.83150	0.17138
2165.90283	0.17150
2163.97415	0.17163
2162.04547	0.17175
2160.11680	0.17189
2158.18812	0.17205
2156.25945	0.17223
2154.33077	0.17238
2152.40210	0.17247
2150.47342	0.17258
2148.54474	0.17272
2146.61607	0.17287
2144.68739	0.17305
2142.75872	0.17324
2140.83004	0.17337
2138.90137	0.17343
2136.97269	0.17352
2135.04401	0.17366
2133.11534	0.17381
2131.18666	0.17401
2129.25799	0.17422
2127.32931	0.17441
2125.40064	0.17457
2123.47196	0.17472
2121.54328	0.17488
2119.61461	0.17506
2117.68593	0.17525
2115.75726	0.17543
2113.82858	0.17564
2111.89991	0.17587
2109.97123	0.17609
2108.04255	0.17628
2106.11388	0.17645
2104.18520	0.17661
2102.25653	0.17677
2100.32785	0.17695
2098.39918	0.17712
2096.47050	0.17729
2094.54182	0.17748
2092.61315	0.17768
2090.68447	0.17786
2088.75580	0.17805
2086.82712	0.17824
2084.89845	0.17844
2082.96977	0.17861
2081.04109	0.17875
2079.11242	0.17892
2077.18374	0.17913
2075.25507	0.17935
2073.32639	0.17957
2071.39772	0.17974
2069.46904	0.17987
2067.54036	0.17997
2065.61169	0.18011
2063.68301	0.18032
2061.75434	0.18055
2059.82566	0.18076
2057.89699	0.18093
2055.96831	0.18106
2054.03963	0.18119
2052.11096	0.18134
2050.18228	0.18149
2048.25361	0.18166
2046.32493	0.18186
2044.39626	0.18205
2042.46758	0.18222
2040.53890	0.18242
2038.61023	0.18265
2036.68155	0.18285
2034.75288	0.18296
2032.82420	0.18305
2030.89553	0.18321
2028.96685	0.18339
2027.03817	0.18355
2025.10950	0.18371
2023.18082	0.18388
2021.25215	0.18406
2019.32347	0.18421
2017.39480	0.18436
2015.46612	0.18455
2013.53744	0.18472
2011.60877	0.18484
2009.68009	0.18499
2007.75142	0.18520
2005.82274	0.18541
2003.89407	0.18556
2001.96539	0.18566
2000.03671	0.18575
1998.10804	0.18587
1996.17936	0.18602
1994.25069	0.18613
1992.32201	0.18623
1990.39334	0.18636
1988.46466	0.18649
1986.53598	0.18665
1984.60731	0.18684
1982.67863	0.18703
1980.74996	0.18718
1978.82128	0.18728
1976.89261	0.18735
1974.96393	0.18747
1973.03525	0.18764
1971.10658	0.18778
1969.17790	0.18786
1967.24923	0.18793
1965.32055	0.18807
1963.39188	0.18824
1961.46320	0.18844
1959.53452	0.18864
1957.60585	0.18881
1955.67717	0.18894
1953.74850	0.18905
1951.81982	0.18916
1949.89115	0.18931
1947.96247	0.18946
1946.03379	0.18954
1944.10512	0.18957
1942.17644	0.18969
1940.24777	0.18992
1938.31909	0.19018
1936.39042	0.19040
1934.46174	0.19056
1932.53306	0.19067
1930.60439	0.19081
1928.67571	0.19098
1926.74704	0.19110
1924.81836	0.19115
1922.88969	0.19126
1920.96101	0.19143
1919.03233	0.19154
1917.10366	0.19171
1915.17498	0.19201
1913.24631	0.19228
1911.31763	0.19246
1909.38896	0.19258
1907.46028	0.19268
1905.53160	0.19283
1903.60293	0.19303
1901.67425	0.19323
1899.74558	0.19338
1897.81690	0.19347
1895.88823	0.19352
1893.95955	0.19363
1892.03087	0.19373
1890.10220	0.19385
1888.17352	0.19404
1886.24485	0.19423
1884.31617	0.19436
1882.38750	0.19451
1880.45882	0.19473
1878.53014	0.19494
1876.60147	0.19511
1874.67279	0.19522
1872.74412	0.19520
1870.81544	0.19500
1868.88677	0.19498
1866.95809	0.19535
1865.02941	0.19583
1863.10074	0.19614
1861.17206	0.19632
1859.24339	0.19644
1857.31471	0.19657
1855.38604	0.19674
1853.45736	0.19695
1851.52868	0.19716
1849.60001	0.19731
1847.67133	0.19734
1845.74266	0.19730
1843.81398	0.19740
1841.88531	0.19774
1839.95663	0.19807
1838.02795	0.19827
1836.09928	0.19841
1834.17060	0.19848
1832.24193	0.19847
1830.31325	0.19855
1828.38458	0.19877
1826.45590	0.19894
1824.52722	0.19903
1822.59855	0.19920
1820.66987	0.19942
1818.74120	0.19962
1816.81252	0.19976
1814.88385	0.19984
1812.95517	0.19988
1811.02649	0.19997
1809.09782	0.20015
1807.16914	0.20033
1805.24047	0.20042
1803.31179	0.20040
1801.38312	0.20042
1799.45444	0.20056
1797.52576	0.20075
1795.59709	0.20078
1793.66841	0.20065
1791.73974	0.20073
1789.81106	0.20110
1787.88239	0.20137
1785.95371	0.20142
1784.02503	0.20151
1782.09636	0.20168
1780.16768	0.20182
1778.23901	0.20196
1776.31033	0.20202
1774.38166	0.20193
1772.45298	0.20185
1770.52430	0.20197
1768.59563	0.20225
1766.66695	0.20257
1764.73828	0.20272
1762.80960	0.20265
1760.88093	0.20262
1758.95225	0.20274
1757.02357	0.20286
1755.09490	0.20279
1753.16622	0.20233
1751.23755	0.20190
1749.30887	0.20201
1747.38020	0.20231
1745.45152	0.20236
1743.52284	0.20227
1741.59417	0.20216
1739.66549	0.20211
1737.73682	0.20220
1735.80814	0.20216
1733.87947	0.20212
1731.95079	0.20240
1730.02211	0.20280
1728.09344	0.20306
1726.16476	0.20323
1724.23609	0.20338
1722.30741	0.20347
1720.37874	0.20330
1718.45006	0.20297
1716.52138	0.20301
1714.59271	0.20351
1712.66403	0.20400
1710.73536	0.20424
1708.80668	0.20427
1706.87801	0.20421
1704.94933	0.20417
1703.02065	0.20400
1701.09198	0.20372
1699.16330	0.20377
1697.23463	0.20411
1695.30595	0.20447
1693.37728	0.20478
1691.44860	0.20485
1689.51992	0.20480
1687.59125	0.20472
1685.66257	0.20443
1683.73390	0.20424
1681.80522	0.20452
1679.87655	0.20491
1677.94787	0.20482
1676.01919	0.20442
1674.09052	0.20429
1672.16184	0.20444
1670.23317	0.20464
1668.30449	0.20499
1666.37582	0.20529
1664.44714	0.20527
1662.51846	0.20522
1660.58979	0.20540
1658.66111	0.20552
1656.73244	0.20518
1654.80376	0.20439
1652.87509	0.20397
1650.94641	0.20435
1649.01773	0.20475
1647.08906	0.20493
1645.16038	0.20531
1643.23171	0.20568
1641.30303	0.20575
1639.37436	0.20561
1637.44568	0.20537
1635.51700	0.20539
1633.58833	0.20582
1631.65965	0.20615
1629.73098	0.20608
1627.80230	0.20589
1625.87363	0.20570
1623.94495	0.20536
1622.01627	0.20503
1620.08760	0.20488
1618.15892	0.20496
1616.23025	0.20548
1614.30157	0.20632
1612.37290	0.20695
1610.44422	0.20727
1608.51554	0.20753
1606.58687	0.20781
1604.65819	0.20801
1602.72952	0.20819
1600.80084	0.20838
1598.87217	0.20855
1596.94349	0.20866
1595.01481	0.20876
1593.08614	0.20889
1591.15746	0.20910
1589.22879	0.20935
1587.30011	0.20961
1585.37144	0.20982
1583.44276	0.20996
1581.51408	0.20999
1579.58541	0.20982
1577.65673	0.20951
1575.72806	0.20955
1573.79938	0.21005
1571.87071	0.21039
1569.94203	0.21045
1568.01335	0.21057
1566.08468	0.21071
1564.15600	0.21067
1562.22733	0.21023
1560.29865	0.20960
1558.36998	0.20966
1556.44130	0.21048
1554.51262	0.21126
1552.58395	0.21163
1550.65527	0.21171
1548.72660	0.21166
1546.79792	0.21143
1544.86925	0.21107
1542.94057	0.21088
1541.01189	0.21103
1539.08322	0.21152
1537.15454	0.21192
1535.22587	0.21181
1533.29719	0.21172
1531.36852	0.21213
1529.43984	0.21248
1527.51116	0.21242
1525.58249	0.21221
1523.65381	0.21193
1521.72514	0.21179
1519.79646	0.21206
1517.86779	0.21242
1515.93911	0.21262
1514.01043	0.21278
1512.08176	0.21275
1510.15308	0.21229
1508.22441	0.21165
1506.29573	0.21175
1504.36706	0.21266
1502.43838	0.21326
1500.50970	0.21308
1498.58103	0.21268
1496.65235	0.21262
1494.72368	0.21284
1492.79500	0.21288
1490.86633	0.21264
1488.93765	0.21247
1487.00897	0.21254
1485.08030	0.21270
1483.15162	0.21272
1481.22295	0.21253
1479.29427	0.21207
1477.36560	0.21140
1475.43692	0.21079
1473.50824	0.21039
1471.57957	0.21024
1469.65089	0.21019
1467.72222	0.20985
1465.79354	0.20930
1463.86487	0.20908
1461.93619	0.20905
1460.00751	0.20849
1458.07884	0.20760
1456.15016	0.20744
1454.22149	0.20802
1452.29281	0.20842
1450.36414	0.20842
1448.43546	0.20839
1446.50678	0.20852
1444.57811	0.20874
1442.64943	0.20890
1440.72076	0.20894
1438.79208	0.20879
1436.86341	0.20870
1434.93473	0.20895
1433.00605	0.20925
1431.07738	0.20929
1429.14870	0.20930
1427.22003	0.20941
1425.29135	0.20945
1423.36268	0.20926
1421.43400	0.20866
1419.50532	0.20802
1417.57665	0.20807
1415.64797	0.20851
1413.71930	0.20868
1411.79062	0.20867
1409.86195	0.20877
1407.93327	0.20889
1406.00459	0.20887
1404.07592	0.20885
1402.14724	0.20888
1400.21857	0.20885
1398.28989	0.20875
1396.36122	0.20870
1394.43254	0.20882
1392.50386	0.20908
1390.57519	0.20917
1388.64651	0.20889
1386.71784	0.20849
1384.78916	0.20831
1382.86049	0.20839
1380.93181	0.20855
1379.00313	0.20861
1377.07446	0.20852
1375.14578	0.20837
1373.21711	0.20834
1371.28843	0.20842
1369.35976	0.20844
1367.43108	0.20842
1365.50240	0.20834
1363.57373	0.20811
1361.64505	0.20793
1359.71638	0.20794
1357.78770	0.20802
1355.85903	0.20809
1353.93035	0.20817
1352.00167	0.20822
1350.07300	0.20829
1348.14432	0.20846
1346.21565	0.20868
1344.28697	0.20879
1342.35830	0.20872
1340.42962	0.20849
1338.50094	0.20835
1336.57227	0.20843
1334.64359	0.20849
1332.71492	0.20838
1330.78624	0.20820
1328.85757	0.20802
1326.92889	0.20783
1325.00021	0.20762
1323.07154	0.20739
1321.14286	0.20715
1319.21419	0.20695
1317.28551	0.20676
1315.35684	0.20649
1313.42816	0.20619
1311.49948	0.20596
1309.57081	0.20572
1307.64213	0.20540
1305.71346	0.20505
1303.78478	0.20476
1301.85611	0.20452
1299.92743	0.20427
1297.99875	0.20401
1296.07008	0.20375
1294.14140	0.20349
1292.21273	0.20321
1290.28405	0.20297
1288.35538	0.20274
1286.42670	0.20241
1284.49802	0.20196
1282.56935	0.20145
1280.64067	0.20084
1278.71200	0.20013
1276.78332	0.19932
1274.85465	0.19824
1272.92597	0.19669
1270.99729	0.19466
1269.06862	0.19215
1267.13994	0.18926
1265.21127	0.18615
1263.28259	0.18330
1261.35392	0.18137
1259.42524	0.18061
1257.49656	0.18087
1255.56789	0.18175
1253.63921	0.18284
1251.71054	0.18419
1249.78186	0.18602
1247.85319	0.18805
1245.92451	0.18980
1243.99583	0.19115
1242.06716	0.19214
1240.13848	0.19274
1238.20981	0.19294
1236.28113	0.19284
1234.35246	0.19254
1232.42378	0.19210
1230.49510	0.19157
1228.56643	0.19100
1226.63775	0.19046
1224.70908	0.18997
1222.78040	0.18951
1220.85173	0.18898
1218.92305	0.18836
1216.99437	0.18773
1215.06570	0.18714
1213.13702	0.18658
1211.20835	0.18601
1209.27967	0.18544
1207.35100	0.18486
1205.42232	0.18424
1203.49364	0.18359
1201.56497	0.18295
1199.63629	0.18226
1197.70762	0.18156
1195.77894	0.18091
1193.85027	0.18028
1191.92159	0.17960
1189.99291	0.17877
1188.06424	0.17781
1186.13556	0.17690
1184.20689	0.17606
1182.27821	0.17515
1180.34954	0.17418
1178.42086	0.17322
1176.49218	0.17230
1174.56351	0.17134
1172.63483	0.17032
1170.70616	0.16932
1168.77748	0.16834
1166.84881	0.16733
1164.92013	0.16631
1162.99145	0.16530
1161.06278	0.16433
1159.13410	0.16340
1157.20543	0.16249
1155.27675	0.16146
1153.34808	0.16036
1151.41940	0.15932
1149.49072	0.15835
1147.56205	0.15739
1145.63337	0.15641
1143.70470	0.15534
1141.77602	0.15414
1139.84735	0.15280
1137.91867	0.15137
1135.98999	0.14983
1134.06132	0.14815
1132.13264	0.14627
1130.20397	0.14417
1128.27529	0.14184
1126.34662	0.13935
1124.41794	0.13674
1122.48926	0.13408
1120.56059	0.13144
1118.63191	0.12893
1116.70324	0.12666
1114.77456	0.12463
1112.84589	0.12284
1110.91721	0.12130
1108.98853	0.11998
1107.05986	0.11893
1105.13118	0.11819
1103.20251	0.11777
1101.27383	0.11758
1099.34516	0.11757
1097.41648	0.11775
1095.48780	0.11807
1093.55913	0.11850
1091.63045	0.11902
1089.70178	0.11953
1087.77310	0.11987
1085.84443	0.12000
1083.91575	0.12000
1081.98707	0.11997
1080.05840	0.11996
1078.12972	0.11988
1076.20105	0.11962
1074.27237	0.11928
1072.34370	0.11901
1070.41502	0.11881
1068.48634	0.11865
1066.55767	0.11852
1064.62899	0.11837
1062.70032	0.11816
1060.77164	0.11790
1058.84297	0.11764
1056.91429	0.11748
1054.98561	0.11736
1053.05694	0.11725
1051.12826	0.11719
1049.19959	0.11719
1047.27091	0.11722
1045.34224	0.11726
1043.41356	0.11734
1041.48488	0.11747
1039.55621	0.11759
1037.62753	0.11771
1035.69886	0.11791
1033.77018	0.11826
1031.84151	0.11875
1029.91283	0.11929
1027.98415	0.11981
1026.05548	0.12033
1024.12680	0.12101
1022.19813	0.12189
1020.26945	0.12290
1018.34078	0.12401
1016.41210	0.12523
1014.48342	0.12655
1012.55475	0.12795
1010.62607	0.12943
1008.69740	0.13098
1006.76872	0.13249
1004.84005	0.13385
1002.91137	0.13513
1000.98269	0.13639
999.05402	0.13766
997.12534	0.13889
995.19667	0.13995
993.26799	0.14075
991.33932	0.14136
989.41064	0.14195
987.48196	0.14259
985.55329	0.14324
983.62461	0.14378
981.69594	0.14422
979.76726	0.14456
977.83859	0.14481
975.90991	0.14498
973.98123	0.14508
972.05256	0.14517
970.12388	0.14528
968.19521	0.14535
966.26653	0.14540
964.33786	0.14548
962.40918	0.14556
960.48050	0.14556
958.55183	0.14546
956.62315	0.14533
954.69448	0.14519
952.76580	0.14508
950.83713	0.14501
948.90845	0.14494
946.97977	0.14477
945.05110	0.14447
943.12242	0.14411
941.19375	0.14371
939.26507	0.14328
937.33640	0.14285
935.40772	0.14237
933.47904	0.14186
931.55037	0.14132
929.62169	0.14072
927.69302	0.14008
925.76434	0.13949
923.83567	0.13886
921.90699	0.13813
919.97831	0.13736
918.04964	0.13655
916.12096	0.13563
914.19229	0.13459
912.26361	0.13347
910.33494	0.13239
908.40626	0.13147
906.47758	0.13075
904.54891	0.13018
902.62023	0.12964
900.69156	0.12908
898.76288	0.12855
896.83421	0.12802
894.90553	0.12749
892.97685	0.12699
891.04818	0.12653
889.11950	0.12606
887.19083	0.12554
885.26215	0.12498
883.33348	0.12448
881.40480	0.12403
879.47612	0.12354
877.54745	0.12302
875.61877	0.12255
873.69010	0.12212
871.76142	0.12168
869.83275	0.12119
867.90407	0.12068
865.97539	0.12022
864.04672	0.11984
862.11804	0.11950
860.18937	0.11915
858.26069	0.11873
856.33202	0.11814
854.40334	0.11734
852.47466	0.11636
850.54599	0.11527
848.61731	0.11412
846.68864	0.11295
844.75996	0.11180
842.83129	0.11087
840.90261	0.11034
838.97394	0.11015
837.04526	0.11017
835.11658	0.11034
833.18791	0.11048
831.25923	0.11037
829.33056	0.10999
827.40188	0.10941
825.47321	0.10874
823.54453	0.10809
821.61585	0.10750
819.68718	0.10680
817.75850	0.10598
815.82983	0.10522
813.90115	0.10455
811.97248	0.10387
810.04380	0.10312
808.11512	0.10230
806.18645	0.10145
804.25777	0.10070
802.32910	0.10011
800.40042	0.09954
798.47175	0.09883
796.54307	0.09818
794.61439	0.09789
792.68572	0.09799
790.75704	0.09845
788.82837	0.09906
786.89969	0.09949
784.97102	0.09965
783.04234	0.09969
781.11366	0.09976
779.18499	0.09985
777.25631	0.09987
775.32764	0.09982
773.39896	0.09975
771.47029	0.09962
769.54161	0.09945
767.61293	0.09934
765.68426	0.09921
763.75558	0.09892
761.82691	0.09849
759.89823	0.09801
757.96956	0.09754
756.04088	0.09715
754.11220	0.09691
752.18353	0.09677
750.25485	0.09665
748.32618	0.09645
746.39750	0.09606
744.46883	0.09552
742.54015	0.09489
740.61147	0.09421
738.68280	0.09374
736.75412	0.09364
734.82545	0.09380
732.89677	0.09398
730.96810	0.09408
729.03942	0.09418
727.11074	0.09432
725.18207	0.09444
723.25339	0.09454
721.32472	0.09470
719.39604	0.09500
717.46737	0.09536
715.53869	0.09570
713.61001	0.09605
711.68134	0.09635
709.75266	0.09654
707.82399	0.09662
705.89531	0.09664
703.96664	0.09655
702.03796	0.09628
700.10928	0.09577
698.18061	0.09511
696.25193	0.09450
694.32326	0.09393
692.39458	0.09331
690.46591	0.09270
688.53723	0.09217
686.60855	0.09172
684.67988	0.09134
682.75120	0.09096
680.82253	0.09048
678.89385	0.08992
676.96518	0.08931
675.03650	0.08873
673.10782	0.08815
671.17915	0.08744
669.25047	0.08658
667.32180	0.08577
665.39312	0.08503
663.46445	0.08417
661.53577	0.08323
659.60709	0.08237
657.67842	0.08154
655.74974	0.08074
653.82107	0.08004
651.89239	0.07935
649.96372	0.07856
648.03504	0.07774
646.10636	0.07690
644.17769	0.07585
642.24901	0.07474
640.32034	0.07378
638.39166	0.07290
636.46299	0.07193
634.53431	0.07079
632.60563	0.06921
630.67696	0.06670
628.74828	0.06299
626.81961	0.05844
624.89093	0.05387
622.96226	0.05034
621.03358	0.04819
619.10490	0.04710
617.17623	0.04646
615.24755	0.04565
613.31888	0.04449
611.39020	0.04337
609.46153	0.04285
607.53285	0.04301
605.60417	0.04351
603.67550	0.04419
601.74682	0.04502
599.81815	0.04588
597.88947	0.04664
595.96080	0.04722
594.03212	0.04765
592.10344	0.04795
590.17477	0.04811
588.24609	0.04819
586.31742	0.04811
584.38874	0.04780
582.46007	0.04738
580.53139	0.04698
578.60271	0.04655
576.67404	0.04605
574.74536	0.04550
572.81669	0.04487
570.88801	0.04422
568.95934	0.04363
567.03066	0.04309
565.10198	0.04267
563.17331	0.04237
561.24463	0.04207
559.31596	0.04189
557.38728	0.04188
555.45861	0.04177
553.52993	0.04142
551.60125	0.04101
549.67258	0.04076
547.74390	0.04064
545.81523	0.04053
543.88655	0.04039
541.95788	0.04023
540.02920	0.04005
538.10052	0.03984
536.17185	0.03958
534.24317	0.03931
532.31450	0.03909
530.38582	0.03887
528.45715	0.03862
526.52847	0.03830
524.59979	0.03790
522.67112	0.03757
520.74244	0.03726
518.81377	0.03668
516.88509	0.03585
514.95642	0.03517
513.02774	0.03492
511.09906	0.03493
509.17039	0.03479
507.24171	0.03446
505.31304	0.03416
503.38436	0.03388
501.45569	0.03347
499.52701	0.03294
497.59833	0.03238
495.66966	0.03179
493.74098	0.03113
491.81231	0.03044
489.88363	0.02981
487.95496	0.02932
486.02628	0.02895
484.09760	0.02858
482.16893	0.02809
480.24025	0.02749
478.31158	0.02690
476.38290	0.02625
474.45423	0.02555
472.52555	0.02500
470.59687	0.02469
468.66820	0.02441
466.73952	0.02404
464.81085	0.02368
462.88217	0.02341
460.95350	0.02322
459.02482	0.02311
457.09614	0.02305
455.16747	0.02304
453.23879	0.02304
451.31012	0.02303
449.38144	0.02302
447.45277	0.02291
445.52409	0.02262
443.59541	0.02234
441.66674	0.02216
439.73806	0.02191
437.80939	0.02144
435.88071	0.02079
433.95204	0.02011
432.02336	0.01954
430.09468	0.01914
428.16601	0.01875
426.23733	0.01819
424.30866	0.01743
422.37998	0.01658
420.45131	0.01578
418.52263	0.01504
416.59395	0.01433
414.66528	0.01367
412.73660	0.01305
410.80793	0.01243
408.87925	0.01195
406.95058	0.01161
405.02190	0.01116
403.09322	0.01051
401.16455	0.00967
399.23587	0.00883
397.30720	0.00826
395.37852	0.00800
393.44985	0.00777
391.52117	0.00729
389.59249	0.00660
387.66382	0.00596
385.73514	0.00555
383.80647	0.00522
381.87779	0.00482
379.94912	0.00435
378.02044	0.00386
376.09176	0.00345
374.16309	0.00319
372.23441	0.00301
370.30574	0.00279
368.37706	0.00251
