7496.76 1.23408
7494.83 1.21459
7492.91 1.2001
7490.98 1.19681
7489.05 1.20305
7487.12 1.20087
7485.19 1.21469
7483.26 1.21209
7481.33 1.21384
7479.4 1.2159
7477.48 1.22425
7475.55 1.22894
7473.62 1.23005
7471.69 1.2308
7469.76 1.22253
7467.83 1.20856
7465.9 1.19971
7463.98 1.20854
7462.05 1.21348
7460.12 1.22526
7458.19 1.21926
7456.26 1.20608
7454.33 1.20639
7452.4 1.20532
7450.47 1.19464
7448.55 1.18956
7446.62 1.19299
7444.69 1.21737
7442.76 1.23312
7440.83 1.23468
7438.9 1.21658
7436.97 1.19166
7435.04 1.19567
7433.12 1.20365
7431.19 1.19868
7429.26 1.20613
7427.33 1.20559
7425.4 1.20637
7423.47 1.20837
7421.54 1.22003
7419.62 1.22573
7417.69 1.20898
7415.76 1.20238
7413.83 1.20856
7411.9 1.21672
7409.97 1.22024
7408.04 1.21965
7406.11 1.21913
7404.19 1.21162
7402.26 1.2101
7400.33 1.21096
7398.4 1.21559
7396.47 1.21257
7394.54 1.21179
7392.61 1.21209
7390.69 1.22241
7388.76 1.22615
7386.83 1.22683
7384.9 1.22136
7382.97 1.22456
7381.04 1.22665
7379.11 1.22274
7377.18 1.2176
7375.26 1.22025
7373.33 1.2346
7371.4 1.23973
7369.47 1.23548
7367.54 1.21653
7365.61 1.20124
7363.68 1.19178
7361.76 1.19429
7359.83 1.19268
7357.9 1.19751
7355.97 1.20422
7354.04 1.20351
7352.11 1.20897
7350.18 1.2197
7348.25 1.22518
7346.33 1.21736
7344.4 1.2094
7342.47 1.21354
7340.54 1.22019
7338.61 1.23204
7336.68 1.2241
7334.75 1.22048
7332.83 1.20455
7330.9 1.20307
7328.97 1.19898
7327.04 1.2027
7325.11 1.21483
7323.18 1.20672
7321.25 1.19804
7319.32 1.1966
7317.4 1.20021
7315.47 1.19603
7313.54 1.19594
7311.61 1.21263
7309.68 1.22056
7307.75 1.20779
7305.82 1.19767
7303.89 1.20428
7301.97 1.20698
7300.04 1.20335
7298.11 1.20006
7296.18 1.20414
7294.25 1.20091
7292.32 1.19951
7290.39 1.20834
7288.47 1.21855
7286.54 1.23622
7284.61 1.23236
7282.68 1.21593
7280.75 1.20577
7278.82 1.20452
7276.89 1.20466
7274.96 1.19546
7273.04 1.19481
7271.11 1.20503
7269.18 1.20762
7267.25 1.21146
7265.32 1.21964
7263.39 1.22333
7261.46 1.22304
7259.54 1.22278
7257.61 1.2248
7255.68 1.22965
7253.75 1.2314
7251.82 1.23501
7249.89 1.23218
7247.96 1.22649
7246.03 1.22375
7244.11 1.22593
7242.18 1.227
7240.25 1.21536
7238.32 1.20989
7236.39 1.21207
7234.46 1.21502
7232.53 1.21479
7230.61 1.20862
7228.68 1.20161
7226.75 1.19999
7224.82 1.21305
7222.89 1.22065
7220.96 1.21751
7219.03 1.21984
7217.1 1.21751
7215.18 1.21522
7213.25 1.21192
7211.32 1.1996
7209.39 1.20183
7207.46 1.21159
7205.53 1.21365
7203.6 1.21678
7201.68 1.21661
7199.75 1.22675
7197.82 1.23326
7195.89 1.22778
7193.96 1.22782
7192.03 1.23253
7190.1 1.23101
7188.17 1.23224
7186.25 1.22603
7184.32 1.22214
7182.39 1.22809
7180.46 1.21892
7178.53 1.2193
7176.6 1.2247
7174.67 1.22318
7172.74 1.22417
7170.82 1.2238
7168.89 1.21989
7166.96 1.22172
7165.03 1.22213
7163.1 1.21989
7161.17 1.22093
7159.24 1.2309
7157.32 1.23092
7155.39 1.22712
7153.46 1.22092
7151.53 1.21655
7149.6 1.21651
7147.67 1.21587
7145.74 1.21966
7143.81 1.22507
7141.89 1.22857
7139.96 1.22872
7138.03 1.22513
7136.1 1.21747
7134.17 1.21408
7132.24 1.21659
7130.31 1.2175
7128.39 1.21268
7126.46 1.21379
7124.53 1.21555
7122.6 1.21681
7120.67 1.21991
7118.74 1.21561
7116.81 1.21488
7114.88 1.21676
7112.96 1.21789
7111.03 1.22157
7109.1 1.22389
7107.17 1.23626
7105.24 1.24039
7103.31 1.2404
7101.38 1.23771
7099.46 1.23067
7097.53 1.21775
7095.6 1.21309
7093.67 1.22007
7091.74 1.23203
7089.81 1.22382
7087.88 1.22192
7085.95 1.22458
7084.03 1.22405
7082.1 1.22141
7080.17 1.21755
7078.24 1.21455
7076.31 1.21534
7074.38 1.22239
7072.45 1.22522
7070.53 1.2179
7068.6 1.2232
7066.67 1.22601
7064.74 1.2325
7062.81 1.22993
7060.88 1.22108
7058.95 1.21381
7057.02 1.21667
7055.1 1.22434
7053.17 1.22098
7051.24 1.21345
7049.31 1.20693
7047.38 1.21575
7045.45 1.22445
7043.52 1.22117
7041.6 1.21615
7039.67 1.21221
7037.74 1.21874
7035.81 1.22919
7033.88 1.23246
7031.95 1.23331
7030.02 1.23679
7028.09 1.24159
7026.17 1.24531
7024.24 1.24129
7022.31 1.24061
7020.38 1.23361
7018.45 1.22548
7016.52 1.22186
7014.59 1.22576
7012.66 1.22864
7010.74 1.23099
7008.81 1.23382
7006.88 1.23034
7004.95 1.22715
7003.02 1.22823
7001.09 1.23382
6999.16 1.23597
6997.24 1.23761
6995.31 1.23029
6993.38 1.22795
6991.45 1.22857
6989.52 1.22951
6987.59 1.22596
6985.66 1.22814
6983.73 1.22997
6981.81 1.22938
6979.88 1.22787
6977.95 1.23107
6976.02 1.23234
6974.09 1.23527
6972.16 1.23213
6970.23 1.2255
6968.31 1.21765
6966.38 1.22284
6964.45 1.23179
6962.52 1.23976
6960.59 1.23619
6958.66 1.22796
6956.73 1.22048
6954.8 1.22358
6952.88 1.22689
6950.95 1.22426
6949.02 1.21896
6947.09 1.21465
6945.16 1.21111
6943.23 1.21472
6941.3 1.22391
6939.38 1.23416
6937.45 1.23544
6935.52 1.22675
6933.59 1.22475
6931.66 1.22726
6929.73 1.22313
6927.8 1.2197
6925.87 1.21773
6923.95 1.22118
6922.02 1.22164
6920.09 1.22237
6918.16 1.22776
6916.23 1.22635
6914.3 1.22522
6912.37 1.2236
6910.45 1.22779
6908.52 1.22509
6906.59 1.22053
6904.66 1.22178
6902.73 1.22812
6900.8 1.23523
6898.87 1.23529
6896.94 1.22815
6895.02 1.22422
6893.09 1.22255
6891.16 1.22477
6889.23 1.23344
6887.3 1.2358
6885.37 1.23863
6883.44 1.23994
6881.51 1.23445
6879.59 1.23169
6877.66 1.23129
6875.73 1.23102
6873.8 1.23105
6871.87 1.23072
6869.94 1.23248
6868.01 1.22955
6866.09 1.22643
6864.16 1.2284
6862.23 1.23422
6860.3 1.23364
6858.37 1.23448
6856.44 1.22794
6854.51 1.23146
6852.58 1.22812
6850.66 1.22944
6848.73 1.22955
6846.8 1.23218
6844.87 1.23808
6842.94 1.24493
6841.01 1.2413
6839.08 1.24115
6837.16 1.24247
6835.23 1.23116
6833.3 1.22024
6831.37 1.21875
6829.44 1.22349
6827.51 1.22542
6825.58 1.22996
6823.65 1.23572
6821.73 1.24259
6819.8 1.2506
6817.87 1.24351
6815.94 1.23614
6814.01 1.22779
6812.08 1.22493
6810.15 1.22693
6808.23 1.23059
6806.3 1.23642
6804.37 1.23935
6802.44 1.23504
6800.51 1.23522
6798.58 1.23527
6796.65 1.23678
6794.72 1.23301
6792.8 1.22831
6790.87 1.22526
6788.94 1.22405
6787.01 1.23016
6785.08 1.23293
6783.15 1.23341
6781.22 1.23314
6779.3 1.23619
6777.37 1.23581
6775.44 1.23051
6773.51 1.23169
6771.58 1.22863
6769.65 1.23026
6767.72 1.2341
6765.79 1.23544
6763.87 1.23502
6761.94 1.23524
6760.01 1.23566
6758.08 1.24126
6756.15 1.23942
6754.22 1.2347
6752.29 1.23446
6750.36 1.23616
6748.44 1.23528
6746.51 1.23307
6744.58 1.23235
6742.65 1.23758
6740.72 1.24101
6738.79 1.241
6736.86 1.23787
6734.94 1.239
6733.01 1.24394
6731.08 1.23801
6729.15 1.22769
6727.22 1.22482
6725.29 1.22739
6723.36 1.22876
6721.43 1.23248
6719.51 1.23655
6717.58 1.23723
6715.65 1.23686
6713.72 1.23282
6711.79 1.23327
6709.86 1.23174
6707.93 1.23367
6706.01 1.24235
6704.08 1.24742
6702.15 1.24477
6700.22 1.24565
6698.29 1.24629
6696.36 1.23668
6694.43 1.23138
6692.5 1.23601
6690.58 1.241
6688.65 1.23905
6686.72 1.23584
6684.79 1.23451
6682.86 1.23568
6680.93 1.24046
6679 1.24046
6677.08 1.23769
6675.15 1.23121
6673.22 1.22599
6671.29 1.2279
6669.36 1.23619
6667.43 1.23909
6665.5 1.23605
6663.57 1.23833
6661.65 1.23426
6659.72 1.23786
6657.79 1.2433
6655.86 1.24809
6653.93 1.23812
6652 1.2259
6650.07 1.21938
6648.15 1.21861
6646.22 1.22353
6644.29 1.22846
6642.36 1.23376
6640.43 1.23573
6638.5 1.2354
6636.57 1.2346
6634.64 1.23951
6632.72 1.23781
6630.79 1.23356
6628.86 1.22639
6626.93 1.23022
6625 1.23319
6623.07 1.238
6621.14 1.23342
6619.22 1.22938
6617.29 1.22298
6615.36 1.2241
6613.43 1.23224
6611.5 1.23582
6609.57 1.23974
6607.64 1.24396
6605.71 1.23973
6603.79 1.23775
6601.86 1.23383
6599.93 1.23064
6598 1.22767
6596.07 1.23055
6594.14 1.23854
6592.21 1.24131
6590.28 1.24031
6588.36 1.23549
6586.43 1.23486
6584.5 1.235
6582.57 1.23502
6580.64 1.23575
6578.71 1.23091
6576.78 1.23136
6574.86 1.23237
6572.93 1.23561
6571 1.23623
6569.07 1.23651
6567.14 1.24196
6565.21 1.24552
6563.28 1.24825
6561.35 1.24411
6559.43 1.23341
6557.5 1.23079
6555.57 1.23158
6553.64 1.23959
6551.71 1.24617
6549.78 1.24692
6547.85 1.24904
6545.93 1.24294
6544 1.23715
6542.07 1.23003
6540.14 1.23104
6538.21 1.23567
6536.28 1.23377
6534.35 1.23445
6532.42 1.23562
6530.5 1.23282
6528.57 1.23438
6526.64 1.2367
6524.71 1.23913
6522.78 1.24648
6520.85 1.24969
6518.92 1.24615
6517 1.2383
6515.07 1.23355
6513.14 1.23309
6511.21 1.23245
6509.28 1.2353
6507.35 1.23113
6505.42 1.2307
6503.49 1.23915
6501.57 1.24447
6499.64 1.2464
6497.71 1.24052
6495.78 1.23868
6493.85 1.23651
6491.92 1.23856
6489.99 1.23671
6488.07 1.23439
6486.14 1.23834
6484.21 1.24063
6482.28 1.24102
6480.35 1.23905
6478.42 1.23418
6476.49 1.23177
6474.56 1.23509
6472.64 1.23993
6470.71 1.24184
6468.78 1.2355
6466.85 1.23087
6464.92 1.2324
6462.99 1.23256
6461.06 1.2298
6459.13 1.22687
6457.21 1.23087
6455.28 1.23588
6453.35 1.24082
6451.42 1.24251
6449.49 1.24094
6447.56 1.23927
6445.63 1.23734
6443.71 1.22953
6441.78 1.22861
6439.85 1.2301
6437.92 1.23306
6435.99 1.23733
6434.06 1.24422
6432.13 1.23994
6430.2 1.23249
6428.28 1.22914
6426.35 1.23161
6424.42 1.23761
6422.49 1.24464
6420.56 1.24561
6418.63 1.2426
6416.7 1.23697
6414.78 1.23499
6412.85 1.23505
6410.92 1.24137
6408.99 1.24048
6407.06 1.23929
6405.13 1.23921
6403.2 1.23826
6401.27 1.23662
6399.35 1.23681
6397.42 1.2363
6395.49 1.23501
6393.56 1.23306
6391.63 1.23386
6389.7 1.23616
6387.77 1.23492
6385.85 1.23332
6383.92 1.23732
6381.99 1.24222
6380.06 1.24485
6378.13 1.24224
6376.2 1.24319
6374.27 1.24487
6372.34 1.24471
6370.42 1.24387
6368.49 1.24108
6366.56 1.23786
6364.63 1.24115
6362.7 1.24243
6360.77 1.2404
6358.84 1.23946
6356.92 1.23938
6354.99 1.24305
6353.06 1.24497
6351.13 1.24664
6349.2 1.24267
6347.27 1.2364
6345.34 1.2373
6343.41 1.23725
6341.49 1.23322
6339.56 1.22858
6337.63 1.22973
6335.7 1.23416
6333.77 1.23987
6331.84 1.23976
6329.91 1.24132
6327.99 1.24505
6326.06 1.2483
6324.13 1.24857
6322.2 1.24299
6320.27 1.24161
6318.34 1.24119
6316.41 1.24028
6314.48 1.24155
6312.56 1.24012
6310.63 1.2366
6308.7 1.23779
6306.77 1.23821
6304.84 1.23734
6302.91 1.23873
6300.98 1.24001
6299.05 1.24139
6297.13 1.23987
6295.2 1.23818
6293.27 1.23676
6291.34 1.23708
6289.41 1.235
6287.48 1.23571
6285.55 1.24019
6283.63 1.24359
6281.7 1.23877
6279.77 1.23619
6277.84 1.23646
6275.91 1.23793
6273.98 1.23725
6272.05 1.2355
6270.12 1.2322
6268.2 1.23096
6266.27 1.23319
6264.34 1.23823
6262.41 1.23767
6260.48 1.23478
6258.55 1.23129
6256.62 1.23319
6254.7 1.23728
6252.77 1.23787
6250.84 1.23541
6248.91 1.22939
6246.98 1.2296
6245.05 1.23003
6243.12 1.23118
6241.19 1.23665
6239.27 1.23827
6237.34 1.24358
6235.41 1.24535
6233.48 1.2467
6231.55 1.24326
6229.62 1.24206
6227.69 1.23749
6225.77 1.23695
6223.84 1.23324
6221.91 1.23187
6219.98 1.23367
6218.05 1.2376
6216.12 1.2423
6214.19 1.24285
6212.26 1.24151
6210.34 1.2398
6208.41 1.24284
6206.48 1.24246
6204.55 1.24104
6202.62 1.23699
6200.69 1.23961
6198.76 1.24161
6196.84 1.23819
6194.91 1.23721
6192.98 1.23615
6191.05 1.23699
6189.12 1.23653
6187.19 1.23727
6185.26 1.23744
6183.33 1.23516
6181.41 1.23536
6179.48 1.23367
6177.55 1.23578
6175.62 1.2355
6173.69 1.23777
6171.76 1.23668
6169.83 1.23615
6167.9 1.23627
6165.98 1.2347
6164.05 1.23265
6162.12 1.23388
6160.19 1.23463
6158.26 1.23178
6156.33 1.23017
6154.4 1.23169
6152.48 1.2323
6150.55 1.23465
6148.62 1.23967
6146.69 1.24475
6144.76 1.24646
6142.83 1.24426
6140.9 1.23962
6138.97 1.2352
6137.05 1.23216
6135.12 1.23037
6133.19 1.23149
6131.26 1.23656
6129.33 1.23709
6127.4 1.23518
6125.47 1.23683
6123.55 1.24005
6121.62 1.24143
6119.69 1.238
6117.76 1.23333
6115.83 1.23368
6113.9 1.23671
6111.97 1.23956
6110.04 1.23977
6108.12 1.23755
6106.19 1.23537
6104.26 1.23435
6102.33 1.23279
6100.4 1.23359
6098.47 1.23506
6096.54 1.2375
6094.62 1.23946
6092.69 1.24231
6090.76 1.2438
6088.83 1.24354
6086.9 1.23957
6084.97 1.23711
6083.04 1.23553
6081.11 1.23342
6079.19 1.2326
6077.26 1.23139
6075.33 1.23517
6073.4 1.2361
6071.47 1.23578
6069.54 1.23645
6067.61 1.24089
6065.69 1.24324
6063.76 1.24113
6061.83 1.23503
6059.9 1.23257
6057.97 1.2352
6056.04 1.23731
6054.11 1.23478
6052.18 1.2334
6050.26 1.23684
6048.33 1.24342
6046.4 1.24634
6044.47 1.24463
6042.54 1.24076
6040.61 1.23855
6038.68 1.23881
6036.75 1.23895
6034.83 1.23764
6032.9 1.23791
6030.97 1.23881
6029.04 1.23852
6027.11 1.23814
6025.18 1.23967
6023.25 1.24045
6021.33 1.23848
6019.4 1.23867
6017.47 1.23903
6015.54 1.23925
6013.61 1.23914
6011.68 1.23743
6009.75 1.23616
6007.82 1.2383
6005.9 1.24073
6003.97 1.23833
6002.04 1.23599
6000.11 1.23783
5998.18 1.24113
5996.25 1.24129
5994.32 1.23825
5992.4 1.2381
5990.47 1.23691
5988.54 1.2366
5986.61 1.23659
5984.68 1.2358
5982.75 1.2345
5980.82 1.23557
5978.89 1.23517
5976.97 1.23474
5975.04 1.23818
5973.11 1.24036
5971.18 1.24014
5969.25 1.24065
5967.32 1.24007
5965.39 1.24118
5963.47 1.24014
5961.54 1.23758
5959.61 1.23516
5957.68 1.23258
5955.75 1.23511
5953.82 1.23988
5951.89 1.24231
5949.96 1.24048
5948.04 1.2362
5946.11 1.23627
5944.18 1.23819
5942.25 1.23839
5940.32 1.23657
5938.39 1.23684
5936.46 1.23486
5934.54 1.232
5932.61 1.23198
5930.68 1.23456
5928.75 1.23694
5926.82 1.23792
5924.89 1.23661
5922.96 1.23818
5921.03 1.24003
5919.11 1.24303
5917.18 1.24115
5915.25 1.23758
5913.32 1.23415
5911.39 1.23478
5909.46 1.23605
5907.53 1.24118
5905.61 1.24243
5903.68 1.24199
5901.75 1.23878
5899.82 1.23953
5897.89 1.24205
5895.96 1.24448
5894.03 1.24346
5892.1 1.24026
5890.18 1.2377
5888.25 1.23444
5886.32 1.23262
5884.39 1.23143
5882.46 1.23188
5880.53 1.23145
5878.6 1.23453
5876.67 1.236
5874.75 1.23667
5872.82 1.23423
5870.89 1.23166
5868.96 1.22969
5867.03 1.23132
5865.1 1.2361
5863.17 1.23738
5861.25 1.23653
5859.32 1.23794
5857.39 1.23869
5855.46 1.2389
5853.53 1.2361
5851.6 1.23611
5849.67 1.23734
5847.74 1.23816
5845.82 1.23712
5843.89 1.23674
5841.96 1.23784
5840.03 1.23956
5838.1 1.23893
5836.17 1.23712
5834.24 1.23556
5832.32 1.23472
5830.39 1.23399
5828.46 1.23555
5826.53 1.23518
5824.6 1.23348
5822.67 1.23309
5820.74 1.23315
5818.81 1.23372
5816.89 1.23411
5814.96 1.23595
5813.03 1.23618
5811.1 1.23688
5809.17 1.23457
5807.24 1.23257
5805.31 1.23152
5803.39 1.23159
5801.46 1.23266
5799.53 1.23285
5797.6 1.2332
5795.67 1.23287
5793.74 1.23191
5791.81 1.23339
5789.88 1.23219
5787.96 1.22972
5786.03 1.22724
5784.1 1.2262
5782.17 1.2312
5780.24 1.23372
5778.31 1.23612
5776.38 1.23777
5774.46 1.23536
5772.53 1.23107
5770.6 1.22951
5768.67 1.2316
5766.74 1.23503
5764.81 1.23465
5762.88 1.2322
5760.95 1.23124
5759.03 1.23176
5757.1 1.23323
5755.17 1.23442
5753.24 1.23515
5751.31 1.23566
5749.38 1.23518
5747.45 1.23603
5745.52 1.2396
5743.6 1.23987
5741.67 1.24
5739.74 1.23788
5737.81 1.23575
5735.88 1.2348
5733.95 1.23286
5732.02 1.23126
5730.1 1.22983
5728.17 1.22844
5726.24 1.22889
5724.31 1.23182
5722.38 1.23389
5720.45 1.23306
5718.52 1.23244
5716.59 1.23049
5714.67 1.23037
5712.74 1.22928
5710.81 1.23119
5708.88 1.23208
5706.95 1.23159
5705.02 1.23019
5703.09 1.22935
5701.17 1.23083
5699.24 1.23377
5697.31 1.23475
5695.38 1.23521
5693.45 1.23436
5691.52 1.23243
5689.59 1.22978
5687.66 1.2318
5685.74 1.2336
5683.81 1.23354
5681.88 1.23088
5679.95 1.23102
5678.02 1.23452
5676.09 1.23776
5674.16 1.23939
5672.24 1.23647
5670.31 1.23518
5668.38 1.23424
5666.45 1.23127
5664.52 1.22864
5662.59 1.22656
5660.66 1.2293
5658.73 1.23226
5656.81 1.23269
5654.88 1.22962
5652.95 1.2284
5651.02 1.22946
5649.09 1.23217
5647.16 1.23387
5645.23 1.2358
5643.31 1.23548
5641.38 1.23175
5639.45 1.2282
5637.52 1.22839
5635.59 1.2312
5633.66 1.23323
5631.73 1.23123
5629.8 1.23069
5627.88 1.23135
5625.95 1.23254
5624.02 1.22997
5622.09 1.22886
5620.16 1.23011
5618.23 1.23245
5616.3 1.23214
5614.38 1.23086
5612.45 1.23075
5610.52 1.23094
5608.59 1.23119
5606.66 1.23083
5604.73 1.23129
5602.8 1.23152
5600.87 1.23161
5598.95 1.23025
5597.02 1.22924
5595.09 1.23012
5593.16 1.23185
5591.23 1.23147
5589.3 1.2309
5587.37 1.23191
5585.44 1.2338
5583.52 1.23371
5581.59 1.23181
5579.66 1.23161
5577.73 1.23099
5575.8 1.23065
5573.87 1.2288
5571.94 1.22887
5570.02 1.22946
5568.09 1.22977
5566.16 1.22991
5564.23 1.23149
5562.3 1.23173
5560.37 1.23106
5558.44 1.2308
5556.51 1.23083
5554.59 1.23089
5552.66 1.23047
5550.73 1.23027
5548.8 1.23083
5546.87 1.23082
5544.94 1.23187
5543.01 1.23326
5541.09 1.23211
5539.16 1.23227
5537.23 1.23252
5535.3 1.23237
5533.37 1.23048
5531.44 1.22878
5529.51 1.22699
5527.58 1.22486
5525.66 1.22605
5523.73 1.23064
5521.8 1.23297
5519.87 1.23068
5517.94 1.22759
5516.01 1.22585
5514.08 1.22705
5512.16 1.22728
5510.23 1.22782
5508.3 1.22779
5506.37 1.22737
5504.44 1.22649
5502.51 1.22752
5500.58 1.22857
5498.65 1.22809
5496.73 1.2271
5494.8 1.22792
5492.87 1.22793
5490.94 1.22921
5489.01 1.22781
5487.08 1.22645
5485.15 1.22626
5483.23 1.2293
5481.3 1.23043
5479.37 1.22862
5477.44 1.22725
5475.51 1.22721
5473.58 1.22709
5471.65 1.22717
5469.72 1.22772
5467.8 1.22786
5465.87 1.22937
5463.94 1.22872
5462.01 1.22587
5460.08 1.22376
5458.15 1.22517
5456.22 1.22644
5454.29 1.22776
5452.37 1.22885
5450.44 1.22955
5448.51 1.22757
5446.58 1.22473
5444.65 1.22384
5442.72 1.22413
5440.79 1.2251
5438.87 1.22648
5436.94 1.22687
5435.01 1.22532
5433.08 1.22455
5431.15 1.226
5429.22 1.2276
5427.29 1.22594
5425.36 1.22304
5423.44 1.22109
5421.51 1.22068
5419.58 1.222
5417.65 1.22339
5415.72 1.22404
5413.79 1.22376
5411.86 1.22314
5409.94 1.2227
5408.01 1.22407
5406.08 1.22519
5404.15 1.2263
5402.22 1.22562
5400.29 1.22739
5398.36 1.22791
5396.43 1.2275
5394.51 1.22575
5392.58 1.22444
5390.65 1.22414
5388.72 1.22288
5386.79 1.22173
5384.86 1.2229
5382.93 1.22498
5381.01 1.22614
5379.08 1.22611
5377.15 1.22572
5375.22 1.22496
5373.29 1.22483
5371.36 1.22537
5369.43 1.22716
5367.5 1.22847
5365.58 1.22893
5363.65 1.22584
5361.72 1.22288
5359.79 1.22377
5357.86 1.22416
5355.93 1.22237
5354 1.22039
5352.08 1.21949
5350.15 1.21786
5348.22 1.21852
5346.29 1.21956
5344.36 1.22216
5342.43 1.22228
5340.5 1.22281
5338.57 1.22418
5336.65 1.22537
5334.72 1.22417
5332.79 1.22266
5330.86 1.221
5328.93 1.22046
5327 1.22062
5325.07 1.22155
5323.14 1.22332
5321.22 1.22382
5319.29 1.22215
5317.36 1.22003
5315.43 1.22037
5313.5 1.22115
5311.57 1.2209
5309.64 1.22036
5307.72 1.22099
5305.79 1.22075
5303.86 1.22084
5301.93 1.22284
5300 1.22321
5298.07 1.22265
5296.14 1.22104
5294.21 1.22007
5292.29 1.21921
5290.36 1.21909
5288.43 1.22104
5286.5 1.22204
5284.57 1.22338
5282.64 1.22303
5280.71 1.22083
5278.79 1.21893
5276.86 1.21993
5274.93 1.22184
5273 1.22184
5271.07 1.22173
5269.14 1.22173
5267.21 1.22191
5265.28 1.22149
5263.36 1.21916
5261.43 1.21738
5259.5 1.21738
5257.57 1.21887
5255.64 1.21989
5253.71 1.22078
5251.78 1.2197
5249.86 1.21772
5247.93 1.21639
5246 1.21648
5244.07 1.21741
5242.14 1.21822
5240.21 1.21821
5238.28 1.21774
5236.35 1.2171
5234.43 1.21767
5232.5 1.21837
5230.57 1.21919
5228.64 1.21889
5226.71 1.2167
5224.78 1.21608
5222.85 1.21823
5220.93 1.22071
5219 1.21994
5217.07 1.21834
5215.14 1.21792
5213.21 1.21708
5211.28 1.21649
5209.35 1.21656
5207.42 1.21735
5205.5 1.21755
5203.57 1.21749
5201.64 1.21739
5199.71 1.21869
5197.78 1.21912
5195.85 1.21977
5193.92 1.21845
5192 1.21752
5190.07 1.21536
5188.14 1.21376
5186.21 1.21371
5184.28 1.2141
5182.35 1.21421
5180.42 1.21409
5178.49 1.21569
5176.57 1.21623
5174.64 1.21719
5172.71 1.21635
5170.78 1.2154
5168.85 1.21415
5166.92 1.21381
5164.99 1.2153
5163.06 1.21605
5161.14 1.21533
5159.21 1.21604
5157.28 1.2168
5155.35 1.21686
5153.42 1.21623
5151.49 1.21504
5149.56 1.2136
5147.64 1.21216
5145.71 1.21196
5143.78 1.21272
5141.85 1.2151
5139.92 1.21708
5137.99 1.21665
5136.06 1.21458
5134.13 1.21492
5132.21 1.21561
5130.28 1.21591
5128.35 1.21557
5126.42 1.2146
5124.49 1.2144
5122.56 1.21413
5120.63 1.21493
5118.71 1.21595
5116.78 1.2166
5114.85 1.21666
5112.92 1.2173
5110.99 1.21645
5109.06 1.21533
5107.13 1.21379
5105.2 1.21456
5103.28 1.21519
5101.35 1.21539
5099.42 1.2151
5097.49 1.21488
5095.56 1.21481
5093.63 1.21453
5091.7 1.21239
5089.78 1.2109
5087.85 1.21149
5085.92 1.2124
5083.99 1.21255
5082.06 1.21349
5080.13 1.21449
5078.2 1.21408
5076.27 1.21287
5074.35 1.21125
5072.42 1.21145
5070.49 1.21238
5068.56 1.21209
5066.63 1.21137
5064.7 1.21257
5062.77 1.21346
5060.85 1.212
5058.92 1.21136
5056.99 1.21175
5055.06 1.21162
5053.13 1.2102
5051.2 1.20935
5049.27 1.20899
5047.34 1.20843
5045.42 1.20834
5043.49 1.20972
5041.56 1.21141
5039.63 1.21146
5037.7 1.21202
5035.77 1.21171
5033.84 1.21055
5031.91 1.20934
5029.99 1.20973
5028.06 1.2108
5026.13 1.21109
5024.2 1.2107
5022.27 1.21128
5020.34 1.21219
5018.41 1.21247
5016.49 1.21194
5014.56 1.2113
5012.63 1.21134
5010.7 1.21153
5008.77 1.21137
5006.84 1.21013
5004.91 1.20981
5002.98 1.20953
5001.06 1.20941
4999.13 1.20941
4997.2 1.20986
4995.27 1.21091
4993.34 1.21117
4991.41 1.20931
4989.48 1.20818
4987.56 1.20748
4985.63 1.20731
4983.7 1.20883
4981.77 1.20959
4979.84 1.20887
4977.91 1.208
4975.98 1.20852
4974.05 1.20904
4972.13 1.20845
4970.2 1.20818
4968.27 1.20828
4966.34 1.20728
4964.41 1.20693
4962.48 1.20647
4960.55 1.20548
4958.63 1.20579
4956.7 1.20647
4954.77 1.20736
4952.84 1.20898
4950.91 1.21048
4948.98 1.21014
4947.05 1.20818
4945.12 1.20616
4943.2 1.20616
4941.27 1.20732
4939.34 1.20684
4937.41 1.20538
4935.48 1.20533
4933.55 1.20544
4931.62 1.20597
4929.7 1.20687
4927.77 1.2083
4925.84 1.20917
4923.91 1.20834
4921.98 1.2074
4920.05 1.20665
4918.12 1.20622
4916.19 1.2043
4914.27 1.20311
4912.34 1.20385
4910.41 1.20577
4908.48 1.20621
4906.55 1.20503
4904.62 1.20421
4902.69 1.20498
4900.76 1.2059
4898.84 1.20703
4896.91 1.20799
4894.98 1.20744
4893.05 1.20648
4891.12 1.20632
4889.19 1.20569
4887.26 1.20447
4885.34 1.20367
4883.41 1.20382
4881.48 1.2044
4879.55 1.20462
4877.62 1.20546
4875.69 1.20709
4873.76 1.20672
4871.83 1.20599
4869.91 1.20592
4867.98 1.20706
4866.05 1.20667
4864.12 1.20435
4862.19 1.20246
4860.26 1.2017
4858.33 1.20309
4856.41 1.20431
4854.48 1.20486
4852.55 1.20465
4850.62 1.20313
4848.69 1.20171
4846.76 1.20097
4844.83 1.201
4842.9 1.20152
4840.98 1.20245
4839.05 1.20301
4837.12 1.20339
4835.19 1.20407
4833.26 1.20405
4831.33 1.20415
4829.4 1.20348
4827.48 1.20255
4825.55 1.20214
4823.62 1.20291
4821.69 1.20341
4819.76 1.20336
4817.83 1.20253
4815.9 1.2017
4813.97 1.20104
4812.05 1.20142
4810.12 1.20204
4808.19 1.20266
4806.26 1.20206
4804.33 1.20075
4802.4 1.19903
4800.47 1.19858
4798.55 1.19836
4796.62 1.1984
4794.69 1.19961
4792.76 1.20172
4790.83 1.20243
4788.9 1.20207
4786.97 1.20026
4785.04 1.19868
4783.12 1.19857
4781.19 1.19851
4779.26 1.19936
4777.33 1.20091
4775.4 1.20179
4773.47 1.20067
4771.54 1.19979
4769.62 1.19884
4767.69 1.19823
4765.76 1.19891
4763.83 1.19921
4761.9 1.19961
4759.97 1.19918
4758.04 1.19904
4756.11 1.19935
4754.19 1.19891
4752.26 1.19848
4750.33 1.19793
4748.4 1.19796
4746.47 1.19877
4744.54 1.1986
4742.61 1.19695
4740.68 1.1956
4738.76 1.1961
4736.83 1.19731
4734.9 1.19746
4732.97 1.19796
4731.04 1.19839
4729.11 1.19779
4727.18 1.19649
4725.26 1.19622
4723.33 1.1976
4721.4 1.19796
4719.47 1.19651
4717.54 1.19574
4715.61 1.19648
4713.68 1.19658
4711.75 1.19595
4709.83 1.19513
4707.9 1.19603
4705.97 1.19744
4704.04 1.19665
4702.11 1.19594
4700.18 1.19639
4698.25 1.19627
4696.33 1.19454
4694.4 1.1937
4692.47 1.19426
4690.54 1.19439
4688.61 1.19366
4686.68 1.19328
4684.75 1.19354
4682.82 1.19437
4680.9 1.19541
4678.97 1.19577
4677.04 1.19543
4675.11 1.19454
4673.18 1.19435
4671.25 1.19553
4669.32 1.19584
4667.4 1.19533
4665.47 1.19444
4663.54 1.19417
4661.61 1.19307
4659.68 1.19241
4657.75 1.19257
4655.82 1.19341
4653.89 1.19364
4651.97 1.19364
4650.04 1.19297
4648.11 1.19298
4646.18 1.19332
4644.25 1.19356
4642.32 1.19331
4640.39 1.19238
4638.47 1.19101
4636.54 1.1912
4634.61 1.1924
4632.68 1.19293
4630.75 1.19195
4628.82 1.19109
4626.89 1.19086
4624.96 1.1915
4623.04 1.19199
4621.11 1.19221
4619.18 1.1921
4617.25 1.19226
4615.32 1.19266
4613.39 1.19298
4611.46 1.19287
4609.53 1.19233
4607.61 1.19185
4605.68 1.19102
4603.75 1.19073
4601.82 1.19094
4599.89 1.19042
4597.96 1.19014
4596.03 1.18997
4594.11 1.19046
4592.18 1.19036
4590.25 1.19005
4588.32 1.19017
4586.39 1.19063
4584.46 1.18968
4582.53 1.18858
4580.6 1.18771
4578.68 1.18857
4576.75 1.18987
4574.82 1.19033
4572.89 1.1898
4570.96 1.18993
4569.03 1.18971
4567.1 1.18917
4565.18 1.18923
4563.25 1.18945
4561.32 1.18879
4559.39 1.18779
4557.46 1.18742
4555.53 1.18748
4553.6 1.18768
4551.67 1.18809
4549.75 1.18834
4547.82 1.18904
4545.89 1.18924
4543.96 1.18845
4542.03 1.18879
4540.1 1.19036
4538.17 1.18994
4536.25 1.18791
4534.32 1.18635
4532.39 1.18637
4530.46 1.18655
4528.53 1.18664
4526.6 1.18676
4524.67 1.18777
4522.74 1.188
4520.82 1.18713
4518.89 1.18658
4516.96 1.18713
4515.03 1.18742
4513.1 1.18656
4511.17 1.18602
4509.24 1.1863
4507.32 1.18631
4505.39 1.18593
4503.46 1.18507
4501.53 1.18398
4499.6 1.18428
4497.67 1.18509
4495.74 1.18519
4493.81 1.18427
4491.89 1.18396
4489.96 1.18429
4488.03 1.18468
4486.1 1.18516
4484.17 1.18485
4482.24 1.18404
4480.31 1.18294
4478.38 1.18315
4476.46 1.1841
4474.53 1.18441
4472.6 1.18377
4470.67 1.18392
4468.74 1.18442
4466.81 1.18409
4464.88 1.18334
4462.96 1.18322
4461.03 1.18263
4459.1 1.18154
4457.17 1.18125
4455.24 1.18213
4453.31 1.18249
4451.38 1.18259
4449.45 1.18289
4447.53 1.18344
4445.6 1.18335
4443.67 1.18315
4441.74 1.1824
4439.81 1.18213
4437.88 1.18112
4435.95 1.18154
4434.03 1.18204
4432.1 1.18198
4430.17 1.18156
4428.24 1.1817
4426.31 1.18141
4424.38 1.18105
4422.45 1.1809
4420.52 1.18125
4418.6 1.18091
4416.67 1.18052
4414.74 1.18075
4412.81 1.18152
4410.88 1.18232
4408.95 1.18244
4407.02 1.18161
4405.1 1.18031
4403.17 1.17942
4401.24 1.17926
4399.31 1.17944
4397.38 1.17985
4395.45 1.17976
4393.52 1.17939
4391.59 1.17867
4389.67 1.17822
4387.74 1.17868
4385.81 1.17981
4383.88 1.1803
4381.95 1.17921
4380.02 1.17883
4378.09 1.17881
4376.17 1.17884
4374.24 1.1785
4372.31 1.17787
4370.38 1.1769
4368.45 1.17603
4366.52 1.17608
4364.59 1.1769
4362.66 1.1777
4360.74 1.17809
4358.81 1.17714
4356.88 1.17667
4354.95 1.17667
4353.02 1.17742
4351.09 1.17794
4349.16 1.17835
4347.24 1.17752
4345.31 1.17675
4343.38 1.17659
4341.45 1.17659
4339.52 1.17677
4337.59 1.17679
4335.66 1.17613
4333.73 1.17583
4331.81 1.17564
4329.88 1.17622
4327.95 1.17766
4326.02 1.1786
4324.09 1.17824
4322.16 1.17677
4320.23 1.17544
4318.3 1.17444
4316.38 1.17349
4314.45 1.1733
4312.52 1.17381
4310.59 1.17455
4308.66 1.17461
4306.73 1.17399
4304.8 1.17378
4302.88 1.17321
4300.95 1.17324
4299.02 1.1733
4297.09 1.17366
4295.16 1.17392
4293.23 1.17391
4291.3 1.17338
4289.37 1.17266
4287.45 1.17232
4285.52 1.17194
4283.59 1.17271
4281.66 1.17411
4279.73 1.17498
4277.8 1.17463
4275.87 1.17284
4273.95 1.17238
4272.02 1.17344
4270.09 1.17417
4268.16 1.17409
4266.23 1.17307
4264.3 1.17192
4262.37 1.17135
4260.44 1.17183
4258.52 1.17283
4256.59 1.17338
4254.66 1.17348
4252.73 1.17342
4250.8 1.17334
4248.87 1.17309
4246.94 1.17252
4245.02 1.17175
4243.09 1.17094
4241.16 1.17047
4239.23 1.17017
4237.3 1.17009
4235.37 1.17002
4233.44 1.16988
4231.51 1.17046
4229.59 1.17089
4227.66 1.17053
4225.73 1.17028
4223.8 1.17054
4221.87 1.17082
4219.94 1.1704
4218.01 1.1697
4216.09 1.16895
4214.16 1.16873
4212.23 1.16856
4210.3 1.16911
4208.37 1.1698
4206.44 1.17021
4204.51 1.16965
4202.58 1.16954
4200.66 1.16969
4198.73 1.16946
4196.8 1.16866
4194.87 1.16802
4192.94 1.16826
4191.01 1.16844
4189.08 1.16802
4187.15 1.16804
4185.23 1.16764
4183.3 1.1669
4181.37 1.16657
4179.44 1.16697
4177.51 1.16785
4175.58 1.16791
4173.65 1.16785
4171.73 1.16781
4169.8 1.16756
4167.87 1.16681
4165.94 1.16647
4164.01 1.16734
4162.08 1.16727
4160.15 1.16718
4158.22 1.16725
4156.3 1.16701
4154.37 1.16668
4152.44 1.1667
4150.51 1.167
4148.58 1.16682
4146.65 1.16608
4144.72 1.16563
4142.8 1.16522
4140.87 1.16438
4138.94 1.16472
4137.01 1.16506
4135.08 1.16505
4133.15 1.16442
4131.22 1.16457
4129.29 1.16557
4127.37 1.16566
4125.44 1.16515
4123.51 1.16456
4121.58 1.16428
4119.65 1.16439
4117.72 1.16426
4115.79 1.16378
4113.87 1.16356
4111.94 1.16302
4110.01 1.16277
4108.08 1.16297
4106.15 1.16336
4104.22 1.16332
4102.29 1.16297
4100.36 1.16246
4098.44 1.16239
4096.51 1.16303
4094.58 1.16349
4092.65 1.16349
4090.72 1.16306
4088.79 1.16318
4086.86 1.16329
4084.94 1.16307
4083.01 1.16242
4081.08 1.16152
4079.15 1.16101
4077.22 1.16071
4075.29 1.1611
4073.36 1.16165
4071.43 1.16206
4069.51 1.16182
4067.58 1.16171
4065.65 1.16167
4063.72 1.16186
4061.79 1.16165
4059.86 1.1615
4057.93 1.16158
4056.01 1.16167
4054.08 1.16137
4052.15 1.16107
4050.22 1.16072
4048.29 1.16061
4046.36 1.16024
4044.43 1.16004
4042.5 1.16047
4040.58 1.16076
4038.65 1.16038
4036.72 1.15931
4034.79 1.15885
4032.86 1.15877
4030.93 1.15921
4029 1.15964
4027.07 1.15961
4025.15 1.15921
4023.22 1.15899
4021.29 1.15904
4019.36 1.15955
4017.43 1.15983
4015.5 1.15996
4013.57 1.15936
4011.65 1.1586
4009.72 1.15855
4007.79 1.1583
4005.86 1.15818
4003.93 1.15844
4002 1.15881
4000.07 1.15818
3998.14 1.15724
3996.22 1.15702
3994.29 1.15744
3992.36 1.15767
3990.43 1.15765
3988.5 1.15753
3986.57 1.15671
3984.64 1.15609
3982.72 1.15583
3980.79 1.15593
3978.86 1.15618
3976.93 1.15586
3975 1.15545
3973.07 1.15496
3971.14 1.15482
3969.21 1.15514
3967.29 1.15555
3965.36 1.15537
3963.43 1.15457
3961.5 1.15424
3959.57 1.15469
3957.64 1.15513
3955.71 1.15531
3953.79 1.15565
3951.86 1.15534
3949.93 1.15458
3948 1.15402
3946.07 1.15371
3944.14 1.15284
3942.21 1.15265
3940.28 1.15378
3938.36 1.1546
3936.43 1.1542
3934.5 1.15262
3932.57 1.15035
3930.64 1.15011
3928.71 1.15118
3926.78 1.15137
3924.86 1.15099
3922.93 1.15144
3921 1.15162
3919.07 1.15115
3917.14 1.15096
3915.21 1.15222
3913.28 1.15371
3911.35 1.15331
3909.43 1.15209
3907.5 1.15205
3905.57 1.15264
3903.64 1.15145
3901.71 1.14937
3899.78 1.14857
3897.85 1.14886
3895.92 1.1497
3894 1.15027
3892.07 1.1504
3890.14 1.15073
3888.21 1.15158
3886.28 1.15196
3884.35 1.1509
3882.42 1.14895
3880.5 1.14785
3878.57 1.14859
3876.64 1.15006
3874.71 1.1513
3872.78 1.15143
3870.85 1.15101
3868.92 1.15002
3866.99 1.14806
3865.07 1.14655
3863.14 1.14689
3861.21 1.14835
3859.28 1.14873
3857.35 1.14713
3855.42 1.14515
3853.49 1.14521
3851.57 1.1477
3849.64 1.14896
3847.71 1.14918
3845.78 1.14902
3843.85 1.14888
3841.92 1.14805
3839.99 1.14628
3838.06 1.1444
3836.14 1.14398
3834.21 1.14521
3832.28 1.14715
3830.35 1.14811
3828.42 1.14706
3826.49 1.14585
3824.56 1.14609
3822.64 1.14709
3820.71 1.14655
3818.78 1.14435
3816.85 1.1429
3814.92 1.144
3812.99 1.14636
3811.06 1.14683
3809.13 1.14673
3807.21 1.14697
3805.28 1.14684
3803.35 1.14537
3801.42 1.14353
3799.49 1.14307
3797.56 1.14334
3795.63 1.14404
3793.71 1.14494
3791.78 1.14511
3789.85 1.14462
3787.92 1.14413
3785.99 1.1439
3784.06 1.14385
3782.13 1.14398
3780.2 1.14364
3778.28 1.14327
3776.35 1.14293
3774.42 1.1427
3772.49 1.14211
3770.56 1.14153
3768.63 1.1418
3766.7 1.14227
3764.77 1.14229
3762.85 1.14142
3760.92 1.13985
3758.99 1.1393
3757.06 1.13977
3755.13 1.13948
3753.2 1.13839
3751.27 1.13931
3749.35 1.14066
3747.42 1.13824
3745.49 1.1333
3743.56 1.13289
3741.63 1.13662
3739.7 1.13889
3737.77 1.13868
3735.84 1.13934
3733.92 1.14031
3731.99 1.1406
3730.06 1.14007
3728.13 1.13893
3726.2 1.13788
3724.27 1.13768
3722.34 1.13789
3720.42 1.13827
3718.49 1.13833
3716.56 1.13864
3714.63 1.13967
3712.7 1.14051
3710.77 1.14003
3708.84 1.13909
3706.91 1.13894
3704.99 1.1388
3703.06 1.13847
3701.13 1.13789
3699.2 1.13753
3697.27 1.13774
3695.34 1.13702
3693.41 1.13559
3691.49 1.134
3689.56 1.13323
3687.63 1.13386
3685.7 1.13537
3683.77 1.13638
3681.84 1.13607
3679.91 1.13546
3677.98 1.13505
3676.06 1.13627
3674.13 1.13765
3672.2 1.1377
3670.27 1.13624
3668.34 1.13519
3666.41 1.13557
3664.48 1.1361
3662.56 1.13576
3660.63 1.13566
3658.7 1.13673
3656.77 1.13801
3654.84 1.13727
3652.91 1.13462
3650.98 1.13242
3649.05 1.13147
3647.13 1.13129
3645.2 1.13188
3643.27 1.13292
3641.34 1.13343
3639.41 1.13371
3637.48 1.13372
3635.55 1.13377
3633.63 1.13377
3631.7 1.13431
3629.77 1.13397
3627.84 1.13285
3625.91 1.13229
3623.98 1.13212
3622.05 1.13096
3620.12 1.12984
3618.2 1.12999
3616.27 1.13028
3614.34 1.12993
3612.41 1.12838
3610.48 1.12735
3608.55 1.12834
3606.62 1.12997
3604.69 1.13068
3602.77 1.13018
3600.84 1.12963
3598.91 1.12925
3596.98 1.1297
3595.05 1.12977
3593.12 1.12951
3591.19 1.12938
3589.27 1.12837
3587.34 1.1264
3585.41 1.12562
3583.48 1.12653
3581.55 1.12732
3579.62 1.12814
3577.69 1.12873
3575.76 1.12816
3573.84 1.12709
3571.91 1.12609
3569.98 1.12445
3568.05 1.12346
3566.12 1.12426
3564.19 1.12579
3562.26 1.12614
3560.34 1.12606
3558.41 1.12618
3556.48 1.1267
3554.55 1.12639
3552.62 1.12501
3550.69 1.12448
3548.76 1.12466
3546.83 1.12461
3544.91 1.12429
3542.98 1.12473
3541.05 1.12517
3539.12 1.12498
3537.19 1.12446
3535.26 1.12425
3533.33 1.12475
3531.41 1.12497
3529.48 1.12482
3527.55 1.12401
3525.62 1.1233
3523.69 1.12245
3521.76 1.12196
3519.83 1.12161
3517.9 1.12241
3515.98 1.12294
3514.05 1.12278
3512.12 1.12246
3510.19 1.12249
3508.26 1.12274
3506.33 1.12294
3504.4 1.12252
3502.48 1.12198
3500.55 1.12189
3498.62 1.12189
3496.69 1.12193
3494.76 1.12156
3492.83 1.12124
3490.9 1.12079
3488.97 1.12069
3487.05 1.12074
3485.12 1.12079
3483.19 1.12091
3481.26 1.12091
3479.33 1.12105
3477.4 1.12123
3475.47 1.12131
3473.54 1.12082
3471.62 1.12052
3469.69 1.12086
3467.76 1.1211
3465.83 1.12114
3463.9 1.12058
3461.97 1.12005
3460.04 1.11975
3458.12 1.11981
3456.19 1.11989
3454.26 1.11975
3452.33 1.11961
3450.4 1.11897
3448.47 1.11801
3446.54 1.11725
3444.61 1.11707
3442.69 1.11757
3440.76 1.11831
3438.83 1.11833
3436.9 1.11788
3434.97 1.11766
3433.04 1.11782
3431.11 1.11765
3429.19 1.1179
3427.26 1.11828
3425.33 1.11851
3423.4 1.11804
3421.47 1.11751
3419.54 1.11751
3417.61 1.11793
3415.68 1.11794
3413.76 1.11712
3411.83 1.11669
3409.9 1.11691
3407.97 1.11717
3406.04 1.11704
3404.11 1.11686
3402.18 1.11703
3400.26 1.1172
3398.33 1.11724
3396.4 1.11719
3394.47 1.11685
3392.54 1.11641
3390.61 1.11603
3388.68 1.11585
3386.75 1.11574
3384.83 1.11567
3382.9 1.11575
3380.97 1.11575
3379.04 1.11586
3377.11 1.11598
3375.18 1.11579
3373.25 1.11562
3371.33 1.11592
3369.4 1.11601
3367.47 1.11542
3365.54 1.11498
3363.61 1.11503
3361.68 1.11505
3359.75 1.11448
3357.82 1.11376
3355.9 1.11332
3353.97 1.11356
3352.04 1.1139
3350.11 1.11418
3348.18 1.11419
3346.25 1.11418
3344.32 1.11394
3342.4 1.11371
3340.47 1.11324
3338.54 1.11265
3336.61 1.11263
3334.68 1.11295
3332.75 1.11324
3330.82 1.11338
3328.89 1.11341
3326.97 1.11337
3325.04 1.113
3323.11 1.11255
3321.18 1.11255
3319.25 1.1127
3317.32 1.11265
3315.39 1.11255
3313.46 1.11241
3311.54 1.11188
3309.61 1.1115
3307.68 1.11164
3305.75 1.11186
3303.82 1.11205
3301.89 1.11226
3299.96 1.11239
3298.04 1.11253
3296.11 1.11224
3294.18 1.11168
3292.25 1.11141
3290.32 1.11133
3288.39 1.11138
3286.46 1.11126
3284.53 1.11087
3282.61 1.1103
3280.68 1.11026
3278.75 1.11068
3276.82 1.11102
3274.89 1.11091
3272.96 1.11069
3271.03 1.11078
3269.11 1.11076
3267.18 1.11065
3265.25 1.1103
3263.32 1.11014
3261.39 1.11031
3259.46 1.11015
3257.53 1.10939
3255.6 1.10872
3253.68 1.10873
3251.75 1.10923
3249.82 1.10945
3247.89 1.10936
3245.96 1.109
3244.03 1.10883
3242.1 1.10878
3240.18 1.10889
3238.25 1.10919
3236.32 1.10919
3234.39 1.1088
3232.46 1.1084
3230.53 1.10847
3228.6 1.10859
3226.67 1.10815
3224.75 1.10777
3222.82 1.10733
3220.89 1.10718
3218.96 1.10721
3217.03 1.10728
3215.1 1.1074
3213.17 1.1079
3211.25 1.10799
3209.32 1.10739
3207.39 1.10653
3205.46 1.10588
3203.53 1.10607
3201.6 1.10657
3199.67 1.1066
3197.74 1.10645
3195.82 1.10635
3193.89 1.10617
3191.96 1.10595
3190.03 1.10576
3188.1 1.10585
3186.17 1.10573
3184.24 1.10557
3182.31 1.10585
3180.39 1.10604
3178.46 1.10603
3176.53 1.10588
3174.6 1.10574
3172.67 1.10551
3170.74 1.10532
3168.81 1.10515
3166.89 1.10494
3164.96 1.10482
3163.03 1.10495
3161.1 1.10487
3159.17 1.10447
3157.24 1.10435
3155.31 1.10421
3153.38 1.10403
3151.46 1.10391
3149.53 1.104
3147.6 1.10402
3145.67 1.104
3143.74 1.10376
3141.81 1.10324
3139.88 1.10289
3137.96 1.10285
3136.03 1.10274
3134.1 1.10256
3132.17 1.10232
3130.24 1.10211
3128.31 1.10208
3126.38 1.10218
3124.45 1.10234
3122.53 1.10237
3120.6 1.10233
3118.67 1.10206
3116.74 1.10161
3114.81 1.1014
3112.88 1.10141
3110.95 1.10148
3109.03 1.10132
3107.1 1.10095
3105.17 1.10074
3103.24 1.10062
3101.31 1.10041
3099.38 1.10004
3097.45 1.09979
3095.52 1.09972
3093.6 1.09989
3091.67 1.09984
3089.74 1.09994
3087.81 1.09994
3085.88 1.09983
3083.95 1.09981
3082.02 1.09994
3080.1 1.09998
3078.17 1.09985
3076.24 1.09979
3074.31 1.09989
3072.38 1.0995
3070.45 1.09881
3068.52 1.09826
3066.59 1.09823
3064.67 1.09847
3062.74 1.09837
3060.81 1.09797
3058.88 1.09754
3056.95 1.09721
3055.02 1.09688
3053.09 1.09672
3051.16 1.0968
3049.24 1.09692
3047.31 1.09694
3045.38 1.09664
3043.45 1.09658
3041.52 1.09675
3039.59 1.09667
3037.66 1.09624
3035.74 1.09557
3033.81 1.09539
3031.88 1.09561
3029.95 1.09582
3028.02 1.09568
3026.09 1.09497
3024.16 1.09426
3022.23 1.09399
3020.31 1.09394
3018.38 1.09394
3016.45 1.09389
3014.52 1.09384
3012.59 1.09372
3010.66 1.09322
3008.73 1.09256
3006.81 1.09214
3004.88 1.09186
3002.95 1.09148
3001.02 1.09091
2999.09 1.09024
2997.16 1.08981
2995.23 1.08942
2993.3 1.08885
2991.38 1.08783
2989.45 1.08661
2987.52 1.08548
2985.59 1.08412
2983.66 1.08276
2981.73 1.08139
2979.8 1.07917
2977.88 1.07616
2975.95 1.07259
2974.02 1.06884
2972.09 1.06455
2970.16 1.05992
2968.23 1.05551
2966.3 1.05148
2964.37 1.04788
2962.45 1.04547
2960.52 1.04489
2958.59 1.04608
2956.66 1.04901
2954.73 1.05373
2952.8 1.0597
2950.87 1.06571
2948.95 1.07103
2947.02 1.0757
2945.09 1.07965
2943.16 1.08246
2941.23 1.08449
2939.3 1.08585
2937.37 1.08671
2935.44 1.08691
2933.52 1.08691
2931.59 1.08693
2929.66 1.08688
2927.73 1.08684
2925.8 1.08695
2923.87 1.08671
2921.94 1.08659
2920.02 1.08636
2918.09 1.0857
2916.16 1.08476
2914.23 1.08366
2912.3 1.08261
2910.37 1.08186
2908.44 1.08107
2906.51 1.08048
2904.59 1.08044
2902.66 1.08046
2900.73 1.08074
2898.8 1.0813
2896.87 1.08207
2894.94 1.08259
2893.01 1.08313
2891.08 1.0838
2889.16 1.08433
2887.23 1.08465
2885.3 1.08509
2883.37 1.08557
2881.44 1.08606
2879.51 1.08621
2877.58 1.08634
2875.66 1.08663
2873.73 1.087
2871.8 1.08689
2869.87 1.08671
2867.94 1.08686
2866.01 1.08709
2864.08 1.08725
2862.15 1.08724
2860.23 1.08729
2858.3 1.08735
2856.37 1.08729
2854.44 1.08749
2852.51 1.08799
2850.58 1.08825
2848.65 1.08823
2846.73 1.08799
2844.8 1.08781
2842.87 1.08783
2840.94 1.08797
2839.01 1.08794
2837.08 1.08772
2835.15 1.08753
2833.22 1.08752
2831.3 1.08745
2829.37 1.08703
2827.44 1.08677
2825.51 1.08693
2823.58 1.0873
2821.65 1.08725
2819.72 1.08691
2817.8 1.08648
2815.87 1.08628
2813.94 1.08632
2812.01 1.08634
2810.08 1.08628
2808.15 1.08619
2806.22 1.0858
2804.29 1.08536
2802.37 1.08526
2800.44 1.08553
2798.51 1.08584
2796.58 1.08602
2794.65 1.08605
2792.72 1.08604
2790.79 1.08601
2788.87 1.08569
2786.94 1.08546
2785.01 1.08556
2783.08 1.08572
2781.15 1.08606
2779.22 1.0864
2777.29 1.08634
2775.36 1.08613
2773.44 1.08571
2771.51 1.08532
2769.58 1.08504
2767.65 1.08492
2765.72 1.08509
2763.79 1.08542
2761.86 1.08548
2759.93 1.08531
2758.01 1.08532
2756.08 1.08527
2754.15 1.08489
2752.22 1.08468
2750.29 1.0848
2748.36 1.08489
2746.43 1.08478
2744.51 1.08472
2742.58 1.08462
2740.65 1.08416
2738.72 1.0839
2736.79 1.08404
2734.86 1.08408
2732.93 1.08397
2731 1.08388
2729.08 1.08382
2727.15 1.08368
2725.22 1.08328
2723.29 1.0828
2721.36 1.08241
2719.43 1.08267
2717.5 1.08304
2715.58 1.08302
2713.65 1.08274
2711.72 1.08259
2709.79 1.08233
2707.86 1.08182
2705.93 1.08144
2704 1.08142
2702.07 1.08171
2700.15 1.0819
2698.22 1.08169
2696.29 1.08125
2694.36 1.08107
2692.43 1.08108
2690.5 1.08122
2688.57 1.08132
2686.65 1.08127
2684.72 1.0813
2682.79 1.08126
2680.86 1.0812
2678.93 1.08133
2677 1.08126
2675.07 1.08073
2673.14 1.08014
2671.22 1.08006
2669.29 1.08029
2667.36 1.08028
2665.43 1.07989
2663.5 1.07954
2661.57 1.07946
2659.64 1.07931
2657.72 1.07908
2655.79 1.07891
2653.86 1.07892
2651.93 1.07887
2650 1.07892
2648.07 1.07898
2646.14 1.07908
2644.21 1.07903
2642.29 1.07888
2640.36 1.07879
2638.43 1.07901
2636.5 1.07887
2634.57 1.07833
2632.64 1.07808
2630.71 1.07802
2628.78 1.07788
2626.86 1.07758
2624.93 1.07758
2623 1.07783
2621.07 1.078
2619.14 1.07797
2617.21 1.0777
2615.28 1.07737
2613.36 1.07703
2611.43 1.07689
2609.5 1.07693
2607.57 1.07685
2605.64 1.0766
2603.71 1.07648
2601.78 1.07647
2599.85 1.07626
2597.93 1.07609
2596 1.07606
2594.07 1.07632
2592.14 1.07628
2590.21 1.07601
2588.28 1.07558
2586.35 1.07528
2584.43 1.07507
2582.5 1.07491
2580.57 1.07467
2578.64 1.07445
2576.71 1.07446
2574.78 1.07458
2572.85 1.07462
2570.92 1.07449
2569 1.0742
2567.07 1.07415
2565.14 1.07442
2563.21 1.07437
2561.28 1.07408
2559.35 1.07372
2557.42 1.07342
2555.5 1.07343
2553.57 1.07345
2551.64 1.07352
2549.71 1.07349
2547.78 1.07353
2545.85 1.07345
2543.92 1.07325
2541.99 1.07313
2540.07 1.07329
2538.14 1.07336
2536.21 1.07328
2534.28 1.07302
2532.35 1.07265
2530.42 1.07247
2528.49 1.07232
2526.57 1.07217
2524.64 1.07203
2522.71 1.07192
2520.78 1.07183
2518.85 1.07176
2516.92 1.07156
2514.99 1.07134
2513.06 1.07121
2511.14 1.07132
2509.21 1.07117
2507.28 1.07071
2505.35 1.07031
2503.42 1.07044
2501.49 1.07057
2499.56 1.07031
2497.64 1.06998
2495.71 1.0698
2493.78 1.0698
2491.85 1.06986
2489.92 1.06988
2487.99 1.06995
2486.06 1.07002
2484.13 1.07
2482.21 1.06988
2480.28 1.06983
2478.35 1.06979
2476.42 1.06944
2474.49 1.06897
2472.56 1.06846
2470.63 1.06819
2468.7 1.06825
2466.78 1.06817
2464.85 1.06796
2462.92 1.06783
2460.99 1.06779
2459.06 1.06767
2457.13 1.06763
2455.2 1.06748
2453.28 1.0673
2451.35 1.06719
2449.42 1.06713
2447.49 1.06715
2445.56 1.06723
2443.63 1.06716
2441.7 1.06701
2439.77 1.06701
2437.85 1.0672
2435.92 1.0673
2433.99 1.06705
2432.06 1.06693
2430.13 1.06705
2428.2 1.0669
2426.27 1.06636
2424.35 1.06611
2422.42 1.06628
2420.49 1.0662
2418.56 1.06585
2416.63 1.06547
2414.7 1.06529
2412.77 1.06526
2410.84 1.06525
2408.92 1.06516
2406.99 1.06503
2405.06 1.06515
2403.13 1.06502
2401.2 1.06453
2399.27 1.064
2397.34 1.064
2395.42 1.06445
2393.49 1.06475
2391.56 1.0646
2389.63 1.06424
2387.7 1.064
2385.77 1.06386
2383.84 1.06376
2381.91 1.06377
2379.99 1.0639
2378.06 1.06386
2376.13 1.06379
2374.2 1.06367
2372.27 1.06335
2370.34 1.06297
2368.41 1.06282
2366.49 1.06294
2364.56 1.06318
2362.63 1.0632
2360.7 1.0629
2358.77 1.06229
2356.84 1.06198
2354.91 1.06196
2352.98 1.06213
2351.06 1.06222
2349.13 1.06225
2347.2 1.06213
2345.27 1.06162
2343.34 1.06102
2341.41 1.06082
2339.48 1.06092
2337.55 1.06108
2335.63 1.06115
2333.7 1.0612
2331.77 1.06127
2329.84 1.06124
2327.91 1.06131
2325.98 1.0613
2324.05 1.06109
2322.13 1.06082
2320.2 1.06061
2318.27 1.06054
2316.34 1.06058
2314.41 1.06059
2312.48 1.06047
2310.55 1.06029
2308.62 1.06014
2306.7 1.06005
2304.77 1.05999
2302.84 1.05982
2300.91 1.05966
2298.98 1.05949
2297.05 1.05931
2295.12 1.0591
2293.2 1.05907
2291.27 1.05905
2289.34 1.05913
2287.41 1.05909
2285.48 1.05884
2283.55 1.05861
2281.62 1.05827
2279.69 1.05794
2277.77 1.05792
2275.84 1.05819
2273.91 1.05823
2271.98 1.05792
2270.05 1.05784
2268.12 1.05801
2266.19 1.05815
2264.27 1.05794
2262.34 1.05751
2260.41 1.05724
2258.48 1.05723
2256.55 1.05729
2254.62 1.05723
2252.69 1.05704
2250.76 1.05675
2248.84 1.05656
2246.91 1.05649
2244.98 1.05635
2243.05 1.05618
2241.12 1.05613
2239.19 1.05605
2237.26 1.05563
2235.34 1.05534
2233.41 1.05525
2231.48 1.05513
2229.55 1.05472
2227.62 1.05452
2225.69 1.05448
2223.76 1.05442
2221.83 1.05439
2219.91 1.05442
2217.98 1.05434
2216.05 1.05434
2214.12 1.05435
2212.19 1.05409
2210.26 1.0538
2208.33 1.05366
2206.41 1.05368
2204.48 1.05353
2202.55 1.05311
2200.62 1.05266
2198.69 1.05279
2196.76 1.05302
2194.83 1.05282
2192.9 1.05243
2190.98 1.05216
2189.05 1.05193
2187.12 1.05169
2185.19 1.0514
2183.26 1.05111
2181.33 1.05099
2179.4 1.05088
2177.47 1.05043
2175.55 1.05
2173.62 1.04991
2171.69 1.04996
2169.76 1.04967
2167.83 1.04908
2165.9 1.04843
2163.97 1.04792
2162.05 1.04772
2160.12 1.04768
2158.19 1.0476
2156.26 1.04768
2154.33 1.04767
2152.4 1.04719
2150.47 1.04668
2148.54 1.04646
2146.62 1.04638
2144.69 1.04632
2142.76 1.04642
2140.83 1.0465
2138.9 1.04632
2136.97 1.04569
2135.04 1.04486
2133.12 1.04446
2131.19 1.04467
2129.26 1.04517
2127.33 1.04539
2125.4 1.04528
2123.47 1.04513
2121.54 1.04516
2119.61 1.04524
2117.69 1.04542
2115.76 1.04554
2113.83 1.0458
2111.9 1.04628
2109.97 1.04654
2108.04 1.04656
2106.11 1.04653
2104.19 1.04657
2102.26 1.0466
2100.33 1.04661
2098.4 1.04651
2096.47 1.04624
2094.54 1.04615
2092.61 1.04631
2090.68 1.04659
2088.76 1.04656
2086.83 1.04621
2084.9 1.0462
2082.97 1.0465
2081.04 1.04664
2079.11 1.04657
2077.18 1.04673
2075.26 1.04711
2073.33 1.04737
2071.4 1.04742
2069.47 1.04746
2067.54 1.04753
2065.61 1.04743
2063.68 1.04733
2061.75 1.04738
2059.83 1.04748
2057.9 1.04742
2055.97 1.04726
2054.04 1.04732
2052.11 1.04741
2050.18 1.04733
2048.25 1.04717
2046.32 1.04705
2044.4 1.04704
2042.47 1.04708
2040.54 1.04687
2038.61 1.04663
2036.68 1.04671
2034.75 1.0468
2032.82 1.0467
2030.9 1.04651
2028.97 1.04643
2027.04 1.04636
2025.11 1.04614
2023.18 1.04608
2021.25 1.04625
2019.32 1.04633
2017.39 1.04623
2015.47 1.04624
2013.54 1.04625
2011.61 1.04627
2009.68 1.04615
2007.75 1.04567
2005.82 1.04535
2003.89 1.04535
2001.97 1.0453
2000.04 1.0452
1998.11 1.04516
1996.18 1.04508
1994.25 1.04467
1992.32 1.04414
1990.39 1.04381
1988.46 1.04375
1986.54 1.0441
1984.61 1.04465
1982.68 1.04479
1980.75 1.04474
1978.82 1.04456
1976.89 1.04415
1974.96 1.04373
1973.04 1.0434
1971.11 1.04311
1969.18 1.04309
1967.25 1.04329
1965.32 1.04355
1963.39 1.0436
1961.46 1.04342
1959.53 1.04329
1957.61 1.04331
1955.68 1.04308
1953.75 1.04258
1951.82 1.04216
1949.89 1.04211
1947.96 1.04201
1946.03 1.0416
1944.11 1.04107
1942.18 1.041
1940.25 1.04152
1938.32 1.04193
1936.39 1.04193
1934.46 1.0417
1932.53 1.04136
1930.6 1.04106
1928.68 1.04094
1926.75 1.04074
1924.82 1.04035
1922.89 1.04025
1920.96 1.04062
1919.03 1.04111
1917.1 1.04108
1915.17 1.04091
1913.25 1.04093
1911.32 1.04104
1909.39 1.04092
1907.46 1.04071
1905.53 1.0407
1903.6 1.04065
1901.67 1.04054
1899.75 1.04036
1897.82 1.04008
1895.89 1.0399
1893.96 1.03964
1892.03 1.03913
1890.1 1.03895
1888.17 1.03913
1886.24 1.03926
1884.32 1.03919
1882.39 1.0391
1880.46 1.03907
1878.53 1.03907
1876.6 1.03908
1874.67 1.03904
1872.74 1.03861
1870.82 1.03757
1868.89 1.03708
1866.96 1.03766
1865.03 1.03819
1863.1 1.0382
1861.17 1.03815
1859.24 1.03814
1857.31 1.03815
1855.39 1.0382
1853.46 1.03809
1851.53 1.03787
1849.6 1.03776
1847.67 1.03774
1845.74 1.03755
1843.81 1.03737
1841.89 1.03714
1839.96 1.03699
1838.03 1.03705
1836.1 1.03702
1834.17 1.03701
1832.24 1.03717
1830.31 1.03735
1828.38 1.03704
1826.46 1.03653
1824.53 1.03613
1822.6 1.03584
1820.67 1.03565
1818.74 1.03576
1816.81 1.03596
1814.88 1.03595
1812.96 1.03584
1811.03 1.03578
1809.1 1.03547
1807.17 1.03508
1805.24 1.03495
1803.31 1.03479
1801.38 1.03473
1799.45 1.03491
1797.53 1.03476
1795.6 1.03404
1793.67 1.03327
1791.74 1.03316
1789.81 1.03369
1787.88 1.03378
1785.95 1.03349
1784.03 1.03349
1782.1 1.03388
1780.17 1.03407
1778.24 1.03411
1776.31 1.03445
1774.38 1.03503
1772.45 1.03487
1770.52 1.03393
1768.6 1.03328
1766.67 1.03303
1764.74 1.03279
1762.81 1.03295
1760.88 1.03305
1758.95 1.03285
1757.02 1.03252
1755.09 1.03185
1753.17 1.03048
1751.24 1.02933
1749.31 1.02937
1747.38 1.02998
1745.45 1.03004
1743.52 1.02961
1741.59 1.02915
1739.67 1.02919
1737.74 1.03066
1735.81 1.03265
1733.88 1.03294
1731.95 1.03154
1730.02 1.03045
1728.09 1.03006
1726.16 1.02986
1724.24 1.02995
1722.31 1.02994
1720.38 1.02952
1718.45 1.02888
1716.52 1.02879
1714.59 1.02906
1712.66 1.02898
1710.74 1.02894
1708.81 1.02901
1706.88 1.02927
1704.95 1.02996
1703.02 1.03111
1701.09 1.03201
1699.16 1.03141
1697.23 1.03004
1695.31 1.02935
1693.38 1.02894
1691.45 1.02833
1689.52 1.0283
1687.59 1.02917
1685.66 1.02977
1683.73 1.02907
1681.81 1.02826
1679.88 1.02826
1677.95 1.02767
1676.02 1.02623
1674.09 1.02561
1672.16 1.02642
1670.23 1.02767
1668.3 1.02857
1666.38 1.02883
1664.45 1.02886
1662.52 1.02871
1660.59 1.02842
1658.66 1.02826
1656.73 1.02812
1654.8 1.02685
1652.88 1.02495
1650.95 1.02482
1649.02 1.02609
1647.09 1.02697
1645.16 1.02717
1643.23 1.02708
1641.3 1.02684
1639.37 1.02679
1637.45 1.02756
1635.52 1.02846
1633.59 1.02819
1631.66 1.02744
1629.73 1.0275
1627.8 1.02783
1625.87 1.02758
1623.94 1.02715
1622.02 1.02696
1620.09 1.02728
1618.16 1.02795
1616.23 1.0283
1614.3 1.02766
1612.37 1.02657
1610.44 1.02579
1608.52 1.02537
1606.59 1.02529
1604.66 1.02539
1602.73 1.02564
1600.8 1.02592
1598.87 1.02579
1596.94 1.02525
1595.01 1.02495
1593.09 1.02522
1591.16 1.02555
1589.23 1.02548
1587.3 1.02542
1585.37 1.02561
1583.44 1.02575
1581.51 1.02551
1579.59 1.02464
1577.66 1.02353
1575.73 1.0233
1573.8 1.02414
1571.87 1.02454
1569.94 1.02434
1568.01 1.02417
1566.08 1.02397
1564.16 1.02355
1562.23 1.02316
1560.3 1.02278
1558.37 1.02273
1556.44 1.02316
1554.51 1.02386
1552.58 1.02405
1550.66 1.02358
1548.73 1.02315
1546.8 1.02266
1544.87 1.02209
1542.94 1.02231
1541.01 1.02343
1539.08 1.02408
1537.15 1.02344
1535.23 1.0223
1533.3 1.02197
1531.37 1.02287
1529.44 1.02373
1527.51 1.02376
1525.58 1.02349
1523.65 1.02368
1521.73 1.02474
1519.8 1.02547
1517.87 1.02502
1515.94 1.02373
1514.01 1.02268
1512.08 1.02245
1510.15 1.02174
1508.22 1.02046
1506.3 1.02085
1504.37 1.0224
1502.44 1.02293
1500.51 1.02235
1498.58 1.02151
1496.65 1.0211
1494.72 1.02152
1492.79 1.0224
1490.87 1.0226
1488.94 1.02217
1487.01 1.0221
1485.08 1.0222
1483.15 1.02193
1481.22 1.02138
1479.29 1.02086
1477.37 1.02009
1475.44 1.01972
1473.51 1.02027
1471.58 1.02093
1469.65 1.02072
1467.72 1.01965
1465.79 1.01854
1463.86 1.01848
1461.94 1.01889
1460.01 1.01857
1458.08 1.01813
1456.15 1.0184
1454.22 1.01869
1452.29 1.01857
1450.36 1.01842
1448.44 1.01838
1446.51 1.0184
1444.58 1.01842
1442.65 1.01836
1440.72 1.01838
1438.79 1.01882
1436.86 1.01907
1434.93 1.01864
1433.01 1.01824
1431.08 1.01797
1429.15 1.0174
1427.22 1.01651
1425.29 1.01538
1423.36 1.01414
1421.43 1.01236
1419.51 1.01065
1417.58 1.01044
1415.65 1.01105
1413.72 1.01132
1411.79 1.01148
1409.86 1.01172
1407.93 1.01186
1406 1.01178
1404.08 1.01195
1402.15 1.01269
1400.22 1.01372
1398.29 1.01422
1396.36 1.01432
1394.43 1.01484
1392.5 1.0154
1390.58 1.01596
1388.65 1.01662
1386.72 1.01685
1384.79 1.01689
1382.86 1.01709
1380.93 1.01708
1379 1.01671
1377.07 1.01629
1375.15 1.01603
1373.22 1.01629
1371.29 1.01699
1369.36 1.01725
1367.43 1.01682
1365.5 1.01599
1363.57 1.01512
1361.65 1.01486
1359.72 1.01492
1357.79 1.01474
1355.86 1.01435
1353.93 1.0141
1352 1.01425
1350.07 1.01474
1348.14 1.01503
1346.22 1.01509
1344.29 1.0151
1342.36 1.01479
1340.43 1.01425
1338.5 1.01433
1336.57 1.01495
1334.64 1.01541
1332.71 1.01533
1330.79 1.01496
1328.86 1.01459
1326.93 1.01434
1325 1.01426
1323.07 1.01428
1321.14 1.01429
1319.21 1.01419
1317.29 1.01388
1315.36 1.01335
1313.43 1.01298
1311.5 1.01298
1309.57 1.01296
1307.64 1.01237
1305.71 1.01163
1303.78 1.0114
1301.86 1.01135
1299.93 1.01094
1298 1.01052
1296.07 1.01041
1294.14 1.01028
1292.21 1.00976
1290.28 1.00915
1288.36 1.00888
1286.43 1.00865
1284.5 1.00783
1282.57 1.00643
1280.64 1.00488
1278.71 1.00285
1276.78 0.999962
1274.85 0.995813
1272.93 0.990231
1271 0.983529
1269.07 0.975444
1267.14 0.965549
1265.21 0.954011
1263.28 0.942415
1261.35 0.933515
1259.43 0.929032
1257.5 0.929176
1255.57 0.93256
1253.64 0.937852
1251.71 0.945658
1249.78 0.956602
1247.85 0.969117
1245.92 0.980499
1244 0.989211
1242.07 0.99586
1240.14 1.00121
1238.21 1.00535
1236.28 1.00781
1234.35 1.00886
1232.42 1.0092
1230.5 1.00938
1228.57 1.00945
1226.64 1.00952
1224.71 1.00965
1222.78 1.00969
1220.85 1.00959
1218.92 1.00926
1216.99 1.00898
1215.07 1.00879
1213.14 1.00853
1211.21 1.00794
1209.28 1.00753
1207.35 1.0077
1205.42 1.00804
1203.49 1.00766
1201.56 1.007
1199.64 1.00659
1197.71 1.00651
1195.78 1.0063
1193.85 1.006
1191.92 1.00576
1189.99 1.0055
1188.06 1.00469
1186.14 1.00377
1184.21 1.00351
1182.28 1.00354
1180.35 1.00324
1178.42 1.00245
1176.49 1.00161
1174.56 1.00088
1172.63 1.00012
1170.71 0.999237
1168.78 0.998402
1166.85 0.9976
1164.92 0.996852
1162.99 0.996048
1161.06 0.995448
1159.13 0.994718
1157.21 0.993626
1155.28 0.992194
1153.35 0.990663
1151.42 0.989398
1149.49 0.988376
1147.56 0.987415
1145.63 0.986208
1143.7 0.984522
1141.78 0.982695
1139.85 0.980684
1137.92 0.978316
1135.99 0.976109
1134.06 0.974265
1132.13 0.972264
1130.2 0.969931
1128.28 0.967295
1126.35 0.964952
1124.42 0.962769
1122.49 0.960305
1120.56 0.95768
1118.63 0.955617
1116.7 0.95387
1114.77 0.951667
1112.85 0.949117
1110.92 0.946887
1108.99 0.945007
1107.06 0.9428
1105.13 0.94011
1103.2 0.93756
1101.27 0.935224
1099.35 0.932743
1097.42 0.929962
1095.49 0.927269
1093.56 0.924531
1091.63 0.921704
1089.7 0.91888
1087.77 0.916213
1085.84 0.913508
1083.92 0.9106
1081.99 0.907738
1080.06 0.90504
1078.13 0.90224
1076.2 0.899446
1074.27 0.896867
1072.34 0.894551
1070.42 0.892029
1068.49 0.889228
1066.56 0.886221
1064.63 0.883234
1062.7 0.880366
1060.77 0.877714
1058.84 0.875016
1056.91 0.872086
1054.99 0.869003
1053.06 0.866248
1051.13 0.863909
1049.2 0.861662
1047.27 0.859188
1045.34 0.856823
1043.41 0.855032
1041.48 0.853577
1039.56 0.851954
1037.63 0.850696
1035.7 0.85016
1033.77 0.850399
1031.84 0.851338
1029.91 0.852717
1027.98 0.854156
1026.06 0.85581
1024.13 0.858415
1022.2 0.86215
1020.27 0.866763
1018.34 0.87194
1016.41 0.877588
1014.48 0.883756
1012.55 0.89007
1010.63 0.896392
1008.7 0.90317
1006.77 0.910022
1004.84 0.916525
1002.91 0.923029
1000.98 0.929586
999.054 0.936296
997.125 0.942735
995.197 0.948111
993.268 0.952246
991.339 0.956129
989.411 0.960096
987.482 0.963916
985.553 0.967923
983.625 0.971972
981.696 0.975606
979.767 0.978585
977.839 0.981018
975.91 0.983629
973.981 0.986338
972.053 0.988892
970.124 0.991131
968.195 0.992549
966.267 0.99326
964.338 0.994152
962.409 0.995176
960.481 0.995932
958.552 0.996699
956.623 0.997622
954.694 0.998184
952.766 0.998771
950.837 0.999816
948.908 1.00095
946.98 1.00133
945.051 1.00097
943.122 1.00032
941.194 1
939.265 0.999712
937.336 0.998991
935.408 0.998427
933.479 0.998699
931.55 0.999013
929.622 0.998538
927.693 0.997566
925.764 0.996976
923.836 0.996479
921.907 0.995471
919.978 0.993712
918.05 0.991983
916.121 0.990494
914.192 0.98901
912.264 0.987066
910.335 0.985183
908.406 0.984394
906.478 0.984524
904.549 0.984411
902.62 0.984074
900.692 0.984473
898.763 0.984855
896.834 0.984679
894.906 0.984421
892.977 0.984019
891.048 0.98372
889.12 0.983898
887.191 0.983883
885.262 0.983009
883.333 0.981843
881.405 0.980557
879.476 0.978864
877.547 0.977294
875.619 0.975886
873.69 0.974593
871.761 0.973181
869.833 0.971394
867.904 0.96955
865.975 0.967486
864.047 0.964904
862.118 0.962283
860.189 0.959974
858.261 0.957309
856.332 0.953579
854.403 0.948995
852.475 0.943564
850.546 0.937265
848.617 0.929764
846.689 0.921574
844.76 0.914196
842.831 0.909115
840.903 0.906807
838.974 0.907693
837.045 0.911838
835.117 0.917738
833.188 0.924426
831.259 0.930911
829.331 0.93612
827.402 0.939607
825.473 0.942394
823.545 0.944442
821.616 0.945561
819.687 0.945212
817.758 0.943297
815.83 0.940385
813.901 0.936598
811.972 0.931807
810.044 0.926626
808.115 0.921207
806.186 0.915376
804.258 0.909824
802.329 0.904889
800.4 0.900909
798.472 0.898539
796.543 0.898376
794.614 0.900897
792.686 0.905803
790.757 0.911432
788.828 0.916879
786.9 0.92247
784.971 0.927947
783.042 0.932532
781.114 0.93612
779.185 0.938584
777.256 0.940597
775.328 0.942283
773.399 0.943739
771.47 0.945302
769.542 0.946934
767.613 0.948658
765.684 0.950849
763.756 0.952923
761.827 0.954112
759.898 0.954414
757.97 0.954533
756.041 0.955413
754.112 0.958031
752.184 0.962491
750.255 0.967608
748.326 0.972712
746.398 0.977189
744.469 0.980993
742.54 0.984054
740.611 0.98596
738.683 0.987546
736.754 0.9895
734.825 0.991433
732.897 0.992356
730.968 0.992989
729.039 0.993843
727.111 0.994519
725.182 0.995069
723.253 0.995504
721.325 0.994996
719.396 0.994269
717.467 0.994157
715.539 0.994185
713.61 0.993399
711.681 0.992856
709.753 0.993178
707.824 0.993181
705.895 0.992568
703.967 0.992209
702.038 0.992014
700.109 0.99156
698.181 0.991321
696.252 0.991077
694.323 0.989898
692.395 0.98841
690.466 0.987627
688.537 0.987839
686.609 0.98921
684.68 0.990862
682.751 0.991316
680.823 0.990621
678.894 0.990797
676.965 0.992154
675.036 0.993575
673.108 0.994723
671.179 0.995704
669.25 0.997115
667.322 0.997865
665.393 0.996887
663.464 0.996019
661.536 0.996568
659.607 0.997094
657.678 0.996277
655.75 0.995248
653.821 0.995207
651.892 0.996187
649.964 0.996929
648.035 0.997129
646.106 0.997588
644.178 0.997813
642.249 0.997595
640.32 0.997385
638.392 0.998285
636.463 0.999323
634.534 0.999425
632.606 0.99773
630.677 0.995026
628.748 0.993419
626.82 0.992969
624.891 0.993256
622.962 0.995397
621.034 0.99808
619.105 1.00059
617.176 1.00237
615.248 1.00191
613.319 1.00012
611.39 0.999604
609.462 1.00081
607.533 1.00197
605.604 1.0023
603.676 1.00281
601.747 1.0038
599.818 1.00366
597.889 1.00218
595.961 1.00177
594.032 1.00265
592.103 1.00361
590.175 1.0038
588.246 1.00423
586.317 1.00384
584.389 1.00151
582.46 0.99907
580.531 0.99832
578.603 0.999645
576.674 1.00115
574.745 1.00176
572.817 1.00172
570.888 1.00237
568.959 1.0023
567.031 1.00024
565.102 0.998727
563.173 0.998508
561.245 0.997863
559.316 0.998345
557.387 1.00008
555.459 1.0004
553.53 1.00031
551.601 1.00199
549.673 1.00352
547.744 1.00308
545.815 1.00002
543.887 0.995773
541.958 0.994035
540.029 0.994613
538.101 0.996837
536.172 1.00182
534.243 1.00539
532.314 1.00428
530.386 1.00208
528.457 1.00124
526.528 0.999548
524.6 0.99714
522.671 0.997334
520.742 0.999324
518.814 0.999923
516.885 0.998235
514.956 0.99745
513.028 1.00012
511.099 1.004
509.17 1.00643
507.242 1.00709
505.313 1.0059
503.384 1.00296
501.456 1.00017
499.527 1.00004
497.598 1.00201
495.67 1.00198
493.741 0.999815
491.812 0.997524
489.884 0.995227
487.955 0.993796
486.026 0.994954
484.098 0.998918
482.169 1.00305
480.24 1.00556
478.312 1.00118
476.383 0.991849
474.454 0.990105
472.526 0.99365
470.597 0.992276
468.668 0.992113
466.74 0.996457
464.811 0.998658
462.882 0.996431
460.954 0.995128
459.025 0.999177
457.096 1.00569
455.167 1.00673
453.239 0.998426
451.31 0.989374
449.381 0.988974
447.453 0.993613
445.524 0.994218
443.595 0.99263
441.667 0.996387
439.738 1.00098
437.809 1.00129
435.881 0.998111
433.952 0.990981
432.023 0.980688
430.095 0.976105
428.166 0.983846
426.237 0.994983
424.309 1.00012
422.38 0.998315
420.451 0.993239
418.523 0.989644
416.594 0.984758
414.665 0.976563
412.737 0.970983
410.808 0.96764
408.879 0.962871
406.951 0.965347
405.022 0.970539
403.093 0.967426
401.165 0.960849
399.236 0.968556
397.307 0.985051
395.379 0.99224
393.45 0.976117
391.521 0.947327
389.592 0.945049
387.664 0.975516
385.735 1.00018
383.806 0.983277
381.878 0.931329
379.949 0.880118
378.02 0.867036
376.092 0.898665
374.163 0.929885
372.234 0.93774
370.306 0.968584
368.377 1.00729
