7496.76250	0.00227
7494.83382	0.00227
7492.90514	0.00227
7490.97647	0.00228
7489.04779	0.00229
7487.11912	0.00229
7485.19044	0.00228
7483.26177	0.00229
7481.33309	0.00229
7479.40441	0.00230
7477.47574	0.00231
7475.54706	0.00233
7473.61839	0.00235
7471.68971	0.00235
7469.76104	0.00235
7467.83236	0.00236
7465.90368	0.00238
7463.97501	0.00239
7462.04633	0.00239
7460.11766	0.00238
7458.18898	0.00239
7456.26031	0.00241
7454.33163	0.00242
7452.40295	0.00242
7450.47428	0.00243
7448.54560	0.00244
7446.61693	0.00245
7444.68825	0.00245
7442.75958	0.00246
7440.83090	0.00245
7438.90222	0.00245
7436.97355	0.00245
7435.04487	0.00245
7433.11620	0.00246
7431.18752	0.00248
7429.25885	0.00249
7427.33017	0.00249
7425.40149	0.00250
7423.47282	0.00252
7421.54414	0.00252
7419.61547	0.00251
7417.68679	0.00250
7415.75812	0.00251
7413.82944	0.00253
7411.90076	0.00255
7409.97209	0.00256
7408.04341	0.00256
7406.11474	0.00256
7404.18606	0.00258
7402.25739	0.00259
7400.32871	0.00258
7398.40003	0.00259
7396.47136	0.00260
7394.54268	0.00261
7392.61401	0.00261
7390.68533	0.00260
7388.75666	0.00259
7386.82798	0.00260
7384.89930	0.00261
7382.97063	0.00262
7381.04195	0.00263
7379.11328	0.00264
7377.18460	0.00263
7375.25593	0.00264
7373.32725	0.00265
7371.39857	0.00266
7369.46990	0.00267
7367.54122	0.00269
7365.61255	0.00270
7363.68387	0.00272
7361.75520	0.00272
7359.82652	0.00272
7357.89784	0.00272
7355.96917	0.00272
7354.04049	0.00273
7352.11182	0.00273
7350.18314	0.00274
7348.25447	0.00276
7346.32579	0.00277
7344.39711	0.00277
7342.46844	0.00276
7340.53976	0.00276
7338.61109	0.00277
7336.68241	0.00279
7334.75374	0.00279
7332.82506	0.00280
7330.89638	0.00281
7328.96771	0.00283
7327.03903	0.00284
7325.11036	0.00283
7323.18168	0.00284
7321.25301	0.00285
7319.32433	0.00285
7317.39565	0.00285
7315.46698	0.00286
7313.53830	0.00287
7311.60963	0.00287
7309.68095	0.00288
7307.75228	0.00290
7305.82360	0.00291
7303.89492	0.00293
7301.96625	0.00295
7300.03757	0.00295
7298.10890	0.00293
7296.18022	0.00292
7294.25155	0.00294
7292.32287	0.00296
7290.39419	0.00297
7288.46552	0.00298
7286.53684	0.00299
7284.60817	0.00299
7282.67949	0.00299
7280.75082	0.00299
7278.82214	0.00299
7276.89346	0.00299
7274.96479	0.00300
7273.03611	0.00302
7271.10744	0.00303
7269.17876	0.00303
7267.25009	0.00303
7265.32141	0.00304
7263.39273	0.00306
7261.46406	0.00307
7259.53538	0.00306
7257.60671	0.00306
7255.67803	0.00306
7253.74936	0.00307
7251.82068	0.00308
7249.89200	0.00309
7247.96333	0.00309
7246.03465	0.00310
7244.10598	0.00311
7242.17730	0.00313
7240.24863	0.00315
7238.31995	0.00316
7236.39127	0.00318
7234.46260	0.00319
7232.53392	0.00318
7230.60525	0.00317
7228.67657	0.00318
7226.74790	0.00318
7224.81922	0.00318
7222.89054	0.00318
7220.96187	0.00319
7219.03319	0.00320
7217.10452	0.00322
7215.17584	0.00324
7213.24717	0.00325
7211.31849	0.00326
7209.38981	0.00325
7207.46114	0.00324
7205.53246	0.00324
7203.60379	0.00325
7201.67511	0.00326
7199.74644	0.00327
7197.81776	0.00327
7195.88908	0.00330
7193.96041	0.00333
7192.03173	0.00332
7190.10306	0.00331
7188.17438	0.00332
7186.24571	0.00334
7184.31703	0.00336
7182.38835	0.00335
7180.45968	0.00335
7178.53100	0.00335
7176.60233	0.00336
7174.67365	0.00338
7172.74498	0.00339
7170.81630	0.00340
7168.88762	0.00341
7166.95895	0.00340
7165.03027	0.00340
7163.10160	0.00341
7161.17292	0.00342
7159.24425	0.00343
7157.31557	0.00344
7155.38689	0.00346
7153.45822	0.00348
7151.52954	0.00349
7149.60087	0.00350
7147.67219	0.00349
7145.74352	0.00349
7143.81484	0.00349
7141.88616	0.00349
7139.95749	0.00350
7138.02881	0.00352
7136.10014	0.00354
7134.17146	0.00355
7132.24279	0.00355
7130.31411	0.00355
7128.38543	0.00355
7126.45676	0.00355
7124.52808	0.00356
7122.59941	0.00357
7120.67073	0.00359
7118.74206	0.00361
7116.81338	0.00363
7114.88470	0.00366
7112.95603	0.00367
7111.02735	0.00366
7109.09868	0.00365
7107.17000	0.00364
7105.24133	0.00365
7103.31265	0.00365
7101.38397	0.00365
7099.45530	0.00366
7097.52662	0.00369
7095.59795	0.00371
7093.66927	0.00373
7091.74060	0.00373
7089.81192	0.00375
7087.88324	0.00376
7085.95457	0.00375
7084.02589	0.00375
7082.09722	0.00376
7080.16854	0.00377
7078.23987	0.00377
7076.31119	0.00378
7074.38251	0.00379
7072.45384	0.00381
7070.52516	0.00383
7068.59649	0.00384
7066.66781	0.00384
7064.73914	0.00383
7062.81046	0.00382
7060.88178	0.00383
7058.95311	0.00385
7057.02443	0.00387
7055.09576	0.00388
7053.16708	0.00390
7051.23841	0.00390
7049.30973	0.00391
7047.38105	0.00391
7045.45238	0.00392
7043.52370	0.00393
7041.59503	0.00393
7039.66635	0.00393
7037.73768	0.00394
7035.80900	0.00397
7033.88032	0.00399
7031.95165	0.00399
7030.02297	0.00398
7028.09430	0.00397
7026.16562	0.00398
7024.23695	0.00400
7022.30827	0.00401
7020.37959	0.00402
7018.45092	0.00403
7016.52224	0.00403
7014.59357	0.00404
7012.66489	0.00405
7010.73622	0.00406
7008.80754	0.00408
7006.87886	0.00408
7004.95019	0.00408
7003.02151	0.00407
7001.09284	0.00407
6999.16416	0.00408
6997.23549	0.00409
6995.30681	0.00410
6993.37813	0.00412
6991.44946	0.00413
6989.52078	0.00415
6987.59211	0.00417
6985.66343	0.00418
6983.73476	0.00418
6981.80608	0.00418
6979.87740	0.00418
6977.94873	0.00420
6976.02005	0.00421
6974.09138	0.00422
6972.16270	0.00423
6970.23403	0.00424
6968.30535	0.00426
6966.37667	0.00426
6964.44800	0.00427
6962.51932	0.00428
6960.59065	0.00429
6958.66197	0.00429
6956.73330	0.00431
6954.80462	0.00433
6952.87594	0.00434
6950.94727	0.00436
6949.01859	0.00439
6947.08992	0.00440
6945.16124	0.00440
6943.23257	0.00439
6941.30389	0.00439
6939.37521	0.00439
6937.44654	0.00439
6935.51786	0.00441
6933.58919	0.00442
6931.66051	0.00444
6929.73184	0.00445
6927.80316	0.00446
6925.87448	0.00446
6923.94581	0.00446
6922.01713	0.00447
6920.08846	0.00447
6918.15978	0.00448
6916.23111	0.00450
6914.30243	0.00452
6912.37375	0.00452
6910.44508	0.00452
6908.51640	0.00453
6906.58773	0.00455
6904.65905	0.00456
6902.73038	0.00456
6900.80170	0.00457
6898.87302	0.00459
6896.94435	0.00460
6895.01567	0.00462
6893.08700	0.00463
6891.15832	0.00464
6889.22965	0.00465
6887.30097	0.00467
6885.37229	0.00467
6883.44362	0.00465
6881.51494	0.00465
6879.58627	0.00467
6877.65759	0.00469
6875.72892	0.00469
6873.80024	0.00470
6871.87156	0.00472
6869.94289	0.00473
6868.01421	0.00474
6866.08554	0.00475
6864.15686	0.00476
6862.22819	0.00476
6860.29951	0.00477
6858.37083	0.00478
6856.44216	0.00480
6854.51348	0.00482
6852.58481	0.00483
6850.65613	0.00483
6848.72746	0.00484
6846.79878	0.00486
6844.87010	0.00487
6842.94143	0.00488
6841.01275	0.00489
6839.08408	0.00492
6837.15540	0.00493
6835.22673	0.00494
6833.29805	0.00494
6831.36937	0.00495
6829.44070	0.00496
6827.51202	0.00496
6825.58335	0.00496
6823.65467	0.00496
6821.72600	0.00496
6819.79732	0.00497
6817.86864	0.00500
6815.93997	0.00503
6814.01129	0.00504
6812.08262	0.00505
6810.15394	0.00505
6808.22527	0.00505
6806.29659	0.00505
6804.36791	0.00507
6802.43924	0.00509
6800.51056	0.00510
6798.58189	0.00511
6796.65321	0.00512
6794.72454	0.00514
6792.79586	0.00516
6790.86718	0.00517
6788.93851	0.00518
6787.00983	0.00518
6785.08116	0.00518
6783.15248	0.00518
6781.22381	0.00520
6779.29513	0.00522
6777.36645	0.00524
6775.43778	0.00526
6773.50910	0.00527
6771.58043	0.00528
6769.65175	0.00528
6767.72308	0.00528
6765.79440	0.00528
6763.86572	0.00529
6761.93705	0.00530
6760.00837	0.00532
6758.07970	0.00533
6756.15102	0.00536
6754.22235	0.00538
6752.29367	0.00538
6750.36499	0.00538
6748.43632	0.00540
6746.50764	0.00542
6744.57897	0.00544
6742.65029	0.00544
6740.72162	0.00544
6738.79294	0.00545
6736.86426	0.00548
6734.93559	0.00550
6733.00691	0.00550
6731.07824	0.00552
6729.14956	0.00555
6727.22089	0.00556
6725.29221	0.00556
6723.36353	0.00556
6721.43486	0.00556
6719.50618	0.00556
6717.57751	0.00556
6715.64883	0.00557
6713.72016	0.00559
6711.79148	0.00560
6709.86280	0.00561
6707.93413	0.00563
6706.00545	0.00564
6704.07678	0.00564
6702.14810	0.00566
6700.21943	0.00567
6698.29075	0.00569
6696.36207	0.00571
6694.43340	0.00572
6692.50472	0.00572
6690.57605	0.00572
6688.64737	0.00573
6686.71870	0.00575
6684.79002	0.00577
6682.86134	0.00579
6680.93267	0.00579
6679.00399	0.00580
6677.07532	0.00582
6675.14664	0.00585
6673.21797	0.00586
6671.28929	0.00586
6669.36061	0.00586
6667.43194	0.00588
6665.50326	0.00590
6663.57459	0.00592
6661.64591	0.00594
6659.71724	0.00594
6657.78856	0.00595
6655.85988	0.00595
6653.93121	0.00598
6652.00253	0.00600
6650.07386	0.00602
6648.14518	0.00604
6646.21651	0.00603
6644.28783	0.00603
6642.35915	0.00604
6640.43048	0.00606
6638.50180	0.00609
6636.57313	0.00613
6634.64445	0.00614
6632.71578	0.00613
6630.78710	0.00613
6628.85842	0.00613
6626.92975	0.00613
6625.00107	0.00614
6623.07240	0.00615
6621.14372	0.00616
6619.21505	0.00618
6617.28637	0.00620
6615.35769	0.00622
6613.42902	0.00622
6611.50034	0.00624
6609.57167	0.00625
6607.64299	0.00626
6605.71432	0.00628
6603.78564	0.00630
6601.85696	0.00632
6599.92829	0.00633
6597.99961	0.00634
6596.07094	0.00635
6594.14226	0.00635
6592.21359	0.00637
6590.28491	0.00638
6588.35623	0.00639
6586.42756	0.00641
6584.49888	0.00643
6582.57021	0.00646
6580.64153	0.00647
6578.71286	0.00649
6576.78418	0.00650
6574.85550	0.00651
6572.92683	0.00651
6570.99815	0.00652
6569.06948	0.00655
6567.14080	0.00656
6565.21213	0.00656
6563.28345	0.00656
6561.35477	0.00658
6559.42610	0.00660
6557.49742	0.00662
6555.56875	0.00664
6553.64007	0.00664
6551.71140	0.00665
6549.78272	0.00667
6547.85404	0.00669
6545.92537	0.00671
6543.99669	0.00673
6542.06802	0.00675
6540.13934	0.00675
6538.21067	0.00676
6536.28199	0.00678
6534.35331	0.00679
6532.42464	0.00679
6530.49596	0.00681
6528.56729	0.00684
6526.63861	0.00687
6524.70994	0.00687
6522.78126	0.00688
6520.85258	0.00688
6518.92391	0.00689
6516.99523	0.00692
6515.06656	0.00694
6513.13788	0.00694
6511.20921	0.00695
6509.28053	0.00696
6507.35185	0.00698
6505.42318	0.00701
6503.49450	0.00702
6501.56583	0.00703
6499.63715	0.00704
6497.70848	0.00706
6495.77980	0.00708
6493.85112	0.00712
6491.92245	0.00714
6489.99377	0.00715
6488.06510	0.00716
6486.13642	0.00717
6484.20775	0.00717
6482.27907	0.00717
6480.35039	0.00717
6478.42172	0.00719
6476.49304	0.00722
6474.56437	0.00724
6472.63569	0.00725
6470.70702	0.00726
6468.77834	0.00729
6466.84966	0.00731
6464.92099	0.00732
6462.99231	0.00733
6461.06364	0.00734
6459.13496	0.00735
6457.20629	0.00736
6455.27761	0.00737
6453.34893	0.00738
6451.42026	0.00740
6449.49158	0.00742
6447.56291	0.00744
6445.63423	0.00746
6443.70556	0.00750
6441.77688	0.00753
6439.84820	0.00755
6437.91953	0.00756
6435.99085	0.00755
6434.06218	0.00755
6432.13350	0.00758
6430.20483	0.00760
6428.27615	0.00761
6426.34747	0.00761
6424.41880	0.00761
6422.49012	0.00761
6420.56145	0.00761
6418.63277	0.00763
6416.70410	0.00767
6414.77542	0.00771
6412.84674	0.00774
6410.91807	0.00775
6408.98939	0.00777
6407.06072	0.00778
6405.13204	0.00780
6403.20337	0.00781
6401.27469	0.00782
6399.34601	0.00783
6397.41734	0.00786
6395.48866	0.00789
6393.55999	0.00789
6391.63131	0.00789
6389.70264	0.00792
6387.77396	0.00797
6385.84528	0.00798
6383.91661	0.00796
6381.98793	0.00796
6380.05926	0.00799
6378.13058	0.00802
6376.20191	0.00803
6374.27323	0.00804
6372.34455	0.00806
6370.41588	0.00807
6368.48720	0.00808
6366.55853	0.00809
6364.62985	0.00812
6362.70118	0.00815
6360.77250	0.00818
6358.84382	0.00819
6356.91515	0.00820
6354.98647	0.00820
6353.05780	0.00822
6351.12912	0.00825
6349.20045	0.00828
6347.27177	0.00829
6345.34309	0.00830
6343.41442	0.00831
6341.48574	0.00833
6339.55707	0.00836
6337.62839	0.00839
6335.69972	0.00841
6333.77104	0.00842
6331.84236	0.00843
6329.91369	0.00844
6327.98501	0.00845
6326.05634	0.00847
6324.12766	0.00848
6322.19899	0.00850
6320.27031	0.00853
6318.34163	0.00856
6316.41296	0.00858
6314.48428	0.00860
6312.55561	0.00861
6310.62693	0.00863
6308.69826	0.00865
6306.76958	0.00868
6304.84090	0.00870
6302.91223	0.00871
6300.98355	0.00871
6299.05488	0.00873
6297.12620	0.00875
6295.19753	0.00877
6293.26885	0.00880
6291.34017	0.00883
6289.41150	0.00885
6287.48282	0.00886
6285.55415	0.00887
6283.62547	0.00887
6281.69680	0.00890
6279.76812	0.00893
6277.83944	0.00896
6275.91077	0.00897
6273.98209	0.00898
6272.05342	0.00900
6270.12474	0.00903
6268.19607	0.00906
6266.26739	0.00908
6264.33871	0.00909
6262.41004	0.00911
6260.48136	0.00914
6258.55269	0.00916
6256.62401	0.00917
6254.69534	0.00917
6252.76666	0.00919
6250.83798	0.00921
6248.90931	0.00924
6246.98063	0.00928
6245.05196	0.00932
6243.12328	0.00934
6241.19461	0.00933
6239.26593	0.00933
6237.33725	0.00933
6235.40858	0.00933
6233.47990	0.00935
6231.55123	0.00937
6229.62255	0.00941
6227.69388	0.00944
6225.76520	0.00947
6223.83652	0.00951
6221.90785	0.00953
6219.97917	0.00954
6218.05050	0.00955
6216.12182	0.00955
6214.19315	0.00956
6212.26447	0.00959
6210.33579	0.00962
6208.40712	0.00964
6206.47844	0.00965
6204.54977	0.00966
6202.62109	0.00969
6200.69242	0.00971
6198.76374	0.00974
6196.83506	0.00976
6194.90639	0.00977
6192.97771	0.00979
6191.04904	0.00981
6189.12036	0.00984
6187.19169	0.00987
6185.26301	0.00989
6183.33433	0.00991
6181.40566	0.00991
6179.47698	0.00992
6177.54831	0.00993
6175.61963	0.00996
6173.69096	0.00998
6171.76228	0.01001
6169.83360	0.01004
6167.90493	0.01007
6165.97625	0.01009
6164.04758	0.01011
6162.11890	0.01012
6160.19023	0.01016
6158.26155	0.01019
6156.33287	0.01021
6154.40420	0.01023
6152.47552	0.01026
6150.54685	0.01029
6148.61817	0.01030
6146.68950	0.01031
6144.76082	0.01033
6142.83214	0.01034
6140.90347	0.01035
6138.97479	0.01037
6137.04612	0.01040
6135.11744	0.01044
6133.18877	0.01047
6131.26009	0.01049
6129.33141	0.01051
6127.40274	0.01052
6125.47406	0.01053
6123.54539	0.01055
6121.61671	0.01057
6119.68804	0.01059
6117.75936	0.01062
6115.83068	0.01063
6113.90201	0.01064
6111.97333	0.01067
6110.04466	0.01071
6108.11598	0.01076
6106.18731	0.01079
6104.25863	0.01080
6102.32995	0.01082
6100.40128	0.01084
6098.47260	0.01086
6096.54393	0.01087
6094.61525	0.01088
6092.68658	0.01089
6090.75790	0.01089
6088.82922	0.01090
6086.90055	0.01095
6084.97187	0.01099
6083.04320	0.01102
6081.11452	0.01105
6079.18585	0.01108
6077.25717	0.01111
6075.32849	0.01112
6073.39982	0.01113
6071.47114	0.01114
6069.54247	0.01115
6067.61379	0.01118
6065.68512	0.01121
6063.75644	0.01125
6061.82776	0.01128
6059.89909	0.01131
6057.97041	0.01131
6056.04174	0.01134
6054.11306	0.01138
6052.18439	0.01141
6050.25571	0.01143
6048.32703	0.01144
6046.39836	0.01146
6044.46968	0.01147
6042.54101	0.01150
6040.61233	0.01153
6038.68366	0.01157
6036.75498	0.01160
6034.82630	0.01162
6032.89763	0.01164
6030.96895	0.01168
6029.04028	0.01170
6027.11160	0.01173
6025.18293	0.01175
6023.25425	0.01178
6021.32557	0.01180
6019.39690	0.01183
6017.46822	0.01185
6015.53955	0.01187
6013.61087	0.01188
6011.68220	0.01190
6009.75352	0.01193
6007.82484	0.01195
6005.89617	0.01197
6003.96749	0.01200
6002.03882	0.01203
6000.11014	0.01205
5998.18147	0.01207
5996.25279	0.01210
5994.32411	0.01212
5992.39544	0.01214
5990.46676	0.01217
5988.53809	0.01221
5986.60941	0.01223
5984.68074	0.01226
5982.75206	0.01229
5980.82338	0.01232
5978.89471	0.01233
5976.96603	0.01234
5975.03736	0.01236
5973.10868	0.01239
5971.18001	0.01241
5969.25133	0.01243
5967.32265	0.01245
5965.39398	0.01248
5963.46530	0.01253
5961.53663	0.01257
5959.60795	0.01260
5957.67928	0.01263
5955.75060	0.01265
5953.82192	0.01268
5951.89325	0.01270
5949.96457	0.01270
5948.03590	0.01272
5946.10722	0.01275
5944.17855	0.01277
5942.24987	0.01280
5940.32119	0.01285
5938.39252	0.01290
5936.46384	0.01292
5934.53517	0.01294
5932.60649	0.01297
5930.67782	0.01301
5928.74914	0.01304
5926.82046	0.01306
5924.89179	0.01308
5922.96311	0.01309
5921.03444	0.01311
5919.10576	0.01313
5917.17709	0.01316
5915.24841	0.01319
5913.31973	0.01322
5911.39106	0.01325
5909.46238	0.01328
5907.53371	0.01331
5905.60503	0.01334
5903.67636	0.01335
5901.74768	0.01338
5899.81900	0.01339
5897.89033	0.01340
5895.96165	0.01341
5894.03298	0.01343
5892.10430	0.01348
5890.17563	0.01354
5888.24695	0.01360
5886.31827	0.01364
5884.38960	0.01368
5882.46092	0.01369
5880.53225	0.01370
5878.60357	0.01372
5876.67490	0.01375
5874.74622	0.01379
5872.81755	0.01382
5870.88887	0.01385
5868.96019	0.01388
5867.03152	0.01390
5865.10284	0.01393
5863.17417	0.01396
5861.24549	0.01398
5859.31682	0.01399
5857.38814	0.01401
5855.45946	0.01404
5853.53079	0.01407
5851.60211	0.01410
5849.67344	0.01413
5847.74476	0.01416
5845.81609	0.01420
5843.88741	0.01422
5841.95873	0.01425
5840.03006	0.01428
5838.10138	0.01431
5836.17271	0.01435
5834.24403	0.01439
5832.31536	0.01442
5830.38668	0.01443
5828.45800	0.01444
5826.52933	0.01449
5824.60065	0.01453
5822.67198	0.01457
5820.74330	0.01460
5818.81463	0.01464
5816.88595	0.01466
5814.95727	0.01467
5813.02860	0.01470
5811.09992	0.01472
5809.17125	0.01474
5807.24257	0.01477
5805.31390	0.01480
5803.38522	0.01485
5801.45654	0.01489
5799.52787	0.01493
5797.59919	0.01496
5795.67052	0.01498
5793.74184	0.01500
5791.81317	0.01503
5789.88449	0.01507
5787.95581	0.01511
5786.02714	0.01514
5784.09846	0.01517
5782.16979	0.01518
5780.24111	0.01522
5778.31244	0.01526
5776.38376	0.01528
5774.45508	0.01530
5772.52641	0.01534
5770.59773	0.01538
5768.66906	0.01541
5766.74038	0.01543
5764.81171	0.01546
5762.88303	0.01550
5760.95435	0.01554
5759.02568	0.01558
5757.09700	0.01559
5755.16833	0.01560
5753.23965	0.01561
5751.31098	0.01563
5749.38230	0.01568
5747.45362	0.01573
5745.52495	0.01575
5743.59627	0.01577
5741.66760	0.01580
5739.73892	0.01584
5737.81025	0.01589
5735.88157	0.01593
5733.95289	0.01598
5732.02422	0.01603
5730.09554	0.01607
5728.16687	0.01609
5726.23819	0.01610
5724.30952	0.01612
5722.38084	0.01615
5720.45216	0.01620
5718.52349	0.01623
5716.59481	0.01627
5714.66614	0.01630
5712.73746	0.01633
5710.80879	0.01636
5708.88011	0.01639
5706.95143	0.01641
5705.02276	0.01643
5703.09408	0.01647
5701.16541	0.01650
5699.23673	0.01654
5697.30806	0.01658
5695.37938	0.01661
5693.45070	0.01664
5691.52203	0.01668
5689.59335	0.01673
5687.66468	0.01676
5685.73600	0.01678
5683.80733	0.01680
5681.87865	0.01684
5679.94997	0.01687
5678.02130	0.01690
5676.09262	0.01693
5674.16395	0.01696
5672.23527	0.01700
5670.30660	0.01703
5668.37792	0.01706
5666.44924	0.01711
5664.52057	0.01717
5662.59189	0.01722
5660.66322	0.01724
5658.73454	0.01726
5656.80587	0.01727
5654.87719	0.01729
5652.94851	0.01732
5651.01984	0.01736
5649.09116	0.01738
5647.16249	0.01741
5645.23381	0.01745
5643.30514	0.01749
5641.37646	0.01754
5639.44778	0.01759
5637.51911	0.01763
5635.59043	0.01766
5633.66176	0.01770
5631.73308	0.01776
5629.80441	0.01780
5627.87573	0.01782
5625.94705	0.01783
5624.01838	0.01787
5622.08970	0.01793
5620.16103	0.01797
5618.23235	0.01799
5616.30368	0.01801
5614.37500	0.01805
5612.44632	0.01808
5610.51765	0.01812
5608.58897	0.01816
5606.66030	0.01821
5604.73162	0.01824
5602.80295	0.01827
5600.87427	0.01829
5598.94559	0.01833
5597.01692	0.01838
5595.08824	0.01841
5593.15957	0.01843
5591.23089	0.01846
5589.30222	0.01850
5587.37354	0.01855
5585.44486	0.01859
5583.51619	0.01862
5581.58751	0.01864
5579.65884	0.01868
5577.73016	0.01872
5575.80149	0.01876
5573.87281	0.01881
5571.94413	0.01886
5570.01546	0.01890
5568.08678	0.01892
5566.15811	0.01894
5564.22943	0.01896
5562.30076	0.01899
5560.37208	0.01903
5558.44340	0.01907
5556.51473	0.01910
5554.58605	0.01913
5552.65738	0.01918
5550.72870	0.01924
5548.80003	0.01928
5546.87135	0.01930
5544.94267	0.01933
5543.01400	0.01937
5541.08532	0.01943
5539.15665	0.01946
5537.22797	0.01949
5535.29930	0.01952
5533.37062	0.01955
5531.44194	0.01960
5529.51327	0.01964
5527.58459	0.01969
5525.65592	0.01972
5523.72724	0.01975
5521.79857	0.01980
5519.86989	0.01987
5517.94121	0.01991
5516.01254	0.01992
5514.08386	0.01994
5512.15519	0.01997
5510.22651	0.02000
5508.29784	0.02004
5506.36916	0.02008
5504.44048	0.02012
5502.51181	0.02014
5500.58313	0.02016
5498.65446	0.02020
5496.72578	0.02026
5494.79711	0.02032
5492.86843	0.02036
5490.93975	0.02038
5489.01108	0.02041
5487.08240	0.02045
5485.15373	0.02049
5483.22505	0.02053
5481.29638	0.02057
5479.36770	0.02061
5477.43902	0.02065
5475.51035	0.02070
5473.58167	0.02077
5471.65300	0.02081
5469.72432	0.02082
5467.79565	0.02084
5465.86697	0.02087
5463.93829	0.02091
5462.00962	0.02096
5460.08094	0.02102
5458.15227	0.02105
5456.22359	0.02108
5454.29492	0.02112
5452.36624	0.02115
5450.43756	0.02118
5448.50889	0.02122
5446.58021	0.02128
5444.65154	0.02132
5442.72286	0.02137
5440.79419	0.02140
5438.86551	0.02142
5436.93683	0.02145
5435.00816	0.02148
5433.07948	0.02152
5431.15081	0.02158
5429.22213	0.02163
5427.29346	0.02170
5425.36478	0.02176
5423.43610	0.02180
5421.50743	0.02183
5419.57875	0.02186
5417.65008	0.02188
5415.72140	0.02191
5413.79273	0.02196
5411.86405	0.02201
5409.93537	0.02205
5408.00670	0.02209
5406.07802	0.02212
5404.14935	0.02215
5402.22067	0.02220
5400.29200	0.02224
5398.36332	0.02228
5396.43464	0.02231
5394.50597	0.02236
5392.57729	0.02242
5390.64862	0.02249
5388.71994	0.02254
5386.79127	0.02256
5384.86259	0.02259
5382.93391	0.02264
5381.00524	0.02267
5379.07656	0.02269
5377.14789	0.02272
5375.21921	0.02277
5373.29054	0.02283
5371.36186	0.02288
5369.43318	0.02291
5367.50451	0.02295
5365.57583	0.02298
5363.64716	0.02302
5361.71848	0.02308
5359.78981	0.02313
5357.86113	0.02317
5355.93245	0.02319
5354.00378	0.02324
5352.07510	0.02330
5350.14643	0.02335
5348.21775	0.02338
5346.28908	0.02341
5344.36040	0.02345
5342.43172	0.02352
5340.50305	0.02356
5338.57437	0.02357
5336.64570	0.02360
5334.71702	0.02366
5332.78835	0.02374
5330.85967	0.02380
5328.93099	0.02384
5327.00232	0.02388
5325.07364	0.02391
5323.14497	0.02394
5321.21629	0.02397
5319.28762	0.02403
5317.35894	0.02409
5315.43026	0.02413
5313.50159	0.02418
5311.57291	0.02423
5309.64424	0.02426
5307.71556	0.02429
5305.78689	0.02434
5303.85821	0.02439
5301.92953	0.02443
5300.00086	0.02446
5298.07218	0.02449
5296.14351	0.02455
5294.21483	0.02461
5292.28616	0.02465
5290.35748	0.02468
5288.42880	0.02472
5286.50013	0.02476
5284.57145	0.02479
5282.64278	0.02483
5280.71410	0.02489
5278.78543	0.02494
5276.85675	0.02498
5274.92807	0.02502
5272.99940	0.02506
5271.07072	0.02512
5269.14205	0.02518
5267.21337	0.02521
5265.28470	0.02521
5263.35602	0.02524
5261.42734	0.02530
5259.49867	0.02537
5257.56999	0.02542
5255.64132	0.02545
5253.71264	0.02548
5251.78397	0.02552
5249.85529	0.02557
5247.92661	0.02563
5245.99794	0.02569
5244.06926	0.02574
5242.14059	0.02579
5240.21191	0.02584
5238.28324	0.02590
5236.35456	0.02594
5234.42588	0.02596
5232.49721	0.02599
5230.56853	0.02603
5228.63986	0.02607
5226.71118	0.02611
5224.78251	0.02617
5222.85383	0.02621
5220.92515	0.02624
5218.99648	0.02631
5217.06780	0.02637
5215.13913	0.02642
5213.21045	0.02647
5211.28178	0.02652
5209.35310	0.02654
5207.42442	0.02655
5205.49575	0.02658
5203.56707	0.02665
5201.63840	0.02672
5199.70972	0.02677
5197.78105	0.02680
5195.85237	0.02684
5193.92369	0.02690
5191.99502	0.02695
5190.06634	0.02701
5188.13767	0.02706
5186.20899	0.02711
5184.28032	0.02716
5182.35164	0.02720
5180.42296	0.02725
5178.49429	0.02730
5176.56561	0.02735
5174.63694	0.02739
5172.70826	0.02743
5170.77959	0.02748
5168.85091	0.02752
5166.92223	0.02757
5164.99356	0.02761
5163.06488	0.02765
5161.13621	0.02769
5159.20753	0.02774
5157.27886	0.02780
5155.35018	0.02785
5153.42150	0.02790
5151.49283	0.02794
5149.56415	0.02797
5147.63548	0.02802
5145.70680	0.02809
5143.77813	0.02815
5141.84945	0.02817
5139.92077	0.02820
5137.99210	0.02825
5136.06342	0.02831
5134.13475	0.02836
5132.20607	0.02843
5130.27740	0.02850
5128.34872	0.02855
5126.42004	0.02859
5124.49137	0.02863
5122.56269	0.02868
5120.63402	0.02871
5118.70534	0.02875
5116.77667	0.02879
5114.84799	0.02884
5112.91931	0.02888
5110.99064	0.02894
5109.06196	0.02899
5107.13329	0.02903
5105.20461	0.02906
5103.27594	0.02910
5101.34726	0.02916
5099.41858	0.02923
5097.48991	0.02928
5095.56123	0.02932
5093.63256	0.02936
5091.70388	0.02943
5089.77521	0.02950
5087.84653	0.02956
5085.91785	0.02959
5083.98918	0.02962
5082.06050	0.02966
5080.13183	0.02971
5078.20315	0.02975
5076.27448	0.02980
5074.34580	0.02986
5072.41712	0.02990
5070.48845	0.02994
5068.55977	0.02998
5066.63110	0.03004
5064.70242	0.03009
5062.77375	0.03014
5060.84507	0.03021
5058.91639	0.03027
5056.98772	0.03032
5055.05904	0.03037
5053.13037	0.03043
5051.20169	0.03048
5049.27302	0.03053
5047.34434	0.03057
5045.41566	0.03061
5043.48699	0.03065
5041.55831	0.03069
5039.62964	0.03075
5037.70096	0.03081
5035.77229	0.03087
5033.84361	0.03092
5031.91493	0.03096
5029.98626	0.03100
5028.05758	0.03105
5026.12891	0.03110
5024.20023	0.03116
5022.27156	0.03121
5020.34288	0.03125
5018.41420	0.03128
5016.48553	0.03132
5014.55685	0.03137
5012.62818	0.03145
5010.69950	0.03152
5008.77083	0.03156
5006.84215	0.03160
5004.91347	0.03166
5002.98480	0.03173
5001.05612	0.03181
4999.12745	0.03187
4997.19877	0.03190
4995.27010	0.03193
4993.34142	0.03197
4991.41274	0.03204
4989.48407	0.03211
4987.55539	0.03217
4985.62672	0.03221
4983.69804	0.03223
4981.76937	0.03227
4979.84069	0.03234
4977.91201	0.03242
4975.98334	0.03247
4974.05466	0.03251
4972.12599	0.03256
4970.19731	0.03260
4968.26864	0.03265
4966.33996	0.03270
4964.41128	0.03275
4962.48261	0.03280
4960.55393	0.03287
4958.62526	0.03294
4956.69658	0.03299
4954.76791	0.03303
4952.83923	0.03307
4950.91055	0.03311
4948.98188	0.03318
4947.05320	0.03325
4945.12453	0.03330
4943.19585	0.03335
4941.26718	0.03341
4939.33850	0.03347
4937.40982	0.03353
4935.48115	0.03359
4933.55247	0.03365
4931.62380	0.03368
4929.69512	0.03372
4927.76645	0.03377
4925.83777	0.03383
4923.90909	0.03389
4921.98042	0.03394
4920.05174	0.03398
4918.12307	0.03403
4916.19439	0.03409
4914.26572	0.03416
4912.33704	0.03421
4910.40836	0.03425
4908.47969	0.03429
4906.55101	0.03436
4904.62234	0.03443
4902.69366	0.03447
4900.76499	0.03451
4898.83631	0.03456
4896.90763	0.03463
4894.97896	0.03469
4893.05028	0.03474
4891.12161	0.03479
4889.19293	0.03485
4887.26426	0.03492
4885.33558	0.03498
4883.40690	0.03504
4881.47823	0.03509
4879.54955	0.03513
4877.62088	0.03517
4875.69220	0.03522
4873.76353	0.03528
4871.83485	0.03534
4869.90617	0.03538
4867.97750	0.03543
4866.04882	0.03549
4864.12015	0.03556
4862.19147	0.03562
4860.26280	0.03569
4858.33412	0.03574
4856.40544	0.03578
4854.47677	0.03582
4852.54809	0.03587
4850.61942	0.03593
4848.69074	0.03599
4846.76207	0.03606
4844.83339	0.03613
4842.90471	0.03619
4840.97604	0.03625
4839.04736	0.03630
4837.11869	0.03635
4835.19001	0.03640
4833.26134	0.03646
4831.33266	0.03651
4829.40398	0.03656
4827.47531	0.03661
4825.54663	0.03667
4823.61796	0.03673
4821.68928	0.03680
4819.76061	0.03687
4817.83193	0.03693
4815.90325	0.03697
4813.97458	0.03702
4812.04590	0.03709
4810.11723	0.03715
4808.18855	0.03720
4806.25988	0.03727
4804.33120	0.03735
4802.40252	0.03743
4800.47385	0.03750
4798.54517	0.03757
4796.61650	0.03763
4794.68782	0.03769
4792.75915	0.03773
4790.83047	0.03776
4788.90179	0.03781
4786.97312	0.03787
4785.04444	0.03795
4783.11577	0.03803
4781.18709	0.03810
4779.25842	0.03813
4777.32974	0.03817
4775.40106	0.03822
4773.47239	0.03829
4771.54371	0.03835
4769.61504	0.03843
4767.68636	0.03850
4765.75769	0.03855
4763.82901	0.03861
4761.90033	0.03868
4759.97166	0.03875
4758.04298	0.03881
4756.11431	0.03887
4754.18563	0.03894
4752.25696	0.03900
4750.32828	0.03906
4748.39960	0.03910
4746.47093	0.03914
4744.54225	0.03921
4742.61358	0.03930
4740.68490	0.03938
4738.75623	0.03941
4736.82755	0.03944
4734.89887	0.03950
4732.97020	0.03959
4731.04152	0.03966
4729.11285	0.03973
4727.18417	0.03980
4725.25550	0.03986
4723.32682	0.03990
4721.39814	0.03997
4719.46947	0.04005
4717.54079	0.04010
4715.61212	0.04013
4713.68344	0.04020
4711.75477	0.04029
4709.82609	0.04037
4707.89741	0.04042
4705.96874	0.04047
4704.04006	0.04054
4702.11139	0.04061
4700.18271	0.04066
4698.25404	0.04070
4696.32536	0.04077
4694.39668	0.04084
4692.46801	0.04092
4690.53933	0.04099
4688.61066	0.04108
4686.68198	0.04115
4684.75331	0.04121
4682.82463	0.04126
4680.89595	0.04132
4678.96728	0.04139
4677.03860	0.04147
4675.10993	0.04154
4673.18125	0.04160
4671.25258	0.04166
4669.32390	0.04173
4667.39522	0.04180
4665.46655	0.04187
4663.53787	0.04193
4661.60920	0.04201
4659.68052	0.04208
4657.75185	0.04216
4655.82317	0.04224
4653.89449	0.04230
4651.96582	0.04234
4650.03714	0.04238
4648.10847	0.04245
4646.17979	0.04254
4644.25112	0.04262
4642.32244	0.04268
4640.39376	0.04275
4638.46509	0.04283
4636.53641	0.04290
4634.60774	0.04295
4632.67906	0.04299
4630.75039	0.04305
4628.82171	0.04312
4626.89303	0.04320
4624.96436	0.04327
4623.03568	0.04335
4621.10701	0.04343
4619.17833	0.04348
4617.24966	0.04355
4615.32098	0.04363
4613.39230	0.04372
4611.46363	0.04379
4609.53495	0.04386
4607.60628	0.04394
4605.67760	0.04402
4603.74893	0.04408
4601.82025	0.04414
4599.89157	0.04421
4597.96290	0.04428
4596.03422	0.04434
4594.10555	0.04442
4592.17687	0.04450
4590.24820	0.04457
4588.31952	0.04464
4586.39084	0.04471
4584.46217	0.04478
4582.53349	0.04484
4580.60482	0.04492
4578.67614	0.04501
4576.74747	0.04509
4574.81879	0.04515
4572.89011	0.04521
4570.96144	0.04529
4569.03276	0.04538
4567.10409	0.04546
4565.17541	0.04552
4563.24674	0.04558
4561.31806	0.04566
4559.38938	0.04574
4557.46071	0.04583
4555.53203	0.04592
4553.60336	0.04600
4551.67468	0.04607
4549.74601	0.04615
4547.81733	0.04624
4545.88865	0.04632
4543.95998	0.04637
4542.03130	0.04642
4540.10263	0.04648
4538.17395	0.04658
4536.24528	0.04667
4534.31660	0.04673
4532.38792	0.04681
4530.45925	0.04689
4528.53057	0.04697
4526.60190	0.04703
4524.67322	0.04709
4522.74455	0.04718
4520.81587	0.04728
4518.88719	0.04736
4516.95852	0.04742
4515.02984	0.04749
4513.10117	0.04759
4511.17249	0.04769
4509.24382	0.04777
4507.31514	0.04787
4505.38646	0.04796
4503.45779	0.04804
4501.52911	0.04811
4499.60044	0.04818
4497.67176	0.04826
4495.74309	0.04835
4493.81441	0.04844
4491.88573	0.04852
4489.95706	0.04857
4488.02838	0.04863
4486.09971	0.04872
4484.17103	0.04881
4482.24236	0.04888
4480.31368	0.04896
4478.38500	0.04906
4476.45633	0.04917
4474.52765	0.04926
4472.59898	0.04933
4470.67030	0.04937
4468.74163	0.04945
4466.81295	0.04953
4464.88427	0.04962
4462.95560	0.04970
4461.02692	0.04980
4459.09825	0.04991
4457.16957	0.05001
4455.24090	0.05010
4453.31222	0.05018
4451.38354	0.05026
4449.45487	0.05033
4447.52619	0.05039
4445.59752	0.05048
4443.66884	0.05057
4441.74017	0.05065
4439.81149	0.05072
4437.88281	0.05082
4435.95414	0.05092
4434.02546	0.05101
4432.09679	0.05111
4430.16811	0.05120
4428.23944	0.05127
4426.31076	0.05134
4424.38208	0.05142
4422.45341	0.05151
4420.52473	0.05161
4418.59606	0.05170
4416.66738	0.05181
4414.73871	0.05190
4412.81003	0.05198
4410.88135	0.05207
4408.95268	0.05215
4407.02400	0.05223
4405.09533	0.05232
4403.16665	0.05244
4401.23798	0.05255
4399.30930	0.05265
4397.38062	0.05272
4395.45195	0.05278
4393.52327	0.05287
4391.59460	0.05296
4389.66592	0.05305
4387.73725	0.05312
4385.80857	0.05320
4383.87989	0.05328
4381.95122	0.05339
4380.02254	0.05351
4378.09387	0.05360
4376.16519	0.05368
4374.23652	0.05377
4372.30784	0.05388
4370.37916	0.05399
4368.45049	0.05411
4366.52181	0.05421
4364.59314	0.05430
4362.66446	0.05438
4360.73579	0.05447
4358.80711	0.05457
4356.87843	0.05466
4354.94976	0.05475
4353.02108	0.05483
4351.09241	0.05492
4349.16373	0.05501
4347.23506	0.05511
4345.30638	0.05522
4343.37770	0.05532
4341.44903	0.05542
4339.52035	0.05552
4337.59168	0.05562
4335.66300	0.05574
4333.73433	0.05586
4331.80565	0.05597
4329.87697	0.05606
4327.94830	0.05615
4326.01962	0.05622
4324.09095	0.05627
4322.16227	0.05635
4320.23360	0.05649
4318.30492	0.05663
4316.37624	0.05673
4314.44757	0.05681
4312.51889	0.05692
4310.59022	0.05701
4308.66154	0.05711
4306.73287	0.05724
4304.80419	0.05737
4302.87551	0.05747
4300.94684	0.05755
4299.01816	0.05766
4297.08949	0.05778
4295.16081	0.05788
4293.23214	0.05797
4291.30346	0.05807
4289.37478	0.05818
4287.44611	0.05829
4285.51743	0.05840
4283.58876	0.05847
4281.66008	0.05856
4279.73141	0.05867
4277.80273	0.05880
4275.87405	0.05893
4273.94538	0.05905
4272.01670	0.05915
4270.08803	0.05923
4268.15935	0.05933
4266.23068	0.05945
4264.30200	0.05958
4262.37332	0.05967
4260.44465	0.05976
4258.51597	0.05986
4256.58730	0.05995
4254.65862	0.06004
4252.72995	0.06014
4250.80127	0.06025
4248.87259	0.06037
4246.94392	0.06049
4245.01524	0.06061
4243.08657	0.06073
4241.15789	0.06085
4239.22922	0.06098
4237.30054	0.06108
4235.37186	0.06116
4233.44319	0.06126
4231.51451	0.06137
4229.58584	0.06146
4227.65716	0.06156
4225.72849	0.06167
4223.79981	0.06180
4221.87113	0.06192
4219.94246	0.06204
4218.01378	0.06215
4216.08511	0.06226
4214.15643	0.06237
4212.22776	0.06250
4210.29908	0.06260
4208.37040	0.06269
4206.44173	0.06279
4204.51305	0.06293
4202.58438	0.06308
4200.65570	0.06321
4198.72703	0.06333
4196.79835	0.06345
4194.86968	0.06355
4192.94100	0.06365
4191.01232	0.06376
4189.08365	0.06390
4187.15497	0.06402
4185.22630	0.06414
4183.29762	0.06426
4181.36895	0.06439
4179.44027	0.06449
4177.51159	0.06458
4175.58292	0.06467
4173.65424	0.06477
4171.72557	0.06489
4169.79689	0.06503
4167.86822	0.06518
4165.93954	0.06530
4164.01086	0.06539
4162.08219	0.06550
4160.15351	0.06563
4158.22484	0.06576
4156.29616	0.06590
4154.36749	0.06605
4152.43881	0.06619
4150.51013	0.06631
4148.58146	0.06642
4146.65278	0.06655
4144.72411	0.06668
4142.79543	0.06679
4140.86676	0.06690
4138.93808	0.06700
4137.00940	0.06711
4135.08073	0.06723
4133.15205	0.06738
4131.22338	0.06753
4129.29470	0.06766
4127.36603	0.06777
4125.43735	0.06788
4123.50867	0.06801
4121.58000	0.06815
4119.65132	0.06828
4117.72265	0.06843
4115.79397	0.06859
4113.86530	0.06873
4111.93662	0.06884
4110.00794	0.06894
4108.07927	0.06905
4106.15059	0.06918
4104.22192	0.06931
4102.29324	0.06944
4100.36457	0.06958
4098.43589	0.06971
4096.50721	0.06982
4094.57854	0.06992
4092.64986	0.07004
4090.72119	0.07015
4088.79251	0.07027
4086.86384	0.07043
4084.93516	0.07060
4083.00648	0.07075
4081.07781	0.07089
4079.14913	0.07103
4077.22046	0.07116
4075.29178	0.07128
4073.36311	0.07139
4071.43443	0.07151
4069.50575	0.07164
4067.57708	0.07178
4065.64840	0.07194
4063.71973	0.07210
4061.79105	0.07226
4059.86238	0.07238
4057.93370	0.07250
4056.00502	0.07263
4054.07635	0.07277
4052.14767	0.07288
4050.21900	0.07299
4048.29032	0.07312
4046.36165	0.07326
4044.43297	0.07339
4042.50429	0.07352
4040.57562	0.07366
4038.64694	0.07379
4036.71827	0.07393
4034.78959	0.07407
4032.86092	0.07421
4030.93224	0.07435
4029.00356	0.07450
4027.07489	0.07463
4025.14621	0.07474
4023.21754	0.07487
4021.28886	0.07503
4019.36019	0.07516
4017.43151	0.07530
4015.50283	0.07545
4013.57416	0.07563
4011.64548	0.07580
4009.71681	0.07594
4007.78813	0.07606
4005.85946	0.07620
4003.93078	0.07636
4002.00210	0.07651
4000.07343	0.07666
3998.14475	0.07680
3996.21608	0.07691
3994.28740	0.07702
3992.35873	0.07716
3990.43005	0.07733
3988.50137	0.07750
3986.57270	0.07767
3984.64402	0.07781
3982.71535	0.07795
3980.78667	0.07809
3978.85800	0.07823
3976.92932	0.07835
3975.00064	0.07848
3973.07197	0.07863
3971.14329	0.07877
3969.21462	0.07891
3967.28594	0.07905
3965.35727	0.07919
3963.42859	0.07935
3961.49991	0.07951
3959.57124	0.07967
3957.64256	0.07983
3955.71389	0.07998
3953.78521	0.08010
3951.85654	0.08020
3949.92786	0.08030
3947.99918	0.08044
3946.07051	0.08061
3944.14183	0.08076
3942.21316	0.08093
3940.28448	0.08114
3938.35581	0.08135
3936.42713	0.08148
3934.49845	0.08155
3932.56978	0.08165
3930.64110	0.08182
3928.71243	0.08199
3926.78375	0.08212
3924.85508	0.08227
3922.92640	0.08244
3920.99772	0.08257
3919.06905	0.08263
3917.14037	0.08276
3915.21170	0.08299
3913.28302	0.08323
3911.35435	0.08342
3909.42567	0.08356
3907.49699	0.08357
3905.56832	0.08347
3903.63964	0.08345
3901.71097	0.08360
3899.78229	0.08387
3897.85362	0.08424
3895.92494	0.08456
3893.99626	0.08468
3892.06759	0.08474
3890.13891	0.08489
3888.21024	0.08501
3886.28156	0.08505
3884.35289	0.08522
3882.42421	0.08541
3880.49553	0.08557
3878.56686	0.08586
3876.63818	0.08611
3874.70951	0.08619
3872.78083	0.08622
3870.85216	0.08625
3868.92348	0.08643
3866.99480	0.08668
3865.06613	0.08685
3863.13745	0.08704
3861.20878	0.08732
3859.28010	0.08754
3857.35143	0.08743
3855.42275	0.08706
3853.49407	0.08701
3851.56540	0.08757
3849.63672	0.08824
3847.70805	0.08860
3845.77937	0.08870
3843.85070	0.08869
3841.92202	0.08872
3839.99334	0.08880
3838.06467	0.08897
3836.13599	0.08924
3834.20732	0.08951
3832.27864	0.08973
3830.34997	0.08994
3828.42129	0.09016
3826.49261	0.09033
3824.56394	0.09042
3822.63526	0.09039
3820.70659	0.09048
3818.77791	0.09071
3816.84924	0.09092
3814.92056	0.09121
3812.99188	0.09161
3811.06321	0.09184
3809.13453	0.09186
3807.20586	0.09189
3805.27718	0.09204
3803.34851	0.09209
3801.41983	0.09215
3799.49115	0.09240
3797.56248	0.09269
3795.63380	0.09296
3793.70513	0.09328
3791.77645	0.09356
3789.84778	0.09375
3787.91910	0.09390
3785.99042	0.09400
3784.06175	0.09414
3782.13307	0.09428
3780.20440	0.09442
3778.27572	0.09466
3776.34705	0.09497
3774.41837	0.09515
3772.48969	0.09516
3770.56102	0.09516
3768.63234	0.09530
3766.70367	0.09552
3764.77499	0.09577
3762.84632	0.09597
3760.91764	0.09605
3758.98896	0.09613
3757.06029	0.09631
3755.13161	0.09639
3753.20294	0.09624
3751.27426	0.09613
3749.34559	0.09630
3747.41691	0.09645
3745.48823	0.09643
3743.55956	0.09672
3741.63088	0.09734
3739.70221	0.09765
3737.77353	0.09755
3735.84486	0.09751
3733.91618	0.09781
3731.98750	0.09831
3730.05883	0.09876
3728.13015	0.09899
3726.20148	0.09907
3724.27280	0.09919
3722.34413	0.09940
3720.41545	0.09966
3718.48677	0.09993
3716.55810	0.10012
3714.62942	0.10016
3712.70075	0.10012
3710.77207	0.10025
3708.84340	0.10061
3706.91472	0.10100
3704.98604	0.10121
3703.05737	0.10126
3701.12869	0.10142
3699.20002	0.10170
3697.27134	0.10194
3695.34267	0.10209
3693.41399	0.10211
3691.48531	0.10202
3689.55664	0.10205
3687.62796	0.10239
3685.69929	0.10289
3683.77061	0.10321
3681.84194	0.10333
3679.91326	0.10331
3677.98458	0.10317
3676.05591	0.10308
3674.12723	0.10331
3672.19856	0.10361
3670.26988	0.10381
3668.34121	0.10416
3666.41253	0.10464
3664.48385	0.10497
3662.55518	0.10515
3660.62650	0.10525
3658.69783	0.10525
3656.76915	0.10524
3654.84048	0.10533
3652.91180	0.10527
3650.98312	0.10496
3649.05445	0.10478
3647.12577	0.10507
3645.19710	0.10568
3643.26842	0.10621
3641.33975	0.10653
3639.41107	0.10674
3637.48239	0.10689
3635.55372	0.10701
3633.62504	0.10707
3631.69637	0.10695
3629.76769	0.10681
3627.83902	0.10706
3625.91034	0.10760
3623.98166	0.10794
3622.05299	0.10797
3620.12431	0.10791
3618.19564	0.10799
3616.26696	0.10816
3614.33829	0.10824
3612.40961	0.10831
3610.48093	0.10841
3608.55226	0.10857
3606.62358	0.10886
3604.69491	0.10915
3602.76623	0.10931
3600.83756	0.10940
3598.90888	0.10952
3596.98020	0.10966
3595.05153	0.10979
3593.12285	0.10993
3591.19418	0.10998
3589.26550	0.10992
3587.33683	0.11002
3585.40815	0.11037
3583.47947	0.11070
3581.55080	0.11088
3579.62212	0.11102
3577.69345	0.11119
3575.76477	0.11138
3573.83610	0.11156
3571.90742	0.11166
3569.97874	0.11162
3568.05007	0.11153
3566.12139	0.11166
3564.19272	0.11199
3562.26404	0.11230
3560.33537	0.11248
3558.40669	0.11262
3556.47801	0.11273
3554.54934	0.11284
3552.62066	0.11297
3550.69199	0.11312
3548.76331	0.11322
3546.83464	0.11328
3544.90596	0.11342
3542.97728	0.11364
3541.04861	0.11382
3539.11993	0.11393
3537.19126	0.11404
3535.26258	0.11418
3533.33391	0.11432
3531.40523	0.11439
3529.47655	0.11439
3527.54788	0.11440
3525.61920	0.11447
3523.69053	0.11458
3521.76185	0.11471
3519.83318	0.11484
3517.90450	0.11494
3515.97582	0.11502
3514.04715	0.11506
3512.11847	0.11510
3510.18980	0.11515
3508.26112	0.11522
3506.33245	0.11526
3504.40377	0.11530
3502.47509	0.11537
3500.54642	0.11546
3498.61774	0.11552
3496.68907	0.11553
3494.76039	0.11554
3492.83172	0.11560
3490.90304	0.11568
3488.97436	0.11574
3487.04569	0.11581
3485.11701	0.11586
3483.18834	0.11591
3481.25966	0.11600
3479.33099	0.11615
3477.40231	0.11628
3475.47363	0.11638
3473.54496	0.11650
3471.61628	0.11665
3469.68761	0.11682
3467.75893	0.11700
3465.83026	0.11717
3463.90158	0.11737
3461.97290	0.11758
3460.04423	0.11780
3458.11555	0.11800
3456.18688	0.11820
3454.25820	0.11840
3452.32953	0.11858
3450.40085	0.11873
3448.47217	0.11886
3446.54350	0.11900
3444.61482	0.11921
3442.68615	0.11945
3440.75747	0.11970
3438.82880	0.11996
3436.90012	0.12024
3434.97144	0.12056
3433.04277	0.12093
3431.11409	0.12134
3429.18542	0.12174
3427.25674	0.12212
3425.32807	0.12250
3423.39939	0.12286
3421.47071	0.12320
3419.54204	0.12354
3417.61336	0.12387
3415.68469	0.12418
3413.75601	0.12450
3411.82734	0.12479
3409.89866	0.12504
3407.96998	0.12528
3406.04131	0.12551
3404.11263	0.12572
3402.18396	0.12595
3400.25528	0.12622
3398.32661	0.12652
3396.39793	0.12680
3394.46925	0.12706
3392.54058	0.12733
3390.61190	0.12762
3388.68323	0.12790
3386.75455	0.12817
3384.82588	0.12843
3382.89720	0.12866
3380.96852	0.12889
3379.03985	0.12913
3377.11117	0.12936
3375.18250	0.12961
3373.25382	0.12986
3371.32515	0.13010
3369.39647	0.13032
3367.46779	0.13053
3365.53912	0.13075
3363.61044	0.13097
3361.68177	0.13120
3359.75309	0.13147
3357.82442	0.13175
3355.89574	0.13198
3353.96706	0.13220
3352.03839	0.13244
3350.10971	0.13267
3348.18104	0.13289
3346.25236	0.13309
3344.32369	0.13330
3342.39501	0.13352
3340.46633	0.13378
3338.53766	0.13405
3336.60898	0.13429
3334.68031	0.13453
3332.75163	0.13477
3330.82296	0.13502
3328.89428	0.13526
3326.96560	0.13548
3325.03693	0.13569
3323.10825	0.13593
3321.17958	0.13616
3319.25090	0.13638
3317.32223	0.13663
3315.39355	0.13689
3313.46487	0.13715
3311.53620	0.13740
3309.60752	0.13764
3307.67885	0.13789
3305.75017	0.13817
3303.82150	0.13844
3301.89282	0.13867
3299.96414	0.13889
3298.03547	0.13912
3296.10679	0.13938
3294.17812	0.13967
3292.24944	0.13994
3290.32077	0.14017
3288.39209	0.14039
3286.46341	0.14062
3284.53474	0.14088
3282.60606	0.14116
3280.67739	0.14143
3278.74871	0.14170
3276.82004	0.14195
3274.89136	0.14220
3272.96268	0.14246
3271.03401	0.14271
3269.10533	0.14292
3267.17666	0.14315
3265.24798	0.14341
3263.31931	0.14368
3261.39063	0.14392
3259.46195	0.14418
3257.53328	0.14446
3255.60460	0.14475
3253.67593	0.14503
3251.74725	0.14529
3249.81858	0.14553
3247.88990	0.14577
3245.96122	0.14602
3244.03255	0.14628
3242.10387	0.14654
3240.17520	0.14678
3238.24652	0.14702
3236.31785	0.14729
3234.38917	0.14759
3232.46049	0.14788
3230.53182	0.14812
3228.60314	0.14835
3226.67447	0.14860
3224.74579	0.14887
3222.81712	0.14915
3220.88844	0.14942
3218.95976	0.14965
3217.03109	0.14985
3215.10241	0.15007
3213.17374	0.15031
3211.24506	0.15057
3209.31639	0.15083
3207.38771	0.15112
3205.45903	0.15143
3203.53036	0.15173
3201.60168	0.15199
3199.67301	0.15225
3197.74433	0.15253
3195.81566	0.15279
3193.88698	0.15305
3191.95830	0.15332
3190.02963	0.15361
3188.10095	0.15389
3186.17228	0.15418
3184.24360	0.15449
3182.31493	0.15478
3180.38625	0.15505
3178.45757	0.15531
3176.52890	0.15557
3174.60022	0.15584
3172.67155	0.15610
3170.74287	0.15638
3168.81420	0.15666
3166.88552	0.15693
3164.95684	0.15719
3163.02817	0.15743
3161.09949	0.15769
3159.17082	0.15798
3157.24214	0.15829
3155.31347	0.15857
3153.38479	0.15881
3151.45611	0.15904
3149.52744	0.15928
3147.59876	0.15954
3145.67009	0.15982
3143.74141	0.16013
3141.81274	0.16043
3139.88406	0.16071
3137.95538	0.16099
3136.02671	0.16126
3134.09803	0.16151
3132.16936	0.16176
3130.24068	0.16203
3128.31201	0.16228
3126.38333	0.16250
3124.45465	0.16275
3122.52598	0.16301
3120.59730	0.16328
3118.66863	0.16359
3116.73995	0.16388
3114.81128	0.16414
3112.88260	0.16439
3110.95392	0.16466
3109.02525	0.16492
3107.09657	0.16517
3105.16790	0.16543
3103.23922	0.16572
3101.31055	0.16601
3099.38187	0.16628
3097.45319	0.16654
3095.52452	0.16680
3093.59584	0.16707
3091.66717	0.16733
3089.73849	0.16758
3087.80982	0.16784
3085.88114	0.16814
3083.95246	0.16842
3082.02379	0.16867
3080.09511	0.16890
3078.16644	0.16916
3076.23776	0.16944
3074.30909	0.16972
3072.38041	0.16999
3070.45173	0.17023
3068.52306	0.17048
3066.59438	0.17074
3064.66571	0.17102
3062.73703	0.17131
3060.80836	0.17159
3058.87968	0.17185
3056.95100	0.17211
3055.02233	0.17236
3053.09365	0.17262
3051.16498	0.17289
3049.23630	0.17315
3047.30763	0.17340
3045.37895	0.17367
3043.45027	0.17395
3041.52160	0.17422
3039.59292	0.17449
3037.66425	0.17474
3035.73557	0.17498
3033.80690	0.17524
3031.87822	0.17552
3029.94954	0.17580
3028.02087	0.17608
3026.09219	0.17636
3024.16352	0.17664
3022.23484	0.17690
3020.30617	0.17714
3018.37749	0.17736
3016.44881	0.17760
3014.52014	0.17789
3012.59146	0.17819
3010.66279	0.17847
3008.73411	0.17873
3006.80544	0.17899
3004.87676	0.17925
3002.94808	0.17950
3001.01941	0.17974
2999.09073	0.18000
2997.16206	0.18026
2995.23338	0.18054
2993.30471	0.18082
2991.37603	0.18107
2989.44735	0.18127
2987.51868	0.18144
2985.59000	0.18163
2983.66133	0.18181
2981.73265	0.18192
2979.80398	0.18200
2977.87530	0.18209
2975.94662	0.18221
2974.01795	0.18228
2972.08927	0.18228
2970.16060	0.18223
2968.23192	0.18217
2966.30325	0.18217
2964.37457	0.18228
2962.44589	0.18246
2960.51722	0.18269
2958.58854	0.18298
2956.65987	0.18333
2954.73119	0.18371
2952.80252	0.18409
2950.87384	0.18443
2948.94516	0.18472
2947.01649	0.18495
2945.08781	0.18511
2943.15914	0.18524
2941.23046	0.18531
2939.30179	0.18533
2937.37311	0.18532
2935.44443	0.18530
2933.51576	0.18525
2931.58708	0.18517
2929.65841	0.18510
2927.72973	0.18505
2925.80106	0.18503
2923.87238	0.18503
2921.94370	0.18507
2920.01503	0.18521
2918.08635	0.18555
2916.15768	0.18616
2914.22900	0.18701
2912.30033	0.18795
2910.37165	0.18877
2908.44297	0.18944
2906.51430	0.18999
2904.58562	0.19045
2902.65695	0.19087
2900.72827	0.19128
2898.79960	0.19168
2896.87092	0.19206
2894.94224	0.19245
2893.01357	0.19282
2891.08489	0.19320
2889.15622	0.19359
2887.22754	0.19394
2885.29887	0.19424
2883.37019	0.19450
2881.44151	0.19476
2879.51284	0.19503
2877.58416	0.19530
2875.65549	0.19554
2873.72681	0.19576
2871.79814	0.19601
2869.86946	0.19631
2867.94078	0.19661
2866.01211	0.19686
2864.08343	0.19704
2862.15476	0.19715
2860.22608	0.19719
2858.29741	0.19721
2856.36873	0.19722
2854.44005	0.19717
2852.51138	0.19708
2850.58270	0.19721
2848.65403	0.19777
2846.72535	0.19869
2844.79668	0.19965
2842.86800	0.20043
2840.93932	0.20104
2839.01065	0.20158
2837.08197	0.20205
2835.15330	0.20245
2833.22462	0.20279
2831.29595	0.20313
2829.36727	0.20351
2827.43859	0.20388
2825.50992	0.20419
2823.58124	0.20447
2821.65257	0.20478
2819.72389	0.20510
2817.79522	0.20543
2815.86654	0.20576
2813.93786	0.20608
2812.00919	0.20638
2810.08051	0.20667
2808.15184	0.20695
2806.22316	0.20726
2804.29449	0.20758
2802.36581	0.20790
2800.43713	0.20817
2798.50846	0.20843
2796.57978	0.20872
2794.65111	0.20904
2792.72243	0.20933
2790.79376	0.20960
2788.86508	0.20989
2786.93640	0.21018
2785.00773	0.21046
2783.07905	0.21073
2781.15038	0.21100
2779.22170	0.21128
2777.29303	0.21157
2775.36435	0.21185
2773.43567	0.21214
2771.50700	0.21244
2769.57832	0.21275
2767.64965	0.21307
2765.72097	0.21336
2763.79230	0.21362
2761.86362	0.21390
2759.93494	0.21420
2758.00627	0.21449
2756.07759	0.21476
2754.14892	0.21503
2752.22024	0.21529
2750.29157	0.21556
2748.36289	0.21582
2746.43421	0.21609
2744.50554	0.21638
2742.57686	0.21670
2740.64819	0.21702
2738.71951	0.21731
2736.79084	0.21758
2734.86216	0.21785
2732.93348	0.21814
2731.00481	0.21843
2729.07613	0.21870
2727.14746	0.21897
2725.21878	0.21924
2723.29011	0.21953
2721.36143	0.21982
2719.43275	0.22009
2717.50408	0.22034
2715.57540	0.22060
2713.64673	0.22086
2711.71805	0.22114
2709.78938	0.22142
2707.86070	0.22170
2705.93202	0.22196
2704.00335	0.22221
2702.07467	0.22249
2700.14600	0.22280
2698.21732	0.22313
2696.28865	0.22341
2694.35997	0.22364
2692.43129	0.22388
2690.50262	0.22415
2688.57394	0.22442
2686.64527	0.22468
2684.71659	0.22494
2682.78792	0.22523
2680.85924	0.22552
2678.93056	0.22578
2677.00189	0.22603
2675.07321	0.22631
2673.14454	0.22660
2671.21586	0.22689
2669.28719	0.22716
2667.35851	0.22742
2665.42983	0.22770
2663.50116	0.22799
2661.57248	0.22827
2659.64381	0.22855
2657.71513	0.22887
2655.78646	0.22919
2653.85778	0.22949
2651.92910	0.22980
2650.00043	0.23010
2648.07175	0.23037
2646.14308	0.23065
2644.21440	0.23092
2642.28573	0.23122
2640.35705	0.23154
2638.42837	0.23185
2636.49970	0.23215
2634.57102	0.23245
2632.64235	0.23275
2630.71367	0.23303
2628.78500	0.23332
2626.85632	0.23360
2624.92764	0.23387
2622.99897	0.23416
2621.07029	0.23448
2619.14162	0.23483
2617.21294	0.23516
2615.28427	0.23546
2613.35559	0.23575
2611.42691	0.23601
2609.49824	0.23631
2607.56956	0.23666
2605.64089	0.23696
2603.71221	0.23723
2601.78354	0.23753
2599.85486	0.23785
2597.92618	0.23814
2595.99751	0.23840
2594.06883	0.23866
2592.14016	0.23894
2590.21148	0.23924
2588.28281	0.23955
2586.35413	0.23987
2584.42545	0.24018
2582.49678	0.24048
2580.56810	0.24077
2578.63943	0.24106
2576.71075	0.24132
2574.78208	0.24159
2572.85340	0.24188
2570.92472	0.24215
2568.99605	0.24241
2567.06737	0.24269
2565.13870	0.24300
2563.21002	0.24332
2561.28135	0.24365
2559.35267	0.24396
2557.42399	0.24425
2555.49532	0.24449
2553.56664	0.24471
2551.63797	0.24497
2549.70929	0.24529
2547.78062	0.24562
2545.85194	0.24592
2543.92326	0.24618
2541.99459	0.24646
2540.06591	0.24675
2538.13724	0.24704
2536.20856	0.24731
2534.27989	0.24759
2532.35121	0.24791
2530.42253	0.24822
2528.49386	0.24849
2526.56518	0.24877
2524.63651	0.24906
2522.70783	0.24934
2520.77916	0.24961
2518.85048	0.24993
2516.92181	0.25027
2514.99313	0.25061
2513.06445	0.25093
2511.13578	0.25122
2509.20710	0.25153
2507.27843	0.25189
2505.34975	0.25223
2503.42108	0.25254
2501.49240	0.25282
2499.56372	0.25313
2497.63505	0.25346
2495.70637	0.25380
2493.77770	0.25412
2491.84902	0.25443
2489.92035	0.25473
2487.99167	0.25503
2486.06299	0.25533
2484.13432	0.25562
2482.20564	0.25595
2480.27697	0.25630
2478.34829	0.25664
2476.41962	0.25697
2474.49094	0.25728
2472.56226	0.25759
2470.63359	0.25791
2468.70491	0.25820
2466.77624	0.25850
2464.84756	0.25881
2462.91889	0.25915
2460.99021	0.25948
2459.06153	0.25976
2457.13286	0.26004
2455.20418	0.26036
2453.27551	0.26068
2451.34683	0.26097
2449.41816	0.26127
2447.48948	0.26158
2445.56080	0.26189
2443.63213	0.26219
2441.70345	0.26247
2439.77478	0.26276
2437.84610	0.26306
2435.91743	0.26340
2433.98875	0.26375
2432.06007	0.26404
2430.13140	0.26431
2428.20272	0.26461
2426.27405	0.26496
2424.34537	0.26527
2422.41670	0.26555
2420.48802	0.26586
2418.55934	0.26620
2416.63067	0.26657
2414.70199	0.26693
2412.77332	0.26723
2410.84464	0.26749
2408.91597	0.26776
2406.98729	0.26806
2405.05861	0.26837
2403.12994	0.26869
2401.20126	0.26900
2399.27259	0.26931
2397.34391	0.26959
2395.41524	0.26984
2393.48656	0.27012
2391.55788	0.27044
2389.62921	0.27074
2387.70053	0.27101
2385.77186	0.27127
2383.84318	0.27152
2381.91451	0.27171
2379.98583	0.27189
2378.05715	0.27205
2376.12848	0.27216
2374.19980	0.27222
2372.27113	0.27228
2370.34245	0.27236
2368.41378	0.27248
2366.48510	0.27259
2364.55642	0.27274
2362.62775	0.27299
2360.69907	0.27334
2358.77040	0.27374
2356.84172	0.27417
2354.91305	0.27468
2352.98437	0.27529
2351.05569	0.27593
2349.12702	0.27637
2347.19834	0.27650
2345.26967	0.27651
2343.34099	0.27660
2341.41232	0.27679
2339.48364	0.27705
2337.55496	0.27735
2335.62629	0.27768
2333.69761	0.27803
2331.76894	0.27837
2329.84026	0.27872
2327.91159	0.27909
2325.98291	0.27947
2324.05423	0.27987
2322.12556	0.28030
2320.19688	0.28074
2318.26821	0.28117
2316.33953	0.28158
2314.41086	0.28199
2312.48218	0.28239
2310.55350	0.28277
2308.62483	0.28314
2306.69615	0.28350
2304.76748	0.28384
2302.83880	0.28417
2300.91013	0.28453
2298.98145	0.28488
2297.05277	0.28521
2295.12410	0.28552
2293.19542	0.28581
2291.26675	0.28611
2289.33807	0.28643
2287.40940	0.28677
2285.48072	0.28710
2283.55204	0.28740
2281.62337	0.28770
2279.69469	0.28799
2277.76602	0.28826
2275.83734	0.28855
2273.90867	0.28889
2271.97999	0.28922
2270.05131	0.28952
2268.12264	0.28982
2266.19396	0.29012
2264.26529	0.29045
2262.33661	0.29078
2260.40794	0.29111
2258.47926	0.29140
2256.55058	0.29166
2254.62191	0.29195
2252.69323	0.29226
2250.76456	0.29257
2248.83588	0.29286
2246.90721	0.29314
2244.97853	0.29343
2243.04985	0.29372
2241.12118	0.29403
2239.19250	0.29435
2237.26383	0.29471
2235.33515	0.29507
2233.40648	0.29537
2231.47780	0.29562
2229.54912	0.29590
2227.62045	0.29621
2225.69177	0.29655
2223.76310	0.29689
2221.83442	0.29723
2219.90575	0.29755
2217.97707	0.29784
2216.04839	0.29809
2214.11972	0.29834
2212.19104	0.29862
2210.26237	0.29893
2208.33369	0.29923
2206.40502	0.29951
2204.47634	0.29979
2202.54766	0.30006
2200.61899	0.30036
2198.69031	0.30066
2196.76164	0.30097
2194.83296	0.30125
2192.90429	0.30150
2190.97561	0.30179
2189.04693	0.30211
2187.11826	0.30242
2185.18958	0.30269
2183.26091	0.30296
2181.33223	0.30330
2179.40356	0.30366
2177.47488	0.30401
2175.54620	0.30434
2173.61753	0.30465
2171.68885	0.30495
2169.76018	0.30526
2167.83150	0.30556
2165.90283	0.30585
2163.97415	0.30617
2162.04547	0.30651
2160.11680	0.30682
2158.18812	0.30711
2156.25945	0.30740
2154.33077	0.30771
2152.40210	0.30805
2150.47342	0.30840
2148.54474	0.30871
2146.61607	0.30899
2144.68739	0.30927
2142.75872	0.30957
2140.83004	0.30991
2138.90137	0.31024
2136.97269	0.31055
2135.04401	0.31085
2133.11534	0.31116
2131.18666	0.31148
2129.25799	0.31181
2127.32931	0.31213
2125.40064	0.31245
2123.47196	0.31276
2121.54328	0.31305
2119.61461	0.31335
2117.68593	0.31368
2115.75726	0.31403
2113.82858	0.31433
2111.89991	0.31458
2109.97123	0.31485
2108.04255	0.31516
2106.11388	0.31549
2104.18520	0.31580
2102.25653	0.31611
2100.32785	0.31644
2098.39918	0.31677
2096.47050	0.31708
2094.54182	0.31737
2092.61315	0.31765
2090.68447	0.31793
2088.75580	0.31828
2086.82712	0.31863
2084.89845	0.31893
2082.96977	0.31918
2081.04109	0.31945
2079.11242	0.31977
2077.18374	0.32012
2075.25507	0.32045
2073.32639	0.32074
2071.39772	0.32101
2069.46904	0.32130
2067.54036	0.32160
2065.61169	0.32191
2063.68301	0.32223
2061.75434	0.32256
2059.82566	0.32287
2057.89699	0.32317
2055.96831	0.32350
2054.03963	0.32385
2052.11096	0.32419
2050.18228	0.32450
2048.25361	0.32479
2046.32493	0.32507
2044.39626	0.32535
2042.46758	0.32565
2040.53890	0.32599
2038.61023	0.32635
2036.68155	0.32667
2034.75288	0.32698
2032.82420	0.32732
2030.89553	0.32768
2028.96685	0.32801
2027.03817	0.32831
2025.10950	0.32862
2023.18082	0.32892
2021.25215	0.32919
2019.32347	0.32945
2017.39480	0.32976
2015.46612	0.33012
2013.53744	0.33046
2011.60877	0.33076
2009.68009	0.33109
2007.75142	0.33146
2005.82274	0.33179
2003.89407	0.33208
2001.96539	0.33235
2000.03671	0.33262
1998.10804	0.33290
1996.17936	0.33321
1994.25069	0.33343
1992.32201	0.33360
1990.39334	0.33390
1988.46466	0.33426
1986.53598	0.33455
1984.60731	0.33481
1982.67863	0.33512
1980.74996	0.33545
1978.82128	0.33575
1976.89261	0.33601
1974.96393	0.33627
1973.03525	0.33656
1971.10658	0.33686
1969.17790	0.33707
1967.24923	0.33723
1965.32055	0.33748
1963.39188	0.33781
1961.46320	0.33814
1959.53452	0.33846
1957.60585	0.33875
1955.67717	0.33902
1953.74850	0.33932
1951.81982	0.33970
1949.89115	0.34008
1947.96247	0.34036
1946.03379	0.34051
1944.10512	0.34060
1942.17644	0.34084
1940.24777	0.34129
1938.31909	0.34175
1936.39042	0.34210
1934.46174	0.34242
1932.53306	0.34273
1930.60439	0.34303
1928.67571	0.34334
1926.74704	0.34362
1924.81836	0.34381
1922.88969	0.34403
1920.96101	0.34427
1919.03233	0.34443
1917.10366	0.34478
1915.17498	0.34532
1913.24631	0.34571
1911.31763	0.34594
1909.38896	0.34622
1907.46028	0.34658
1905.53160	0.34691
1903.60293	0.34719
1901.67425	0.34749
1899.74558	0.34780
1897.81690	0.34805
1895.88823	0.34827
1893.95955	0.34855
1892.03087	0.34879
1890.10220	0.34898
1888.17352	0.34933
1886.24485	0.34979
1884.31617	0.35016
1882.38750	0.35048
1880.45882	0.35083
1878.53014	0.35116
1876.60147	0.35141
1874.67279	0.35164
1872.74412	0.35175
1870.81544	0.35165
1868.88677	0.35165
1866.95809	0.35215
1865.02941	0.35288
1863.10074	0.35343
1861.17206	0.35379
1859.24339	0.35411
1857.31471	0.35447
1855.38604	0.35486
1853.45736	0.35518
1851.52868	0.35542
1849.60001	0.35557
1847.67133	0.35554
1845.74266	0.35536
1843.81398	0.35556
1841.88531	0.35639
1839.95663	0.35719
1838.02795	0.35758
1836.09928	0.35788
1834.17060	0.35814
1832.24193	0.35814
1830.31325	0.35806
1828.38458	0.35828
1826.45590	0.35867
1824.52722	0.35915
1822.59855	0.35981
1820.66987	0.36037
1818.74120	0.36064
1816.81252	0.36083
1814.88385	0.36104
1812.95517	0.36116
1811.02649	0.36128
1809.09782	0.36161
1807.16914	0.36202
1805.24047	0.36223
1803.31179	0.36221
1801.38312	0.36223
1799.45444	0.36255
1797.52576	0.36298
1795.59709	0.36314
1793.66841	0.36303
1791.73974	0.36316
1789.81106	0.36378
1787.88239	0.36433
1785.95371	0.36450
1784.02503	0.36464
1782.09636	0.36486
1780.16768	0.36513
1778.23901	0.36543
1776.31033	0.36549
1774.38166	0.36521
1772.45298	0.36504
1770.52430	0.36533
1768.59563	0.36594
1766.66695	0.36664
1764.73828	0.36704
1762.80960	0.36698
1760.88093	0.36704
1758.95225	0.36728
1757.02357	0.36743
1755.09490	0.36747
1753.16622	0.36710
1751.23755	0.36653
1749.30887	0.36652
1747.38020	0.36699
1745.45152	0.36736
1743.52284	0.36750
1741.59417	0.36748
1739.66549	0.36754
1737.73682	0.36753
1735.80814	0.36702
1733.87947	0.36676
1731.95079	0.36750
1730.02211	0.36858
1728.09344	0.36943
1726.16476	0.36999
1724.23609	0.37026
1722.30741	0.37035
1720.37874	0.36997
1718.45006	0.36938
1716.52138	0.36946
1714.59271	0.37030
1712.66403	0.37121
1710.73536	0.37173
1708.80668	0.37175
1706.87801	0.37151
1704.94933	0.37131
1703.02065	0.37077
1701.09198	0.36997
1699.16330	0.36996
1697.23463	0.37054
1695.30595	0.37123
1693.37728	0.37213
1691.44860	0.37265
1689.51992	0.37257
1687.59125	0.37211
1685.66257	0.37127
1683.73390	0.37099
1681.80522	0.37178
1679.87655	0.37260
1677.94787	0.37266
1676.01919	0.37235
1674.09052	0.37233
1672.16184	0.37235
1670.23317	0.37223
1668.30449	0.37267
1666.37582	0.37345
1664.44714	0.37366
1662.51846	0.37366
1660.58979	0.37401
1658.66111	0.37427
1656.73244	0.37359
1654.80376	0.37206
1652.87509	0.37150
1650.94641	0.37247
1649.01773	0.37311
1647.08906	0.37310
1645.16038	0.37370
1643.23171	0.37468
1641.30303	0.37511
1639.37436	0.37483
1637.44568	0.37414
1635.51700	0.37399
1633.58833	0.37480
1631.65965	0.37560
1629.73098	0.37564
1627.80230	0.37533
1625.87363	0.37488
1623.94495	0.37416
1622.01627	0.37364
1620.08760	0.37355
1618.15892	0.37383
1616.23025	0.37481
1614.30157	0.37637
1612.37290	0.37763
1610.44422	0.37832
1608.51554	0.37881
1606.58687	0.37931
1604.65819	0.37974
1602.72952	0.38012
1600.80084	0.38054
1598.87217	0.38094
1596.94349	0.38124
1595.01481	0.38150
1593.08614	0.38181
1591.15746	0.38217
1589.22879	0.38256
1587.30011	0.38296
1585.37144	0.38330
1583.44276	0.38356
1581.51408	0.38374
1579.58541	0.38365
1577.65673	0.38331
1575.72806	0.38342
1573.79938	0.38405
1571.87071	0.38433
1569.94203	0.38428
1568.01335	0.38459
1566.08468	0.38512
1564.15600	0.38541
1562.22733	0.38492
1560.29865	0.38372
1558.36998	0.38340
1556.44130	0.38464
1554.51262	0.38607
1552.58395	0.38684
1550.65527	0.38718
1548.72660	0.38741
1546.79792	0.38736
1544.86925	0.38679
1542.94057	0.38607
1541.01189	0.38579
1539.08322	0.38648
1537.15454	0.38766
1535.22587	0.38814
1533.29719	0.38822
1531.36852	0.38869
1529.43984	0.38903
1527.51116	0.38891
1525.58249	0.38868
1523.65381	0.38823
1521.72514	0.38777
1519.79646	0.38800
1517.86779	0.38863
1515.93911	0.38925
1514.01043	0.38987
1512.08176	0.39008
1510.15308	0.38959
1508.22441	0.38888
1506.29573	0.38912
1504.36706	0.39050
1502.43838	0.39156
1500.50970	0.39159
1498.58103	0.39134
1496.65235	0.39156
1494.72368	0.39213
1492.79500	0.39221
1490.86633	0.39169
1488.93765	0.39150
1487.00897	0.39204
1485.08030	0.39273
1483.15162	0.39303
1481.22295	0.39304
1479.29427	0.39283
1477.36560	0.39222
1475.43692	0.39137
1473.50824	0.39075
1471.57957	0.39078
1469.65089	0.39124
1467.72222	0.39132
1465.79354	0.39104
1463.86487	0.39111
1461.93619	0.39127
1460.00751	0.39058
1458.07884	0.38952
1456.15016	0.38967
1454.22149	0.39098
1452.29281	0.39206
1450.36414	0.39236
1448.43546	0.39237
1446.50678	0.39263
1444.57811	0.39308
1442.64943	0.39340
1440.72076	0.39335
1438.79208	0.39268
1436.86341	0.39207
1434.93473	0.39241
1433.00605	0.39301
1431.07738	0.39312
1429.14870	0.39319
1427.22003	0.39336
1425.29135	0.39334
1423.36268	0.39303
1421.43400	0.39231
1419.50532	0.39155
1417.57665	0.39166
1415.64797	0.39239
1413.71930	0.39281
1411.79062	0.39284
1409.86195	0.39282
1407.93327	0.39275
1406.00459	0.39256
1404.07592	0.39246
1402.14724	0.39241
1400.21857	0.39213
1398.28989	0.39180
1396.36122	0.39160
1394.43254	0.39164
1392.50386	0.39196
1390.57519	0.39193
1388.64651	0.39120
1386.71784	0.39046
1384.78916	0.39025
1382.86049	0.39041
1380.93181	0.39063
1379.00313	0.39070
1377.07446	0.39054
1375.14578	0.39031
1373.21711	0.39032
1371.28843	0.39051
1369.35976	0.39056
1367.43108	0.39048
1365.50240	0.39021
1363.57373	0.38979
1361.64505	0.38968
1359.71638	0.38998
1357.78770	0.39023
1355.85903	0.39033
1353.93035	0.39044
1352.00167	0.39056
1350.07300	0.39066
1348.14432	0.39083
1346.21565	0.39106
1344.28697	0.39117
1342.35830	0.39100
1340.42962	0.39070
1338.50094	0.39057
1336.57227	0.39070
1334.64359	0.39088
1332.71492	0.39093
1330.78624	0.39085
1328.85757	0.39074
1326.92889	0.39066
1325.00021	0.39054
1323.07154	0.39032
1321.14286	0.39006
1319.21419	0.38987
1317.28551	0.38977
1315.35684	0.38966
1313.42816	0.38948
1311.49948	0.38928
1309.57081	0.38906
1307.64213	0.38880
1305.71346	0.38849
1303.78478	0.38812
1301.85611	0.38772
1299.92743	0.38733
1297.99875	0.38697
1296.07008	0.38662
1294.14140	0.38628
1292.21273	0.38589
1290.28405	0.38541
1288.35538	0.38484
1286.42670	0.38427
1284.49802	0.38374
1282.56935	0.38319
1280.64067	0.38254
1278.71200	0.38179
1276.78332	0.38097
1274.85465	0.38008
1272.92597	0.37901
1270.99729	0.37763
1269.06862	0.37588
1267.13994	0.37388
1265.21127	0.37204
1263.28259	0.37075
1261.35392	0.37017
1259.42524	0.37018
1257.49656	0.37049
1255.56789	0.37075
1253.63921	0.37076
1251.71054	0.37047
1249.78186	0.36993
1247.85319	0.36922
1245.92451	0.36841
1243.99583	0.36753
1242.06716	0.36662
1240.13848	0.36568
1238.20981	0.36472
1236.28113	0.36373
1234.35246	0.36271
1232.42378	0.36168
1230.49510	0.36064
1228.56643	0.35960
1226.63775	0.35859
1224.70908	0.35760
1222.78040	0.35664
1220.85173	0.35572
1218.92305	0.35481
1216.99437	0.35382
1215.06570	0.35281
1213.13702	0.35185
1211.20835	0.35093
1209.27967	0.34994
1207.35100	0.34890
1205.42232	0.34790
1203.49364	0.34701
1201.56497	0.34616
1199.63629	0.34525
1197.70762	0.34432
1195.77894	0.34343
1193.85027	0.34255
1191.92159	0.34156
1189.99291	0.34042
1188.06424	0.33923
1186.13556	0.33800
1184.20689	0.33665
1182.27821	0.33522
1180.34954	0.33379
1178.42086	0.33238
1176.49218	0.33095
1174.56351	0.32953
1172.63483	0.32814
1170.70616	0.32675
1168.77748	0.32529
1166.84881	0.32379
1164.92013	0.32227
1162.99145	0.32077
1161.06278	0.31932
1159.13410	0.31796
1157.20543	0.31664
1155.27675	0.31536
1153.34808	0.31415
1151.41940	0.31298
1149.49072	0.31179
1147.56205	0.31060
1145.63337	0.30944
1143.70470	0.30830
1141.77602	0.30711
1139.84735	0.30590
1137.91867	0.30469
1135.98999	0.30341
1134.06132	0.30212
1132.13264	0.30083
1130.20397	0.29942
1128.27529	0.29796
1126.34662	0.29652
1124.41794	0.29507
1122.48926	0.29356
1120.56059	0.29202
1118.63191	0.29047
1116.70324	0.28892
1114.77456	0.28735
1112.84589	0.28574
1110.91721	0.28415
1108.98853	0.28263
1107.05986	0.28114
1105.13118	0.27967
1103.20251	0.27818
1101.27383	0.27668
1099.34516	0.27525
1097.41648	0.27395
1095.48780	0.27273
1093.55913	0.27153
1091.63045	0.27034
1089.70178	0.26922
1087.77310	0.26816
1085.84443	0.26711
1083.91575	0.26602
1081.98707	0.26490
1080.05840	0.26381
1078.12972	0.26285
1076.20105	0.26202
1074.27237	0.26130
1072.34370	0.26070
1070.41502	0.26022
1068.48634	0.25994
1066.55767	0.25986
1064.62899	0.25988
1062.70032	0.25989
1060.77164	0.25993
1058.84297	0.26010
1056.91429	0.26040
1054.98561	0.26082
1053.05694	0.26134
1051.12826	0.26191
1049.19959	0.26247
1047.27091	0.26304
1045.34224	0.26367
1043.41356	0.26435
1041.48488	0.26507
1039.55621	0.26587
1037.62753	0.26676
1035.69886	0.26763
1033.77018	0.26842
1031.84151	0.26914
1029.91283	0.26984
1027.98415	0.27053
1026.05548	0.27127
1024.12680	0.27212
1022.19813	0.27310
1020.26945	0.27416
1018.34078	0.27525
1016.41210	0.27642
1014.48342	0.27775
1012.55475	0.27920
1010.62607	0.28065
1008.69740	0.28203
1006.76872	0.28340
1004.84005	0.28477
1002.91137	0.28603
1000.98269	0.28706
999.05402	0.28792
997.12534	0.28874
995.19667	0.28954
993.26799	0.29026
991.33932	0.29085
989.41064	0.29140
987.48196	0.29204
985.55329	0.29268
983.62461	0.29323
981.69594	0.29370
979.76726	0.29402
977.83859	0.29410
975.90991	0.29405
973.98123	0.29406
972.05256	0.29409
970.12388	0.29405
968.19521	0.29397
966.26653	0.29389
964.33786	0.29375
962.40918	0.29352
960.48050	0.29328
958.55183	0.29304
956.62315	0.29271
954.69448	0.29228
952.76580	0.29178
950.83713	0.29123
948.90845	0.29063
946.97977	0.29002
945.05110	0.28941
943.12242	0.28878
941.19375	0.28813
939.26507	0.28752
937.33640	0.28693
935.40772	0.28630
933.47904	0.28561
931.55037	0.28492
929.62169	0.28422
927.69302	0.28350
925.76434	0.28280
923.83567	0.28215
921.90699	0.28153
919.97831	0.28085
918.04964	0.28007
916.12096	0.27923
914.19229	0.27837
912.26361	0.27753
910.33494	0.27669
908.40626	0.27578
906.47758	0.27483
904.54891	0.27397
902.62023	0.27312
900.69156	0.27217
898.76288	0.27122
896.83421	0.27031
894.90553	0.26938
892.97685	0.26847
891.04818	0.26757
889.11950	0.26662
887.19083	0.26564
885.26215	0.26468
883.33348	0.26382
881.40480	0.26306
879.47612	0.26229
877.54745	0.26146
875.61877	0.26060
873.69010	0.25982
871.76142	0.25913
869.83275	0.25844
867.90407	0.25773
865.97539	0.25698
864.04672	0.25615
862.11804	0.25522
860.18937	0.25426
858.26069	0.25334
856.33202	0.25242
854.40334	0.25149
852.47466	0.25054
850.54599	0.24952
848.61731	0.24848
846.68864	0.24752
844.75996	0.24662
842.83129	0.24573
840.90261	0.24486
838.97394	0.24403
837.04526	0.24317
835.11658	0.24223
833.18791	0.24117
831.25923	0.24010
829.33056	0.23907
827.40188	0.23797
825.47321	0.23678
823.54453	0.23562
821.61585	0.23456
819.68718	0.23352
817.75850	0.23246
815.82983	0.23142
813.90115	0.23044
811.97248	0.22950
810.04380	0.22852
808.11512	0.22751
806.18645	0.22656
804.25777	0.22569
802.32910	0.22490
800.40042	0.22420
798.47175	0.22364
796.54307	0.22327
794.61439	0.22298
792.68572	0.22264
790.75704	0.22233
788.82837	0.22210
786.89969	0.22183
784.97102	0.22141
783.04234	0.22091
781.11366	0.22042
779.18499	0.21991
777.25631	0.21938
775.32764	0.21894
773.39896	0.21858
771.47029	0.21814
769.54161	0.21759
767.61293	0.21703
765.68426	0.21642
763.75558	0.21567
761.82691	0.21484
759.89823	0.21401
757.96956	0.21323
756.04088	0.21246
754.11220	0.21156
752.18353	0.21048
750.25485	0.20936
748.32618	0.20833
746.39750	0.20739
744.46883	0.20646
742.54015	0.20556
740.61147	0.20471
738.68280	0.20391
736.75412	0.20318
734.82545	0.20249
732.89677	0.20181
730.96810	0.20110
729.03942	0.20035
727.11074	0.19958
725.18207	0.19884
723.25339	0.19812
721.32472	0.19745
719.39604	0.19677
717.46737	0.19600
715.53869	0.19517
713.61001	0.19435
711.68134	0.19354
709.75266	0.19271
707.82399	0.19185
705.89531	0.19102
703.96664	0.19024
702.03796	0.18947
700.10928	0.18866
698.18061	0.18779
696.25193	0.18690
694.32326	0.18606
692.39458	0.18524
690.46591	0.18440
688.53723	0.18352
686.60855	0.18255
684.67988	0.18155
682.75120	0.18055
680.82253	0.17949
678.89385	0.17834
676.96518	0.17715
675.03650	0.17594
673.10782	0.17468
671.17915	0.17321
669.25047	0.17144
667.32180	0.16978
665.39312	0.16844
663.46445	0.16703
661.53577	0.16534
659.60709	0.16369
657.67842	0.16219
655.74974	0.16073
653.82107	0.15926
651.89239	0.15781
649.96372	0.15635
648.03504	0.15482
646.10636	0.15321
644.17769	0.15153
642.24901	0.14978
640.32034	0.14800
638.39166	0.14616
636.46299	0.14426
634.53431	0.14237
632.60563	0.14051
630.67696	0.13870
628.74828	0.13698
626.81961	0.13532
624.89093	0.13360
622.96226	0.13183
621.03358	0.13010
619.10490	0.12847
617.17623	0.12686
615.24755	0.12506
613.31888	0.12300
611.39020	0.12095
609.46153	0.11916
607.53285	0.11755
605.60417	0.11595
603.67550	0.11431
601.74682	0.11275
599.81815	0.11127
597.88947	0.10982
595.96080	0.10843
594.03212	0.10720
592.10344	0.10613
590.17477	0.10512
588.24609	0.10408
586.31742	0.10298
584.38874	0.10182
582.46007	0.10059
580.53139	0.09942
578.60271	0.09835
576.67404	0.09738
574.74536	0.09644
572.81669	0.09542
570.88801	0.09431
568.95934	0.09331
567.03066	0.09248
565.10198	0.09175
563.17331	0.09102
561.24463	0.09023
559.31596	0.08937
557.38728	0.08860
555.45861	0.08797
553.52993	0.08732
551.60125	0.08654
549.67258	0.08583
547.74390	0.08532
545.81523	0.08496
543.88655	0.08456
541.95788	0.08403
540.02920	0.08350
538.10052	0.08296
536.17185	0.08236
534.24317	0.08178
532.31450	0.08119
530.38582	0.08054
528.45715	0.07987
526.52847	0.07921
524.59979	0.07858
522.67112	0.07787
520.74244	0.07698
518.81377	0.07600
516.88509	0.07512
514.95642	0.07439
513.02774	0.07367
511.09906	0.07277
509.17039	0.07178
507.24171	0.07089
505.31304	0.07009
503.38436	0.06924
501.45569	0.06823
499.52701	0.06707
497.59833	0.06586
495.66966	0.06472
493.74098	0.06361
491.81231	0.06242
489.88363	0.06117
487.95496	0.05995
486.02628	0.05867
484.09760	0.05734
482.16893	0.05608
480.24025	0.05478
478.31158	0.05348
476.38290	0.05227
474.45423	0.05103
472.52555	0.04978
470.59687	0.04873
468.66820	0.04784
466.73952	0.04708
464.81085	0.04649
462.88217	0.04609
460.95350	0.04572
459.02482	0.04527
457.09614	0.04491
455.16747	0.04486
453.23879	0.04499
451.31012	0.04506
449.38144	0.04500
447.45277	0.04482
445.52409	0.04451
443.59541	0.04407
441.66674	0.04346
439.73806	0.04268
437.80939	0.04181
435.88071	0.04090
433.95204	0.03994
432.02336	0.03892
430.09468	0.03787
428.16601	0.03674
426.23733	0.03542
424.30866	0.03394
422.37998	0.03250
420.45131	0.03121
418.52263	0.02997
416.59395	0.02875
414.66528	0.02754
412.73660	0.02625
410.80793	0.02492
408.87925	0.02369
406.95058	0.02253
405.02190	0.02136
403.09322	0.02015
401.16455	0.01894
399.23587	0.01777
397.30720	0.01664
395.37852	0.01557
393.44985	0.01458
391.52117	0.01367
389.59249	0.01278
387.66382	0.01191
385.73514	0.01114
383.80647	0.01045
381.87779	0.00981
379.94912	0.00923
378.02044	0.00860
376.09176	0.00779
374.16309	0.00694
372.23441	0.00621
370.30574	0.00558
368.37706	0.00507
