7496.76250	0.001937
7494.83382	0.001934
7492.90514	0.001891
7490.97647	0.001900
7489.04779	0.001948
7487.11912	0.001944
7485.19044	0.001908
7483.26177	0.001931
7481.33309	0.001970
7479.40441	0.001930
7477.47574	0.001885
7475.54706	0.001928
7473.61839	0.001975
7471.68971	0.001950
7469.76104	0.001934
7467.83236	0.001987
7465.90368	0.002029
7463.97501	0.002002
7462.04633	0.001974
7460.11766	0.002001
7458.18898	0.002022
7456.26031	0.001990
7454.33163	0.001970
7452.40295	0.002008
7450.47428	0.002038
7448.54560	0.002012
7446.61693	0.001986
7444.68825	0.002008
7442.75958	0.002036
7440.83090	0.002020
7438.90222	0.002011
7436.97355	0.002058
7435.04487	0.002078
7433.11620	0.002033
7431.18752	0.002022
7429.25885	0.002078
7427.33017	0.002092
7425.40149	0.002047
7423.47282	0.002053
7421.54414	0.002111
7419.61547	0.002131
7417.68679	0.002103
7415.75812	0.002093
7413.82944	0.002113
7411.90076	0.002112
7409.97209	0.002096
7408.04341	0.002120
7406.11474	0.002165
7404.18606	0.002162
7402.25739	0.002138
7400.32871	0.002162
7398.40003	0.002198
7396.47136	0.002181
7394.54268	0.002144
7392.61401	0.002162
7390.68533	0.002207
7388.75666	0.002198
7386.82798	0.002156
7384.89930	0.002160
7382.97063	0.002194
7381.04195	0.002186
7379.11328	0.002168
7377.18460	0.002209
7375.25593	0.002256
7373.32725	0.002231
7371.39857	0.002206
7369.46990	0.002253
7367.54122	0.002291
7365.61255	0.002253
7363.68387	0.002208
7361.75520	0.002217
7359.82652	0.002226
7357.89784	0.002203
7355.96917	0.002212
7354.04049	0.002268
7352.11182	0.002288
7350.18314	0.002253
7348.25447	0.002247
7346.32579	0.002300
7344.39711	0.002338
7342.46844	0.002309
7340.53976	0.002281
7338.61109	0.002316
7336.68241	0.002340
7334.75374	0.002306
7332.82506	0.002294
7330.89638	0.002342
7328.96771	0.002371
7327.03903	0.002342
7325.11036	0.002333
7323.18168	0.002374
7321.25301	0.002379
7319.32433	0.002332
7317.39565	0.002335
7315.46698	0.002402
7313.53830	0.002433
7311.60963	0.002413
7309.68095	0.002418
7307.75228	0.002451
7305.82360	0.002440
7303.89492	0.002406
7301.96625	0.002427
7300.03757	0.002464
7298.10890	0.002428
7296.18022	0.002373
7294.25155	0.002407
7292.32287	0.002475
7290.39419	0.002457
7288.46552	0.002402
7286.53684	0.002420
7284.60817	0.002462
7282.67949	0.002438
7280.75082	0.002412
7278.82214	0.002465
7276.89346	0.002515
7274.96479	0.002478
7273.03611	0.002438
7271.10744	0.002482
7269.17876	0.002525
7267.25009	0.002499
7265.32141	0.002482
7263.39273	0.002530
7261.46406	0.002575
7259.53538	0.002551
7257.60671	0.002506
7255.67803	0.002497
7253.74936	0.002507
7251.82068	0.002500
7249.89200	0.002506
7247.96333	0.002558
7246.03465	0.002587
7244.10598	0.002551
7242.17730	0.002534
7240.24863	0.002574
7238.31995	0.002586
7236.39127	0.002540
7234.46260	0.002529
7232.53392	0.002584
7230.60525	0.002602
7228.67657	0.002559
7226.74790	0.002565
7224.81922	0.002632
7222.89054	0.002653
7220.96187	0.002620
7219.03319	0.002628
7217.10452	0.002679
7215.17584	0.002688
7213.24717	0.002655
7211.31849	0.002659
7209.38981	0.002695
7207.46114	0.002674
7205.53246	0.002613
7203.60379	0.002626
7201.67511	0.002707
7199.74644	0.002723
7197.81776	0.002676
7195.88908	0.002679
7193.96041	0.002715
7192.03173	0.002691
7190.10306	0.002651
7188.17438	0.002697
7186.24571	0.002760
7184.31703	0.002729
7182.38835	0.002682
7180.45968	0.002723
7178.53100	0.002776
7176.60233	0.002748
7174.67365	0.002708
7172.74498	0.002741
7170.81630	0.002787
7168.88762	0.002767
7166.95895	0.002744
7165.03027	0.002787
7163.10160	0.002834
7161.17292	0.002814
7159.24425	0.002788
7157.31557	0.002820
7155.38689	0.002853
7153.45822	0.002840
7151.52954	0.002836
7149.60087	0.002885
7147.67219	0.002906
7145.74352	0.002846
7143.81484	0.002816
7141.88616	0.002871
7139.95749	0.002900
7138.02881	0.002852
7136.10014	0.002835
7134.17146	0.002890
7132.24279	0.002918
7130.31411	0.002885
7128.38543	0.002883
7126.45676	0.002928
7124.52808	0.002933
7122.59941	0.002898
7120.67073	0.002907
7118.74206	0.002964
7116.81338	0.002980
7114.88470	0.002941
7112.95603	0.002926
7111.02735	0.002956
7109.09868	0.002960
7107.17000	0.002932
7105.24133	0.002947
7103.31265	0.002996
7101.38397	0.003001
7099.45530	0.002966
7097.52662	0.002979
7095.59795	0.003040
7093.66927	0.003058
7091.74060	0.003025
7089.81192	0.003024
7087.88324	0.003056
7085.95457	0.003049
7084.02589	0.003011
7082.09722	0.003018
7080.16854	0.003052
7078.23987	0.003040
7076.31119	0.003011
7074.38251	0.003039
7072.45384	0.003087
7070.52516	0.003081
7068.59649	0.003068
7066.66781	0.003118
7064.73914	0.003163
7062.81046	0.003134
7060.88178	0.003100
7058.95311	0.003134
7057.02443	0.003172
7055.09576	0.003147
7053.16708	0.003120
7051.23841	0.003147
7049.30973	0.003162
7047.38105	0.003116
7045.45238	0.003091
7043.52370	0.003145
7041.59503	0.003188
7039.66635	0.003153
7037.73768	0.003134
7035.80900	0.003190
7033.88032	0.003225
7031.95165	0.003195
7030.02297	0.003189
7028.09430	0.003246
7026.16562	0.003274
7024.23695	0.003237
7022.30827	0.003228
7020.37959	0.003285
7018.45092	0.003304
7016.52224	0.003253
7014.59357	0.003244
7012.66489	0.003306
7010.73622	0.003325
7008.80754	0.003274
7006.87886	0.003264
7004.95019	0.003324
7003.02151	0.003348
7001.09284	0.003294
6999.16416	0.003265
6997.23549	0.003306
6995.30681	0.003319
6993.37813	0.003293
6991.44946	0.003323
6989.52078	0.003388
6987.59211	0.003381
6985.66343	0.003340
6983.73476	0.003368
6981.80608	0.003425
6979.87740	0.003407
6977.94873	0.003354
6976.02005	0.003369
6974.09138	0.003419
6972.16270	0.003420
6970.23403	0.003401
6968.30535	0.003427
6966.37667	0.003460
6964.44800	0.003433
6962.51932	0.003402
6960.59065	0.003457
6958.66197	0.003522
6956.73330	0.003488
6954.80462	0.003437
6952.87594	0.003464
6950.94727	0.003502
6949.01859	0.003479
6947.08992	0.003463
6945.16124	0.003519
6943.23257	0.003565
6941.30389	0.003528
6939.37521	0.003491
6937.44654	0.003526
6935.51786	0.003562
6933.58919	0.003533
6931.66051	0.003512
6929.73184	0.003569
6927.80316	0.003615
6925.87448	0.003572
6923.94581	0.003535
6922.01713	0.003584
6920.08846	0.003632
6918.15978	0.003603
6916.23111	0.003582
6914.30243	0.003625
6912.37375	0.003643
6910.44508	0.003590
6908.51640	0.003574
6906.58773	0.003643
6904.65905	0.003688
6902.73038	0.003659
6900.80170	0.003655
6898.87302	0.003708
6896.94435	0.003726
6895.01567	0.003681
6893.08700	0.003667
6891.15832	0.003713
6889.22965	0.003740
6887.30097	0.003733
6885.37229	0.003764
6883.44362	0.003823
6881.51494	0.003823
6879.58627	0.003780
6877.65759	0.003784
6875.72892	0.003829
6873.80024	0.003838
6871.87156	0.003814
6869.94289	0.003819
6868.01421	0.003850
6866.08554	0.003841
6864.15686	0.003812
6862.22819	0.003844
6860.29951	0.003894
6858.37083	0.003875
6856.44216	0.003842
6854.51348	0.003888
6852.58481	0.003947
6850.65613	0.003923
6848.72746	0.003883
6846.79878	0.003917
6844.87010	0.003963
6842.94143	0.003938
6841.01275	0.003912
6839.08408	0.003957
6837.15540	0.004001
6835.22673	0.003968
6833.29805	0.003941
6831.36937	0.003993
6829.44070	0.004037
6827.51202	0.004001
6825.58335	0.003969
6823.65467	0.004009
6821.72600	0.004041
6819.79732	0.003997
6817.86864	0.003955
6815.93997	0.003999
6814.01129	0.004048
6812.08262	0.004030
6810.15394	0.004027
6808.22527	0.004097
6806.29659	0.004125
6804.36791	0.004053
6802.43924	0.004023
6800.51056	0.004106
6798.58189	0.004162
6796.65321	0.004126
6794.72454	0.004119
6792.79586	0.004183
6790.86718	0.004209
6788.93851	0.004162
6787.00983	0.004154
6785.08116	0.004215
6783.15248	0.004229
6781.22381	0.004175
6779.29513	0.004170
6777.36645	0.004241
6775.43778	0.004269
6773.50910	0.004231
6771.58043	0.004241
6769.65175	0.004300
6767.72308	0.004297
6765.79440	0.004248
6763.86572	0.004265
6761.93705	0.004325
6760.00837	0.004315
6758.07970	0.004268
6756.15102	0.004285
6754.22235	0.004321
6752.29367	0.004294
6750.36499	0.004267
6748.43632	0.004326
6746.50764	0.004405
6744.57897	0.004404
6742.65029	0.004375
6740.72162	0.004418
6738.79294	0.004482
6736.86426	0.004463
6734.93559	0.004409
6733.00691	0.004417
6731.07824	0.004447
6729.14956	0.004419
6727.22089	0.004394
6725.29221	0.004453
6723.36353	0.004512
6721.43486	0.004470
6719.50618	0.004418
6717.57751	0.004471
6715.64883	0.004539
6713.72016	0.004519
6711.79148	0.004490
6709.86280	0.004540
6707.93413	0.004589
6706.00545	0.004552
6704.07678	0.004523
6702.14810	0.004579
6700.21943	0.004612
6698.29075	0.004551
6696.36207	0.004518
6694.43340	0.004600
6692.50472	0.004672
6690.57605	0.004635
6688.64737	0.004606
6686.71870	0.004665
6684.79002	0.004702
6682.86134	0.004661
6680.93267	0.004662
6679.00399	0.004741
6677.07532	0.004761
6675.14664	0.004692
6673.21797	0.004683
6671.28929	0.004771
6669.36061	0.004804
6667.43194	0.004754
6665.50326	0.004772
6663.57459	0.004863
6661.64591	0.004863
6659.71724	0.004769
6657.78856	0.004762
6655.85988	0.004849
6653.93121	0.004870
6652.00253	0.004827
6650.07386	0.004842
6648.14518	0.004900
6646.21651	0.004894
6644.28783	0.004847
6642.35915	0.004869
6640.43048	0.004932
6638.50180	0.004914
6636.57313	0.004850
6634.64445	0.004880
6632.71578	0.004962
6630.78710	0.004953
6628.85842	0.004912
6626.92975	0.004965
6625.00107	0.005034
6623.07240	0.004997
6621.14372	0.004936
6619.21505	0.004996
6617.28637	0.005101
6615.35769	0.005089
6613.42902	0.005033
6611.50034	0.005073
6609.57167	0.005130
6607.64299	0.005091
6605.71432	0.005042
6603.78564	0.005088
6601.85696	0.005152
6599.92829	0.005135
6597.99961	0.005106
6596.07094	0.005148
6594.14226	0.005186
6592.21359	0.005152
6590.28491	0.005131
6588.35623	0.005191
6586.42756	0.005234
6584.49888	0.005180
6582.57021	0.005150
6580.64153	0.005237
6578.71286	0.005305
6576.78418	0.005255
6574.85550	0.005216
6572.92683	0.005280
6570.99815	0.005323
6569.06948	0.005265
6567.14080	0.005238
6565.21213	0.005311
6563.28345	0.005347
6561.35477	0.005296
6559.42610	0.005290
6557.49742	0.005368
6555.56875	0.005397
6553.64007	0.005352
6551.71140	0.005363
6549.78272	0.005444
6547.85404	0.005460
6545.92537	0.005398
6543.99669	0.005388
6542.06802	0.005449
6540.13934	0.005468
6538.21067	0.005435
6536.28199	0.005463
6534.35331	0.005536
6532.42464	0.005518
6530.49596	0.005441
6528.56729	0.005467
6526.63861	0.005574
6524.70994	0.005598
6522.78126	0.005541
6520.85258	0.005556
6518.92391	0.005630
6516.99523	0.005622
6515.06656	0.005562
6513.13788	0.005592
6511.20921	0.005682
6509.28053	0.005699
6507.35185	0.005671
6505.42318	0.005706
6503.49450	0.005758
6501.56583	0.005727
6499.63715	0.005677
6497.70848	0.005724
6495.77980	0.005807
6493.85112	0.005798
6491.92245	0.005747
6489.99377	0.005775
6488.06510	0.005830
6486.13642	0.005794
6484.20775	0.005741
6482.27907	0.005793
6480.35039	0.005872
6478.42172	0.005861
6476.49304	0.005840
6474.56437	0.005902
6472.63569	0.005952
6470.70702	0.005901
6468.77834	0.005857
6466.84966	0.005915
6464.92099	0.005972
6462.99231	0.005940
6461.06364	0.005924
6459.13496	0.005990
6457.20629	0.006027
6455.27761	0.005975
6453.34893	0.005942
6451.42026	0.006001
6449.49158	0.006051
6447.56291	0.006017
6445.63423	0.006008
6443.70556	0.006081
6441.77688	0.006115
6439.84820	0.006065
6437.91953	0.006059
6435.99085	0.006140
6434.06218	0.006174
6432.13350	0.006114
6430.20483	0.006101
6428.27615	0.006184
6426.34747	0.006225
6424.41880	0.006182
6422.49012	0.006192
6420.56145	0.006285
6418.63277	0.006307
6416.70410	0.006235
6414.77542	0.006244
6412.84674	0.006344
6410.91807	0.006360
6408.98939	0.006282
6407.06072	0.006269
6405.13204	0.006348
6403.20337	0.006384
6401.27469	0.006343
6399.34601	0.006358
6397.41734	0.006447
6395.48866	0.006452
6393.55999	0.006370
6391.63131	0.006365
6389.70264	0.006434
6387.77396	0.006441
6385.84528	0.006411
6383.91661	0.006458
6381.98793	0.006543
6380.05926	0.006532
6378.13058	0.006471
6376.20191	0.006509
6374.27323	0.006592
6372.34455	0.006575
6370.41588	0.006525
6368.48720	0.006570
6366.55853	0.006638
6364.62985	0.006620
6362.70118	0.006581
6360.77250	0.006628
6358.84382	0.006694
6356.91515	0.006675
6354.98647	0.006638
6353.05780	0.006685
6351.12912	0.006755
6349.20045	0.006744
6347.27177	0.006709
6345.34309	0.006753
6343.41442	0.006801
6341.48574	0.006754
6339.55707	0.006718
6337.62839	0.006800
6335.69972	0.006883
6333.77104	0.006853
6331.84236	0.006822
6329.91369	0.006894
6327.98501	0.006966
6326.05634	0.006949
6324.12766	0.006942
6322.19899	0.007011
6320.27031	0.007044
6318.34163	0.006975
6316.41296	0.006926
6314.48428	0.006985
6312.55561	0.007038
6310.62693	0.006986
6308.69826	0.006943
6306.76958	0.007015
6304.84090	0.007076
6302.91223	0.007034
6300.98355	0.007022
6299.05488	0.007114
6297.12620	0.007168
6295.19753	0.007119
6293.26885	0.007103
6291.34017	0.007172
6289.41150	0.007192
6287.48282	0.007142
6285.55415	0.007161
6283.62547	0.007252
6281.69680	0.007270
6279.76812	0.007221
6277.83944	0.007253
6275.91077	0.007352
6273.98209	0.007360
6272.05342	0.007291
6270.12474	0.007308
6268.19607	0.007393
6266.26739	0.007390
6264.33871	0.007325
6262.41004	0.007343
6260.48136	0.007416
6258.55269	0.007404
6256.62401	0.007343
6254.69534	0.007382
6252.76666	0.007498
6250.83798	0.007527
6248.90931	0.007478
6246.98063	0.007510
6245.05196	0.007579
6243.12328	0.007541
6241.19461	0.007483
6239.26593	0.007555
6237.33725	0.007657
6235.40858	0.007633
6233.47990	0.007569
6231.55123	0.007622
6229.62255	0.007712
6227.69388	0.007696
6225.76520	0.007654
6223.83652	0.007713
6221.90785	0.007787
6219.97917	0.007756
6218.05050	0.007701
6216.12182	0.007745
6214.19315	0.007814
6212.26447	0.007796
6210.33579	0.007762
6208.40712	0.007813
6206.47844	0.007870
6204.54977	0.007840
6202.62109	0.007821
6200.69242	0.007908
6198.76374	0.007985
6196.83506	0.007950
6194.90639	0.007937
6192.97771	0.008031
6191.04904	0.008077
6189.12036	0.008003
6187.19169	0.007973
6185.26301	0.008061
6183.33433	0.008113
6181.40566	0.008067
6179.47698	0.008063
6177.54831	0.008147
6175.61963	0.008172
6173.69096	0.008100
6171.76228	0.008080
6169.83360	0.008176
6167.90493	0.008241
6165.97625	0.008191
6164.04758	0.008176
6162.11890	0.008262
6160.19023	0.008289
6158.26155	0.008214
6156.33287	0.008218
6154.40420	0.008344
6152.47552	0.008393
6150.54685	0.008312
6148.61817	0.008296
6146.68950	0.008391
6144.76082	0.008428
6142.83214	0.008384
6140.90347	0.008408
6138.97479	0.008496
6137.04612	0.008497
6135.11744	0.008438
6133.18877	0.008475
6131.26009	0.008572
6129.33141	0.008573
6127.40274	0.008521
6125.47406	0.008572
6123.54539	0.008678
6121.61671	0.008676
6119.68804	0.008603
6117.75936	0.008623
6115.83068	0.008708
6113.90201	0.008705
6111.97333	0.008658
6110.04466	0.008724
6108.11598	0.008829
6106.18731	0.008802
6104.25863	0.008737
6102.32995	0.008803
6100.40128	0.008890
6098.47260	0.008835
6096.54393	0.008759
6094.61525	0.008822
6092.68658	0.008917
6090.75790	0.008898
6088.82922	0.008869
6086.90055	0.008956
6084.97187	0.009036
6083.04320	0.008980
6081.11452	0.008922
6079.18585	0.009008
6077.25717	0.009109
6075.32849	0.009077
6073.39982	0.009025
6071.47114	0.009093
6069.54247	0.009173
6067.61379	0.009130
6065.68512	0.009081
6063.75644	0.009163
6061.82776	0.009239
6059.89909	0.009188
6057.97041	0.009152
6056.04174	0.009243
6054.11306	0.009316
6052.18439	0.009278
6050.25571	0.009269
6048.32703	0.009357
6046.39836	0.009389
6044.46968	0.009314
6042.54101	0.009304
6040.61233	0.009416
6038.68366	0.009469
6036.75498	0.009400
6034.82630	0.009380
6032.89763	0.009478
6030.96895	0.009532
6029.04028	0.009472
6027.11160	0.009456
6025.18293	0.009558
6023.25425	0.009619
6021.32557	0.009559
6019.39690	0.009545
6017.46822	0.009645
6015.53955	0.009689
6013.61087	0.009626
6011.68220	0.009633
6009.75352	0.009747
6007.82484	0.009785
6005.89617	0.009736
6003.96749	0.009774
6002.03882	0.009889
6000.11014	0.009901
5998.18147	0.009810
5996.25279	0.009803
5994.32411	0.009894
5992.39544	0.009917
5990.46676	0.009874
5988.53809	0.009917
5986.60941	0.010012
5984.68074	0.010006
5982.75206	0.009950
5980.82338	0.009995
5978.89471	0.010087
5976.96603	0.010070
5975.03736	0.010001
5973.10868	0.010058
5971.18001	0.010174
5969.25133	0.010154
5967.32265	0.010077
5965.39398	0.010146
5963.46530	0.010276
5961.53663	0.010266
5959.60795	0.010201
5957.67928	0.010246
5955.75060	0.010315
5953.82192	0.010279
5951.89325	0.010231
5949.96457	0.010292
5948.03590	0.010369
5946.10722	0.010339
5944.17855	0.010306
5942.24987	0.010394
5940.32119	0.010487
5938.39252	0.010456
5936.46384	0.010413
5934.53517	0.010486
5932.60649	0.010559
5930.67782	0.010515
5928.74914	0.010481
5926.82046	0.010576
5924.89179	0.010668
5922.96311	0.010623
5921.03444	0.010587
5919.10576	0.010692
5917.17709	0.010767
5915.24841	0.010694
5913.31973	0.010658
5911.39106	0.010768
5909.46238	0.010850
5907.53371	0.010800
5905.60503	0.010772
5903.67636	0.010852
5901.74768	0.010905
5899.81900	0.010861
5897.89033	0.010862
5895.96165	0.010968
5894.03298	0.011028
5892.10430	0.010971
5890.17563	0.010947
5888.24695	0.011029
5886.31827	0.011082
5884.38960	0.011039
5882.46092	0.011038
5880.53225	0.011135
5878.60357	0.011182
5876.67490	0.011123
5874.74622	0.011119
5872.81755	0.011209
5870.88887	0.011219
5868.96019	0.011153
5867.03152	0.011207
5865.10284	0.011350
5863.17417	0.011374
5861.24549	0.011303
5859.31682	0.011333
5857.38814	0.011449
5855.45946	0.011469
5853.53079	0.011403
5851.60211	0.011422
5849.67344	0.011517
5847.74476	0.011526
5845.81609	0.011472
5843.88741	0.011514
5841.95873	0.011608
5840.03006	0.011594
5838.10138	0.011523
5836.17271	0.011566
5834.24403	0.011671
5832.31536	0.011661
5830.38668	0.011597
5828.45800	0.011672
5826.52933	0.011806
5824.60065	0.011805
5822.67198	0.011742
5820.74330	0.011796
5818.81463	0.011892
5816.88595	0.011865
5814.95727	0.011804
5813.02860	0.011881
5811.09992	0.012002
5809.17125	0.011999
5807.24257	0.011955
5805.31390	0.012031
5803.38522	0.012145
5801.45654	0.012130
5799.52787	0.012074
5797.59919	0.012133
5795.67052	0.012222
5793.74184	0.012186
5791.81317	0.012122
5789.88449	0.012195
5787.95581	0.012294
5786.02714	0.012245
5784.09846	0.012192
5782.16979	0.012306
5780.24111	0.012424
5778.31244	0.012380
5776.38376	0.012327
5774.45508	0.012410
5772.52641	0.012482
5770.59773	0.012426
5768.66906	0.012406
5766.74038	0.012525
5764.81171	0.012608
5762.88303	0.012548
5760.95435	0.012525
5759.02568	0.012648
5757.09700	0.012727
5755.16833	0.012658
5753.23965	0.012631
5751.31098	0.012742
5749.38230	0.012815
5747.45362	0.012751
5745.52495	0.012729
5743.59627	0.012854
5741.66760	0.012932
5739.73892	0.012852
5737.81025	0.012814
5735.88157	0.012928
5733.95289	0.013009
5732.02422	0.012961
5730.09554	0.012962
5728.16687	0.013079
5726.23819	0.013112
5724.30952	0.013022
5722.38084	0.013037
5720.45216	0.013182
5718.52349	0.013229
5716.59481	0.013152
5714.66614	0.013163
5712.73746	0.013287
5710.80879	0.013315
5708.88011	0.013228
5706.95143	0.013242
5705.02276	0.013369
5703.09408	0.013396
5701.16541	0.013323
5699.23673	0.013367
5697.30806	0.013519
5695.37938	0.013543
5693.45070	0.013452
5691.52203	0.013488
5689.59335	0.013639
5687.66468	0.013665
5685.73600	0.013587
5683.80733	0.013617
5681.87865	0.013714
5679.94997	0.013706
5678.02130	0.013666
5676.09262	0.013763
5674.16395	0.013906
5672.23527	0.013892
5670.30660	0.013793
5668.37792	0.013833
5666.44924	0.013963
5664.52057	0.013974
5662.59189	0.013923
5660.66322	0.013980
5658.73454	0.014066
5656.80587	0.014030
5654.87719	0.013978
5652.94851	0.014081
5651.01984	0.014219
5649.09116	0.014195
5647.16249	0.014124
5645.23381	0.014203
5643.30514	0.014317
5641.37646	0.014282
5639.44778	0.014226
5637.51911	0.014324
5635.59043	0.014431
5633.66176	0.014383
5631.73308	0.014326
5629.80441	0.014420
5627.87573	0.014529
5625.94705	0.014498
5624.01838	0.014461
5622.08970	0.014565
5620.16103	0.014660
5618.23235	0.014599
5616.30368	0.014541
5614.37500	0.014632
5612.44632	0.014724
5610.51765	0.014681
5608.58897	0.014649
5606.66030	0.014769
5604.73162	0.014878
5602.80295	0.014821
5600.87427	0.014783
5598.94559	0.014902
5597.01692	0.014980
5595.08824	0.014909
5593.15957	0.014897
5591.23089	0.015031
5589.30222	0.015103
5587.37354	0.015024
5585.44486	0.015001
5583.51619	0.015121
5581.58751	0.015186
5579.65884	0.015125
5577.73016	0.015143
5575.80149	0.015308
5573.87281	0.015387
5571.94413	0.015304
5570.01546	0.015300
5568.08678	0.015436
5566.15811	0.015472
5564.22943	0.015353
5562.30076	0.015330
5560.37208	0.015478
5558.44340	0.015556
5556.51473	0.015487
5554.58605	0.015499
5552.65738	0.015633
5550.72870	0.015666
5548.80003	0.015593
5546.87135	0.015646
5544.94267	0.015812
5543.01400	0.015839
5541.08532	0.015740
5539.15665	0.015758
5537.22797	0.015884
5535.29930	0.015900
5533.37062	0.015822
5531.44194	0.015860
5529.51327	0.015989
5527.58459	0.016005
5525.65592	0.015946
5523.72724	0.016009
5521.79857	0.016144
5519.86989	0.016142
5517.94121	0.016055
5516.01254	0.016114
5514.08386	0.016265
5512.15519	0.016259
5510.22651	0.016160
5508.29784	0.016219
5506.36916	0.016378
5504.44048	0.016392
5502.51181	0.016322
5500.58313	0.016391
5498.65446	0.016514
5496.72578	0.016486
5494.79711	0.016409
5492.86843	0.016490
5490.93975	0.016613
5489.01108	0.016577
5487.08240	0.016517
5485.15373	0.016625
5483.22505	0.016748
5481.29638	0.016707
5479.36770	0.016656
5477.43902	0.016746
5475.51035	0.016843
5473.58167	0.016800
5471.65300	0.016743
5469.72432	0.016835
5467.79565	0.016957
5465.86697	0.016927
5463.93829	0.016873
5462.00962	0.016971
5460.08094	0.017088
5458.15227	0.017062
5456.22359	0.017041
5454.29492	0.017162
5452.36624	0.017252
5450.43756	0.017183
5448.50889	0.017144
5446.58021	0.017256
5444.65154	0.017342
5442.72286	0.017299
5440.79419	0.017292
5438.86551	0.017409
5436.93683	0.017472
5435.00816	0.017411
5433.07948	0.017417
5431.15081	0.017539
5429.22213	0.017587
5427.29346	0.017501
5425.36478	0.017486
5423.43610	0.017639
5421.50743	0.017749
5419.57875	0.017706
5417.65008	0.017706
5415.72140	0.017824
5413.79273	0.017865
5411.86405	0.017784
5409.93537	0.017797
5408.00670	0.017935
5406.07802	0.017960
5404.14935	0.017863
5402.22067	0.017900
5400.29200	0.018079
5398.36332	0.018145
5396.43464	0.018068
5394.50597	0.018085
5392.57729	0.018231
5390.64862	0.018275
5388.71994	0.018181
5386.79127	0.018188
5384.86259	0.018332
5382.93391	0.018375
5381.00524	0.018300
5379.07656	0.018342
5377.14789	0.018507
5375.21921	0.018556
5373.29054	0.018472
5371.36186	0.018493
5369.43318	0.018616
5367.50451	0.018618
5365.57583	0.018547
5363.64716	0.018636
5361.71848	0.018807
5359.78981	0.018808
5357.86113	0.018719
5355.93245	0.018781
5354.00378	0.018920
5352.07510	0.018927
5350.14643	0.018862
5348.21775	0.018915
5346.28908	0.019007
5344.36040	0.018968
5342.43172	0.018913
5340.50305	0.019019
5338.57437	0.019174
5336.64570	0.019178
5334.71702	0.019099
5332.78835	0.019160
5330.85967	0.019307
5328.93099	0.019315
5327.00232	0.019264
5325.07364	0.019362
5323.14497	0.019475
5321.21629	0.019406
5319.28762	0.019332
5317.35894	0.019458
5315.43026	0.019611
5313.50159	0.019580
5311.57291	0.019501
5309.64424	0.019585
5307.71556	0.019728
5305.78689	0.019733
5303.85821	0.019701
5301.92953	0.019801
5300.00086	0.019901
5298.07218	0.019845
5296.14351	0.019789
5294.21483	0.019896
5292.28616	0.020010
5290.35748	0.019957
5288.42880	0.019902
5286.50013	0.020013
5284.57145	0.020123
5282.64278	0.020072
5280.71410	0.020049
5278.78543	0.020211
5276.85675	0.020340
5274.92807	0.020272
5272.99940	0.020225
5271.07072	0.020348
5269.14205	0.020437
5267.21337	0.020369
5265.28470	0.020331
5263.35602	0.020445
5261.42734	0.020540
5259.49867	0.020496
5257.56999	0.020503
5255.64132	0.020656
5253.71264	0.020737
5251.78397	0.020657
5249.85529	0.020639
5247.92661	0.020774
5245.99794	0.020853
5244.06926	0.020787
5242.14059	0.020785
5240.21191	0.020931
5238.28324	0.020993
5236.35456	0.020902
5234.42588	0.020907
5232.49721	0.021061
5230.56853	0.021110
5228.63986	0.021028
5226.71118	0.021062
5224.78251	0.021227
5222.85383	0.021294
5220.92515	0.021246
5218.99648	0.021288
5217.06780	0.021425
5215.13913	0.021456
5213.21045	0.021377
5211.28178	0.021404
5209.35310	0.021540
5207.42442	0.021544
5205.49575	0.021432
5203.56707	0.021489
5201.63840	0.021714
5199.70972	0.021803
5197.78105	0.021718
5195.85237	0.021719
5193.92369	0.021835
5191.99502	0.021839
5190.06634	0.021749
5188.13767	0.021824
5186.20899	0.022012
5184.28032	0.022020
5182.35164	0.021908
5180.42296	0.021964
5178.49429	0.022133
5176.56561	0.022168
5174.63694	0.022128
5172.70826	0.022221
5170.77959	0.022357
5168.85091	0.022335
5166.92223	0.022260
5164.99356	0.022336
5163.06488	0.022464
5161.13621	0.022431
5159.20753	0.022340
5157.27886	0.022419
5155.35018	0.022574
5153.42150	0.022568
5151.49283	0.022493
5149.56415	0.022590
5147.63548	0.022752
5145.70680	0.022732
5143.77813	0.022670
5141.84945	0.022802
5139.92077	0.022954
5137.99210	0.022900
5136.06342	0.022841
5134.13475	0.022989
5132.20607	0.023133
5130.27740	0.023064
5128.34872	0.022983
5126.42004	0.023104
5124.49137	0.023252
5122.56269	0.023218
5120.63402	0.023165
5118.70534	0.023288
5116.77667	0.023425
5114.84799	0.023388
5112.91931	0.023339
5110.99064	0.023456
5109.06196	0.023562
5107.13329	0.023489
5105.20461	0.023445
5103.27594	0.023600
5101.34726	0.023725
5099.41858	0.023642
5097.48991	0.023591
5095.56123	0.023747
5093.63256	0.023865
5091.70388	0.023799
5089.77521	0.023799
5087.84653	0.023978
5085.91785	0.024068
5083.98918	0.023973
5082.06050	0.023965
5080.13183	0.024136
5078.20315	0.024219
5076.27448	0.024122
5074.34580	0.024105
5072.41712	0.024270
5070.48845	0.024364
5068.55977	0.024290
5066.63110	0.024286
5064.70242	0.024435
5062.77375	0.024511
5060.84507	0.024447
5058.91639	0.024466
5056.98772	0.024627
5055.05904	0.024696
5053.13037	0.024604
5051.20169	0.024603
5049.27302	0.024767
5047.34434	0.024837
5045.41566	0.024762
5043.48699	0.024804
5041.55831	0.024973
5039.62964	0.025000
5037.70096	0.024879
5035.77229	0.024889
5033.84361	0.025059
5031.91493	0.025137
5029.98626	0.025075
5028.05758	0.025102
5026.12891	0.025266
5024.20023	0.025335
5022.27156	0.025279
5020.34288	0.025322
5018.41420	0.025467
5016.48553	0.025484
5014.55685	0.025393
5012.62818	0.025447
5010.69950	0.025600
5008.77083	0.025593
5006.84215	0.025496
5004.91347	0.025576
5002.98480	0.025773
5001.05612	0.025810
4999.12745	0.025723
4997.19877	0.025783
4995.27010	0.025947
4993.34142	0.025942
4991.41274	0.025845
4989.48407	0.025925
4987.55539	0.026091
4985.62672	0.026097
4983.69804	0.026038
4981.76937	0.026133
4979.84069	0.026276
4977.91201	0.026245
4975.98334	0.026164
4974.05466	0.026284
4972.12599	0.026482
4970.19731	0.026492
4968.26864	0.026408
4966.33996	0.026470
4964.41128	0.026589
4962.48261	0.026553
4960.55393	0.026498
4958.62526	0.026643
4956.69658	0.026810
4954.76791	0.026755
4952.83923	0.026665
4950.91055	0.026796
4948.98188	0.026972
4947.05320	0.026965
4945.12453	0.026933
4943.19585	0.027056
4941.26718	0.027153
4939.33850	0.027075
4937.40982	0.027028
4935.48115	0.027172
4933.55247	0.027310
4931.62380	0.027282
4929.69512	0.027264
4927.76645	0.027416
4925.83777	0.027546
4923.90909	0.027469
4921.98042	0.027395
4920.05174	0.027537
4918.12307	0.027681
4916.19439	0.027624
4914.26572	0.027588
4912.33704	0.027755
4910.40836	0.027895
4908.47969	0.027822
4906.55101	0.027779
4904.62234	0.027941
4902.69366	0.028057
4900.76499	0.027987
4898.83631	0.027970
4896.90763	0.028115
4894.97896	0.028196
4893.05028	0.028123
4891.12161	0.028119
4889.19293	0.028275
4887.26426	0.028376
4885.33558	0.028323
4883.40690	0.028326
4881.47823	0.028485
4879.54955	0.028585
4877.62088	0.028512
4875.69220	0.028485
4873.76353	0.028628
4871.83485	0.028721
4869.90617	0.028670
4867.97750	0.028710
4866.04882	0.028894
4864.12015	0.028957
4862.19147	0.028855
4860.26280	0.028866
4858.33412	0.029036
4856.40544	0.029095
4854.47677	0.029010
4852.54809	0.029046
4850.61942	0.029225
4848.69074	0.029299
4846.76207	0.029249
4844.83339	0.029300
4842.90471	0.029459
4840.97604	0.029490
4839.04736	0.029394
4837.11869	0.029441
4835.19001	0.029627
4833.26134	0.029664
4831.33266	0.029568
4829.40398	0.029622
4827.47531	0.029799
4825.54663	0.029826
4823.61796	0.029742
4821.68928	0.029829
4819.76061	0.030053
4817.83193	0.030120
4815.90325	0.030042
4813.97458	0.030096
4812.04590	0.030256
4810.11723	0.030276
4808.18855	0.030204
4806.25988	0.030262
4804.33120	0.030380
4802.40252	0.030356
4800.47385	0.030280
4798.54517	0.030365
4796.61650	0.030536
4794.68782	0.030567
4792.75915	0.030515
4790.83047	0.030622
4788.90179	0.030824
4786.97312	0.030848
4785.04444	0.030757
4783.11577	0.030831
4781.18709	0.030995
4779.25842	0.030979
4777.32974	0.030884
4775.40106	0.030973
4773.47239	0.031142
4771.54371	0.031141
4769.61504	0.031086
4767.68636	0.031206
4765.75769	0.031373
4763.82901	0.031368
4761.90033	0.031308
4759.97166	0.031390
4758.04298	0.031533
4756.11431	0.031569
4754.18563	0.031590
4752.25696	0.031737
4750.32828	0.031862
4748.39960	0.031796
4746.47093	0.031725
4744.54225	0.031865
4742.61358	0.032035
4740.68490	0.032006
4738.75623	0.031952
4736.82755	0.032085
4734.89887	0.032228
4732.97020	0.032184
4731.04152	0.032147
4729.11285	0.032299
4727.18417	0.032440
4725.25550	0.032400
4723.32682	0.032370
4721.39814	0.032503
4719.46947	0.032626
4717.54079	0.032590
4715.61212	0.032571
4713.68344	0.032710
4711.75477	0.032821
4709.82609	0.032780
4707.89741	0.032783
4705.96874	0.032952
4704.04006	0.033097
4702.11139	0.033069
4700.18271	0.033046
4698.25404	0.033177
4696.32536	0.033281
4694.39668	0.033237
4692.46801	0.033240
4690.53933	0.033394
4688.61066	0.033494
4686.68198	0.033457
4684.75331	0.033495
4682.82463	0.033671
4680.89595	0.033752
4678.96728	0.033668
4677.03860	0.033667
4675.10993	0.033839
4673.18125	0.033942
4671.25258	0.033885
4669.32390	0.033893
4667.39522	0.034035
4665.46655	0.034114
4663.53787	0.034086
4661.60920	0.034128
4659.68052	0.034278
4657.75185	0.034354
4655.82317	0.034311
4653.89449	0.034334
4651.96582	0.034479
4650.03714	0.034558
4648.10847	0.034521
4646.17979	0.034561
4644.25112	0.034706
4642.32244	0.034758
4640.39376	0.034728
4638.46509	0.034826
4636.53641	0.035001
4634.60774	0.035025
4632.67906	0.034952
4630.75039	0.035026
4628.82171	0.035199
4626.89303	0.035229
4624.96436	0.035154
4623.03568	0.035213
4621.10701	0.035377
4619.17833	0.035435
4617.24966	0.035417
4615.32098	0.035509
4613.39230	0.035672
4611.46363	0.035704
4609.53495	0.035642
4607.60628	0.035713
4605.67760	0.035888
4603.74893	0.035930
4601.82025	0.035876
4599.89157	0.035967
4597.96290	0.036136
4596.03422	0.036134
4594.10555	0.036057
4592.17687	0.036165
4590.24820	0.036353
4588.31952	0.036367
4586.39084	0.036322
4584.46217	0.036461
4582.53349	0.036666
4580.60482	0.036710
4578.67614	0.036660
4576.74747	0.036722
4574.81879	0.036872
4572.89011	0.036934
4570.96144	0.036922
4569.03276	0.036998
4567.10409	0.037130
4565.17541	0.037145
4563.24674	0.037104
4561.31806	0.037203
4559.38938	0.037358
4557.46071	0.037370
4555.53203	0.037347
4553.60336	0.037491
4551.67468	0.037688
4549.74601	0.037733
4547.81733	0.037737
4545.88865	0.037866
4543.95998	0.037980
4542.03130	0.037921
4540.10263	0.037863
4538.17395	0.037988
4536.24528	0.038154
4534.31660	0.038183
4532.38792	0.038161
4530.45925	0.038237
4528.53057	0.038325
4526.60190	0.038310
4524.67322	0.038339
4522.74455	0.038537
4520.81587	0.038698
4518.88719	0.038657
4516.95852	0.038606
4515.02984	0.038737
4513.10117	0.038890
4511.17249	0.038882
4509.24382	0.038869
4507.31514	0.039027
4505.38646	0.039194
4503.45779	0.039203
4501.52911	0.039215
4499.60044	0.039356
4497.67176	0.039455
4495.74309	0.039425
4493.81441	0.039454
4491.88573	0.039621
4489.95706	0.039755
4488.02838	0.039763
4486.09971	0.039788
4484.17103	0.039924
4482.24236	0.040031
4480.31368	0.040017
4478.38500	0.040031
4476.45633	0.040175
4474.52765	0.040312
4472.59898	0.040325
4470.67030	0.040355
4468.74163	0.040515
4466.81295	0.040626
4464.88427	0.040585
4462.95560	0.040597
4461.02692	0.040755
4459.09825	0.040860
4457.16957	0.040853
4455.24090	0.040919
4453.31222	0.041084
4451.38354	0.041149
4449.45487	0.041092
4447.52619	0.041124
4445.59752	0.041290
4443.66884	0.041395
4441.74017	0.041395
4439.81149	0.041453
4437.88281	0.041593
4435.95414	0.041660
4434.02546	0.041647
4432.09679	0.041722
4430.16811	0.041903
4428.23944	0.041995
4426.31076	0.041973
4424.38208	0.042041
4422.45341	0.042228
4420.52473	0.042320
4418.59606	0.042291
4416.66738	0.042337
4414.73871	0.042477
4412.81003	0.042555
4410.88135	0.042576
4408.95268	0.042679
4407.02400	0.042821
4405.09533	0.042851
4403.16665	0.042833
4401.23798	0.042930
4399.30930	0.043089
4397.38062	0.043156
4395.45195	0.043178
4393.52327	0.043286
4391.59460	0.043424
4389.66592	0.043455
4387.73725	0.043436
4385.80857	0.043537
4383.87989	0.043719
4381.95122	0.043774
4380.02254	0.043739
4378.09387	0.043827
4376.16519	0.044003
4374.23652	0.044053
4372.30784	0.044015
4370.37916	0.044101
4368.45049	0.044271
4366.52181	0.044335
4364.59314	0.044347
4362.66446	0.044460
4360.73579	0.044595
4358.80711	0.044625
4356.87843	0.044648
4354.94976	0.044799
4353.02108	0.044974
4351.09241	0.045014
4349.16373	0.045007
4347.23506	0.045116
4345.30638	0.045264
4343.37770	0.045300
4341.44903	0.045301
4339.52035	0.045421
4337.59168	0.045583
4335.66300	0.045636
4333.73433	0.045661
4331.80565	0.045800
4329.87697	0.045952
4327.94830	0.045972
4326.01962	0.045963
4324.09095	0.046062
4322.16227	0.046191
4320.23360	0.046247
4318.30492	0.046323
4316.37624	0.046492
4314.44757	0.046632
4312.51889	0.046671
4310.59022	0.046711
4308.66154	0.046817
4306.73287	0.046925
4304.80419	0.046968
4302.87551	0.047010
4300.94684	0.047136
4299.01816	0.047282
4297.08949	0.047343
4295.16081	0.047383
4293.23214	0.047517
4291.30346	0.047675
4289.37478	0.047736
4287.44611	0.047780
4285.51743	0.047905
4283.58876	0.048011
4281.66008	0.048026
4279.73141	0.048081
4277.80273	0.048240
4275.87405	0.048355
4273.94538	0.048376
4272.01670	0.048455
4270.08803	0.048615
4268.15935	0.048696
4266.23068	0.048671
4264.30200	0.048711
4262.37332	0.048882
4260.44465	0.049045
4258.51597	0.049102
4256.58730	0.049137
4254.65862	0.049245
4252.72995	0.049363
4250.80127	0.049414
4248.87259	0.049487
4246.94392	0.049645
4245.01524	0.049758
4243.08657	0.049773
4241.15789	0.049827
4239.22922	0.049970
4237.30054	0.050080
4235.37186	0.050136
4233.44319	0.050257
4231.51451	0.050428
4229.58584	0.050510
4227.65716	0.050521
4225.72849	0.050594
4223.79981	0.050728
4221.87113	0.050817
4219.94246	0.050856
4218.01378	0.050951
4216.08511	0.051108
4214.15643	0.051219
4212.22776	0.051268
4210.29908	0.051343
4208.37040	0.051458
4206.44173	0.051531
4204.51305	0.051565
4202.58438	0.051667
4200.65570	0.051833
4198.72703	0.051931
4196.79835	0.051964
4194.86968	0.052060
4192.94100	0.052208
4191.01232	0.052290
4189.08365	0.052333
4187.15497	0.052446
4185.22630	0.052589
4183.29762	0.052667
4181.36895	0.052734
4179.44027	0.052888
4177.51159	0.053064
4175.58292	0.053130
4173.65424	0.053150
4171.72557	0.053259
4169.79689	0.053420
4167.86822	0.053527
4165.93954	0.053599
4164.01086	0.053712
4162.08219	0.053837
4160.15351	0.053903
4158.22484	0.053948
4156.29616	0.054059
4154.36749	0.054216
4152.43881	0.054320
4150.51013	0.054379
4148.58146	0.054482
4146.65278	0.054610
4144.72411	0.054702
4142.79543	0.054804
4140.86676	0.054949
4138.93808	0.055053
4137.00940	0.055086
4135.08073	0.055148
4133.15205	0.055283
4131.22338	0.055408
4129.29470	0.055483
4127.36603	0.055573
4125.43735	0.055711
4123.50867	0.055843
4121.58000	0.055917
4119.65132	0.055963
4117.72265	0.056059
4115.79397	0.056196
4113.86530	0.056287
4111.93662	0.056362
4110.00794	0.056513
4108.07927	0.056702
4106.15059	0.056818
4104.22192	0.056885
4102.29324	0.056988
4100.36457	0.057088
4098.43589	0.057146
4096.50721	0.057249
4094.57854	0.057411
4092.64986	0.057538
4090.72119	0.057609
4088.79251	0.057694
4086.86384	0.057818
4084.93516	0.057939
4083.00648	0.058029
4081.07781	0.058110
4079.14913	0.058218
4077.22046	0.058355
4075.29178	0.058490
4073.36311	0.058603
4071.43443	0.058703
4069.50575	0.058775
4067.57708	0.058833
4065.64840	0.058959
4063.71973	0.059142
4061.79105	0.059271
4059.86238	0.059344
4057.93370	0.059448
4056.00502	0.059585
4054.07635	0.059681
4052.14767	0.059751
4050.21900	0.059875
4048.29032	0.060021
4046.36165	0.060119
4044.43297	0.060197
4042.50429	0.060301
4040.57562	0.060430
4038.64694	0.060554
4036.71827	0.060677
4034.78959	0.060813
4032.86092	0.060939
4030.93224	0.061036
4029.00356	0.061123
4027.07489	0.061246
4025.14621	0.061412
4023.21754	0.061547
4021.28886	0.061606
4019.36019	0.061680
4017.43151	0.061830
4015.50283	0.061978
4013.57416	0.062090
4011.64548	0.062192
4009.71681	0.062266
4007.78813	0.062336
4005.85946	0.062469
4003.93078	0.062632
4002.00210	0.062734
4000.07343	0.062813
3998.14475	0.062966
3996.21608	0.063164
3994.28740	0.063313
3992.35873	0.063391
3990.43005	0.063462
3988.50137	0.063570
3986.57270	0.063677
3984.64402	0.063779
3982.71535	0.063916
3980.78667	0.064077
3978.85800	0.064215
3976.92932	0.064302
3975.00064	0.064379
3973.07197	0.064523
3971.14329	0.064678
3969.21462	0.064784
3967.28594	0.064907
3965.35727	0.065053
3963.42859	0.065152
3961.49991	0.065235
3959.57124	0.065376
3957.64256	0.065533
3955.71389	0.065618
3953.78521	0.065663
3951.85654	0.065753
3949.92786	0.065883
3947.99918	0.066014
3946.07051	0.066133
3944.14183	0.066245
3942.21316	0.066376
3940.28448	0.066514
3938.35581	0.066644
3936.42713	0.066784
3934.49845	0.066886
3932.56978	0.066946
3930.64110	0.067064
3928.71243	0.067256
3926.78375	0.067418
3924.85508	0.067505
3922.92640	0.067576
3920.99772	0.067657
3919.06905	0.067723
3917.14037	0.067798
3915.21170	0.067969
3913.28302	0.068226
3911.35435	0.068426
3909.42567	0.068485
3907.49699	0.068463
3905.56832	0.068446
3903.63964	0.068455
3901.71097	0.068548
3899.78229	0.068789
3897.85362	0.069107
3895.92494	0.069338
3893.99626	0.069419
3892.06759	0.069491
3890.13891	0.069655
3888.21024	0.069734
3886.28156	0.069710
3884.35289	0.069830
3882.42421	0.070067
3880.49553	0.070271
3878.56686	0.070422
3876.63818	0.070479
3874.70951	0.070523
3872.78083	0.070612
3870.85216	0.070684
3868.92348	0.070840
3866.99480	0.071074
3865.06613	0.071229
3863.13745	0.071359
3861.20878	0.071587
3859.28010	0.071826
3857.35143	0.071819
3855.42275	0.071541
3853.49407	0.071438
3851.56540	0.071796
3849.63672	0.072292
3847.70805	0.072593
3845.77937	0.072728
3843.85070	0.072785
3841.92202	0.072766
3839.99334	0.072716
3838.06467	0.072805
3836.13599	0.073106
3834.20732	0.073420
3832.27864	0.073609
3830.34997	0.073753
3828.42129	0.073904
3826.49261	0.074026
3824.56394	0.074048
3822.63526	0.074024
3820.70659	0.074171
3818.77791	0.074401
3816.84924	0.074545
3814.92056	0.074794
3812.99188	0.075148
3811.06321	0.075305
3809.13453	0.075216
3807.20586	0.075183
3805.27718	0.075339
3803.34851	0.075466
3801.41983	0.075584
3799.49115	0.075850
3797.56248	0.076127
3795.63380	0.076310
3793.70513	0.076442
3791.77645	0.076592
3789.84778	0.076804
3787.91910	0.076949
3785.99042	0.076961
3784.06175	0.077044
3782.13307	0.077245
3780.20440	0.077383
3778.27572	0.077495
3776.34705	0.077706
3774.41837	0.077894
3772.48969	0.077887
3770.56102	0.077823
3768.63234	0.077934
3766.70367	0.078149
3764.77499	0.078339
3762.84632	0.078514
3760.91764	0.078677
3758.98896	0.078828
3757.06029	0.078946
3755.13161	0.078991
3753.20294	0.078974
3751.27426	0.078960
3749.34559	0.079036
3747.41691	0.079137
3745.48823	0.079244
3743.55956	0.079555
3741.63088	0.079959
3739.70221	0.080077
3737.77353	0.079932
3735.84486	0.079849
3733.91618	0.080001
3731.98750	0.080367
3730.05883	0.080793
3728.13015	0.081041
3726.20148	0.081105
3724.27280	0.081223
3722.34413	0.081464
3720.41545	0.081704
3718.48677	0.081852
3716.55810	0.081895
3714.62942	0.081831
3712.70075	0.081749
3710.77207	0.081855
3708.84340	0.082186
3706.91472	0.082580
3704.98604	0.082828
3703.05737	0.082865
3701.12869	0.082939
3699.20002	0.083214
3697.27134	0.083500
3695.34267	0.083608
3693.41399	0.083605
3691.48531	0.083649
3689.55664	0.083766
3687.62796	0.083924
3685.69929	0.084135
3683.77061	0.084373
3681.84194	0.084533
3679.91326	0.084555
3677.98458	0.084443
3676.05591	0.084368
3674.12723	0.084490
3672.19856	0.084646
3670.26988	0.084847
3668.34121	0.085276
3666.41253	0.085701
3664.48385	0.085876
3662.55518	0.085976
3660.62650	0.086126
3658.69783	0.086153
3656.76915	0.086067
3654.84048	0.086111
3652.91180	0.086178
3650.98312	0.086038
3649.05445	0.085883
3647.12577	0.086094
3645.19710	0.086649
3643.26842	0.087114
3641.33975	0.087285
3639.41107	0.087399
3637.48239	0.087600
3635.55372	0.087733
3633.62504	0.087663
3631.69637	0.087411
3629.76769	0.087278
3627.83902	0.087578
3625.91034	0.088047
3623.98166	0.088316
3622.05299	0.088406
3620.12431	0.088395
3618.19564	0.088392
3616.26696	0.088517
3614.33829	0.088733
3612.40961	0.088886
3610.48093	0.088884
3608.55226	0.088929
3606.62358	0.089212
3604.69491	0.089495
3602.76623	0.089558
3600.83756	0.089588
3598.90888	0.089708
3596.98020	0.089784
3595.05153	0.089858
3593.12285	0.090059
3591.19418	0.090217
3589.26550	0.090171
3587.33683	0.090171
3585.40815	0.090453
3583.47947	0.090802
3581.55080	0.090943
3579.62212	0.090941
3577.69345	0.091020
3575.76477	0.091225
3573.83610	0.091408
3571.90742	0.091407
3569.97874	0.091290
3568.05007	0.091333
3566.12139	0.091582
3564.19272	0.091808
3562.26404	0.091963
3560.33537	0.092157
3558.40669	0.092322
3556.47801	0.092375
3554.54934	0.092443
3552.62066	0.092601
3550.69199	0.092700
3548.76331	0.092669
3546.83464	0.092695
3544.90596	0.092862
3542.97728	0.093003
3541.04861	0.093066
3539.11993	0.093182
3537.19126	0.093354
3535.26258	0.093444
3533.33391	0.093430
3531.40523	0.093466
3529.47655	0.093590
3527.54788	0.093621
3525.61920	0.093524
3523.69053	0.093537
3521.76185	0.093726
3519.83318	0.093866
3517.90450	0.093882
3515.97582	0.093940
3514.04715	0.094046
3512.11847	0.094045
3510.18980	0.093991
3508.26112	0.094076
3506.33245	0.094212
3504.40377	0.094201
3502.47509	0.094156
3500.54642	0.094251
3498.61774	0.094369
3496.68907	0.094356
3494.76039	0.094298
3492.83172	0.094349
3490.90304	0.094469
3488.97436	0.094509
3487.04569	0.094476
3485.11701	0.094513
3483.18834	0.094641
3481.25966	0.094725
3479.33099	0.094725
3477.40231	0.094807
3475.47363	0.095009
3473.54496	0.095153
3471.61628	0.095223
3469.68761	0.095375
3467.75893	0.095558
3465.83026	0.095615
3463.90158	0.095692
3461.97290	0.095982
3460.04423	0.096293
3458.11555	0.096409
3456.18688	0.096464
3454.25820	0.096658
3452.32953	0.096896
3450.40085	0.096980
3448.47217	0.096987
3446.54350	0.097133
3444.61482	0.097377
3442.68615	0.097551
3440.75747	0.097711
3438.82880	0.098007
3436.90012	0.098386
3434.97144	0.098679
3433.04277	0.098915
3431.11409	0.099260
3429.18542	0.099658
3427.25674	0.099940
3425.32807	0.100184
3423.39939	0.100531
3421.47071	0.100886
3419.54204	0.101131
3417.61336	0.101378
3415.68469	0.101732
3413.75601	0.102064
3411.82734	0.102239
3409.89866	0.102383
3407.96998	0.102646
3406.04131	0.102915
3404.11263	0.103054
3402.18396	0.103190
3400.25528	0.103440
3398.32661	0.103686
3396.39793	0.103821
3394.46925	0.103980
3392.54058	0.104302
3390.61190	0.104624
3388.68323	0.104761
3386.75455	0.104878
3384.82588	0.105159
3382.89720	0.105455
3380.96852	0.105594
3379.03985	0.105721
3377.11117	0.105984
3375.18250	0.106226
3373.25382	0.106337
3371.32515	0.106496
3369.39647	0.106796
3367.46779	0.107051
3365.53912	0.107170
3363.61044	0.107320
3361.68177	0.107580
3359.75309	0.107785
3357.82442	0.107845
3355.89574	0.107942
3353.96706	0.108223
3352.03839	0.108548
3350.10971	0.108728
3348.18104	0.108857
3346.25236	0.109106
3344.32369	0.109350
3342.39501	0.109450
3340.46633	0.109585
3338.53766	0.109862
3336.60898	0.110082
3334.68031	0.110183
3332.75163	0.110375
3330.82296	0.110686
3328.89428	0.110904
3326.96560	0.111008
3325.03693	0.111204
3323.10825	0.111509
3321.17958	0.111712
3319.25090	0.111802
3317.32223	0.111969
3315.39355	0.112229
3313.46487	0.112447
3311.53620	0.112582
3309.60752	0.112753
3307.67885	0.113061
3305.75017	0.113373
3303.82150	0.113540
3301.89282	0.113677
3299.96414	0.113902
3298.03547	0.114090
3296.10679	0.114186
3294.17812	0.114380
3292.24944	0.114729
3290.32077	0.115011
3288.39209	0.115155
3286.46341	0.115373
3284.53474	0.115707
3282.60606	0.115929
3280.67739	0.116020
3278.74871	0.116226
3276.82004	0.116557
3274.89136	0.116774
3272.96268	0.116860
3271.03401	0.117032
3269.10533	0.117376
3267.17666	0.117712
3265.24798	0.117900
3263.31931	0.118086
3261.39063	0.118378
3259.46195	0.118603
3257.53328	0.118683
3255.60460	0.118832
3253.67593	0.119146
3251.74725	0.119396
3249.81858	0.119481
3247.88990	0.119654
3245.96122	0.120019
3244.03255	0.120324
3242.10387	0.120489
3240.17520	0.120739
3238.24652	0.121069
3236.31785	0.121235
3234.38917	0.121288
3232.46049	0.121498
3230.53182	0.121820
3228.60314	0.121992
3226.67447	0.122043
3224.74579	0.122244
3222.81712	0.122633
3220.88844	0.122936
3218.95976	0.123045
3217.03109	0.123172
3215.10241	0.123431
3213.17374	0.123662
3211.24506	0.123780
3209.31639	0.123960
3207.38771	0.124279
3205.45903	0.124544
3203.53036	0.124705
3201.60168	0.124966
3199.67301	0.125311
3197.74433	0.125502
3195.81566	0.125610
3193.88698	0.125895
3191.95830	0.126266
3190.02963	0.126489
3188.10095	0.126659
3186.17228	0.126943
3184.24360	0.127231
3182.31493	0.127384
3180.38625	0.127492
3178.45757	0.127739
3176.52890	0.128072
3174.60022	0.128264
3172.67155	0.128362
3170.74287	0.128633
3168.81420	0.129025
3166.88552	0.129253
3164.95684	0.129342
3163.02817	0.129572
3161.09949	0.129928
3159.17082	0.130147
3157.24214	0.130245
3155.31347	0.130475
3153.38479	0.130808
3151.45611	0.131016
3149.52744	0.131158
3147.59876	0.131431
3145.67009	0.131724
3143.74141	0.131838
3141.81274	0.131919
3139.88406	0.132196
3137.95538	0.132549
3136.02671	0.132745
3134.09803	0.132866
3132.16936	0.133128
3130.24068	0.133469
3128.31201	0.133681
3126.38333	0.133815
3124.45465	0.134090
3122.52598	0.134445
3120.59730	0.134649
3118.66863	0.134786
3116.73995	0.135092
3114.81128	0.135427
3112.88260	0.135539
3110.95392	0.135615
3109.02525	0.135921
3107.09657	0.136271
3105.16790	0.136423
3103.23922	0.136563
3101.31055	0.136908
3099.38187	0.137260
3097.45319	0.137400
3095.52452	0.137529
3093.59584	0.137866
3091.66717	0.138208
3089.73849	0.138323
3087.80982	0.138375
3085.88114	0.138604
3083.95246	0.138915
3082.02379	0.139087
3080.09511	0.139207
3078.16644	0.139504
3076.23776	0.139864
3074.30909	0.140050
3072.38041	0.140202
3070.45173	0.140539
3068.52306	0.140870
3066.59438	0.140957
3064.66571	0.141038
3062.73703	0.141379
3060.80836	0.141762
3058.87968	0.141927
3056.95100	0.142036
3055.02233	0.142310
3053.09365	0.142625
3051.16498	0.142805
3049.23630	0.142954
3047.30763	0.143226
3045.37895	0.143528
3043.45027	0.143716
3041.52160	0.143904
3039.59292	0.144215
3037.66425	0.144479
3035.73557	0.144567
3033.80690	0.144695
3031.87822	0.145030
3029.94954	0.145366
3028.02087	0.145495
3026.09219	0.145625
3024.16352	0.145964
3022.23484	0.146272
3020.30617	0.146362
3018.37749	0.146508
3016.44881	0.146891
3014.52014	0.147237
3012.59146	0.147381
3010.66279	0.147562
3008.73411	0.147911
3006.80544	0.148212
3004.87676	0.148348
3002.94808	0.148495
3001.01941	0.148745
2999.09073	0.148961
2997.16206	0.149075
2995.23338	0.149260
2993.30471	0.149623
2991.37603	0.149931
2989.44735	0.150011
2987.51868	0.150117
2985.59000	0.150417
2983.66133	0.150656
2981.73265	0.150684
2979.80398	0.150725
2977.87530	0.150895
2975.94662	0.150939
2974.01795	0.150778
2972.08927	0.150740
2970.16060	0.150897
2968.23192	0.150913
2966.30325	0.150746
2964.37457	0.150728
2962.44589	0.150938
2960.51722	0.151150
2958.58854	0.151304
2956.65987	0.151566
2954.73119	0.151996
2952.80252	0.152387
2950.87384	0.152557
2948.94516	0.152683
2947.01649	0.152965
2945.08781	0.153209
2943.15914	0.153215
2941.23046	0.153201
2939.30179	0.153327
2937.37311	0.153352
2935.44443	0.153164
2933.51576	0.153030
2931.58708	0.153060
2929.65841	0.152997
2927.72973	0.152765
2925.80106	0.152654
2923.87238	0.152755
2921.94370	0.152810
2920.01503	0.152793
2918.08635	0.153047
2916.15768	0.153692
2914.22900	0.154472
2912.30033	0.155220
2910.37165	0.156022
2908.44297	0.156865
2906.51430	0.157471
2904.58562	0.157784
2902.65695	0.158126
2900.72827	0.158619
2898.79960	0.158992
2896.87092	0.159155
2894.94224	0.159447
2893.01357	0.159979
2891.08489	0.160389
2889.15622	0.160571
2887.22754	0.160858
2885.29887	0.161291
2883.37019	0.161529
2881.44151	0.161583
2879.51284	0.161793
2877.58416	0.162147
2875.65549	0.162362
2873.72681	0.162460
2871.79814	0.162691
2869.86946	0.163047
2867.94078	0.163286
2866.01211	0.163367
2864.08343	0.163490
2862.15476	0.163665
2860.22608	0.163670
2858.29741	0.163515
2856.36873	0.163464
2854.44005	0.163513
2852.51138	0.163442
2850.58270	0.163472
2848.65403	0.164029
2846.72535	0.164959
2844.79668	0.165786
2842.86800	0.166412
2840.93932	0.167059
2839.01065	0.167717
2837.08197	0.168141
2835.15330	0.168389
2833.22462	0.168750
2831.29595	0.169210
2829.36727	0.169509
2827.43859	0.169673
2825.50992	0.169973
2823.58124	0.170394
2821.65257	0.170688
2819.72389	0.170856
2817.79522	0.171154
2815.86654	0.171570
2813.93786	0.171816
2812.00919	0.171919
2810.08051	0.172172
2808.15184	0.172548
2806.22316	0.172769
2804.29449	0.172920
2802.36581	0.173297
2800.43713	0.173763
2798.50846	0.173980
2796.57978	0.174058
2794.65111	0.174333
2792.72243	0.174739
2790.79376	0.174985
2788.86508	0.175144
2786.93640	0.175457
2785.00773	0.175830
2783.07905	0.176046
2781.15038	0.176190
2779.22170	0.176468
2777.29303	0.176848
2775.36435	0.177104
2773.43567	0.177233
2771.50700	0.177491
2769.57832	0.177840
2767.64965	0.178024
2765.72097	0.178160
2763.79230	0.178512
2761.86362	0.178917
2759.93494	0.179088
2758.00627	0.179190
2756.07759	0.179503
2754.14892	0.179882
2752.22024	0.180068
2750.29157	0.180221
2748.36289	0.180583
2746.43421	0.180948
2744.50554	0.181065
2742.57686	0.181159
2740.64819	0.181491
2738.71951	0.181867
2736.79084	0.182021
2734.86216	0.182116
2732.93348	0.182423
2731.00481	0.182812
2729.07613	0.183018
2727.14746	0.183145
2725.21878	0.183422
2723.29011	0.183740
2721.36143	0.183895
2719.43275	0.184031
2717.50408	0.184367
2715.57540	0.184751
2713.64673	0.184955
2711.71805	0.185142
2709.78938	0.185503
2707.86070	0.185812
2705.93202	0.185885
2704.00335	0.185994
2702.07467	0.186316
2700.14600	0.186624
2698.21732	0.186784
2696.28865	0.186983
2694.35997	0.187339
2692.43129	0.187678
2690.50262	0.187841
2688.57394	0.187985
2686.64527	0.188294
2684.71659	0.188639
2682.78792	0.188836
2680.85924	0.189024
2678.93056	0.189400
2677.00189	0.189761
2675.07321	0.189880
2673.14454	0.190011
2671.21586	0.190372
2669.28719	0.190686
2667.35851	0.190762
2665.42983	0.190896
2663.50116	0.191265
2661.57248	0.191585
2659.64381	0.191714
2657.71513	0.191924
2655.78646	0.192324
2653.85778	0.192645
2651.92910	0.192781
2650.00043	0.192981
2648.07175	0.193372
2646.14308	0.193745
2644.21440	0.193924
2642.28573	0.194081
2640.35705	0.194421
2638.42837	0.194773
2636.49970	0.194933
2634.57102	0.195104
2632.64235	0.195503
2630.71367	0.195892
2628.78500	0.196043
2626.85632	0.196206
2624.92764	0.196602
2622.99897	0.196963
2621.07029	0.197101
2619.14162	0.197296
2617.21294	0.197686
2615.28427	0.198009
2613.35559	0.198145
2611.42691	0.198324
2609.49824	0.198736
2607.56956	0.199202
2605.64089	0.199461
2603.71221	0.199627
2601.78354	0.199925
2599.85486	0.200250
2597.92618	0.200447
2595.99751	0.200675
2594.06883	0.201078
2592.14016	0.201441
2590.21148	0.201568
2588.28281	0.201710
2586.35413	0.202101
2584.42545	0.202460
2582.49678	0.202552
2580.56810	0.202698
2578.63943	0.203099
2576.71075	0.203404
2574.78208	0.203474
2572.85340	0.203670
2570.92472	0.204108
2568.99605	0.204453
2567.06737	0.204603
2565.13870	0.204812
2563.21002	0.205151
2561.28135	0.205418
2559.35267	0.205554
2557.42399	0.205766
2555.49532	0.206158
2553.56664	0.206501
2551.63797	0.206643
2549.70929	0.206808
2547.78062	0.207169
2545.85194	0.207503
2543.92326	0.207647
2541.99459	0.207822
2540.06591	0.208162
2538.13724	0.208433
2536.20856	0.208560
2534.27989	0.208820
2532.35121	0.209224
2530.42253	0.209470
2528.49386	0.209566
2526.56518	0.209807
2524.63651	0.210215
2522.70783	0.210532
2520.77916	0.210688
2518.85048	0.210884
2516.92181	0.211202
2514.99313	0.211490
2513.06445	0.211677
2511.13578	0.211911
2509.20710	0.212287
2507.27843	0.212620
2505.34975	0.212784
2503.42108	0.213030
2501.49240	0.213477
2499.56372	0.213822
2497.63505	0.213972
2495.70637	0.214217
2493.77770	0.214605
2491.84902	0.214892
2489.92035	0.215072
2487.99167	0.215393
2486.06299	0.215873
2484.13432	0.216238
2482.20564	0.216411
2480.27697	0.216634
2478.34829	0.216995
2476.41962	0.217310
2474.49094	0.217512
2472.56226	0.217770
2470.63359	0.218159
2468.70491	0.218499
2466.77624	0.218709
2464.84756	0.218968
2462.91889	0.219339
2460.99021	0.219615
2459.06153	0.219748
2457.13286	0.219995
2455.20418	0.220405
2453.27551	0.220691
2451.34683	0.220793
2449.41816	0.220991
2447.48948	0.221356
2445.56080	0.221647
2443.63213	0.221833
2441.70345	0.222153
2439.77478	0.222596
2437.84610	0.222914
2435.91743	0.223105
2433.98875	0.223387
2432.06007	0.223771
2430.13140	0.224056
2428.20272	0.224224
2426.27405	0.224478
2424.34537	0.224840
2422.41670	0.225106
2420.48802	0.225281
2418.55934	0.225598
2416.63067	0.226017
2414.70199	0.226247
2412.77332	0.226327
2410.84464	0.226596
2408.91597	0.227044
2406.98729	0.227327
2405.05861	0.227468
2403.12994	0.227786
2401.20126	0.228213
2399.27259	0.228455
2397.34391	0.228612
2395.41524	0.228950
2393.48656	0.229354
2391.55788	0.229576
2389.62921	0.229697
2387.70053	0.229945
2385.77186	0.230277
2383.84318	0.230475
2381.91451	0.230527
2379.98583	0.230582
2378.05715	0.230680
2376.12848	0.230720
2374.19980	0.230670
2372.27113	0.230702
2370.34245	0.230851
2368.41378	0.230922
2366.48510	0.230939
2364.55642	0.231131
2362.62775	0.231456
2360.69907	0.231698
2358.77040	0.231915
2356.84172	0.232291
2354.91305	0.232752
2352.98437	0.233203
2351.05569	0.233709
2349.12702	0.234199
2347.19834	0.234456
2345.26967	0.234457
2343.34099	0.234469
2341.41232	0.234715
2339.48364	0.235091
2337.55496	0.235401
2335.62629	0.235645
2333.69761	0.235952
2331.76894	0.236308
2329.84026	0.236548
2327.91159	0.236723
2325.98291	0.237080
2324.05423	0.237566
2322.12556	0.237898
2320.19688	0.238128
2318.26821	0.238559
2316.33953	0.239111
2314.41086	0.239487
2312.48218	0.239773
2310.55350	0.240193
2308.62483	0.240634
2306.69615	0.240902
2304.76748	0.241102
2302.83880	0.241421
2300.91013	0.241797
2298.98145	0.242102
2297.05277	0.242385
2295.12410	0.242754
2293.19542	0.243151
2291.26675	0.243412
2289.33807	0.243608
2287.40940	0.243957
2285.48072	0.244353
2283.55204	0.244553
2281.62337	0.244682
2279.69469	0.244991
2277.76602	0.245373
2275.83734	0.245593
2273.90867	0.245752
2271.97999	0.246057
2270.05131	0.246396
2268.12264	0.246585
2266.19396	0.246783
2264.26529	0.247151
2262.33661	0.247521
2260.40794	0.247756
2258.47926	0.247978
2256.55058	0.248298
2254.62191	0.248646
2252.69323	0.248899
2250.76456	0.249103
2248.83588	0.249416
2246.90721	0.249807
2244.97853	0.250090
2243.04985	0.250269
2241.12118	0.250522
2239.19250	0.250867
2237.26383	0.251143
2235.33515	0.251347
2233.40648	0.251631
2231.47780	0.251938
2229.54912	0.252128
2227.62045	0.252332
2225.69177	0.252656
2223.76310	0.252931
2221.83442	0.253116
2219.90575	0.253405
2217.97707	0.253790
2216.04839	0.254059
2214.11972	0.254197
2212.19104	0.254403
2210.26237	0.254739
2208.33369	0.255049
2206.40502	0.255221
2204.47634	0.255359
2202.54766	0.255616
2200.61899	0.255961
2198.69031	0.256239
2196.76164	0.256462
2194.83296	0.256780
2192.90429	0.257129
2190.97561	0.257316
2189.04693	0.257438
2187.11826	0.257708
2185.18958	0.257987
2183.26091	0.258141
2181.33223	0.258383
2179.40356	0.258787
2177.47488	0.259108
2175.54620	0.259296
2173.61753	0.259531
2171.68885	0.259814
2169.76018	0.260063
2167.83150	0.260302
2165.90283	0.260569
2163.97415	0.260874
2162.04547	0.261177
2160.11680	0.261396
2158.18812	0.261585
2156.25945	0.261892
2154.33077	0.262261
2152.40210	0.262491
2150.47342	0.262653
2148.54474	0.262975
2146.61607	0.263341
2144.68739	0.263520
2142.75872	0.263640
2140.83004	0.263884
2138.90137	0.264156
2136.97269	0.264379
2135.04401	0.264634
2133.11534	0.264963
2131.18666	0.265287
2129.25799	0.265560
2127.32931	0.265861
2125.40064	0.266219
2123.47196	0.266508
2121.54328	0.266685
2119.61461	0.266874
2117.68593	0.267144
2115.75726	0.267403
2113.82858	0.267579
2111.89991	0.267769
2109.97123	0.268092
2108.04255	0.268448
2106.11388	0.268661
2104.18520	0.268795
2102.25653	0.269042
2100.32785	0.269370
2098.39918	0.269657
2096.47050	0.269976
2094.54182	0.270366
2092.61315	0.270623
2090.68447	0.270736
2088.75580	0.270968
2086.82712	0.271285
2084.89845	0.271495
2082.96977	0.271679
2081.04109	0.271934
2079.11242	0.272207
2077.18374	0.272458
2075.25507	0.272693
2073.32639	0.272957
2071.39772	0.273282
2069.46904	0.273588
2067.54036	0.273800
2065.61169	0.274038
2063.68301	0.274373
2061.75434	0.274598
2059.82566	0.274667
2057.89699	0.274850
2055.96831	0.275174
2054.03963	0.275414
2052.11096	0.275575
2050.18228	0.275828
2048.25361	0.276168
2046.32493	0.276429
2044.39626	0.276609
2042.46758	0.276843
2040.53890	0.277129
2038.61023	0.277374
2036.68155	0.277588
2034.75288	0.277856
2032.82420	0.278151
2030.89553	0.278359
2028.96685	0.278484
2027.03817	0.278682
2025.10950	0.279063
2023.18082	0.279507
2021.25215	0.279803
2019.32347	0.279983
2017.39480	0.280238
2015.46612	0.280526
2013.53744	0.280707
2011.60877	0.280908
2009.68009	0.281233
2007.75142	0.281537
2005.82274	0.281781
2003.89407	0.282097
2001.96539	0.282412
2000.03671	0.282551
1998.10804	0.282641
1996.17936	0.282857
1994.25069	0.283105
1992.32201	0.283341
1990.39334	0.283641
1988.46466	0.283985
1986.53598	0.284302
1984.60731	0.284539
1982.67863	0.284692
1980.74996	0.284868
1978.82128	0.285136
1976.89261	0.285388
1974.96393	0.285565
1973.03525	0.285761
1971.10658	0.285981
1969.17790	0.286098
1967.24923	0.286189
1965.32055	0.286463
1963.39188	0.286872
1961.46320	0.287185
1959.53452	0.287348
1957.60585	0.287547
1955.67717	0.287872
1953.74850	0.288185
1951.81982	0.288420
1949.89115	0.288625
1947.96247	0.288819
1946.03379	0.288983
1944.10512	0.289108
1942.17644	0.289344
1940.24777	0.289800
1938.31909	0.290236
1936.39042	0.290433
1934.46174	0.290567
1932.53306	0.290806
1930.60439	0.291013
1928.67571	0.291195
1926.74704	0.291541
1924.81836	0.291909
1922.88969	0.292034
1920.96101	0.291910
1919.03233	0.291821
1917.10366	0.292159
1915.17498	0.292750
1913.24631	0.293115
1911.31763	0.293294
1909.38896	0.293501
1907.46028	0.293785
1905.53160	0.294157
1903.60293	0.294523
1901.67425	0.294787
1899.74558	0.294956
1897.81690	0.295039
1895.88823	0.295138
1893.95955	0.295415
1892.03087	0.295698
1890.10220	0.295814
1888.17352	0.296040
1886.24485	0.296440
1884.31617	0.296739
1882.38750	0.296919
1880.45882	0.297169
1878.53014	0.297467
1876.60147	0.297685
1874.67279	0.297907
1872.74412	0.298149
1870.81544	0.298176
1868.88677	0.298086
1866.95809	0.298356
1865.02941	0.298962
1863.10074	0.299421
1861.17206	0.299654
1859.24339	0.299917
1857.31471	0.300267
1855.38604	0.300591
1853.45736	0.300837
1851.52868	0.300999
1849.60001	0.301127
1847.67133	0.301193
1845.74266	0.301084
1843.81398	0.301153
1841.88531	0.301755
1839.95663	0.302448
1838.02795	0.302776
1836.09928	0.302936
1834.17060	0.303097
1832.24193	0.303021
1830.31325	0.302874
1828.38458	0.303113
1826.45590	0.303574
1824.52722	0.304045
1822.59855	0.304584
1820.66987	0.305039
1818.74120	0.305319
1816.81252	0.305545
1814.88385	0.305719
1812.95517	0.305728
1811.02649	0.305735
1809.09782	0.306025
1807.16914	0.306402
1805.24047	0.306512
1803.31179	0.306417
1801.38312	0.306407
1799.45444	0.306634
1797.52576	0.306975
1795.59709	0.307171
1793.66841	0.307130
1791.73974	0.307156
1789.81106	0.307598
1787.88239	0.308204
1785.95371	0.308505
1784.02503	0.308519
1782.09636	0.308564
1780.16768	0.308829
1778.23901	0.309138
1776.31033	0.309054
1774.38166	0.308587
1772.45298	0.308372
1770.52430	0.308600
1768.59563	0.308981
1766.66695	0.309546
1764.73828	0.310052
1762.80960	0.310217
1760.88093	0.310293
1758.95225	0.310243
1757.02357	0.310158
1755.09490	0.310322
1753.16622	0.310255
1751.23755	0.309773
1749.30887	0.309571
1747.38020	0.309838
1745.45152	0.310095
1743.52284	0.310201
1741.59417	0.310307
1739.66549	0.310392
1737.73682	0.310071
1735.80814	0.309169
1733.87947	0.308706
1731.95079	0.309323
1730.02211	0.310266
1728.09344	0.311084
1726.16476	0.311696
1724.23609	0.311988
1722.30741	0.311879
1720.37874	0.311206
1718.45006	0.310608
1716.52138	0.310869
1714.59271	0.311732
1712.66403	0.312585
1710.73536	0.313103
1708.80668	0.313184
1706.87801	0.313018
1704.94933	0.312948
1703.02065	0.312649
1701.09198	0.311944
1699.16330	0.311548
1697.23463	0.311609
1695.30595	0.312197
1693.37728	0.313329
1691.44860	0.313989
1689.51992	0.313937
1687.59125	0.313484
1685.66257	0.312624
1683.73390	0.312270
1681.80522	0.312926
1679.87655	0.313709
1677.94787	0.313970
1676.01919	0.313909
1674.09052	0.313912
1672.16184	0.313802
1670.23317	0.313508
1668.30449	0.313709
1666.37582	0.314371
1664.44714	0.314752
1662.51846	0.314860
1660.58979	0.314985
1658.66111	0.315007
1656.73244	0.314289
1654.80376	0.312727
1652.87509	0.312167
1650.94641	0.313429
1649.01773	0.314342
1647.08906	0.314089
1645.16038	0.314245
1643.23171	0.315066
1641.30303	0.315552
1639.37436	0.315363
1637.44568	0.314872
1635.51700	0.314807
1633.58833	0.315466
1631.65965	0.316158
1629.73098	0.316243
1627.80230	0.315923
1625.87363	0.315432
1623.94495	0.314801
1622.01627	0.314299
1620.08760	0.314137
1618.15892	0.314502
1616.23025	0.315475
1614.30157	0.316621
1612.37290	0.317499
1610.44422	0.318079
1608.51554	0.318501
1606.58687	0.318873
1604.65819	0.319225
1602.72952	0.319598
1600.80084	0.319987
1598.87217	0.320314
1596.94349	0.320568
1595.01481	0.320812
1593.08614	0.321064
1591.15746	0.321295
1589.22879	0.321489
1587.30011	0.321712
1585.37144	0.322047
1583.44276	0.322398
1581.51408	0.322639
1579.58541	0.322573
1577.65673	0.322169
1575.72806	0.322168
1573.79938	0.322829
1571.87071	0.323148
1569.94203	0.322951
1568.01335	0.323081
1566.08468	0.323593
1564.15600	0.324033
1562.22733	0.323846
1560.29865	0.322774
1558.36998	0.322062
1556.44130	0.322795
1554.51262	0.324081
1552.58395	0.324813
1550.65527	0.325055
1548.72660	0.325289
1546.79792	0.325364
1544.86925	0.324758
1542.94057	0.323832
1541.01189	0.323606
1539.08322	0.324421
1537.15454	0.325481
1535.22587	0.325974
1533.29719	0.326283
1531.36852	0.326770
1529.43984	0.326911
1527.51116	0.326754
1525.58249	0.326666
1523.65381	0.326373
1521.72514	0.326173
1519.79646	0.326584
1517.86779	0.327067
1515.93911	0.327233
1514.01043	0.327397
1512.08176	0.327497
1510.15308	0.327079
1508.22441	0.326477
1506.29573	0.326808
1504.36706	0.327954
1502.43838	0.328688
1500.50970	0.328637
1498.58103	0.328098
1496.65235	0.327736
1494.72368	0.328137
1492.79500	0.328572
1490.86633	0.328299
1488.93765	0.327956
1487.00897	0.328097
1485.08030	0.328293
1483.15162	0.328113
1481.22295	0.327760
1479.29427	0.327361
1477.36560	0.326624
1475.43692	0.325624
1473.50824	0.324921
1471.57957	0.324786
1469.65089	0.324844
1467.72222	0.324524
1465.79354	0.323929
1463.86487	0.323704
1461.93619	0.323691
1460.00751	0.322976
1458.07884	0.321876
1456.15016	0.321779
1454.22149	0.322653
1452.29281	0.323337
1450.36414	0.323527
1448.43546	0.323620
1446.50678	0.323831
1444.57811	0.324124
1442.64943	0.324472
1440.72076	0.324705
1438.79208	0.324570
1436.86341	0.324494
1434.93473	0.324992
1433.00605	0.325594
1431.07738	0.325809
1429.14870	0.325952
1427.22003	0.326183
1425.29135	0.326338
1423.36268	0.326280
1421.43400	0.325610
1419.50532	0.324878
1417.57665	0.325329
1415.64797	0.326459
1413.71930	0.327059
1411.79062	0.327177
1409.86195	0.327258
1407.93327	0.327281
1406.00459	0.327142
1404.07592	0.327050
1402.14724	0.327015
1400.21857	0.326795
1398.28989	0.326491
1396.36122	0.326373
1394.43254	0.326560
1392.50386	0.326847
1390.57519	0.326805
1388.64651	0.326360
1386.71784	0.325856
1384.78916	0.325620
1382.86049	0.325724
1380.93181	0.325928
1379.00313	0.325968
1377.07446	0.325824
1375.14578	0.325624
1373.21711	0.325635
1371.28843	0.325900
1369.35976	0.326110
1367.43108	0.326136
1365.50240	0.326023
1363.57373	0.325874
1361.64505	0.325911
1359.71638	0.326156
1357.78770	0.326451
1355.85903	0.326747
1353.93035	0.327018
1352.00167	0.327242
1350.07300	0.327501
1348.14432	0.327747
1346.21565	0.327827
1344.28697	0.327789
1342.35830	0.327657
1340.42962	0.327409
1338.50094	0.327345
1336.57227	0.327564
1334.64359	0.327687
1332.71492	0.327607
1330.78624	0.327492
1328.85757	0.327294
1326.92889	0.326965
1325.00021	0.326691
1323.07154	0.326540
1321.14286	0.326309
1319.21419	0.325964
1317.28551	0.325687
1315.35684	0.325400
1313.42816	0.325022
1311.49948	0.324736
1309.57081	0.324475
1307.64213	0.324066
1305.71346	0.323686
1303.78478	0.323435
1301.85611	0.323114
1299.92743	0.322694
1297.99875	0.322346
1296.07008	0.322064
1294.14140	0.321751
1292.21273	0.321430
1290.28405	0.321090
1288.35538	0.320693
1286.42670	0.320361
1284.49802	0.320152
1282.56935	0.319827
1280.64067	0.319277
1278.71200	0.318675
1276.78332	0.318025
1274.85465	0.317257
1272.92597	0.316402
1270.99729	0.315381
1269.06862	0.313980
1267.13994	0.312304
1265.21127	0.310865
1263.28259	0.309884
1261.35392	0.309281
1259.42524	0.309106
1257.49656	0.309272
1255.56789	0.309416
1253.63921	0.309267
1251.71054	0.308856
1249.78186	0.308239
1247.85319	0.307447
1245.92451	0.306626
1243.99583	0.305780
1242.06716	0.304815
1240.13848	0.303804
1238.20981	0.302809
1236.28113	0.301765
1234.35246	0.300698
1232.42378	0.299721
1230.49510	0.298770
1228.56643	0.297767
1226.63775	0.296841
1224.70908	0.296022
1222.78040	0.295160
1220.85173	0.294266
1218.92305	0.293389
1216.99437	0.292424
1215.06570	0.291400
1213.13702	0.290440
1211.20835	0.289484
1209.27967	0.288462
1207.35100	0.287440
1205.42232	0.286468
1203.49364	0.285480
1201.56497	0.284442
1199.63629	0.283422
1197.70762	0.282410
1195.77894	0.281321
1193.85027	0.280211
1191.92159	0.279150
1189.99291	0.278054
1188.06424	0.276849
1186.13556	0.275527
1184.20689	0.274076
1182.27821	0.272584
1180.34954	0.271186
1178.42086	0.269854
1176.49218	0.268449
1174.56351	0.266965
1172.63483	0.265489
1170.70616	0.263997
1168.77748	0.262497
1166.84881	0.261069
1164.92013	0.259638
1162.99145	0.258132
1161.06278	0.256700
1159.13410	0.255360
1157.20543	0.253966
1155.27675	0.252606
1153.34808	0.251357
1151.41940	0.250106
1149.49072	0.248864
1147.56205	0.247627
1145.63337	0.246251
1143.70470	0.244778
1141.77602	0.243369
1139.84735	0.241930
1137.91867	0.240233
1135.98999	0.238294
1134.06132	0.236187
1132.13264	0.233727
1130.20397	0.230787
1128.27529	0.227554
1126.34662	0.224117
1124.41794	0.220428
1122.48926	0.216716
1120.56059	0.213208
1118.63191	0.209773
1116.70324	0.206418
1114.77456	0.203457
1112.84589	0.201011
1110.91721	0.199024
1108.98853	0.197539
1107.05986	0.196509
1105.13118	0.195837
1103.20251	0.195646
1101.27383	0.195994
1099.34516	0.196638
1097.41648	0.197456
1095.48780	0.198599
1093.55913	0.199947
1091.63045	0.201165
1089.70178	0.202296
1087.77310	0.203503
1085.84443	0.204590
1083.91575	0.205338
1081.98707	0.205869
1080.05840	0.206336
1078.12972	0.206723
1076.20105	0.207041
1074.27237	0.207283
1072.34370	0.207419
1070.41502	0.207539
1068.48634	0.207773
1066.55767	0.208115
1064.62899	0.208496
1062.70032	0.208935
1060.77164	0.209407
1058.84297	0.209869
1056.91429	0.210395
1054.98561	0.210921
1053.05694	0.211349
1051.12826	0.211818
1049.19959	0.212437
1047.27091	0.213089
1045.34224	0.213679
1043.41356	0.214311
1041.48488	0.215039
1039.55621	0.215762
1037.62753	0.216457
1035.69886	0.217157
1033.77018	0.217816
1031.84151	0.218437
1029.91283	0.219049
1027.98415	0.219596
1026.05548	0.220137
1024.12680	0.220808
1022.19813	0.221511
1020.26945	0.222126
1018.34078	0.222803
1016.41210	0.223653
1014.48342	0.224563
1012.55475	0.225523
1010.62607	0.226688
1008.69740	0.227937
1006.76872	0.228997
1004.84005	0.229965
1002.91137	0.230951
1000.98269	0.231711
999.05402	0.232194
997.12534	0.232671
995.19667	0.233140
993.26799	0.233422
991.33932	0.233623
989.41064	0.233857
987.48196	0.234075
985.55329	0.234311
983.62461	0.234574
981.69594	0.234682
979.76726	0.234609
977.83859	0.234537
975.90991	0.234418
973.98123	0.234201
972.05256	0.234098
970.12388	0.234047
968.19521	0.233786
966.26653	0.233467
964.33786	0.233326
962.40918	0.233135
960.48050	0.232739
958.55183	0.232424
956.62315	0.232271
954.69448	0.232026
952.76580	0.231634
950.83713	0.231217
948.90845	0.230761
946.97977	0.230270
945.05110	0.229907
943.12242	0.229567
941.19375	0.228919
939.26507	0.228041
937.33640	0.227139
935.40772	0.226166
933.47904	0.225235
931.55037	0.224435
929.62169	0.223519
927.69302	0.222401
925.76434	0.221351
923.83567	0.220421
921.90699	0.219290
919.97831	0.217953
918.04964	0.216704
916.12096	0.215421
914.19229	0.213924
912.26361	0.212486
910.33494	0.211216
908.40626	0.209913
906.47758	0.208677
904.54891	0.207652
902.62023	0.206639
900.69156	0.205561
898.76288	0.204573
896.83421	0.203607
894.90553	0.202543
892.97685	0.201574
891.04818	0.200750
889.11950	0.199898
887.19083	0.199131
885.26215	0.198561
883.33348	0.197963
881.40480	0.197230
879.47612	0.196584
877.54745	0.196113
875.61877	0.195650
873.69010	0.195194
871.76142	0.194821
869.83275	0.194407
867.90407	0.193946
865.97539	0.193588
864.04672	0.193266
862.11804	0.192942
860.18937	0.192776
858.26069	0.192654
856.33202	0.192369
854.40334	0.192059
852.47466	0.191842
850.54599	0.191557
848.61731	0.191154
846.68864	0.190776
844.75996	0.190364
842.83129	0.189848
840.90261	0.189408
838.97394	0.189026
837.04526	0.188438
835.11658	0.187527
833.18791	0.186380
831.25923	0.185041
829.33056	0.183518
827.40188	0.181991
825.47321	0.180530
823.54453	0.179088
821.61585	0.177872
819.68718	0.176991
817.75850	0.176211
815.82983	0.175533
813.90115	0.175145
811.97248	0.174812
810.04380	0.174308
808.11512	0.173939
806.18645	0.173883
804.25777	0.173939
802.32910	0.173961
800.40042	0.173657
798.47175	0.172734
796.54307	0.171657
794.61439	0.171032
792.68572	0.170730
790.75704	0.170456
788.82837	0.170245
786.89969	0.170091
784.97102	0.169753
783.04234	0.169241
781.11366	0.168886
779.18499	0.168692
777.25631	0.168419
775.32764	0.168088
773.39896	0.167745
771.47029	0.167279
769.54161	0.166713
767.61293	0.166148
765.68426	0.165496
763.75558	0.164756
761.82691	0.164107
759.89823	0.163435
757.96956	0.162613
756.04088	0.161852
754.11220	0.161120
752.18353	0.160207
750.25485	0.159249
748.32618	0.158331
746.39750	0.157185
744.46883	0.155744
742.54015	0.154329
740.61147	0.153159
738.68280	0.152390
736.75412	0.152171
734.82545	0.152276
732.89677	0.152368
730.96810	0.152434
729.03942	0.152629
727.11074	0.152942
725.18207	0.153235
723.25339	0.153500
721.32472	0.153732
719.39604	0.153931
717.46737	0.154368
715.53869	0.155286
713.61001	0.156381
711.68134	0.157173
709.75266	0.157633
707.82399	0.157849
705.89531	0.157774
703.96664	0.157602
702.03796	0.157441
700.10928	0.157020
698.18061	0.156287
696.25193	0.155447
694.32326	0.154527
692.39458	0.153592
690.46591	0.152848
688.53723	0.152224
686.60855	0.151549
684.67988	0.150956
682.75120	0.150491
680.82253	0.149832
678.89385	0.148890
676.96518	0.147971
675.03650	0.147082
673.10782	0.145975
671.17915	0.144710
669.25047	0.143450
667.32180	0.142168
665.39312	0.140897
663.46445	0.139805
661.53577	0.138719
659.60709	0.137345
657.67842	0.135965
655.74974	0.134778
653.82107	0.133518
651.89239	0.132321
649.96372	0.131333
648.03504	0.130130
646.10636	0.128609
644.17769	0.127146
642.24901	0.125681
640.32034	0.123949
638.39166	0.122196
636.46299	0.120530
634.53431	0.118648
632.60563	0.116180
630.67696	0.112142
628.74828	0.105839
626.81961	0.098089
624.89093	0.090453
622.96226	0.084479
621.03358	0.080782
619.10490	0.078784
617.17623	0.077563
615.24755	0.076112
613.31888	0.074104
611.39020	0.072298
609.46153	0.071431
607.53285	0.071607
605.60417	0.072458
603.67550	0.073503
601.74682	0.074665
599.81815	0.076187
597.88947	0.077856
595.96080	0.079015
594.03212	0.079578
592.10344	0.080081
590.17477	0.080548
588.24609	0.080573
586.31742	0.080262
584.38874	0.079796
582.46007	0.079091
580.53139	0.078320
578.60271	0.077699
576.67404	0.077041
574.74536	0.076103
572.81669	0.074985
570.88801	0.073795
568.95934	0.072513
567.03066	0.071515
565.10198	0.071134
563.17331	0.070914
561.24463	0.070470
559.31596	0.069988
557.38728	0.069478
555.45861	0.068860
553.52993	0.068356
551.60125	0.068011
549.67258	0.067545
547.74390	0.067025
545.81523	0.066791
543.88655	0.066722
541.95788	0.066482
540.02920	0.066074
538.10052	0.065645
536.17185	0.065204
534.24317	0.064804
532.31450	0.064470
530.38582	0.063938
528.45715	0.063160
526.52847	0.062532
524.59979	0.062043
522.67112	0.061299
520.74244	0.060434
518.81377	0.059584
516.88509	0.058432
514.95642	0.057248
513.02774	0.056608
511.09906	0.056333
509.17039	0.056042
507.24171	0.055742
505.31304	0.055351
503.38436	0.054640
501.45569	0.053840
499.52701	0.053246
497.59833	0.052475
495.66966	0.051292
493.74098	0.050136
491.81231	0.049182
489.88363	0.048240
487.95496	0.047426
486.02628	0.046742
484.09760	0.045887
482.16893	0.044938
480.24025	0.044064
478.31158	0.043053
476.38290	0.041894
474.45423	0.040895
472.52555	0.040048
470.59687	0.039206
468.66820	0.038628
466.73952	0.038412
464.81085	0.038129
462.88217	0.037675
460.95350	0.037362
459.02482	0.037109
457.09614	0.036790
455.16747	0.036802
453.23879	0.037174
451.31012	0.037277
449.38144	0.036954
447.45277	0.036540
445.52409	0.036097
443.59541	0.035732
441.66674	0.035659
439.73806	0.035512
437.80939	0.034849
435.88071	0.033962
433.95204	0.033105
432.02336	0.032071
430.09468	0.031052
428.16601	0.030359
426.23733	0.029499
424.30866	0.028111
422.37998	0.026794
420.45131	0.025771
418.52263	0.024637
416.59395	0.023570
414.66528	0.022738
412.73660	0.021683
410.80793	0.020432
408.87925	0.019520
406.95058	0.018829
405.02190	0.017830
403.09322	0.016626
401.16455	0.015536
399.23587	0.014446
397.30720	0.013450
395.37852	0.012731
393.44985	0.012014
391.52117	0.011208
389.59249	0.010524
387.66382	0.009816
385.73514	0.008931
383.80647	0.008131
381.87779	0.007554
379.94912	0.007035
378.02044	0.006576
376.09176	0.006226
374.16309	0.005642
372.23441	0.004749
370.30574	0.004143
368.37706	0.003853
