7496.76250	0.001870
7494.83382	0.001908
7492.90514	0.001876
7490.97647	0.001852
7489.04779	0.001876
7487.11912	0.001890
7485.19044	0.001861
7483.26177	0.001864
7481.33309	0.001926
7479.40441	0.001949
7477.47574	0.001908
7475.54706	0.001905
7473.61839	0.001963
7471.68971	0.001977
7469.76104	0.001936
7467.83236	0.001944
7465.90368	0.001993
7463.97501	0.001978
7462.04633	0.001922
7460.11766	0.001935
7458.18898	0.002000
7456.26031	0.002013
7454.33163	0.001972
7452.40295	0.001965
7450.47428	0.002006
7448.54560	0.002020
7446.61693	0.001988
7444.68825	0.001984
7442.75958	0.002016
7440.83090	0.002005
7438.90222	0.001968
7436.97355	0.001993
7435.04487	0.002054
7433.11620	0.002047
7431.18752	0.002005
7429.25885	0.002027
7427.33017	0.002064
7425.40149	0.002037
7423.47282	0.002017
7421.54414	0.002073
7419.61547	0.002121
7417.68679	0.002075
7415.75812	0.002011
7413.82944	0.002037
7411.90076	0.002094
7409.97209	0.002080
7408.04341	0.002055
7406.11474	0.002100
7404.18606	0.002140
7402.25739	0.002097
7400.32871	0.002059
7398.40003	0.002103
7396.47136	0.002138
7394.54268	0.002109
7392.61401	0.002108
7390.68533	0.002165
7388.75666	0.002182
7386.82798	0.002128
7384.89930	0.002109
7382.97063	0.002174
7381.04195	0.002213
7379.11328	0.002165
7377.18460	0.002142
7375.25593	0.002206
7373.32725	0.002230
7371.39857	0.002158
7369.46990	0.002128
7367.54122	0.002192
7365.61255	0.002215
7363.68387	0.002160
7361.75520	0.002157
7359.82652	0.002234
7357.89784	0.002265
7355.96917	0.002218
7354.04049	0.002199
7352.11182	0.002234
7350.18314	0.002227
7348.25447	0.002178
7346.32579	0.002199
7344.39711	0.002270
7342.46844	0.002263
7340.53976	0.002199
7338.61109	0.002211
7336.68241	0.002283
7334.75374	0.002299
7332.82506	0.002267
7330.89638	0.002281
7328.96771	0.002322
7327.03903	0.002305
7325.11036	0.002265
7323.18168	0.002291
7321.25301	0.002335
7319.32433	0.002315
7317.39565	0.002288
7315.46698	0.002329
7313.53830	0.002370
7311.60963	0.002329
7309.68095	0.002289
7307.75228	0.002334
7305.82360	0.002368
7303.89492	0.002320
7301.96625	0.002294
7300.03757	0.002362
7298.10890	0.002425
7296.18022	0.002399
7294.25155	0.002364
7292.32287	0.002400
7290.39419	0.002431
7288.46552	0.002391
7286.53684	0.002374
7284.60817	0.002428
7282.67949	0.002449
7280.75082	0.002402
7278.82214	0.002394
7276.89346	0.002455
7274.96479	0.002463
7273.03611	0.002396
7271.10744	0.002395
7269.17876	0.002473
7267.25009	0.002487
7265.32141	0.002417
7263.39273	0.002401
7261.46406	0.002472
7259.53538	0.002506
7257.60671	0.002467
7255.67803	0.002453
7253.74936	0.002481
7251.82068	0.002469
7249.89200	0.002429
7247.96333	0.002451
7246.03465	0.002515
7244.10598	0.002509
7242.17730	0.002449
7240.24863	0.002466
7238.31995	0.002553
7236.39127	0.002572
7234.46260	0.002528
7232.53392	0.002550
7230.60525	0.002611
7228.67657	0.002588
7226.74790	0.002529
7224.81922	0.002558
7222.89054	0.002615
7220.96187	0.002595
7219.03319	0.002557
7217.10452	0.002581
7215.17584	0.002609
7213.24717	0.002579
7211.31849	0.002559
7209.38981	0.002605
7207.46114	0.002637
7205.53246	0.002594
7203.60379	0.002564
7201.67511	0.002620
7199.74644	0.002670
7197.81776	0.002642
7195.88908	0.002627
7193.96041	0.002687
7192.03173	0.002719
7190.10306	0.002662
7188.17438	0.002631
7186.24571	0.002682
7184.31703	0.002708
7182.38835	0.002664
7180.45968	0.002662
7178.53100	0.002737
7176.60233	0.002765
7174.67365	0.002708
7172.74498	0.002690
7170.81630	0.002754
7168.88762	0.002775
7166.95895	0.002713
7165.03027	0.002685
7163.10160	0.002737
7161.17292	0.002764
7159.24425	0.002724
7157.31557	0.002723
7155.38689	0.002792
7153.45822	0.002810
7151.52954	0.002756
7149.60087	0.002747
7147.67219	0.002791
7145.74352	0.002784
7143.81484	0.002738
7141.88616	0.002767
7139.95749	0.002843
7138.02881	0.002833
7136.10014	0.002775
7134.17146	0.002806
7132.24279	0.002884
7130.31411	0.002879
7128.38543	0.002830
7126.45676	0.002849
7124.52808	0.002899
7122.59941	0.002879
7120.67073	0.002829
7118.74206	0.002850
7116.81338	0.002893
7114.88470	0.002859
7112.95603	0.002814
7111.02735	0.002860
7109.09868	0.002927
7107.17000	0.002908
7105.24133	0.002866
7103.31265	0.002899
7101.38397	0.002948
7099.45530	0.002930
7097.52662	0.002906
7095.59795	0.002949
7093.66927	0.002985
7091.74060	0.002946
7089.81192	0.002925
7087.88324	0.002984
7085.95457	0.003011
7084.02589	0.002949
7082.09722	0.002934
7080.16854	0.003026
7078.23987	0.003081
7076.31119	0.003030
7074.38251	0.002991
7072.45384	0.003027
7070.52516	0.003043
7068.59649	0.003000
7066.66781	0.003004
7064.73914	0.003082
7062.81046	0.003109
7060.88178	0.003058
7058.95311	0.003051
7057.02443	0.003107
7055.09576	0.003109
7053.16708	0.003056
7051.23841	0.003072
7049.30973	0.003149
7047.38105	0.003151
7045.45238	0.003093
7043.52370	0.003105
7041.59503	0.003164
7039.66635	0.003154
7037.73768	0.003104
7035.80900	0.003126
7033.88032	0.003191
7031.95165	0.003181
7030.02297	0.003123
7028.09430	0.003136
7026.16562	0.003194
7024.23695	0.003185
7022.30827	0.003141
7020.37959	0.003159
7018.45092	0.003190
7016.52224	0.003149
7014.59357	0.003116
7012.66489	0.003178
7010.73622	0.003251
7008.80754	0.003236
7006.87886	0.003197
7004.95019	0.003234
7003.02151	0.003287
7001.09284	0.003260
6999.16416	0.003225
6997.23549	0.003272
6995.30681	0.003322
6993.37813	0.003289
6991.44946	0.003258
6989.52078	0.003310
6987.59211	0.003351
6985.66343	0.003300
6983.73476	0.003262
6981.80608	0.003320
6979.87740	0.003375
6977.94873	0.003347
6976.02005	0.003327
6974.09138	0.003372
6972.16270	0.003380
6970.23403	0.003310
6968.30535	0.003286
6966.37667	0.003356
6964.44800	0.003391
6962.51932	0.003341
6960.59065	0.003327
6958.66197	0.003398
6956.73330	0.003438
6954.80462	0.003387
6952.87594	0.003364
6950.94727	0.003428
6949.01859	0.003457
6947.08992	0.003415
6945.16124	0.003435
6943.23257	0.003517
6941.30389	0.003514
6939.37521	0.003439
6937.44654	0.003448
6935.51786	0.003524
6933.58919	0.003523
6931.66051	0.003467
6929.73184	0.003483
6927.80316	0.003539
6925.87448	0.003517
6923.94581	0.003463
6922.01713	0.003494
6920.08846	0.003561
6918.15978	0.003538
6916.23111	0.003470
6914.30243	0.003492
6912.37375	0.003565
6910.44508	0.003564
6908.51640	0.003528
6906.58773	0.003564
6904.65905	0.003624
6902.73038	0.003611
6900.80170	0.003579
6898.87302	0.003614
6896.94435	0.003649
6895.01567	0.003605
6893.08700	0.003568
6891.15832	0.003634
6889.22965	0.003716
6887.30097	0.003702
6885.37229	0.003657
6883.44362	0.003683
6881.51494	0.003719
6879.58627	0.003682
6877.65759	0.003654
6875.72892	0.003712
6873.80024	0.003753
6871.87156	0.003706
6869.94289	0.003689
6868.01421	0.003765
6866.08554	0.003814
6864.15686	0.003776
6862.22819	0.003763
6860.29951	0.003816
6858.37083	0.003826
6856.44216	0.003770
6854.51348	0.003765
6852.58481	0.003845
6850.65613	0.003890
6848.72746	0.003840
6846.79878	0.003806
6844.87010	0.003838
6842.94143	0.003846
6841.01275	0.003816
6839.08408	0.003841
6837.15540	0.003922
6835.22673	0.003944
6833.29805	0.003889
6831.36937	0.003876
6829.44070	0.003922
6827.51202	0.003912
6825.58335	0.003859
6823.65467	0.003896
6821.72600	0.003995
6819.79732	0.004001
6817.86864	0.003938
6815.93997	0.003957
6814.01129	0.004025
6812.08262	0.004007
6810.15394	0.003950
6808.22527	0.003995
6806.29659	0.004091
6804.36791	0.004076
6802.43924	0.004000
6800.51056	0.004037
6798.58189	0.004133
6796.65321	0.004110
6794.72454	0.004030
6792.79586	0.004055
6790.86718	0.004126
6788.93851	0.004103
6787.00983	0.004048
6785.08116	0.004087
6783.15248	0.004162
6781.22381	0.004147
6779.29513	0.004101
6777.36645	0.004148
6775.43778	0.004209
6773.50910	0.004169
6771.58043	0.004124
6769.65175	0.004174
6767.72308	0.004215
6765.79440	0.004172
6763.86572	0.004154
6761.93705	0.004220
6760.00837	0.004258
6758.07970	0.004205
6756.15102	0.004177
6754.22235	0.004253
6752.29367	0.004308
6750.36499	0.004255
6748.43632	0.004231
6746.50764	0.004313
6744.57897	0.004360
6742.65029	0.004306
6740.72162	0.004286
6738.79294	0.004354
6736.86426	0.004377
6734.93559	0.004312
6733.00691	0.004295
6731.07824	0.004365
6729.14956	0.004385
6727.22089	0.004321
6725.29221	0.004319
6723.36353	0.004422
6721.43486	0.004470
6719.50618	0.004405
6717.57751	0.004382
6715.64883	0.004450
6713.72016	0.004469
6711.79148	0.004426
6709.86280	0.004449
6707.93413	0.004529
6706.00545	0.004532
6704.07678	0.004466
6702.14810	0.004471
6700.21943	0.004538
6698.29075	0.004526
6696.36207	0.004461
6694.43340	0.004480
6692.50472	0.004552
6690.57605	0.004553
6688.64737	0.004520
6686.71870	0.004565
6684.79002	0.004634
6682.86134	0.004613
6680.93267	0.004555
6679.00399	0.004584
6677.07532	0.004667
6675.14664	0.004673
6673.21797	0.004627
6671.28929	0.004648
6669.36061	0.004699
6667.43194	0.004679
6665.50326	0.004639
6663.57459	0.004676
6661.64591	0.004741
6659.71724	0.004735
6657.78856	0.004703
6655.85988	0.004742
6653.93121	0.004795
6652.00253	0.004762
6650.07386	0.004722
6648.14518	0.004789
6646.21651	0.004865
6644.28783	0.004835
6642.35915	0.004803
6640.43048	0.004867
6638.50180	0.004908
6636.57313	0.004851
6634.64445	0.004817
6632.71578	0.004879
6630.78710	0.004922
6628.85842	0.004882
6626.92975	0.004879
6625.00107	0.004955
6623.07240	0.004966
6621.14372	0.004883
6619.21505	0.004866
6617.28637	0.004963
6615.35769	0.005027
6613.42902	0.004986
6611.50034	0.004960
6609.57167	0.005020
6607.64299	0.005050
6605.71432	0.004988
6603.78564	0.004975
6601.85696	0.005062
6599.92829	0.005095
6597.99961	0.005033
6596.07094	0.005024
6594.14226	0.005090
6592.21359	0.005108
6590.28491	0.005073
6588.35623	0.005099
6586.42756	0.005173
6584.49888	0.005167
6582.57021	0.005104
6580.64153	0.005134
6578.71286	0.005219
6576.78418	0.005203
6574.85550	0.005130
6572.92683	0.005160
6570.99815	0.005251
6569.06948	0.005242
6567.14080	0.005175
6565.21213	0.005214
6563.28345	0.005296
6561.35477	0.005254
6559.42610	0.005170
6557.49742	0.005217
6555.56875	0.005316
6553.64007	0.005302
6551.71140	0.005253
6549.78272	0.005311
6547.85404	0.005389
6545.92537	0.005357
6543.99669	0.005309
6542.06802	0.005369
6540.13934	0.005439
6538.21067	0.005395
6536.28199	0.005350
6534.35331	0.005419
6532.42464	0.005489
6530.49596	0.005458
6528.56729	0.005428
6526.63861	0.005487
6524.70994	0.005539
6522.78126	0.005491
6520.85258	0.005450
6518.92391	0.005508
6516.99523	0.005554
6515.06656	0.005511
6513.13788	0.005498
6511.20921	0.005578
6509.28053	0.005616
6507.35185	0.005548
6505.42318	0.005523
6503.49450	0.005604
6501.56583	0.005647
6499.63715	0.005602
6497.70848	0.005601
6495.77980	0.005677
6493.85112	0.005694
6491.92245	0.005625
6489.99377	0.005617
6488.06510	0.005696
6486.13642	0.005714
6484.20775	0.005654
6482.27907	0.005670
6480.35039	0.005774
6478.42172	0.005808
6476.49304	0.005753
6474.56437	0.005753
6472.63569	0.005820
6470.70702	0.005825
6468.77834	0.005769
6466.84966	0.005782
6464.92099	0.005865
6462.99231	0.005874
6461.06364	0.005814
6459.13496	0.005839
6457.20629	0.005934
6455.27761	0.005939
6453.34893	0.005867
6451.42026	0.005883
6449.49158	0.005974
6447.56291	0.005978
6445.63423	0.005908
6443.70556	0.005924
6441.77688	0.005999
6439.84820	0.005982
6437.91953	0.005930
6435.99085	0.005988
6434.06218	0.006077
6432.13350	0.006050
6430.20483	0.005996
6428.27615	0.006059
6426.34747	0.006147
6424.41880	0.006120
6422.49012	0.006068
6420.56145	0.006131
6418.63277	0.006212
6416.70410	0.006176
6414.77542	0.006122
6412.84674	0.006176
6410.91807	0.006243
6408.98939	0.006204
6407.06072	0.006161
6405.13204	0.006237
6403.20337	0.006326
6401.27469	0.006285
6399.34601	0.006218
6397.41734	0.006259
6395.48866	0.006311
6393.55999	0.006272
6391.63131	0.006257
6389.70264	0.006350
6387.77396	0.006406
6385.84528	0.006349
6383.91661	0.006323
6381.98793	0.006401
6380.05926	0.006446
6378.13058	0.006397
6376.20191	0.006389
6374.27323	0.006473
6372.34455	0.006508
6370.41588	0.006449
6368.48720	0.006444
6366.55853	0.006531
6364.62985	0.006556
6362.70118	0.006484
6360.77250	0.006486
6358.84382	0.006604
6356.91515	0.006642
6354.98647	0.006564
6353.05780	0.006555
6351.12912	0.006640
6349.20045	0.006663
6347.27177	0.006611
6345.34309	0.006624
6343.41442	0.006710
6341.48574	0.006721
6339.55707	0.006661
6337.62839	0.006679
6335.69972	0.006756
6333.77104	0.006753
6331.84236	0.006703
6329.91369	0.006750
6327.98501	0.006857
6326.05634	0.006864
6324.12766	0.006788
6322.19899	0.006791
6320.27031	0.006866
6318.34163	0.006864
6316.41296	0.006816
6314.48428	0.006862
6312.55561	0.006941
6310.62693	0.006913
6308.69826	0.006860
6306.76958	0.006934
6304.84090	0.007047
6302.91223	0.007024
6300.98355	0.006949
6299.05488	0.007012
6297.12620	0.007117
6295.19753	0.007082
6293.26885	0.007004
6291.34017	0.007040
6289.41150	0.007112
6287.48282	0.007087
6285.55415	0.007040
6283.62547	0.007099
6281.69680	0.007182
6279.76812	0.007159
6277.83944	0.007122
6275.91077	0.007187
6273.98209	0.007255
6272.05342	0.007205
6270.12474	0.007160
6268.19607	0.007243
6266.26739	0.007311
6264.33871	0.007246
6262.41004	0.007201
6260.48136	0.007282
6258.55269	0.007340
6256.62401	0.007282
6254.69534	0.007273
6252.76666	0.007389
6250.83798	0.007455
6248.90931	0.007398
6246.98063	0.007386
6245.05196	0.007480
6243.12328	0.007519
6241.19461	0.007454
6239.26593	0.007445
6237.33725	0.007534
6235.40858	0.007549
6233.47990	0.007462
6231.55123	0.007461
6229.62255	0.007575
6227.69388	0.007609
6225.76520	0.007533
6223.83652	0.007546
6221.90785	0.007674
6219.97917	0.007718
6218.05050	0.007651
6216.12182	0.007655
6214.19315	0.007743
6212.26447	0.007746
6210.33579	0.007675
6208.40712	0.007705
6206.47844	0.007825
6204.54977	0.007845
6202.62109	0.007758
6200.69242	0.007756
6198.76374	0.007854
6196.83506	0.007872
6194.90639	0.007810
6192.97771	0.007838
6191.04904	0.007935
6189.12036	0.007934
6187.19169	0.007865
6185.26301	0.007901
6183.33433	0.007995
6181.40566	0.007977
6179.47698	0.007913
6177.54831	0.007970
6175.61963	0.008082
6173.69096	0.008079
6171.76228	0.008014
6169.83360	0.008052
6167.90493	0.008129
6165.97625	0.008102
6164.04758	0.008061
6162.11890	0.008142
6160.19023	0.008228
6158.26155	0.008183
6156.33287	0.008140
6154.40420	0.008230
6152.47552	0.008318
6150.54685	0.008273
6148.61817	0.008211
6146.68950	0.008258
6144.76082	0.008310
6142.83214	0.008283
6140.90347	0.008284
6138.97479	0.008373
6137.04612	0.008427
6135.11744	0.008372
6133.18877	0.008343
6131.26009	0.008443
6129.33141	0.008523
6127.40274	0.008466
6125.47406	0.008419
6123.54539	0.008500
6121.61671	0.008568
6119.68804	0.008519
6117.75936	0.008488
6115.83068	0.008573
6113.90201	0.008631
6111.97333	0.008572
6110.04466	0.008562
6108.11598	0.008680
6106.18731	0.008744
6104.25863	0.008682
6102.32995	0.008660
6100.40128	0.008745
6098.47260	0.008772
6096.54393	0.008690
6094.61525	0.008676
6092.68658	0.008779
6090.75790	0.008821
6088.82922	0.008767
6086.90055	0.008787
6084.97187	0.008896
6083.04320	0.008918
6081.11452	0.008850
6079.18585	0.008869
6077.25717	0.008976
6075.32849	0.008993
6073.39982	0.008915
6071.47114	0.008921
6069.54247	0.009026
6067.61379	0.009061
6065.68512	0.008999
6063.75644	0.009011
6061.82776	0.009099
6059.89909	0.009104
6057.97041	0.009055
6056.04174	0.009105
6054.11306	0.009203
6052.18439	0.009193
6050.25571	0.009137
6048.32703	0.009204
6046.39836	0.009317
6044.46968	0.009298
6042.54101	0.009219
6040.61233	0.009258
6038.68366	0.009348
6036.75498	0.009326
6034.82630	0.009269
6032.89763	0.009335
6030.96895	0.009441
6029.04028	0.009426
6027.11160	0.009375
6025.18293	0.009438
6023.25425	0.009523
6021.32557	0.009492
6019.39690	0.009445
6017.46822	0.009529
6015.53955	0.009632
6013.61087	0.009587
6011.68220	0.009521
6009.75352	0.009611
6007.82484	0.009724
6005.89617	0.009685
6003.96749	0.009625
6002.03882	0.009706
6000.11014	0.009790
5998.18147	0.009725
5996.25279	0.009658
5994.32411	0.009732
5992.39544	0.009809
5990.46676	0.009768
5988.53809	0.009749
5986.60941	0.009850
5984.68074	0.009926
5982.75206	0.009880
5980.82338	0.009864
5978.89471	0.009978
5976.96603	0.010053
5975.03736	0.009985
5973.10868	0.009949
5971.18001	0.010052
5969.25133	0.010117
5967.32265	0.010050
5965.39398	0.010038
5963.46530	0.010151
5961.53663	0.010187
5959.60795	0.010093
5957.67928	0.010077
5955.75060	0.010180
5953.82192	0.010209
5951.89325	0.010140
5949.96457	0.010166
5948.03590	0.010316
5946.10722	0.010385
5944.17855	0.010313
5942.24987	0.010301
5940.32119	0.010401
5938.39252	0.010426
5936.46384	0.010348
5934.53517	0.010354
5932.60649	0.010466
5930.67782	0.010497
5928.74914	0.010433
5926.82046	0.010462
5924.89179	0.010581
5922.96311	0.010599
5921.03444	0.010530
5919.10576	0.010561
5917.17709	0.010663
5915.24841	0.010647
5913.31973	0.010561
5911.39106	0.010603
5909.46238	0.010720
5907.53371	0.010717
5905.60503	0.010657
5903.67636	0.010720
5901.74768	0.010828
5899.81900	0.010804
5897.89033	0.010727
5895.96165	0.010781
5894.03298	0.010888
5892.10430	0.010870
5890.17563	0.010812
5888.24695	0.010881
5886.31827	0.010986
5884.38960	0.010960
5882.46092	0.010912
5880.53225	0.011002
5878.60357	0.011104
5876.67490	0.011068
5874.74622	0.011018
5872.81755	0.011102
5870.88887	0.011188
5868.96019	0.011130
5867.03152	0.011076
5865.10284	0.011178
5863.17417	0.011282
5861.24549	0.011239
5859.31682	0.011191
5857.38814	0.011274
5855.45946	0.011361
5853.53079	0.011311
5851.60211	0.011248
5849.67344	0.011328
5847.74476	0.011429
5845.81609	0.011396
5843.88741	0.011357
5841.95873	0.011443
5840.03006	0.011511
5838.10138	0.011448
5836.17271	0.011422
5834.24403	0.011533
5832.31536	0.011593
5830.38668	0.011524
5828.45800	0.011517
5826.52933	0.011653
5824.60065	0.011750
5822.67198	0.011714
5820.74330	0.011705
5818.81463	0.011801
5816.88595	0.011831
5814.95727	0.011741
5813.02860	0.011730
5811.09992	0.011847
5809.17125	0.011882
5807.24257	0.011799
5805.31390	0.011814
5803.38522	0.011956
5801.45654	0.012000
5799.52787	0.011918
5797.59919	0.011936
5795.67052	0.012078
5793.74184	0.012120
5791.81317	0.012050
5789.88449	0.012086
5787.95581	0.012222
5786.02714	0.012225
5784.09846	0.012120
5782.16979	0.012156
5780.24111	0.012304
5778.31244	0.012320
5776.38376	0.012222
5774.45508	0.012245
5772.52641	0.012381
5770.59773	0.012418
5768.66906	0.012357
5766.74038	0.012396
5764.81171	0.012524
5762.88303	0.012537
5760.95435	0.012466
5759.02568	0.012522
5757.09700	0.012640
5755.16833	0.012596
5753.23965	0.012479
5751.31098	0.012524
5749.38230	0.012653
5747.45362	0.012650
5745.52495	0.012588
5743.59627	0.012656
5741.66760	0.012777
5739.73892	0.012774
5737.81025	0.012729
5735.88157	0.012811
5733.95289	0.012930
5732.02422	0.012915
5730.09554	0.012858
5728.16687	0.012928
5726.23819	0.013022
5724.30952	0.012983
5722.38084	0.012919
5720.45216	0.012992
5718.52349	0.013085
5716.59481	0.013042
5714.66614	0.012996
5712.73746	0.013095
5710.80879	0.013188
5708.88011	0.013129
5706.95143	0.013076
5705.02276	0.013175
5703.09408	0.013272
5701.16541	0.013223
5699.23673	0.013196
5697.30806	0.013325
5695.37938	0.013423
5693.45070	0.013355
5691.52203	0.013319
5689.59335	0.013449
5687.66468	0.013560
5685.73600	0.013523
5683.80733	0.013506
5681.87865	0.013614
5679.94997	0.013666
5678.02130	0.013577
5676.09262	0.013554
5674.16395	0.013684
5672.23527	0.013761
5670.30660	0.013691
5668.37792	0.013685
5666.44924	0.013832
5664.52057	0.013911
5662.59189	0.013835
5660.66322	0.013814
5658.73454	0.013922
5656.80587	0.013967
5654.87719	0.013887
5652.94851	0.013888
5651.01984	0.014019
5649.09116	0.014071
5647.16249	0.014009
5645.23381	0.014036
5643.30514	0.014163
5641.37646	0.014171
5639.44778	0.014078
5637.51911	0.014129
5635.59043	0.014288
5633.66176	0.014299
5631.73308	0.014193
5629.80441	0.014219
5627.87573	0.014363
5625.94705	0.014396
5624.01838	0.014329
5622.08970	0.014378
5620.16103	0.014512
5618.23235	0.014512
5616.30368	0.014428
5614.37500	0.014480
5612.44632	0.014605
5610.51765	0.014581
5608.58897	0.014497
5606.66030	0.014571
5604.73162	0.014712
5602.80295	0.014707
5600.87427	0.014628
5598.94559	0.014693
5597.01692	0.014844
5595.08824	0.014849
5593.15957	0.014776
5591.23089	0.014850
5589.30222	0.014971
5587.37354	0.014928
5585.44486	0.014842
5583.51619	0.014925
5581.58751	0.015062
5579.65884	0.015047
5577.73016	0.014980
5575.80149	0.015058
5573.87281	0.015190
5571.94413	0.015184
5570.01546	0.015130
5568.08678	0.015219
5566.15811	0.015347
5564.22943	0.015307
5562.30076	0.015227
5560.37208	0.015315
5558.44340	0.015420
5556.51473	0.015359
5554.58605	0.015312
5552.65738	0.015451
5550.72870	0.015562
5548.80003	0.015473
5546.87135	0.015414
5544.94267	0.015561
5543.01400	0.015694
5541.08532	0.015625
5539.15665	0.015550
5537.22797	0.015655
5535.29930	0.015768
5533.37062	0.015733
5531.44194	0.015716
5529.51327	0.015843
5527.58459	0.015941
5525.65592	0.015886
5523.72724	0.015856
5521.79857	0.015975
5519.86989	0.016057
5517.94121	0.015978
5516.01254	0.015942
5514.08386	0.016069
5512.15519	0.016144
5510.22651	0.016069
5508.29784	0.016052
5506.36916	0.016178
5504.44048	0.016244
5502.51181	0.016185
5500.58313	0.016200
5498.65446	0.016328
5496.72578	0.016356
5494.79711	0.016262
5492.86843	0.016278
5490.93975	0.016436
5489.01108	0.016497
5487.08240	0.016412
5485.15373	0.016419
5483.22505	0.016571
5481.29638	0.016625
5479.36770	0.016539
5477.43902	0.016565
5475.51035	0.016732
5473.58167	0.016778
5471.65300	0.016687
5469.72432	0.016718
5467.79565	0.016882
5465.86697	0.016914
5463.93829	0.016802
5462.00962	0.016808
5460.08094	0.016952
5458.15227	0.016994
5456.22359	0.016934
5454.29492	0.017002
5452.36624	0.017142
5450.43756	0.017125
5448.50889	0.017025
5446.58021	0.017083
5444.65154	0.017228
5442.72286	0.017214
5440.79419	0.017127
5438.86551	0.017216
5436.93683	0.017363
5435.00816	0.017336
5433.07948	0.017251
5431.15081	0.017334
5429.22213	0.017498
5427.29346	0.017505
5425.36478	0.017433
5423.43610	0.017523
5421.50743	0.017673
5419.57875	0.017637
5417.65008	0.017528
5415.72140	0.017596
5413.79273	0.017740
5411.86405	0.017717
5409.93537	0.017632
5408.00670	0.017723
5406.07802	0.017861
5404.14935	0.017820
5402.22067	0.017755
5400.29200	0.017883
5398.36332	0.018033
5396.43464	0.017990
5394.50597	0.017927
5392.57729	0.018044
5390.64862	0.018163
5388.71994	0.018107
5386.79127	0.018057
5384.86259	0.018175
5382.93391	0.018266
5381.00524	0.018171
5379.07656	0.018109
5377.14789	0.018251
5375.21921	0.018397
5373.29054	0.018360
5371.36186	0.018321
5369.43318	0.018452
5367.50451	0.018563
5365.57583	0.018508
5363.64716	0.018493
5361.71848	0.018646
5359.78981	0.018746
5357.86113	0.018658
5355.93245	0.018603
5354.00378	0.018721
5352.07510	0.018797
5350.14643	0.018719
5348.21775	0.018722
5346.28908	0.018883
5344.36040	0.018945
5342.43172	0.018843
5340.50305	0.018835
5338.57437	0.018991
5336.64570	0.019073
5334.71702	0.019008
5332.78835	0.019028
5330.85967	0.019187
5328.93099	0.019244
5327.00232	0.019156
5325.07364	0.019165
5323.14497	0.019303
5321.21629	0.019337
5319.28762	0.019252
5317.35894	0.019292
5315.43026	0.019452
5313.50159	0.019481
5311.57291	0.019385
5309.64424	0.019411
5307.71556	0.019571
5305.78689	0.019621
5303.85821	0.019554
5301.92953	0.019593
5300.00086	0.019712
5298.07218	0.019699
5296.14351	0.019621
5294.21483	0.019702
5292.28616	0.019865
5290.35748	0.019878
5288.42880	0.019805
5286.50013	0.019887
5284.57145	0.020062
5282.64278	0.020061
5280.71410	0.019949
5278.78543	0.020002
5276.85675	0.020157
5274.92807	0.020152
5272.99940	0.020067
5271.07072	0.020163
5269.14205	0.020348
5267.21337	0.020344
5265.28470	0.020236
5263.35602	0.020298
5261.42734	0.020458
5259.49867	0.020456
5257.56999	0.020365
5255.64132	0.020444
5253.71264	0.020611
5251.78397	0.020604
5249.85529	0.020522
5247.92661	0.020625
5245.99794	0.020785
5244.06926	0.020755
5242.14059	0.020685
5240.21191	0.020799
5238.28324	0.020938
5236.35456	0.020882
5234.42588	0.020794
5232.49721	0.020893
5230.56853	0.021014
5228.63986	0.020949
5226.71118	0.020871
5224.78251	0.020993
5222.85383	0.021139
5220.92515	0.021104
5218.99648	0.021050
5217.06780	0.021167
5215.13913	0.021295
5213.21045	0.021258
5211.28178	0.021224
5209.35310	0.021349
5207.42442	0.021454
5205.49575	0.021396
5203.56707	0.021353
5201.63840	0.021470
5199.70972	0.021569
5197.78105	0.021515
5195.85237	0.021505
5193.92369	0.021658
5191.99502	0.021756
5190.06634	0.021680
5188.13767	0.021653
5186.20899	0.021804
5184.28032	0.021913
5182.35164	0.021842
5180.42296	0.021810
5178.49429	0.021938
5176.56561	0.022009
5174.63694	0.021940
5172.70826	0.021966
5170.77959	0.022138
5168.85091	0.022196
5166.92223	0.022084
5164.99356	0.022081
5163.06488	0.022252
5161.13621	0.022322
5159.20753	0.022237
5157.27886	0.022268
5155.35018	0.022467
5153.42150	0.022548
5151.49283	0.022436
5149.56415	0.022424
5147.63548	0.022597
5145.70680	0.022672
5143.77813	0.022579
5141.84945	0.022580
5139.92077	0.022727
5137.99210	0.022777
5136.06342	0.022697
5134.13475	0.022740
5132.20607	0.022916
5130.27740	0.022945
5128.34872	0.022822
5126.42004	0.022843
5124.49137	0.023019
5122.56269	0.023071
5120.63402	0.023003
5118.70534	0.023069
5116.77667	0.023233
5114.84799	0.023245
5112.91931	0.023152
5110.99064	0.023217
5109.06196	0.023386
5107.13329	0.023385
5105.20461	0.023295
5103.27594	0.023385
5101.34726	0.023564
5099.41858	0.023559
5097.48991	0.023463
5095.56123	0.023549
5093.63256	0.023715
5091.70388	0.023704
5089.77521	0.023639
5087.84653	0.023770
5085.91785	0.023967
5083.98918	0.023960
5082.06050	0.023853
5080.13183	0.023897
5078.20315	0.024013
5076.27448	0.023981
5074.34580	0.023912
5072.41712	0.024034
5070.48845	0.024203
5068.55977	0.024192
5066.63110	0.024136
5064.70242	0.024242
5062.77375	0.024382
5060.84507	0.024357
5058.91639	0.024308
5056.98772	0.024433
5055.05904	0.024570
5053.13037	0.024513
5051.20169	0.024428
5049.27302	0.024528
5047.34434	0.024650
5045.41566	0.024585
5043.48699	0.024511
5041.55831	0.024646
5039.62964	0.024806
5037.70096	0.024782
5035.77229	0.024749
5033.84361	0.024890
5031.91493	0.025017
5029.98626	0.024942
5028.05758	0.024875
5026.12891	0.025013
5024.20023	0.025140
5022.27156	0.025090
5020.34288	0.025087
5018.41420	0.025258
5016.48553	0.025358
5014.55685	0.025259
5012.62818	0.025216
5010.69950	0.025375
5008.77083	0.025492
5006.84215	0.025423
5004.91347	0.025419
5002.98480	0.025598
5001.05612	0.025689
4999.12745	0.025592
4997.19877	0.025580
4995.27010	0.025760
4993.34142	0.025863
4991.41274	0.025761
4989.48407	0.025719
4987.55539	0.025886
4985.62672	0.026013
4983.69804	0.025945
4981.76937	0.025914
4979.84069	0.026050
4977.91201	0.026125
4975.98334	0.026063
4974.05466	0.026103
4972.12599	0.026288
4970.19731	0.026355
4968.26864	0.026265
4966.33996	0.026281
4964.41128	0.026427
4962.48261	0.026455
4960.55393	0.026373
4958.62526	0.026433
4956.69658	0.026607
4954.76791	0.026631
4952.83923	0.026523
4950.91055	0.026583
4948.98188	0.026817
4947.05320	0.026883
4945.12453	0.026753
4943.19585	0.026769
4941.26718	0.026964
4939.33850	0.027028
4937.40982	0.026938
4935.48115	0.026971
4933.55247	0.027129
4931.62380	0.027144
4929.69512	0.027058
4927.76645	0.027133
4925.83777	0.027312
4923.90909	0.027335
4921.98042	0.027250
4920.05174	0.027310
4918.12307	0.027479
4916.19439	0.027510
4914.26572	0.027444
4912.33704	0.027533
4910.40836	0.027719
4908.47969	0.027737
4906.55101	0.027652
4904.62234	0.027731
4902.69366	0.027902
4900.76499	0.027892
4898.83631	0.027795
4896.90763	0.027882
4894.97896	0.028068
4893.05028	0.028090
4891.12161	0.028018
4889.19293	0.028117
4887.26426	0.028301
4885.33558	0.028284
4883.40690	0.028171
4881.47823	0.028251
4879.54955	0.028408
4877.62088	0.028381
4875.69220	0.028308
4873.76353	0.028427
4871.83485	0.028593
4869.90617	0.028574
4867.97750	0.028515
4866.04882	0.028650
4864.12015	0.028811
4862.19147	0.028765
4860.26280	0.028707
4858.33412	0.028862
4856.40544	0.029017
4854.47677	0.028949
4852.54809	0.028879
4850.61942	0.029031
4848.69074	0.029188
4846.76207	0.029145
4844.83339	0.029094
4842.90471	0.029221
4840.97604	0.029331
4839.04736	0.029261
4837.11869	0.029224
4835.19001	0.029386
4833.26134	0.029526
4831.33266	0.029472
4829.40398	0.029452
4827.47531	0.029633
4825.54663	0.029768
4823.61796	0.029692
4821.68928	0.029660
4819.76061	0.029846
4817.83193	0.029995
4815.90325	0.029917
4813.97458	0.029850
4812.04590	0.029981
4810.11723	0.030101
4808.18855	0.030059
4806.25988	0.030049
4804.33120	0.030182
4802.40252	0.030262
4800.47385	0.030210
4798.54517	0.030239
4796.61650	0.030410
4794.68782	0.030478
4792.75915	0.030391
4790.83047	0.030409
4788.90179	0.030598
4786.97312	0.030706
4785.04444	0.030656
4783.11577	0.030689
4781.18709	0.030870
4779.25842	0.030943
4777.32974	0.030835
4775.40106	0.030829
4773.47239	0.031009
4771.54371	0.031090
4769.61504	0.031004
4767.68636	0.031031
4765.75769	0.031235
4763.82901	0.031348
4761.90033	0.031279
4759.97166	0.031278
4758.04298	0.031425
4756.11431	0.031482
4754.18563	0.031414
4752.25696	0.031464
4750.32828	0.031619
4748.39960	0.031651
4746.47093	0.031580
4744.54225	0.031635
4742.61358	0.031799
4740.68490	0.031828
4738.75623	0.031744
4736.82755	0.031812
4734.89887	0.032015
4732.97020	0.032087
4731.04152	0.032030
4729.11285	0.032095
4727.18417	0.032271
4725.25550	0.032311
4723.32682	0.032250
4721.39814	0.032334
4719.46947	0.032505
4717.54079	0.032515
4715.61212	0.032434
4713.68344	0.032513
4711.75477	0.032688
4709.82609	0.032701
4707.89741	0.032625
4705.96874	0.032707
4704.04006	0.032876
4702.11139	0.032907
4700.18271	0.032865
4698.25404	0.032960
4696.32536	0.033117
4694.39668	0.033122
4692.46801	0.033070
4690.53933	0.033176
4688.61066	0.033348
4686.68198	0.033369
4684.75331	0.033324
4682.82463	0.033420
4680.89595	0.033568
4678.96728	0.033567
4677.03860	0.033526
4675.10993	0.033658
4673.18125	0.033823
4671.25258	0.033800
4669.32390	0.033738
4667.39522	0.033852
4665.46655	0.034003
4663.53787	0.033996
4661.60920	0.033965
4659.68052	0.034077
4657.75185	0.034188
4655.82317	0.034159
4653.89449	0.034169
4651.96582	0.034353
4650.03714	0.034501
4648.10847	0.034461
4646.17979	0.034442
4644.25112	0.034599
4642.32244	0.034725
4640.39376	0.034661
4638.46509	0.034617
4636.53641	0.034776
4634.60774	0.034929
4632.67906	0.034880
4630.75039	0.034845
4628.82171	0.035009
4626.89303	0.035152
4624.96436	0.035111
4623.03568	0.035090
4621.10701	0.035249
4619.17833	0.035396
4617.24966	0.035371
4615.32098	0.035347
4613.39230	0.035469
4611.46363	0.035575
4609.53495	0.035564
4607.60628	0.035603
4605.67760	0.035765
4603.74893	0.035853
4601.82025	0.035784
4599.89157	0.035794
4597.96290	0.035974
4596.03422	0.036062
4594.10555	0.035991
4592.17687	0.036041
4590.24820	0.036261
4588.31952	0.036358
4586.39084	0.036279
4584.46217	0.036299
4582.53349	0.036480
4580.60482	0.036565
4578.67614	0.036499
4576.74747	0.036539
4574.81879	0.036732
4572.89011	0.036831
4570.96144	0.036808
4569.03276	0.036872
4567.10409	0.037017
4565.17541	0.037028
4563.24674	0.036930
4561.31806	0.036975
4559.38938	0.037183
4557.46071	0.037310
4555.53203	0.037293
4553.60336	0.037347
4551.67468	0.037516
4549.74601	0.037586
4547.81733	0.037534
4545.88865	0.037571
4543.95998	0.037707
4542.03130	0.037748
4540.10263	0.037708
4538.17395	0.037803
4536.24528	0.038015
4534.31660	0.038098
4532.38792	0.038041
4530.45925	0.038080
4528.53057	0.038238
4526.60190	0.038302
4524.67322	0.038267
4522.74455	0.038349
4520.81587	0.038543
4518.88719	0.038608
4516.95852	0.038550
4515.02984	0.038618
4513.10117	0.038800
4511.17249	0.038880
4509.24382	0.038883
4507.31514	0.038976
4505.38646	0.039097
4503.45779	0.039090
4501.52911	0.039045
4499.60044	0.039152
4497.67176	0.039339
4495.74309	0.039397
4493.81441	0.039379
4491.88573	0.039494
4489.95706	0.039672
4488.02838	0.039699
4486.09971	0.039658
4484.17103	0.039755
4482.24236	0.039917
4480.31368	0.039968
4478.38500	0.039970
4476.45633	0.040075
4474.52765	0.040199
4472.59898	0.040196
4470.67030	0.040187
4468.74163	0.040331
4466.81295	0.040497
4464.88427	0.040499
4462.95560	0.040446
4461.02692	0.040547
4459.09825	0.040722
4457.16957	0.040777
4455.24090	0.040795
4453.31222	0.040920
4451.38354	0.041039
4449.45487	0.041026
4447.52619	0.041015
4445.59752	0.041162
4443.66884	0.041338
4441.74017	0.041354
4439.81149	0.041318
4437.88281	0.041399
4435.95414	0.041518
4434.02546	0.041552
4432.09679	0.041602
4430.16811	0.041769
4428.23944	0.041912
4426.31076	0.041908
4424.38208	0.041907
4422.45341	0.042043
4420.52473	0.042180
4418.59606	0.042200
4416.66738	0.042218
4414.73871	0.042347
4412.81003	0.042474
4410.88135	0.042490
4408.95268	0.042527
4407.02400	0.042684
4405.09533	0.042784
4403.16665	0.042740
4401.23798	0.042745
4399.30930	0.042888
4397.38062	0.043013
4395.45195	0.043044
4393.52327	0.043114
4391.59460	0.043298
4389.66592	0.043439
4387.73725	0.043436
4385.80857	0.043445
4383.87989	0.043570
4381.95122	0.043667
4380.02254	0.043658
4378.09387	0.043702
4376.16519	0.043862
4374.23652	0.043978
4372.30784	0.043992
4370.37916	0.044044
4368.45049	0.044193
4366.52181	0.044313
4364.59314	0.044347
4362.66446	0.044406
4360.73579	0.044541
4358.80711	0.044630
4356.87843	0.044622
4354.94976	0.044657
4353.02108	0.044797
4351.09241	0.044901
4349.16373	0.044922
4347.23506	0.044995
4345.30638	0.045145
4343.37770	0.045243
4341.44903	0.045293
4339.52035	0.045412
4337.59168	0.045563
4335.66300	0.045622
4333.73433	0.045608
4331.80565	0.045663
4329.87697	0.045816
4327.94830	0.045935
4326.01962	0.045968
4324.09095	0.046011
4322.16227	0.046099
4320.23360	0.046147
4318.30492	0.046156
4316.37624	0.046249
4314.44757	0.046428
4312.51889	0.046528
4310.59022	0.046538
4308.66154	0.046626
4306.73287	0.046811
4304.80419	0.046930
4302.87551	0.046970
4300.94684	0.047063
4299.01816	0.047194
4297.08949	0.047259
4295.16081	0.047307
4293.23214	0.047452
4291.30346	0.047618
4289.37478	0.047660
4287.44611	0.047647
4285.51743	0.047739
4283.58876	0.047893
4281.66008	0.047970
4279.73141	0.048004
4277.80273	0.048120
4275.87405	0.048275
4273.94538	0.048330
4272.01670	0.048325
4270.08803	0.048396
4268.15935	0.048530
4266.23068	0.048638
4264.30200	0.048730
4262.37332	0.048848
4260.44465	0.048947
4258.51597	0.048974
4256.58730	0.048994
4254.65862	0.049101
4252.72995	0.049252
4250.80127	0.049335
4248.87259	0.049380
4246.94392	0.049501
4245.01524	0.049652
4243.08657	0.049718
4241.15789	0.049755
4239.22922	0.049866
4237.30054	0.049994
4235.37186	0.050068
4233.44319	0.050145
4231.51451	0.050272
4229.58584	0.050377
4227.65716	0.050412
4225.72849	0.050477
4223.79981	0.050636
4221.87113	0.050769
4219.94246	0.050799
4218.01378	0.050843
4216.08511	0.050998
4214.15643	0.051176
4212.22776	0.051277
4210.29908	0.051328
4208.37040	0.051394
4206.44173	0.051462
4204.51305	0.051508
4202.58438	0.051595
4200.65570	0.051763
4198.72703	0.051935
4196.79835	0.052029
4194.86968	0.052093
4192.94100	0.052199
4191.01232	0.052302
4189.08365	0.052351
4187.15497	0.052406
4185.22630	0.052517
4183.29762	0.052632
4181.36895	0.052729
4179.44027	0.052867
4177.51159	0.053020
4175.58292	0.053112
4173.65424	0.053161
4171.72557	0.053233
4169.79689	0.053350
4167.86822	0.053464
4165.93954	0.053550
4164.01086	0.053659
4162.08219	0.053788
4160.15351	0.053859
4158.22484	0.053881
4156.29616	0.053977
4154.36749	0.054168
4152.43881	0.054317
4150.51013	0.054355
4148.58146	0.054380
4146.65278	0.054485
4144.72411	0.054616
4142.79543	0.054733
4140.86676	0.054883
4138.93808	0.055037
4137.00940	0.055117
4135.08073	0.055161
4133.15205	0.055246
4131.22338	0.055368
4129.29470	0.055482
4127.36603	0.055573
4125.43735	0.055675
4123.50867	0.055804
4121.58000	0.055914
4119.65132	0.055988
4117.72265	0.056070
4115.79397	0.056166
4113.86530	0.056250
4111.93662	0.056334
4110.00794	0.056453
4108.07927	0.056591
4106.15059	0.056701
4104.22192	0.056790
4102.29324	0.056912
4100.36457	0.057066
4098.43589	0.057198
4096.50721	0.057275
4094.57854	0.057349
4092.64986	0.057461
4090.72119	0.057574
4088.79251	0.057682
4086.86384	0.057806
4084.93516	0.057921
4083.00648	0.058013
4081.07781	0.058122
4079.14913	0.058245
4077.22046	0.058341
4075.29178	0.058402
4073.36311	0.058478
4071.43443	0.058614
4069.50575	0.058770
4067.57708	0.058884
4065.64840	0.058981
4063.71973	0.059115
4061.79105	0.059253
4059.86238	0.059349
4057.93370	0.059461
4056.00502	0.059610
4054.07635	0.059710
4052.14767	0.059757
4050.21900	0.059851
4048.29032	0.060002
4046.36165	0.060123
4044.43297	0.060203
4042.50429	0.060308
4040.57562	0.060465
4038.64694	0.060619
4036.71827	0.060729
4034.78959	0.060817
4032.86092	0.060908
4030.93224	0.060999
4029.00356	0.061100
4027.07489	0.061210
4025.14621	0.061316
4023.21754	0.061429
4021.28886	0.061555
4019.36019	0.061683
4017.43151	0.061809
4015.50283	0.061925
4013.57416	0.062031
4011.64548	0.062142
4009.71681	0.062268
4007.78813	0.062393
4005.85946	0.062505
4003.93078	0.062638
4002.00210	0.062802
4000.07343	0.062943
3998.14475	0.063034
3996.21608	0.063106
3994.28740	0.063197
3992.35873	0.063320
3990.43005	0.063457
3988.50137	0.063575
3986.57270	0.063669
3984.64402	0.063765
3982.71535	0.063891
3980.78667	0.064052
3978.85800	0.064210
3976.92932	0.064326
3975.00064	0.064428
3973.07197	0.064547
3971.14329	0.064661
3969.21462	0.064757
3967.28594	0.064867
3965.35727	0.065004
3963.42859	0.065140
3961.49991	0.065253
3959.57124	0.065360
3957.64256	0.065474
3955.71389	0.065581
3953.78521	0.065660
3951.85654	0.065729
3949.92786	0.065838
3947.99918	0.065989
3946.07051	0.066099
3944.14183	0.066151
3942.21316	0.066280
3940.28448	0.066509
3938.35581	0.066702
3936.42713	0.066823
3934.49845	0.066907
3932.56978	0.066969
3930.64110	0.067062
3928.71243	0.067196
3926.78375	0.067311
3924.85508	0.067392
3922.92640	0.067475
3920.99772	0.067575
3919.06905	0.067701
3917.14037	0.067865
3915.21170	0.068075
3913.28302	0.068307
3911.35435	0.068495
3909.42567	0.068590
3907.49699	0.068562
3905.56832	0.068470
3903.63964	0.068462
3901.71097	0.068592
3899.78229	0.068827
3897.85362	0.069131
3895.92494	0.069392
3893.99626	0.069505
3892.06759	0.069563
3890.13891	0.069640
3888.21024	0.069584
3886.28156	0.069502
3884.35289	0.069711
3882.42421	0.070068
3880.49553	0.070326
3878.56686	0.070502
3876.63818	0.070568
3874.70951	0.070581
3872.78083	0.070648
3870.85216	0.070763
3868.92348	0.070970
3866.99480	0.071220
3865.06613	0.071380
3863.13745	0.071506
3861.20878	0.071693
3859.28010	0.071883
3857.35143	0.071901
3855.42275	0.071657
3853.49407	0.071493
3851.56540	0.071809
3849.63672	0.072367
3847.70805	0.072686
3845.77937	0.072733
3843.85070	0.072712
3841.92202	0.072710
3839.99334	0.072773
3838.06467	0.072983
3836.13599	0.073304
3834.20732	0.073567
3832.27864	0.073716
3830.34997	0.073845
3828.42129	0.073983
3826.49261	0.074094
3824.56394	0.074092
3822.63526	0.074026
3820.70659	0.074180
3818.77791	0.074509
3816.84924	0.074727
3814.92056	0.074910
3812.99188	0.075169
3811.06321	0.075332
3809.13453	0.075261
3807.20586	0.075182
3805.27718	0.075319
3803.34851	0.075508
3801.41983	0.075682
3799.49115	0.075928
3797.56248	0.076181
3795.63380	0.076393
3793.70513	0.076574
3791.77645	0.076726
3789.84778	0.076872
3787.91910	0.077000
3785.99042	0.077098
3784.06175	0.077207
3782.13307	0.077302
3780.20440	0.077372
3778.27572	0.077532
3776.34705	0.077798
3774.41837	0.078031
3772.48969	0.078102
3770.56102	0.078066
3768.63234	0.078129
3766.70367	0.078332
3764.77499	0.078555
3762.84632	0.078715
3760.91764	0.078810
3758.98896	0.078905
3757.06029	0.078981
3755.13161	0.078971
3753.20294	0.078877
3751.27426	0.078797
3749.34559	0.078881
3747.41691	0.079060
3745.48823	0.079249
3743.55956	0.079609
3741.63088	0.079989
3739.70221	0.080048
3737.77353	0.079905
3735.84486	0.079873
3733.91618	0.080078
3731.98750	0.080465
3730.05883	0.080855
3728.13015	0.081085
3726.20148	0.081178
3724.27280	0.081304
3722.34413	0.081521
3720.41545	0.081742
3718.48677	0.081903
3716.55810	0.082000
3714.62942	0.081979
3712.70075	0.081915
3710.77207	0.082058
3708.84340	0.082392
3706.91472	0.082702
3704.98604	0.082866
3703.05737	0.082903
3701.12869	0.083018
3699.20002	0.083317
3697.27134	0.083609
3695.34267	0.083714
3693.41399	0.083695
3691.48531	0.083691
3689.55664	0.083786
3687.62796	0.084002
3685.69929	0.084270
3683.77061	0.084539
3681.84194	0.084742
3679.91326	0.084759
3677.98458	0.084619
3676.05591	0.084560
3674.12723	0.084686
3672.19856	0.084778
3670.26988	0.084913
3668.34121	0.085341
3666.41253	0.085803
3664.48385	0.086017
3662.55518	0.086130
3660.62650	0.086276
3658.69783	0.086327
3656.76915	0.086280
3654.84048	0.086272
3652.91180	0.086210
3650.98312	0.086028
3649.05445	0.085930
3647.12577	0.086160
3645.19710	0.086689
3643.26842	0.087175
3641.33975	0.087407
3639.41107	0.087529
3637.48239	0.087702
3635.55372	0.087874
3633.62504	0.087891
3631.69637	0.087669
3629.76769	0.087474
3627.83902	0.087717
3625.91034	0.088207
3623.98166	0.088512
3622.05299	0.088604
3620.12431	0.088575
3618.19564	0.088540
3616.26696	0.088631
3614.33829	0.088811
3612.40961	0.088908
3610.48093	0.088867
3608.55226	0.088947
3606.62358	0.089314
3604.69491	0.089679
3602.76623	0.089793
3600.83756	0.089806
3598.90888	0.089889
3596.98020	0.089995
3595.05153	0.090058
3593.12285	0.090152
3591.19418	0.090268
3589.26550	0.090260
3587.33683	0.090230
3585.40815	0.090418
3583.47947	0.090762
3581.55080	0.091013
3579.62212	0.091117
3577.69345	0.091224
3575.76477	0.091397
3573.83610	0.091512
3571.90742	0.091439
3569.97874	0.091255
3568.05007	0.091260
3566.12139	0.091553
3564.19272	0.091859
3562.26404	0.092053
3560.33537	0.092262
3558.40669	0.092450
3556.47801	0.092505
3554.54934	0.092531
3552.62066	0.092669
3550.69199	0.092812
3548.76331	0.092809
3546.83464	0.092805
3544.90596	0.093002
3542.97728	0.093253
3541.04861	0.093348
3539.11993	0.093400
3537.19126	0.093526
3535.26258	0.093603
3533.33391	0.093572
3531.40523	0.093581
3529.47655	0.093706
3527.54788	0.093814
3525.61920	0.093808
3523.69053	0.093835
3521.76185	0.093998
3519.83318	0.094128
3517.90450	0.094126
3515.97582	0.094149
3514.04715	0.094245
3512.11847	0.094261
3510.18980	0.094188
3508.26112	0.094196
3506.33245	0.094272
3504.40377	0.094258
3502.47509	0.094213
3500.54642	0.094301
3498.61774	0.094467
3496.68907	0.094531
3494.76039	0.094488
3492.83172	0.094498
3490.90304	0.094581
3488.97436	0.094588
3487.04569	0.094522
3485.11701	0.094561
3483.18834	0.094716
3481.25966	0.094825
3479.33099	0.094868
3477.40231	0.094980
3475.47363	0.095172
3473.54496	0.095292
3471.61628	0.095325
3469.68761	0.095467
3467.75893	0.095728
3465.83026	0.095878
3463.90158	0.095915
3461.97290	0.096076
3460.04423	0.096374
3458.11555	0.096581
3456.18688	0.096671
3454.25820	0.096833
3452.32953	0.097073
3450.40085	0.097192
3448.47217	0.097192
3446.54350	0.097296
3444.61482	0.097527
3442.68615	0.097720
3440.75747	0.097877
3438.82880	0.098136
3436.90012	0.098500
3434.97144	0.098815
3433.04277	0.099040
3431.11409	0.099348
3429.18542	0.099770
3427.25674	0.100102
3425.32807	0.100336
3423.39939	0.100661
3421.47071	0.101026
3419.54204	0.101266
3417.61336	0.101465
3415.68469	0.101764
3413.75601	0.102084
3411.82734	0.102301
3409.89866	0.102477
3407.96998	0.102754
3406.04131	0.103089
3404.11263	0.103300
3402.18396	0.103403
3400.25528	0.103579
3398.32661	0.103828
3396.39793	0.104009
3394.46925	0.104155
3392.54058	0.104417
3390.61190	0.104754
3388.68323	0.104969
3386.75455	0.105093
3384.82588	0.105335
3382.89720	0.105650
3380.96852	0.105834
3379.03985	0.105943
3377.11117	0.106163
3375.18250	0.106444
3373.25382	0.106619
3371.32515	0.106728
3369.39647	0.106922
3367.46779	0.107152
3365.53912	0.107274
3363.61044	0.107380
3361.68177	0.107625
3359.75309	0.107897
3357.82442	0.108034
3355.89574	0.108154
3353.96706	0.108424
3352.03839	0.108726
3350.10971	0.108889
3348.18104	0.109010
3346.25236	0.109238
3344.32369	0.109486
3342.39501	0.109603
3340.46633	0.109706
3338.53766	0.109980
3336.60898	0.110296
3334.68031	0.110450
3332.75163	0.110554
3330.82296	0.110793
3328.89428	0.111077
3326.96560	0.111224
3325.03693	0.111331
3323.10825	0.111594
3321.17958	0.111895
3319.25090	0.112056
3317.32223	0.112204
3315.39355	0.112475
3313.46487	0.112746
3311.53620	0.112907
3309.60752	0.113051
3307.67885	0.113275
3305.75017	0.113500
3303.82150	0.113645
3301.89282	0.113828
3299.96414	0.114157
3298.03547	0.114487
3296.10679	0.114630
3294.17812	0.114703
3292.24944	0.114917
3290.32077	0.115184
3288.39209	0.115347
3286.46341	0.115523
3284.53474	0.115826
3282.60606	0.116101
3280.67739	0.116262
3278.74871	0.116458
3276.82004	0.116737
3274.89136	0.116970
3272.96268	0.117126
3271.03401	0.117317
3269.10533	0.117598
3267.17666	0.117853
3265.24798	0.118004
3263.31931	0.118169
3261.39063	0.118434
3259.46195	0.118676
3257.53328	0.118813
3255.60460	0.119012
3253.67593	0.119381
3251.74725	0.119725
3249.81858	0.119871
3247.88990	0.119991
3245.96122	0.120254
3244.03255	0.120513
3242.10387	0.120643
3240.17520	0.120808
3238.24652	0.121123
3236.31785	0.121398
3234.38917	0.121510
3232.46049	0.121665
3230.53182	0.121963
3228.60314	0.122199
3226.67447	0.122318
3224.74579	0.122542
3222.81712	0.122877
3220.88844	0.123070
3218.95976	0.123130
3217.03109	0.123319
3215.10241	0.123665
3213.17374	0.123944
3211.24506	0.124062
3209.31639	0.124198
3207.38771	0.124465
3205.45903	0.124712
3203.53036	0.124874
3201.60168	0.125110
3199.67301	0.125442
3197.74433	0.125682
3195.81566	0.125816
3193.88698	0.126065
3191.95830	0.126454
3190.02963	0.126749
3188.10095	0.126908
3186.17228	0.127144
3184.24360	0.127479
3182.31493	0.127710
3180.38625	0.127823
3178.45757	0.128032
3176.52890	0.128366
3174.60022	0.128601
3172.67155	0.128688
3170.74287	0.128849
3168.81420	0.129151
3166.88552	0.129403
3164.95684	0.129544
3163.02817	0.129754
3161.09949	0.130076
3159.17082	0.130327
3157.24214	0.130495
3155.31347	0.130763
3153.38479	0.131097
3151.45611	0.131294
3149.52744	0.131408
3147.59876	0.131650
3145.67009	0.131957
3143.74141	0.132106
3141.81274	0.132171
3139.88406	0.132423
3137.95538	0.132806
3136.02671	0.133041
3134.09803	0.133172
3132.16936	0.133454
3130.24068	0.133841
3128.31201	0.134074
3126.38333	0.134196
3124.45465	0.134463
3122.52598	0.134812
3120.59730	0.134970
3118.66863	0.135006
3116.73995	0.135204
3114.81128	0.135539
3112.88260	0.135769
3110.95392	0.135896
3109.02525	0.136132
3107.09657	0.136466
3105.16790	0.136656
3103.23922	0.136740
3101.31055	0.137016
3099.38187	0.137444
3097.45319	0.137708
3095.52452	0.137808
3093.59584	0.138035
3091.66717	0.138398
3089.73849	0.138632
3087.80982	0.138731
3085.88114	0.138947
3083.95246	0.139278
3082.02379	0.139488
3080.09511	0.139611
3078.16644	0.139886
3076.23776	0.140249
3074.30909	0.140458
3072.38041	0.140563
3070.45173	0.140764
3068.52306	0.141037
3066.59438	0.141240
3064.66571	0.141411
3062.73703	0.141692
3060.80836	0.142028
3058.87968	0.142222
3056.95100	0.142332
3055.02233	0.142598
3053.09365	0.142962
3051.16498	0.143175
3049.23630	0.143289
3047.30763	0.143540
3045.37895	0.143872
3043.45027	0.144057
3041.52160	0.144175
3039.59292	0.144445
3037.66425	0.144763
3035.73557	0.144927
3033.80690	0.145046
3031.87822	0.145338
3029.94954	0.145700
3028.02087	0.145906
3026.09219	0.146029
3024.16352	0.146273
3022.23484	0.146574
3020.30617	0.146743
3018.37749	0.146858
3016.44881	0.147131
3014.52014	0.147464
3012.59146	0.147626
3010.66279	0.147744
3008.73411	0.148041
3006.80544	0.148372
3004.87676	0.148542
3002.94808	0.148696
3001.01941	0.149004
2999.09073	0.149330
2997.16206	0.149501
2995.23338	0.149639
2993.30471	0.149921
2991.37603	0.150193
2989.44735	0.150288
2987.51868	0.150400
2985.59000	0.150672
2983.66133	0.150908
2981.73265	0.150940
2979.80398	0.150925
2977.87530	0.151055
2975.94662	0.151177
2974.01795	0.151099
2972.08927	0.150988
2970.16060	0.151008
2968.23192	0.151026
2966.30325	0.150948
2964.37457	0.150946
2962.44589	0.151164
2960.51722	0.151439
2958.58854	0.151585
2956.65987	0.151746
2954.73119	0.152121
2952.80252	0.152566
2950.87384	0.152854
2948.94516	0.153057
2947.01649	0.153319
2945.08781	0.153536
2943.15914	0.153563
2941.23046	0.153518
2939.30179	0.153572
2937.37311	0.153591
2935.44443	0.153411
2933.51576	0.153211
2931.58708	0.153203
2929.65841	0.153237
2927.72973	0.153121
2925.80106	0.153016
2923.87238	0.153112
2921.94370	0.153215
2920.01503	0.153188
2918.08635	0.153374
2916.15768	0.154029
2914.22900	0.154887
2912.30033	0.155656
2910.37165	0.156373
2908.44297	0.157125
2906.51430	0.157724
2904.58562	0.158047
2902.65695	0.158353
2900.72827	0.158824
2898.79960	0.159285
2896.87092	0.159595
2894.94224	0.159907
2893.01357	0.160344
2891.08489	0.160722
2889.15622	0.160928
2887.22754	0.161192
2885.29887	0.161632
2883.37019	0.161982
2881.44151	0.162079
2879.51284	0.162185
2877.58416	0.162490
2875.65549	0.162752
2873.72681	0.162809
2871.79814	0.162925
2869.86946	0.163234
2867.94078	0.163499
2866.01211	0.163604
2864.08343	0.163727
2862.15476	0.163928
2860.22608	0.164005
2858.29741	0.163887
2856.36873	0.163812
2854.44005	0.163873
2852.51138	0.163836
2850.58270	0.163786
2848.65403	0.164235
2846.72535	0.165216
2844.79668	0.166186
2842.86800	0.166866
2840.93932	0.167445
2839.01065	0.168025
2837.08197	0.168441
2835.15330	0.168696
2833.22462	0.169036
2831.29595	0.169479
2829.36727	0.169784
2827.43859	0.169947
2825.50992	0.170234
2823.58124	0.170674
2821.65257	0.171005
2819.72389	0.171174
2817.79522	0.171434
2815.86654	0.171829
2813.93786	0.172119
2812.00919	0.172262
2810.08051	0.172496
2808.15184	0.172896
2806.22316	0.173223
2804.29449	0.173390
2802.36581	0.173624
2800.43713	0.173961
2798.50846	0.174176
2796.57978	0.174289
2794.65111	0.174572
2792.72243	0.175018
2790.79376	0.175321
2788.86508	0.175452
2786.93640	0.175692
2785.00773	0.176096
2783.07905	0.176417
2781.15038	0.176579
2779.22170	0.176782
2777.29303	0.177114
2775.36435	0.177394
2773.43567	0.177553
2771.50700	0.177776
2769.57832	0.178120
2767.64965	0.178376
2765.72097	0.178517
2763.79230	0.178774
2761.86362	0.179146
2759.93494	0.179408
2758.00627	0.179568
2756.07759	0.179844
2754.14892	0.180228
2752.22024	0.180472
2750.29157	0.180564
2748.36289	0.180774
2746.43421	0.181125
2744.50554	0.181359
2742.57686	0.181499
2740.64819	0.181810
2738.71951	0.182213
2736.79084	0.182428
2734.86216	0.182539
2732.93348	0.182808
2731.00481	0.183169
2729.07613	0.183377
2727.14746	0.183498
2725.21878	0.183781
2723.29011	0.184172
2721.36143	0.184403
2719.43275	0.184494
2717.50408	0.184723
2715.57540	0.185102
2713.64673	0.185374
2711.71805	0.185532
2709.78938	0.185785
2707.86070	0.186110
2705.93202	0.186328
2704.00335	0.186473
2702.07467	0.186721
2700.14600	0.187043
2698.21732	0.187284
2696.28865	0.187470
2694.35997	0.187732
2692.43129	0.188032
2690.50262	0.188223
2688.57394	0.188377
2686.64527	0.188697
2684.71659	0.189098
2682.78792	0.189326
2680.85924	0.189447
2678.93056	0.189719
2677.00189	0.190083
2675.07321	0.190287
2673.14454	0.190418
2671.21586	0.190726
2669.28719	0.191100
2667.35851	0.191276
2665.42983	0.191373
2663.50116	0.191670
2661.57248	0.192074
2659.64381	0.192269
2657.71513	0.192310
2655.78646	0.192524
2653.85778	0.192909
2651.92910	0.193175
2650.00043	0.193354
2648.07175	0.193683
2646.14308	0.194058
2644.21440	0.194256
2642.28573	0.194412
2640.35705	0.194745
2638.42837	0.195106
2636.49970	0.195278
2634.57102	0.195413
2632.64235	0.195741
2630.71367	0.196143
2628.78500	0.196380
2626.85632	0.196519
2624.92764	0.196790
2622.99897	0.197128
2621.07029	0.197332
2619.14162	0.197533
2617.21294	0.197940
2615.28427	0.198374
2613.35559	0.198595
2611.42691	0.198767
2609.49824	0.199123
2607.56956	0.199499
2605.64089	0.199665
2603.71221	0.199796
2601.78354	0.200139
2599.85486	0.200532
2597.92618	0.200751
2595.99751	0.200926
2594.06883	0.201254
2592.14016	0.201615
2590.21148	0.201809
2588.28281	0.201977
2586.35413	0.202344
2584.42545	0.202736
2582.49678	0.202928
2580.56810	0.203094
2578.63943	0.203436
2576.71075	0.203803
2574.78208	0.204002
2572.85340	0.204172
2570.92472	0.204480
2568.99605	0.204761
2567.06737	0.204872
2565.13870	0.205006
2563.21002	0.205339
2561.28135	0.205692
2559.35267	0.205883
2557.42399	0.206077
2555.49532	0.206431
2553.56664	0.206757
2551.63797	0.206913
2549.70929	0.207101
2547.78062	0.207462
2545.85194	0.207793
2543.92326	0.207931
2541.99459	0.208099
2540.06591	0.208471
2538.13724	0.208814
2536.20856	0.208975
2534.27989	0.209151
2532.35121	0.209473
2530.42253	0.209785
2528.49386	0.209980
2526.56518	0.210177
2524.63651	0.210476
2522.70783	0.210785
2520.77916	0.211013
2518.85048	0.211306
2516.92181	0.211766
2514.99313	0.212129
2513.06445	0.212235
2511.13578	0.212368
2509.20710	0.212703
2507.27843	0.213011
2505.34975	0.213178
2503.42108	0.213423
2501.49240	0.213823
2499.56372	0.214159
2497.63505	0.214373
2495.70637	0.214676
2493.77770	0.215110
2491.84902	0.215442
2489.92035	0.215609
2487.99167	0.215846
2486.06299	0.216225
2484.13432	0.216543
2482.20564	0.216735
2480.27697	0.216993
2478.34829	0.217405
2476.41962	0.217764
2474.49094	0.217944
2472.56226	0.218166
2470.63359	0.218563
2468.70491	0.218926
2466.77624	0.219136
2464.84756	0.219382
2462.91889	0.219768
2460.99021	0.220096
2459.06153	0.220268
2457.13286	0.220479
2455.20418	0.220829
2453.27551	0.221160
2451.34683	0.221365
2449.41816	0.221598
2447.48948	0.221955
2445.56080	0.222237
2443.63213	0.222377
2441.70345	0.222609
2439.77478	0.223004
2437.84610	0.223337
2435.91743	0.223526
2433.98875	0.223766
2432.06007	0.224123
2430.13140	0.224415
2428.20272	0.224591
2426.27405	0.224832
2424.34537	0.225171
2422.41670	0.225417
2420.48802	0.225557
2418.55934	0.225833
2416.63067	0.226282
2414.70199	0.226632
2412.77332	0.226800
2410.84464	0.227032
2408.91597	0.227379
2406.98729	0.227634
2405.05861	0.227816
2403.12994	0.228118
2401.20126	0.228515
2399.27259	0.228795
2397.34391	0.228939
2395.41524	0.229167
2393.48656	0.229526
2391.55788	0.229821
2389.62921	0.230000
2387.70053	0.230255
2385.77186	0.230606
2383.84318	0.230803
2381.91451	0.230796
2379.98583	0.230802
2378.05715	0.230898
2376.12848	0.230952
2374.19980	0.230942
2372.27113	0.230977
2370.34245	0.231063
2368.41378	0.231105
2366.48510	0.231134
2364.55642	0.231307
2362.62775	0.231631
2360.69907	0.231947
2358.77040	0.232224
2356.84172	0.232572
2354.91305	0.233038
2352.98437	0.233564
2351.05569	0.234090
2349.12702	0.234521
2347.19834	0.234693
2345.26967	0.234605
2343.34099	0.234563
2341.41232	0.234872
2339.48364	0.235413
2337.55496	0.235836
2335.62629	0.236075
2333.69761	0.236316
2331.76894	0.236605
2329.84026	0.236809
2327.91159	0.236967
2325.98291	0.237282
2324.05423	0.237745
2322.12556	0.238169
2320.19688	0.238531
2318.26821	0.238979
2316.33953	0.239454
2314.41086	0.239807
2312.48218	0.240141
2310.55350	0.240599
2308.62483	0.241091
2306.69615	0.241427
2304.76748	0.241618
2302.83880	0.241873
2300.91013	0.242271
2298.98145	0.242650
2297.05277	0.242905
2295.12410	0.243181
2293.19542	0.243561
2291.26675	0.243864
2289.33807	0.244036
2287.40940	0.244276
2285.48072	0.244644
2283.55204	0.244947
2281.62337	0.245140
2279.69469	0.245426
2277.76602	0.245826
2275.83734	0.246109
2273.90867	0.246249
2271.97999	0.246465
2270.05131	0.246783
2268.12264	0.247044
2266.19396	0.247257
2264.26529	0.247538
2262.33661	0.247885
2260.40794	0.248171
2258.47926	0.248403
2256.55058	0.248733
2254.62191	0.249107
2252.69323	0.249335
2250.76456	0.249504
2248.83588	0.249807
2246.90721	0.250157
2244.97853	0.250396
2243.04985	0.250613
2241.12118	0.250964
2239.19250	0.251369
2237.26383	0.251621
2235.33515	0.251734
2233.40648	0.251918
2231.47780	0.252237
2229.54912	0.252556
2227.62045	0.252815
2225.69177	0.253091
2223.76310	0.253378
2221.83442	0.253617
2219.90575	0.253865
2217.97707	0.254171
2216.04839	0.254441
2214.11972	0.254606
2212.19104	0.254757
2210.26237	0.255028
2208.33369	0.255364
2206.40502	0.255583
2204.47634	0.255710
2202.54766	0.255961
2200.61899	0.256330
2198.69031	0.256598
2196.76164	0.256786
2194.83296	0.257086
2192.90429	0.257409
2190.97561	0.257570
2189.04693	0.257712
2187.11826	0.258020
2185.18958	0.258388
2183.26091	0.258672
2181.33223	0.258925
2179.40356	0.259239
2177.47488	0.259524
2175.54620	0.259685
2173.61753	0.259888
2171.68885	0.260270
2169.76018	0.260654
2167.83150	0.260858
2165.90283	0.261008
2163.97415	0.261281
2162.04547	0.261603
2160.11680	0.261817
2158.18812	0.261997
2156.25945	0.262287
2154.33077	0.262592
2152.40210	0.262776
2150.47342	0.262951
2148.54474	0.263251
2146.61607	0.263572
2144.68739	0.263798
2142.75872	0.264046
2140.83004	0.264424
2138.90137	0.264785
2136.97269	0.264991
2135.04401	0.265159
2133.11534	0.265430
2131.18666	0.265727
2129.25799	0.265946
2127.32931	0.266174
2125.40064	0.266476
2123.47196	0.266753
2121.54328	0.266934
2119.61461	0.267124
2117.68593	0.267439
2115.75726	0.267777
2113.82858	0.268026
2111.89991	0.268284
2109.97123	0.268598
2108.04255	0.268872
2106.11388	0.269067
2104.18520	0.269232
2102.25653	0.269456
2100.32785	0.269764
2098.39918	0.270087
2096.47050	0.270392
2094.54182	0.270719
2092.61315	0.271017
2090.68447	0.271178
2088.75580	0.271291
2086.82712	0.271522
2084.89845	0.271813
2082.96977	0.272064
2081.04109	0.272333
2079.11242	0.272648
2077.18374	0.272932
2075.25507	0.273129
2073.32639	0.273319
2071.39772	0.273626
2069.46904	0.273971
2067.54036	0.274202
2065.61169	0.274382
2063.68301	0.274625
2061.75434	0.274873
2059.82566	0.275086
2057.89699	0.275363
2055.96831	0.275708
2054.03963	0.275969
2052.11096	0.276115
2050.18228	0.276320
2048.25361	0.276664
2046.32493	0.276991
2044.39626	0.277181
2042.46758	0.277344
2040.53890	0.277615
2038.61023	0.277930
2036.68155	0.278169
2034.75288	0.278403
2032.82420	0.278748
2030.89553	0.279115
2028.96685	0.279385
2027.03817	0.279624
2025.10950	0.279903
2023.18082	0.280139
2021.25215	0.280273
2019.32347	0.280433
2017.39480	0.280740
2015.46612	0.281093
2013.53744	0.281353
2011.60877	0.281568
2009.68009	0.281845
2007.75142	0.282119
2005.82274	0.282315
2003.89407	0.282565
2001.96539	0.282921
2000.03671	0.283197
1998.10804	0.283347
1996.17936	0.283538
1994.25069	0.283788
1992.32201	0.284001
1990.39334	0.284202
1988.46466	0.284456
1986.53598	0.284759
1984.60731	0.285030
1982.67863	0.285192
1980.74996	0.285315
1978.82128	0.285515
1976.89261	0.285748
1974.96393	0.285944
1973.03525	0.286191
1971.10658	0.286476
1969.17790	0.286594
1967.24923	0.286623
1965.32055	0.286861
1963.39188	0.287265
1961.46320	0.287596
1959.53452	0.287822
1957.60585	0.288062
1955.67717	0.288354
1953.74850	0.288628
1951.81982	0.288879
1949.89115	0.289160
1947.96247	0.289427
1946.03379	0.289590
1944.10512	0.289685
1942.17644	0.289900
1940.24777	0.290284
1938.31909	0.290602
1936.39042	0.290759
1934.46174	0.290974
1932.53306	0.291312
1930.60439	0.291575
1928.67571	0.291720
1926.74704	0.291915
1924.81836	0.292173
1922.88969	0.292360
1920.96101	0.292348
1919.03233	0.292311
1917.10366	0.292704
1915.17498	0.293368
1913.24631	0.293737
1911.31763	0.293855
1909.38896	0.294070
1907.46028	0.294388
1905.53160	0.294655
1903.60293	0.294908
1901.67425	0.295211
1899.74558	0.295439
1897.81690	0.295536
1895.88823	0.295684
1893.95955	0.296007
1892.03087	0.296301
1890.10220	0.296485
1888.17352	0.296797
1886.24485	0.297186
1884.31617	0.297401
1882.38750	0.297510
1880.45882	0.297741
1878.53014	0.298093
1876.60147	0.298387
1874.67279	0.298575
1872.74412	0.298677
1870.81544	0.298616
1868.88677	0.298537
1866.95809	0.298840
1865.02941	0.299461
1863.10074	0.299950
1861.17206	0.300227
1859.24339	0.300503
1857.31471	0.300885
1855.38604	0.301281
1853.45736	0.301522
1851.52868	0.301599
1849.60001	0.301671
1847.67133	0.301689
1845.74266	0.301522
1843.81398	0.301643
1841.88531	0.302365
1839.95663	0.303036
1838.02795	0.303279
1836.09928	0.303465
1834.17060	0.303670
1832.24193	0.303578
1830.31325	0.303423
1828.38458	0.303665
1826.45590	0.304097
1824.52722	0.304507
1822.59855	0.304972
1820.66987	0.305363
1818.74120	0.305622
1816.81252	0.305849
1814.88385	0.306012
1812.95517	0.306024
1811.02649	0.306089
1809.09782	0.306452
1807.16914	0.306856
1805.24047	0.306960
1803.31179	0.306871
1801.38312	0.306904
1799.45444	0.307164
1797.52576	0.307496
1795.59709	0.307707
1793.66841	0.307716
1791.73974	0.307777
1789.81106	0.308195
1787.88239	0.308693
1785.95371	0.308922
1784.02503	0.308986
1782.09636	0.309033
1780.16768	0.309193
1778.23901	0.309461
1776.31033	0.309424
1774.38166	0.308964
1772.45298	0.308654
1770.52430	0.308754
1768.59563	0.309093
1766.66695	0.309779
1764.73828	0.310520
1762.80960	0.310810
1760.88093	0.310798
1758.95225	0.310627
1757.02357	0.310505
1755.09490	0.310688
1753.16622	0.310694
1751.23755	0.310263
1749.30887	0.309998
1747.38020	0.310199
1745.45152	0.310476
1743.52284	0.310582
1741.59417	0.310638
1739.66549	0.310726
1737.73682	0.310486
1735.80814	0.309640
1733.87947	0.309128
1731.95079	0.309703
1730.02211	0.310685
1728.09344	0.311521
1726.16476	0.312125
1724.23609	0.312453
1722.30741	0.312373
1720.37874	0.311669
1718.45006	0.311055
1716.52138	0.311343
1714.59271	0.312201
1712.66403	0.313032
1710.73536	0.313541
1708.80668	0.313571
1706.87801	0.313384
1704.94933	0.313396
1703.02065	0.313226
1701.09198	0.312657
1699.16330	0.312325
1697.23463	0.312275
1695.30595	0.312659
1693.37728	0.313701
1691.44860	0.314403
1689.51992	0.314369
1687.59125	0.313936
1685.66257	0.313133
1683.73390	0.312734
1681.80522	0.313312
1679.87655	0.314138
1677.94787	0.314456
1676.01919	0.314341
1674.09052	0.314278
1672.16184	0.314203
1670.23317	0.314004
1668.30449	0.314277
1666.37582	0.314984
1664.44714	0.315368
1662.51846	0.315425
1660.58979	0.315515
1658.66111	0.315550
1656.73244	0.314811
1654.80376	0.313147
1652.87509	0.312456
1650.94641	0.313619
1649.01773	0.314572
1647.08906	0.314553
1645.16038	0.314897
1643.23171	0.315707
1641.30303	0.316116
1639.37436	0.315861
1637.44568	0.315375
1635.51700	0.315400
1633.58833	0.316073
1631.65965	0.316666
1629.73098	0.316706
1627.80230	0.316485
1625.87363	0.316055
1623.94495	0.315265
1622.01627	0.314560
1620.08760	0.314394
1618.15892	0.314928
1616.23025	0.316095
1614.30157	0.317322
1612.37290	0.318131
1610.44422	0.318604
1608.51554	0.318966
1606.58687	0.319310
1604.65819	0.319696
1602.72952	0.320204
1600.80084	0.320700
1598.87217	0.320959
1596.94349	0.321088
1595.01481	0.321322
1593.08614	0.321636
1591.15746	0.321914
1589.22879	0.322184
1587.30011	0.322461
1585.37144	0.322704
1583.44276	0.322919
1581.51408	0.323085
1579.58541	0.322940
1577.65673	0.322448
1575.72806	0.322465
1573.79938	0.323240
1571.87071	0.323646
1569.94203	0.323505
1568.01335	0.323646
1566.08468	0.324049
1564.15600	0.324394
1562.22733	0.324258
1560.29865	0.323291
1558.36998	0.322642
1556.44130	0.323448
1554.51262	0.324794
1552.58395	0.325482
1550.65527	0.325660
1548.72660	0.325857
1546.79792	0.325830
1544.86925	0.325134
1542.94057	0.324289
1541.01189	0.324276
1539.08322	0.325204
1537.15454	0.326152
1535.22587	0.326444
1533.29719	0.326641
1531.36852	0.327240
1529.43984	0.327624
1527.51116	0.327489
1525.58249	0.327172
1523.65381	0.326746
1521.72514	0.326592
1519.79646	0.327063
1517.86779	0.327603
1515.93911	0.327868
1514.01043	0.328076
1512.08176	0.328120
1510.15308	0.327584
1508.22441	0.326801
1506.29573	0.327041
1504.36706	0.328346
1502.43838	0.329230
1500.50970	0.329064
1498.58103	0.328397
1496.65235	0.328109
1494.72368	0.328545
1492.79500	0.328910
1490.86633	0.328667
1488.93765	0.328376
1487.00897	0.328497
1485.08030	0.328760
1483.15162	0.328791
1481.22295	0.328567
1479.29427	0.328016
1477.36560	0.327017
1475.43692	0.325920
1473.50824	0.325264
1471.57957	0.325196
1469.65089	0.325286
1467.72222	0.324930
1465.79354	0.324305
1463.86487	0.324124
1461.93619	0.324101
1460.00751	0.323258
1458.07884	0.322064
1456.15016	0.322006
1454.22149	0.322973
1452.29281	0.323713
1450.36414	0.323932
1448.43546	0.324049
1446.50678	0.324303
1444.57811	0.324634
1442.64943	0.324927
1440.72076	0.325106
1438.79208	0.325044
1436.86341	0.325017
1434.93473	0.325385
1433.00605	0.325813
1431.07738	0.326020
1429.14870	0.326274
1427.22003	0.326568
1425.29135	0.326698
1423.36268	0.326594
1421.43400	0.325996
1419.50532	0.325431
1417.57665	0.325904
1415.64797	0.326890
1413.71930	0.327397
1411.79062	0.327533
1409.86195	0.327622
1407.93327	0.327612
1406.00459	0.327463
1404.07592	0.327386
1402.14724	0.327371
1400.21857	0.327188
1398.28989	0.326908
1396.36122	0.326737
1394.43254	0.326851
1392.50386	0.327142
1390.57519	0.327095
1388.64651	0.326577
1386.71784	0.326072
1384.78916	0.325933
1382.86049	0.326078
1380.93181	0.326285
1379.00313	0.326390
1377.07446	0.326322
1375.14578	0.326216
1373.21711	0.326314
1371.28843	0.326494
1369.35976	0.326509
1367.43108	0.326458
1365.50240	0.326389
1363.57373	0.326262
1361.64505	0.326296
1359.71638	0.326570
1357.78770	0.326845
1355.85903	0.327062
1353.93035	0.327323
1352.00167	0.327569
1350.07300	0.327732
1348.14432	0.327872
1346.21565	0.328049
1344.28697	0.328208
1342.35830	0.328177
1340.42962	0.327944
1338.50094	0.327800
1336.57227	0.327895
1334.64359	0.328014
1332.71492	0.327983
1330.78624	0.327832
1328.85757	0.327643
1326.92889	0.327415
1325.00021	0.327083
1323.07154	0.326690
1321.14286	0.326328
1319.21419	0.326069
1317.28551	0.325930
1315.35684	0.325762
1313.42816	0.325464
1311.49948	0.325149
1309.57081	0.324824
1307.64213	0.324397
1305.71346	0.323971
1303.78478	0.323636
1301.85611	0.323291
1299.92743	0.322922
1297.99875	0.322609
1296.07008	0.322333
1294.14140	0.322071
1292.21273	0.321816
1290.28405	0.321502
1288.35538	0.321156
1286.42670	0.320854
1284.49802	0.320492
1282.56935	0.319991
1280.64067	0.319470
1278.71200	0.318944
1276.78332	0.318343
1274.85465	0.317658
1272.92597	0.316820
1270.99729	0.315751
1269.06862	0.314359
1267.13994	0.312683
1265.21127	0.311124
1263.28259	0.310050
1261.35392	0.309521
1259.42524	0.309414
1257.49656	0.309521
1255.56789	0.309606
1253.63921	0.309415
1251.71054	0.308902
1249.78186	0.308245
1247.85319	0.307548
1245.92451	0.306811
1243.99583	0.305973
1242.06716	0.305001
1240.13848	0.304002
1238.20981	0.303049
1236.28113	0.302044
1234.35246	0.300943
1232.42378	0.299878
1230.49510	0.298881
1228.56643	0.297880
1226.63775	0.296933
1224.70908	0.296075
1222.78040	0.295185
1220.85173	0.294250
1218.92305	0.293358
1216.99437	0.292474
1215.06570	0.291573
1213.13702	0.290687
1211.20835	0.289783
1209.27967	0.288842
1207.35100	0.287853
1205.42232	0.286780
1203.49364	0.285654
1201.56497	0.284587
1199.63629	0.283634
1197.70762	0.282689
1195.77894	0.281622
1193.85027	0.280471
1191.92159	0.279359
1189.99291	0.278257
1188.06424	0.277022
1186.13556	0.275625
1184.20689	0.274176
1182.27821	0.272761
1180.34954	0.271385
1178.42086	0.270014
1176.49218	0.268643
1174.56351	0.267274
1172.63483	0.265824
1170.70616	0.264252
1168.77748	0.262686
1166.84881	0.261207
1164.92013	0.259757
1162.99145	0.258244
1161.06278	0.256678
1159.13410	0.255238
1157.20543	0.254009
1155.27675	0.252861
1153.34808	0.251688
1151.41940	0.250444
1149.49072	0.249109
1147.56205	0.247763
1145.63337	0.246427
1143.70470	0.244988
1141.77602	0.243420
1139.84735	0.241811
1137.91867	0.240169
1135.98999	0.238382
1134.06132	0.236308
1132.13264	0.233874
1130.20397	0.231035
1128.27529	0.227785
1126.34662	0.224210
1124.41794	0.220472
1122.48926	0.216755
1120.56059	0.213172
1118.63191	0.209747
1116.70324	0.206526
1114.77456	0.203651
1112.84589	0.201247
1110.91721	0.199296
1108.98853	0.197741
1107.05986	0.196558
1105.13118	0.195798
1103.20251	0.195567
1101.27383	0.195864
1099.34516	0.196527
1097.41648	0.197471
1095.48780	0.198708
1093.55913	0.200112
1091.63045	0.201483
1089.70178	0.202704
1087.77310	0.203723
1085.84443	0.204548
1083.91575	0.205226
1081.98707	0.205818
1080.05840	0.206318
1078.12972	0.206700
1076.20105	0.206965
1074.27237	0.207096
1072.34370	0.207205
1070.41502	0.207424
1068.48634	0.207771
1066.55767	0.208207
1064.62899	0.208599
1062.70032	0.208906
1060.77164	0.209243
1058.84297	0.209665
1056.91429	0.210150
1054.98561	0.210661
1053.05694	0.211182
1051.12826	0.211720
1049.19959	0.212286
1047.27091	0.212923
1045.34224	0.213648
1043.41356	0.214372
1041.48488	0.215059
1039.55621	0.215771
1037.62753	0.216494
1035.69886	0.217142
1033.77018	0.217717
1031.84151	0.218304
1029.91283	0.218909
1027.98415	0.219480
1026.05548	0.220065
1024.12680	0.220730
1022.19813	0.221457
1020.26945	0.222210
1018.34078	0.222994
1016.41210	0.223776
1014.48342	0.224557
1012.55475	0.225438
1010.62607	0.226475
1008.69740	0.227631
1006.76872	0.228786
1004.84005	0.229782
1002.91137	0.230564
1000.98269	0.231185
999.05402	0.231751
997.12534	0.232316
995.19667	0.232786
993.26799	0.233083
991.33932	0.233280
989.41064	0.233474
987.48196	0.233719
985.55329	0.234010
983.62461	0.234269
981.69594	0.234429
979.76726	0.234463
977.83859	0.234346
975.90991	0.234128
973.98123	0.233932
972.05256	0.233808
970.12388	0.233720
968.19521	0.233602
966.26653	0.233341
964.33786	0.232901
962.40918	0.232458
960.48050	0.232197
958.55183	0.232045
956.62315	0.231884
954.69448	0.231693
952.76580	0.231376
950.83713	0.230894
948.90845	0.230375
946.97977	0.229915
945.05110	0.229484
943.12242	0.229011
941.19375	0.228434
939.26507	0.227709
937.33640	0.226849
935.40772	0.225869
933.47904	0.224807
931.55037	0.223829
929.62169	0.223004
927.69302	0.222125
925.76434	0.221021
923.83567	0.219759
921.90699	0.218503
919.97831	0.217344
918.04964	0.216179
916.12096	0.214843
914.19229	0.213397
912.26361	0.211965
910.33494	0.210569
908.40626	0.209295
906.47758	0.208174
904.54891	0.207112
902.62023	0.206085
900.69156	0.205079
898.76288	0.204074
896.83421	0.203134
894.90553	0.202262
892.97685	0.201406
891.04818	0.200560
889.11950	0.199719
887.19083	0.198936
885.26215	0.198263
883.33348	0.197572
881.40480	0.196817
879.47612	0.196180
877.54745	0.195676
875.61877	0.195169
873.69010	0.194666
871.76142	0.194222
869.83275	0.193783
867.90407	0.193307
865.97539	0.192892
864.04672	0.192672
862.11804	0.192602
860.18937	0.192499
858.26069	0.192299
856.33202	0.192108
854.40334	0.191929
852.47466	0.191616
850.54599	0.191103
848.61731	0.190457
846.68864	0.189874
844.75996	0.189553
842.83129	0.189390
840.90261	0.189124
838.97394	0.188655
837.04526	0.187993
835.11658	0.187127
833.18791	0.186017
831.25923	0.184625
829.33056	0.183050
827.40188	0.181478
825.47321	0.179978
823.54453	0.178616
821.61585	0.177441
819.68718	0.176429
817.75850	0.175660
815.82983	0.175159
813.90115	0.174744
811.97248	0.174257
810.04380	0.173804
808.11512	0.173579
806.18645	0.173526
804.25777	0.173457
802.32910	0.173352
800.40042	0.173129
798.47175	0.172552
796.54307	0.171704
794.61439	0.170883
792.68572	0.170265
790.75704	0.169922
788.82837	0.169733
786.89969	0.169570
784.97102	0.169401
783.04234	0.169142
781.11366	0.168790
779.18499	0.168363
777.25631	0.167867
775.32764	0.167400
773.39896	0.167038
771.47029	0.166740
769.54161	0.166389
767.61293	0.165896
765.68426	0.165320
763.75558	0.164771
761.82691	0.164216
759.89823	0.163532
757.96956	0.162689
756.04088	0.161744
754.11220	0.160808
752.18353	0.160022
750.25485	0.159233
748.32618	0.158144
746.39750	0.156819
744.46883	0.155460
742.54015	0.154103
740.61147	0.152849
738.68280	0.151990
736.75412	0.151665
734.82545	0.151692
732.89677	0.151912
730.96810	0.152225
729.03942	0.152533
727.11074	0.152843
725.18207	0.153153
723.25339	0.153424
721.32472	0.153630
719.39604	0.153846
717.46737	0.154263
715.53869	0.155000
713.61001	0.155925
711.68134	0.156713
709.75266	0.157173
707.82399	0.157333
705.89531	0.157286
703.96664	0.157130
702.03796	0.156889
700.10928	0.156462
698.18061	0.155758
696.25193	0.154853
694.32326	0.153915
692.39458	0.153074
690.46591	0.152344
688.53723	0.151679
686.60855	0.151023
684.67988	0.150316
682.75120	0.149606
680.82253	0.148910
678.89385	0.148217
676.96518	0.147487
675.03650	0.146559
673.10782	0.145444
671.17915	0.144135
669.25047	0.142619
667.32180	0.141320
665.39312	0.140410
663.46445	0.139390
661.53577	0.138018
659.60709	0.136573
657.67842	0.135230
655.74974	0.133995
653.82107	0.132895
651.89239	0.131911
649.96372	0.130887
648.03504	0.129609
646.10636	0.128053
644.17769	0.126440
642.24901	0.124939
640.32034	0.123393
638.39166	0.121671
636.46299	0.119874
634.53431	0.117942
632.60563	0.115452
630.67696	0.111465
628.74828	0.105376
626.81961	0.097810
624.89093	0.090137
622.96226	0.084033
621.03358	0.080371
619.10490	0.078505
617.17623	0.077252
615.24755	0.075691
613.31888	0.073749
611.39020	0.072082
609.46153	0.071202
607.53285	0.071154
605.60417	0.071747
603.67550	0.072811
601.74682	0.074166
599.81815	0.075583
597.88947	0.076872
595.96080	0.077915
594.03212	0.078717
592.10344	0.079310
590.17477	0.079615
588.24609	0.079598
586.31742	0.079356
584.38874	0.078954
582.46007	0.078503
580.53139	0.078044
578.60271	0.077378
576.67404	0.076445
574.74536	0.075438
572.81669	0.074464
570.88801	0.073433
568.95934	0.072281
567.03066	0.071232
565.10198	0.070542
563.17331	0.070041
561.24463	0.069497
559.31596	0.069039
557.38728	0.068719
555.45861	0.068323
553.52993	0.067796
551.60125	0.067232
549.67258	0.066727
547.74390	0.066508
545.81523	0.066505
543.88655	0.066327
541.95788	0.065948
540.02920	0.065536
538.10052	0.065095
536.17185	0.064647
534.24317	0.064210
532.31450	0.063719
530.38582	0.063126
528.45715	0.062445
526.52847	0.061813
524.59979	0.061371
522.67112	0.060936
520.74244	0.060268
518.81377	0.059309
516.88509	0.058109
514.95642	0.056974
513.02774	0.056229
511.09906	0.055808
509.17039	0.055474
507.24171	0.055234
505.31304	0.055010
503.38436	0.054435
501.45569	0.053558
499.52701	0.052683
497.59833	0.051784
495.66966	0.050746
493.74098	0.049673
491.81231	0.048775
489.88363	0.048009
487.95496	0.047221
486.02628	0.046419
484.09760	0.045545
482.16893	0.044513
480.24025	0.043439
478.31158	0.042420
476.38290	0.041402
474.45423	0.040450
472.52555	0.039678
470.59687	0.039028
468.66820	0.038386
466.73952	0.037740
464.81085	0.037258
462.88217	0.037065
460.95350	0.036970
459.02482	0.036791
457.09614	0.036724
455.16747	0.036806
453.23879	0.036637
451.31012	0.036262
449.38144	0.036146
447.45277	0.036276
445.52409	0.036348
443.59541	0.036125
441.66674	0.035528
439.73806	0.034784
437.80939	0.034111
435.88071	0.033461
433.95204	0.032746
432.02336	0.031979
430.09468	0.031146
428.16601	0.030115
426.23733	0.029035
424.30866	0.028131
422.37998	0.027118
420.45131	0.025802
418.52263	0.024470
416.59395	0.023263
414.66528	0.022076
412.73660	0.020987
410.80793	0.020080
408.87925	0.019196
406.95058	0.018270
405.02190	0.017350
403.09322	0.016400
401.16455	0.015409
399.23587	0.014422
397.30720	0.013485
395.37852	0.012724
393.44985	0.012166
391.52117	0.011458
389.59249	0.010438
387.66382	0.009463
385.73514	0.008802
383.80647	0.008413
381.87779	0.008065
379.94912	0.007512
378.02044	0.006745
376.09176	0.005942
374.16309	0.005269
372.23441	0.004762
370.30574	0.004355
368.37706	0.004007
