7496.76250	0.00159
7494.83382	0.00159
7492.90514	0.00159
7490.97647	0.00158
7489.04779	0.00156
7487.11912	0.00155
7485.19044	0.00153
7483.26177	0.00153
7481.33309	0.00155
7479.40441	0.00158
7477.47574	0.00161
7475.54706	0.00163
7473.61839	0.00163
7471.68971	0.00162
7469.76104	0.00162
7467.83236	0.00164
7465.90368	0.00165
7463.97501	0.00164
7462.04633	0.00164
7460.11766	0.00163
7458.18898	0.00163
7456.26031	0.00163
7454.33163	0.00162
7452.40295	0.00163
7450.47428	0.00164
7448.54560	0.00165
7446.61693	0.00165
7444.68825	0.00166
7442.75958	0.00167
7440.83090	0.00169
7438.90222	0.00170
7436.97355	0.00171
7435.04487	0.00171
7433.11620	0.00171
7431.18752	0.00172
7429.25885	0.00172
7427.33017	0.00171
7425.40149	0.00169
7423.47282	0.00171
7421.54414	0.00173
7419.61547	0.00174
7417.68679	0.00175
7415.75812	0.00175
7413.82944	0.00175
7411.90076	0.00175
7409.97209	0.00173
7408.04341	0.00171
7406.11474	0.00171
7404.18606	0.00171
7402.25739	0.00174
7400.32871	0.00175
7398.40003	0.00176
7396.47136	0.00175
7394.54268	0.00174
7392.61401	0.00173
7390.68533	0.00175
7388.75666	0.00179
7386.82798	0.00180
7384.89930	0.00179
7382.97063	0.00179
7381.04195	0.00181
7379.11328	0.00182
7377.18460	0.00180
7375.25593	0.00180
7373.32725	0.00182
7371.39857	0.00184
7369.46990	0.00185
7367.54122	0.00185
7365.61255	0.00185
7363.68387	0.00183
7361.75520	0.00182
7359.82652	0.00184
7357.89784	0.00186
7355.96917	0.00186
7354.04049	0.00186
7352.11182	0.00187
7350.18314	0.00189
7348.25447	0.00188
7346.32579	0.00186
7344.39711	0.00185
7342.46844	0.00187
7340.53976	0.00188
7338.61109	0.00188
7336.68241	0.00190
7334.75374	0.00190
7332.82506	0.00190
7330.89638	0.00190
7328.96771	0.00190
7327.03903	0.00189
7325.11036	0.00189
7323.18168	0.00192
7321.25301	0.00196
7319.32433	0.00199
7317.39565	0.00199
7315.46698	0.00199
7313.53830	0.00199
7311.60963	0.00201
7309.68095	0.00202
7307.75228	0.00200
7305.82360	0.00196
7303.89492	0.00194
7301.96625	0.00195
7300.03757	0.00197
7298.10890	0.00199
7296.18022	0.00200
7294.25155	0.00199
7292.32287	0.00199
7290.39419	0.00200
7288.46552	0.00203
7286.53684	0.00205
7284.60817	0.00206
7282.67949	0.00205
7280.75082	0.00205
7278.82214	0.00204
7276.89346	0.00206
7274.96479	0.00207
7273.03611	0.00208
7271.10744	0.00207
7269.17876	0.00206
7267.25009	0.00205
7265.32141	0.00206
7263.39273	0.00207
7261.46406	0.00208
7259.53538	0.00210
7257.60671	0.00213
7255.67803	0.00214
7253.74936	0.00214
7251.82068	0.00213
7249.89200	0.00211
7247.96333	0.00212
7246.03465	0.00214
7244.10598	0.00216
7242.17730	0.00214
7240.24863	0.00213
7238.31995	0.00213
7236.39127	0.00215
7234.46260	0.00218
7232.53392	0.00219
7230.60525	0.00217
7228.67657	0.00217
7226.74790	0.00217
7224.81922	0.00217
7222.89054	0.00217
7220.96187	0.00219
7219.03319	0.00220
7217.10452	0.00220
7215.17584	0.00220
7213.24717	0.00221
7211.31849	0.00221
7209.38981	0.00220
7207.46114	0.00221
7205.53246	0.00222
7203.60379	0.00223
7201.67511	0.00223
7199.74644	0.00224
7197.81776	0.00225
7195.88908	0.00226
7193.96041	0.00229
7192.03173	0.00231
7190.10306	0.00230
7188.17438	0.00227
7186.24571	0.00225
7184.31703	0.00225
7182.38835	0.00225
7180.45968	0.00227
7178.53100	0.00229
7176.60233	0.00231
7174.67365	0.00232
7172.74498	0.00235
7170.81630	0.00235
7168.88762	0.00234
7166.95895	0.00233
7165.03027	0.00233
7163.10160	0.00233
7161.17292	0.00233
7159.24425	0.00235
7157.31557	0.00237
7155.38689	0.00238
7153.45822	0.00238
7151.52954	0.00236
7149.60087	0.00235
7147.67219	0.00235
7145.74352	0.00235
7143.81484	0.00235
7141.88616	0.00236
7139.95749	0.00237
7138.02881	0.00240
7136.10014	0.00243
7134.17146	0.00245
7132.24279	0.00246
7130.31411	0.00247
7128.38543	0.00247
7126.45676	0.00246
7124.52808	0.00245
7122.59941	0.00245
7120.67073	0.00246
7118.74206	0.00246
7116.81338	0.00245
7114.88470	0.00246
7112.95603	0.00247
7111.02735	0.00248
7109.09868	0.00250
7107.17000	0.00251
7105.24133	0.00250
7103.31265	0.00249
7101.38397	0.00251
7099.45530	0.00252
7097.52662	0.00252
7095.59795	0.00253
7093.66927	0.00255
7091.74060	0.00256
7089.81192	0.00258
7087.88324	0.00259
7085.95457	0.00258
7084.02589	0.00256
7082.09722	0.00255
7080.16854	0.00256
7078.23987	0.00259
7076.31119	0.00260
7074.38251	0.00261
7072.45384	0.00260
7070.52516	0.00260
7068.59649	0.00261
7066.66781	0.00262
7064.73914	0.00262
7062.81046	0.00262
7060.88178	0.00263
7058.95311	0.00264
7057.02443	0.00264
7055.09576	0.00264
7053.16708	0.00265
7051.23841	0.00267
7049.30973	0.00270
7047.38105	0.00271
7045.45238	0.00271
7043.52370	0.00270
7041.59503	0.00269
7039.66635	0.00269
7037.73768	0.00269
7035.80900	0.00271
7033.88032	0.00274
7031.95165	0.00275
7030.02297	0.00275
7028.09430	0.00273
7026.16562	0.00273
7024.23695	0.00274
7022.30827	0.00276
7020.37959	0.00278
7018.45092	0.00279
7016.52224	0.00278
7014.59357	0.00277
7012.66489	0.00276
7010.73622	0.00277
7008.80754	0.00278
7006.87886	0.00280
7004.95019	0.00280
7003.02151	0.00278
7001.09284	0.00277
6999.16416	0.00280
6997.23549	0.00284
6995.30681	0.00286
6993.37813	0.00285
6991.44946	0.00284
6989.52078	0.00286
6987.59211	0.00287
6985.66343	0.00287
6983.73476	0.00284
6981.80608	0.00284
6979.87740	0.00286
6977.94873	0.00289
6976.02005	0.00290
6974.09138	0.00290
6972.16270	0.00290
6970.23403	0.00288
6968.30535	0.00289
6966.37667	0.00292
6964.44800	0.00294
6962.51932	0.00296
6960.59065	0.00295
6958.66197	0.00295
6956.73330	0.00297
6954.80462	0.00299
6952.87594	0.00299
6950.94727	0.00297
6949.01859	0.00296
6947.08992	0.00297
6945.16124	0.00297
6943.23257	0.00296
6941.30389	0.00296
6939.37521	0.00299
6937.44654	0.00302
6935.51786	0.00304
6933.58919	0.00303
6931.66051	0.00303
6929.73184	0.00306
6927.80316	0.00310
6925.87448	0.00310
6923.94581	0.00308
6922.01713	0.00304
6920.08846	0.00305
6918.15978	0.00307
6916.23111	0.00308
6914.30243	0.00310
6912.37375	0.00312
6910.44508	0.00313
6908.51640	0.00312
6906.58773	0.00311
6904.65905	0.00312
6902.73038	0.00312
6900.80170	0.00314
6898.87302	0.00315
6896.94435	0.00315
6895.01567	0.00315
6893.08700	0.00317
6891.15832	0.00319
6889.22965	0.00320
6887.30097	0.00321
6885.37229	0.00322
6883.44362	0.00323
6881.51494	0.00324
6879.58627	0.00325
6877.65759	0.00323
6875.72892	0.00322
6873.80024	0.00323
6871.87156	0.00323
6869.94289	0.00324
6868.01421	0.00326
6866.08554	0.00326
6864.15686	0.00324
6862.22819	0.00324
6860.29951	0.00325
6858.37083	0.00326
6856.44216	0.00329
6854.51348	0.00331
6852.58481	0.00332
6850.65613	0.00331
6848.72746	0.00331
6846.79878	0.00332
6844.87010	0.00334
6842.94143	0.00335
6841.01275	0.00335
6839.08408	0.00336
6837.15540	0.00337
6835.22673	0.00338
6833.29805	0.00339
6831.36937	0.00339
6829.44070	0.00338
6827.51202	0.00340
6825.58335	0.00343
6823.65467	0.00344
6821.72600	0.00343
6819.79732	0.00342
6817.86864	0.00342
6815.93997	0.00345
6814.01129	0.00350
6812.08262	0.00351
6810.15394	0.00350
6808.22527	0.00350
6806.29659	0.00352
6804.36791	0.00353
6802.43924	0.00351
6800.51056	0.00347
6798.58189	0.00346
6796.65321	0.00348
6794.72454	0.00351
6792.79586	0.00353
6790.86718	0.00353
6788.93851	0.00352
6787.00983	0.00353
6785.08116	0.00354
6783.15248	0.00354
6781.22381	0.00356
6779.29513	0.00359
6777.36645	0.00361
6775.43778	0.00360
6773.50910	0.00358
6771.58043	0.00358
6769.65175	0.00359
6767.72308	0.00361
6765.79440	0.00363
6763.86572	0.00365
6761.93705	0.00366
6760.00837	0.00365
6758.07970	0.00364
6756.15102	0.00363
6754.22235	0.00365
6752.29367	0.00369
6750.36499	0.00372
6748.43632	0.00371
6746.50764	0.00370
6744.57897	0.00370
6742.65029	0.00371
6740.72162	0.00372
6738.79294	0.00374
6736.86426	0.00375
6734.93559	0.00375
6733.00691	0.00375
6731.07824	0.00375
6729.14956	0.00376
6727.22089	0.00379
6725.29221	0.00380
6723.36353	0.00380
6721.43486	0.00381
6719.50618	0.00382
6717.57751	0.00383
6715.64883	0.00385
6713.72016	0.00387
6711.79148	0.00385
6709.86280	0.00384
6707.93413	0.00385
6706.00545	0.00386
6704.07678	0.00385
6702.14810	0.00386
6700.21943	0.00389
6698.29075	0.00390
6696.36207	0.00388
6694.43340	0.00387
6692.50472	0.00388
6690.57605	0.00391
6688.64737	0.00393
6686.71870	0.00394
6684.79002	0.00396
6682.86134	0.00398
6680.93267	0.00400
6679.00399	0.00400
6677.07532	0.00400
6675.14664	0.00401
6673.21797	0.00402
6671.28929	0.00403
6669.36061	0.00403
6667.43194	0.00404
6665.50326	0.00405
6663.57459	0.00404
6661.64591	0.00403
6659.71724	0.00403
6657.78856	0.00404
6655.85988	0.00406
6653.93121	0.00409
6652.00253	0.00412
6650.07386	0.00414
6648.14518	0.00414
6646.21651	0.00412
6644.28783	0.00411
6642.35915	0.00412
6640.43048	0.00414
6638.50180	0.00415
6636.57313	0.00417
6634.64445	0.00418
6632.71578	0.00420
6630.78710	0.00420
6628.85842	0.00420
6626.92975	0.00422
6625.00107	0.00424
6623.07240	0.00424
6621.14372	0.00424
6619.21505	0.00425
6617.28637	0.00426
6615.35769	0.00426
6613.42902	0.00427
6611.50034	0.00428
6609.57167	0.00430
6607.64299	0.00430
6605.71432	0.00429
6603.78564	0.00430
6601.85696	0.00433
6599.92829	0.00435
6597.99961	0.00438
6596.07094	0.00439
6594.14226	0.00437
6592.21359	0.00435
6590.28491	0.00436
6588.35623	0.00438
6586.42756	0.00440
6584.49888	0.00440
6582.57021	0.00441
6580.64153	0.00443
6578.71286	0.00444
6576.78418	0.00445
6574.85550	0.00448
6572.92683	0.00448
6570.99815	0.00446
6569.06948	0.00446
6567.14080	0.00448
6565.21213	0.00449
6563.28345	0.00449
6561.35477	0.00448
6559.42610	0.00448
6557.49742	0.00450
6555.56875	0.00452
6553.64007	0.00455
6551.71140	0.00457
6549.78272	0.00458
6547.85404	0.00458
6545.92537	0.00459
6543.99669	0.00460
6542.06802	0.00461
6540.13934	0.00464
6538.21067	0.00466
6536.28199	0.00466
6534.35331	0.00466
6532.42464	0.00467
6530.49596	0.00470
6528.56729	0.00473
6526.63861	0.00473
6524.70994	0.00470
6522.78126	0.00467
6520.85258	0.00467
6518.92391	0.00469
6516.99523	0.00472
6515.06656	0.00475
6513.13788	0.00475
6511.20921	0.00474
6509.28053	0.00474
6507.35185	0.00477
6505.42318	0.00480
6503.49450	0.00482
6501.56583	0.00483
6499.63715	0.00484
6497.70848	0.00487
6495.77980	0.00489
6493.85112	0.00489
6491.92245	0.00489
6489.99377	0.00490
6488.06510	0.00492
6486.13642	0.00492
6484.20775	0.00491
6482.27907	0.00492
6480.35039	0.00495
6478.42172	0.00497
6476.49304	0.00497
6474.56437	0.00495
6472.63569	0.00494
6470.70702	0.00493
6468.77834	0.00494
6466.84966	0.00497
6464.92099	0.00500
6462.99231	0.00502
6461.06364	0.00503
6459.13496	0.00505
6457.20629	0.00508
6455.27761	0.00511
6453.34893	0.00512
6451.42026	0.00509
6449.49158	0.00507
6447.56291	0.00508
6445.63423	0.00511
6443.70556	0.00512
6441.77688	0.00513
6439.84820	0.00513
6437.91953	0.00514
6435.99085	0.00516
6434.06218	0.00519
6432.13350	0.00522
6430.20483	0.00523
6428.27615	0.00524
6426.34747	0.00525
6424.41880	0.00527
6422.49012	0.00528
6420.56145	0.00530
6418.63277	0.00531
6416.70410	0.00529
6414.77542	0.00530
6412.84674	0.00530
6410.91807	0.00528
6408.98939	0.00528
6407.06072	0.00531
6405.13204	0.00533
6403.20337	0.00533
6401.27469	0.00533
6399.34601	0.00534
6397.41734	0.00536
6395.48866	0.00539
6393.55999	0.00541
6391.63131	0.00543
6389.70264	0.00545
6387.77396	0.00546
6385.84528	0.00545
6383.91661	0.00545
6381.98793	0.00548
6380.05926	0.00552
6378.13058	0.00556
6376.20191	0.00555
6374.27323	0.00553
6372.34455	0.00553
6370.41588	0.00553
6368.48720	0.00552
6366.55853	0.00552
6364.62985	0.00555
6362.70118	0.00558
6360.77250	0.00561
6358.84382	0.00564
6356.91515	0.00566
6354.98647	0.00565
6353.05780	0.00561
6351.12912	0.00560
6349.20045	0.00561
6347.27177	0.00565
6345.34309	0.00568
6343.41442	0.00569
6341.48574	0.00570
6339.55707	0.00572
6337.62839	0.00574
6335.69972	0.00575
6333.77104	0.00576
6331.84236	0.00578
6329.91369	0.00579
6327.98501	0.00581
6326.05634	0.00583
6324.12766	0.00584
6322.19899	0.00585
6320.27031	0.00585
6318.34163	0.00583
6316.41296	0.00585
6314.48428	0.00589
6312.55561	0.00594
6310.62693	0.00596
6308.69826	0.00595
6306.76958	0.00594
6304.84090	0.00595
6302.91223	0.00596
6300.98355	0.00597
6299.05488	0.00597
6297.12620	0.00596
6295.19753	0.00598
6293.26885	0.00600
6291.34017	0.00603
6289.41150	0.00606
6287.48282	0.00608
6285.55415	0.00607
6283.62547	0.00609
6281.69680	0.00614
6279.76812	0.00618
6277.83944	0.00618
6275.91077	0.00617
6273.98209	0.00618
6272.05342	0.00618
6270.12474	0.00617
6268.19607	0.00615
6266.26739	0.00616
6264.33871	0.00618
6262.41004	0.00621
6260.48136	0.00623
6258.55269	0.00623
6256.62401	0.00622
6254.69534	0.00624
6252.76666	0.00628
6250.83798	0.00630
6248.90931	0.00630
6246.98063	0.00629
6245.05196	0.00630
6243.12328	0.00634
6241.19461	0.00638
6239.26593	0.00639
6237.33725	0.00639
6235.40858	0.00640
6233.47990	0.00641
6231.55123	0.00641
6229.62255	0.00640
6227.69388	0.00642
6225.76520	0.00645
6223.83652	0.00648
6221.90785	0.00650
6219.97917	0.00651
6218.05050	0.00651
6216.12182	0.00654
6214.19315	0.00657
6212.26447	0.00658
6210.33579	0.00659
6208.40712	0.00660
6206.47844	0.00660
6204.54977	0.00660
6202.62109	0.00662
6200.69242	0.00664
6198.76374	0.00664
6196.83506	0.00665
6194.90639	0.00667
6192.97771	0.00669
6191.04904	0.00668
6189.12036	0.00669
6187.19169	0.00672
6185.26301	0.00675
6183.33433	0.00677
6181.40566	0.00679
6179.47698	0.00680
6177.54831	0.00681
6175.61963	0.00682
6173.69096	0.00684
6171.76228	0.00689
6169.83360	0.00689
6167.90493	0.00686
6165.97625	0.00686
6164.04758	0.00689
6162.11890	0.00692
6160.19023	0.00694
6158.26155	0.00697
6156.33287	0.00700
6154.40420	0.00700
6152.47552	0.00701
6150.54685	0.00702
6148.61817	0.00704
6146.68950	0.00706
6144.76082	0.00707
6142.83214	0.00707
6140.90347	0.00709
6138.97479	0.00710
6137.04612	0.00710
6135.11744	0.00710
6133.18877	0.00712
6131.26009	0.00715
6129.33141	0.00718
6127.40274	0.00719
6125.47406	0.00719
6123.54539	0.00720
6121.61671	0.00722
6119.68804	0.00725
6117.75936	0.00727
6115.83068	0.00731
6113.90201	0.00734
6111.97333	0.00733
6110.04466	0.00732
6108.11598	0.00732
6106.18731	0.00733
6104.25863	0.00736
6102.32995	0.00738
6100.40128	0.00741
6098.47260	0.00743
6096.54393	0.00743
6094.61525	0.00743
6092.68658	0.00743
6090.75790	0.00746
6088.82922	0.00749
6086.90055	0.00752
6084.97187	0.00754
6083.04320	0.00755
6081.11452	0.00754
6079.18585	0.00755
6077.25717	0.00760
6075.32849	0.00764
6073.39982	0.00765
6071.47114	0.00763
6069.54247	0.00764
6067.61379	0.00767
6065.68512	0.00770
6063.75644	0.00772
6061.82776	0.00775
6059.89909	0.00776
6057.97041	0.00777
6056.04174	0.00778
6054.11306	0.00781
6052.18439	0.00783
6050.25571	0.00783
6048.32703	0.00783
6046.39836	0.00786
6044.46968	0.00789
6042.54101	0.00790
6040.61233	0.00790
6038.68366	0.00789
6036.75498	0.00789
6034.82630	0.00790
6032.89763	0.00792
6030.96895	0.00795
6029.04028	0.00797
6027.11160	0.00799
6025.18293	0.00801
6023.25425	0.00804
6021.32557	0.00807
6019.39690	0.00809
6017.46822	0.00810
6015.53955	0.00811
6013.61087	0.00811
6011.68220	0.00814
6009.75352	0.00818
6007.82484	0.00820
6005.89617	0.00823
6003.96749	0.00825
6002.03882	0.00825
6000.11014	0.00825
5998.18147	0.00825
5996.25279	0.00826
5994.32411	0.00828
5992.39544	0.00830
5990.46676	0.00831
5988.53809	0.00833
5986.60941	0.00837
5984.68074	0.00840
5982.75206	0.00842
5980.82338	0.00844
5978.89471	0.00845
5976.96603	0.00847
5975.03736	0.00847
5973.10868	0.00845
5971.18001	0.00845
5969.25133	0.00847
5967.32265	0.00848
5965.39398	0.00850
5963.46530	0.00852
5961.53663	0.00854
5959.60795	0.00857
5957.67928	0.00861
5955.75060	0.00864
5953.82192	0.00866
5951.89325	0.00867
5949.96457	0.00871
5948.03590	0.00875
5946.10722	0.00877
5944.17855	0.00877
5942.24987	0.00877
5940.32119	0.00878
5938.39252	0.00880
5936.46384	0.00881
5934.53517	0.00883
5932.60649	0.00886
5930.67782	0.00888
5928.74914	0.00890
5926.82046	0.00892
5924.89179	0.00893
5922.96311	0.00894
5921.03444	0.00897
5919.10576	0.00901
5917.17709	0.00903
5915.24841	0.00905
5913.31973	0.00906
5911.39106	0.00906
5909.46238	0.00907
5907.53371	0.00911
5905.60503	0.00914
5903.67636	0.00915
5901.74768	0.00917
5899.81900	0.00920
5897.89033	0.00920
5895.96165	0.00919
5894.03298	0.00917
5892.10430	0.00919
5890.17563	0.00924
5888.24695	0.00927
5886.31827	0.00930
5884.38960	0.00932
5882.46092	0.00934
5880.53225	0.00936
5878.60357	0.00938
5876.67490	0.00939
5874.74622	0.00939
5872.81755	0.00941
5870.88887	0.00944
5868.96019	0.00945
5867.03152	0.00945
5865.10284	0.00946
5863.17417	0.00949
5861.24549	0.00953
5859.31682	0.00955
5857.38814	0.00957
5855.45946	0.00960
5853.53079	0.00961
5851.60211	0.00962
5849.67344	0.00962
5847.74476	0.00965
5845.81609	0.00970
5843.88741	0.00975
5841.95873	0.00978
5840.03006	0.00981
5838.10138	0.00983
5836.17271	0.00986
5834.24403	0.00988
5832.31536	0.00989
5830.38668	0.00987
5828.45800	0.00986
5826.52933	0.00986
5824.60065	0.00988
5822.67198	0.00991
5820.74330	0.00995
5818.81463	0.00998
5816.88595	0.01002
5814.95727	0.01005
5813.02860	0.01007
5811.09992	0.01008
5809.17125	0.01011
5807.24257	0.01012
5805.31390	0.01013
5803.38522	0.01014
5801.45654	0.01017
5799.52787	0.01020
5797.59919	0.01022
5795.67052	0.01024
5793.74184	0.01027
5791.81317	0.01031
5789.88449	0.01033
5787.95581	0.01036
5786.02714	0.01039
5784.09846	0.01041
5782.16979	0.01043
5780.24111	0.01043
5778.31244	0.01043
5776.38376	0.01044
5774.45508	0.01046
5772.52641	0.01046
5770.59773	0.01046
5768.66906	0.01047
5766.74038	0.01051
5764.81171	0.01052
5762.88303	0.01053
5760.95435	0.01056
5759.02568	0.01060
5757.09700	0.01063
5755.16833	0.01064
5753.23965	0.01066
5751.31098	0.01067
5749.38230	0.01071
5747.45362	0.01076
5745.52495	0.01078
5743.59627	0.01079
5741.66760	0.01081
5739.73892	0.01084
5737.81025	0.01088
5735.88157	0.01091
5733.95289	0.01093
5732.02422	0.01094
5730.09554	0.01095
5728.16687	0.01096
5726.23819	0.01100
5724.30952	0.01105
5722.38084	0.01108
5720.45216	0.01109
5718.52349	0.01109
5716.59481	0.01111
5714.66614	0.01115
5712.73746	0.01118
5710.80879	0.01119
5708.88011	0.01117
5706.95143	0.01118
5705.02276	0.01122
5703.09408	0.01128
5701.16541	0.01132
5699.23673	0.01132
5697.30806	0.01132
5695.37938	0.01133
5693.45070	0.01134
5691.52203	0.01136
5689.59335	0.01139
5687.66468	0.01142
5685.73600	0.01146
5683.80733	0.01150
5681.87865	0.01152
5679.94997	0.01153
5678.02130	0.01155
5676.09262	0.01156
5674.16395	0.01160
5672.23527	0.01164
5670.30660	0.01166
5668.37792	0.01167
5666.44924	0.01168
5664.52057	0.01169
5662.59189	0.01171
5660.66322	0.01176
5658.73454	0.01180
5656.80587	0.01184
5654.87719	0.01187
5652.94851	0.01188
5651.01984	0.01190
5649.09116	0.01192
5647.16249	0.01192
5645.23381	0.01193
5643.30514	0.01196
5641.37646	0.01199
5639.44778	0.01201
5637.51911	0.01204
5635.59043	0.01207
5633.66176	0.01210
5631.73308	0.01212
5629.80441	0.01213
5627.87573	0.01214
5625.94705	0.01216
5624.01838	0.01219
5622.08970	0.01223
5620.16103	0.01228
5618.23235	0.01229
5616.30368	0.01232
5614.37500	0.01237
5612.44632	0.01240
5610.51765	0.01241
5608.58897	0.01241
5606.66030	0.01244
5604.73162	0.01246
5602.80295	0.01246
5600.87427	0.01248
5598.94559	0.01252
5597.01692	0.01255
5595.08824	0.01256
5593.15957	0.01258
5591.23089	0.01262
5589.30222	0.01266
5587.37354	0.01269
5585.44486	0.01269
5583.51619	0.01270
5581.58751	0.01274
5579.65884	0.01280
5577.73016	0.01284
5575.80149	0.01286
5573.87281	0.01287
5571.94413	0.01286
5570.01546	0.01286
5568.08678	0.01288
5566.15811	0.01293
5564.22943	0.01298
5562.30076	0.01299
5560.37208	0.01300
5558.44340	0.01302
5556.51473	0.01304
5554.58605	0.01308
5552.65738	0.01312
5550.72870	0.01316
5548.80003	0.01318
5546.87135	0.01320
5544.94267	0.01324
5543.01400	0.01326
5541.08532	0.01326
5539.15665	0.01327
5537.22797	0.01330
5535.29930	0.01332
5533.37062	0.01335
5531.44194	0.01339
5529.51327	0.01343
5527.58459	0.01346
5525.65592	0.01349
5523.72724	0.01352
5521.79857	0.01353
5519.86989	0.01354
5517.94121	0.01356
5516.01254	0.01359
5514.08386	0.01362
5512.15519	0.01366
5510.22651	0.01370
5508.29784	0.01370
5506.36916	0.01373
5504.44048	0.01377
5502.51181	0.01381
5500.58313	0.01381
5498.65446	0.01381
5496.72578	0.01382
5494.79711	0.01386
5492.86843	0.01391
5490.93975	0.01396
5489.01108	0.01398
5487.08240	0.01401
5485.15373	0.01405
5483.22505	0.01407
5481.29638	0.01407
5479.36770	0.01408
5477.43902	0.01409
5475.51035	0.01411
5473.58167	0.01415
5471.65300	0.01419
5469.72432	0.01422
5467.79565	0.01424
5465.86697	0.01426
5463.93829	0.01431
5462.00962	0.01435
5460.08094	0.01437
5458.15227	0.01439
5456.22359	0.01442
5454.29492	0.01447
5452.36624	0.01449
5450.43756	0.01451
5448.50889	0.01452
5446.58021	0.01452
5444.65154	0.01453
5442.72286	0.01457
5440.79419	0.01461
5438.86551	0.01464
5436.93683	0.01468
5435.00816	0.01472
5433.07948	0.01475
5431.15081	0.01476
5429.22213	0.01477
5427.29346	0.01479
5425.36478	0.01483
5423.43610	0.01488
5421.50743	0.01493
5419.57875	0.01497
5417.65008	0.01498
5415.72140	0.01496
5413.79273	0.01496
5411.86405	0.01498
5409.93537	0.01503
5408.00670	0.01510
5406.07802	0.01517
5404.14935	0.01521
5402.22067	0.01523
5400.29200	0.01523
5398.36332	0.01523
5396.43464	0.01524
5394.50597	0.01527
5392.57729	0.01531
5390.64862	0.01535
5388.71994	0.01539
5386.79127	0.01542
5384.86259	0.01544
5382.93391	0.01547
5381.00524	0.01551
5379.07656	0.01553
5377.14789	0.01555
5375.21921	0.01560
5373.29054	0.01565
5371.36186	0.01566
5369.43318	0.01567
5367.50451	0.01567
5365.57583	0.01569
5363.64716	0.01572
5361.71848	0.01575
5359.78981	0.01576
5357.86113	0.01576
5355.93245	0.01577
5354.00378	0.01580
5352.07510	0.01584
5350.14643	0.01588
5348.21775	0.01590
5346.28908	0.01593
5344.36040	0.01598
5342.43172	0.01603
5340.50305	0.01607
5338.57437	0.01609
5336.64570	0.01610
5334.71702	0.01614
5332.78835	0.01620
5330.85967	0.01625
5328.93099	0.01627
5327.00232	0.01627
5325.07364	0.01629
5323.14497	0.01634
5321.21629	0.01640
5319.28762	0.01642
5317.35894	0.01642
5315.43026	0.01643
5313.50159	0.01647
5311.57291	0.01652
5309.64424	0.01656
5307.71556	0.01657
5305.78689	0.01658
5303.85821	0.01662
5301.92953	0.01668
5300.00086	0.01671
5298.07218	0.01673
5296.14351	0.01676
5294.21483	0.01679
5292.28616	0.01680
5290.35748	0.01680
5288.42880	0.01684
5286.50013	0.01689
5284.57145	0.01692
5282.64278	0.01695
5280.71410	0.01698
5278.78543	0.01700
5276.85675	0.01701
5274.92807	0.01703
5272.99940	0.01707
5271.07072	0.01711
5269.14205	0.01715
5267.21337	0.01718
5265.28470	0.01719
5263.35602	0.01723
5261.42734	0.01731
5259.49867	0.01736
5257.56999	0.01738
5255.64132	0.01737
5253.71264	0.01738
5251.78397	0.01742
5249.85529	0.01745
5247.92661	0.01747
5245.99794	0.01750
5244.06926	0.01756
5242.14059	0.01762
5240.21191	0.01764
5238.28324	0.01764
5236.35456	0.01765
5234.42588	0.01769
5232.49721	0.01775
5230.56853	0.01780
5228.63986	0.01783
5226.71118	0.01784
5224.78251	0.01788
5222.85383	0.01792
5220.92515	0.01794
5218.99648	0.01795
5217.06780	0.01798
5215.13913	0.01801
5213.21045	0.01805
5211.28178	0.01807
5209.35310	0.01808
5207.42442	0.01808
5205.49575	0.01811
5203.56707	0.01816
5201.63840	0.01822
5199.70972	0.01829
5197.78105	0.01836
5195.85237	0.01841
5193.92369	0.01843
5191.99502	0.01844
5190.06634	0.01845
5188.13767	0.01844
5186.20899	0.01843
5184.28032	0.01846
5182.35164	0.01854
5180.42296	0.01861
5178.49429	0.01862
5176.56561	0.01862
5174.63694	0.01865
5172.70826	0.01870
5170.77959	0.01874
5168.85091	0.01876
5166.92223	0.01880
5164.99356	0.01884
5163.06488	0.01887
5161.13621	0.01891
5159.20753	0.01897
5157.27886	0.01902
5155.35018	0.01904
5153.42150	0.01904
5151.49283	0.01905
5149.56415	0.01907
5147.63548	0.01910
5145.70680	0.01914
5143.77813	0.01920
5141.84945	0.01926
5139.92077	0.01929
5137.99210	0.01930
5136.06342	0.01930
5134.13475	0.01930
5132.20607	0.01932
5130.27740	0.01938
5128.34872	0.01944
5126.42004	0.01948
5124.49137	0.01952
5122.56269	0.01956
5120.63402	0.01960
5118.70534	0.01963
5116.77667	0.01964
5114.84799	0.01966
5112.91931	0.01972
5110.99064	0.01977
5109.06196	0.01980
5107.13329	0.01981
5105.20461	0.01983
5103.27594	0.01982
5101.34726	0.01982
5099.41858	0.01986
5097.48991	0.01993
5095.56123	0.01999
5093.63256	0.02001
5091.70388	0.02003
5089.77521	0.02008
5087.84653	0.02015
5085.91785	0.02018
5083.98918	0.02020
5082.06050	0.02023
5080.13183	0.02027
5078.20315	0.02031
5076.27448	0.02033
5074.34580	0.02034
5072.41712	0.02038
5070.48845	0.02045
5068.55977	0.02050
5066.63110	0.02052
5064.70242	0.02053
5062.77375	0.02059
5060.84507	0.02063
5058.91639	0.02064
5056.98772	0.02065
5055.05904	0.02068
5053.13037	0.02072
5051.20169	0.02074
5049.27302	0.02076
5047.34434	0.02080
5045.41566	0.02084
5043.48699	0.02086
5041.55831	0.02087
5039.62964	0.02089
5037.70096	0.02094
5035.77229	0.02101
5033.84361	0.02106
5031.91493	0.02108
5029.98626	0.02111
5028.05758	0.02114
5026.12891	0.02118
5024.20023	0.02123
5022.27156	0.02128
5020.34288	0.02132
5018.41420	0.02134
5016.48553	0.02136
5014.55685	0.02141
5012.62818	0.02146
5010.69950	0.02148
5008.77083	0.02151
5006.84215	0.02154
5004.91347	0.02158
5002.98480	0.02162
5001.05612	0.02167
4999.12745	0.02171
4997.19877	0.02174
4995.27010	0.02177
4993.34142	0.02180
4991.41274	0.02183
4989.48407	0.02186
4987.55539	0.02190
4985.62672	0.02195
4983.69804	0.02199
4981.76937	0.02201
4979.84069	0.02202
4977.91201	0.02204
4975.98334	0.02209
4974.05466	0.02213
4972.12599	0.02215
4970.19731	0.02220
4968.26864	0.02227
4966.33996	0.02231
4964.41128	0.02233
4962.48261	0.02236
4960.55393	0.02238
4958.62526	0.02242
4956.69658	0.02249
4954.76791	0.02254
4952.83923	0.02257
4950.91055	0.02258
4948.98188	0.02261
4947.05320	0.02264
4945.12453	0.02267
4943.19585	0.02270
4941.26718	0.02274
4939.33850	0.02279
4937.40982	0.02283
4935.48115	0.02285
4933.55247	0.02287
4931.62380	0.02290
4929.69512	0.02294
4927.76645	0.02299
4925.83777	0.02305
4923.90909	0.02310
4921.98042	0.02313
4920.05174	0.02316
4918.12307	0.02322
4916.19439	0.02327
4914.26572	0.02329
4912.33704	0.02331
4910.40836	0.02335
4908.47969	0.02339
4906.55101	0.02341
4904.62234	0.02343
4902.69366	0.02345
4900.76499	0.02351
4898.83631	0.02358
4896.90763	0.02362
4894.97896	0.02361
4893.05028	0.02362
4891.12161	0.02367
4889.19293	0.02373
4887.26426	0.02378
4885.33558	0.02384
4883.40690	0.02389
4881.47823	0.02394
4879.54955	0.02399
4877.62088	0.02401
4875.69220	0.02401
4873.76353	0.02403
4871.83485	0.02406
4869.90617	0.02410
4867.97750	0.02417
4866.04882	0.02425
4864.12015	0.02428
4862.19147	0.02428
4860.26280	0.02431
4858.33412	0.02436
4856.40544	0.02440
4854.47677	0.02443
4852.54809	0.02447
4850.61942	0.02452
4848.69074	0.02457
4846.76207	0.02460
4844.83339	0.02463
4842.90471	0.02467
4840.97604	0.02474
4839.04736	0.02479
4837.11869	0.02481
4835.19001	0.02483
4833.26134	0.02487
4831.33266	0.02492
4829.40398	0.02495
4827.47531	0.02497
4825.54663	0.02498
4823.61796	0.02503
4821.68928	0.02511
4819.76061	0.02516
4817.83193	0.02518
4815.90325	0.02519
4813.97458	0.02523
4812.04590	0.02530
4810.11723	0.02535
4808.18855	0.02537
4806.25988	0.02538
4804.33120	0.02541
4802.40252	0.02545
4800.47385	0.02550
4798.54517	0.02554
4796.61650	0.02562
4794.68782	0.02570
4792.75915	0.02574
4790.83047	0.02575
4788.90179	0.02575
4786.97312	0.02578
4785.04444	0.02585
4783.11577	0.02591
4781.18709	0.02595
4779.25842	0.02597
4777.32974	0.02601
4775.40106	0.02606
4773.47239	0.02613
4771.54371	0.02618
4769.61504	0.02620
4767.68636	0.02622
4765.75769	0.02627
4763.82901	0.02631
4761.90033	0.02633
4759.97166	0.02634
4758.04298	0.02637
4756.11431	0.02643
4754.18563	0.02647
4752.25696	0.02650
4750.32828	0.02656
4748.39960	0.02663
4746.47093	0.02670
4744.54225	0.02676
4742.61358	0.02681
4740.68490	0.02680
4738.75623	0.02680
4736.82755	0.02685
4734.89887	0.02692
4732.97020	0.02698
4731.04152	0.02703
4729.11285	0.02706
4727.18417	0.02710
4725.25550	0.02717
4723.32682	0.02725
4721.39814	0.02730
4719.46947	0.02734
4717.54079	0.02736
4715.61212	0.02737
4713.68344	0.02740
4711.75477	0.02744
4709.82609	0.02747
4707.89741	0.02749
4705.96874	0.02752
4704.04006	0.02759
4702.11139	0.02767
4700.18271	0.02772
4698.25404	0.02775
4696.32536	0.02777
4694.39668	0.02779
4692.46801	0.02783
4690.53933	0.02788
4688.61066	0.02795
4686.68198	0.02800
4684.75331	0.02803
4682.82463	0.02808
4680.89595	0.02814
4678.96728	0.02820
4677.03860	0.02824
4675.10993	0.02828
4673.18125	0.02837
4671.25258	0.02845
4669.32390	0.02848
4667.39522	0.02848
4665.46655	0.02852
4663.53787	0.02857
4661.60920	0.02863
4659.68052	0.02867
4657.75185	0.02869
4655.82317	0.02873
4653.89449	0.02881
4651.96582	0.02886
4650.03714	0.02889
4648.10847	0.02892
4646.17979	0.02896
4644.25112	0.02902
4642.32244	0.02909
4640.39376	0.02914
4638.46509	0.02917
4636.53641	0.02920
4634.60774	0.02924
4632.67906	0.02930
4630.75039	0.02936
4628.82171	0.02939
4626.89303	0.02943
4624.96436	0.02949
4623.03568	0.02955
4621.10701	0.02959
4619.17833	0.02964
4617.24966	0.02971
4615.32098	0.02977
4613.39230	0.02981
4611.46363	0.02984
4609.53495	0.02988
4607.60628	0.02993
4605.67760	0.02998
4603.74893	0.03001
4601.82025	0.03005
4599.89157	0.03010
4597.96290	0.03017
4596.03422	0.03025
4594.10555	0.03031
4592.17687	0.03034
4590.24820	0.03038
4588.31952	0.03044
4586.39084	0.03051
4584.46217	0.03057
4582.53349	0.03061
4580.60482	0.03063
4578.67614	0.03066
4576.74747	0.03070
4574.81879	0.03074
4572.89011	0.03078
4570.96144	0.03083
4569.03276	0.03090
4567.10409	0.03097
4565.17541	0.03105
4563.24674	0.03111
4561.31806	0.03114
4559.38938	0.03116
4557.46071	0.03120
4555.53203	0.03126
4553.60336	0.03134
4551.67468	0.03143
4549.74601	0.03150
4547.81733	0.03153
4545.88865	0.03153
4543.95998	0.03155
4542.03130	0.03158
4540.10263	0.03164
4538.17395	0.03171
4536.24528	0.03178
4534.31660	0.03187
4532.38792	0.03197
4530.45925	0.03203
4528.53057	0.03206
4526.60190	0.03206
4524.67322	0.03208
4522.74455	0.03214
4520.81587	0.03223
4518.88719	0.03230
4516.95852	0.03232
4515.02984	0.03235
4513.10117	0.03239
4511.17249	0.03245
4509.24382	0.03250
4507.31514	0.03255
4505.38646	0.03261
4503.45779	0.03267
4501.52911	0.03273
4499.60044	0.03283
4497.67176	0.03292
4495.74309	0.03298
4493.81441	0.03303
4491.88573	0.03309
4489.95706	0.03314
4488.02838	0.03318
4486.09971	0.03322
4484.17103	0.03328
4482.24236	0.03335
4480.31368	0.03343
4478.38500	0.03350
4476.45633	0.03355
4474.52765	0.03360
4472.59898	0.03363
4470.67030	0.03366
4468.74163	0.03370
4466.81295	0.03375
4464.88427	0.03380
4462.95560	0.03389
4461.02692	0.03398
4459.09825	0.03403
4457.16957	0.03408
4455.24090	0.03415
4453.31222	0.03424
4451.38354	0.03429
4449.45487	0.03432
4447.52619	0.03435
4445.59752	0.03438
4443.66884	0.03443
4441.74017	0.03450
4439.81149	0.03459
4437.88281	0.03466
4435.95414	0.03470
4434.02546	0.03472
4432.09679	0.03478
4430.16811	0.03486
4428.23944	0.03494
4426.31076	0.03502
4424.38208	0.03508
4422.45341	0.03514
4420.52473	0.03521
4418.59606	0.03528
4416.66738	0.03534
4414.73871	0.03540
4412.81003	0.03546
4410.88135	0.03550
4408.95268	0.03554
4407.02400	0.03559
4405.09533	0.03564
4403.16665	0.03570
4401.23798	0.03574
4399.30930	0.03579
4397.38062	0.03587
4395.45195	0.03596
4393.52327	0.03602
4391.59460	0.03606
4389.66592	0.03611
4387.73725	0.03619
4385.80857	0.03630
4383.87989	0.03640
4381.95122	0.03648
4380.02254	0.03654
4378.09387	0.03657
4376.16519	0.03660
4374.23652	0.03665
4372.30784	0.03672
4370.37916	0.03678
4368.45049	0.03682
4366.52181	0.03689
4364.59314	0.03699
4362.66446	0.03709
4360.73579	0.03715
4358.80711	0.03719
4356.87843	0.03723
4354.94976	0.03727
4353.02108	0.03734
4351.09241	0.03743
4349.16373	0.03753
4347.23506	0.03761
4345.30638	0.03767
4343.37770	0.03772
4341.44903	0.03778
4339.52035	0.03784
4337.59168	0.03793
4335.66300	0.03802
4333.73433	0.03809
4331.80565	0.03815
4329.87697	0.03821
4327.94830	0.03830
4326.01962	0.03838
4324.09095	0.03845
4322.16227	0.03852
4320.23360	0.03857
4318.30492	0.03861
4316.37624	0.03868
4314.44757	0.03876
4312.51889	0.03881
4310.59022	0.03887
4308.66154	0.03896
4306.73287	0.03901
4304.80419	0.03903
4302.87551	0.03906
4300.94684	0.03913
4299.01816	0.03924
4297.08949	0.03935
4295.16081	0.03945
4293.23214	0.03950
4291.30346	0.03957
4289.37478	0.03967
4287.44611	0.03976
4285.51743	0.03983
4283.58876	0.03988
4281.66008	0.03994
4279.73141	0.04000
4277.80273	0.04008
4275.87405	0.04017
4273.94538	0.04026
4272.01670	0.04033
4270.08803	0.04040
4268.15935	0.04047
4266.23068	0.04055
4264.30200	0.04063
4262.37332	0.04070
4260.44465	0.04076
4258.51597	0.04080
4256.58730	0.04086
4254.65862	0.04095
4252.72995	0.04104
4250.80127	0.04112
4248.87259	0.04119
4246.94392	0.04125
4245.01524	0.04131
4243.08657	0.04135
4241.15789	0.04140
4239.22922	0.04148
4237.30054	0.04157
4235.37186	0.04165
4233.44319	0.04173
4231.51451	0.04182
4229.58584	0.04191
4227.65716	0.04200
4225.72849	0.04209
4223.79981	0.04218
4221.87113	0.04227
4219.94246	0.04237
4218.01378	0.04245
4216.08511	0.04249
4214.15643	0.04253
4212.22776	0.04257
4210.29908	0.04263
4208.37040	0.04274
4206.44173	0.04286
4204.51305	0.04298
4202.58438	0.04309
4200.65570	0.04317
4198.72703	0.04320
4196.79835	0.04325
4194.86968	0.04335
4192.94100	0.04347
4191.01232	0.04356
4189.08365	0.04361
4187.15497	0.04367
4185.22630	0.04376
4183.29762	0.04386
4181.36895	0.04394
4179.44027	0.04403
4177.51159	0.04410
4175.58292	0.04417
4173.65424	0.04425
4171.72557	0.04433
4169.79689	0.04440
4167.86822	0.04448
4165.93954	0.04456
4164.01086	0.04465
4162.08219	0.04475
4160.15351	0.04487
4158.22484	0.04495
4156.29616	0.04500
4154.36749	0.04505
4152.43881	0.04513
4150.51013	0.04520
4148.58146	0.04530
4146.65278	0.04543
4144.72411	0.04556
4142.79543	0.04565
4140.86676	0.04571
4138.93808	0.04578
4137.00940	0.04583
4135.08073	0.04588
4133.15205	0.04597
4131.22338	0.04609
4129.29470	0.04621
4127.36603	0.04630
4125.43735	0.04636
4123.50867	0.04645
4121.58000	0.04655
4119.65132	0.04662
4117.72265	0.04666
4115.79397	0.04673
4113.86530	0.04684
4111.93662	0.04697
4110.00794	0.04708
4108.07927	0.04716
4106.15059	0.04721
4104.22192	0.04726
4102.29324	0.04735
4100.36457	0.04745
4098.43589	0.04751
4096.50721	0.04754
4094.57854	0.04764
4092.64986	0.04777
4090.72119	0.04790
4088.79251	0.04799
4086.86384	0.04808
4084.93516	0.04817
4083.00648	0.04826
4081.07781	0.04835
4079.14913	0.04841
4077.22046	0.04849
4075.29178	0.04860
4073.36311	0.04871
4071.43443	0.04882
4069.50575	0.04895
4067.57708	0.04908
4065.64840	0.04918
4063.71973	0.04923
4061.79105	0.04926
4059.86238	0.04936
4057.93370	0.04948
4056.00502	0.04958
4054.07635	0.04968
4052.14767	0.04979
4050.21900	0.04990
4048.29032	0.04999
4046.36165	0.05008
4044.43297	0.05014
4042.50429	0.05019
4040.57562	0.05029
4038.64694	0.05042
4036.71827	0.05054
4034.78959	0.05064
4032.86092	0.05076
4030.93224	0.05087
4029.00356	0.05095
4027.07489	0.05103
4025.14621	0.05110
4023.21754	0.05118
4021.28886	0.05130
4019.36019	0.05140
4017.43151	0.05150
4015.50283	0.05162
4013.57416	0.05173
4011.64548	0.05179
4009.71681	0.05184
4007.78813	0.05193
4005.85946	0.05202
4003.93078	0.05211
4002.00210	0.05221
4000.07343	0.05231
3998.14475	0.05243
3996.21608	0.05253
3994.28740	0.05261
3992.35873	0.05271
3990.43005	0.05282
3988.50137	0.05292
3986.57270	0.05303
3984.64402	0.05312
3982.71535	0.05322
3980.78667	0.05333
3978.85800	0.05346
3976.92932	0.05357
3975.00064	0.05365
3973.07197	0.05372
3971.14329	0.05381
3969.21462	0.05392
3967.28594	0.05403
3965.35727	0.05414
3963.42859	0.05423
3961.49991	0.05433
3959.57124	0.05443
3957.64256	0.05450
3955.71389	0.05457
3953.78521	0.05468
3951.85654	0.05481
3949.92786	0.05493
3947.99918	0.05503
3946.07051	0.05510
3944.14183	0.05516
3942.21316	0.05526
3940.28448	0.05539
3938.35581	0.05553
3936.42713	0.05564
3934.49845	0.05572
3932.56978	0.05580
3930.64110	0.05591
3928.71243	0.05603
3926.78375	0.05613
3924.85508	0.05624
3922.92640	0.05636
3920.99772	0.05644
3919.06905	0.05647
3917.14037	0.05654
3915.21170	0.05673
3913.28302	0.05695
3911.35435	0.05710
3909.42567	0.05716
3907.49699	0.05715
3905.56832	0.05710
3903.63964	0.05710
3901.71097	0.05718
3899.78229	0.05734
3897.85362	0.05757
3895.92494	0.05778
3893.99626	0.05785
3892.06759	0.05789
3890.13891	0.05803
3888.21024	0.05817
3886.28156	0.05826
3884.35289	0.05835
3882.42421	0.05845
3880.49553	0.05855
3878.56686	0.05873
3876.63818	0.05889
3874.70951	0.05897
3872.78083	0.05900
3870.85216	0.05904
3868.92348	0.05913
3866.99480	0.05928
3865.06613	0.05939
3863.13745	0.05951
3861.20878	0.05971
3859.28010	0.05989
3857.35143	0.05984
3855.42275	0.05957
3853.49407	0.05952
3851.56540	0.05989
3849.63672	0.06034
3847.70805	0.06060
3845.77937	0.06069
3843.85070	0.06071
3841.92202	0.06072
3839.99334	0.06074
3838.06467	0.06080
3836.13599	0.06100
3834.20732	0.06125
3832.27864	0.06146
3830.34997	0.06160
3828.42129	0.06168
3826.49261	0.06173
3824.56394	0.06175
3822.63526	0.06171
3820.70659	0.06178
3818.77791	0.06199
3816.84924	0.06217
3814.92056	0.06239
3812.99188	0.06267
3811.06321	0.06283
3809.13453	0.06283
3807.20586	0.06283
3805.27718	0.06291
3803.34851	0.06298
3801.41983	0.06311
3799.49115	0.06335
3797.56248	0.06356
3795.63380	0.06372
3793.70513	0.06388
3791.77645	0.06402
3789.84778	0.06413
3787.91910	0.06420
3785.99042	0.06428
3784.06175	0.06439
3782.13307	0.06448
3780.20440	0.06455
3778.27572	0.06467
3776.34705	0.06485
3774.41837	0.06499
3772.48969	0.06503
3770.56102	0.06505
3768.63234	0.06514
3766.70367	0.06527
3764.77499	0.06542
3762.84632	0.06557
3760.91764	0.06567
3758.98896	0.06576
3757.06029	0.06587
3755.13161	0.06592
3753.20294	0.06589
3751.27426	0.06590
3749.34559	0.06601
3747.41691	0.06607
3745.48823	0.06605
3743.55956	0.06628
3741.63088	0.06670
3739.70221	0.06689
3737.77353	0.06681
3735.84486	0.06678
3733.91618	0.06697
3731.98750	0.06728
3730.05883	0.06755
3728.13015	0.06768
3726.20148	0.06776
3724.27280	0.06790
3722.34413	0.06808
3720.41545	0.06827
3718.48677	0.06844
3716.55810	0.06852
3714.62942	0.06853
3712.70075	0.06853
3710.77207	0.06865
3708.84340	0.06890
3706.91472	0.06915
3704.98604	0.06931
3703.05737	0.06938
3701.12869	0.06948
3699.20002	0.06965
3697.27134	0.06980
3695.34267	0.06991
3693.41399	0.06996
3691.48531	0.06991
3689.55664	0.06993
3687.62796	0.07014
3685.69929	0.07042
3683.77061	0.07062
3681.84194	0.07073
3679.91326	0.07074
3677.98458	0.07063
3676.05591	0.07056
3674.12723	0.07072
3672.19856	0.07092
3670.26988	0.07106
3668.34121	0.07127
3666.41253	0.07156
3664.48385	0.07180
3662.55518	0.07195
3660.62650	0.07200
3658.69783	0.07197
3656.76915	0.07198
3654.84048	0.07209
3652.91180	0.07209
3650.98312	0.07189
3649.05445	0.07177
3647.12577	0.07196
3645.19710	0.07235
3643.26842	0.07272
3641.33975	0.07296
3639.41107	0.07309
3637.48239	0.07319
3635.55372	0.07327
3633.62504	0.07329
3631.69637	0.07317
3629.76769	0.07303
3627.83902	0.07316
3625.91034	0.07353
3623.98166	0.07381
3622.05299	0.07382
3620.12431	0.07374
3618.19564	0.07379
3616.26696	0.07395
3614.33829	0.07406
3612.40961	0.07412
3610.48093	0.07416
3608.55226	0.07423
3606.62358	0.07443
3604.69491	0.07466
3602.76623	0.07481
3600.83756	0.07488
3598.90888	0.07495
3596.98020	0.07502
3595.05153	0.07510
3593.12285	0.07520
3591.19418	0.07524
3589.26550	0.07520
3587.33683	0.07525
3585.40815	0.07543
3583.47947	0.07564
3581.55080	0.07581
3579.62212	0.07597
3577.69345	0.07608
3575.76477	0.07618
3573.83610	0.07628
3571.90742	0.07637
3569.97874	0.07636
3568.05007	0.07630
3566.12139	0.07636
3564.19272	0.07655
3562.26404	0.07673
3560.33537	0.07686
3558.40669	0.07699
3556.47801	0.07710
3554.54934	0.07718
3552.62066	0.07726
3550.69199	0.07735
3548.76331	0.07740
3546.83464	0.07744
3544.90596	0.07756
3542.97728	0.07771
3541.04861	0.07783
3539.11993	0.07791
3537.19126	0.07797
3535.26258	0.07802
3533.33391	0.07809
3531.40523	0.07815
3529.47655	0.07818
3527.54788	0.07823
3525.61920	0.07830
3523.69053	0.07835
3521.76185	0.07842
3519.83318	0.07849
3517.90450	0.07852
3515.97582	0.07856
3514.04715	0.07863
3512.11847	0.07870
3510.18980	0.07875
3508.26112	0.07883
3506.33245	0.07887
3504.40377	0.07885
3502.47509	0.07885
3500.54642	0.07890
3498.61774	0.07897
3496.68907	0.07901
3494.76039	0.07903
3492.83172	0.07906
3490.90304	0.07912
3488.97436	0.07914
3487.04569	0.07915
3485.11701	0.07919
3483.18834	0.07925
3481.25966	0.07931
3479.33099	0.07938
3477.40231	0.07947
3475.47363	0.07958
3473.54496	0.07967
3471.61628	0.07976
3469.68761	0.07987
3467.75893	0.07999
3465.83026	0.08011
3463.90158	0.08024
3461.97290	0.08039
3460.04423	0.08056
3458.11555	0.08070
3456.18688	0.08081
3454.25820	0.08094
3452.32953	0.08110
3450.40085	0.08124
3448.47217	0.08131
3446.54350	0.08137
3444.61482	0.08151
3442.68615	0.08167
3440.75747	0.08187
3438.82880	0.08207
3436.90012	0.08225
3434.97144	0.08244
3433.04277	0.08268
3431.11409	0.08293
3429.18542	0.08320
3427.25674	0.08353
3425.32807	0.08384
3423.39939	0.08406
3421.47071	0.08424
3419.54204	0.08445
3417.61336	0.08469
3415.68469	0.08496
3413.75601	0.08521
3411.82734	0.08540
3409.89866	0.08552
3407.96998	0.08564
3406.04131	0.08581
3404.11263	0.08597
3402.18396	0.08614
3400.25528	0.08631
3398.32661	0.08649
3396.39793	0.08667
3394.46925	0.08685
3392.54058	0.08704
3390.61190	0.08723
3388.68323	0.08740
3386.75455	0.08758
3384.82588	0.08778
3382.89720	0.08799
3380.96852	0.08817
3379.03985	0.08834
3377.11117	0.08851
3375.18250	0.08865
3373.25382	0.08877
3371.32515	0.08890
3369.39647	0.08908
3367.46779	0.08928
3365.53912	0.08944
3363.61044	0.08958
3361.68177	0.08973
3359.75309	0.08987
3357.82442	0.09002
3355.89574	0.09020
3353.96706	0.09036
3352.03839	0.09052
3350.10971	0.09071
3348.18104	0.09089
3346.25236	0.09106
3344.32369	0.09126
3342.39501	0.09143
3340.46633	0.09156
3338.53766	0.09170
3336.60898	0.09189
3334.68031	0.09207
3332.75163	0.09222
3330.82296	0.09232
3328.89428	0.09244
3326.96560	0.09262
3325.03693	0.09283
3323.10825	0.09303
3321.17958	0.09321
3319.25090	0.09338
3317.32223	0.09354
3315.39355	0.09371
3313.46487	0.09388
3311.53620	0.09407
3309.60752	0.09425
3307.67885	0.09440
3305.75017	0.09454
3303.82150	0.09469
3301.89282	0.09486
3299.96414	0.09504
3298.03547	0.09527
3296.10679	0.09551
3294.17812	0.09565
3292.24944	0.09574
3290.32077	0.09591
3288.39209	0.09614
3286.46341	0.09633
3284.53474	0.09647
3282.60606	0.09662
3280.67739	0.09680
3278.74871	0.09698
3276.82004	0.09714
3274.89136	0.09731
3272.96268	0.09749
3271.03401	0.09768
3269.10533	0.09790
3267.17666	0.09810
3265.24798	0.09827
3263.31931	0.09842
3261.39063	0.09858
3259.46195	0.09875
3257.53328	0.09895
3255.60460	0.09915
3253.67593	0.09931
3251.74725	0.09945
3249.81858	0.09960
3247.88990	0.09978
3245.96122	0.09998
3244.03255	0.10018
3242.10387	0.10037
3240.17520	0.10054
3238.24652	0.10071
3236.31785	0.10090
3234.38917	0.10110
3232.46049	0.10130
3230.53182	0.10145
3228.60314	0.10159
3226.67447	0.10174
3224.74579	0.10190
3222.81712	0.10206
3220.88844	0.10223
3218.95976	0.10239
3217.03109	0.10258
3215.10241	0.10282
3213.17374	0.10302
3211.24506	0.10316
3209.31639	0.10331
3207.38771	0.10347
3205.45903	0.10363
3203.53036	0.10381
3201.60168	0.10404
3199.67301	0.10428
3197.74433	0.10448
3195.81566	0.10467
3193.88698	0.10488
3191.95830	0.10508
3190.02963	0.10523
3188.10095	0.10538
3186.17228	0.10558
3184.24360	0.10583
3182.31493	0.10609
3180.38625	0.10631
3178.45757	0.10647
3176.52890	0.10661
3174.60022	0.10676
3172.67155	0.10691
3170.74287	0.10706
3168.81420	0.10722
3166.88552	0.10743
3164.95684	0.10766
3163.02817	0.10788
3161.09949	0.10808
3159.17082	0.10828
3157.24214	0.10845
3155.31347	0.10860
3153.38479	0.10878
3151.45611	0.10898
3149.52744	0.10912
3147.59876	0.10928
3145.67009	0.10951
3143.74141	0.10978
3141.81274	0.10998
3139.88406	0.11011
3137.95538	0.11023
3136.02671	0.11038
3134.09803	0.11059
3132.16936	0.11082
3130.24068	0.11100
3128.31201	0.11114
3126.38333	0.11132
3124.45465	0.11152
3122.52598	0.11172
3120.59730	0.11189
3118.66863	0.11201
3116.73995	0.11214
3114.81128	0.11233
3112.88260	0.11255
3110.95392	0.11278
3109.02525	0.11301
3107.09657	0.11321
3105.16790	0.11339
3103.23922	0.11356
3101.31055	0.11373
3099.38187	0.11393
3097.45319	0.11415
3095.52452	0.11434
3093.59584	0.11449
3091.66717	0.11465
3089.73849	0.11482
3087.80982	0.11500
3085.88114	0.11522
3083.95246	0.11545
3082.02379	0.11561
3080.09511	0.11575
3078.16644	0.11592
3076.23776	0.11612
3074.30909	0.11631
3072.38041	0.11647
3070.45173	0.11663
3068.52306	0.11680
3066.59438	0.11698
3064.66571	0.11717
3062.73703	0.11738
3060.80836	0.11756
3058.87968	0.11771
3056.95100	0.11787
3055.02233	0.11806
3053.09365	0.11828
3051.16498	0.11851
3049.23630	0.11872
3047.30763	0.11888
3045.37895	0.11904
3043.45027	0.11921
3041.52160	0.11942
3039.59292	0.11964
3037.66425	0.11981
3035.73557	0.11995
3033.80690	0.12006
3031.87822	0.12021
3029.94954	0.12042
3028.02087	0.12067
3026.09219	0.12089
3024.16352	0.12111
3022.23484	0.12134
3020.30617	0.12153
3018.37749	0.12165
3016.44881	0.12179
3014.52014	0.12196
3012.59146	0.12215
3010.66279	0.12235
3008.73411	0.12253
3006.80544	0.12270
3004.87676	0.12290
3002.94808	0.12309
3001.01941	0.12323
2999.09073	0.12337
2997.16206	0.12355
2995.23338	0.12371
2993.30471	0.12386
2991.37603	0.12397
2989.44735	0.12409
2987.51868	0.12425
2985.59000	0.12439
2983.66133	0.12452
2981.73265	0.12467
2979.80398	0.12476
2977.87530	0.12476
2975.94662	0.12475
2974.01795	0.12479
2972.08927	0.12483
2970.16060	0.12481
2968.23192	0.12476
2966.30325	0.12472
2964.37457	0.12475
2962.44589	0.12487
2960.51722	0.12505
2958.58854	0.12527
2956.65987	0.12549
2954.73119	0.12571
2952.80252	0.12597
2950.87384	0.12623
2948.94516	0.12642
2947.01649	0.12652
2945.08781	0.12662
2943.15914	0.12675
2941.23046	0.12681
2939.30179	0.12679
2937.37311	0.12673
2935.44443	0.12665
2933.51576	0.12656
2931.58708	0.12649
2929.65841	0.12645
2927.72973	0.12638
2925.80106	0.12630
2923.87238	0.12628
2921.94370	0.12629
2920.01503	0.12635
2918.08635	0.12655
2916.15768	0.12699
2914.22900	0.12763
2912.30033	0.12832
2910.37165	0.12895
2908.44297	0.12947
2906.51430	0.12989
2904.58562	0.13026
2902.65695	0.13062
2900.72827	0.13095
2898.79960	0.13124
2896.87092	0.13150
2894.94224	0.13175
2893.01357	0.13198
2891.08489	0.13222
2889.15622	0.13248
2887.22754	0.13276
2885.29887	0.13302
2883.37019	0.13325
2881.44151	0.13345
2879.51284	0.13366
2877.58416	0.13389
2875.65549	0.13406
2873.72681	0.13417
2871.79814	0.13429
2869.86946	0.13443
2867.94078	0.13457
2866.01211	0.13467
2864.08343	0.13474
2862.15476	0.13481
2860.22608	0.13490
2858.29741	0.13494
2856.36873	0.13491
2854.44005	0.13483
2852.51138	0.13479
2850.58270	0.13490
2848.65403	0.13532
2846.72535	0.13598
2844.79668	0.13670
2842.86800	0.13736
2840.93932	0.13790
2839.01065	0.13828
2837.08197	0.13859
2835.15330	0.13888
2833.22462	0.13915
2831.29595	0.13940
2829.36727	0.13960
2827.43859	0.13977
2825.50992	0.13998
2823.58124	0.14026
2821.65257	0.14052
2819.72389	0.14071
2817.79522	0.14089
2815.86654	0.14111
2813.93786	0.14134
2812.00919	0.14157
2810.08051	0.14177
2808.15184	0.14192
2806.22316	0.14210
2804.29449	0.14232
2802.36581	0.14253
2800.43713	0.14271
2798.50846	0.14290
2796.57978	0.14314
2794.65111	0.14338
2792.72243	0.14362
2790.79376	0.14385
2788.86508	0.14406
2786.93640	0.14425
2785.00773	0.14442
2783.07905	0.14455
2781.15038	0.14468
2779.22170	0.14485
2777.29303	0.14510
2775.36435	0.14538
2773.43567	0.14562
2771.50700	0.14580
2769.57832	0.14596
2767.64965	0.14617
2765.72097	0.14639
2763.79230	0.14659
2761.86362	0.14674
2759.93494	0.14692
2758.00627	0.14714
2756.07759	0.14735
2754.14892	0.14751
2752.22024	0.14768
2750.29157	0.14788
2748.36289	0.14812
2746.43421	0.14833
2744.50554	0.14847
2742.57686	0.14860
2740.64819	0.14882
2738.71951	0.14910
2736.79084	0.14935
2734.86216	0.14951
2732.93348	0.14963
2731.00481	0.14978
2729.07613	0.14999
2727.14746	0.15022
2725.21878	0.15046
2723.29011	0.15070
2721.36143	0.15091
2719.43275	0.15108
2717.50408	0.15126
2715.57540	0.15146
2713.64673	0.15164
2711.71805	0.15183
2709.78938	0.15198
2707.86070	0.15210
2705.93202	0.15228
2704.00335	0.15249
2702.07467	0.15269
2700.14600	0.15289
2698.21732	0.15311
2696.28865	0.15332
2694.35997	0.15346
2692.43129	0.15357
2690.50262	0.15376
2688.57394	0.15401
2686.64527	0.15421
2684.71659	0.15438
2682.78792	0.15456
2680.85924	0.15471
2678.93056	0.15488
2677.00189	0.15512
2675.07321	0.15539
2673.14454	0.15565
2671.21586	0.15583
2669.28719	0.15594
2667.35851	0.15604
2665.42983	0.15618
2663.50116	0.15639
2661.57248	0.15667
2659.64381	0.15694
2657.71513	0.15718
2655.78646	0.15739
2653.85778	0.15756
2651.92910	0.15770
2650.00043	0.15786
2648.07175	0.15804
2646.14308	0.15823
2644.21440	0.15844
2642.28573	0.15869
2640.35705	0.15893
2638.42837	0.15913
2636.49970	0.15931
2634.57102	0.15951
2632.64235	0.15968
2630.71367	0.15985
2628.78500	0.16005
2626.85632	0.16027
2624.92764	0.16049
2622.99897	0.16070
2621.07029	0.16088
2619.14162	0.16108
2617.21294	0.16133
2615.28427	0.16160
2613.35559	0.16182
2611.42691	0.16204
2609.49824	0.16225
2607.56956	0.16243
2605.64089	0.16259
2603.71221	0.16278
2601.78354	0.16298
2599.85486	0.16318
2597.92618	0.16336
2595.99751	0.16356
2594.06883	0.16382
2592.14016	0.16409
2590.21148	0.16429
2588.28281	0.16445
2586.35413	0.16465
2584.42545	0.16487
2582.49678	0.16507
2580.56810	0.16527
2578.63943	0.16548
2576.71075	0.16562
2574.78208	0.16573
2572.85340	0.16590
2570.92472	0.16611
2568.99605	0.16630
2567.06737	0.16652
2565.13870	0.16675
2563.21002	0.16695
2561.28135	0.16713
2559.35267	0.16729
2557.42399	0.16747
2555.49532	0.16767
2553.56664	0.16789
2551.63797	0.16811
2549.70929	0.16832
2547.78062	0.16853
2545.85194	0.16873
2543.92326	0.16891
2541.99459	0.16907
2540.06591	0.16926
2538.13724	0.16948
2536.20856	0.16966
2534.27989	0.16982
2532.35121	0.17002
2530.42253	0.17028
2528.49386	0.17051
2526.56518	0.17071
2524.63651	0.17090
2522.70783	0.17111
2520.77916	0.17133
2518.85048	0.17155
2516.92181	0.17176
2514.99313	0.17195
2513.06445	0.17214
2511.13578	0.17235
2509.20710	0.17263
2507.27843	0.17289
2505.34975	0.17309
2503.42108	0.17326
2501.49240	0.17347
2499.56372	0.17369
2497.63505	0.17390
2495.70637	0.17414
2493.77770	0.17441
2491.84902	0.17462
2489.92035	0.17478
2487.99167	0.17497
2486.06299	0.17520
2484.13432	0.17544
2482.20564	0.17568
2480.27697	0.17594
2478.34829	0.17620
2476.41962	0.17643
2474.49094	0.17660
2472.56226	0.17678
2470.63359	0.17697
2468.70491	0.17716
2466.77624	0.17739
2464.84756	0.17765
2462.91889	0.17790
2460.99021	0.17811
2459.06153	0.17827
2457.13286	0.17843
2455.20418	0.17865
2453.27551	0.17894
2451.34683	0.17916
2449.41816	0.17933
2447.48948	0.17948
2445.56080	0.17963
2443.63213	0.17978
2441.70345	0.17996
2439.77478	0.18018
2437.84610	0.18041
2435.91743	0.18063
2433.98875	0.18084
2432.06007	0.18111
2430.13140	0.18141
2428.20272	0.18166
2426.27405	0.18189
2424.34537	0.18212
2422.41670	0.18233
2420.48802	0.18251
2418.55934	0.18270
2416.63067	0.18291
2414.70199	0.18313
2412.77332	0.18331
2410.84464	0.18348
2408.91597	0.18366
2406.98729	0.18385
2405.05861	0.18408
2403.12994	0.18434
2401.20126	0.18457
2399.27259	0.18476
2397.34391	0.18495
2395.41524	0.18511
2393.48656	0.18524
2391.55788	0.18539
2389.62921	0.18564
2387.70053	0.18589
2385.77186	0.18607
2383.84318	0.18626
2381.91451	0.18650
2379.98583	0.18665
2378.05715	0.18666
2376.12848	0.18667
2374.19980	0.18674
2372.27113	0.18677
2370.34245	0.18676
2368.41378	0.18679
2366.48510	0.18693
2364.55642	0.18709
2362.62775	0.18722
2360.69907	0.18738
2358.77040	0.18758
2356.84172	0.18788
2354.91305	0.18832
2352.98437	0.18881
2351.05569	0.18923
2349.12702	0.18953
2347.19834	0.18963
2345.26967	0.18960
2343.34099	0.18961
2341.41232	0.18974
2339.48364	0.18997
2337.55496	0.19025
2335.62629	0.19051
2333.69761	0.19074
2331.76894	0.19098
2329.84026	0.19124
2327.91159	0.19149
2325.98291	0.19172
2324.05423	0.19196
2322.12556	0.19221
2320.19688	0.19250
2318.26821	0.19283
2316.33953	0.19318
2314.41086	0.19349
2312.48218	0.19377
2310.55350	0.19403
2308.62483	0.19430
2306.69615	0.19455
2304.76748	0.19480
2302.83880	0.19506
2300.91013	0.19531
2298.98145	0.19553
2297.05277	0.19574
2295.12410	0.19596
2293.19542	0.19617
2291.26675	0.19633
2289.33807	0.19649
2287.40940	0.19670
2285.48072	0.19694
2283.55204	0.19720
2281.62337	0.19746
2279.69469	0.19772
2277.76602	0.19796
2275.83734	0.19816
2273.90867	0.19832
2271.97999	0.19851
2270.05131	0.19873
2268.12264	0.19889
2266.19396	0.19903
2264.26529	0.19922
2262.33661	0.19943
2260.40794	0.19964
2258.47926	0.19988
2256.55058	0.20009
2254.62191	0.20020
2252.69323	0.20030
2250.76456	0.20049
2248.83588	0.20074
2246.90721	0.20100
2244.97853	0.20128
2243.04985	0.20151
2241.12118	0.20165
2239.19250	0.20180
2237.26383	0.20199
2235.33515	0.20219
2233.40648	0.20236
2231.47780	0.20255
2229.54912	0.20275
2227.62045	0.20297
2225.69177	0.20322
2223.76310	0.20350
2221.83442	0.20374
2219.90575	0.20393
2217.97707	0.20408
2216.04839	0.20426
2214.11972	0.20451
2212.19104	0.20479
2210.26237	0.20503
2208.33369	0.20522
2206.40502	0.20542
2204.47634	0.20560
2202.54766	0.20577
2200.61899	0.20593
2198.69031	0.20615
2196.76164	0.20640
2194.83296	0.20660
2192.90429	0.20674
2190.97561	0.20693
2189.04693	0.20719
2187.11826	0.20747
2185.18958	0.20772
2183.26091	0.20793
2181.33223	0.20809
2179.40356	0.20824
2177.47488	0.20842
2175.54620	0.20862
2173.61753	0.20886
2171.68885	0.20911
2169.76018	0.20933
2167.83150	0.20955
2165.90283	0.20978
2163.97415	0.21003
2162.04547	0.21028
2160.11680	0.21048
2158.18812	0.21065
2156.25945	0.21087
2154.33077	0.21112
2152.40210	0.21131
2150.47342	0.21145
2148.54474	0.21163
2146.61607	0.21186
2144.68739	0.21211
2142.75872	0.21235
2140.83004	0.21259
2138.90137	0.21281
2136.97269	0.21305
2135.04401	0.21330
2133.11534	0.21350
2131.18666	0.21369
2129.25799	0.21387
2127.32931	0.21406
2125.40064	0.21429
2123.47196	0.21455
2121.54328	0.21479
2119.61461	0.21498
2117.68593	0.21512
2115.75726	0.21524
2113.82858	0.21544
2111.89991	0.21571
2109.97123	0.21596
2108.04255	0.21614
2106.11388	0.21631
2104.18520	0.21654
2102.25653	0.21680
2100.32785	0.21708
2098.39918	0.21736
2096.47050	0.21757
2094.54182	0.21772
2092.61315	0.21787
2090.68447	0.21802
2088.75580	0.21822
2086.82712	0.21847
2084.89845	0.21870
2082.96977	0.21885
2081.04109	0.21897
2079.11242	0.21916
2077.18374	0.21943
2075.25507	0.21972
2073.32639	0.21998
2071.39772	0.22020
2069.46904	0.22040
2067.54036	0.22060
2065.61169	0.22079
2063.68301	0.22099
2061.75434	0.22124
2059.82566	0.22147
2057.89699	0.22167
2055.96831	0.22185
2054.03963	0.22199
2052.11096	0.22214
2050.18228	0.22234
2048.25361	0.22256
2046.32493	0.22275
2044.39626	0.22294
2042.46758	0.22314
2040.53890	0.22332
2038.61023	0.22349
2036.68155	0.22373
2034.75288	0.22399
2032.82420	0.22423
2030.89553	0.22446
2028.96685	0.22468
2027.03817	0.22485
2025.10950	0.22501
2023.18082	0.22519
2021.25215	0.22538
2019.32347	0.22560
2017.39480	0.22582
2015.46612	0.22604
2013.53744	0.22625
2011.60877	0.22649
2009.68009	0.22678
2007.75142	0.22706
2005.82274	0.22726
2003.89407	0.22747
2001.96539	0.22773
2000.03671	0.22800
1998.10804	0.22825
1996.17936	0.22842
1994.25069	0.22851
1992.32201	0.22858
1990.39334	0.22874
1988.46466	0.22903
1986.53598	0.22934
1984.60731	0.22958
1982.67863	0.22977
1980.74996	0.22997
1978.82128	0.23019
1976.89261	0.23041
1974.96393	0.23061
1973.03525	0.23078
1971.10658	0.23097
1969.17790	0.23113
1967.24923	0.23126
1965.32055	0.23143
1963.39188	0.23165
1961.46320	0.23181
1959.53452	0.23195
1957.60585	0.23215
1955.67717	0.23240
1953.74850	0.23267
1951.81982	0.23293
1949.89115	0.23315
1947.96247	0.23333
1946.03379	0.23351
1944.10512	0.23363
1942.17644	0.23378
1940.24777	0.23410
1938.31909	0.23449
1936.39042	0.23475
1934.46174	0.23492
1932.53306	0.23510
1930.60439	0.23534
1928.67571	0.23559
1926.74704	0.23576
1924.81836	0.23583
1922.88969	0.23593
1920.96101	0.23610
1919.03233	0.23626
1917.10366	0.23650
1915.17498	0.23688
1913.24631	0.23720
1911.31763	0.23734
1909.38896	0.23745
1907.46028	0.23769
1905.53160	0.23798
1903.60293	0.23823
1901.67425	0.23847
1899.74558	0.23870
1897.81690	0.23890
1895.88823	0.23903
1893.95955	0.23915
1892.03087	0.23925
1890.10220	0.23934
1888.17352	0.23958
1886.24485	0.23997
1884.31617	0.24027
1882.38750	0.24047
1880.45882	0.24064
1878.53014	0.24079
1876.60147	0.24097
1874.67279	0.24123
1872.74412	0.24139
1870.81544	0.24131
1868.88677	0.24131
1866.95809	0.24163
1865.02941	0.24207
1863.10074	0.24241
1861.17206	0.24267
1859.24339	0.24291
1857.31471	0.24318
1855.38604	0.24345
1853.45736	0.24364
1851.52868	0.24376
1849.60001	0.24388
1847.67133	0.24392
1845.74266	0.24385
1843.81398	0.24401
1841.88531	0.24456
1839.95663	0.24506
1838.02795	0.24529
1836.09928	0.24545
1834.17060	0.24564
1832.24193	0.24569
1830.31325	0.24568
1828.38458	0.24583
1826.45590	0.24609
1824.52722	0.24636
1822.59855	0.24673
1820.66987	0.24711
1818.74120	0.24733
1816.81252	0.24747
1814.88385	0.24762
1812.95517	0.24772
1811.02649	0.24778
1809.09782	0.24796
1807.16914	0.24828
1805.24047	0.24853
1803.31179	0.24857
1801.38312	0.24856
1799.45444	0.24876
1797.52576	0.24909
1795.59709	0.24919
1793.66841	0.24901
1791.73974	0.24904
1789.81106	0.24952
1787.88239	0.24996
1785.95371	0.25006
1784.02503	0.25013
1782.09636	0.25028
1780.16768	0.25045
1778.23901	0.25065
1776.31033	0.25072
1774.38166	0.25052
1772.45298	0.25036
1770.52430	0.25053
1768.59563	0.25093
1766.66695	0.25134
1764.73828	0.25156
1762.80960	0.25161
1760.88093	0.25175
1758.95225	0.25195
1757.02357	0.25211
1755.09490	0.25217
1753.16622	0.25189
1751.23755	0.25148
1749.30887	0.25145
1747.38020	0.25171
1745.45152	0.25191
1743.52284	0.25201
1741.59417	0.25198
1739.66549	0.25193
1737.73682	0.25185
1735.80814	0.25152
1733.87947	0.25143
1731.95079	0.25207
1730.02211	0.25283
1728.09344	0.25333
1726.16476	0.25369
1724.23609	0.25396
1722.30741	0.25402
1720.37874	0.25368
1718.45006	0.25324
1716.52138	0.25332
1714.59271	0.25388
1712.66403	0.25447
1710.73536	0.25479
1708.80668	0.25480
1706.87801	0.25464
1704.94933	0.25450
1703.02065	0.25417
1701.09198	0.25370
1699.16330	0.25369
1697.23463	0.25400
1695.30595	0.25434
1693.37728	0.25486
1691.44860	0.25523
1689.51992	0.25526
1687.59125	0.25499
1685.66257	0.25444
1683.73390	0.25424
1681.80522	0.25473
1679.87655	0.25523
1677.94787	0.25525
1676.01919	0.25506
1674.09052	0.25509
1672.16184	0.25513
1670.23317	0.25507
1668.30449	0.25539
1666.37582	0.25593
1664.44714	0.25607
1662.51846	0.25601
1660.58979	0.25619
1658.66111	0.25632
1656.73244	0.25588
1654.80376	0.25497
1652.87509	0.25464
1650.94641	0.25524
1649.01773	0.25562
1647.08906	0.25557
1645.16038	0.25591
1643.23171	0.25653
1641.30303	0.25685
1639.37436	0.25677
1637.44568	0.25645
1635.51700	0.25639
1633.58833	0.25685
1631.65965	0.25728
1629.73098	0.25730
1627.80230	0.25713
1625.87363	0.25687
1623.94495	0.25645
1622.01627	0.25611
1620.08760	0.25602
1618.15892	0.25626
1616.23025	0.25701
1614.30157	0.25802
1612.37290	0.25880
1610.44422	0.25928
1608.51554	0.25966
1606.58687	0.25999
1604.65819	0.26030
1602.72952	0.26063
1600.80084	0.26092
1598.87217	0.26109
1596.94349	0.26118
1595.01481	0.26132
1593.08614	0.26153
1591.15746	0.26174
1589.22879	0.26193
1587.30011	0.26216
1585.37144	0.26245
1583.44276	0.26273
1581.51408	0.26292
1579.58541	0.26295
1577.65673	0.26283
1575.72806	0.26292
1573.79938	0.26334
1571.87071	0.26353
1569.94203	0.26355
1568.01335	0.26382
1566.08468	0.26417
1564.15600	0.26434
1562.22733	0.26402
1560.29865	0.26323
1558.36998	0.26303
1556.44130	0.26384
1554.51262	0.26482
1552.58395	0.26545
1550.65527	0.26581
1548.72660	0.26599
1546.79792	0.26588
1544.86925	0.26538
1542.94057	0.26480
1541.01189	0.26463
1539.08322	0.26519
1537.15454	0.26601
1535.22587	0.26630
1533.29719	0.26637
1531.36852	0.26676
1529.43984	0.26703
1527.51116	0.26692
1525.58249	0.26677
1523.65381	0.26650
1521.72514	0.26620
1519.79646	0.26633
1517.86779	0.26675
1515.93911	0.26720
1514.01043	0.26758
1512.08176	0.26761
1510.15308	0.26719
1508.22441	0.26669
1506.29573	0.26685
1504.36706	0.26780
1502.43838	0.26863
1500.50970	0.26875
1498.58103	0.26854
1496.65235	0.26854
1494.72368	0.26882
1492.79500	0.26890
1490.86633	0.26863
1488.93765	0.26857
1487.00897	0.26894
1485.08030	0.26935
1483.15162	0.26951
1481.22295	0.26950
1479.29427	0.26939
1477.36560	0.26907
1475.43692	0.26852
1473.50824	0.26805
1471.57957	0.26801
1469.65089	0.26826
1467.72222	0.26830
1465.79354	0.26812
1463.86487	0.26810
1461.93619	0.26813
1460.00751	0.26769
1458.07884	0.26708
1456.15016	0.26724
1454.22149	0.26811
1452.29281	0.26881
1450.36414	0.26903
1448.43546	0.26902
1446.50678	0.26910
1444.57811	0.26934
1442.64943	0.26956
1440.72076	0.26958
1438.79208	0.26925
1436.86341	0.26897
1434.93473	0.26926
1433.00605	0.26971
1431.07738	0.26982
1429.14870	0.26982
1427.22003	0.26981
1425.29135	0.26968
1423.36268	0.26942
1421.43400	0.26902
1419.50532	0.26868
1417.57665	0.26880
1415.64797	0.26921
1413.71930	0.26944
1411.79062	0.26948
1409.86195	0.26946
1407.93327	0.26940
1406.00459	0.26926
1404.07592	0.26919
1402.14724	0.26911
1400.21857	0.26888
1398.28989	0.26870
1396.36122	0.26863
1394.43254	0.26861
1392.50386	0.26871
1390.57519	0.26864
1388.64651	0.26818
1386.71784	0.26770
1384.78916	0.26753
1382.86049	0.26761
1380.93181	0.26779
1379.00313	0.26792
1377.07446	0.26789
1375.14578	0.26777
1373.21711	0.26776
1371.28843	0.26784
1369.35976	0.26785
1367.43108	0.26783
1365.50240	0.26773
1363.57373	0.26752
1361.64505	0.26745
1359.71638	0.26758
1357.78770	0.26770
1355.85903	0.26772
1353.93035	0.26781
1352.00167	0.26797
1350.07300	0.26809
1348.14432	0.26816
1346.21565	0.26826
1344.28697	0.26833
1342.35830	0.26827
1340.42962	0.26813
1338.50094	0.26809
1336.57227	0.26818
1334.64359	0.26831
1332.71492	0.26838
1330.78624	0.26832
1328.85757	0.26814
1326.92889	0.26797
1325.00021	0.26785
1323.07154	0.26780
1321.14286	0.26775
1319.21419	0.26759
1317.28551	0.26738
1315.35684	0.26721
1313.42816	0.26711
1311.49948	0.26704
1309.57081	0.26691
1307.64213	0.26670
1305.71346	0.26653
1303.78478	0.26633
1301.85611	0.26601
1299.92743	0.26569
1297.99875	0.26548
1296.07008	0.26530
1294.14140	0.26506
1292.21273	0.26473
1290.28405	0.26431
1288.35538	0.26393
1286.42670	0.26367
1284.49802	0.26342
1282.56935	0.26301
1280.64067	0.26247
1278.71200	0.26189
1276.78332	0.26127
1274.85465	0.26058
1272.92597	0.25983
1270.99729	0.25897
1269.06862	0.25784
1267.13994	0.25651
1265.21127	0.25525
1263.28259	0.25434
1261.35392	0.25388
1259.42524	0.25382
1257.49656	0.25401
1255.56789	0.25423
1253.63921	0.25428
1251.71054	0.25407
1249.78186	0.25364
1247.85319	0.25311
1245.92451	0.25253
1243.99583	0.25191
1242.06716	0.25133
1240.13848	0.25078
1238.20981	0.25018
1236.28113	0.24951
1234.35246	0.24879
1232.42378	0.24808
1230.49510	0.24731
1228.56643	0.24650
1226.63775	0.24579
1224.70908	0.24515
1222.78040	0.24446
1220.85173	0.24374
1218.92305	0.24302
1216.99437	0.24229
1215.06570	0.24155
1213.13702	0.24085
1211.20835	0.24025
1209.27967	0.23970
1207.35100	0.23905
1205.42232	0.23832
1203.49364	0.23765
1201.56497	0.23709
1199.63629	0.23654
1197.70762	0.23599
1195.77894	0.23543
1193.85027	0.23482
1191.92159	0.23409
1189.99291	0.23326
1188.06424	0.23236
1186.13556	0.23143
1184.20689	0.23047
1182.27821	0.22948
1180.34954	0.22850
1178.42086	0.22750
1176.49218	0.22650
1174.56351	0.22552
1172.63483	0.22454
1170.70616	0.22358
1168.77748	0.22265
1166.84881	0.22164
1164.92013	0.22051
1162.99145	0.21947
1161.06278	0.21856
1159.13410	0.21760
1157.20543	0.21664
1155.27675	0.21579
1153.34808	0.21498
1151.41940	0.21413
1149.49072	0.21327
1147.56205	0.21244
1145.63337	0.21163
1143.70470	0.21078
1141.77602	0.20994
1139.84735	0.20915
1137.91867	0.20838
1135.98999	0.20753
1134.06132	0.20649
1132.13264	0.20540
1130.20397	0.20445
1128.27529	0.20357
1126.34662	0.20260
1124.41794	0.20157
1122.48926	0.20052
1120.56059	0.19948
1118.63191	0.19841
1116.70324	0.19728
1114.77456	0.19608
1112.84589	0.19496
1110.91721	0.19392
1108.98853	0.19281
1107.05986	0.19165
1105.13118	0.19061
1103.20251	0.18969
1101.27383	0.18877
1099.34516	0.18780
1097.41648	0.18684
1095.48780	0.18596
1093.55913	0.18515
1091.63045	0.18433
1089.70178	0.18347
1087.77310	0.18269
1085.84443	0.18200
1083.91575	0.18130
1081.98707	0.18055
1080.05840	0.17989
1078.12972	0.17935
1076.20105	0.17891
1074.27237	0.17853
1072.34370	0.17812
1070.41502	0.17768
1068.48634	0.17741
1066.55767	0.17737
1064.62899	0.17745
1062.70032	0.17752
1060.77164	0.17757
1058.84297	0.17763
1056.91429	0.17779
1054.98561	0.17813
1053.05694	0.17853
1051.12826	0.17887
1049.19959	0.17919
1047.27091	0.17958
1045.34224	0.18007
1043.41356	0.18065
1041.48488	0.18122
1039.55621	0.18174
1037.62753	0.18230
1035.69886	0.18290
1033.77018	0.18347
1031.84151	0.18400
1029.91283	0.18449
1027.98415	0.18498
1026.05548	0.18555
1024.12680	0.18609
1022.19813	0.18660
1020.26945	0.18724
1018.34078	0.18803
1016.41210	0.18889
1014.48342	0.18973
1012.55475	0.19061
1010.62607	0.19157
1008.69740	0.19261
1006.76872	0.19369
1004.84005	0.19472
1002.91137	0.19563
1000.98269	0.19639
999.05402	0.19702
997.12534	0.19763
995.19667	0.19819
993.26799	0.19866
991.33932	0.19911
989.41064	0.19956
987.48196	0.19993
985.55329	0.20029
983.62461	0.20072
981.69594	0.20109
979.76726	0.20126
977.83859	0.20129
975.90991	0.20134
973.98123	0.20146
972.05256	0.20152
970.12388	0.20146
968.19521	0.20133
966.26653	0.20115
964.33786	0.20096
962.40918	0.20084
960.48050	0.20076
958.55183	0.20053
956.62315	0.20018
954.69448	0.19986
952.76580	0.19959
950.83713	0.19924
948.90845	0.19882
946.97977	0.19840
945.05110	0.19799
943.12242	0.19758
941.19375	0.19715
939.26507	0.19665
937.33640	0.19613
935.40772	0.19562
933.47904	0.19505
931.55037	0.19440
929.62169	0.19381
927.69302	0.19338
925.76434	0.19300
923.83567	0.19251
921.90699	0.19191
919.97831	0.19133
918.04964	0.19078
916.12096	0.19017
914.19229	0.18948
912.26361	0.18868
910.33494	0.18791
908.40626	0.18723
906.47758	0.18658
904.54891	0.18591
902.62023	0.18529
900.69156	0.18462
898.76288	0.18383
896.83421	0.18306
894.90553	0.18239
892.97685	0.18169
891.04818	0.18085
889.11950	0.17995
887.19083	0.17908
885.26215	0.17825
883.33348	0.17747
881.40480	0.17679
879.47612	0.17619
877.54745	0.17563
875.61877	0.17502
873.69010	0.17429
871.76142	0.17357
869.83275	0.17293
867.90407	0.17230
865.97539	0.17162
864.04672	0.17088
862.11804	0.17007
860.18937	0.16923
858.26069	0.16842
856.33202	0.16772
854.40334	0.16704
852.47466	0.16624
850.54599	0.16541
848.61731	0.16470
846.68864	0.16406
844.75996	0.16342
842.83129	0.16272
840.90261	0.16199
838.97394	0.16125
837.04526	0.16051
835.11658	0.15975
833.18791	0.15903
831.25923	0.15837
829.33056	0.15764
827.40188	0.15671
825.47321	0.15567
823.54453	0.15469
821.61585	0.15391
819.68718	0.15326
817.75850	0.15257
815.82983	0.15184
813.90115	0.15108
811.97248	0.15024
810.04380	0.14933
808.11512	0.14845
806.18645	0.14774
804.25777	0.14719
802.32910	0.14667
800.40042	0.14610
798.47175	0.14557
796.54307	0.14514
794.61439	0.14482
792.68572	0.14460
790.75704	0.14433
788.82837	0.14401
786.89969	0.14379
784.97102	0.14354
783.04234	0.14316
781.11366	0.14278
779.18499	0.14238
777.25631	0.14192
775.32764	0.14148
773.39896	0.14116
771.47029	0.14088
769.54161	0.14060
767.61293	0.14031
765.68426	0.13987
763.75558	0.13926
761.82691	0.13866
759.89823	0.13814
757.96956	0.13762
756.04088	0.13709
754.11220	0.13655
752.18353	0.13599
750.25485	0.13540
748.32618	0.13480
746.39750	0.13426
744.46883	0.13380
742.54015	0.13337
740.61147	0.13288
738.68280	0.13235
736.75412	0.13191
734.82545	0.13159
732.89677	0.13124
730.96810	0.13072
729.03942	0.13015
727.11074	0.12970
725.18207	0.12935
723.25339	0.12897
721.32472	0.12847
719.39604	0.12789
717.46737	0.12736
715.53869	0.12690
713.61001	0.12643
711.68134	0.12590
709.75266	0.12536
707.82399	0.12479
705.89531	0.12411
703.96664	0.12354
702.03796	0.12320
700.10928	0.12277
698.18061	0.12206
696.25193	0.12132
694.32326	0.12069
692.39458	0.12014
690.46591	0.11958
688.53723	0.11892
686.60855	0.11819
684.67988	0.11743
682.75120	0.11652
680.82253	0.11555
678.89385	0.11463
676.96518	0.11369
675.03650	0.11268
673.10782	0.11159
671.17915	0.11028
669.25047	0.10877
667.32180	0.10748
665.39312	0.10648
663.46445	0.10535
661.53577	0.10400
659.60709	0.10262
657.67842	0.10125
655.74974	0.09977
653.82107	0.09820
651.89239	0.09666
649.96372	0.09511
648.03504	0.09347
646.10636	0.09174
644.17769	0.08991
642.24901	0.08795
640.32034	0.08584
638.39166	0.08360
636.46299	0.08122
634.53431	0.07866
632.60563	0.07594
630.67696	0.07317
628.74828	0.07042
626.81961	0.06760
624.89093	0.06451
622.96226	0.06120
621.03358	0.05785
619.10490	0.05451
617.17623	0.05114
615.24755	0.04774
613.31888	0.04436
611.39020	0.04104
609.46153	0.03782
607.53285	0.03476
605.60417	0.03188
603.67550	0.02914
601.74682	0.02658
599.81815	0.02423
597.88947	0.02198
595.96080	0.01975
594.03212	0.01767
592.10344	0.01587
590.17477	0.01434
588.24609	0.01298
586.31742	0.01168
584.38874	0.01036
582.46007	0.00908
580.53139	0.00794
578.60271	0.00701
576.67404	0.00623
574.74536	0.00553
572.81669	0.00500
570.88801	0.00465
568.95934	0.00425
567.03066	0.00364
565.10198	0.00306
563.17331	0.00282
561.24463	0.00288
559.31596	0.00298
557.38728	0.00292
555.45861	0.00270
553.52993	0.00256
551.60125	0.00259
549.67258	0.00260
547.74390	0.00249
545.81523	0.00253
543.88655	0.00280
541.95788	0.00308
540.02920	0.00325
538.10052	0.00341
536.17185	0.00356
534.24317	0.00359
532.31450	0.00355
530.38582	0.00354
528.45715	0.00358
526.52847	0.00360
524.59979	0.00352
522.67112	0.00339
520.74244	0.00334
518.81377	0.00320
516.88509	0.00286
514.95642	0.00257
513.02774	0.00252
511.09906	0.00250
509.17039	0.00239
507.24171	0.00222
505.31304	0.00199
503.38436	0.00181
501.45569	0.00173
499.52701	0.00162
497.59833	0.00155
495.66966	0.00158
493.74098	0.00151
491.81231	0.00138
489.88363	0.00142
487.95496	0.00157
486.02628	0.00159
484.09760	0.00144
482.16893	0.00125
480.24025	0.00117
478.31158	0.00115
476.38290	0.00116
474.45423	0.00127
472.52555	0.00148
470.59687	0.00159
468.66820	0.00135
466.73952	0.00100
464.81085	0.00093
462.88217	0.00110
460.95350	0.00125
459.02482	0.00126
457.09614	0.00120
455.16747	0.00122
453.23879	0.00137
451.31012	0.00136
449.38144	0.00114
447.45277	0.00108
445.52409	0.00126
443.59541	0.00153
441.66674	0.00181
439.73806	0.00200
437.80939	0.00207
435.88071	0.00212
433.95204	0.00220
432.02336	0.00225
430.09468	0.00227
428.16601	0.00229
426.23733	0.00225
424.30866	0.00210
422.37998	0.00189
420.45131	0.00170
418.52263	0.00168
416.59395	0.00175
414.66528	0.00163
412.73660	0.00125
410.80793	0.00099
408.87925	0.00099
406.95058	0.00097
405.02190	0.00082
403.09322	0.00058
401.16455	0.00025
399.23587	0.00008
397.30720	0.00021
395.37852	0.00038
393.44985	0.00038
391.52117	0.00016
389.59249	0.00007
387.66382	0.00028
385.73514	0.00046
383.80647	0.00061
381.87779	0.00057
379.94912	0.00022
378.02044	-0.00004
376.09176	0.00007
374.16309	0.00038
372.23441	0.00047
370.30574	0.00027
368.37706	0.00006
