7496.76250	0.00150
7494.83382	0.00152
7492.90514	0.00153
7490.97647	0.00152
7489.04779	0.00154
7487.11912	0.00156
7485.19044	0.00157
7483.26177	0.00157
7481.33309	0.00157
7479.40441	0.00157
7477.47574	0.00157
7475.54706	0.00154
7473.61839	0.00153
7471.68971	0.00154
7469.76104	0.00156
7467.83236	0.00159
7465.90368	0.00159
7463.97501	0.00158
7462.04633	0.00157
7460.11766	0.00157
7458.18898	0.00158
7456.26031	0.00159
7454.33163	0.00160
7452.40295	0.00161
7450.47428	0.00160
7448.54560	0.00159
7446.61693	0.00160
7444.68825	0.00161
7442.75958	0.00162
7440.83090	0.00161
7438.90222	0.00162
7436.97355	0.00163
7435.04487	0.00163
7433.11620	0.00163
7431.18752	0.00164
7429.25885	0.00165
7427.33017	0.00165
7425.40149	0.00166
7423.47282	0.00169
7421.54414	0.00169
7419.61547	0.00168
7417.68679	0.00168
7415.75812	0.00168
7413.82944	0.00170
7411.90076	0.00171
7409.97209	0.00173
7408.04341	0.00174
7406.11474	0.00173
7404.18606	0.00172
7402.25739	0.00172
7400.32871	0.00173
7398.40003	0.00173
7396.47136	0.00174
7394.54268	0.00173
7392.61401	0.00172
7390.68533	0.00173
7388.75666	0.00176
7386.82798	0.00178
7384.89930	0.00179
7382.97063	0.00177
7381.04195	0.00178
7379.11328	0.00178
7377.18460	0.00179
7375.25593	0.00179
7373.32725	0.00177
7371.39857	0.00176
7369.46990	0.00178
7367.54122	0.00181
7365.61255	0.00182
7363.68387	0.00181
7361.75520	0.00180
7359.82652	0.00180
7357.89784	0.00181
7355.96917	0.00180
7354.04049	0.00181
7352.11182	0.00183
7350.18314	0.00185
7348.25447	0.00185
7346.32579	0.00185
7344.39711	0.00186
7342.46844	0.00188
7340.53976	0.00190
7338.61109	0.00190
7336.68241	0.00189
7334.75374	0.00189
7332.82506	0.00189
7330.89638	0.00190
7328.96771	0.00190
7327.03903	0.00190
7325.11036	0.00190
7323.18168	0.00190
7321.25301	0.00190
7319.32433	0.00190
7317.39565	0.00191
7315.46698	0.00191
7313.53830	0.00191
7311.60963	0.00190
7309.68095	0.00190
7307.75228	0.00191
7305.82360	0.00192
7303.89492	0.00194
7301.96625	0.00195
7300.03757	0.00195
7298.10890	0.00195
7296.18022	0.00195
7294.25155	0.00197
7292.32287	0.00198
7290.39419	0.00198
7288.46552	0.00197
7286.53684	0.00197
7284.60817	0.00198
7282.67949	0.00199
7280.75082	0.00200
7278.82214	0.00199
7276.89346	0.00199
7274.96479	0.00200
7273.03611	0.00201
7271.10744	0.00203
7269.17876	0.00204
7267.25009	0.00206
7265.32141	0.00206
7263.39273	0.00204
7261.46406	0.00202
7259.53538	0.00203
7257.60671	0.00206
7255.67803	0.00208
7253.74936	0.00209
7251.82068	0.00208
7249.89200	0.00206
7247.96333	0.00206
7246.03465	0.00207
7244.10598	0.00207
7242.17730	0.00208
7240.24863	0.00209
7238.31995	0.00210
7236.39127	0.00211
7234.46260	0.00210
7232.53392	0.00210
7230.60525	0.00211
7228.67657	0.00212
7226.74790	0.00213
7224.81922	0.00213
7222.89054	0.00215
7220.96187	0.00217
7219.03319	0.00217
7217.10452	0.00215
7215.17584	0.00213
7213.24717	0.00213
7211.31849	0.00215
7209.38981	0.00217
7207.46114	0.00217
7205.53246	0.00216
7203.60379	0.00218
7201.67511	0.00219
7199.74644	0.00219
7197.81776	0.00219
7195.88908	0.00221
7193.96041	0.00222
7192.03173	0.00222
7190.10306	0.00221
7188.17438	0.00221
7186.24571	0.00222
7184.31703	0.00224
7182.38835	0.00225
7180.45968	0.00227
7178.53100	0.00226
7176.60233	0.00225
7174.67365	0.00226
7172.74498	0.00228
7170.81630	0.00226
7168.88762	0.00224
7166.95895	0.00225
7165.03027	0.00227
7163.10160	0.00229
7161.17292	0.00232
7159.24425	0.00233
7157.31557	0.00233
7155.38689	0.00233
7153.45822	0.00235
7151.52954	0.00235
7149.60087	0.00234
7147.67219	0.00234
7145.74352	0.00235
7143.81484	0.00236
7141.88616	0.00236
7139.95749	0.00235
7138.02881	0.00234
7136.10014	0.00237
7134.17146	0.00239
7132.24279	0.00240
7130.31411	0.00240
7128.38543	0.00240
7126.45676	0.00241
7124.52808	0.00242
7122.59941	0.00243
7120.67073	0.00244
7118.74206	0.00244
7116.81338	0.00243
7114.88470	0.00242
7112.95603	0.00243
7111.02735	0.00245
7109.09868	0.00246
7107.17000	0.00246
7105.24133	0.00247
7103.31265	0.00248
7101.38397	0.00249
7099.45530	0.00249
7097.52662	0.00249
7095.59795	0.00249
7093.66927	0.00249
7091.74060	0.00250
7089.81192	0.00252
7087.88324	0.00253
7085.95457	0.00252
7084.02589	0.00250
7082.09722	0.00248
7080.16854	0.00248
7078.23987	0.00251
7076.31119	0.00253
7074.38251	0.00253
7072.45384	0.00251
7070.52516	0.00254
7068.59649	0.00258
7066.66781	0.00260
7064.73914	0.00259
7062.81046	0.00258
7060.88178	0.00258
7058.95311	0.00260
7057.02443	0.00261
7055.09576	0.00261
7053.16708	0.00261
7051.23841	0.00261
7049.30973	0.00261
7047.38105	0.00260
7045.45238	0.00260
7043.52370	0.00261
7041.59503	0.00262
7039.66635	0.00265
7037.73768	0.00265
7035.80900	0.00262
7033.88032	0.00262
7031.95165	0.00265
7030.02297	0.00267
7028.09430	0.00267
7026.16562	0.00267
7024.23695	0.00268
7022.30827	0.00270
7020.37959	0.00272
7018.45092	0.00274
7016.52224	0.00273
7014.59357	0.00271
7012.66489	0.00271
7010.73622	0.00272
7008.80754	0.00271
7006.87886	0.00271
7004.95019	0.00273
7003.02151	0.00276
7001.09284	0.00278
6999.16416	0.00277
6997.23549	0.00277
6995.30681	0.00277
6993.37813	0.00280
6991.44946	0.00282
6989.52078	0.00284
6987.59211	0.00285
6985.66343	0.00283
6983.73476	0.00280
6981.80608	0.00278
6979.87740	0.00279
6977.94873	0.00281
6976.02005	0.00283
6974.09138	0.00285
6972.16270	0.00284
6970.23403	0.00283
6968.30535	0.00285
6966.37667	0.00288
6964.44800	0.00291
6962.51932	0.00291
6960.59065	0.00289
6958.66197	0.00289
6956.73330	0.00289
6954.80462	0.00291
6952.87594	0.00292
6950.94727	0.00291
6949.01859	0.00290
6947.08992	0.00290
6945.16124	0.00291
6943.23257	0.00292
6941.30389	0.00294
6939.37521	0.00295
6937.44654	0.00295
6935.51786	0.00294
6933.58919	0.00293
6931.66051	0.00294
6929.73184	0.00297
6927.80316	0.00300
6925.87448	0.00301
6923.94581	0.00301
6922.01713	0.00301
6920.08846	0.00302
6918.15978	0.00304
6916.23111	0.00304
6914.30243	0.00303
6912.37375	0.00303
6910.44508	0.00303
6908.51640	0.00303
6906.58773	0.00303
6904.65905	0.00304
6902.73038	0.00307
6900.80170	0.00309
6898.87302	0.00310
6896.94435	0.00311
6895.01567	0.00310
6893.08700	0.00309
6891.15832	0.00310
6889.22965	0.00311
6887.30097	0.00311
6885.37229	0.00310
6883.44362	0.00310
6881.51494	0.00313
6879.58627	0.00315
6877.65759	0.00317
6875.72892	0.00320
6873.80024	0.00320
6871.87156	0.00317
6869.94289	0.00316
6868.01421	0.00318
6866.08554	0.00321
6864.15686	0.00320
6862.22819	0.00319
6860.29951	0.00319
6858.37083	0.00321
6856.44216	0.00323
6854.51348	0.00324
6852.58481	0.00324
6850.65613	0.00321
6848.72746	0.00318
6846.79878	0.00320
6844.87010	0.00324
6842.94143	0.00327
6841.01275	0.00328
6839.08408	0.00329
6837.15540	0.00330
6835.22673	0.00331
6833.29805	0.00331
6831.36937	0.00329
6829.44070	0.00327
6827.51202	0.00327
6825.58335	0.00329
6823.65467	0.00332
6821.72600	0.00335
6819.79732	0.00335
6817.86864	0.00335
6815.93997	0.00336
6814.01129	0.00337
6812.08262	0.00339
6810.15394	0.00340
6808.22527	0.00343
6806.29659	0.00345
6804.36791	0.00345
6802.43924	0.00343
6800.51056	0.00343
6798.58189	0.00345
6796.65321	0.00345
6794.72454	0.00345
6792.79586	0.00345
6790.86718	0.00346
6788.93851	0.00348
6787.00983	0.00348
6785.08116	0.00348
6783.15248	0.00348
6781.22381	0.00349
6779.29513	0.00350
6777.36645	0.00352
6775.43778	0.00353
6773.50910	0.00353
6771.58043	0.00355
6769.65175	0.00357
6767.72308	0.00358
6765.79440	0.00357
6763.86572	0.00356
6761.93705	0.00355
6760.00837	0.00354
6758.07970	0.00353
6756.15102	0.00352
6754.22235	0.00354
6752.29367	0.00359
6750.36499	0.00363
6748.43632	0.00365
6746.50764	0.00366
6744.57897	0.00367
6742.65029	0.00368
6740.72162	0.00368
6738.79294	0.00367
6736.86426	0.00366
6734.93559	0.00366
6733.00691	0.00366
6731.07824	0.00369
6729.14956	0.00372
6727.22089	0.00373
6725.29221	0.00373
6723.36353	0.00372
6721.43486	0.00371
6719.50618	0.00371
6717.57751	0.00372
6715.64883	0.00372
6713.72016	0.00373
6711.79148	0.00375
6709.86280	0.00377
6707.93413	0.00379
6706.00545	0.00381
6704.07678	0.00381
6702.14810	0.00380
6700.21943	0.00380
6698.29075	0.00379
6696.36207	0.00380
6694.43340	0.00384
6692.50472	0.00388
6690.57605	0.00390
6688.64737	0.00390
6686.71870	0.00389
6684.79002	0.00386
6682.86134	0.00386
6680.93267	0.00389
6679.00399	0.00391
6677.07532	0.00393
6675.14664	0.00395
6673.21797	0.00397
6671.28929	0.00396
6669.36061	0.00395
6667.43194	0.00395
6665.50326	0.00397
6663.57459	0.00398
6661.64591	0.00399
6659.71724	0.00399
6657.78856	0.00399
6655.85988	0.00399
6653.93121	0.00399
6652.00253	0.00400
6650.07386	0.00401
6648.14518	0.00401
6646.21651	0.00402
6644.28783	0.00403
6642.35915	0.00404
6640.43048	0.00406
6638.50180	0.00408
6636.57313	0.00409
6634.64445	0.00409
6632.71578	0.00408
6630.78710	0.00407
6628.85842	0.00408
6626.92975	0.00411
6625.00107	0.00412
6623.07240	0.00413
6621.14372	0.00415
6619.21505	0.00417
6617.28637	0.00419
6615.35769	0.00420
6613.42902	0.00421
6611.50034	0.00422
6609.57167	0.00421
6607.64299	0.00421
6605.71432	0.00423
6603.78564	0.00426
6601.85696	0.00428
6599.92829	0.00427
6597.99961	0.00427
6596.07094	0.00428
6594.14226	0.00430
6592.21359	0.00431
6590.28491	0.00431
6588.35623	0.00431
6586.42756	0.00430
6584.49888	0.00432
6582.57021	0.00434
6580.64153	0.00435
6578.71286	0.00434
6576.78418	0.00435
6574.85550	0.00437
6572.92683	0.00439
6570.99815	0.00440
6569.06948	0.00440
6567.14080	0.00441
6565.21213	0.00442
6563.28345	0.00443
6561.35477	0.00443
6559.42610	0.00443
6557.49742	0.00444
6555.56875	0.00446
6553.64007	0.00447
6551.71140	0.00448
6549.78272	0.00450
6547.85404	0.00452
6545.92537	0.00453
6543.99669	0.00452
6542.06802	0.00452
6540.13934	0.00455
6538.21067	0.00457
6536.28199	0.00456
6534.35331	0.00457
6532.42464	0.00458
6530.49596	0.00458
6528.56729	0.00458
6526.63861	0.00459
6524.70994	0.00462
6522.78126	0.00463
6520.85258	0.00462
6518.92391	0.00461
6516.99523	0.00461
6515.06656	0.00461
6513.13788	0.00462
6511.20921	0.00465
6509.28053	0.00468
6507.35185	0.00468
6505.42318	0.00467
6503.49450	0.00468
6501.56583	0.00471
6499.63715	0.00474
6497.70848	0.00475
6495.77980	0.00476
6493.85112	0.00477
6491.92245	0.00477
6489.99377	0.00477
6488.06510	0.00478
6486.13642	0.00480
6484.20775	0.00483
6482.27907	0.00486
6480.35039	0.00489
6478.42172	0.00489
6476.49304	0.00488
6474.56437	0.00486
6472.63569	0.00488
6470.70702	0.00489
6468.77834	0.00488
6466.84966	0.00487
6464.92099	0.00489
6462.99231	0.00493
6461.06364	0.00496
6459.13496	0.00495
6457.20629	0.00495
6455.27761	0.00496
6453.34893	0.00497
6451.42026	0.00498
6449.49158	0.00500
6447.56291	0.00501
6445.63423	0.00500
6443.70556	0.00501
6441.77688	0.00501
6439.84820	0.00499
6437.91953	0.00498
6435.99085	0.00500
6434.06218	0.00503
6432.13350	0.00506
6430.20483	0.00508
6428.27615	0.00510
6426.34747	0.00510
6424.41880	0.00510
6422.49012	0.00511
6420.56145	0.00512
6418.63277	0.00515
6416.70410	0.00517
6414.77542	0.00517
6412.84674	0.00516
6410.91807	0.00516
6408.98939	0.00518
6407.06072	0.00522
6405.13204	0.00526
6403.20337	0.00528
6401.27469	0.00529
6399.34601	0.00528
6397.41734	0.00528
6395.48866	0.00528
6393.55999	0.00527
6391.63131	0.00527
6389.70264	0.00527
6387.77396	0.00528
6385.84528	0.00530
6383.91661	0.00531
6381.98793	0.00531
6380.05926	0.00533
6378.13058	0.00535
6376.20191	0.00539
6374.27323	0.00541
6372.34455	0.00541
6370.41588	0.00542
6368.48720	0.00544
6366.55853	0.00545
6364.62985	0.00545
6362.70118	0.00544
6360.77250	0.00546
6358.84382	0.00549
6356.91515	0.00553
6354.98647	0.00554
6353.05780	0.00553
6351.12912	0.00554
6349.20045	0.00554
6347.27177	0.00554
6345.34309	0.00556
6343.41442	0.00559
6341.48574	0.00561
6339.55707	0.00563
6337.62839	0.00564
6335.69972	0.00564
6333.77104	0.00563
6331.84236	0.00564
6329.91369	0.00567
6327.98501	0.00569
6326.05634	0.00568
6324.12766	0.00569
6322.19899	0.00570
6320.27031	0.00573
6318.34163	0.00576
6316.41296	0.00578
6314.48428	0.00578
6312.55561	0.00578
6310.62693	0.00579
6308.69826	0.00580
6306.76958	0.00581
6304.84090	0.00585
6302.91223	0.00587
6300.98355	0.00586
6299.05488	0.00586
6297.12620	0.00588
6295.19753	0.00590
6293.26885	0.00591
6291.34017	0.00590
6289.41150	0.00589
6287.48282	0.00592
6285.55415	0.00598
6283.62547	0.00600
6281.69680	0.00599
6279.76812	0.00598
6277.83944	0.00599
6275.91077	0.00600
6273.98209	0.00602
6272.05342	0.00604
6270.12474	0.00604
6268.19607	0.00604
6266.26739	0.00605
6264.33871	0.00608
6262.41004	0.00611
6260.48136	0.00613
6258.55269	0.00612
6256.62401	0.00612
6254.69534	0.00613
6252.76666	0.00614
6250.83798	0.00615
6248.90931	0.00617
6246.98063	0.00622
6245.05196	0.00624
6243.12328	0.00624
6241.19461	0.00624
6239.26593	0.00624
6237.33725	0.00624
6235.40858	0.00624
6233.47990	0.00626
6231.55123	0.00630
6229.62255	0.00634
6227.69388	0.00636
6225.76520	0.00634
6223.83652	0.00634
6221.90785	0.00635
6219.97917	0.00637
6218.05050	0.00637
6216.12182	0.00637
6214.19315	0.00641
6212.26447	0.00646
6210.33579	0.00650
6208.40712	0.00651
6206.47844	0.00652
6204.54977	0.00653
6202.62109	0.00654
6200.69242	0.00656
6198.76374	0.00659
6196.83506	0.00660
6194.90639	0.00657
6192.97771	0.00654
6191.04904	0.00654
6189.12036	0.00655
6187.19169	0.00658
6185.26301	0.00661
6183.33433	0.00664
6181.40566	0.00666
6179.47698	0.00667
6177.54831	0.00666
6175.61963	0.00666
6173.69096	0.00667
6171.76228	0.00670
6169.83360	0.00674
6167.90493	0.00676
6165.97625	0.00674
6164.04758	0.00673
6162.11890	0.00674
6160.19023	0.00675
6158.26155	0.00678
6156.33287	0.00683
6154.40420	0.00687
6152.47552	0.00689
6150.54685	0.00688
6148.61817	0.00687
6146.68950	0.00688
6144.76082	0.00692
6142.83214	0.00696
6140.90347	0.00696
6138.97479	0.00695
6137.04612	0.00696
6135.11744	0.00698
6133.18877	0.00700
6131.26009	0.00702
6129.33141	0.00704
6127.40274	0.00705
6125.47406	0.00707
6123.54539	0.00709
6121.61671	0.00712
6119.68804	0.00713
6117.75936	0.00714
6115.83068	0.00716
6113.90201	0.00720
6111.97333	0.00722
6110.04466	0.00723
6108.11598	0.00722
6106.18731	0.00723
6104.25863	0.00724
6102.32995	0.00724
6100.40128	0.00725
6098.47260	0.00727
6096.54393	0.00728
6094.61525	0.00728
6092.68658	0.00729
6090.75790	0.00732
6088.82922	0.00737
6086.90055	0.00740
6084.97187	0.00742
6083.04320	0.00742
6081.11452	0.00743
6079.18585	0.00745
6077.25717	0.00745
6075.32849	0.00746
6073.39982	0.00747
6071.47114	0.00748
6069.54247	0.00752
6067.61379	0.00755
6065.68512	0.00755
6063.75644	0.00755
6061.82776	0.00758
6059.89909	0.00761
6057.97041	0.00763
6056.04174	0.00764
6054.11306	0.00767
6052.18439	0.00769
6050.25571	0.00769
6048.32703	0.00768
6046.39836	0.00767
6044.46968	0.00768
6042.54101	0.00770
6040.61233	0.00775
6038.68366	0.00779
6036.75498	0.00782
6034.82630	0.00781
6032.89763	0.00781
6030.96895	0.00782
6029.04028	0.00783
6027.11160	0.00786
6025.18293	0.00789
6023.25425	0.00791
6021.32557	0.00792
6019.39690	0.00793
6017.46822	0.00793
6015.53955	0.00795
6013.61087	0.00796
6011.68220	0.00798
6009.75352	0.00801
6007.82484	0.00803
6005.89617	0.00802
6003.96749	0.00801
6002.03882	0.00805
6000.11014	0.00812
5998.18147	0.00817
5996.25279	0.00817
5994.32411	0.00815
5992.39544	0.00816
5990.46676	0.00820
5988.53809	0.00822
5986.60941	0.00821
5984.68074	0.00821
5982.75206	0.00822
5980.82338	0.00825
5978.89471	0.00826
5976.96603	0.00826
5975.03736	0.00827
5973.10868	0.00831
5971.18001	0.00833
5969.25133	0.00834
5967.32265	0.00836
5965.39398	0.00838
5963.46530	0.00839
5961.53663	0.00839
5959.60795	0.00839
5957.67928	0.00841
5955.75060	0.00845
5953.82192	0.00847
5951.89325	0.00849
5949.96457	0.00850
5948.03590	0.00850
5946.10722	0.00853
5944.17855	0.00859
5942.24987	0.00864
5940.32119	0.00864
5938.39252	0.00863
5936.46384	0.00864
5934.53517	0.00868
5932.60649	0.00869
5930.67782	0.00870
5928.74914	0.00872
5926.82046	0.00876
5924.89179	0.00878
5922.96311	0.00878
5921.03444	0.00878
5919.10576	0.00878
5917.17709	0.00882
5915.24841	0.00886
5913.31973	0.00887
5911.39106	0.00886
5909.46238	0.00888
5907.53371	0.00890
5905.60503	0.00891
5903.67636	0.00893
5901.74768	0.00895
5899.81900	0.00896
5897.89033	0.00898
5895.96165	0.00900
5894.03298	0.00904
5892.10430	0.00909
5890.17563	0.00913
5888.24695	0.00912
5886.31827	0.00909
5884.38960	0.00908
5882.46092	0.00910
5880.53225	0.00914
5878.60357	0.00915
5876.67490	0.00917
5874.74622	0.00919
5872.81755	0.00923
5870.88887	0.00926
5868.96019	0.00930
5867.03152	0.00934
5865.10284	0.00937
5863.17417	0.00938
5861.24549	0.00938
5859.31682	0.00939
5857.38814	0.00940
5855.45946	0.00941
5853.53079	0.00941
5851.60211	0.00944
5849.67344	0.00948
5847.74476	0.00951
5845.81609	0.00953
5843.88741	0.00955
5841.95873	0.00957
5840.03006	0.00960
5838.10138	0.00960
5836.17271	0.00958
5834.24403	0.00958
5832.31536	0.00959
5830.38668	0.00961
5828.45800	0.00963
5826.52933	0.00966
5824.60065	0.00971
5822.67198	0.00976
5820.74330	0.00979
5818.81463	0.00982
5816.88595	0.00983
5814.95727	0.00982
5813.02860	0.00982
5811.09992	0.00985
5809.17125	0.00990
5807.24257	0.00992
5805.31390	0.00994
5803.38522	0.00996
5801.45654	0.00998
5799.52787	0.00999
5797.59919	0.00998
5795.67052	0.01000
5793.74184	0.01005
5791.81317	0.01009
5789.88449	0.01009
5787.95581	0.01007
5786.02714	0.01008
5784.09846	0.01009
5782.16979	0.01012
5780.24111	0.01017
5778.31244	0.01023
5776.38376	0.01025
5774.45508	0.01026
5772.52641	0.01030
5770.59773	0.01033
5768.66906	0.01034
5766.74038	0.01036
5764.81171	0.01037
5762.88303	0.01037
5760.95435	0.01038
5759.02568	0.01041
5757.09700	0.01045
5755.16833	0.01047
5753.23965	0.01049
5751.31098	0.01051
5749.38230	0.01053
5747.45362	0.01054
5745.52495	0.01055
5743.59627	0.01057
5741.66760	0.01061
5739.73892	0.01066
5737.81025	0.01069
5735.88157	0.01069
5733.95289	0.01067
5732.02422	0.01067
5730.09554	0.01069
5728.16687	0.01075
5726.23819	0.01081
5724.30952	0.01084
5722.38084	0.01085
5720.45216	0.01086
5718.52349	0.01088
5716.59481	0.01089
5714.66614	0.01091
5712.73746	0.01093
5710.80879	0.01094
5708.88011	0.01095
5706.95143	0.01096
5705.02276	0.01099
5703.09408	0.01103
5701.16541	0.01107
5699.23673	0.01108
5697.30806	0.01107
5695.37938	0.01108
5693.45070	0.01114
5691.52203	0.01120
5689.59335	0.01124
5687.66468	0.01125
5685.73600	0.01125
5683.80733	0.01124
5681.87865	0.01125
5679.94997	0.01127
5678.02130	0.01128
5676.09262	0.01132
5674.16395	0.01136
5672.23527	0.01140
5670.30660	0.01142
5668.37792	0.01143
5666.44924	0.01145
5664.52057	0.01145
5662.59189	0.01146
5660.66322	0.01148
5658.73454	0.01152
5656.80587	0.01157
5654.87719	0.01160
5652.94851	0.01162
5651.01984	0.01165
5649.09116	0.01170
5647.16249	0.01174
5645.23381	0.01175
5643.30514	0.01175
5641.37646	0.01174
5639.44778	0.01174
5637.51911	0.01177
5635.59043	0.01182
5633.66176	0.01185
5631.73308	0.01188
5629.80441	0.01192
5627.87573	0.01197
5625.94705	0.01198
5624.01838	0.01195
5622.08970	0.01194
5620.16103	0.01196
5618.23235	0.01199
5616.30368	0.01201
5614.37500	0.01202
5612.44632	0.01205
5610.51765	0.01212
5608.58897	0.01218
5606.66030	0.01221
5604.73162	0.01221
5602.80295	0.01222
5600.87427	0.01224
5598.94559	0.01226
5597.01692	0.01229
5595.08824	0.01233
5593.15957	0.01235
5591.23089	0.01236
5589.30222	0.01239
5587.37354	0.01243
5585.44486	0.01246
5583.51619	0.01249
5581.58751	0.01251
5579.65884	0.01252
5577.73016	0.01253
5575.80149	0.01255
5573.87281	0.01257
5571.94413	0.01259
5570.01546	0.01261
5568.08678	0.01264
5566.15811	0.01267
5564.22943	0.01270
5562.30076	0.01274
5560.37208	0.01278
5558.44340	0.01280
5556.51473	0.01283
5554.58605	0.01286
5552.65738	0.01288
5550.72870	0.01289
5548.80003	0.01291
5546.87135	0.01292
5544.94267	0.01293
5543.01400	0.01295
5541.08532	0.01299
5539.15665	0.01304
5537.22797	0.01307
5535.29930	0.01307
5533.37062	0.01307
5531.44194	0.01310
5529.51327	0.01312
5527.58459	0.01314
5525.65592	0.01317
5523.72724	0.01321
5521.79857	0.01326
5519.86989	0.01329
5517.94121	0.01332
5516.01254	0.01333
5514.08386	0.01334
5512.15519	0.01337
5510.22651	0.01341
5508.29784	0.01344
5506.36916	0.01347
5504.44048	0.01349
5502.51181	0.01351
5500.58313	0.01352
5498.65446	0.01355
5496.72578	0.01358
5494.79711	0.01361
5492.86843	0.01363
5490.93975	0.01364
5489.01108	0.01367
5487.08240	0.01370
5485.15373	0.01373
5483.22505	0.01377
5481.29638	0.01381
5479.36770	0.01386
5477.43902	0.01387
5475.51035	0.01387
5473.58167	0.01389
5471.65300	0.01392
5469.72432	0.01395
5467.79565	0.01396
5465.86697	0.01398
5463.93829	0.01400
5462.00962	0.01403
5460.08094	0.01407
5458.15227	0.01409
5456.22359	0.01410
5454.29492	0.01411
5452.36624	0.01414
5450.43756	0.01417
5448.50889	0.01421
5446.58021	0.01425
5444.65154	0.01428
5442.72286	0.01429
5440.79419	0.01430
5438.86551	0.01432
5436.93683	0.01434
5435.00816	0.01438
5433.07948	0.01444
5431.15081	0.01447
5429.22213	0.01447
5427.29346	0.01450
5425.36478	0.01455
5423.43610	0.01459
5421.50743	0.01462
5419.57875	0.01467
5417.65008	0.01468
5415.72140	0.01465
5413.79273	0.01463
5411.86405	0.01467
5409.93537	0.01473
5408.00670	0.01477
5406.07802	0.01480
5404.14935	0.01483
5402.22067	0.01486
5400.29200	0.01490
5398.36332	0.01493
5396.43464	0.01494
5394.50597	0.01496
5392.57729	0.01499
5390.64862	0.01502
5388.71994	0.01504
5386.79127	0.01506
5384.86259	0.01511
5382.93391	0.01516
5381.00524	0.01520
5379.07656	0.01524
5377.14789	0.01526
5375.21921	0.01527
5373.29054	0.01530
5371.36186	0.01532
5369.43318	0.01534
5367.50451	0.01536
5365.57583	0.01541
5363.64716	0.01547
5361.71848	0.01550
5359.78981	0.01550
5357.86113	0.01552
5355.93245	0.01555
5354.00378	0.01556
5352.07510	0.01557
5350.14643	0.01560
5348.21775	0.01564
5346.28908	0.01565
5344.36040	0.01564
5342.43172	0.01568
5340.50305	0.01576
5338.57437	0.01580
5336.64570	0.01582
5334.71702	0.01584
5332.78835	0.01588
5330.85967	0.01592
5328.93099	0.01594
5327.00232	0.01597
5325.07364	0.01601
5323.14497	0.01604
5321.21629	0.01606
5319.28762	0.01609
5317.35894	0.01614
5315.43026	0.01618
5313.50159	0.01619
5311.57291	0.01621
5309.64424	0.01624
5307.71556	0.01628
5305.78689	0.01630
5303.85821	0.01629
5301.92953	0.01629
5300.00086	0.01632
5298.07218	0.01637
5296.14351	0.01642
5294.21483	0.01645
5292.28616	0.01647
5290.35748	0.01649
5288.42880	0.01653
5286.50013	0.01657
5284.57145	0.01660
5282.64278	0.01663
5280.71410	0.01667
5278.78543	0.01669
5276.85675	0.01670
5274.92807	0.01672
5272.99940	0.01676
5271.07072	0.01682
5269.14205	0.01686
5267.21337	0.01685
5265.28470	0.01684
5263.35602	0.01687
5261.42734	0.01693
5259.49867	0.01697
5257.56999	0.01700
5255.64132	0.01701
5253.71264	0.01704
5251.78397	0.01707
5249.85529	0.01710
5247.92661	0.01714
5245.99794	0.01718
5244.06926	0.01718
5242.14059	0.01719
5240.21191	0.01723
5238.28324	0.01730
5236.35456	0.01735
5234.42588	0.01737
5232.49721	0.01740
5230.56853	0.01744
5228.63986	0.01747
5226.71118	0.01748
5224.78251	0.01751
5222.85383	0.01754
5220.92515	0.01758
5218.99648	0.01762
5217.06780	0.01765
5215.13913	0.01768
5213.21045	0.01772
5211.28178	0.01773
5209.35310	0.01774
5207.42442	0.01777
5205.49575	0.01781
5203.56707	0.01783
5201.63840	0.01785
5199.70972	0.01787
5197.78105	0.01792
5195.85237	0.01798
5193.92369	0.01804
5191.99502	0.01805
5190.06634	0.01804
5188.13767	0.01805
5186.20899	0.01810
5184.28032	0.01816
5182.35164	0.01818
5180.42296	0.01820
5178.49429	0.01823
5176.56561	0.01824
5174.63694	0.01825
5172.70826	0.01830
5170.77959	0.01838
5168.85091	0.01843
5166.92223	0.01846
5164.99356	0.01848
5163.06488	0.01848
5161.13621	0.01850
5159.20753	0.01852
5157.27886	0.01856
5155.35018	0.01861
5153.42150	0.01865
5151.49283	0.01868
5149.56415	0.01870
5147.63548	0.01872
5145.70680	0.01875
5143.77813	0.01880
5141.84945	0.01886
5139.92077	0.01889
5137.99210	0.01892
5136.06342	0.01895
5134.13475	0.01899
5132.20607	0.01903
5130.27740	0.01906
5128.34872	0.01908
5126.42004	0.01910
5124.49137	0.01912
5122.56269	0.01915
5120.63402	0.01919
5118.70534	0.01921
5116.77667	0.01926
5114.84799	0.01933
5112.91931	0.01938
5110.99064	0.01938
5109.06196	0.01940
5107.13329	0.01945
5105.20461	0.01950
5103.27594	0.01952
5101.34726	0.01955
5099.41858	0.01958
5097.48991	0.01962
5095.56123	0.01965
5093.63256	0.01966
5091.70388	0.01966
5089.77521	0.01968
5087.84653	0.01973
5085.91785	0.01977
5083.98918	0.01980
5082.06050	0.01984
5080.13183	0.01989
5078.20315	0.01993
5076.27448	0.01996
5074.34580	0.01998
5072.41712	0.02001
5070.48845	0.02004
5068.55977	0.02006
5066.63110	0.02006
5064.70242	0.02007
5062.77375	0.02009
5060.84507	0.02016
5058.91639	0.02023
5056.98772	0.02027
5055.05904	0.02030
5053.13037	0.02035
5051.20169	0.02039
5049.27302	0.02039
5047.34434	0.02040
5045.41566	0.02043
5043.48699	0.02046
5041.55831	0.02049
5039.62964	0.02053
5037.70096	0.02061
5035.77229	0.02068
5033.84361	0.02071
5031.91493	0.02072
5029.98626	0.02073
5028.05758	0.02076
5026.12891	0.02080
5024.20023	0.02083
5022.27156	0.02087
5020.34288	0.02092
5018.41420	0.02096
5016.48553	0.02096
5014.55685	0.02098
5012.62818	0.02103
5010.69950	0.02108
5008.77083	0.02112
5006.84215	0.02116
5004.91347	0.02122
5002.98480	0.02128
5001.05612	0.02132
4999.12745	0.02134
4997.19877	0.02134
4995.27010	0.02137
4993.34142	0.02139
4991.41274	0.02140
4989.48407	0.02141
4987.55539	0.02145
4985.62672	0.02150
4983.69804	0.02155
4981.76937	0.02160
4979.84069	0.02164
4977.91201	0.02167
4975.98334	0.02168
4974.05466	0.02169
4972.12599	0.02172
4970.19731	0.02177
4968.26864	0.02181
4966.33996	0.02185
4964.41128	0.02187
4962.48261	0.02189
4960.55393	0.02194
4958.62526	0.02200
4956.69658	0.02203
4954.76791	0.02205
4952.83923	0.02210
4950.91055	0.02216
4948.98188	0.02220
4947.05320	0.02223
4945.12453	0.02224
4943.19585	0.02226
4941.26718	0.02229
4939.33850	0.02233
4937.40982	0.02238
4935.48115	0.02244
4933.55247	0.02250
4931.62380	0.02253
4929.69512	0.02256
4927.76645	0.02260
4925.83777	0.02262
4923.90909	0.02264
4921.98042	0.02267
4920.05174	0.02271
4918.12307	0.02276
4916.19439	0.02281
4914.26572	0.02286
4912.33704	0.02289
4910.40836	0.02290
4908.47969	0.02292
4906.55101	0.02295
4904.62234	0.02298
4902.69366	0.02302
4900.76499	0.02305
4898.83631	0.02307
4896.90763	0.02310
4894.97896	0.02315
4893.05028	0.02321
4891.12161	0.02325
4889.19293	0.02329
4887.26426	0.02332
4885.33558	0.02335
4883.40690	0.02339
4881.47823	0.02342
4879.54955	0.02345
4877.62088	0.02348
4875.69220	0.02353
4873.76353	0.02357
4871.83485	0.02362
4869.90617	0.02366
4867.97750	0.02366
4866.04882	0.02367
4864.12015	0.02372
4862.19147	0.02378
4860.26280	0.02383
4858.33412	0.02388
4856.40544	0.02394
4854.47677	0.02398
4852.54809	0.02402
4850.61942	0.02406
4848.69074	0.02410
4846.76207	0.02413
4844.83339	0.02414
4842.90471	0.02417
4840.97604	0.02423
4839.04736	0.02429
4837.11869	0.02433
4835.19001	0.02434
4833.26134	0.02437
4831.33266	0.02441
4829.40398	0.02445
4827.47531	0.02449
4825.54663	0.02453
4823.61796	0.02456
4821.68928	0.02460
4819.76061	0.02465
4817.83193	0.02471
4815.90325	0.02475
4813.97458	0.02478
4812.04590	0.02481
4810.11723	0.02485
4808.18855	0.02490
4806.25988	0.02496
4804.33120	0.02500
4802.40252	0.02503
4800.47385	0.02505
4798.54517	0.02507
4796.61650	0.02510
4794.68782	0.02516
4792.75915	0.02523
4790.83047	0.02530
4788.90179	0.02535
4786.97312	0.02536
4785.04444	0.02535
4783.11577	0.02538
4781.18709	0.02545
4779.25842	0.02550
4777.32974	0.02553
4775.40106	0.02553
4773.47239	0.02555
4771.54371	0.02559
4769.61504	0.02564
4767.68636	0.02568
4765.75769	0.02572
4763.82901	0.02577
4761.90033	0.02582
4759.97166	0.02585
4758.04298	0.02589
4756.11431	0.02595
4754.18563	0.02601
4752.25696	0.02605
4750.32828	0.02607
4748.39960	0.02610
4746.47093	0.02614
4744.54225	0.02619
4742.61358	0.02623
4740.68490	0.02625
4738.75623	0.02630
4736.82755	0.02637
4734.89887	0.02643
4732.97020	0.02645
4731.04152	0.02647
4729.11285	0.02652
4727.18417	0.02658
4725.25550	0.02662
4723.32682	0.02665
4721.39814	0.02668
4719.46947	0.02673
4717.54079	0.02679
4715.61212	0.02686
4713.68344	0.02692
4711.75477	0.02698
4709.82609	0.02701
4707.89741	0.02703
4705.96874	0.02704
4704.04006	0.02705
4702.11139	0.02711
4700.18271	0.02717
4698.25404	0.02722
4696.32536	0.02727
4694.39668	0.02729
4692.46801	0.02730
4690.53933	0.02735
4688.61066	0.02741
4686.68198	0.02746
4684.75331	0.02751
4682.82463	0.02757
4680.89595	0.02763
4678.96728	0.02767
4677.03860	0.02771
4675.10993	0.02777
4673.18125	0.02780
4671.25258	0.02784
4669.32390	0.02787
4667.39522	0.02790
4665.46655	0.02792
4663.53787	0.02795
4661.60920	0.02802
4659.68052	0.02810
4657.75185	0.02817
4655.82317	0.02822
4653.89449	0.02826
4651.96582	0.02829
4650.03714	0.02829
4648.10847	0.02830
4646.17979	0.02836
4644.25112	0.02843
4642.32244	0.02849
4640.39376	0.02854
4638.46509	0.02859
4636.53641	0.02863
4634.60774	0.02868
4632.67906	0.02874
4630.75039	0.02879
4628.82171	0.02883
4626.89303	0.02887
4624.96436	0.02891
4623.03568	0.02895
4621.10701	0.02901
4619.17833	0.02907
4617.24966	0.02913
4615.32098	0.02918
4613.39230	0.02922
4611.46363	0.02927
4609.53495	0.02934
4607.60628	0.02939
4605.67760	0.02941
4603.74893	0.02943
4601.82025	0.02945
4599.89157	0.02950
4597.96290	0.02957
4596.03422	0.02965
4594.10555	0.02971
4592.17687	0.02975
4590.24820	0.02980
4588.31952	0.02986
4586.39084	0.02989
4584.46217	0.02991
4582.53349	0.02996
4580.60482	0.03004
4578.67614	0.03010
4576.74747	0.03015
4574.81879	0.03020
4572.89011	0.03025
4570.96144	0.03028
4569.03276	0.03034
4567.10409	0.03039
4565.17541	0.03045
4563.24674	0.03050
4561.31806	0.03056
4559.38938	0.03062
4557.46071	0.03064
4555.53203	0.03065
4553.60336	0.03071
4551.67468	0.03080
4549.74601	0.03090
4547.81733	0.03098
4545.88865	0.03103
4543.95998	0.03106
4542.03130	0.03110
4540.10263	0.03115
4538.17395	0.03117
4536.24528	0.03117
4534.31660	0.03120
4532.38792	0.03126
4530.45925	0.03133
4528.53057	0.03141
4526.60190	0.03149
4524.67322	0.03154
4522.74455	0.03159
4520.81587	0.03165
4518.88719	0.03168
4516.95852	0.03169
4515.02984	0.03172
4513.10117	0.03179
4511.17249	0.03184
4509.24382	0.03189
4507.31514	0.03196
4505.38646	0.03203
4503.45779	0.03210
4501.52911	0.03213
4499.60044	0.03217
4497.67176	0.03223
4495.74309	0.03230
4493.81441	0.03237
4491.88573	0.03243
4489.95706	0.03249
4488.02838	0.03252
4486.09971	0.03254
4484.17103	0.03260
4482.24236	0.03268
4480.31368	0.03275
4478.38500	0.03282
4476.45633	0.03287
4474.52765	0.03291
4472.59898	0.03298
4470.67030	0.03305
4468.74163	0.03309
4466.81295	0.03311
4464.88427	0.03317
4462.95560	0.03324
4461.02692	0.03330
4459.09825	0.03334
4457.16957	0.03339
4455.24090	0.03347
4453.31222	0.03355
4451.38354	0.03361
4449.45487	0.03365
4447.52619	0.03367
4445.59752	0.03370
4443.66884	0.03375
4441.74017	0.03384
4439.81149	0.03392
4437.88281	0.03397
4435.95414	0.03400
4434.02546	0.03405
4432.09679	0.03410
4430.16811	0.03416
4428.23944	0.03422
4426.31076	0.03428
4424.38208	0.03435
4422.45341	0.03444
4420.52473	0.03453
4418.59606	0.03461
4416.66738	0.03467
4414.73871	0.03473
4412.81003	0.03479
4410.88135	0.03482
4408.95268	0.03486
4407.02400	0.03491
4405.09533	0.03496
4403.16665	0.03501
4401.23798	0.03506
4399.30930	0.03512
4397.38062	0.03518
4395.45195	0.03526
4393.52327	0.03533
4391.59460	0.03539
4389.66592	0.03545
4387.73725	0.03552
4385.80857	0.03559
4383.87989	0.03568
4381.95122	0.03576
4380.02254	0.03584
4378.09387	0.03590
4376.16519	0.03594
4374.23652	0.03597
4372.30784	0.03600
4370.37916	0.03606
4368.45049	0.03613
4366.52181	0.03620
4364.59314	0.03625
4362.66446	0.03629
4360.73579	0.03634
4358.80711	0.03643
4356.87843	0.03653
4354.94976	0.03661
4353.02108	0.03669
4351.09241	0.03675
4349.16373	0.03682
4347.23506	0.03687
4345.30638	0.03691
4343.37770	0.03696
4341.44903	0.03705
4339.52035	0.03715
4337.59168	0.03724
4335.66300	0.03729
4333.73433	0.03734
4331.80565	0.03740
4329.87697	0.03745
4327.94830	0.03751
4326.01962	0.03759
4324.09095	0.03766
4322.16227	0.03772
4320.23360	0.03777
4318.30492	0.03783
4316.37624	0.03790
4314.44757	0.03799
4312.51889	0.03808
4310.59022	0.03816
4308.66154	0.03822
4306.73287	0.03829
4304.80419	0.03834
4302.87551	0.03840
4300.94684	0.03847
4299.01816	0.03854
4297.08949	0.03861
4295.16081	0.03869
4293.23214	0.03877
4291.30346	0.03884
4289.37478	0.03891
4287.44611	0.03899
4285.51743	0.03909
4283.58876	0.03917
4281.66008	0.03922
4279.73141	0.03926
4277.80273	0.03931
4275.87405	0.03940
4273.94538	0.03952
4272.01670	0.03962
4270.08803	0.03968
4268.15935	0.03974
4266.23068	0.03980
4264.30200	0.03985
4262.37332	0.03989
4260.44465	0.03993
4258.51597	0.03998
4256.58730	0.04007
4254.65862	0.04018
4252.72995	0.04028
4250.80127	0.04033
4248.87259	0.04038
4246.94392	0.04045
4245.01524	0.04054
4243.08657	0.04062
4241.15789	0.04069
4239.22922	0.04076
4237.30054	0.04084
4235.37186	0.04091
4233.44319	0.04100
4231.51451	0.04111
4229.58584	0.04120
4227.65716	0.04125
4225.72849	0.04126
4223.79981	0.04128
4221.87113	0.04136
4219.94246	0.04147
4218.01378	0.04158
4216.08511	0.04166
4214.15643	0.04171
4212.22776	0.04176
4210.29908	0.04182
4208.37040	0.04190
4206.44173	0.04199
4204.51305	0.04211
4202.58438	0.04224
4200.65570	0.04233
4198.72703	0.04237
4196.79835	0.04242
4194.86968	0.04249
4192.94100	0.04256
4191.01232	0.04263
4189.08365	0.04268
4187.15497	0.04277
4185.22630	0.04290
4183.29762	0.04301
4181.36895	0.04308
4179.44027	0.04312
4177.51159	0.04316
4175.58292	0.04324
4173.65424	0.04336
4171.72557	0.04347
4169.79689	0.04354
4167.86822	0.04359
4165.93954	0.04365
4164.01086	0.04374
4162.08219	0.04386
4160.15351	0.04400
4158.22484	0.04410
4156.29616	0.04417
4154.36749	0.04423
4152.43881	0.04429
4150.51013	0.04436
4148.58146	0.04443
4146.65278	0.04453
4144.72411	0.04465
4142.79543	0.04474
4140.86676	0.04479
4138.93808	0.04484
4137.00940	0.04492
4135.08073	0.04502
4133.15205	0.04515
4131.22338	0.04527
4129.29470	0.04535
4127.36603	0.04541
4125.43735	0.04549
4123.50867	0.04559
4121.58000	0.04565
4119.65132	0.04570
4117.72265	0.04575
4115.79397	0.04584
4113.86530	0.04596
4111.93662	0.04606
4110.00794	0.04615
4108.07927	0.04623
4106.15059	0.04632
4104.22192	0.04643
4102.29324	0.04654
4100.36457	0.04662
4098.43589	0.04669
4096.50721	0.04676
4094.57854	0.04685
4092.64986	0.04696
4090.72119	0.04704
4088.79251	0.04709
4086.86384	0.04715
4084.93516	0.04724
4083.00648	0.04733
4081.07781	0.04742
4079.14913	0.04756
4077.22046	0.04768
4075.29178	0.04775
4073.36311	0.04782
4071.43443	0.04792
4069.50575	0.04800
4067.57708	0.04808
4065.64840	0.04816
4063.71973	0.04825
4061.79105	0.04835
4059.86238	0.04843
4057.93370	0.04851
4056.00502	0.04863
4054.07635	0.04874
4052.14767	0.04882
4050.21900	0.04890
4048.29032	0.04899
4046.36165	0.04909
4044.43297	0.04919
4042.50429	0.04928
4040.57562	0.04935
4038.64694	0.04943
4036.71827	0.04952
4034.78959	0.04961
4032.86092	0.04972
4030.93224	0.04983
4029.00356	0.04993
4027.07489	0.05000
4025.14621	0.05005
4023.21754	0.05013
4021.28886	0.05026
4019.36019	0.05037
4017.43151	0.05045
4015.50283	0.05056
4013.57416	0.05069
4011.64548	0.05079
4009.71681	0.05087
4007.78813	0.05097
4005.85946	0.05110
4003.93078	0.05121
4002.00210	0.05127
4000.07343	0.05134
3998.14475	0.05141
3996.21608	0.05152
3994.28740	0.05165
3992.35873	0.05176
3990.43005	0.05183
3988.50137	0.05190
3986.57270	0.05201
3984.64402	0.05212
3982.71535	0.05223
3980.78667	0.05231
3978.85800	0.05239
3976.92932	0.05248
3975.00064	0.05257
3973.07197	0.05267
3971.14329	0.05281
3969.21462	0.05297
3967.28594	0.05308
3965.35727	0.05314
3963.42859	0.05319
3961.49991	0.05328
3959.57124	0.05337
3957.64256	0.05344
3955.71389	0.05352
3953.78521	0.05365
3951.85654	0.05378
3949.92786	0.05387
3947.99918	0.05395
3946.07051	0.05405
3944.14183	0.05415
3942.21316	0.05424
3940.28448	0.05436
3938.35581	0.05449
3936.42713	0.05458
3934.49845	0.05464
3932.56978	0.05473
3930.64110	0.05486
3928.71243	0.05496
3926.78375	0.05503
3924.85508	0.05510
3922.92640	0.05520
3920.99772	0.05530
3919.06905	0.05541
3917.14037	0.05555
3915.21170	0.05572
3913.28302	0.05589
3911.35435	0.05603
3909.42567	0.05614
3907.49699	0.05615
3905.56832	0.05609
3903.63964	0.05608
3901.71097	0.05614
3899.78229	0.05630
3897.85362	0.05654
3895.92494	0.05677
3893.99626	0.05687
3892.06759	0.05689
3890.13891	0.05699
3888.21024	0.05710
3886.28156	0.05716
3884.35289	0.05725
3882.42421	0.05734
3880.49553	0.05743
3878.56686	0.05758
3876.63818	0.05772
3874.70951	0.05778
3872.78083	0.05783
3870.85216	0.05790
3868.92348	0.05805
3866.99480	0.05822
3865.06613	0.05834
3863.13745	0.05848
3861.20878	0.05864
3859.28010	0.05873
3857.35143	0.05866
3855.42275	0.05844
3853.49407	0.05842
3851.56540	0.05875
3849.63672	0.05917
3847.70805	0.05942
3845.77937	0.05954
3843.85070	0.05957
3841.92202	0.05958
3839.99334	0.05961
3838.06467	0.05971
3836.13599	0.05987
3834.20732	0.06005
3832.27864	0.06022
3830.34997	0.06040
3828.42129	0.06053
3826.49261	0.06059
3824.56394	0.06057
3822.63526	0.06050
3820.70659	0.06057
3818.77791	0.06078
3816.84924	0.06096
3814.92056	0.06116
3812.99188	0.06142
3811.06321	0.06159
3809.13453	0.06157
3807.20586	0.06156
3805.27718	0.06167
3803.34851	0.06179
3801.41983	0.06190
3799.49115	0.06209
3797.56248	0.06228
3795.63380	0.06246
3793.70513	0.06267
3791.77645	0.06282
3789.84778	0.06293
3787.91910	0.06302
3785.99042	0.06310
3784.06175	0.06319
3782.13307	0.06327
3780.20440	0.06336
3778.27572	0.06349
3776.34705	0.06365
3774.41837	0.06379
3772.48969	0.06385
3770.56102	0.06389
3768.63234	0.06401
3766.70367	0.06418
3764.77499	0.06433
3762.84632	0.06444
3760.91764	0.06449
3758.98896	0.06455
3757.06029	0.06467
3755.13161	0.06472
3753.20294	0.06464
3751.27426	0.06461
3749.34559	0.06477
3747.41691	0.06491
3745.48823	0.06486
3743.55956	0.06500
3741.63088	0.06540
3739.70221	0.06564
3737.77353	0.06562
3735.84486	0.06559
3733.91618	0.06572
3731.98750	0.06598
3730.05883	0.06624
3728.13015	0.06641
3726.20148	0.06650
3724.27280	0.06661
3722.34413	0.06677
3720.41545	0.06695
3718.48677	0.06713
3716.55810	0.06727
3714.62942	0.06728
3712.70075	0.06723
3710.77207	0.06731
3708.84340	0.06756
3706.91472	0.06780
3704.98604	0.06793
3703.05737	0.06797
3701.12869	0.06808
3699.20002	0.06828
3697.27134	0.06846
3695.34267	0.06853
3693.41399	0.06852
3691.48531	0.06848
3689.55664	0.06853
3687.62796	0.06873
3685.69929	0.06900
3683.77061	0.06919
3681.84194	0.06930
3679.91326	0.06937
3677.98458	0.06935
3676.05591	0.06934
3674.12723	0.06947
3672.19856	0.06961
3670.26988	0.06970
3668.34121	0.06992
3666.41253	0.07022
3664.48385	0.07040
3662.55518	0.07048
3660.62650	0.07054
3658.69783	0.07060
3656.76915	0.07068
3654.84048	0.07079
3652.91180	0.07076
3650.98312	0.07055
3649.05445	0.07047
3647.12577	0.07066
3645.19710	0.07100
3643.26842	0.07132
3641.33975	0.07157
3639.41107	0.07176
3637.48239	0.07186
3635.55372	0.07191
3633.62504	0.07191
3631.69637	0.07179
3629.76769	0.07167
3627.83902	0.07180
3625.91034	0.07214
3623.98166	0.07238
3622.05299	0.07240
3620.12431	0.07235
3618.19564	0.07240
3616.26696	0.07255
3614.33829	0.07268
3612.40961	0.07276
3610.48093	0.07280
3608.55226	0.07288
3606.62358	0.07308
3604.69491	0.07327
3602.76623	0.07336
3600.83756	0.07343
3598.90888	0.07354
3596.98020	0.07364
3595.05153	0.07371
3593.12285	0.07380
3591.19418	0.07386
3589.26550	0.07382
3587.33683	0.07385
3585.40815	0.07403
3583.47947	0.07422
3581.55080	0.07435
3579.62212	0.07447
3577.69345	0.07459
3575.76477	0.07471
3573.83610	0.07481
3571.90742	0.07487
3569.97874	0.07487
3568.05007	0.07485
3566.12139	0.07495
3564.19272	0.07513
3562.26404	0.07531
3560.33537	0.07546
3558.40669	0.07559
3556.47801	0.07572
3554.54934	0.07582
3552.62066	0.07588
3550.69199	0.07593
3548.76331	0.07601
3546.83464	0.07609
3544.90596	0.07618
3542.97728	0.07630
3541.04861	0.07641
3539.11993	0.07649
3537.19126	0.07659
3535.26258	0.07669
3533.33391	0.07677
3531.40523	0.07679
3529.47655	0.07678
3527.54788	0.07677
3525.61920	0.07681
3523.69053	0.07690
3521.76185	0.07698
3519.83318	0.07704
3517.90450	0.07708
3515.97582	0.07713
3514.04715	0.07718
3512.11847	0.07722
3510.18980	0.07726
3508.26112	0.07730
3506.33245	0.07732
3504.40377	0.07735
3502.47509	0.07743
3500.54642	0.07749
3498.61774	0.07748
3496.68907	0.07749
3494.76039	0.07755
3492.83172	0.07763
3490.90304	0.07768
3488.97436	0.07772
3487.04569	0.07778
3485.11701	0.07783
3483.18834	0.07784
3481.25966	0.07785
3479.33099	0.07790
3477.40231	0.07802
3475.47363	0.07815
3473.54496	0.07828
3471.61628	0.07838
3469.68761	0.07848
3467.75893	0.07857
3465.83026	0.07869
3463.90158	0.07883
3461.97290	0.07899
3460.04423	0.07913
3458.11555	0.07924
3456.18688	0.07934
3454.25820	0.07947
3452.32953	0.07959
3450.40085	0.07968
3448.47217	0.07975
3446.54350	0.07985
3444.61482	0.07999
3442.68615	0.08016
3440.75747	0.08034
3438.82880	0.08053
3436.90012	0.08074
3434.97144	0.08097
3433.04277	0.08124
3431.11409	0.08152
3429.18542	0.08180
3427.25674	0.08206
3425.32807	0.08230
3423.39939	0.08254
3421.47071	0.08278
3419.54204	0.08300
3417.61336	0.08321
3415.68469	0.08341
3413.75601	0.08363
3411.82734	0.08386
3409.89866	0.08406
3407.96998	0.08421
3406.04131	0.08436
3404.11263	0.08452
3402.18396	0.08465
3400.25528	0.08477
3398.32661	0.08489
3396.39793	0.08505
3394.46925	0.08527
3392.54058	0.08548
3390.61190	0.08567
3388.68323	0.08585
3386.75455	0.08604
3384.82588	0.08623
3382.89720	0.08640
3380.96852	0.08657
3379.03985	0.08673
3377.11117	0.08691
3375.18250	0.08710
3373.25382	0.08725
3371.32515	0.08740
3369.39647	0.08755
3367.46779	0.08769
3365.53912	0.08784
3363.61044	0.08799
3361.68177	0.08816
3359.75309	0.08836
3357.82442	0.08856
3355.89574	0.08870
3353.96706	0.08879
3352.03839	0.08889
3350.10971	0.08903
3348.18104	0.08918
3346.25236	0.08933
3344.32369	0.08952
3342.39501	0.08973
3340.46633	0.08992
3338.53766	0.09009
3336.60898	0.09023
3334.68031	0.09036
3332.75163	0.09051
3330.82296	0.09068
3328.89428	0.09086
3326.96560	0.09102
3325.03693	0.09119
3323.10825	0.09142
3321.17958	0.09164
3319.25090	0.09180
3317.32223	0.09193
3315.39355	0.09206
3313.46487	0.09219
3311.53620	0.09235
3309.60752	0.09253
3307.67885	0.09270
3305.75017	0.09285
3303.82150	0.09300
3301.89282	0.09316
3299.96414	0.09331
3298.03547	0.09347
3296.10679	0.09368
3294.17812	0.09393
3292.24944	0.09410
3290.32077	0.09419
3288.39209	0.09431
3286.46341	0.09450
3284.53474	0.09468
3282.60606	0.09484
3280.67739	0.09499
3278.74871	0.09516
3276.82004	0.09531
3274.89136	0.09548
3272.96268	0.09567
3271.03401	0.09589
3269.10533	0.09613
3267.17666	0.09636
3265.24798	0.09657
3263.31931	0.09673
3261.39063	0.09686
3259.46195	0.09696
3257.53328	0.09709
3255.60460	0.09731
3253.67593	0.09755
3251.74725	0.09771
3249.81858	0.09782
3247.88990	0.09797
3245.96122	0.09816
3244.03255	0.09836
3242.10387	0.09855
3240.17520	0.09873
3238.24652	0.09892
3236.31785	0.09912
3234.38917	0.09931
3232.46049	0.09948
3230.53182	0.09967
3228.60314	0.09986
3226.67447	0.10002
3224.74579	0.10014
3222.81712	0.10026
3220.88844	0.10042
3218.95976	0.10060
3217.03109	0.10074
3215.10241	0.10090
3213.17374	0.10111
3211.24506	0.10134
3209.31639	0.10154
3207.38771	0.10170
3205.45903	0.10184
3203.53036	0.10198
3201.60168	0.10214
3199.67301	0.10234
3197.74433	0.10252
3195.81566	0.10268
3193.88698	0.10287
3191.95830	0.10309
3190.02963	0.10330
3188.10095	0.10348
3186.17228	0.10368
3184.24360	0.10390
3182.31493	0.10411
3180.38625	0.10431
3178.45757	0.10449
3176.52890	0.10463
3174.60022	0.10480
3172.67155	0.10503
3170.74287	0.10525
3168.81420	0.10538
3166.88552	0.10551
3164.95684	0.10569
3163.02817	0.10588
3161.09949	0.10608
3159.17082	0.10626
3157.24214	0.10644
3155.31347	0.10660
3153.38479	0.10676
3151.45611	0.10696
3149.52744	0.10717
3147.59876	0.10735
3145.67009	0.10753
3143.74141	0.10770
3141.81274	0.10788
3139.88406	0.10805
3137.95538	0.10822
3136.02671	0.10843
3134.09803	0.10867
3132.16936	0.10884
3130.24068	0.10897
3128.31201	0.10913
3126.38333	0.10935
3124.45465	0.10957
3122.52598	0.10974
3120.59730	0.10989
3118.66863	0.11004
3116.73995	0.11022
3114.81128	0.11039
3112.88260	0.11056
3110.95392	0.11076
3109.02525	0.11097
3107.09657	0.11116
3105.16790	0.11135
3103.23922	0.11155
3101.31055	0.11173
3099.38187	0.11186
3097.45319	0.11200
3095.52452	0.11218
3093.59584	0.11240
3091.66717	0.11263
3089.73849	0.11284
3087.80982	0.11300
3085.88114	0.11317
3083.95246	0.11336
3082.02379	0.11354
3080.09511	0.11372
3078.16644	0.11389
3076.23776	0.11407
3074.30909	0.11426
3072.38041	0.11442
3070.45173	0.11456
3068.52306	0.11472
3066.59438	0.11489
3064.66571	0.11505
3062.73703	0.11526
3060.80836	0.11552
3058.87968	0.11573
3056.95100	0.11589
3055.02233	0.11607
3053.09365	0.11622
3051.16498	0.11633
3049.23630	0.11649
3047.30763	0.11671
3045.37895	0.11690
3043.45027	0.11709
3041.52160	0.11730
3039.59292	0.11751
3037.66425	0.11771
3035.73557	0.11788
3033.80690	0.11804
3031.87822	0.11822
3029.94954	0.11844
3028.02087	0.11863
3026.09219	0.11878
3024.16352	0.11893
3022.23484	0.11914
3020.30617	0.11934
3018.37749	0.11947
3016.44881	0.11962
3014.52014	0.11985
3012.59146	0.12008
3010.66279	0.12024
3008.73411	0.12035
3006.80544	0.12047
3004.87676	0.12067
3002.94808	0.12089
3001.01941	0.12109
2999.09073	0.12126
2997.16206	0.12142
2995.23338	0.12155
2993.30471	0.12168
2991.37603	0.12185
2989.44735	0.12202
2987.51868	0.12214
2985.59000	0.12225
2983.66133	0.12239
2981.73265	0.12252
2979.80398	0.12259
2977.87530	0.12261
2975.94662	0.12264
2974.01795	0.12268
2972.08927	0.12270
2970.16060	0.12267
2968.23192	0.12260
2966.30325	0.12259
2964.37457	0.12266
2962.44589	0.12271
2960.51722	0.12278
2958.58854	0.12294
2956.65987	0.12317
2954.73119	0.12343
2952.80252	0.12365
2950.87384	0.12387
2948.94516	0.12411
2947.01649	0.12432
2945.08781	0.12444
2943.15914	0.12446
2941.23046	0.12446
2939.30179	0.12446
2937.37311	0.12442
2935.44443	0.12433
2933.51576	0.12423
2931.58708	0.12414
2929.65841	0.12402
2927.72973	0.12384
2925.80106	0.12363
2923.87238	0.12348
2921.94370	0.12338
2920.01503	0.12336
2918.08635	0.12353
2916.15768	0.12399
2914.22900	0.12465
2912.30033	0.12536
2910.37165	0.12602
2908.44297	0.12660
2906.51430	0.12709
2904.58562	0.12751
2902.65695	0.12788
2900.72827	0.12821
2898.79960	0.12854
2896.87092	0.12886
2894.94224	0.12913
2893.01357	0.12938
2891.08489	0.12966
2889.15622	0.12991
2887.22754	0.13012
2885.29887	0.13034
2883.37019	0.13061
2881.44151	0.13085
2879.51284	0.13104
2877.58416	0.13121
2875.65549	0.13138
2873.72681	0.13157
2871.79814	0.13180
2869.86946	0.13197
2867.94078	0.13209
2866.01211	0.13218
2864.08343	0.13227
2862.15476	0.13234
2860.22608	0.13235
2858.29741	0.13229
2856.36873	0.13219
2854.44005	0.13202
2852.51138	0.13183
2850.58270	0.13176
2848.65403	0.13202
2846.72535	0.13268
2844.79668	0.13357
2842.86800	0.13439
2840.93932	0.13498
2839.01065	0.13542
2837.08197	0.13579
2835.15330	0.13610
2833.22462	0.13633
2831.29595	0.13656
2829.36727	0.13681
2827.43859	0.13708
2825.50992	0.13733
2823.58124	0.13757
2821.65257	0.13777
2819.72389	0.13797
2817.79522	0.13820
2815.86654	0.13843
2813.93786	0.13865
2812.00919	0.13887
2810.08051	0.13908
2808.15184	0.13929
2806.22316	0.13953
2804.29449	0.13975
2802.36581	0.13995
2800.43713	0.14014
2798.50846	0.14037
2796.57978	0.14059
2794.65111	0.14076
2792.72243	0.14093
2790.79376	0.14114
2788.86508	0.14140
2786.93640	0.14167
2785.00773	0.14191
2783.07905	0.14207
2781.15038	0.14222
2779.22170	0.14240
2777.29303	0.14262
2775.36435	0.14281
2773.43567	0.14296
2771.50700	0.14312
2769.57832	0.14331
2767.64965	0.14351
2765.72097	0.14370
2763.79230	0.14386
2761.86362	0.14403
2759.93494	0.14425
2758.00627	0.14448
2756.07759	0.14466
2754.14892	0.14483
2752.22024	0.14502
2750.29157	0.14520
2748.36289	0.14539
2746.43421	0.14557
2744.50554	0.14575
2742.57686	0.14593
2740.64819	0.14614
2738.71951	0.14634
2736.79084	0.14653
2734.86216	0.14672
2732.93348	0.14692
2731.00481	0.14711
2729.07613	0.14728
2727.14746	0.14750
2725.21878	0.14777
2723.29011	0.14798
2721.36143	0.14813
2719.43275	0.14829
2717.50408	0.14844
2715.57540	0.14858
2713.64673	0.14872
2711.71805	0.14892
2709.78938	0.14914
2707.86070	0.14936
2705.93202	0.14955
2704.00335	0.14973
2702.07467	0.14994
2700.14600	0.15014
2698.21732	0.15031
2696.28865	0.15048
2694.35997	0.15069
2692.43129	0.15087
2690.50262	0.15098
2688.57394	0.15111
2686.64527	0.15132
2684.71659	0.15159
2682.78792	0.15185
2680.85924	0.15203
2678.93056	0.15216
2677.00189	0.15231
2675.07321	0.15252
2673.14454	0.15274
2671.21586	0.15296
2669.28719	0.15314
2667.35851	0.15330
2665.42983	0.15344
2663.50116	0.15363
2661.57248	0.15387
2659.64381	0.15412
2657.71513	0.15434
2655.78646	0.15450
2653.85778	0.15465
2651.92910	0.15481
2650.00043	0.15504
2648.07175	0.15530
2646.14308	0.15552
2644.21440	0.15571
2642.28573	0.15590
2640.35705	0.15607
2638.42837	0.15622
2636.49970	0.15639
2634.57102	0.15661
2632.64235	0.15686
2630.71367	0.15708
2628.78500	0.15727
2626.85632	0.15748
2624.92764	0.15771
2622.99897	0.15793
2621.07029	0.15814
2619.14162	0.15837
2617.21294	0.15855
2615.28427	0.15870
2613.35559	0.15888
2611.42691	0.15913
2609.49824	0.15938
2607.56956	0.15957
2605.64089	0.15973
2603.71221	0.15993
2601.78354	0.16015
2599.85486	0.16037
2597.92618	0.16059
2595.99751	0.16078
2594.06883	0.16095
2592.14016	0.16116
2590.21148	0.16138
2588.28281	0.16161
2586.35413	0.16181
2584.42545	0.16196
2582.49678	0.16212
2580.56810	0.16232
2578.63943	0.16252
2576.71075	0.16271
2574.78208	0.16290
2572.85340	0.16310
2570.92472	0.16331
2568.99605	0.16349
2567.06737	0.16367
2565.13870	0.16388
2563.21002	0.16411
2561.28135	0.16434
2559.35267	0.16455
2557.42399	0.16473
2555.49532	0.16488
2553.56664	0.16504
2551.63797	0.16525
2549.70929	0.16550
2547.78062	0.16574
2545.85194	0.16593
2543.92326	0.16610
2541.99459	0.16625
2540.06591	0.16643
2538.13724	0.16665
2536.20856	0.16683
2534.27989	0.16701
2532.35121	0.16720
2530.42253	0.16739
2528.49386	0.16760
2526.56518	0.16782
2524.63651	0.16803
2522.70783	0.16824
2520.77916	0.16843
2518.85048	0.16859
2516.92181	0.16876
2514.99313	0.16901
2513.06445	0.16929
2511.13578	0.16949
2509.20710	0.16965
2507.27843	0.16986
2505.34975	0.17010
2503.42108	0.17034
2501.49240	0.17056
2499.56372	0.17073
2497.63505	0.17088
2495.70637	0.17109
2493.77770	0.17137
2491.84902	0.17165
2489.92035	0.17191
2487.99167	0.17212
2486.06299	0.17231
2484.13432	0.17251
2482.20564	0.17271
2480.27697	0.17286
2478.34829	0.17301
2476.41962	0.17319
2474.49094	0.17343
2472.56226	0.17368
2470.63359	0.17392
2468.70491	0.17418
2466.77624	0.17445
2464.84756	0.17466
2462.91889	0.17483
2460.99021	0.17502
2459.06153	0.17523
2457.13286	0.17543
2455.20418	0.17563
2453.27551	0.17583
2451.34683	0.17602
2449.41816	0.17621
2447.48948	0.17641
2445.56080	0.17662
2443.63213	0.17686
2441.70345	0.17712
2439.77478	0.17734
2437.84610	0.17750
2435.91743	0.17766
2433.98875	0.17787
2432.06007	0.17811
2430.13140	0.17835
2428.20272	0.17854
2426.27405	0.17873
2424.34537	0.17896
2422.41670	0.17922
2420.48802	0.17947
2418.55934	0.17970
2416.63067	0.17989
2414.70199	0.18003
2412.77332	0.18017
2410.84464	0.18034
2408.91597	0.18053
2406.98729	0.18072
2405.05861	0.18097
2403.12994	0.18123
2401.20126	0.18147
2399.27259	0.18168
2397.34391	0.18190
2395.41524	0.18210
2393.48656	0.18227
2391.55788	0.18245
2389.62921	0.18266
2387.70053	0.18288
2385.77186	0.18307
2383.84318	0.18320
2381.91451	0.18332
2379.98583	0.18342
2378.05715	0.18349
2376.12848	0.18353
2374.19980	0.18358
2372.27113	0.18362
2370.34245	0.18367
2368.41378	0.18369
2366.48510	0.18369
2364.55642	0.18374
2362.62775	0.18391
2360.69907	0.18417
2358.77040	0.18446
2356.84172	0.18477
2354.91305	0.18512
2352.98437	0.18554
2351.05569	0.18597
2349.12702	0.18625
2347.19834	0.18635
2345.26967	0.18638
2343.34099	0.18645
2341.41232	0.18660
2339.48364	0.18682
2337.55496	0.18702
2335.62629	0.18718
2333.69761	0.18737
2331.76894	0.18761
2329.84026	0.18790
2327.91159	0.18819
2325.98291	0.18844
2324.05423	0.18866
2322.12556	0.18889
2320.19688	0.18914
2318.26821	0.18943
2316.33953	0.18974
2314.41086	0.19008
2312.48218	0.19041
2310.55350	0.19070
2308.62483	0.19097
2306.69615	0.19123
2304.76748	0.19147
2302.83880	0.19171
2300.91013	0.19196
2298.98145	0.19220
2297.05277	0.19241
2295.12410	0.19260
2293.19542	0.19281
2291.26675	0.19305
2289.33807	0.19331
2287.40940	0.19353
2285.48072	0.19375
2283.55204	0.19399
2281.62337	0.19419
2279.69469	0.19431
2277.76602	0.19444
2275.83734	0.19462
2273.90867	0.19483
2271.97999	0.19504
2270.05131	0.19525
2268.12264	0.19547
2266.19396	0.19569
2264.26529	0.19586
2262.33661	0.19601
2260.40794	0.19621
2258.47926	0.19646
2256.55058	0.19668
2254.62191	0.19688
2252.69323	0.19710
2250.76456	0.19730
2248.83588	0.19746
2246.90721	0.19764
2244.97853	0.19784
2243.04985	0.19803
2241.12118	0.19824
2239.19250	0.19846
2237.26383	0.19864
2235.33515	0.19884
2233.40648	0.19904
2231.47780	0.19923
2229.54912	0.19943
2227.62045	0.19962
2225.69177	0.19981
2223.76310	0.20002
2221.83442	0.20027
2219.90575	0.20048
2217.97707	0.20065
2216.04839	0.20079
2214.11972	0.20095
2212.19104	0.20120
2210.26237	0.20151
2208.33369	0.20178
2206.40502	0.20199
2204.47634	0.20214
2202.54766	0.20226
2200.61899	0.20240
2198.69031	0.20259
2196.76164	0.20283
2194.83296	0.20307
2192.90429	0.20331
2190.97561	0.20359
2189.04693	0.20384
2187.11826	0.20400
2185.18958	0.20413
2183.26091	0.20431
2181.33223	0.20455
2179.40356	0.20480
2177.47488	0.20499
2175.54620	0.20517
2173.61753	0.20540
2171.68885	0.20564
2169.76018	0.20583
2167.83150	0.20597
2165.90283	0.20611
2163.97415	0.20633
2162.04547	0.20657
2160.11680	0.20679
2158.18812	0.20706
2156.25945	0.20732
2154.33077	0.20752
2152.40210	0.20769
2150.47342	0.20789
2148.54474	0.20809
2146.61607	0.20828
2144.68739	0.20850
2142.75872	0.20877
2140.83004	0.20908
2138.90137	0.20935
2136.97269	0.20956
2135.04401	0.20976
2133.11534	0.20999
2131.18666	0.21023
2129.25799	0.21045
2127.32931	0.21062
2125.40064	0.21072
2123.47196	0.21086
2121.54328	0.21110
2119.61461	0.21137
2117.68593	0.21162
2115.75726	0.21187
2113.82858	0.21210
2111.89991	0.21229
2109.97123	0.21244
2108.04255	0.21262
2106.11388	0.21286
2104.18520	0.21307
2102.25653	0.21323
2100.32785	0.21341
2098.39918	0.21364
2096.47050	0.21388
2094.54182	0.21414
2092.61315	0.21438
2090.68447	0.21455
2088.75580	0.21471
2086.82712	0.21492
2084.89845	0.21517
2082.96977	0.21544
2081.04109	0.21566
2079.11242	0.21580
2077.18374	0.21593
2075.25507	0.21614
2073.32639	0.21641
2071.39772	0.21667
2069.46904	0.21689
2067.54036	0.21708
2065.61169	0.21727
2063.68301	0.21746
2061.75434	0.21765
2059.82566	0.21786
2057.89699	0.21805
2055.96831	0.21822
2054.03963	0.21840
2052.11096	0.21861
2050.18228	0.21884
2048.25361	0.21906
2046.32493	0.21924
2044.39626	0.21941
2042.46758	0.21958
2040.53890	0.21977
2038.61023	0.21998
2036.68155	0.22018
2034.75288	0.22037
2032.82420	0.22057
2030.89553	0.22078
2028.96685	0.22102
2027.03817	0.22127
2025.10950	0.22151
2023.18082	0.22171
2021.25215	0.22189
2019.32347	0.22209
2017.39480	0.22234
2015.46612	0.22260
2013.53744	0.22286
2011.60877	0.22312
2009.68009	0.22334
2007.75142	0.22354
2005.82274	0.22373
2003.89407	0.22393
2001.96539	0.22410
2000.03671	0.22430
1998.10804	0.22453
1996.17936	0.22478
1994.25069	0.22499
1992.32201	0.22518
1990.39334	0.22539
1988.46466	0.22559
1986.53598	0.22579
1984.60731	0.22602
1982.67863	0.22629
1980.74996	0.22655
1978.82128	0.22676
1976.89261	0.22689
1974.96393	0.22701
1973.03525	0.22717
1971.10658	0.22733
1969.17790	0.22748
1967.24923	0.22766
1965.32055	0.22788
1963.39188	0.22808
1961.46320	0.22825
1959.53452	0.22845
1957.60585	0.22865
1955.67717	0.22883
1953.74850	0.22907
1951.81982	0.22936
1949.89115	0.22967
1947.96247	0.22994
1946.03379	0.23006
1944.10512	0.23011
1942.17644	0.23026
1940.24777	0.23053
1938.31909	0.23080
1936.39042	0.23109
1934.46174	0.23143
1932.53306	0.23167
1930.60439	0.23176
1928.67571	0.23185
1926.74704	0.23200
1924.81836	0.23215
1922.88969	0.23232
1920.96101	0.23252
1919.03233	0.23264
1917.10366	0.23284
1915.17498	0.23318
1913.24631	0.23348
1911.31763	0.23366
1909.38896	0.23385
1907.46028	0.23409
1905.53160	0.23432
1903.60293	0.23456
1901.67425	0.23481
1899.74558	0.23499
1897.81690	0.23512
1895.88823	0.23528
1893.95955	0.23548
1892.03087	0.23566
1890.10220	0.23579
1888.17352	0.23598
1886.24485	0.23624
1884.31617	0.23643
1882.38750	0.23660
1880.45882	0.23681
1878.53014	0.23700
1876.60147	0.23713
1874.67279	0.23727
1872.74412	0.23742
1870.81544	0.23747
1868.88677	0.23757
1866.95809	0.23793
1865.02941	0.23838
1863.10074	0.23872
1861.17206	0.23896
1859.24339	0.23919
1857.31471	0.23946
1855.38604	0.23972
1853.45736	0.23988
1851.52868	0.23999
1849.60001	0.24010
1847.67133	0.24012
1845.74266	0.24000
1843.81398	0.24012
1841.88531	0.24065
1839.95663	0.24118
1838.02795	0.24149
1836.09928	0.24173
1834.17060	0.24191
1832.24193	0.24191
1830.31325	0.24188
1828.38458	0.24202
1826.45590	0.24224
1824.52722	0.24252
1822.59855	0.24291
1820.66987	0.24326
1818.74120	0.24350
1816.81252	0.24374
1814.88385	0.24392
1812.95517	0.24399
1811.02649	0.24409
1809.09782	0.24430
1807.16914	0.24450
1805.24047	0.24461
1803.31179	0.24465
1801.38312	0.24471
1799.45444	0.24492
1797.52576	0.24520
1795.59709	0.24531
1793.66841	0.24521
1791.73974	0.24529
1789.81106	0.24569
1787.88239	0.24609
1785.95371	0.24623
1784.02503	0.24629
1782.09636	0.24642
1780.16768	0.24661
1778.23901	0.24681
1776.31033	0.24689
1774.38166	0.24676
1772.45298	0.24660
1770.52430	0.24670
1768.59563	0.24705
1766.66695	0.24747
1764.73828	0.24769
1762.80960	0.24765
1760.88093	0.24773
1758.95225	0.24796
1757.02357	0.24812
1755.09490	0.24819
1753.16622	0.24797
1751.23755	0.24763
1749.30887	0.24760
1747.38020	0.24779
1745.45152	0.24791
1743.52284	0.24784
1741.59417	0.24765
1739.66549	0.24754
1737.73682	0.24738
1735.80814	0.24690
1733.87947	0.24671
1731.95079	0.24737
1730.02211	0.24826
1728.09344	0.24887
1726.16476	0.24923
1724.23609	0.24943
1722.30741	0.24952
1720.37874	0.24933
1718.45006	0.24901
1716.52138	0.24912
1714.59271	0.24975
1712.66403	0.25039
1710.73536	0.25067
1708.80668	0.25058
1706.87801	0.25036
1704.94933	0.25024
1703.02065	0.24993
1701.09198	0.24949
1699.16330	0.24957
1697.23463	0.25001
1695.30595	0.25042
1693.37728	0.25094
1691.44860	0.25126
1689.51992	0.25121
1687.59125	0.25093
1685.66257	0.25043
1683.73390	0.25030
1681.80522	0.25074
1679.87655	0.25117
1677.94787	0.25119
1676.01919	0.25101
1674.09052	0.25103
1672.16184	0.25104
1670.23317	0.25093
1668.30449	0.25113
1666.37582	0.25157
1664.44714	0.25175
1662.51846	0.25182
1660.58979	0.25204
1658.66111	0.25213
1656.73244	0.25163
1654.80376	0.25068
1652.87509	0.25039
1650.94641	0.25104
1649.01773	0.25142
1647.08906	0.25142
1645.16038	0.25187
1643.23171	0.25254
1641.30303	0.25282
1639.37436	0.25265
1637.44568	0.25219
1635.51700	0.25204
1633.58833	0.25256
1631.65965	0.25315
1629.73098	0.25324
1627.80230	0.25306
1625.87363	0.25278
1623.94495	0.25231
1622.01627	0.25189
1620.08760	0.25176
1618.15892	0.25200
1616.23025	0.25276
1614.30157	0.25383
1612.37290	0.25467
1610.44422	0.25512
1608.51554	0.25538
1606.58687	0.25568
1604.65819	0.25605
1602.72952	0.25641
1600.80084	0.25671
1598.87217	0.25693
1596.94349	0.25710
1595.01481	0.25732
1593.08614	0.25758
1591.15746	0.25775
1589.22879	0.25788
1587.30011	0.25808
1585.37144	0.25830
1583.44276	0.25850
1581.51408	0.25868
1579.58541	0.25872
1577.65673	0.25863
1575.72806	0.25883
1573.79938	0.25930
1571.87071	0.25945
1569.94203	0.25937
1568.01335	0.25961
1566.08468	0.26004
1564.15600	0.26023
1562.22733	0.25989
1560.29865	0.25914
1558.36998	0.25892
1556.44130	0.25960
1554.51262	0.26048
1552.58395	0.26103
1550.65527	0.26134
1548.72660	0.26160
1546.79792	0.26164
1544.86925	0.26127
1542.94057	0.26073
1541.01189	0.26047
1539.08322	0.26088
1537.15454	0.26170
1535.22587	0.26213
1533.29719	0.26228
1531.36852	0.26260
1529.43984	0.26277
1527.51116	0.26266
1525.58249	0.26256
1523.65381	0.26234
1521.72514	0.26208
1519.79646	0.26221
1517.86779	0.26259
1515.93911	0.26296
1514.01043	0.26329
1512.08176	0.26341
1510.15308	0.26318
1508.22441	0.26282
1506.29573	0.26300
1504.36706	0.26387
1502.43838	0.26452
1500.50970	0.26454
1498.58103	0.26438
1496.65235	0.26449
1494.72368	0.26481
1492.79500	0.26485
1490.86633	0.26464
1488.93765	0.26467
1487.00897	0.26507
1485.08030	0.26549
1483.15162	0.26566
1481.22295	0.26563
1479.29427	0.26547
1477.36560	0.26503
1475.43692	0.26437
1473.50824	0.26381
1471.57957	0.26372
1469.65089	0.26399
1467.72222	0.26404
1465.79354	0.26380
1463.86487	0.26370
1461.93619	0.26373
1460.00751	0.26343
1458.07884	0.26291
1456.15016	0.26307
1454.22149	0.26397
1452.29281	0.26473
1450.36414	0.26495
1448.43546	0.26494
1446.50678	0.26512
1444.57811	0.26544
1442.64943	0.26566
1440.72076	0.26564
1438.79208	0.26529
1436.86341	0.26498
1434.93473	0.26518
1433.00605	0.26553
1431.07738	0.26568
1429.14870	0.26579
1427.22003	0.26589
1425.29135	0.26583
1423.36268	0.26560
1421.43400	0.26515
1419.50532	0.26471
1417.57665	0.26480
1415.64797	0.26524
1413.71930	0.26545
1411.79062	0.26545
1409.86195	0.26548
1407.93327	0.26550
1406.00459	0.26545
1404.07592	0.26546
1402.14724	0.26548
1400.21857	0.26537
1398.28989	0.26517
1396.36122	0.26494
1394.43254	0.26485
1392.50386	0.26495
1390.57519	0.26488
1388.64651	0.26445
1386.71784	0.26406
1384.78916	0.26398
1382.86049	0.26406
1380.93181	0.26415
1379.00313	0.26418
1377.07446	0.26411
1375.14578	0.26398
1373.21711	0.26394
1371.28843	0.26402
1369.35976	0.26409
1367.43108	0.26408
1365.50240	0.26391
1363.57373	0.26367
1361.64505	0.26365
1359.71638	0.26380
1357.78770	0.26392
1355.85903	0.26399
1353.93035	0.26403
1352.00167	0.26410
1350.07300	0.26420
1348.14432	0.26429
1346.21565	0.26439
1344.28697	0.26447
1342.35830	0.26441
1340.42962	0.26429
1338.50094	0.26431
1336.57227	0.26449
1334.64359	0.26464
1332.71492	0.26462
1330.78624	0.26450
1328.85757	0.26437
1326.92889	0.26425
1325.00021	0.26415
1323.07154	0.26407
1321.14286	0.26390
1319.21419	0.26368
1317.28551	0.26358
1315.35684	0.26361
1313.42816	0.26361
1311.49948	0.26351
1309.57081	0.26323
1307.64213	0.26287
1305.71346	0.26259
1303.78478	0.26240
1301.85611	0.26216
1299.92743	0.26187
1297.99875	0.26156
1296.07008	0.26127
1294.14140	0.26099
1292.21273	0.26073
1290.28405	0.26047
1288.35538	0.26021
1286.42670	0.25991
1284.49802	0.25955
1282.56935	0.25913
1280.64067	0.25863
1278.71200	0.25808
1276.78332	0.25751
1274.85465	0.25693
1272.92597	0.25622
1270.99729	0.25523
1269.06862	0.25400
1267.13994	0.25268
1265.21127	0.25147
1263.28259	0.25054
1261.35392	0.25006
1259.42524	0.25001
1257.49656	0.25022
1255.56789	0.25042
1253.63921	0.25043
1251.71054	0.25022
1249.78186	0.24985
1247.85319	0.24941
1245.92451	0.24887
1243.99583	0.24822
1242.06716	0.24758
1240.13848	0.24696
1238.20981	0.24635
1236.28113	0.24568
1234.35246	0.24486
1232.42378	0.24402
1230.49510	0.24330
1228.56643	0.24264
1226.63775	0.24191
1224.70908	0.24114
1222.78040	0.24038
1220.85173	0.23967
1218.92305	0.23905
1216.99437	0.23845
1215.06570	0.23781
1213.13702	0.23722
1211.20835	0.23666
1209.27967	0.23605
1207.35100	0.23542
1205.42232	0.23474
1203.49364	0.23405
1201.56497	0.23335
1199.63629	0.23265
1197.70762	0.23207
1195.77894	0.23160
1193.85027	0.23101
1191.92159	0.23022
1189.99291	0.22939
1188.06424	0.22860
1186.13556	0.22778
1184.20689	0.22685
1182.27821	0.22582
1180.34954	0.22480
1178.42086	0.22382
1176.49218	0.22285
1174.56351	0.22184
1172.63483	0.22084
1170.70616	0.21991
1168.77748	0.21893
1166.84881	0.21784
1164.92013	0.21676
1162.99145	0.21584
1161.06278	0.21495
1159.13410	0.21395
1157.20543	0.21292
1155.27675	0.21205
1153.34808	0.21134
1151.41940	0.21061
1149.49072	0.20982
1147.56205	0.20897
1145.63337	0.20811
1143.70470	0.20729
1141.77602	0.20645
1139.84735	0.20557
1137.91867	0.20473
1135.98999	0.20390
1134.06132	0.20297
1132.13264	0.20202
1130.20397	0.20113
1128.27529	0.20022
1126.34662	0.19923
1124.41794	0.19815
1122.48926	0.19702
1120.56059	0.19592
1118.63191	0.19490
1116.70324	0.19389
1114.77456	0.19284
1112.84589	0.19174
1110.91721	0.19064
1108.98853	0.18958
1107.05986	0.18851
1105.13118	0.18744
1103.20251	0.18648
1101.27383	0.18559
1099.34516	0.18470
1097.41648	0.18382
1095.48780	0.18296
1093.55913	0.18214
1091.63045	0.18136
1089.70178	0.18063
1087.77310	0.17992
1085.84443	0.17919
1083.91575	0.17841
1081.98707	0.17767
1080.05840	0.17701
1078.12972	0.17640
1076.20105	0.17588
1074.27237	0.17544
1072.34370	0.17501
1070.41502	0.17468
1068.48634	0.17454
1066.55767	0.17446
1064.62899	0.17442
1062.70032	0.17448
1060.77164	0.17466
1058.84297	0.17489
1056.91429	0.17512
1054.98561	0.17536
1053.05694	0.17566
1051.12826	0.17601
1049.19959	0.17643
1047.27091	0.17690
1045.34224	0.17738
1043.41356	0.17788
1041.48488	0.17838
1039.55621	0.17885
1037.62753	0.17934
1035.69886	0.17988
1033.77018	0.18048
1031.84151	0.18106
1029.91283	0.18160
1027.98415	0.18214
1026.05548	0.18267
1024.12680	0.18320
1022.19813	0.18388
1020.26945	0.18468
1018.34078	0.18547
1016.41210	0.18620
1014.48342	0.18700
1012.55475	0.18801
1010.62607	0.18909
1008.69740	0.19007
1006.76872	0.19101
1004.84005	0.19200
1002.91137	0.19294
1000.98269	0.19367
999.05402	0.19417
997.12534	0.19464
995.19667	0.19519
993.26799	0.19578
991.33932	0.19628
989.41064	0.19667
987.48196	0.19704
985.55329	0.19744
983.62461	0.19787
981.69594	0.19827
979.76726	0.19856
977.83859	0.19875
975.90991	0.19883
973.98123	0.19879
972.05256	0.19870
970.12388	0.19864
968.19521	0.19860
966.26653	0.19856
964.33786	0.19847
962.40918	0.19823
960.48050	0.19792
958.55183	0.19766
956.62315	0.19748
954.69448	0.19730
952.76580	0.19708
950.83713	0.19680
948.90845	0.19646
946.97977	0.19603
945.05110	0.19557
943.12242	0.19517
941.19375	0.19472
939.26507	0.19412
937.33640	0.19351
935.40772	0.19299
933.47904	0.19249
931.55037	0.19205
929.62169	0.19165
927.69302	0.19118
925.76434	0.19062
923.83567	0.19008
921.90699	0.18960
919.97831	0.18910
918.04964	0.18849
916.12096	0.18779
914.19229	0.18714
912.26361	0.18649
910.33494	0.18580
908.40626	0.18509
906.47758	0.18441
904.54891	0.18381
902.62023	0.18314
900.69156	0.18235
898.76288	0.18157
896.83421	0.18085
894.90553	0.18006
892.97685	0.17925
891.04818	0.17857
889.11950	0.17796
887.19083	0.17722
885.26215	0.17633
883.33348	0.17548
881.40480	0.17481
879.47612	0.17425
877.54745	0.17369
875.61877	0.17304
873.69010	0.17230
871.76142	0.17153
869.83275	0.17082
867.90407	0.17015
865.97539	0.16951
864.04672	0.16891
862.11804	0.16824
860.18937	0.16746
858.26069	0.16672
856.33202	0.16606
854.40334	0.16529
852.47466	0.16446
850.54599	0.16371
848.61731	0.16305
846.68864	0.16237
844.75996	0.16164
842.83129	0.16089
840.90261	0.16017
838.97394	0.15944
837.04526	0.15864
835.11658	0.15790
833.18791	0.15726
831.25923	0.15653
829.33056	0.15565
827.40188	0.15475
825.47321	0.15388
823.54453	0.15308
821.61585	0.15233
819.68718	0.15163
817.75850	0.15095
815.82983	0.15025
813.90115	0.14949
811.97248	0.14870
810.04380	0.14789
808.11512	0.14716
806.18645	0.14650
804.25777	0.14586
802.32910	0.14527
800.40042	0.14469
798.47175	0.14405
796.54307	0.14343
794.61439	0.14307
792.68572	0.14296
790.75704	0.14283
788.82837	0.14257
786.89969	0.14224
784.97102	0.14190
783.04234	0.14151
781.11366	0.14102
779.18499	0.14057
777.25631	0.14025
775.32764	0.14000
773.39896	0.13978
771.47029	0.13957
769.54161	0.13924
767.61293	0.13872
765.68426	0.13819
763.75558	0.13774
761.82691	0.13725
759.89823	0.13668
757.96956	0.13615
756.04088	0.13573
754.11220	0.13523
752.18353	0.13460
750.25485	0.13396
748.32618	0.13339
746.39750	0.13290
744.46883	0.13246
742.54015	0.13198
740.61147	0.13140
738.68280	0.13086
736.75412	0.13043
734.82545	0.12996
732.89677	0.12943
730.96810	0.12891
729.03942	0.12854
727.11074	0.12829
725.18207	0.12796
723.25339	0.12746
721.32472	0.12688
719.39604	0.12630
717.46737	0.12577
715.53869	0.12526
713.61001	0.12480
711.68134	0.12443
709.75266	0.12402
707.82399	0.12345
705.89531	0.12274
703.96664	0.12203
702.03796	0.12144
700.10928	0.12100
698.18061	0.12056
696.25193	0.11998
694.32326	0.11930
692.39458	0.11866
690.46591	0.11801
688.53723	0.11730
686.60855	0.11657
684.67988	0.11589
682.75120	0.11518
680.82253	0.11435
678.89385	0.11344
676.96518	0.11250
675.03650	0.11140
673.10782	0.11010
671.17915	0.10867
669.25047	0.10727
667.32180	0.10612
665.39312	0.10513
663.46445	0.10399
661.53577	0.10273
659.60709	0.10151
657.67842	0.10023
655.74974	0.09876
653.82107	0.09717
651.89239	0.09562
649.96372	0.09410
648.03504	0.09252
646.10636	0.09077
644.17769	0.08888
642.24901	0.08689
640.32034	0.08478
638.39166	0.08260
636.46299	0.08038
634.53431	0.07795
632.60563	0.07527
630.67696	0.07245
628.74828	0.06956
626.81961	0.06661
624.89093	0.06359
622.96226	0.06048
621.03358	0.05727
619.10490	0.05393
617.17623	0.05056
615.24755	0.04720
613.31888	0.04388
611.39020	0.04070
609.46153	0.03765
607.53285	0.03463
605.60417	0.03169
603.67550	0.02885
601.74682	0.02615
599.81815	0.02366
597.88947	0.02140
595.96080	0.01941
594.03212	0.01760
592.10344	0.01579
590.17477	0.01405
588.24609	0.01254
586.31742	0.01128
584.38874	0.01012
582.46007	0.00894
580.53139	0.00778
578.60271	0.00672
576.67404	0.00594
574.74536	0.00539
572.81669	0.00485
570.88801	0.00436
568.95934	0.00395
567.03066	0.00356
565.10198	0.00320
563.17331	0.00287
561.24463	0.00263
559.31596	0.00255
557.38728	0.00264
555.45861	0.00270
553.52993	0.00258
551.60125	0.00243
549.67258	0.00249
547.74390	0.00268
545.81523	0.00284
543.88655	0.00289
541.95788	0.00287
540.02920	0.00291
538.10052	0.00305
536.17185	0.00326
534.24317	0.00356
532.31450	0.00379
530.38582	0.00391
528.45715	0.00396
526.52847	0.00394
524.59979	0.00378
522.67112	0.00353
520.74244	0.00327
518.81377	0.00309
516.88509	0.00298
514.95642	0.00286
513.02774	0.00271
511.09906	0.00262
509.17039	0.00257
507.24171	0.00245
505.31304	0.00231
503.38436	0.00217
501.45569	0.00200
499.52701	0.00192
497.59833	0.00193
495.66966	0.00183
493.74098	0.00153
491.81231	0.00119
489.88363	0.00106
487.95496	0.00120
486.02628	0.00141
484.09760	0.00147
482.16893	0.00143
480.24025	0.00139
478.31158	0.00138
476.38290	0.00138
474.45423	0.00140
472.52555	0.00146
470.59687	0.00146
468.66820	0.00145
466.73952	0.00140
464.81085	0.00116
462.88217	0.00089
460.95350	0.00087
459.02482	0.00103
457.09614	0.00113
455.16747	0.00128
453.23879	0.00151
451.31012	0.00148
449.38144	0.00120
447.45277	0.00110
445.52409	0.00133
443.59541	0.00159
441.66674	0.00169
439.73806	0.00181
437.80939	0.00203
435.88071	0.00210
433.95204	0.00200
432.02336	0.00201
430.09468	0.00207
428.16601	0.00194
426.23733	0.00176
424.30866	0.00172
422.37998	0.00175
420.45131	0.00169
418.52263	0.00150
416.59395	0.00131
414.66528	0.00121
412.73660	0.00116
410.80793	0.00108
408.87925	0.00096
406.95058	0.00087
405.02190	0.00082
403.09322	0.00078
401.16455	0.00072
399.23587	0.00056
397.30720	0.00037
395.37852	0.00030
393.44985	0.00033
391.52117	0.00032
389.59249	0.00023
387.66382	0.00023
385.73514	0.00039
383.80647	0.00057
381.87779	0.00058
379.94912	0.00032
378.02044	-0.00006
376.09176	-0.00028
374.16309	-0.00012
372.23441	0.00019
370.30574	0.00040
368.37706	0.00043
