7496.76250	0.00153
7494.83382	0.00153
7492.90514	0.00154
7490.97647	0.00156
7489.04779	0.00157
7487.11912	0.00157
7485.19044	0.00157
7483.26177	0.00157
7481.33309	0.00158
7479.40441	0.00160
7477.47574	0.00161
7475.54706	0.00159
7473.61839	0.00157
7471.68971	0.00157
7469.76104	0.00158
7467.83236	0.00160
7465.90368	0.00162
7463.97501	0.00163
7462.04633	0.00164
7460.11766	0.00164
7458.18898	0.00163
7456.26031	0.00162
7454.33163	0.00163
7452.40295	0.00165
7450.47428	0.00165
7448.54560	0.00163
7446.61693	0.00161
7444.68825	0.00162
7442.75958	0.00164
7440.83090	0.00166
7438.90222	0.00168
7436.97355	0.00168
7435.04487	0.00167
7433.11620	0.00166
7431.18752	0.00167
7429.25885	0.00169
7427.33017	0.00170
7425.40149	0.00170
7423.47282	0.00170
7421.54414	0.00170
7419.61547	0.00171
7417.68679	0.00171
7415.75812	0.00170
7413.82944	0.00169
7411.90076	0.00171
7409.97209	0.00175
7408.04341	0.00176
7406.11474	0.00175
7404.18606	0.00172
7402.25739	0.00171
7400.32871	0.00173
7398.40003	0.00176
7396.47136	0.00178
7394.54268	0.00178
7392.61401	0.00177
7390.68533	0.00176
7388.75666	0.00177
7386.82798	0.00180
7384.89930	0.00181
7382.97063	0.00180
7381.04195	0.00178
7379.11328	0.00178
7377.18460	0.00180
7375.25593	0.00182
7373.32725	0.00183
7371.39857	0.00183
7369.46990	0.00183
7367.54122	0.00183
7365.61255	0.00183
7363.68387	0.00183
7361.75520	0.00182
7359.82652	0.00184
7357.89784	0.00187
7355.96917	0.00190
7354.04049	0.00191
7352.11182	0.00190
7350.18314	0.00187
7348.25447	0.00185
7346.32579	0.00187
7344.39711	0.00191
7342.46844	0.00193
7340.53976	0.00192
7338.61109	0.00191
7336.68241	0.00192
7334.75374	0.00191
7332.82506	0.00191
7330.89638	0.00191
7328.96771	0.00192
7327.03903	0.00192
7325.11036	0.00193
7323.18168	0.00195
7321.25301	0.00196
7319.32433	0.00197
7317.39565	0.00197
7315.46698	0.00196
7313.53830	0.00195
7311.60963	0.00195
7309.68095	0.00196
7307.75228	0.00197
7305.82360	0.00198
7303.89492	0.00198
7301.96625	0.00198
7300.03757	0.00199
7298.10890	0.00200
7296.18022	0.00198
7294.25155	0.00196
7292.32287	0.00198
7290.39419	0.00200
7288.46552	0.00202
7286.53684	0.00202
7284.60817	0.00203
7282.67949	0.00203
7280.75082	0.00204
7278.82214	0.00205
7276.89346	0.00205
7274.96479	0.00206
7273.03611	0.00206
7271.10744	0.00207
7269.17876	0.00209
7267.25009	0.00211
7265.32141	0.00210
7263.39273	0.00208
7261.46406	0.00208
7259.53538	0.00207
7257.60671	0.00208
7255.67803	0.00209
7253.74936	0.00209
7251.82068	0.00209
7249.89200	0.00209
7247.96333	0.00210
7246.03465	0.00210
7244.10598	0.00209
7242.17730	0.00208
7240.24863	0.00209
7238.31995	0.00211
7236.39127	0.00215
7234.46260	0.00217
7232.53392	0.00217
7230.60525	0.00216
7228.67657	0.00216
7226.74790	0.00218
7224.81922	0.00219
7222.89054	0.00220
7220.96187	0.00218
7219.03319	0.00218
7217.10452	0.00220
7215.17584	0.00222
7213.24717	0.00222
7211.31849	0.00221
7209.38981	0.00221
7207.46114	0.00222
7205.53246	0.00223
7203.60379	0.00222
7201.67511	0.00222
7199.74644	0.00223
7197.81776	0.00223
7195.88908	0.00223
7193.96041	0.00224
7192.03173	0.00227
7190.10306	0.00229
7188.17438	0.00230
7186.24571	0.00231
7184.31703	0.00233
7182.38835	0.00232
7180.45968	0.00230
7178.53100	0.00230
7176.60233	0.00231
7174.67365	0.00231
7172.74498	0.00231
7170.81630	0.00231
7168.88762	0.00231
7166.95895	0.00232
7165.03027	0.00234
7163.10160	0.00235
7161.17292	0.00235
7159.24425	0.00236
7157.31557	0.00238
7155.38689	0.00237
7153.45822	0.00235
7151.52954	0.00235
7149.60087	0.00236
7147.67219	0.00237
7145.74352	0.00238
7143.81484	0.00239
7141.88616	0.00241
7139.95749	0.00242
7138.02881	0.00243
7136.10014	0.00242
7134.17146	0.00241
7132.24279	0.00240
7130.31411	0.00240
7128.38543	0.00240
7126.45676	0.00242
7124.52808	0.00244
7122.59941	0.00244
7120.67073	0.00245
7118.74206	0.00245
7116.81338	0.00245
7114.88470	0.00244
7112.95603	0.00246
7111.02735	0.00250
7109.09868	0.00252
7107.17000	0.00251
7105.24133	0.00249
7103.31265	0.00249
7101.38397	0.00250
7099.45530	0.00252
7097.52662	0.00252
7095.59795	0.00253
7093.66927	0.00256
7091.74060	0.00257
7089.81192	0.00256
7087.88324	0.00255
7085.95457	0.00256
7084.02589	0.00257
7082.09722	0.00257
7080.16854	0.00257
7078.23987	0.00259
7076.31119	0.00261
7074.38251	0.00260
7072.45384	0.00258
7070.52516	0.00257
7068.59649	0.00258
7066.66781	0.00261
7064.73914	0.00263
7062.81046	0.00262
7060.88178	0.00261
7058.95311	0.00260
7057.02443	0.00262
7055.09576	0.00265
7053.16708	0.00266
7051.23841	0.00266
7049.30973	0.00265
7047.38105	0.00265
7045.45238	0.00264
7043.52370	0.00265
7041.59503	0.00266
7039.66635	0.00267
7037.73768	0.00268
7035.80900	0.00268
7033.88032	0.00269
7031.95165	0.00270
7030.02297	0.00273
7028.09430	0.00274
7026.16562	0.00274
7024.23695	0.00272
7022.30827	0.00270
7020.37959	0.00269
7018.45092	0.00269
7016.52224	0.00271
7014.59357	0.00273
7012.66489	0.00274
7010.73622	0.00275
7008.80754	0.00276
7006.87886	0.00276
7004.95019	0.00276
7003.02151	0.00276
7001.09284	0.00277
6999.16416	0.00277
6997.23549	0.00277
6995.30681	0.00278
6993.37813	0.00280
6991.44946	0.00281
6989.52078	0.00283
6987.59211	0.00283
6985.66343	0.00283
6983.73476	0.00285
6981.80608	0.00286
6979.87740	0.00286
6977.94873	0.00287
6976.02005	0.00289
6974.09138	0.00288
6972.16270	0.00287
6970.23403	0.00288
6968.30535	0.00292
6966.37667	0.00295
6964.44800	0.00296
6962.51932	0.00295
6960.59065	0.00295
6958.66197	0.00294
6956.73330	0.00293
6954.80462	0.00294
6952.87594	0.00298
6950.94727	0.00299
6949.01859	0.00299
6947.08992	0.00299
6945.16124	0.00298
6943.23257	0.00296
6941.30389	0.00297
6939.37521	0.00298
6937.44654	0.00299
6935.51786	0.00301
6933.58919	0.00303
6931.66051	0.00304
6929.73184	0.00304
6927.80316	0.00303
6925.87448	0.00303
6923.94581	0.00306
6922.01713	0.00308
6920.08846	0.00308
6918.15978	0.00308
6916.23111	0.00308
6914.30243	0.00308
6912.37375	0.00309
6910.44508	0.00310
6908.51640	0.00310
6906.58773	0.00310
6904.65905	0.00310
6902.73038	0.00311
6900.80170	0.00312
6898.87302	0.00315
6896.94435	0.00317
6895.01567	0.00318
6893.08700	0.00318
6891.15832	0.00317
6889.22965	0.00317
6887.30097	0.00317
6885.37229	0.00319
6883.44362	0.00321
6881.51494	0.00320
6879.58627	0.00318
6877.65759	0.00319
6875.72892	0.00324
6873.80024	0.00326
6871.87156	0.00325
6869.94289	0.00323
6868.01421	0.00322
6866.08554	0.00324
6864.15686	0.00325
6862.22819	0.00327
6860.29951	0.00328
6858.37083	0.00329
6856.44216	0.00329
6854.51348	0.00327
6852.58481	0.00327
6850.65613	0.00329
6848.72746	0.00330
6846.79878	0.00331
6844.87010	0.00332
6842.94143	0.00334
6841.01275	0.00335
6839.08408	0.00336
6837.15540	0.00336
6835.22673	0.00336
6833.29805	0.00335
6831.36937	0.00335
6829.44070	0.00336
6827.51202	0.00338
6825.58335	0.00340
6823.65467	0.00341
6821.72600	0.00339
6819.79732	0.00339
6817.86864	0.00341
6815.93997	0.00343
6814.01129	0.00345
6812.08262	0.00344
6810.15394	0.00344
6808.22527	0.00344
6806.29659	0.00343
6804.36791	0.00344
6802.43924	0.00346
6800.51056	0.00348
6798.58189	0.00349
6796.65321	0.00351
6794.72454	0.00353
6792.79586	0.00353
6790.86718	0.00352
6788.93851	0.00352
6787.00983	0.00353
6785.08116	0.00354
6783.15248	0.00353
6781.22381	0.00354
6779.29513	0.00355
6777.36645	0.00356
6775.43778	0.00358
6773.50910	0.00359
6771.58043	0.00360
6769.65175	0.00360
6767.72308	0.00360
6765.79440	0.00360
6763.86572	0.00361
6761.93705	0.00365
6760.00837	0.00369
6758.07970	0.00370
6756.15102	0.00369
6754.22235	0.00368
6752.29367	0.00365
6750.36499	0.00363
6748.43632	0.00365
6746.50764	0.00367
6744.57897	0.00368
6742.65029	0.00366
6740.72162	0.00366
6738.79294	0.00368
6736.86426	0.00373
6734.93559	0.00378
6733.00691	0.00380
6731.07824	0.00378
6729.14956	0.00376
6727.22089	0.00375
6725.29221	0.00376
6723.36353	0.00379
6721.43486	0.00384
6719.50618	0.00386
6717.57751	0.00384
6715.64883	0.00381
6713.72016	0.00380
6711.79148	0.00380
6709.86280	0.00381
6707.93413	0.00385
6706.00545	0.00387
6704.07678	0.00384
6702.14810	0.00383
6700.21943	0.00384
6698.29075	0.00386
6696.36207	0.00388
6694.43340	0.00389
6692.50472	0.00389
6690.57605	0.00390
6688.64737	0.00393
6686.71870	0.00396
6684.79002	0.00399
6682.86134	0.00399
6680.93267	0.00397
6679.00399	0.00395
6677.07532	0.00396
6675.14664	0.00398
6673.21797	0.00399
6671.28929	0.00400
6669.36061	0.00398
6667.43194	0.00398
6665.50326	0.00400
6663.57459	0.00402
6661.64591	0.00403
6659.71724	0.00405
6657.78856	0.00408
6655.85988	0.00409
6653.93121	0.00409
6652.00253	0.00411
6650.07386	0.00411
6648.14518	0.00409
6646.21651	0.00408
6644.28783	0.00410
6642.35915	0.00413
6640.43048	0.00413
6638.50180	0.00413
6636.57313	0.00413
6634.64445	0.00415
6632.71578	0.00416
6630.78710	0.00415
6628.85842	0.00416
6626.92975	0.00419
6625.00107	0.00422
6623.07240	0.00423
6621.14372	0.00423
6619.21505	0.00424
6617.28637	0.00426
6615.35769	0.00425
6613.42902	0.00423
6611.50034	0.00424
6609.57167	0.00426
6607.64299	0.00428
6605.71432	0.00429
6603.78564	0.00429
6601.85696	0.00429
6599.92829	0.00431
6597.99961	0.00432
6596.07094	0.00433
6594.14226	0.00436
6592.21359	0.00440
6590.28491	0.00441
6588.35623	0.00439
6586.42756	0.00438
6584.49888	0.00439
6582.57021	0.00440
6580.64153	0.00443
6578.71286	0.00444
6576.78418	0.00444
6574.85550	0.00444
6572.92683	0.00444
6570.99815	0.00444
6569.06948	0.00445
6567.14080	0.00447
6565.21213	0.00450
6563.28345	0.00451
6561.35477	0.00451
6559.42610	0.00451
6557.49742	0.00453
6555.56875	0.00453
6553.64007	0.00453
6551.71140	0.00453
6549.78272	0.00453
6547.85404	0.00455
6545.92537	0.00458
6543.99669	0.00460
6542.06802	0.00459
6540.13934	0.00458
6538.21067	0.00458
6536.28199	0.00458
6534.35331	0.00461
6532.42464	0.00465
6530.49596	0.00466
6528.56729	0.00465
6526.63861	0.00462
6524.70994	0.00463
6522.78126	0.00467
6520.85258	0.00470
6518.92391	0.00471
6516.99523	0.00471
6515.06656	0.00473
6513.13788	0.00474
6511.20921	0.00474
6509.28053	0.00474
6507.35185	0.00476
6505.42318	0.00478
6503.49450	0.00480
6501.56583	0.00482
6499.63715	0.00484
6497.70848	0.00487
6495.77980	0.00487
6493.85112	0.00485
6491.92245	0.00483
6489.99377	0.00483
6488.06510	0.00483
6486.13642	0.00485
6484.20775	0.00488
6482.27907	0.00491
6480.35039	0.00494
6478.42172	0.00494
6476.49304	0.00495
6474.56437	0.00496
6472.63569	0.00497
6470.70702	0.00497
6468.77834	0.00498
6466.84966	0.00500
6464.92099	0.00501
6462.99231	0.00503
6461.06364	0.00504
6459.13496	0.00503
6457.20629	0.00501
6455.27761	0.00500
6453.34893	0.00500
6451.42026	0.00502
6449.49158	0.00505
6447.56291	0.00509
6445.63423	0.00513
6443.70556	0.00513
6441.77688	0.00513
6439.84820	0.00515
6437.91953	0.00517
6435.99085	0.00518
6434.06218	0.00517
6432.13350	0.00515
6430.20483	0.00516
6428.27615	0.00519
6426.34747	0.00522
6424.41880	0.00522
6422.49012	0.00522
6420.56145	0.00523
6418.63277	0.00524
6416.70410	0.00526
6414.77542	0.00528
6412.84674	0.00530
6410.91807	0.00529
6408.98939	0.00527
6407.06072	0.00528
6405.13204	0.00531
6403.20337	0.00537
6401.27469	0.00540
6399.34601	0.00541
6397.41734	0.00540
6395.48866	0.00538
6393.55999	0.00537
6391.63131	0.00538
6389.70264	0.00541
6387.77396	0.00543
6385.84528	0.00544
6383.91661	0.00545
6381.98793	0.00545
6380.05926	0.00545
6378.13058	0.00548
6376.20191	0.00551
6374.27323	0.00552
6372.34455	0.00549
6370.41588	0.00549
6368.48720	0.00552
6366.55853	0.00555
6364.62985	0.00557
6362.70118	0.00559
6360.77250	0.00559
6358.84382	0.00558
6356.91515	0.00559
6354.98647	0.00562
6353.05780	0.00565
6351.12912	0.00567
6349.20045	0.00567
6347.27177	0.00566
6345.34309	0.00567
6343.41442	0.00568
6341.48574	0.00569
6339.55707	0.00570
6337.62839	0.00569
6335.69972	0.00568
6333.77104	0.00569
6331.84236	0.00574
6329.91369	0.00578
6327.98501	0.00578
6326.05634	0.00578
6324.12766	0.00582
6322.19899	0.00586
6320.27031	0.00588
6318.34163	0.00586
6316.41296	0.00583
6314.48428	0.00582
6312.55561	0.00584
6310.62693	0.00588
6308.69826	0.00591
6306.76958	0.00593
6304.84090	0.00593
6302.91223	0.00592
6300.98355	0.00591
6299.05488	0.00592
6297.12620	0.00593
6295.19753	0.00594
6293.26885	0.00594
6291.34017	0.00594
6289.41150	0.00595
6287.48282	0.00599
6285.55415	0.00602
6283.62547	0.00605
6281.69680	0.00607
6279.76812	0.00610
6277.83944	0.00611
6275.91077	0.00610
6273.98209	0.00610
6272.05342	0.00613
6270.12474	0.00617
6268.19607	0.00618
6266.26739	0.00617
6264.33871	0.00616
6262.41004	0.00617
6260.48136	0.00621
6258.55269	0.00624
6256.62401	0.00624
6254.69534	0.00623
6252.76666	0.00624
6250.83798	0.00628
6248.90931	0.00633
6246.98063	0.00634
6245.05196	0.00633
6243.12328	0.00633
6241.19461	0.00634
6239.26593	0.00634
6237.33725	0.00636
6235.40858	0.00639
6233.47990	0.00641
6231.55123	0.00642
6229.62255	0.00642
6227.69388	0.00644
6225.76520	0.00646
6223.83652	0.00648
6221.90785	0.00649
6219.97917	0.00648
6218.05050	0.00648
6216.12182	0.00651
6214.19315	0.00654
6212.26447	0.00656
6210.33579	0.00659
6208.40712	0.00660
6206.47844	0.00659
6204.54977	0.00658
6202.62109	0.00659
6200.69242	0.00660
6198.76374	0.00661
6196.83506	0.00662
6194.90639	0.00664
6192.97771	0.00668
6191.04904	0.00670
6189.12036	0.00671
6187.19169	0.00673
6185.26301	0.00675
6183.33433	0.00676
6181.40566	0.00676
6179.47698	0.00676
6177.54831	0.00678
6175.61963	0.00681
6173.69096	0.00682
6171.76228	0.00681
6169.83360	0.00682
6167.90493	0.00685
6165.97625	0.00687
6164.04758	0.00689
6162.11890	0.00692
6160.19023	0.00695
6158.26155	0.00697
6156.33287	0.00697
6154.40420	0.00697
6152.47552	0.00698
6150.54685	0.00699
6148.61817	0.00702
6146.68950	0.00705
6144.76082	0.00707
6142.83214	0.00707
6140.90347	0.00709
6138.97479	0.00710
6137.04612	0.00711
6135.11744	0.00713
6133.18877	0.00716
6131.26009	0.00717
6129.33141	0.00717
6127.40274	0.00716
6125.47406	0.00718
6123.54539	0.00723
6121.61671	0.00727
6119.68804	0.00729
6117.75936	0.00729
6115.83068	0.00729
6113.90201	0.00728
6111.97333	0.00726
6110.04466	0.00725
6108.11598	0.00726
6106.18731	0.00730
6104.25863	0.00735
6102.32995	0.00738
6100.40128	0.00740
6098.47260	0.00739
6096.54393	0.00741
6094.61525	0.00744
6092.68658	0.00748
6090.75790	0.00751
6088.82922	0.00752
6086.90055	0.00752
6084.97187	0.00752
6083.04320	0.00752
6081.11452	0.00750
6079.18585	0.00751
6077.25717	0.00757
6075.32849	0.00762
6073.39982	0.00763
6071.47114	0.00761
6069.54247	0.00761
6067.61379	0.00763
6065.68512	0.00764
6063.75644	0.00767
6061.82776	0.00770
6059.89909	0.00772
6057.97041	0.00773
6056.04174	0.00774
6054.11306	0.00776
6052.18439	0.00778
6050.25571	0.00779
6048.32703	0.00780
6046.39836	0.00781
6044.46968	0.00782
6042.54101	0.00783
6040.61233	0.00785
6038.68366	0.00786
6036.75498	0.00788
6034.82630	0.00793
6032.89763	0.00797
6030.96895	0.00798
6029.04028	0.00798
6027.11160	0.00799
6025.18293	0.00799
6023.25425	0.00800
6021.32557	0.00802
6019.39690	0.00805
6017.46822	0.00808
6015.53955	0.00809
6013.61087	0.00810
6011.68220	0.00810
6009.75352	0.00813
6007.82484	0.00817
6005.89617	0.00819
6003.96749	0.00819
6002.03882	0.00818
6000.11014	0.00819
5998.18147	0.00822
5996.25279	0.00825
5994.32411	0.00829
5992.39544	0.00831
5990.46676	0.00831
5988.53809	0.00831
5986.60941	0.00832
5984.68074	0.00835
5982.75206	0.00838
5980.82338	0.00839
5978.89471	0.00840
5976.96603	0.00842
5975.03736	0.00844
5973.10868	0.00846
5971.18001	0.00849
5969.25133	0.00850
5967.32265	0.00849
5965.39398	0.00850
5963.46530	0.00854
5961.53663	0.00857
5959.60795	0.00859
5957.67928	0.00861
5955.75060	0.00862
5953.82192	0.00863
5951.89325	0.00866
5949.96457	0.00870
5948.03590	0.00874
5946.10722	0.00875
5944.17855	0.00874
5942.24987	0.00876
5940.32119	0.00878
5938.39252	0.00879
5936.46384	0.00878
5934.53517	0.00878
5932.60649	0.00881
5930.67782	0.00883
5928.74914	0.00884
5926.82046	0.00886
5924.89179	0.00889
5922.96311	0.00891
5921.03444	0.00893
5919.10576	0.00894
5917.17709	0.00896
5915.24841	0.00899
5913.31973	0.00901
5911.39106	0.00901
5909.46238	0.00903
5907.53371	0.00906
5905.60503	0.00906
5903.67636	0.00906
5901.74768	0.00909
5899.81900	0.00913
5897.89033	0.00915
5895.96165	0.00917
5894.03298	0.00921
5892.10430	0.00925
5890.17563	0.00926
5888.24695	0.00924
5886.31827	0.00923
5884.38960	0.00924
5882.46092	0.00926
5880.53225	0.00929
5878.60357	0.00932
5876.67490	0.00935
5874.74622	0.00936
5872.81755	0.00939
5870.88887	0.00942
5868.96019	0.00944
5867.03152	0.00948
5865.10284	0.00951
5863.17417	0.00951
5861.24549	0.00952
5859.31682	0.00954
5857.38814	0.00956
5855.45946	0.00956
5853.53079	0.00957
5851.60211	0.00958
5849.67344	0.00961
5847.74476	0.00963
5845.81609	0.00966
5843.88741	0.00970
5841.95873	0.00973
5840.03006	0.00975
5838.10138	0.00976
5836.17271	0.00979
5834.24403	0.00982
5832.31536	0.00985
5830.38668	0.00985
5828.45800	0.00983
5826.52933	0.00985
5824.60065	0.00988
5822.67198	0.00992
5820.74330	0.00995
5818.81463	0.00998
5816.88595	0.01000
5814.95727	0.01000
5813.02860	0.01000
5811.09992	0.01001
5809.17125	0.01002
5807.24257	0.01003
5805.31390	0.01005
5803.38522	0.01008
5801.45654	0.01009
5799.52787	0.01012
5797.59919	0.01018
5795.67052	0.01023
5793.74184	0.01025
5791.81317	0.01025
5789.88449	0.01027
5787.95581	0.01029
5786.02714	0.01030
5784.09846	0.01031
5782.16979	0.01032
5780.24111	0.01033
5778.31244	0.01037
5776.38376	0.01042
5774.45508	0.01045
5772.52641	0.01045
5770.59773	0.01046
5768.66906	0.01049
5766.74038	0.01052
5764.81171	0.01055
5762.88303	0.01057
5760.95435	0.01059
5759.02568	0.01061
5757.09700	0.01061
5755.16833	0.01060
5753.23965	0.01061
5751.31098	0.01065
5749.38230	0.01067
5747.45362	0.01070
5745.52495	0.01074
5743.59627	0.01079
5741.66760	0.01083
5739.73892	0.01082
5737.81025	0.01082
5735.88157	0.01085
5733.95289	0.01088
5732.02422	0.01092
5730.09554	0.01096
5728.16687	0.01099
5726.23819	0.01101
5724.30952	0.01102
5722.38084	0.01102
5720.45216	0.01103
5718.52349	0.01104
5716.59481	0.01106
5714.66614	0.01108
5712.73746	0.01108
5710.80879	0.01111
5708.88011	0.01117
5706.95143	0.01122
5705.02276	0.01125
5703.09408	0.01126
5701.16541	0.01126
5699.23673	0.01124
5697.30806	0.01124
5695.37938	0.01127
5693.45070	0.01131
5691.52203	0.01134
5689.59335	0.01136
5687.66468	0.01139
5685.73600	0.01141
5683.80733	0.01142
5681.87865	0.01146
5679.94997	0.01151
5678.02130	0.01152
5676.09262	0.01154
5674.16395	0.01158
5672.23527	0.01161
5670.30660	0.01163
5668.37792	0.01165
5666.44924	0.01168
5664.52057	0.01171
5662.59189	0.01174
5660.66322	0.01174
5658.73454	0.01174
5656.80587	0.01176
5654.87719	0.01180
5652.94851	0.01184
5651.01984	0.01187
5649.09116	0.01190
5647.16249	0.01191
5645.23381	0.01191
5643.30514	0.01192
5641.37646	0.01194
5639.44778	0.01196
5637.51911	0.01199
5635.59043	0.01202
5633.66176	0.01206
5631.73308	0.01209
5629.80441	0.01212
5627.87573	0.01214
5625.94705	0.01216
5624.01838	0.01218
5622.08970	0.01220
5620.16103	0.01220
5618.23235	0.01220
5616.30368	0.01222
5614.37500	0.01226
5612.44632	0.01231
5610.51765	0.01235
5608.58897	0.01235
5606.66030	0.01236
5604.73162	0.01239
5602.80295	0.01243
5600.87427	0.01245
5598.94559	0.01246
5597.01692	0.01249
5595.08824	0.01253
5593.15957	0.01256
5591.23089	0.01257
5589.30222	0.01259
5587.37354	0.01262
5585.44486	0.01264
5583.51619	0.01265
5581.58751	0.01266
5579.65884	0.01268
5577.73016	0.01269
5575.80149	0.01272
5573.87281	0.01277
5571.94413	0.01283
5570.01546	0.01286
5568.08678	0.01288
5566.15811	0.01290
5564.22943	0.01292
5562.30076	0.01296
5560.37208	0.01301
5558.44340	0.01303
5556.51473	0.01302
5554.58605	0.01300
5552.65738	0.01301
5550.72870	0.01303
5548.80003	0.01307
5546.87135	0.01312
5544.94267	0.01315
5543.01400	0.01319
5541.08532	0.01322
5539.15665	0.01323
5537.22797	0.01324
5535.29930	0.01327
5533.37062	0.01331
5531.44194	0.01332
5529.51327	0.01333
5527.58459	0.01337
5525.65592	0.01341
5523.72724	0.01343
5521.79857	0.01344
5519.86989	0.01347
5517.94121	0.01350
5516.01254	0.01353
5514.08386	0.01355
5512.15519	0.01357
5510.22651	0.01361
5508.29784	0.01364
5506.36916	0.01366
5504.44048	0.01369
5502.51181	0.01376
5500.58313	0.01381
5498.65446	0.01383
5496.72578	0.01383
5494.79711	0.01383
5492.86843	0.01385
5490.93975	0.01386
5489.01108	0.01390
5487.08240	0.01396
5485.15373	0.01400
5483.22505	0.01400
5481.29638	0.01401
5479.36770	0.01404
5477.43902	0.01404
5475.51035	0.01404
5473.58167	0.01407
5471.65300	0.01412
5469.72432	0.01416
5467.79565	0.01420
5465.86697	0.01422
5463.93829	0.01424
5462.00962	0.01426
5460.08094	0.01429
5458.15227	0.01431
5456.22359	0.01433
5454.29492	0.01437
5452.36624	0.01441
5450.43756	0.01444
5448.50889	0.01444
5446.58021	0.01447
5444.65154	0.01451
5442.72286	0.01456
5440.79419	0.01459
5438.86551	0.01463
5436.93683	0.01467
5435.00816	0.01470
5433.07948	0.01471
5431.15081	0.01470
5429.22213	0.01472
5427.29346	0.01477
5425.36478	0.01480
5423.43610	0.01481
5421.50743	0.01483
5419.57875	0.01485
5417.65008	0.01486
5415.72140	0.01489
5413.79273	0.01491
5411.86405	0.01495
5409.93537	0.01500
5408.00670	0.01504
5406.07802	0.01505
5404.14935	0.01506
5402.22067	0.01511
5400.29200	0.01517
5398.36332	0.01519
5396.43464	0.01520
5394.50597	0.01522
5392.57729	0.01525
5390.64862	0.01528
5388.71994	0.01529
5386.79127	0.01530
5384.86259	0.01532
5382.93391	0.01535
5381.00524	0.01536
5379.07656	0.01539
5377.14789	0.01545
5375.21921	0.01551
5373.29054	0.01555
5371.36186	0.01558
5369.43318	0.01560
5367.50451	0.01563
5365.57583	0.01565
5363.64716	0.01565
5361.71848	0.01566
5359.78981	0.01571
5357.86113	0.01576
5355.93245	0.01576
5354.00378	0.01577
5352.07510	0.01582
5350.14643	0.01590
5348.21775	0.01594
5346.28908	0.01593
5344.36040	0.01592
5342.43172	0.01595
5340.50305	0.01598
5338.57437	0.01601
5336.64570	0.01603
5334.71702	0.01608
5332.78835	0.01614
5330.85967	0.01619
5328.93099	0.01621
5327.00232	0.01622
5325.07364	0.01625
5323.14497	0.01630
5321.21629	0.01635
5319.28762	0.01638
5317.35894	0.01639
5315.43026	0.01639
5313.50159	0.01642
5311.57291	0.01645
5309.64424	0.01649
5307.71556	0.01653
5305.78689	0.01658
5303.85821	0.01658
5301.92953	0.01656
5300.00086	0.01658
5298.07218	0.01664
5296.14351	0.01670
5294.21483	0.01672
5292.28616	0.01674
5290.35748	0.01676
5288.42880	0.01679
5286.50013	0.01682
5284.57145	0.01685
5282.64278	0.01688
5280.71410	0.01691
5278.78543	0.01696
5276.85675	0.01700
5274.92807	0.01704
5272.99940	0.01709
5271.07072	0.01712
5269.14205	0.01713
5267.21337	0.01712
5265.28470	0.01711
5263.35602	0.01713
5261.42734	0.01718
5259.49867	0.01722
5257.56999	0.01723
5255.64132	0.01726
5253.71264	0.01731
5251.78397	0.01737
5249.85529	0.01741
5247.92661	0.01742
5245.99794	0.01742
5244.06926	0.01745
5242.14059	0.01750
5240.21191	0.01754
5238.28324	0.01757
5236.35456	0.01762
5234.42588	0.01765
5232.49721	0.01765
5230.56853	0.01766
5228.63986	0.01768
5226.71118	0.01769
5224.78251	0.01772
5222.85383	0.01778
5220.92515	0.01785
5218.99648	0.01791
5217.06780	0.01794
5215.13913	0.01795
5213.21045	0.01797
5211.28178	0.01798
5209.35310	0.01798
5207.42442	0.01800
5205.49575	0.01806
5203.56707	0.01812
5201.63840	0.01817
5199.70972	0.01820
5197.78105	0.01824
5195.85237	0.01828
5193.92369	0.01831
5191.99502	0.01834
5190.06634	0.01837
5188.13767	0.01841
5186.20899	0.01843
5184.28032	0.01844
5182.35164	0.01844
5180.42296	0.01847
5178.49429	0.01852
5176.56561	0.01856
5174.63694	0.01860
5172.70826	0.01864
5170.77959	0.01869
5168.85091	0.01871
5166.92223	0.01870
5164.99356	0.01868
5163.06488	0.01870
5161.13621	0.01875
5159.20753	0.01882
5157.27886	0.01890
5155.35018	0.01896
5153.42150	0.01900
5151.49283	0.01902
5149.56415	0.01904
5147.63548	0.01909
5145.70680	0.01912
5143.77813	0.01911
5141.84945	0.01911
5139.92077	0.01914
5137.99210	0.01920
5136.06342	0.01926
5134.13475	0.01931
5132.20607	0.01934
5130.27740	0.01935
5128.34872	0.01937
5126.42004	0.01940
5124.49137	0.01943
5122.56269	0.01945
5120.63402	0.01947
5118.70534	0.01951
5116.77667	0.01955
5114.84799	0.01959
5112.91931	0.01964
5110.99064	0.01970
5109.06196	0.01974
5107.13329	0.01976
5105.20461	0.01976
5103.27594	0.01977
5101.34726	0.01979
5099.41858	0.01981
5097.48991	0.01983
5095.56123	0.01986
5093.63256	0.01993
5091.70388	0.02000
5089.77521	0.02004
5087.84653	0.02006
5085.91785	0.02009
5083.98918	0.02014
5082.06050	0.02019
5080.13183	0.02021
5078.20315	0.02022
5076.27448	0.02026
5074.34580	0.02030
5072.41712	0.02033
5070.48845	0.02035
5068.55977	0.02040
5066.63110	0.02046
5064.70242	0.02050
5062.77375	0.02052
5060.84507	0.02053
5058.91639	0.02055
5056.98772	0.02056
5055.05904	0.02058
5053.13037	0.02058
5051.20169	0.02061
5049.27302	0.02068
5047.34434	0.02076
5045.41566	0.02081
5043.48699	0.02084
5041.55831	0.02086
5039.62964	0.02087
5037.70096	0.02088
5035.77229	0.02092
5033.84361	0.02097
5031.91493	0.02104
5029.98626	0.02110
5028.05758	0.02115
5026.12891	0.02119
5024.20023	0.02120
5022.27156	0.02118
5020.34288	0.02120
5018.41420	0.02124
5016.48553	0.02130
5014.55685	0.02137
5012.62818	0.02138
5010.69950	0.02137
5008.77083	0.02137
5006.84215	0.02139
5004.91347	0.02143
5002.98480	0.02149
5001.05612	0.02154
4999.12745	0.02157
4997.19877	0.02159
4995.27010	0.02162
4993.34142	0.02167
4991.41274	0.02173
4989.48407	0.02180
4987.55539	0.02185
4985.62672	0.02187
4983.69804	0.02188
4981.76937	0.02191
4979.84069	0.02196
4977.91201	0.02201
4975.98334	0.02206
4974.05466	0.02209
4972.12599	0.02213
4970.19731	0.02218
4968.26864	0.02222
4966.33996	0.02225
4964.41128	0.02227
4962.48261	0.02227
4960.55393	0.02228
4958.62526	0.02232
4956.69658	0.02240
4954.76791	0.02246
4952.83923	0.02250
4950.91055	0.02254
4948.98188	0.02257
4947.05320	0.02259
4945.12453	0.02263
4943.19585	0.02268
4941.26718	0.02271
4939.33850	0.02272
4937.40982	0.02273
4935.48115	0.02277
4933.55247	0.02283
4931.62380	0.02289
4929.69512	0.02291
4927.76645	0.02293
4925.83777	0.02296
4923.90909	0.02299
4921.98042	0.02304
4920.05174	0.02311
4918.12307	0.02316
4916.19439	0.02318
4914.26572	0.02318
4912.33704	0.02321
4910.40836	0.02324
4908.47969	0.02330
4906.55101	0.02334
4904.62234	0.02336
4902.69366	0.02337
4900.76499	0.02341
4898.83631	0.02348
4896.90763	0.02353
4894.97896	0.02356
4893.05028	0.02357
4891.12161	0.02357
4889.19293	0.02361
4887.26426	0.02368
4885.33558	0.02375
4883.40690	0.02379
4881.47823	0.02381
4879.54955	0.02383
4877.62088	0.02387
4875.69220	0.02392
4873.76353	0.02398
4871.83485	0.02403
4869.90617	0.02409
4867.97750	0.02413
4866.04882	0.02415
4864.12015	0.02414
4862.19147	0.02418
4860.26280	0.02425
4858.33412	0.02431
4856.40544	0.02433
4854.47677	0.02433
4852.54809	0.02434
4850.61942	0.02438
4848.69074	0.02443
4846.76207	0.02449
4844.83339	0.02452
4842.90471	0.02453
4840.97604	0.02457
4839.04736	0.02461
4837.11869	0.02465
4835.19001	0.02469
4833.26134	0.02474
4831.33266	0.02477
4829.40398	0.02481
4827.47531	0.02486
4825.54663	0.02488
4823.61796	0.02490
4821.68928	0.02494
4819.76061	0.02499
4817.83193	0.02503
4815.90325	0.02507
4813.97458	0.02511
4812.04590	0.02519
4810.11723	0.02527
4808.18855	0.02532
4806.25988	0.02535
4804.33120	0.02539
4802.40252	0.02545
4800.47385	0.02550
4798.54517	0.02553
4796.61650	0.02554
4794.68782	0.02557
4792.75915	0.02560
4790.83047	0.02563
4788.90179	0.02568
4786.97312	0.02574
4785.04444	0.02577
4783.11577	0.02579
4781.18709	0.02582
4779.25842	0.02586
4777.32974	0.02590
4775.40106	0.02595
4773.47239	0.02599
4771.54371	0.02601
4769.61504	0.02604
4767.68636	0.02609
4765.75769	0.02614
4763.82901	0.02618
4761.90033	0.02622
4759.97166	0.02626
4758.04298	0.02630
4756.11431	0.02636
4754.18563	0.02642
4752.25696	0.02647
4750.32828	0.02649
4748.39960	0.02653
4746.47093	0.02662
4744.54225	0.02669
4742.61358	0.02672
4740.68490	0.02672
4738.75623	0.02676
4736.82755	0.02681
4734.89887	0.02684
4732.97020	0.02684
4731.04152	0.02687
4729.11285	0.02694
4727.18417	0.02700
4725.25550	0.02703
4723.32682	0.02705
4721.39814	0.02711
4719.46947	0.02716
4717.54079	0.02719
4715.61212	0.02722
4713.68344	0.02730
4711.75477	0.02737
4709.82609	0.02740
4707.89741	0.02743
4705.96874	0.02747
4704.04006	0.02753
4702.11139	0.02758
4700.18271	0.02761
4698.25404	0.02762
4696.32536	0.02765
4694.39668	0.02771
4692.46801	0.02777
4690.53933	0.02783
4688.61066	0.02786
4686.68198	0.02789
4684.75331	0.02794
4682.82463	0.02801
4680.89595	0.02807
4678.96728	0.02811
4677.03860	0.02813
4675.10993	0.02815
4673.18125	0.02818
4671.25258	0.02823
4669.32390	0.02828
4667.39522	0.02832
4665.46655	0.02835
4663.53787	0.02839
4661.60920	0.02844
4659.68052	0.02850
4657.75185	0.02856
4655.82317	0.02862
4653.89449	0.02867
4651.96582	0.02872
4650.03714	0.02876
4648.10847	0.02879
4646.17979	0.02883
4644.25112	0.02888
4642.32244	0.02894
4640.39376	0.02900
4638.46509	0.02907
4636.53641	0.02912
4634.60774	0.02913
4632.67906	0.02915
4630.75039	0.02918
4628.82171	0.02923
4626.89303	0.02931
4624.96436	0.02938
4623.03568	0.02941
4621.10701	0.02944
4619.17833	0.02949
4617.24966	0.02956
4615.32098	0.02963
4613.39230	0.02967
4611.46363	0.02970
4609.53495	0.02973
4607.60628	0.02976
4605.67760	0.02981
4603.74893	0.02987
4601.82025	0.02993
4599.89157	0.02998
4597.96290	0.03003
4596.03422	0.03008
4594.10555	0.03013
4592.17687	0.03018
4590.24820	0.03023
4588.31952	0.03027
4586.39084	0.03031
4584.46217	0.03037
4582.53349	0.03044
4580.60482	0.03051
4578.67614	0.03056
4576.74747	0.03062
4574.81879	0.03067
4572.89011	0.03073
4570.96144	0.03080
4569.03276	0.03086
4567.10409	0.03091
4565.17541	0.03092
4563.24674	0.03095
4561.31806	0.03102
4559.38938	0.03108
4557.46071	0.03112
4555.53203	0.03115
4553.60336	0.03119
4551.67468	0.03124
4549.74601	0.03128
4547.81733	0.03132
4545.88865	0.03137
4543.95998	0.03142
4542.03130	0.03145
4540.10263	0.03150
4538.17395	0.03158
4536.24528	0.03166
4534.31660	0.03173
4532.38792	0.03179
4530.45925	0.03185
4528.53057	0.03191
4526.60190	0.03197
4524.67322	0.03201
4522.74455	0.03202
4520.81587	0.03205
4518.88719	0.03212
4516.95852	0.03220
4515.02984	0.03227
4513.10117	0.03232
4511.17249	0.03233
4509.24382	0.03237
4507.31514	0.03244
4505.38646	0.03251
4503.45779	0.03255
4501.52911	0.03259
4499.60044	0.03265
4497.67176	0.03271
4495.74309	0.03277
4493.81441	0.03283
4491.88573	0.03290
4489.95706	0.03296
4488.02838	0.03302
4486.09971	0.03308
4484.17103	0.03314
4482.24236	0.03320
4480.31368	0.03326
4478.38500	0.03331
4476.45633	0.03337
4474.52765	0.03345
4472.59898	0.03351
4470.67030	0.03355
4468.74163	0.03361
4466.81295	0.03366
4464.88427	0.03369
4462.95560	0.03373
4461.02692	0.03379
4459.09825	0.03384
4457.16957	0.03388
4455.24090	0.03395
4453.31222	0.03404
4451.38354	0.03410
4449.45487	0.03419
4447.52619	0.03427
4445.59752	0.03432
4443.66884	0.03435
4441.74017	0.03438
4439.81149	0.03444
4437.88281	0.03448
4435.95414	0.03454
4434.02546	0.03463
4432.09679	0.03473
4430.16811	0.03478
4428.23944	0.03480
4426.31076	0.03483
4424.38208	0.03486
4422.45341	0.03492
4420.52473	0.03500
4418.59606	0.03508
4416.66738	0.03518
4414.73871	0.03526
4412.81003	0.03531
4410.88135	0.03535
4408.95268	0.03539
4407.02400	0.03543
4405.09533	0.03547
4403.16665	0.03555
4401.23798	0.03565
4399.30930	0.03573
4397.38062	0.03580
4395.45195	0.03588
4393.52327	0.03594
4391.59460	0.03597
4389.66592	0.03601
4387.73725	0.03610
4385.80857	0.03619
4383.87989	0.03628
4381.95122	0.03634
4380.02254	0.03638
4378.09387	0.03641
4376.16519	0.03646
4374.23652	0.03651
4372.30784	0.03656
4370.37916	0.03663
4368.45049	0.03670
4366.52181	0.03678
4364.59314	0.03686
4362.66446	0.03692
4360.73579	0.03697
4358.80711	0.03705
4356.87843	0.03714
4354.94976	0.03720
4353.02108	0.03724
4351.09241	0.03730
4349.16373	0.03736
4347.23506	0.03742
4345.30638	0.03747
4343.37770	0.03754
4341.44903	0.03763
4339.52035	0.03771
4337.59168	0.03776
4335.66300	0.03781
4333.73433	0.03790
4331.80565	0.03798
4329.87697	0.03804
4327.94830	0.03809
4326.01962	0.03815
4324.09095	0.03824
4322.16227	0.03833
4320.23360	0.03841
4318.30492	0.03845
4316.37624	0.03847
4314.44757	0.03851
4312.51889	0.03856
4310.59022	0.03865
4308.66154	0.03878
4306.73287	0.03892
4304.80419	0.03901
4302.87551	0.03904
4300.94684	0.03905
4299.01816	0.03909
4297.08949	0.03916
4295.16081	0.03924
4293.23214	0.03931
4291.30346	0.03938
4289.37478	0.03948
4287.44611	0.03958
4285.51743	0.03968
4283.58876	0.03976
4281.66008	0.03979
4279.73141	0.03982
4277.80273	0.03987
4275.87405	0.03995
4273.94538	0.04001
4272.01670	0.04006
4270.08803	0.04015
4268.15935	0.04026
4266.23068	0.04039
4264.30200	0.04048
4262.37332	0.04055
4260.44465	0.04061
4258.51597	0.04068
4256.58730	0.04073
4254.65862	0.04078
4252.72995	0.04083
4250.80127	0.04088
4248.87259	0.04096
4246.94392	0.04108
4245.01524	0.04120
4243.08657	0.04128
4241.15789	0.04133
4239.22922	0.04139
4237.30054	0.04146
4235.37186	0.04151
4233.44319	0.04159
4231.51451	0.04169
4229.58584	0.04179
4227.65716	0.04188
4225.72849	0.04197
4223.79981	0.04205
4221.87113	0.04211
4219.94246	0.04219
4218.01378	0.04227
4216.08511	0.04237
4214.15643	0.04247
4212.22776	0.04254
4210.29908	0.04254
4208.37040	0.04255
4206.44173	0.04261
4204.51305	0.04270
4202.58438	0.04280
4200.65570	0.04288
4198.72703	0.04298
4196.79835	0.04310
4194.86968	0.04320
4192.94100	0.04327
4191.01232	0.04333
4189.08365	0.04338
4187.15497	0.04345
4185.22630	0.04355
4183.29762	0.04364
4181.36895	0.04375
4179.44027	0.04387
4177.51159	0.04392
4175.58292	0.04395
4173.65424	0.04399
4171.72557	0.04406
4169.79689	0.04417
4167.86822	0.04428
4165.93954	0.04436
4164.01086	0.04443
4162.08219	0.04451
4160.15351	0.04461
4158.22484	0.04471
4156.29616	0.04481
4154.36749	0.04489
4152.43881	0.04498
4150.51013	0.04506
4148.58146	0.04514
4146.65278	0.04522
4144.72411	0.04531
4142.79543	0.04541
4140.86676	0.04552
4138.93808	0.04561
4137.00940	0.04569
4135.08073	0.04576
4133.15205	0.04584
4131.22338	0.04590
4129.29470	0.04595
4127.36603	0.04603
4125.43735	0.04611
4123.50867	0.04619
4121.58000	0.04629
4119.65132	0.04642
4117.72265	0.04653
4115.79397	0.04662
4113.86530	0.04670
4111.93662	0.04677
4110.00794	0.04686
4108.07927	0.04699
4106.15059	0.04712
4104.22192	0.04720
4102.29324	0.04726
4100.36457	0.04734
4098.43589	0.04742
4096.50721	0.04748
4094.57854	0.04754
4092.64986	0.04762
4090.72119	0.04771
4088.79251	0.04780
4086.86384	0.04790
4084.93516	0.04801
4083.00648	0.04811
4081.07781	0.04819
4079.14913	0.04827
4077.22046	0.04836
4075.29178	0.04847
4073.36311	0.04856
4071.43443	0.04864
4069.50575	0.04873
4067.57708	0.04883
4065.64840	0.04891
4063.71973	0.04900
4061.79105	0.04910
4059.86238	0.04921
4057.93370	0.04927
4056.00502	0.04934
4054.07635	0.04946
4052.14767	0.04959
4050.21900	0.04969
4048.29032	0.04978
4046.36165	0.04987
4044.43297	0.04997
4042.50429	0.05007
4040.57562	0.05014
4038.64694	0.05020
4036.71827	0.05027
4034.78959	0.05035
4032.86092	0.05045
4030.93224	0.05056
4029.00356	0.05065
4027.07489	0.05073
4025.14621	0.05084
4023.21754	0.05096
4021.28886	0.05109
4019.36019	0.05122
4017.43151	0.05133
4015.50283	0.05141
4013.57416	0.05147
4011.64548	0.05155
4009.71681	0.05162
4007.78813	0.05170
4005.85946	0.05180
4003.93078	0.05190
4002.00210	0.05200
4000.07343	0.05210
3998.14475	0.05220
3996.21608	0.05230
3994.28740	0.05242
3992.35873	0.05254
3990.43005	0.05267
3988.50137	0.05276
3986.57270	0.05283
3984.64402	0.05293
3982.71535	0.05305
3980.78667	0.05317
3978.85800	0.05325
3976.92932	0.05331
3975.00064	0.05338
3973.07197	0.05348
3971.14329	0.05357
3969.21462	0.05365
3967.28594	0.05376
3965.35727	0.05388
3963.42859	0.05399
3961.49991	0.05410
3959.57124	0.05421
3957.64256	0.05433
3955.71389	0.05445
3953.78521	0.05455
3951.85654	0.05463
3949.92786	0.05469
3947.99918	0.05474
3946.07051	0.05482
3944.14183	0.05493
3942.21316	0.05508
3940.28448	0.05523
3938.35581	0.05535
3936.42713	0.05543
3934.49845	0.05549
3932.56978	0.05555
3930.64110	0.05566
3928.71243	0.05581
3926.78375	0.05593
3924.85508	0.05603
3922.92640	0.05613
3920.99772	0.05621
3919.06905	0.05626
3917.14037	0.05632
3915.21170	0.05646
3913.28302	0.05663
3911.35435	0.05678
3909.42567	0.05688
3907.49699	0.05690
3905.56832	0.05686
3903.63964	0.05685
3901.71097	0.05692
3899.78229	0.05708
3897.85362	0.05735
3895.92494	0.05759
3893.99626	0.05766
3892.06759	0.05768
3890.13891	0.05778
3888.21024	0.05787
3886.28156	0.05791
3884.35289	0.05804
3882.42421	0.05819
3880.49553	0.05833
3878.56686	0.05849
3876.63818	0.05864
3874.70951	0.05871
3872.78083	0.05874
3870.85216	0.05874
3868.92348	0.05886
3866.99480	0.05906
3865.06613	0.05919
3863.13745	0.05932
3861.20878	0.05950
3859.28010	0.05963
3857.35143	0.05956
3855.42275	0.05933
3853.49407	0.05932
3851.56540	0.05968
3849.63672	0.06011
3847.70805	0.06034
3845.77937	0.06041
3843.85070	0.06046
3841.92202	0.06051
3839.99334	0.06054
3838.06467	0.06058
3836.13599	0.06071
3834.20732	0.06093
3832.27864	0.06115
3830.34997	0.06134
3828.42129	0.06145
3826.49261	0.06155
3824.56394	0.06161
3822.63526	0.06160
3820.70659	0.06167
3818.77791	0.06183
3816.84924	0.06195
3814.92056	0.06213
3812.99188	0.06239
3811.06321	0.06256
3809.13453	0.06259
3807.20586	0.06263
3805.27718	0.06273
3803.34851	0.06277
3801.41983	0.06280
3799.49115	0.06295
3797.56248	0.06318
3795.63380	0.06343
3793.70513	0.06366
3791.77645	0.06380
3789.84778	0.06390
3787.91910	0.06401
3785.99042	0.06412
3784.06175	0.06420
3782.13307	0.06428
3780.20440	0.06436
3778.27572	0.06450
3776.34705	0.06469
3774.41837	0.06485
3772.48969	0.06491
3770.56102	0.06491
3768.63234	0.06495
3766.70367	0.06507
3764.77499	0.06524
3762.84632	0.06543
3760.91764	0.06552
3758.98896	0.06557
3757.06029	0.06568
3755.13161	0.06574
3753.20294	0.06568
3751.27426	0.06562
3749.34559	0.06571
3747.41691	0.06579
3745.48823	0.06578
3743.55956	0.06599
3741.63088	0.06643
3739.70221	0.06664
3737.77353	0.06656
3735.84486	0.06651
3733.91618	0.06668
3731.98750	0.06701
3730.05883	0.06731
3728.13015	0.06746
3726.20148	0.06755
3724.27280	0.06768
3722.34413	0.06784
3720.41545	0.06803
3718.48677	0.06826
3716.55810	0.06842
3714.62942	0.06841
3712.70075	0.06830
3710.77207	0.06834
3708.84340	0.06855
3706.91472	0.06880
3704.98604	0.06895
3703.05737	0.06901
3701.12869	0.06915
3699.20002	0.06936
3697.27134	0.06953
3695.34267	0.06961
3693.41399	0.06961
3691.48531	0.06959
3689.55664	0.06965
3687.62796	0.06988
3685.69929	0.07019
3683.77061	0.07038
3681.84194	0.07042
3679.91326	0.07041
3677.98458	0.07032
3676.05591	0.07030
3674.12723	0.07049
3672.19856	0.07070
3670.26988	0.07084
3668.34121	0.07107
3666.41253	0.07135
3664.48385	0.07154
3662.55518	0.07168
3660.62650	0.07177
3658.69783	0.07180
3656.76915	0.07185
3654.84048	0.07193
3652.91180	0.07186
3650.98312	0.07160
3649.05445	0.07145
3647.12577	0.07165
3645.19710	0.07206
3643.26842	0.07243
3641.33975	0.07266
3639.41107	0.07283
3637.48239	0.07296
3635.55372	0.07301
3633.62504	0.07299
3631.69637	0.07286
3629.76769	0.07276
3627.83902	0.07291
3625.91034	0.07324
3623.98166	0.07346
3622.05299	0.07351
3620.12431	0.07347
3618.19564	0.07351
3616.26696	0.07364
3614.33829	0.07372
3612.40961	0.07379
3610.48093	0.07388
3608.55226	0.07400
3606.62358	0.07420
3604.69491	0.07441
3602.76623	0.07456
3600.83756	0.07465
3598.90888	0.07472
3596.98020	0.07480
3595.05153	0.07489
3593.12285	0.07496
3591.19418	0.07496
3589.26550	0.07491
3587.33683	0.07499
3585.40815	0.07524
3583.47947	0.07548
3581.55080	0.07560
3579.62212	0.07568
3577.69345	0.07579
3575.76477	0.07590
3573.83610	0.07598
3571.90742	0.07604
3569.97874	0.07604
3568.05007	0.07604
3566.12139	0.07617
3564.19272	0.07638
3562.26404	0.07654
3560.33537	0.07665
3558.40669	0.07673
3556.47801	0.07682
3554.54934	0.07690
3552.62066	0.07698
3550.69199	0.07708
3548.76331	0.07716
3546.83464	0.07719
3544.90596	0.07726
3542.97728	0.07737
3541.04861	0.07749
3539.11993	0.07760
3537.19126	0.07766
3535.26258	0.07772
3533.33391	0.07781
3531.40523	0.07789
3529.47655	0.07791
3527.54788	0.07791
3525.61920	0.07798
3523.69053	0.07810
3521.76185	0.07821
3519.83318	0.07826
3517.90450	0.07830
3515.97582	0.07837
3514.04715	0.07842
3512.11847	0.07844
3510.18980	0.07847
3508.26112	0.07855
3506.33245	0.07862
3504.40377	0.07865
3502.47509	0.07867
3500.54642	0.07871
3498.61774	0.07872
3496.68907	0.07872
3494.76039	0.07875
3492.83172	0.07878
3490.90304	0.07880
3488.97436	0.07881
3487.04569	0.07887
3485.11701	0.07895
3483.18834	0.07899
3481.25966	0.07902
3479.33099	0.07911
3477.40231	0.07924
3475.47363	0.07933
3473.54496	0.07939
3471.61628	0.07948
3469.68761	0.07961
3467.75893	0.07976
3465.83026	0.07990
3463.90158	0.08003
3461.97290	0.08016
3460.04423	0.08031
3458.11555	0.08046
3456.18688	0.08059
3454.25820	0.08074
3452.32953	0.08089
3450.40085	0.08101
3448.47217	0.08107
3446.54350	0.08110
3444.61482	0.08116
3442.68615	0.08129
3440.75747	0.08151
3438.82880	0.08175
3436.90012	0.08199
3434.97144	0.08223
3433.04277	0.08248
3431.11409	0.08272
3429.18542	0.08295
3427.25674	0.08318
3425.32807	0.08344
3423.39939	0.08371
3421.47071	0.08396
3419.54204	0.08419
3417.61336	0.08442
3415.68469	0.08463
3413.75601	0.08482
3411.82734	0.08500
3409.89866	0.08519
3407.96998	0.08536
3406.04131	0.08555
3404.11263	0.08576
3402.18396	0.08596
3400.25528	0.08612
3398.32661	0.08628
3396.39793	0.08645
3394.46925	0.08662
3392.54058	0.08678
3390.61190	0.08695
3388.68323	0.08713
3386.75455	0.08731
3384.82588	0.08750
3382.89720	0.08769
3380.96852	0.08790
3379.03985	0.08809
3377.11117	0.08825
3375.18250	0.08838
3373.25382	0.08854
3371.32515	0.08874
3369.39647	0.08890
3367.46779	0.08901
3365.53912	0.08911
3363.61044	0.08924
3361.68177	0.08943
3359.75309	0.08965
3357.82442	0.08983
3355.89574	0.08996
3353.96706	0.09008
3352.03839	0.09023
3350.10971	0.09040
3348.18104	0.09059
3346.25236	0.09079
3344.32369	0.09097
3342.39501	0.09111
3340.46633	0.09123
3338.53766	0.09138
3336.60898	0.09159
3334.68031	0.09179
3332.75163	0.09198
3330.82296	0.09215
3328.89428	0.09230
3326.96560	0.09245
3325.03693	0.09262
3323.10825	0.09280
3321.17958	0.09296
3319.25090	0.09311
3317.32223	0.09328
3315.39355	0.09346
3313.46487	0.09364
3311.53620	0.09378
3309.60752	0.09390
3307.67885	0.09406
3305.75017	0.09426
3303.82150	0.09448
3301.89282	0.09463
3299.96414	0.09470
3298.03547	0.09479
3296.10679	0.09496
3294.17812	0.09517
3292.24944	0.09538
3290.32077	0.09557
3288.39209	0.09576
3286.46341	0.09593
3284.53474	0.09610
3282.60606	0.09629
3280.67739	0.09650
3278.74871	0.09670
3276.82004	0.09686
3274.89136	0.09701
3272.96268	0.09719
3271.03401	0.09736
3269.10533	0.09752
3267.17666	0.09768
3265.24798	0.09786
3263.31931	0.09801
3261.39063	0.09817
3259.46195	0.09837
3257.53328	0.09856
3255.60460	0.09872
3253.67593	0.09890
3251.74725	0.09909
3249.81858	0.09926
3247.88990	0.09943
3245.96122	0.09961
3244.03255	0.09978
3242.10387	0.09995
3240.17520	0.10016
3238.24652	0.10039
3236.31785	0.10057
3234.38917	0.10072
3232.46049	0.10089
3230.53182	0.10109
3228.60314	0.10129
3226.67447	0.10148
3224.74579	0.10167
3222.81712	0.10187
3220.88844	0.10206
3218.95976	0.10222
3217.03109	0.10234
3215.10241	0.10246
3213.17374	0.10261
3211.24506	0.10276
3209.31639	0.10293
3207.38771	0.10315
3205.45903	0.10339
3203.53036	0.10360
3201.60168	0.10379
3199.67301	0.10399
3197.74433	0.10419
3195.81566	0.10437
3193.88698	0.10453
3191.95830	0.10466
3190.02963	0.10481
3188.10095	0.10500
3186.17228	0.10524
3184.24360	0.10547
3182.31493	0.10566
3180.38625	0.10580
3178.45757	0.10596
3176.52890	0.10617
3174.60022	0.10639
3172.67155	0.10657
3170.74287	0.10673
3168.81420	0.10693
3166.88552	0.10717
3164.95684	0.10739
3163.02817	0.10757
3161.09949	0.10773
3159.17082	0.10792
3157.24214	0.10808
3155.31347	0.10822
3153.38479	0.10838
3151.45611	0.10854
3149.52744	0.10872
3147.59876	0.10894
3145.67009	0.10919
3143.74141	0.10940
3141.81274	0.10958
3139.88406	0.10975
3137.95538	0.10992
3136.02671	0.11009
3134.09803	0.11024
3132.16936	0.11037
3130.24068	0.11055
3128.31201	0.11077
3126.38333	0.11099
3124.45465	0.11115
3122.52598	0.11129
3120.59730	0.11147
3118.66863	0.11165
3116.73995	0.11184
3114.81128	0.11202
3112.88260	0.11224
3110.95392	0.11248
3109.02525	0.11269
3107.09657	0.11286
3105.16790	0.11302
3103.23922	0.11319
3101.31055	0.11335
3099.38187	0.11352
3097.45319	0.11372
3095.52452	0.11393
3093.59584	0.11411
3091.66717	0.11428
3089.73849	0.11445
3087.80982	0.11464
3085.88114	0.11482
3083.95246	0.11501
3082.02379	0.11521
3080.09511	0.11542
3078.16644	0.11562
3076.23776	0.11580
3074.30909	0.11600
3072.38041	0.11617
3070.45173	0.11630
3068.52306	0.11642
3066.59438	0.11659
3064.66571	0.11682
3062.73703	0.11705
3060.80836	0.11723
3058.87968	0.11737
3056.95100	0.11752
3055.02233	0.11769
3053.09365	0.11788
3051.16498	0.11805
3049.23630	0.11822
3047.30763	0.11842
3045.37895	0.11860
3043.45027	0.11876
3041.52160	0.11897
3039.59292	0.11922
3037.66425	0.11938
3035.73557	0.11948
3033.80690	0.11961
3031.87822	0.11980
3029.94954	0.12004
3028.02087	0.12028
3026.09219	0.12051
3024.16352	0.12073
3022.23484	0.12092
3020.30617	0.12107
3018.37749	0.12120
3016.44881	0.12134
3014.52014	0.12148
3012.59146	0.12165
3010.66279	0.12184
3008.73411	0.12206
3006.80544	0.12228
3004.87676	0.12247
3002.94808	0.12264
3001.01941	0.12278
2999.09073	0.12296
2997.16206	0.12317
2995.23338	0.12334
2993.30471	0.12350
2991.37603	0.12369
2989.44735	0.12388
2987.51868	0.12400
2985.59000	0.12407
2983.66133	0.12417
2981.73265	0.12429
2979.80398	0.12438
2977.87530	0.12443
2975.94662	0.12449
2974.01795	0.12454
2972.08927	0.12450
2970.16060	0.12441
2968.23192	0.12436
2966.30325	0.12437
2964.37457	0.12440
2962.44589	0.12448
2960.51722	0.12466
2958.58854	0.12490
2956.65987	0.12513
2954.73119	0.12538
2952.80252	0.12564
2950.87384	0.12585
2948.94516	0.12603
2947.01649	0.12622
2945.08781	0.12636
2943.15914	0.12645
2941.23046	0.12646
2939.30179	0.12642
2937.37311	0.12638
2935.44443	0.12634
2933.51576	0.12626
2931.58708	0.12613
2929.65841	0.12603
2927.72973	0.12602
2925.80106	0.12604
2923.87238	0.12601
2921.94370	0.12601
2920.01503	0.12612
2918.08635	0.12634
2916.15768	0.12673
2914.22900	0.12732
2912.30033	0.12802
2910.37165	0.12867
2908.44297	0.12917
2906.51430	0.12954
2904.58562	0.12987
2902.65695	0.13019
2900.72827	0.13050
2898.79960	0.13082
2896.87092	0.13112
2894.94224	0.13140
2893.01357	0.13167
2891.08489	0.13194
2889.15622	0.13217
2887.22754	0.13237
2885.29887	0.13260
2883.37019	0.13285
2881.44151	0.13309
2879.51284	0.13331
2877.58416	0.13346
2875.65549	0.13355
2873.72681	0.13366
2871.79814	0.13385
2869.86946	0.13406
2867.94078	0.13419
2866.01211	0.13429
2864.08343	0.13440
2862.15476	0.13448
2860.22608	0.13450
2858.29741	0.13451
2856.36873	0.13457
2854.44005	0.13461
2852.51138	0.13457
2850.58270	0.13462
2848.65403	0.13496
2846.72535	0.13560
2844.79668	0.13630
2842.86800	0.13692
2840.93932	0.13743
2839.01065	0.13783
2837.08197	0.13814
2835.15330	0.13839
2833.22462	0.13862
2831.29595	0.13887
2829.36727	0.13913
2827.43859	0.13940
2825.50992	0.13967
2823.58124	0.13987
2821.65257	0.14003
2819.72389	0.14025
2817.79522	0.14050
2815.86654	0.14073
2813.93786	0.14095
2812.00919	0.14118
2810.08051	0.14136
2808.15184	0.14151
2806.22316	0.14169
2804.29449	0.14192
2802.36581	0.14214
2800.43713	0.14235
2798.50846	0.14256
2796.57978	0.14274
2794.65111	0.14295
2792.72243	0.14319
2790.79376	0.14339
2788.86508	0.14354
2786.93640	0.14372
2785.00773	0.14395
2783.07905	0.14418
2781.15038	0.14442
2779.22170	0.14465
2777.29303	0.14483
2775.36435	0.14501
2773.43567	0.14523
2771.50700	0.14543
2769.57832	0.14557
2767.64965	0.14572
2765.72097	0.14589
2763.79230	0.14606
2761.86362	0.14625
2759.93494	0.14650
2758.00627	0.14673
2756.07759	0.14693
2754.14892	0.14714
2752.22024	0.14736
2750.29157	0.14754
2748.36289	0.14767
2746.43421	0.14782
2744.50554	0.14803
2742.57686	0.14826
2740.64819	0.14846
2738.71951	0.14864
2736.79084	0.14884
2734.86216	0.14901
2732.93348	0.14916
2731.00481	0.14934
2729.07613	0.14957
2727.14746	0.14979
2725.21878	0.14997
2723.29011	0.15015
2721.36143	0.15033
2719.43275	0.15050
2717.50408	0.15068
2715.57540	0.15087
2713.64673	0.15106
2711.71805	0.15124
2709.78938	0.15139
2707.86070	0.15155
2705.93202	0.15176
2704.00335	0.15198
2702.07467	0.15217
2700.14600	0.15233
2698.21732	0.15250
2696.28865	0.15270
2694.35997	0.15289
2692.43129	0.15309
2690.50262	0.15331
2688.57394	0.15355
2686.64527	0.15374
2684.71659	0.15387
2682.78792	0.15401
2680.85924	0.15421
2678.93056	0.15443
2677.00189	0.15464
2675.07321	0.15480
2673.14454	0.15495
2671.21586	0.15514
2669.28719	0.15537
2667.35851	0.15559
2665.42983	0.15577
2663.50116	0.15595
2661.57248	0.15617
2659.64381	0.15638
2657.71513	0.15658
2655.78646	0.15679
2653.85778	0.15698
2651.92910	0.15715
2650.00043	0.15733
2648.07175	0.15751
2646.14308	0.15771
2644.21440	0.15791
2642.28573	0.15812
2640.35705	0.15834
2638.42837	0.15854
2636.49970	0.15873
2634.57102	0.15896
2632.64235	0.15922
2630.71367	0.15944
2628.78500	0.15961
2626.85632	0.15979
2624.92764	0.15997
2622.99897	0.16018
2621.07029	0.16042
2619.14162	0.16068
2617.21294	0.16092
2615.28427	0.16113
2613.35559	0.16134
2611.42691	0.16153
2609.49824	0.16170
2607.56956	0.16184
2605.64089	0.16199
2603.71221	0.16219
2601.78354	0.16240
2599.85486	0.16262
2597.92618	0.16285
2595.99751	0.16309
2594.06883	0.16333
2592.14016	0.16355
2590.21148	0.16375
2588.28281	0.16392
2586.35413	0.16409
2584.42545	0.16428
2582.49678	0.16447
2580.56810	0.16463
2578.63943	0.16480
2576.71075	0.16505
2574.78208	0.16533
2572.85340	0.16556
2570.92472	0.16574
2568.99605	0.16590
2567.06737	0.16607
2565.13870	0.16626
2563.21002	0.16647
2561.28135	0.16666
2559.35267	0.16685
2557.42399	0.16705
2555.49532	0.16721
2553.56664	0.16737
2551.63797	0.16755
2549.70929	0.16776
2547.78062	0.16798
2545.85194	0.16816
2543.92326	0.16831
2541.99459	0.16851
2540.06591	0.16878
2538.13724	0.16904
2536.20856	0.16924
2534.27989	0.16942
2532.35121	0.16957
2530.42253	0.16969
2528.49386	0.16985
2526.56518	0.17008
2524.63651	0.17037
2522.70783	0.17068
2520.77916	0.17095
2518.85048	0.17111
2516.92181	0.17124
2514.99313	0.17142
2513.06445	0.17166
2511.13578	0.17191
2509.20710	0.17214
2507.27843	0.17232
2505.34975	0.17250
2503.42108	0.17273
2501.49240	0.17298
2499.56372	0.17319
2497.63505	0.17340
2495.70637	0.17363
2493.77770	0.17388
2491.84902	0.17414
2489.92035	0.17435
2487.99167	0.17453
2486.06299	0.17474
2484.13432	0.17494
2482.20564	0.17514
2480.27697	0.17536
2478.34829	0.17559
2476.41962	0.17584
2474.49094	0.17606
2472.56226	0.17623
2470.63359	0.17643
2468.70491	0.17664
2466.77624	0.17684
2464.84756	0.17706
2462.91889	0.17730
2460.99021	0.17751
2459.06153	0.17767
2457.13286	0.17786
2455.20418	0.17809
2453.27551	0.17835
2451.34683	0.17859
2449.41816	0.17880
2447.48948	0.17898
2445.56080	0.17916
2443.63213	0.17939
2441.70345	0.17963
2439.77478	0.17985
2437.84610	0.18008
2435.91743	0.18035
2433.98875	0.18061
2432.06007	0.18081
2430.13140	0.18095
2428.20272	0.18112
2426.27405	0.18130
2424.34537	0.18146
2422.41670	0.18166
2420.48802	0.18191
2418.55934	0.18219
2416.63067	0.18247
2414.70199	0.18273
2412.77332	0.18294
2410.84464	0.18308
2408.91597	0.18319
2406.98729	0.18334
2405.05861	0.18356
2403.12994	0.18382
2401.20126	0.18406
2399.27259	0.18425
2397.34391	0.18441
2395.41524	0.18457
2393.48656	0.18478
2391.55788	0.18501
2389.62921	0.18523
2387.70053	0.18543
2385.77186	0.18560
2383.84318	0.18578
2381.91451	0.18596
2379.98583	0.18605
2378.05715	0.18611
2376.12848	0.18620
2374.19980	0.18626
2372.27113	0.18624
2370.34245	0.18621
2368.41378	0.18625
2366.48510	0.18635
2364.55642	0.18651
2362.62775	0.18668
2360.69907	0.18687
2358.77040	0.18710
2356.84172	0.18740
2354.91305	0.18778
2352.98437	0.18823
2351.05569	0.18873
2349.12702	0.18909
2347.19834	0.18918
2345.26967	0.18917
2343.34099	0.18923
2341.41232	0.18933
2339.48364	0.18946
2337.55496	0.18966
2335.62629	0.18991
2333.69761	0.19016
2331.76894	0.19040
2329.84026	0.19061
2327.91159	0.19082
2325.98291	0.19107
2324.05423	0.19135
2322.12556	0.19163
2320.19688	0.19195
2318.26821	0.19228
2316.33953	0.19259
2314.41086	0.19287
2312.48218	0.19313
2310.55350	0.19343
2308.62483	0.19371
2306.69615	0.19390
2304.76748	0.19404
2302.83880	0.19428
2300.91013	0.19458
2298.98145	0.19482
2297.05277	0.19504
2295.12410	0.19529
2293.19542	0.19553
2291.26675	0.19576
2289.33807	0.19600
2287.40940	0.19621
2285.48072	0.19639
2283.55204	0.19656
2281.62337	0.19674
2279.69469	0.19696
2277.76602	0.19720
2275.83734	0.19742
2273.90867	0.19761
2271.97999	0.19781
2270.05131	0.19804
2268.12264	0.19828
2266.19396	0.19850
2264.26529	0.19868
2262.33661	0.19885
2260.40794	0.19900
2258.47926	0.19916
2256.55058	0.19940
2254.62191	0.19968
2252.69323	0.19994
2250.76456	0.20016
2248.83588	0.20033
2246.90721	0.20045
2244.97853	0.20054
2243.04985	0.20068
2241.12118	0.20089
2239.19250	0.20112
2237.26383	0.20132
2235.33515	0.20152
2233.40648	0.20180
2231.47780	0.20210
2229.54912	0.20230
2227.62045	0.20241
2225.69177	0.20256
2223.76310	0.20278
2221.83442	0.20301
2219.90575	0.20326
2217.97707	0.20355
2216.04839	0.20377
2214.11972	0.20395
2212.19104	0.20413
2210.26237	0.20432
2208.33369	0.20448
2206.40502	0.20463
2204.47634	0.20480
2202.54766	0.20503
2200.61899	0.20530
2198.69031	0.20551
2196.76164	0.20569
2194.83296	0.20587
2192.90429	0.20606
2190.97561	0.20626
2189.04693	0.20650
2187.11826	0.20676
2185.18958	0.20698
2183.26091	0.20718
2181.33223	0.20738
2179.40356	0.20759
2177.47488	0.20780
2175.54620	0.20800
2173.61753	0.20820
2171.68885	0.20845
2169.76018	0.20869
2167.83150	0.20893
2165.90283	0.20916
2163.97415	0.20938
2162.04547	0.20959
2160.11680	0.20981
2158.18812	0.21000
2156.25945	0.21020
2154.33077	0.21045
2152.40210	0.21070
2150.47342	0.21094
2148.54474	0.21119
2146.61607	0.21143
2144.68739	0.21163
2142.75872	0.21181
2140.83004	0.21199
2138.90137	0.21216
2136.97269	0.21235
2135.04401	0.21258
2133.11534	0.21279
2131.18666	0.21302
2129.25799	0.21328
2127.32931	0.21352
2125.40064	0.21372
2123.47196	0.21392
2121.54328	0.21413
2119.61461	0.21435
2117.68593	0.21455
2115.75726	0.21471
2113.82858	0.21488
2111.89991	0.21509
2109.97123	0.21533
2108.04255	0.21556
2106.11388	0.21578
2104.18520	0.21603
2102.25653	0.21627
2100.32785	0.21650
2098.39918	0.21673
2096.47050	0.21692
2094.54182	0.21706
2092.61315	0.21722
2090.68447	0.21744
2088.75580	0.21770
2086.82712	0.21793
2084.89845	0.21815
2082.96977	0.21839
2081.04109	0.21861
2079.11242	0.21878
2077.18374	0.21895
2075.25507	0.21916
2073.32639	0.21937
2071.39772	0.21957
2069.46904	0.21976
2067.54036	0.21994
2065.61169	0.22015
2063.68301	0.22041
2061.75434	0.22064
2059.82566	0.22081
2057.89699	0.22098
2055.96831	0.22114
2054.03963	0.22131
2052.11096	0.22152
2050.18228	0.22181
2048.25361	0.22211
2046.32493	0.22232
2044.39626	0.22247
2042.46758	0.22266
2040.53890	0.22288
2038.61023	0.22307
2036.68155	0.22324
2034.75288	0.22341
2032.82420	0.22361
2030.89553	0.22385
2028.96685	0.22404
2027.03817	0.22423
2025.10950	0.22447
2023.18082	0.22475
2021.25215	0.22501
2019.32347	0.22524
2017.39480	0.22542
2015.46612	0.22555
2013.53744	0.22570
2011.60877	0.22593
2009.68009	0.22619
2007.75142	0.22643
2005.82274	0.22669
2003.89407	0.22699
2001.96539	0.22725
2000.03671	0.22742
1998.10804	0.22759
1996.17936	0.22780
1994.25069	0.22794
1992.32201	0.22803
1990.39334	0.22826
1988.46466	0.22856
1986.53598	0.22877
1984.60731	0.22895
1982.67863	0.22915
1980.74996	0.22934
1978.82128	0.22951
1976.89261	0.22970
1974.96393	0.22992
1973.03525	0.23018
1971.10658	0.23039
1969.17790	0.23046
1967.24923	0.23052
1965.32055	0.23072
1963.39188	0.23100
1961.46320	0.23123
1959.53452	0.23144
1957.60585	0.23166
1955.67717	0.23190
1953.74850	0.23214
1951.81982	0.23238
1949.89115	0.23259
1947.96247	0.23275
1946.03379	0.23286
1944.10512	0.23294
1942.17644	0.23314
1940.24777	0.23351
1938.31909	0.23385
1936.39042	0.23409
1934.46174	0.23431
1932.53306	0.23454
1930.60439	0.23472
1928.67571	0.23490
1926.74704	0.23508
1924.81836	0.23519
1922.88969	0.23529
1920.96101	0.23543
1919.03233	0.23554
1917.10366	0.23576
1915.17498	0.23615
1913.24631	0.23650
1911.31763	0.23672
1909.38896	0.23683
1907.46028	0.23695
1905.53160	0.23718
1903.60293	0.23748
1901.67425	0.23772
1899.74558	0.23793
1897.81690	0.23813
1895.88823	0.23825
1893.95955	0.23836
1892.03087	0.23854
1890.10220	0.23876
1888.17352	0.23900
1886.24485	0.23929
1884.31617	0.23954
1882.38750	0.23974
1880.45882	0.23990
1878.53014	0.24007
1876.60147	0.24026
1874.67279	0.24041
1872.74412	0.24047
1870.81544	0.24041
1868.88677	0.24045
1866.95809	0.24081
1865.02941	0.24131
1863.10074	0.24173
1861.17206	0.24200
1859.24339	0.24216
1857.31471	0.24232
1855.38604	0.24256
1853.45736	0.24284
1851.52868	0.24309
1849.60001	0.24321
1847.67133	0.24318
1845.74266	0.24306
1843.81398	0.24326
1841.88531	0.24387
1839.95663	0.24437
1838.02795	0.24458
1836.09928	0.24477
1834.17060	0.24491
1832.24193	0.24486
1830.31325	0.24481
1828.38458	0.24501
1826.45590	0.24535
1824.52722	0.24574
1822.59855	0.24614
1820.66987	0.24639
1818.74120	0.24652
1816.81252	0.24672
1814.88385	0.24696
1812.95517	0.24711
1811.02649	0.24723
1809.09782	0.24743
1807.16914	0.24768
1805.24047	0.24783
1803.31179	0.24778
1801.38312	0.24775
1799.45444	0.24796
1797.52576	0.24828
1795.59709	0.24840
1793.66841	0.24832
1791.73974	0.24840
1789.81106	0.24879
1787.88239	0.24911
1785.95371	0.24924
1784.02503	0.24942
1782.09636	0.24966
1780.16768	0.24987
1778.23901	0.25008
1776.31033	0.25017
1774.38166	0.24996
1772.45298	0.24972
1770.52430	0.24978
1768.59563	0.25013
1766.66695	0.25061
1764.73828	0.25093
1762.80960	0.25097
1760.88093	0.25107
1758.95225	0.25125
1757.02357	0.25138
1755.09490	0.25147
1753.16622	0.25127
1751.23755	0.25086
1749.30887	0.25074
1747.38020	0.25096
1745.45152	0.25121
1743.52284	0.25133
1741.59417	0.25127
1739.66549	0.25119
1737.73682	0.25111
1735.80814	0.25081
1733.87947	0.25071
1731.95079	0.25134
1730.02211	0.25215
1728.09344	0.25264
1726.16476	0.25286
1724.23609	0.25299
1722.30741	0.25305
1720.37874	0.25282
1718.45006	0.25251
1716.52138	0.25266
1714.59271	0.25321
1712.66403	0.25379
1710.73536	0.25418
1708.80668	0.25425
1706.87801	0.25411
1704.94933	0.25399
1703.02065	0.25363
1701.09198	0.25314
1699.16330	0.25313
1697.23463	0.25349
1695.30595	0.25387
1693.37728	0.25437
1691.44860	0.25466
1689.51992	0.25464
1687.59125	0.25435
1685.66257	0.25377
1683.73390	0.25360
1681.80522	0.25417
1679.87655	0.25478
1677.94787	0.25487
1676.01919	0.25465
1674.09052	0.25460
1672.16184	0.25456
1670.23317	0.25447
1668.30449	0.25477
1666.37582	0.25529
1664.44714	0.25541
1662.51846	0.25537
1660.58979	0.25558
1658.66111	0.25573
1656.73244	0.25523
1654.80376	0.25416
1652.87509	0.25373
1650.94641	0.25442
1649.01773	0.25498
1647.08906	0.25503
1645.16038	0.25536
1643.23171	0.25591
1641.30303	0.25620
1639.37436	0.25608
1637.44568	0.25566
1635.51700	0.25553
1633.58833	0.25610
1631.65965	0.25670
1629.73098	0.25680
1627.80230	0.25665
1625.87363	0.25634
1623.94495	0.25581
1622.01627	0.25542
1620.08760	0.25535
1618.15892	0.25555
1616.23025	0.25628
1614.30157	0.25739
1612.37290	0.25825
1610.44422	0.25871
1608.51554	0.25904
1606.58687	0.25935
1604.65819	0.25962
1602.72952	0.25987
1600.80084	0.26017
1598.87217	0.26045
1596.94349	0.26064
1595.01481	0.26073
1593.08614	0.26086
1591.15746	0.26111
1589.22879	0.26139
1587.30011	0.26164
1585.37144	0.26188
1583.44276	0.26209
1581.51408	0.26223
1579.58541	0.26219
1577.65673	0.26202
1575.72806	0.26216
1573.79938	0.26268
1571.87071	0.26293
1569.94203	0.26291
1568.01335	0.26313
1566.08468	0.26350
1564.15600	0.26363
1562.22733	0.26324
1560.29865	0.26247
1558.36998	0.26231
1556.44130	0.26311
1554.51262	0.26407
1552.58395	0.26462
1550.65527	0.26487
1548.72660	0.26499
1546.79792	0.26494
1544.86925	0.26459
1542.94057	0.26414
1541.01189	0.26397
1539.08322	0.26438
1537.15454	0.26509
1535.22587	0.26540
1533.29719	0.26549
1531.36852	0.26583
1529.43984	0.26613
1527.51116	0.26610
1525.58249	0.26590
1523.65381	0.26552
1521.72514	0.26520
1519.79646	0.26536
1517.86779	0.26582
1515.93911	0.26631
1514.01043	0.26674
1512.08176	0.26688
1510.15308	0.26658
1508.22441	0.26609
1506.29573	0.26615
1504.36706	0.26698
1502.43838	0.26773
1500.50970	0.26783
1498.58103	0.26770
1496.65235	0.26787
1494.72368	0.26825
1492.79500	0.26827
1490.86633	0.26789
1488.93765	0.26777
1487.00897	0.26815
1485.08030	0.26861
1483.15162	0.26880
1481.22295	0.26880
1479.29427	0.26865
1477.36560	0.26822
1475.43692	0.26755
1473.50824	0.26704
1471.57957	0.26704
1469.65089	0.26732
1467.72222	0.26731
1465.79354	0.26714
1463.86487	0.26726
1461.93619	0.26735
1460.00751	0.26685
1458.07884	0.26612
1456.15016	0.26622
1454.22149	0.26715
1452.29281	0.26791
1450.36414	0.26809
1448.43546	0.26810
1446.50678	0.26834
1444.57811	0.26873
1442.64943	0.26900
1440.72076	0.26895
1438.79208	0.26844
1436.86341	0.26799
1434.93473	0.26822
1433.00605	0.26863
1431.07738	0.26872
1429.14870	0.26879
1427.22003	0.26890
1425.29135	0.26884
1423.36268	0.26865
1421.43400	0.26829
1419.50532	0.26790
1417.57665	0.26799
1415.64797	0.26841
1413.71930	0.26864
1411.79062	0.26867
1409.86195	0.26864
1407.93327	0.26852
1406.00459	0.26834
1404.07592	0.26830
1402.14724	0.26830
1400.21857	0.26810
1398.28989	0.26787
1396.36122	0.26775
1394.43254	0.26781
1392.50386	0.26806
1390.57519	0.26808
1388.64651	0.26761
1386.71784	0.26706
1384.78916	0.26686
1382.86049	0.26699
1380.93181	0.26718
1379.00313	0.26725
1377.07446	0.26713
1375.14578	0.26692
1373.21711	0.26688
1371.28843	0.26702
1369.35976	0.26712
1367.43108	0.26710
1365.50240	0.26693
1363.57373	0.26668
1361.64505	0.26663
1359.71638	0.26676
1357.78770	0.26684
1355.85903	0.26691
1353.93035	0.26707
1352.00167	0.26720
1350.07300	0.26725
1348.14432	0.26732
1346.21565	0.26742
1344.28697	0.26748
1342.35830	0.26739
1340.42962	0.26721
1338.50094	0.26720
1336.57227	0.26738
1334.64359	0.26755
1332.71492	0.26758
1330.78624	0.26751
1328.85757	0.26741
1326.92889	0.26731
1325.00021	0.26717
1323.07154	0.26704
1321.14286	0.26693
1319.21419	0.26680
1317.28551	0.26670
1315.35684	0.26666
1313.42816	0.26657
1311.49948	0.26643
1309.57081	0.26629
1307.64213	0.26608
1305.71346	0.26580
1303.78478	0.26554
1301.85611	0.26528
1299.92743	0.26502
1297.99875	0.26473
1296.07008	0.26446
1294.14140	0.26418
1292.21273	0.26387
1290.28405	0.26354
1288.35538	0.26325
1286.42670	0.26297
1284.49802	0.26263
1282.56935	0.26220
1280.64067	0.26179
1278.71200	0.26138
1276.78332	0.26084
1274.85465	0.26012
1272.92597	0.25930
1270.99729	0.25834
1269.06862	0.25713
1267.13994	0.25573
1265.21127	0.25444
1263.28259	0.25357
1261.35392	0.25319
1259.42524	0.25317
1257.49656	0.25331
1255.56789	0.25344
1253.63921	0.25345
1251.71054	0.25332
1249.78186	0.25300
1247.85319	0.25247
1245.92451	0.25180
1243.99583	0.25114
1242.06716	0.25054
1240.13848	0.24996
1238.20981	0.24934
1236.28113	0.24868
1234.35246	0.24797
1232.42378	0.24722
1230.49510	0.24650
1228.56643	0.24579
1226.63775	0.24510
1224.70908	0.24449
1222.78040	0.24389
1220.85173	0.24320
1218.92305	0.24249
1216.99437	0.24179
1215.06570	0.24107
1213.13702	0.24038
1211.20835	0.23966
1209.27967	0.23894
1207.35100	0.23829
1205.42232	0.23769
1203.49364	0.23706
1201.56497	0.23648
1199.63629	0.23596
1197.70762	0.23536
1195.77894	0.23472
1193.85027	0.23407
1191.92159	0.23340
1189.99291	0.23265
1188.06424	0.23181
1186.13556	0.23092
1184.20689	0.22994
1182.27821	0.22886
1180.34954	0.22779
1178.42086	0.22687
1176.49218	0.22601
1174.56351	0.22505
1172.63483	0.22398
1170.70616	0.22294
1168.77748	0.22196
1166.84881	0.22095
1164.92013	0.21995
1162.99145	0.21904
1161.06278	0.21818
1159.13410	0.21723
1157.20543	0.21621
1155.27675	0.21525
1153.34808	0.21439
1151.41940	0.21354
1149.49072	0.21273
1147.56205	0.21194
1145.63337	0.21107
1143.70470	0.21018
1141.77602	0.20939
1139.84735	0.20858
1137.91867	0.20764
1135.98999	0.20669
1134.06132	0.20582
1132.13264	0.20492
1130.20397	0.20398
1128.27529	0.20302
1126.34662	0.20200
1124.41794	0.20099
1122.48926	0.20002
1120.56059	0.19899
1118.63191	0.19785
1116.70324	0.19670
1114.77456	0.19557
1112.84589	0.19439
1110.91721	0.19323
1108.98853	0.19214
1107.05986	0.19111
1105.13118	0.19012
1103.20251	0.18915
1101.27383	0.18819
1099.34516	0.18729
1097.41648	0.18640
1095.48780	0.18546
1093.55913	0.18460
1091.63045	0.18390
1089.70178	0.18321
1087.77310	0.18245
1085.84443	0.18168
1083.91575	0.18097
1081.98707	0.18027
1080.05840	0.17949
1078.12972	0.17877
1076.20105	0.17822
1074.27237	0.17776
1072.34370	0.17739
1070.41502	0.17716
1068.48634	0.17703
1066.55767	0.17694
1064.62899	0.17688
1062.70032	0.17684
1060.77164	0.17697
1058.84297	0.17728
1056.91429	0.17759
1054.98561	0.17782
1053.05694	0.17801
1051.12826	0.17829
1049.19959	0.17867
1047.27091	0.17907
1045.34224	0.17950
1043.41356	0.17999
1041.48488	0.18044
1039.55621	0.18091
1037.62753	0.18150
1035.69886	0.18220
1033.77018	0.18286
1031.84151	0.18333
1029.91283	0.18379
1027.98415	0.18440
1026.05548	0.18504
1024.12680	0.18558
1022.19813	0.18604
1020.26945	0.18662
1018.34078	0.18742
1016.41210	0.18836
1014.48342	0.18931
1012.55475	0.19026
1010.62607	0.19126
1008.69740	0.19233
1006.76872	0.19342
1004.84005	0.19441
1002.91137	0.19518
1000.98269	0.19581
999.05402	0.19649
997.12534	0.19715
995.19667	0.19763
993.26799	0.19804
991.33932	0.19855
989.41064	0.19902
987.48196	0.19939
985.55329	0.19980
983.62461	0.20020
981.69594	0.20056
979.76726	0.20087
977.83859	0.20110
975.90991	0.20119
973.98123	0.20115
972.05256	0.20107
970.12388	0.20102
968.19521	0.20096
966.26653	0.20080
964.33786	0.20054
962.40918	0.20023
960.48050	0.19995
958.55183	0.19975
956.62315	0.19960
954.69448	0.19932
952.76580	0.19895
950.83713	0.19866
948.90845	0.19844
946.97977	0.19817
945.05110	0.19773
943.12242	0.19715
941.19375	0.19656
939.26507	0.19606
937.33640	0.19559
935.40772	0.19509
933.47904	0.19460
931.55037	0.19412
929.62169	0.19363
927.69302	0.19314
925.76434	0.19259
923.83567	0.19194
921.90699	0.19125
919.97831	0.19062
918.04964	0.19005
916.12096	0.18949
914.19229	0.18890
912.26361	0.18824
910.33494	0.18757
908.40626	0.18694
906.47758	0.18630
904.54891	0.18557
902.62023	0.18474
900.69156	0.18386
898.76288	0.18303
896.83421	0.18228
894.90553	0.18157
892.97685	0.18083
891.04818	0.18008
889.11950	0.17933
887.19083	0.17862
885.26215	0.17790
883.33348	0.17715
881.40480	0.17643
879.47612	0.17577
877.54745	0.17510
875.61877	0.17441
873.69010	0.17379
871.76142	0.17323
869.83275	0.17259
867.90407	0.17180
865.97539	0.17090
864.04672	0.17006
862.11804	0.16936
860.18937	0.16873
858.26069	0.16810
856.33202	0.16744
854.40334	0.16670
852.47466	0.16589
850.54599	0.16511
848.61731	0.16432
846.68864	0.16351
844.75996	0.16278
842.83129	0.16213
840.90261	0.16141
838.97394	0.16070
837.04526	0.16008
835.11658	0.15946
833.18791	0.15876
831.25923	0.15793
829.33056	0.15702
827.40188	0.15616
825.47321	0.15535
823.54453	0.15451
821.61585	0.15362
819.68718	0.15282
817.75850	0.15215
815.82983	0.15147
813.90115	0.15064
811.97248	0.14974
810.04380	0.14886
808.11512	0.14808
806.18645	0.14740
804.25777	0.14671
802.32910	0.14603
800.40042	0.14547
798.47175	0.14512
796.54307	0.14491
794.61439	0.14470
792.68572	0.14439
790.75704	0.14400
788.82837	0.14368
786.89969	0.14347
784.97102	0.14327
783.04234	0.14286
781.11366	0.14226
779.18499	0.14179
777.25631	0.14154
775.32764	0.14129
773.39896	0.14088
771.47029	0.14039
769.54161	0.13994
767.61293	0.13955
765.68426	0.13918
763.75558	0.13876
761.82691	0.13829
759.89823	0.13779
757.96956	0.13729
756.04088	0.13676
754.11220	0.13617
752.18353	0.13556
750.25485	0.13505
748.32618	0.13474
746.39750	0.13439
744.46883	0.13378
742.54015	0.13301
740.61147	0.13230
738.68280	0.13182
736.75412	0.13147
734.82545	0.13100
732.89677	0.13047
730.96810	0.13012
729.03942	0.12983
727.11074	0.12940
725.18207	0.12891
723.25339	0.12842
721.32472	0.12798
719.39604	0.12760
717.46737	0.12716
715.53869	0.12658
713.61001	0.12596
711.68134	0.12544
709.75266	0.12497
707.82399	0.12441
705.89531	0.12378
703.96664	0.12321
702.03796	0.12265
700.10928	0.12201
698.18061	0.12139
696.25193	0.12087
694.32326	0.12041
692.39458	0.11986
690.46591	0.11924
688.53723	0.11863
686.60855	0.11797
684.67988	0.11706
682.75120	0.11594
680.82253	0.11491
678.89385	0.11404
676.96518	0.11319
675.03650	0.11227
673.10782	0.11120
671.17915	0.10988
669.25047	0.10848
667.32180	0.10730
665.39312	0.10624
663.46445	0.10499
661.53577	0.10358
659.60709	0.10215
657.67842	0.10069
655.74974	0.09927
653.82107	0.09793
651.89239	0.09653
649.96372	0.09500
648.03504	0.09335
646.10636	0.09160
644.17769	0.08969
642.24901	0.08762
640.32034	0.08542
638.39166	0.08319
636.46299	0.08090
634.53431	0.07840
632.60563	0.07568
630.67696	0.07291
628.74828	0.07012
626.81961	0.06718
624.89093	0.06404
622.96226	0.06081
621.03358	0.05752
619.10490	0.05414
617.17623	0.05071
615.24755	0.04729
613.31888	0.04398
611.39020	0.04080
609.46153	0.03763
607.53285	0.03451
605.60417	0.03159
603.67550	0.02886
601.74682	0.02619
599.81815	0.02360
597.88947	0.02131
595.96080	0.01933
594.03212	0.01748
592.10344	0.01572
590.17477	0.01409
588.24609	0.01263
586.31742	0.01130
584.38874	0.00999
582.46007	0.00869
580.53139	0.00767
578.60271	0.00694
576.67404	0.00618
574.74536	0.00536
572.81669	0.00468
570.88801	0.00416
568.95934	0.00368
567.03066	0.00328
565.10198	0.00302
563.17331	0.00283
561.24463	0.00272
559.31596	0.00266
557.38728	0.00255
555.45861	0.00244
553.52993	0.00244
551.60125	0.00247
549.67258	0.00244
547.74390	0.00249
545.81523	0.00270
543.88655	0.00291
541.95788	0.00299
540.02920	0.00303
538.10052	0.00321
536.17185	0.00348
534.24317	0.00359
532.31450	0.00354
530.38582	0.00345
528.45715	0.00337
526.52847	0.00337
524.59979	0.00347
522.67112	0.00350
520.74244	0.00342
518.81377	0.00333
516.88509	0.00321
514.95642	0.00297
513.02774	0.00261
511.09906	0.00225
509.17039	0.00207
507.24171	0.00207
505.31304	0.00212
503.38436	0.00213
501.45569	0.00202
499.52701	0.00178
497.59833	0.00143
495.66966	0.00116
493.74098	0.00105
491.81231	0.00109
489.88363	0.00128
487.95496	0.00143
486.02628	0.00136
484.09760	0.00132
482.16893	0.00140
480.24025	0.00133
478.31158	0.00113
476.38290	0.00106
474.45423	0.00117
472.52555	0.00129
470.59687	0.00127
468.66820	0.00121
466.73952	0.00126
464.81085	0.00136
462.88217	0.00129
460.95350	0.00095
459.02482	0.00072
457.09614	0.00096
455.16747	0.00133
453.23879	0.00151
451.31012	0.00148
449.38144	0.00126
447.45277	0.00114
445.52409	0.00137
443.59541	0.00167
441.66674	0.00175
439.73806	0.00180
437.80939	0.00194
435.88071	0.00195
433.95204	0.00183
432.02336	0.00183
430.09468	0.00194
428.16601	0.00202
426.23733	0.00208
424.30866	0.00211
422.37998	0.00199
420.45131	0.00184
418.52263	0.00173
416.59395	0.00160
414.66528	0.00136
412.73660	0.00112
410.80793	0.00099
408.87925	0.00087
406.95058	0.00070
405.02190	0.00058
403.09322	0.00057
401.16455	0.00073
399.23587	0.00086
397.30720	0.00068
395.37852	0.00042
393.44985	0.00026
391.52117	0.00017
389.59249	0.00019
387.66382	0.00022
385.73514	0.00024
383.80647	0.00035
381.87779	0.00054
379.94912	0.00056
378.02044	0.00037
376.09176	0.00021
374.16309	0.00018
372.23441	0.00025
370.30574	0.00032
368.37706	0.00020
