7496.76250	0.00149
7494.83382	0.00152
7492.90514	0.00154
7490.97647	0.00153
7489.04779	0.00152
7487.11912	0.00151
7485.19044	0.00152
7483.26177	0.00152
7481.33309	0.00150
7479.40441	0.00150
7477.47574	0.00153
7475.54706	0.00155
7473.61839	0.00155
7471.68971	0.00154
7469.76104	0.00153
7467.83236	0.00153
7465.90368	0.00155
7463.97501	0.00157
7462.04633	0.00160
7460.11766	0.00160
7458.18898	0.00160
7456.26031	0.00159
7454.33163	0.00158
7452.40295	0.00157
7450.47428	0.00158
7448.54560	0.00159
7446.61693	0.00159
7444.68825	0.00158
7442.75958	0.00157
7440.83090	0.00157
7438.90222	0.00160
7436.97355	0.00163
7435.04487	0.00163
7433.11620	0.00163
7431.18752	0.00165
7429.25885	0.00166
7427.33017	0.00164
7425.40149	0.00163
7423.47282	0.00164
7421.54414	0.00165
7419.61547	0.00166
7417.68679	0.00165
7415.75812	0.00166
7413.82944	0.00169
7411.90076	0.00172
7409.97209	0.00172
7408.04341	0.00170
7406.11474	0.00169
7404.18606	0.00169
7402.25739	0.00171
7400.32871	0.00172
7398.40003	0.00174
7396.47136	0.00175
7394.54268	0.00175
7392.61401	0.00174
7390.68533	0.00175
7388.75666	0.00175
7386.82798	0.00174
7384.89930	0.00174
7382.97063	0.00176
7381.04195	0.00176
7379.11328	0.00175
7377.18460	0.00175
7375.25593	0.00176
7373.32725	0.00178
7371.39857	0.00178
7369.46990	0.00177
7367.54122	0.00178
7365.61255	0.00179
7363.68387	0.00178
7361.75520	0.00178
7359.82652	0.00179
7357.89784	0.00179
7355.96917	0.00180
7354.04049	0.00182
7352.11182	0.00183
7350.18314	0.00183
7348.25447	0.00183
7346.32579	0.00183
7344.39711	0.00182
7342.46844	0.00180
7340.53976	0.00180
7338.61109	0.00182
7336.68241	0.00185
7334.75374	0.00186
7332.82506	0.00186
7330.89638	0.00185
7328.96771	0.00184
7327.03903	0.00186
7325.11036	0.00188
7323.18168	0.00189
7321.25301	0.00188
7319.32433	0.00187
7317.39565	0.00186
7315.46698	0.00185
7313.53830	0.00186
7311.60963	0.00188
7309.68095	0.00190
7307.75228	0.00190
7305.82360	0.00190
7303.89492	0.00192
7301.96625	0.00193
7300.03757	0.00195
7298.10890	0.00196
7296.18022	0.00197
7294.25155	0.00197
7292.32287	0.00195
7290.39419	0.00195
7288.46552	0.00196
7286.53684	0.00198
7284.60817	0.00199
7282.67949	0.00198
7280.75082	0.00198
7278.82214	0.00198
7276.89346	0.00199
7274.96479	0.00199
7273.03611	0.00200
7271.10744	0.00199
7269.17876	0.00199
7267.25009	0.00198
7265.32141	0.00198
7263.39273	0.00199
7261.46406	0.00201
7259.53538	0.00201
7257.60671	0.00203
7255.67803	0.00207
7253.74936	0.00208
7251.82068	0.00207
7249.89200	0.00206
7247.96333	0.00206
7246.03465	0.00208
7244.10598	0.00210
7242.17730	0.00210
7240.24863	0.00209
7238.31995	0.00208
7236.39127	0.00208
7234.46260	0.00208
7232.53392	0.00207
7230.60525	0.00208
7228.67657	0.00210
7226.74790	0.00210
7224.81922	0.00209
7222.89054	0.00209
7220.96187	0.00210
7219.03319	0.00213
7217.10452	0.00216
7215.17584	0.00218
7213.24717	0.00217
7211.31849	0.00216
7209.38981	0.00215
7207.46114	0.00216
7205.53246	0.00216
7203.60379	0.00217
7201.67511	0.00218
7199.74644	0.00217
7197.81776	0.00216
7195.88908	0.00217
7193.96041	0.00218
7192.03173	0.00218
7190.10306	0.00217
7188.17438	0.00217
7186.24571	0.00220
7184.31703	0.00222
7182.38835	0.00224
7180.45968	0.00224
7178.53100	0.00224
7176.60233	0.00223
7174.67365	0.00223
7172.74498	0.00223
7170.81630	0.00222
7168.88762	0.00221
7166.95895	0.00221
7165.03027	0.00225
7163.10160	0.00227
7161.17292	0.00226
7159.24425	0.00225
7157.31557	0.00226
7155.38689	0.00228
7153.45822	0.00231
7151.52954	0.00232
7149.60087	0.00231
7147.67219	0.00232
7145.74352	0.00233
7143.81484	0.00234
7141.88616	0.00233
7139.95749	0.00234
7138.02881	0.00234
7136.10014	0.00234
7134.17146	0.00235
7132.24279	0.00236
7130.31411	0.00237
7128.38543	0.00238
7126.45676	0.00238
7124.52808	0.00237
7122.59941	0.00238
7120.67073	0.00239
7118.74206	0.00238
7116.81338	0.00238
7114.88470	0.00239
7112.95603	0.00239
7111.02735	0.00237
7109.09868	0.00240
7107.17000	0.00246
7105.24133	0.00248
7103.31265	0.00246
7101.38397	0.00244
7099.45530	0.00245
7097.52662	0.00246
7095.59795	0.00246
7093.66927	0.00247
7091.74060	0.00248
7089.81192	0.00249
7087.88324	0.00250
7085.95457	0.00250
7084.02589	0.00251
7082.09722	0.00251
7080.16854	0.00252
7078.23987	0.00252
7076.31119	0.00251
7074.38251	0.00250
7072.45384	0.00250
7070.52516	0.00251
7068.59649	0.00252
7066.66781	0.00252
7064.73914	0.00254
7062.81046	0.00255
7060.88178	0.00255
7058.95311	0.00256
7057.02443	0.00257
7055.09576	0.00258
7053.16708	0.00260
7051.23841	0.00261
7049.30973	0.00260
7047.38105	0.00259
7045.45238	0.00260
7043.52370	0.00261
7041.59503	0.00261
7039.66635	0.00261
7037.73768	0.00259
7035.80900	0.00259
7033.88032	0.00261
7031.95165	0.00264
7030.02297	0.00266
7028.09430	0.00265
7026.16562	0.00264
7024.23695	0.00263
7022.30827	0.00263
7020.37959	0.00265
7018.45092	0.00267
7016.52224	0.00270
7014.59357	0.00271
7012.66489	0.00271
7010.73622	0.00269
7008.80754	0.00271
7006.87886	0.00273
7004.95019	0.00274
7003.02151	0.00275
7001.09284	0.00277
6999.16416	0.00278
6997.23549	0.00277
6995.30681	0.00276
6993.37813	0.00276
6991.44946	0.00276
6989.52078	0.00276
6987.59211	0.00278
6985.66343	0.00281
6983.73476	0.00280
6981.80608	0.00278
6979.87740	0.00279
6977.94873	0.00280
6976.02005	0.00279
6974.09138	0.00280
6972.16270	0.00282
6970.23403	0.00282
6968.30535	0.00282
6966.37667	0.00283
6964.44800	0.00284
6962.51932	0.00286
6960.59065	0.00289
6958.66197	0.00291
6956.73330	0.00290
6954.80462	0.00289
6952.87594	0.00289
6950.94727	0.00291
6949.01859	0.00290
6947.08992	0.00289
6945.16124	0.00288
6943.23257	0.00290
6941.30389	0.00290
6939.37521	0.00290
6937.44654	0.00292
6935.51786	0.00294
6933.58919	0.00294
6931.66051	0.00292
6929.73184	0.00292
6927.80316	0.00294
6925.87448	0.00294
6923.94581	0.00294
6922.01713	0.00295
6920.08846	0.00297
6918.15978	0.00299
6916.23111	0.00301
6914.30243	0.00301
6912.37375	0.00302
6910.44508	0.00303
6908.51640	0.00303
6906.58773	0.00302
6904.65905	0.00302
6902.73038	0.00304
6900.80170	0.00307
6898.87302	0.00310
6896.94435	0.00309
6895.01567	0.00308
6893.08700	0.00307
6891.15832	0.00306
6889.22965	0.00305
6887.30097	0.00305
6885.37229	0.00306
6883.44362	0.00307
6881.51494	0.00310
6879.58627	0.00312
6877.65759	0.00311
6875.72892	0.00310
6873.80024	0.00311
6871.87156	0.00312
6869.94289	0.00312
6868.01421	0.00311
6866.08554	0.00311
6864.15686	0.00314
6862.22819	0.00316
6860.29951	0.00317
6858.37083	0.00318
6856.44216	0.00318
6854.51348	0.00318
6852.58481	0.00321
6850.65613	0.00324
6848.72746	0.00326
6846.79878	0.00325
6844.87010	0.00326
6842.94143	0.00327
6841.01275	0.00325
6839.08408	0.00324
6837.15540	0.00326
6835.22673	0.00326
6833.29805	0.00325
6831.36937	0.00325
6829.44070	0.00327
6827.51202	0.00329
6825.58335	0.00331
6823.65467	0.00330
6821.72600	0.00329
6819.79732	0.00328
6817.86864	0.00330
6815.93997	0.00332
6814.01129	0.00334
6812.08262	0.00335
6810.15394	0.00337
6808.22527	0.00341
6806.29659	0.00343
6804.36791	0.00342
6802.43924	0.00340
6800.51056	0.00339
6798.58189	0.00339
6796.65321	0.00338
6794.72454	0.00338
6792.79586	0.00339
6790.86718	0.00339
6788.93851	0.00340
6787.00983	0.00343
6785.08116	0.00347
6783.15248	0.00350
6781.22381	0.00348
6779.29513	0.00346
6777.36645	0.00347
6775.43778	0.00348
6773.50910	0.00348
6771.58043	0.00350
6769.65175	0.00352
6767.72308	0.00353
6765.79440	0.00352
6763.86572	0.00351
6761.93705	0.00353
6760.00837	0.00354
6758.07970	0.00354
6756.15102	0.00355
6754.22235	0.00356
6752.29367	0.00356
6750.36499	0.00356
6748.43632	0.00356
6746.50764	0.00358
6744.57897	0.00360
6742.65029	0.00362
6740.72162	0.00362
6738.79294	0.00361
6736.86426	0.00361
6734.93559	0.00363
6733.00691	0.00362
6731.07824	0.00362
6729.14956	0.00362
6727.22089	0.00364
6725.29221	0.00367
6723.36353	0.00368
6721.43486	0.00369
6719.50618	0.00368
6717.57751	0.00368
6715.64883	0.00368
6713.72016	0.00369
6711.79148	0.00368
6709.86280	0.00367
6707.93413	0.00370
6706.00545	0.00375
6704.07678	0.00377
6702.14810	0.00375
6700.21943	0.00374
6698.29075	0.00374
6696.36207	0.00377
6694.43340	0.00380
6692.50472	0.00382
6690.57605	0.00382
6688.64737	0.00380
6686.71870	0.00377
6684.79002	0.00378
6682.86134	0.00382
6680.93267	0.00387
6679.00399	0.00388
6677.07532	0.00387
6675.14664	0.00388
6673.21797	0.00389
6671.28929	0.00388
6669.36061	0.00388
6667.43194	0.00389
6665.50326	0.00391
6663.57459	0.00394
6661.64591	0.00396
6659.71724	0.00397
6657.78856	0.00396
6655.85988	0.00395
6653.93121	0.00395
6652.00253	0.00396
6650.07386	0.00396
6648.14518	0.00398
6646.21651	0.00401
6644.28783	0.00403
6642.35915	0.00403
6640.43048	0.00404
6638.50180	0.00406
6636.57313	0.00406
6634.64445	0.00405
6632.71578	0.00406
6630.78710	0.00406
6628.85842	0.00406
6626.92975	0.00405
6625.00107	0.00406
6623.07240	0.00409
6621.14372	0.00412
6619.21505	0.00414
6617.28637	0.00416
6615.35769	0.00417
6613.42902	0.00415
6611.50034	0.00413
6609.57167	0.00414
6607.64299	0.00418
6605.71432	0.00421
6603.78564	0.00422
6601.85696	0.00420
6599.92829	0.00417
6597.99961	0.00415
6596.07094	0.00415
6594.14226	0.00417
6592.21359	0.00421
6590.28491	0.00424
6588.35623	0.00426
6586.42756	0.00426
6584.49888	0.00425
6582.57021	0.00425
6580.64153	0.00427
6578.71286	0.00429
6576.78418	0.00430
6574.85550	0.00429
6572.92683	0.00429
6570.99815	0.00429
6569.06948	0.00430
6567.14080	0.00432
6565.21213	0.00434
6563.28345	0.00436
6561.35477	0.00436
6559.42610	0.00438
6557.49742	0.00439
6555.56875	0.00439
6553.64007	0.00440
6551.71140	0.00441
6549.78272	0.00441
6547.85404	0.00441
6545.92537	0.00441
6543.99669	0.00443
6542.06802	0.00444
6540.13934	0.00444
6538.21067	0.00445
6536.28199	0.00448
6534.35331	0.00450
6532.42464	0.00450
6530.49596	0.00450
6528.56729	0.00450
6526.63861	0.00452
6524.70994	0.00454
6522.78126	0.00457
6520.85258	0.00459
6518.92391	0.00461
6516.99523	0.00461
6515.06656	0.00460
6513.13788	0.00460
6511.20921	0.00461
6509.28053	0.00463
6507.35185	0.00466
6505.42318	0.00467
6503.49450	0.00467
6501.56583	0.00467
6499.63715	0.00468
6497.70848	0.00469
6495.77980	0.00471
6493.85112	0.00473
6491.92245	0.00475
6489.99377	0.00473
6488.06510	0.00471
6486.13642	0.00471
6484.20775	0.00472
6482.27907	0.00472
6480.35039	0.00473
6478.42172	0.00476
6476.49304	0.00479
6474.56437	0.00481
6472.63569	0.00482
6470.70702	0.00483
6468.77834	0.00485
6466.84966	0.00487
6464.92099	0.00488
6462.99231	0.00486
6461.06364	0.00485
6459.13496	0.00487
6457.20629	0.00489
6455.27761	0.00491
6453.34893	0.00491
6451.42026	0.00490
6449.49158	0.00490
6447.56291	0.00492
6445.63423	0.00494
6443.70556	0.00496
6441.77688	0.00499
6439.84820	0.00500
6437.91953	0.00502
6435.99085	0.00503
6434.06218	0.00503
6432.13350	0.00503
6430.20483	0.00504
6428.27615	0.00505
6426.34747	0.00505
6424.41880	0.00505
6422.49012	0.00506
6420.56145	0.00509
6418.63277	0.00511
6416.70410	0.00511
6414.77542	0.00511
6412.84674	0.00511
6410.91807	0.00511
6408.98939	0.00514
6407.06072	0.00517
6405.13204	0.00518
6403.20337	0.00517
6401.27469	0.00515
6399.34601	0.00516
6397.41734	0.00518
6395.48866	0.00519
6393.55999	0.00520
6391.63131	0.00522
6389.70264	0.00526
6387.77396	0.00529
6385.84528	0.00529
6383.91661	0.00529
6381.98793	0.00528
6380.05926	0.00530
6378.13058	0.00532
6376.20191	0.00532
6374.27323	0.00532
6372.34455	0.00533
6370.41588	0.00533
6368.48720	0.00534
6366.55853	0.00536
6364.62985	0.00540
6362.70118	0.00544
6360.77250	0.00546
6358.84382	0.00546
6356.91515	0.00544
6354.98647	0.00542
6353.05780	0.00545
6351.12912	0.00549
6349.20045	0.00552
6347.27177	0.00552
6345.34309	0.00553
6343.41442	0.00554
6341.48574	0.00555
6339.55707	0.00556
6337.62839	0.00556
6335.69972	0.00558
6333.77104	0.00559
6331.84236	0.00560
6329.91369	0.00560
6327.98501	0.00562
6326.05634	0.00565
6324.12766	0.00567
6322.19899	0.00567
6320.27031	0.00567
6318.34163	0.00569
6316.41296	0.00572
6314.48428	0.00574
6312.55561	0.00574
6310.62693	0.00573
6308.69826	0.00573
6306.76958	0.00574
6304.84090	0.00575
6302.91223	0.00576
6300.98355	0.00577
6299.05488	0.00578
6297.12620	0.00579
6295.19753	0.00582
6293.26885	0.00583
6291.34017	0.00582
6289.41150	0.00583
6287.48282	0.00585
6285.55415	0.00587
6283.62547	0.00590
6281.69680	0.00592
6279.76812	0.00591
6277.83944	0.00590
6275.91077	0.00592
6273.98209	0.00596
6272.05342	0.00599
6270.12474	0.00601
6268.19607	0.00603
6266.26739	0.00604
6264.33871	0.00605
6262.41004	0.00607
6260.48136	0.00608
6258.55269	0.00608
6256.62401	0.00609
6254.69534	0.00610
6252.76666	0.00611
6250.83798	0.00611
6248.90931	0.00612
6246.98063	0.00614
6245.05196	0.00615
6243.12328	0.00615
6241.19461	0.00617
6239.26593	0.00620
6237.33725	0.00623
6235.40858	0.00624
6233.47990	0.00623
6231.55123	0.00621
6229.62255	0.00622
6227.69388	0.00624
6225.76520	0.00626
6223.83652	0.00628
6221.90785	0.00629
6219.97917	0.00630
6218.05050	0.00629
6216.12182	0.00631
6214.19315	0.00634
6212.26447	0.00639
6210.33579	0.00642
6208.40712	0.00642
6206.47844	0.00639
6204.54977	0.00637
6202.62109	0.00638
6200.69242	0.00641
6198.76374	0.00645
6196.83506	0.00646
6194.90639	0.00645
6192.97771	0.00646
6191.04904	0.00647
6189.12036	0.00651
6187.19169	0.00655
6185.26301	0.00655
6183.33433	0.00655
6181.40566	0.00656
6179.47698	0.00657
6177.54831	0.00657
6175.61963	0.00658
6173.69096	0.00658
6171.76228	0.00661
6169.83360	0.00664
6167.90493	0.00665
6165.97625	0.00665
6164.04758	0.00667
6162.11890	0.00671
6160.19023	0.00675
6158.26155	0.00677
6156.33287	0.00676
6154.40420	0.00675
6152.47552	0.00675
6150.54685	0.00674
6148.61817	0.00676
6146.68950	0.00679
6144.76082	0.00680
6142.83214	0.00682
6140.90347	0.00686
6138.97479	0.00688
6137.04612	0.00687
6135.11744	0.00687
6133.18877	0.00689
6131.26009	0.00692
6129.33141	0.00695
6127.40274	0.00698
6125.47406	0.00700
6123.54539	0.00700
6121.61671	0.00700
6119.68804	0.00700
6117.75936	0.00703
6115.83068	0.00706
6113.90201	0.00708
6111.97333	0.00708
6110.04466	0.00710
6108.11598	0.00711
6106.18731	0.00709
6104.25863	0.00710
6102.32995	0.00715
6100.40128	0.00720
6098.47260	0.00721
6096.54393	0.00719
6094.61525	0.00720
6092.68658	0.00723
6090.75790	0.00725
6088.82922	0.00726
6086.90055	0.00728
6084.97187	0.00730
6083.04320	0.00732
6081.11452	0.00732
6079.18585	0.00732
6077.25717	0.00734
6075.32849	0.00736
6073.39982	0.00739
6071.47114	0.00741
6069.54247	0.00743
6067.61379	0.00743
6065.68512	0.00745
6063.75644	0.00746
6061.82776	0.00746
6059.89909	0.00747
6057.97041	0.00749
6056.04174	0.00751
6054.11306	0.00752
6052.18439	0.00755
6050.25571	0.00758
6048.32703	0.00761
6046.39836	0.00762
6044.46968	0.00764
6042.54101	0.00766
6040.61233	0.00765
6038.68366	0.00764
6036.75498	0.00766
6034.82630	0.00769
6032.89763	0.00771
6030.96895	0.00773
6029.04028	0.00773
6027.11160	0.00773
6025.18293	0.00774
6023.25425	0.00777
6021.32557	0.00779
6019.39690	0.00780
6017.46822	0.00782
6015.53955	0.00784
6013.61087	0.00785
6011.68220	0.00785
6009.75352	0.00786
6007.82484	0.00789
6005.89617	0.00793
6003.96749	0.00795
6002.03882	0.00795
6000.11014	0.00796
5998.18147	0.00799
5996.25279	0.00802
5994.32411	0.00803
5992.39544	0.00803
5990.46676	0.00805
5988.53809	0.00809
5986.60941	0.00813
5984.68074	0.00817
5982.75206	0.00819
5980.82338	0.00819
5978.89471	0.00818
5976.96603	0.00819
5975.03736	0.00822
5973.10868	0.00825
5971.18001	0.00825
5969.25133	0.00826
5967.32265	0.00828
5965.39398	0.00831
5963.46530	0.00835
5961.53663	0.00838
5959.60795	0.00841
5957.67928	0.00840
5955.75060	0.00839
5953.82192	0.00839
5951.89325	0.00840
5949.96457	0.00841
5948.03590	0.00844
5946.10722	0.00849
5944.17855	0.00850
5942.24987	0.00849
5940.32119	0.00849
5938.39252	0.00853
5936.46384	0.00855
5934.53517	0.00857
5932.60649	0.00859
5930.67782	0.00861
5928.74914	0.00863
5926.82046	0.00865
5924.89179	0.00866
5922.96311	0.00866
5921.03444	0.00867
5919.10576	0.00870
5917.17709	0.00874
5915.24841	0.00877
5913.31973	0.00880
5911.39106	0.00881
5909.46238	0.00882
5907.53371	0.00883
5905.60503	0.00884
5903.67636	0.00886
5901.74768	0.00887
5899.81900	0.00889
5897.89033	0.00891
5895.96165	0.00894
5894.03298	0.00897
5892.10430	0.00901
5890.17563	0.00903
5888.24695	0.00903
5886.31827	0.00902
5884.38960	0.00903
5882.46092	0.00906
5880.53225	0.00908
5878.60357	0.00909
5876.67490	0.00908
5874.74622	0.00909
5872.81755	0.00912
5870.88887	0.00916
5868.96019	0.00918
5867.03152	0.00920
5865.10284	0.00921
5863.17417	0.00923
5861.24549	0.00924
5859.31682	0.00925
5857.38814	0.00926
5855.45946	0.00927
5853.53079	0.00931
5851.60211	0.00936
5849.67344	0.00938
5847.74476	0.00937
5845.81609	0.00939
5843.88741	0.00944
5841.95873	0.00947
5840.03006	0.00949
5838.10138	0.00951
5836.17271	0.00952
5834.24403	0.00953
5832.31536	0.00954
5830.38668	0.00956
5828.45800	0.00956
5826.52933	0.00957
5824.60065	0.00962
5822.67198	0.00967
5820.74330	0.00970
5818.81463	0.00970
5816.88595	0.00969
5814.95727	0.00967
5813.02860	0.00965
5811.09992	0.00966
5809.17125	0.00969
5807.24257	0.00975
5805.31390	0.00980
5803.38522	0.00984
5801.45654	0.00988
5799.52787	0.00992
5797.59919	0.00995
5795.67052	0.00997
5793.74184	0.00997
5791.81317	0.00997
5789.88449	0.00997
5787.95581	0.00997
5786.02714	0.00999
5784.09846	0.01003
5782.16979	0.01005
5780.24111	0.01008
5778.31244	0.01012
5776.38376	0.01014
5774.45508	0.01016
5772.52641	0.01018
5770.59773	0.01020
5768.66906	0.01022
5766.74038	0.01024
5764.81171	0.01026
5762.88303	0.01026
5760.95435	0.01027
5759.02568	0.01030
5757.09700	0.01032
5755.16833	0.01033
5753.23965	0.01035
5751.31098	0.01038
5749.38230	0.01041
5747.45362	0.01042
5745.52495	0.01043
5743.59627	0.01046
5741.66760	0.01050
5739.73892	0.01054
5737.81025	0.01057
5735.88157	0.01058
5733.95289	0.01057
5732.02422	0.01058
5730.09554	0.01060
5728.16687	0.01062
5726.23819	0.01065
5724.30952	0.01068
5722.38084	0.01072
5720.45216	0.01074
5718.52349	0.01076
5716.59481	0.01077
5714.66614	0.01078
5712.73746	0.01079
5710.80879	0.01078
5708.88011	0.01080
5706.95143	0.01084
5705.02276	0.01088
5703.09408	0.01091
5701.16541	0.01095
5699.23673	0.01099
5697.30806	0.01101
5695.37938	0.01101
5693.45070	0.01102
5691.52203	0.01104
5689.59335	0.01106
5687.66468	0.01107
5685.73600	0.01109
5683.80733	0.01113
5681.87865	0.01116
5679.94997	0.01119
5678.02130	0.01121
5676.09262	0.01124
5674.16395	0.01126
5672.23527	0.01125
5670.30660	0.01124
5668.37792	0.01125
5666.44924	0.01128
5664.52057	0.01133
5662.59189	0.01137
5660.66322	0.01140
5658.73454	0.01141
5656.80587	0.01144
5654.87719	0.01147
5652.94851	0.01150
5651.01984	0.01153
5649.09116	0.01156
5647.16249	0.01157
5645.23381	0.01158
5643.30514	0.01159
5641.37646	0.01162
5639.44778	0.01164
5637.51911	0.01165
5635.59043	0.01168
5633.66176	0.01173
5631.73308	0.01178
5629.80441	0.01181
5627.87573	0.01183
5625.94705	0.01184
5624.01838	0.01183
5622.08970	0.01185
5620.16103	0.01189
5618.23235	0.01194
5616.30368	0.01195
5614.37500	0.01194
5612.44632	0.01195
5610.51765	0.01199
5608.58897	0.01203
5606.66030	0.01205
5604.73162	0.01205
5602.80295	0.01208
5600.87427	0.01213
5598.94559	0.01216
5597.01692	0.01217
5595.08824	0.01218
5593.15957	0.01219
5591.23089	0.01222
5589.30222	0.01226
5587.37354	0.01229
5585.44486	0.01230
5583.51619	0.01230
5581.58751	0.01231
5579.65884	0.01234
5577.73016	0.01238
5575.80149	0.01244
5573.87281	0.01248
5571.94413	0.01249
5570.01546	0.01249
5568.08678	0.01250
5566.15811	0.01252
5564.22943	0.01255
5562.30076	0.01257
5560.37208	0.01260
5558.44340	0.01263
5556.51473	0.01265
5554.58605	0.01269
5552.65738	0.01272
5550.72870	0.01274
5548.80003	0.01276
5546.87135	0.01278
5544.94267	0.01279
5543.01400	0.01282
5541.08532	0.01287
5539.15665	0.01290
5537.22797	0.01290
5535.29930	0.01293
5533.37062	0.01298
5531.44194	0.01301
5529.51327	0.01302
5527.58459	0.01303
5525.65592	0.01304
5523.72724	0.01306
5521.79857	0.01307
5519.86989	0.01309
5517.94121	0.01313
5516.01254	0.01316
5514.08386	0.01317
5512.15519	0.01321
5510.22651	0.01326
5508.29784	0.01327
5506.36916	0.01327
5504.44048	0.01329
5502.51181	0.01333
5500.58313	0.01337
5498.65446	0.01340
5496.72578	0.01343
5494.79711	0.01345
5492.86843	0.01347
5490.93975	0.01349
5489.01108	0.01352
5487.08240	0.01356
5485.15373	0.01361
5483.22505	0.01365
5481.29638	0.01366
5479.36770	0.01367
5477.43902	0.01368
5475.51035	0.01369
5473.58167	0.01373
5471.65300	0.01377
5469.72432	0.01380
5467.79565	0.01382
5465.86697	0.01384
5463.93829	0.01386
5462.00962	0.01388
5460.08094	0.01391
5458.15227	0.01394
5456.22359	0.01396
5454.29492	0.01399
5452.36624	0.01401
5450.43756	0.01402
5448.50889	0.01404
5446.58021	0.01407
5444.65154	0.01410
5442.72286	0.01411
5440.79419	0.01412
5438.86551	0.01416
5436.93683	0.01419
5435.00816	0.01420
5433.07948	0.01422
5431.15081	0.01426
5429.22213	0.01429
5427.29346	0.01433
5425.36478	0.01436
5423.43610	0.01440
5421.50743	0.01445
5419.57875	0.01448
5417.65008	0.01451
5415.72140	0.01453
5413.79273	0.01454
5411.86405	0.01458
5409.93537	0.01463
5408.00670	0.01466
5406.07802	0.01465
5404.14935	0.01467
5402.22067	0.01469
5400.29200	0.01471
5398.36332	0.01473
5396.43464	0.01474
5394.50597	0.01477
5392.57729	0.01481
5390.64862	0.01486
5388.71994	0.01490
5386.79127	0.01492
5384.86259	0.01492
5382.93391	0.01494
5381.00524	0.01497
5379.07656	0.01497
5377.14789	0.01500
5375.21921	0.01506
5373.29054	0.01512
5371.36186	0.01516
5369.43318	0.01516
5367.50451	0.01514
5365.57583	0.01516
5363.64716	0.01523
5361.71848	0.01530
5359.78981	0.01534
5357.86113	0.01536
5355.93245	0.01536
5354.00378	0.01537
5352.07510	0.01538
5350.14643	0.01541
5348.21775	0.01544
5346.28908	0.01546
5344.36040	0.01549
5342.43172	0.01553
5340.50305	0.01557
5338.57437	0.01559
5336.64570	0.01562
5334.71702	0.01567
5332.78835	0.01570
5330.85967	0.01571
5328.93099	0.01573
5327.00232	0.01575
5325.07364	0.01578
5323.14497	0.01582
5321.21629	0.01586
5319.28762	0.01589
5317.35894	0.01593
5315.43026	0.01595
5313.50159	0.01599
5311.57291	0.01603
5309.64424	0.01608
5307.71556	0.01612
5305.78689	0.01614
5303.85821	0.01615
5301.92953	0.01616
5300.00086	0.01618
5298.07218	0.01621
5296.14351	0.01623
5294.21483	0.01624
5292.28616	0.01625
5290.35748	0.01626
5288.42880	0.01629
5286.50013	0.01634
5284.57145	0.01638
5282.64278	0.01643
5280.71410	0.01647
5278.78543	0.01652
5276.85675	0.01655
5274.92807	0.01657
5272.99940	0.01661
5271.07072	0.01663
5269.14205	0.01664
5267.21337	0.01665
5265.28470	0.01669
5263.35602	0.01673
5261.42734	0.01678
5259.49867	0.01681
5257.56999	0.01683
5255.64132	0.01682
5253.71264	0.01684
5251.78397	0.01687
5249.85529	0.01692
5247.92661	0.01696
5245.99794	0.01697
5244.06926	0.01698
5242.14059	0.01700
5240.21191	0.01705
5238.28324	0.01712
5236.35456	0.01716
5234.42588	0.01718
5232.49721	0.01719
5230.56853	0.01721
5228.63986	0.01724
5226.71118	0.01729
5224.78251	0.01731
5222.85383	0.01731
5220.92515	0.01731
5218.99648	0.01734
5217.06780	0.01740
5215.13913	0.01746
5213.21045	0.01751
5211.28178	0.01754
5209.35310	0.01756
5207.42442	0.01757
5205.49575	0.01759
5203.56707	0.01763
5201.63840	0.01765
5199.70972	0.01766
5197.78105	0.01766
5195.85237	0.01769
5193.92369	0.01774
5191.99502	0.01777
5190.06634	0.01780
5188.13767	0.01784
5186.20899	0.01788
5184.28032	0.01790
5182.35164	0.01794
5180.42296	0.01798
5178.49429	0.01804
5176.56561	0.01808
5174.63694	0.01811
5172.70826	0.01816
5170.77959	0.01822
5168.85091	0.01824
5166.92223	0.01828
5164.99356	0.01831
5163.06488	0.01832
5161.13621	0.01831
5159.20753	0.01832
5157.27886	0.01834
5155.35018	0.01838
5153.42150	0.01842
5151.49283	0.01847
5149.56415	0.01850
5147.63548	0.01853
5145.70680	0.01856
5143.77813	0.01862
5141.84945	0.01866
5139.92077	0.01866
5137.99210	0.01866
5136.06342	0.01870
5134.13475	0.01874
5132.20607	0.01876
5130.27740	0.01876
5128.34872	0.01878
5126.42004	0.01882
5124.49137	0.01887
5122.56269	0.01891
5120.63402	0.01893
5118.70534	0.01898
5116.77667	0.01903
5114.84799	0.01909
5112.91931	0.01913
5110.99064	0.01915
5109.06196	0.01917
5107.13329	0.01919
5105.20461	0.01920
5103.27594	0.01920
5101.34726	0.01924
5099.41858	0.01929
5097.48991	0.01933
5095.56123	0.01935
5093.63256	0.01939
5091.70388	0.01942
5089.77521	0.01946
5087.84653	0.01948
5085.91785	0.01950
5083.98918	0.01954
5082.06050	0.01961
5080.13183	0.01966
5078.20315	0.01969
5076.27448	0.01972
5074.34580	0.01976
5072.41712	0.01979
5070.48845	0.01983
5068.55977	0.01988
5066.63110	0.01990
5064.70242	0.01992
5062.77375	0.01994
5060.84507	0.01996
5058.91639	0.01998
5056.98772	0.02000
5055.05904	0.02004
5053.13037	0.02010
5051.20169	0.02014
5049.27302	0.02016
5047.34434	0.02017
5045.41566	0.02020
5043.48699	0.02025
5041.55831	0.02030
5039.62964	0.02036
5037.70096	0.02039
5035.77229	0.02037
5033.84361	0.02037
5031.91493	0.02040
5029.98626	0.02045
5028.05758	0.02050
5026.12891	0.02053
5024.20023	0.02056
5022.27156	0.02060
5020.34288	0.02060
5018.41420	0.02061
5016.48553	0.02065
5014.55685	0.02071
5012.62818	0.02077
5010.69950	0.02084
5008.77083	0.02090
5006.84215	0.02090
5004.91347	0.02091
5002.98480	0.02095
5001.05612	0.02100
4999.12745	0.02102
4997.19877	0.02103
4995.27010	0.02107
4993.34142	0.02113
4991.41274	0.02118
4989.48407	0.02121
4987.55539	0.02124
4985.62672	0.02130
4983.69804	0.02136
4981.76937	0.02137
4979.84069	0.02137
4977.91201	0.02137
4975.98334	0.02138
4974.05466	0.02144
4972.12599	0.02152
4970.19731	0.02155
4968.26864	0.02154
4966.33996	0.02154
4964.41128	0.02159
4962.48261	0.02166
4960.55393	0.02172
4958.62526	0.02177
4956.69658	0.02181
4954.76791	0.02184
4952.83923	0.02187
4950.91055	0.02189
4948.98188	0.02192
4947.05320	0.02195
4945.12453	0.02196
4943.19585	0.02200
4941.26718	0.02206
4939.33850	0.02212
4937.40982	0.02216
4935.48115	0.02216
4933.55247	0.02217
4931.62380	0.02222
4929.69512	0.02226
4927.76645	0.02228
4925.83777	0.02230
4923.90909	0.02236
4921.98042	0.02242
4920.05174	0.02246
4918.12307	0.02248
4916.19439	0.02253
4914.26572	0.02257
4912.33704	0.02259
4910.40836	0.02261
4908.47969	0.02263
4906.55101	0.02267
4904.62234	0.02273
4902.69366	0.02277
4900.76499	0.02278
4898.83631	0.02280
4896.90763	0.02285
4894.97896	0.02291
4893.05028	0.02294
4891.12161	0.02297
4889.19293	0.02300
4887.26426	0.02303
4885.33558	0.02308
4883.40690	0.02313
4881.47823	0.02318
4879.54955	0.02321
4877.62088	0.02323
4875.69220	0.02325
4873.76353	0.02328
4871.83485	0.02333
4869.90617	0.02340
4867.97750	0.02344
4866.04882	0.02347
4864.12015	0.02351
4862.19147	0.02354
4860.26280	0.02355
4858.33412	0.02358
4856.40544	0.02363
4854.47677	0.02367
4852.54809	0.02372
4850.61942	0.02377
4848.69074	0.02380
4846.76207	0.02382
4844.83339	0.02387
4842.90471	0.02392
4840.97604	0.02396
4839.04736	0.02400
4837.11869	0.02403
4835.19001	0.02403
4833.26134	0.02403
4831.33266	0.02407
4829.40398	0.02412
4827.47531	0.02417
4825.54663	0.02423
4823.61796	0.02430
4821.68928	0.02434
4819.76061	0.02436
4817.83193	0.02439
4815.90325	0.02444
4813.97458	0.02447
4812.04590	0.02451
4810.11723	0.02458
4808.18855	0.02463
4806.25988	0.02465
4804.33120	0.02466
4802.40252	0.02470
4800.47385	0.02475
4798.54517	0.02480
4796.61650	0.02486
4794.68782	0.02490
4792.75915	0.02491
4790.83047	0.02492
4788.90179	0.02496
4786.97312	0.02501
4785.04444	0.02507
4783.11577	0.02514
4781.18709	0.02519
4779.25842	0.02521
4777.32974	0.02523
4775.40106	0.02526
4773.47239	0.02530
4771.54371	0.02533
4769.61504	0.02534
4767.68636	0.02536
4765.75769	0.02540
4763.82901	0.02548
4761.90033	0.02557
4759.97166	0.02562
4758.04298	0.02564
4756.11431	0.02566
4754.18563	0.02571
4752.25696	0.02576
4750.32828	0.02579
4748.39960	0.02582
4746.47093	0.02585
4744.54225	0.02590
4742.61358	0.02596
4740.68490	0.02603
4738.75623	0.02606
4736.82755	0.02609
4734.89887	0.02612
4732.97020	0.02616
4731.04152	0.02620
4729.11285	0.02624
4727.18417	0.02627
4725.25550	0.02631
4723.32682	0.02638
4721.39814	0.02645
4719.46947	0.02648
4717.54079	0.02650
4715.61212	0.02654
4713.68344	0.02656
4711.75477	0.02658
4709.82609	0.02662
4707.89741	0.02669
4705.96874	0.02672
4704.04006	0.02674
4702.11139	0.02677
4700.18271	0.02682
4698.25404	0.02689
4696.32536	0.02697
4694.39668	0.02701
4692.46801	0.02702
4690.53933	0.02704
4688.61066	0.02710
4686.68198	0.02717
4684.75331	0.02721
4682.82463	0.02726
4680.89595	0.02732
4678.96728	0.02736
4677.03860	0.02738
4675.10993	0.02741
4673.18125	0.02746
4671.25258	0.02749
4669.32390	0.02753
4667.39522	0.02758
4665.46655	0.02763
4663.53787	0.02769
4661.60920	0.02772
4659.68052	0.02775
4657.75185	0.02779
4655.82317	0.02784
4653.89449	0.02789
4651.96582	0.02793
4650.03714	0.02796
4648.10847	0.02800
4646.17979	0.02806
4644.25112	0.02812
4642.32244	0.02815
4640.39376	0.02819
4638.46509	0.02824
4636.53641	0.02829
4634.60774	0.02834
4632.67906	0.02839
4630.75039	0.02843
4628.82171	0.02847
4626.89303	0.02852
4624.96436	0.02857
4623.03568	0.02860
4621.10701	0.02863
4619.17833	0.02871
4617.24966	0.02880
4615.32098	0.02886
4613.39230	0.02889
4611.46363	0.02893
4609.53495	0.02898
4607.60628	0.02901
4605.67760	0.02904
4603.74893	0.02911
4601.82025	0.02919
4599.89157	0.02924
4597.96290	0.02926
4596.03422	0.02929
4594.10555	0.02934
4592.17687	0.02936
4590.24820	0.02939
4588.31952	0.02942
4586.39084	0.02948
4584.46217	0.02956
4582.53349	0.02967
4580.60482	0.02975
4578.67614	0.02980
4576.74747	0.02982
4574.81879	0.02983
4572.89011	0.02988
4570.96144	0.02995
4569.03276	0.03001
4567.10409	0.03006
4565.17541	0.03011
4563.24674	0.03015
4561.31806	0.03018
4559.38938	0.03021
4557.46071	0.03026
4555.53203	0.03033
4553.60336	0.03040
4551.67468	0.03043
4549.74601	0.03045
4547.81733	0.03048
4545.88865	0.03054
4543.95998	0.03062
4542.03130	0.03068
4540.10263	0.03072
4538.17395	0.03076
4536.24528	0.03082
4534.31660	0.03090
4532.38792	0.03097
4530.45925	0.03101
4528.53057	0.03104
4526.60190	0.03109
4524.67322	0.03115
4522.74455	0.03120
4520.81587	0.03125
4518.88719	0.03132
4516.95852	0.03138
4515.02984	0.03142
4513.10117	0.03146
4511.17249	0.03152
4509.24382	0.03158
4507.31514	0.03161
4505.38646	0.03165
4503.45779	0.03169
4501.52911	0.03174
4499.60044	0.03180
4497.67176	0.03188
4495.74309	0.03193
4493.81441	0.03194
4491.88573	0.03196
4489.95706	0.03203
4488.02838	0.03211
4486.09971	0.03219
4484.17103	0.03223
4482.24236	0.03227
4480.31368	0.03232
4478.38500	0.03240
4476.45633	0.03245
4474.52765	0.03248
4472.59898	0.03251
4470.67030	0.03256
4468.74163	0.03265
4466.81295	0.03272
4464.88427	0.03276
4462.95560	0.03282
4461.02692	0.03288
4459.09825	0.03293
4457.16957	0.03299
4455.24090	0.03306
4453.31222	0.03314
4451.38354	0.03320
4449.45487	0.03327
4447.52619	0.03335
4445.59752	0.03341
4443.66884	0.03345
4441.74017	0.03348
4439.81149	0.03353
4437.88281	0.03360
4435.95414	0.03367
4434.02546	0.03373
4432.09679	0.03376
4430.16811	0.03377
4428.23944	0.03378
4426.31076	0.03384
4424.38208	0.03394
4422.45341	0.03402
4420.52473	0.03408
4418.59606	0.03416
4416.66738	0.03423
4414.73871	0.03428
4412.81003	0.03433
4410.88135	0.03437
4408.95268	0.03442
4407.02400	0.03450
4405.09533	0.03458
4403.16665	0.03462
4401.23798	0.03466
4399.30930	0.03473
4397.38062	0.03479
4395.45195	0.03487
4393.52327	0.03498
4391.59460	0.03506
4389.66592	0.03511
4387.73725	0.03514
4385.80857	0.03520
4383.87989	0.03527
4381.95122	0.03532
4380.02254	0.03537
4378.09387	0.03543
4376.16519	0.03549
4374.23652	0.03556
4372.30784	0.03563
4370.37916	0.03572
4368.45049	0.03579
4366.52181	0.03582
4364.59314	0.03586
4362.66446	0.03591
4360.73579	0.03597
4358.80711	0.03604
4356.87843	0.03611
4354.94976	0.03617
4353.02108	0.03625
4351.09241	0.03633
4349.16373	0.03638
4347.23506	0.03641
4345.30638	0.03646
4343.37770	0.03653
4341.44903	0.03661
4339.52035	0.03668
4337.59168	0.03676
4335.66300	0.03685
4333.73433	0.03694
4331.80565	0.03698
4329.87697	0.03700
4327.94830	0.03706
4326.01962	0.03716
4324.09095	0.03725
4322.16227	0.03733
4320.23360	0.03739
4318.30492	0.03740
4316.37624	0.03745
4314.44757	0.03756
4312.51889	0.03769
4310.59022	0.03777
4308.66154	0.03781
4306.73287	0.03784
4304.80419	0.03790
4302.87551	0.03798
4300.94684	0.03806
4299.01816	0.03814
4297.08949	0.03822
4295.16081	0.03829
4293.23214	0.03837
4291.30346	0.03847
4289.37478	0.03853
4287.44611	0.03856
4285.51743	0.03860
4283.58876	0.03865
4281.66008	0.03874
4279.73141	0.03884
4277.80273	0.03893
4275.87405	0.03900
4273.94538	0.03906
4272.01670	0.03912
4270.08803	0.03916
4268.15935	0.03920
4266.23068	0.03927
4264.30200	0.03936
4262.37332	0.03944
4260.44465	0.03949
4258.51597	0.03954
4256.58730	0.03960
4254.65862	0.03967
4252.72995	0.03976
4250.80127	0.03986
4248.87259	0.03996
4246.94392	0.04004
4245.01524	0.04010
4243.08657	0.04016
4241.15789	0.04024
4239.22922	0.04030
4237.30054	0.04036
4235.37186	0.04043
4233.44319	0.04050
4231.51451	0.04058
4229.58584	0.04064
4227.65716	0.04069
4225.72849	0.04076
4223.79981	0.04087
4221.87113	0.04095
4219.94246	0.04097
4218.01378	0.04101
4216.08511	0.04110
4214.15643	0.04122
4212.22776	0.04135
4210.29908	0.04146
4208.37040	0.04153
4206.44173	0.04158
4204.51305	0.04164
4202.58438	0.04172
4200.65570	0.04179
4198.72703	0.04187
4196.79835	0.04197
4194.86968	0.04205
4192.94100	0.04210
4191.01232	0.04218
4189.08365	0.04227
4187.15497	0.04233
4185.22630	0.04240
4183.29762	0.04250
4181.36895	0.04259
4179.44027	0.04266
4177.51159	0.04275
4175.58292	0.04283
4173.65424	0.04289
4171.72557	0.04296
4169.79689	0.04304
4167.86822	0.04313
4165.93954	0.04324
4164.01086	0.04336
4162.08219	0.04346
4160.15351	0.04353
4158.22484	0.04356
4156.29616	0.04362
4154.36749	0.04369
4152.43881	0.04376
4150.51013	0.04382
4148.58146	0.04390
4146.65278	0.04400
4144.72411	0.04408
4142.79543	0.04417
4140.86676	0.04427
4138.93808	0.04436
4137.00940	0.04444
4135.08073	0.04453
4133.15205	0.04464
4131.22338	0.04472
4129.29470	0.04478
4127.36603	0.04485
4125.43735	0.04493
4123.50867	0.04500
4121.58000	0.04509
4119.65132	0.04518
4117.72265	0.04526
4115.79397	0.04533
4113.86530	0.04543
4111.93662	0.04552
4110.00794	0.04562
4108.07927	0.04571
4106.15059	0.04580
4104.22192	0.04589
4102.29324	0.04597
4100.36457	0.04605
4098.43589	0.04611
4096.50721	0.04617
4094.57854	0.04623
4092.64986	0.04631
4090.72119	0.04641
4088.79251	0.04648
4086.86384	0.04658
4084.93516	0.04673
4083.00648	0.04687
4081.07781	0.04693
4079.14913	0.04699
4077.22046	0.04712
4075.29178	0.04725
4073.36311	0.04730
4071.43443	0.04733
4069.50575	0.04739
4067.57708	0.04747
4065.64840	0.04757
4063.71973	0.04770
4061.79105	0.04785
4059.86238	0.04795
4057.93370	0.04800
4056.00502	0.04806
4054.07635	0.04814
4052.14767	0.04825
4050.21900	0.04834
4048.29032	0.04843
4046.36165	0.04853
4044.43297	0.04865
4042.50429	0.04874
4040.57562	0.04882
4038.64694	0.04891
4036.71827	0.04899
4034.78959	0.04906
4032.86092	0.04913
4030.93224	0.04926
4029.00356	0.04942
4027.07489	0.04954
4025.14621	0.04959
4023.21754	0.04964
4021.28886	0.04972
4019.36019	0.04980
4017.43151	0.04987
4015.50283	0.04995
4013.57416	0.05005
4011.64548	0.05017
4009.71681	0.05026
4007.78813	0.05032
4005.85946	0.05039
4003.93078	0.05053
4002.00210	0.05068
4000.07343	0.05079
3998.14475	0.05086
3996.21608	0.05093
3994.28740	0.05103
3992.35873	0.05116
3990.43005	0.05129
3988.50137	0.05138
3986.57270	0.05146
3984.64402	0.05156
3982.71535	0.05167
3980.78667	0.05175
3978.85800	0.05183
3976.92932	0.05190
3975.00064	0.05197
3973.07197	0.05208
3971.14329	0.05222
3969.21462	0.05231
3967.28594	0.05237
3965.35727	0.05242
3963.42859	0.05252
3961.49991	0.05266
3959.57124	0.05278
3957.64256	0.05289
3955.71389	0.05300
3953.78521	0.05310
3951.85654	0.05316
3949.92786	0.05325
3947.99918	0.05336
3946.07051	0.05345
3944.14183	0.05353
3942.21316	0.05364
3940.28448	0.05381
3938.35581	0.05395
3936.42713	0.05404
3934.49845	0.05408
3932.56978	0.05409
3930.64110	0.05417
3928.71243	0.05430
3926.78375	0.05444
3924.85508	0.05459
3922.92640	0.05472
3920.99772	0.05478
3919.06905	0.05481
3917.14037	0.05490
3915.21170	0.05506
3913.28302	0.05521
3911.35435	0.05531
3909.42567	0.05537
3907.49699	0.05537
3905.56832	0.05534
3903.63964	0.05535
3901.71097	0.05545
3899.78229	0.05563
3897.85362	0.05587
3895.92494	0.05605
3893.99626	0.05611
3892.06759	0.05617
3890.13891	0.05631
3888.21024	0.05641
3886.28156	0.05644
3884.35289	0.05655
3882.42421	0.05670
3880.49553	0.05683
3878.56686	0.05701
3876.63818	0.05714
3874.70951	0.05717
3872.78083	0.05717
3870.85216	0.05721
3868.92348	0.05733
3866.99480	0.05748
3865.06613	0.05759
3863.13745	0.05772
3861.20878	0.05790
3859.28010	0.05804
3857.35143	0.05799
3855.42275	0.05776
3853.49407	0.05773
3851.56540	0.05812
3849.63672	0.05860
3847.70805	0.05887
3845.77937	0.05892
3843.85070	0.05890
3841.92202	0.05890
3839.99334	0.05894
3838.06467	0.05904
3836.13599	0.05921
3834.20732	0.05936
3832.27864	0.05947
3830.34997	0.05962
3828.42129	0.05979
3826.49261	0.05992
3824.56394	0.05999
3822.63526	0.06000
3820.70659	0.06008
3818.77791	0.06025
3816.84924	0.06037
3814.92056	0.06052
3812.99188	0.06076
3811.06321	0.06092
3809.13453	0.06096
3807.20586	0.06102
3805.27718	0.06111
3803.34851	0.06114
3801.41983	0.06117
3799.49115	0.06135
3797.56248	0.06154
3795.63380	0.06169
3793.70513	0.06189
3791.77645	0.06209
3789.84778	0.06223
3787.91910	0.06233
3785.99042	0.06239
3784.06175	0.06247
3782.13307	0.06255
3780.20440	0.06264
3778.27572	0.06279
3776.34705	0.06295
3774.41837	0.06307
3772.48969	0.06313
3770.56102	0.06317
3768.63234	0.06326
3766.70367	0.06340
3764.77499	0.06355
3762.84632	0.06368
3760.91764	0.06375
3758.98896	0.06386
3757.06029	0.06399
3755.13161	0.06401
3753.20294	0.06391
3751.27426	0.06384
3749.34559	0.06394
3747.41691	0.06406
3745.48823	0.06407
3743.55956	0.06428
3741.63088	0.06470
3739.70221	0.06491
3737.77353	0.06484
3735.84486	0.06484
3733.91618	0.06504
3731.98750	0.06536
3730.05883	0.06563
3728.13015	0.06577
3726.20148	0.06584
3724.27280	0.06595
3722.34413	0.06610
3720.41545	0.06624
3718.48677	0.06638
3716.55810	0.06650
3714.62942	0.06653
3712.70075	0.06650
3710.77207	0.06657
3708.84340	0.06680
3706.91472	0.06707
3704.98604	0.06722
3703.05737	0.06725
3701.12869	0.06733
3699.20002	0.06750
3697.27134	0.06769
3695.34267	0.06786
3693.41399	0.06792
3691.48531	0.06787
3689.55664	0.06786
3687.62796	0.06802
3685.69929	0.06828
3683.77061	0.06846
3681.84194	0.06854
3679.91326	0.06853
3677.98458	0.06844
3676.05591	0.06842
3674.12723	0.06861
3672.19856	0.06884
3670.26988	0.06898
3668.34121	0.06920
3666.41253	0.06949
3664.48385	0.06970
3662.55518	0.06984
3660.62650	0.06992
3658.69783	0.06993
3656.76915	0.06992
3654.84048	0.06999
3652.91180	0.06996
3650.98312	0.06975
3649.05445	0.06965
3647.12577	0.06984
3645.19710	0.07022
3643.26842	0.07056
3641.33975	0.07075
3639.41107	0.07087
3637.48239	0.07097
3635.55372	0.07104
3633.62504	0.07107
3631.69637	0.07102
3629.76769	0.07097
3627.83902	0.07113
3625.91034	0.07144
3623.98166	0.07164
3622.05299	0.07165
3620.12431	0.07164
3618.19564	0.07173
3616.26696	0.07187
3614.33829	0.07193
3612.40961	0.07196
3610.48093	0.07201
3608.55226	0.07210
3606.62358	0.07228
3604.69491	0.07247
3602.76623	0.07258
3600.83756	0.07264
3598.90888	0.07272
3596.98020	0.07278
3595.05153	0.07284
3593.12285	0.07294
3591.19418	0.07301
3589.26550	0.07300
3587.33683	0.07305
3585.40815	0.07326
3583.47947	0.07349
3581.55080	0.07366
3579.62212	0.07377
3577.69345	0.07386
3575.76477	0.07397
3573.83610	0.07408
3571.90742	0.07411
3569.97874	0.07405
3568.05007	0.07403
3566.12139	0.07418
3564.19272	0.07442
3562.26404	0.07461
3560.33537	0.07473
3558.40669	0.07484
3556.47801	0.07492
3554.54934	0.07497
3552.62066	0.07504
3550.69199	0.07513
3548.76331	0.07522
3546.83464	0.07528
3544.90596	0.07533
3542.97728	0.07541
3541.04861	0.07549
3539.11993	0.07554
3537.19126	0.07562
3535.26258	0.07577
3533.33391	0.07590
3531.40523	0.07593
3529.47655	0.07589
3527.54788	0.07589
3525.61920	0.07594
3523.69053	0.07599
3521.76185	0.07602
3519.83318	0.07608
3517.90450	0.07616
3515.97582	0.07622
3514.04715	0.07627
3512.11847	0.07631
3510.18980	0.07637
3508.26112	0.07642
3506.33245	0.07646
3504.40377	0.07648
3502.47509	0.07653
3500.54642	0.07662
3498.61774	0.07669
3496.68907	0.07673
3494.76039	0.07677
3492.83172	0.07681
3490.90304	0.07683
3488.97436	0.07683
3487.04569	0.07684
3485.11701	0.07687
3483.18834	0.07692
3481.25966	0.07699
3479.33099	0.07705
3477.40231	0.07713
3475.47363	0.07725
3473.54496	0.07739
3471.61628	0.07752
3469.68761	0.07763
3467.75893	0.07776
3465.83026	0.07788
3463.90158	0.07798
3461.97290	0.07809
3460.04423	0.07824
3458.11555	0.07839
3456.18688	0.07854
3454.25820	0.07866
3452.32953	0.07874
3450.40085	0.07881
3448.47217	0.07889
3446.54350	0.07899
3444.61482	0.07911
3442.68615	0.07927
3440.75747	0.07945
3438.82880	0.07965
3436.90012	0.07986
3434.97144	0.08008
3433.04277	0.08030
3431.11409	0.08054
3429.18542	0.08084
3427.25674	0.08114
3425.32807	0.08140
3423.39939	0.08161
3421.47071	0.08180
3419.54204	0.08196
3417.61336	0.08216
3415.68469	0.08241
3413.75601	0.08267
3411.82734	0.08287
3409.89866	0.08305
3407.96998	0.08321
3406.04131	0.08335
3404.11263	0.08349
3402.18396	0.08366
3400.25528	0.08386
3398.32661	0.08407
3396.39793	0.08424
3394.46925	0.08440
3392.54058	0.08458
3390.61190	0.08475
3388.68323	0.08492
3386.75455	0.08509
3384.82588	0.08526
3382.89720	0.08545
3380.96852	0.08563
3379.03985	0.08581
3377.11117	0.08598
3375.18250	0.08613
3373.25382	0.08627
3371.32515	0.08640
3369.39647	0.08654
3367.46779	0.08670
3365.53912	0.08687
3363.61044	0.08704
3361.68177	0.08718
3359.75309	0.08733
3357.82442	0.08747
3355.89574	0.08762
3353.96706	0.08778
3352.03839	0.08794
3350.10971	0.08809
3348.18104	0.08825
3346.25236	0.08844
3344.32369	0.08864
3342.39501	0.08883
3340.46633	0.08897
3338.53766	0.08909
3336.60898	0.08924
3334.68031	0.08940
3332.75163	0.08955
3330.82296	0.08969
3328.89428	0.08984
3326.96560	0.08998
3325.03693	0.09011
3323.10825	0.09024
3321.17958	0.09036
3319.25090	0.09053
3317.32223	0.09077
3315.39355	0.09102
3313.46487	0.09119
3311.53620	0.09133
3309.60752	0.09148
3307.67885	0.09163
3305.75017	0.09179
3303.82150	0.09198
3301.89282	0.09219
3299.96414	0.09237
3298.03547	0.09251
3296.10679	0.09266
3294.17812	0.09283
3292.24944	0.09299
3290.32077	0.09316
3288.39209	0.09334
3286.46341	0.09351
3284.53474	0.09367
3282.60606	0.09382
3280.67739	0.09396
3278.74871	0.09412
3276.82004	0.09431
3274.89136	0.09449
3272.96268	0.09469
3271.03401	0.09490
3269.10533	0.09511
3267.17666	0.09531
3265.24798	0.09547
3263.31931	0.09560
3261.39063	0.09571
3259.46195	0.09585
3257.53328	0.09604
3255.60460	0.09624
3253.67593	0.09639
3251.74725	0.09653
3249.81858	0.09670
3247.88990	0.09689
3245.96122	0.09708
3244.03255	0.09726
3242.10387	0.09741
3240.17520	0.09755
3238.24652	0.09773
3236.31785	0.09791
3234.38917	0.09807
3232.46049	0.09826
3230.53182	0.09847
3228.60314	0.09867
3226.67447	0.09885
3224.74579	0.09905
3222.81712	0.09924
3220.88844	0.09941
3218.95976	0.09957
3217.03109	0.09972
3215.10241	0.09985
3213.17374	0.09999
3211.24506	0.10014
3209.31639	0.10031
3207.38771	0.10051
3205.45903	0.10072
3203.53036	0.10092
3201.60168	0.10109
3199.67301	0.10124
3197.74433	0.10140
3195.81566	0.10157
3193.88698	0.10174
3191.95830	0.10192
3190.02963	0.10211
3188.10095	0.10231
3186.17228	0.10252
3184.24360	0.10274
3182.31493	0.10295
3180.38625	0.10311
3178.45757	0.10328
3176.52890	0.10349
3174.60022	0.10372
3172.67155	0.10394
3170.74287	0.10412
3168.81420	0.10428
3166.88552	0.10441
3164.95684	0.10453
3163.02817	0.10470
3161.09949	0.10491
3159.17082	0.10514
3157.24214	0.10535
3155.31347	0.10553
3153.38479	0.10573
3151.45611	0.10593
3149.52744	0.10613
3147.59876	0.10630
3145.67009	0.10645
3143.74141	0.10657
3141.81274	0.10671
3139.88406	0.10685
3137.95538	0.10703
3136.02671	0.10723
3134.09803	0.10745
3132.16936	0.10767
3130.24068	0.10786
3128.31201	0.10800
3126.38333	0.10813
3124.45465	0.10830
3122.52598	0.10851
3120.59730	0.10871
3118.66863	0.10892
3116.73995	0.10910
3114.81128	0.10925
3112.88260	0.10938
3110.95392	0.10953
3109.02525	0.10972
3107.09657	0.10990
3105.16790	0.11007
3103.23922	0.11027
3101.31055	0.11050
3099.38187	0.11070
3097.45319	0.11088
3095.52452	0.11106
3093.59584	0.11123
3091.66717	0.11141
3089.73849	0.11160
3087.80982	0.11179
3085.88114	0.11198
3083.95246	0.11216
3082.02379	0.11232
3080.09511	0.11245
3078.16644	0.11258
3076.23776	0.11277
3074.30909	0.11298
3072.38041	0.11316
3070.45173	0.11330
3068.52306	0.11344
3066.59438	0.11362
3064.66571	0.11381
3062.73703	0.11400
3060.80836	0.11419
3058.87968	0.11439
3056.95100	0.11459
3055.02233	0.11478
3053.09365	0.11496
3051.16498	0.11511
3049.23630	0.11529
3047.30763	0.11547
3045.37895	0.11565
3043.45027	0.11581
3041.52160	0.11599
3039.59292	0.11620
3037.66425	0.11642
3035.73557	0.11660
3033.80690	0.11674
3031.87822	0.11690
3029.94954	0.11708
3028.02087	0.11723
3026.09219	0.11738
3024.16352	0.11756
3022.23484	0.11777
3020.30617	0.11794
3018.37749	0.11811
3016.44881	0.11830
3014.52014	0.11851
3012.59146	0.11869
3010.66279	0.11889
3008.73411	0.11908
3006.80544	0.11926
3004.87676	0.11945
3002.94808	0.11963
3001.01941	0.11978
2999.09073	0.11992
2997.16206	0.12008
2995.23338	0.12029
2993.30471	0.12049
2991.37603	0.12064
2989.44735	0.12075
2987.51868	0.12087
2985.59000	0.12101
2983.66133	0.12114
2981.73265	0.12122
2979.80398	0.12127
2977.87530	0.12130
2975.94662	0.12135
2974.01795	0.12142
2972.08927	0.12143
2970.16060	0.12137
2968.23192	0.12132
2966.30325	0.12131
2964.37457	0.12133
2962.44589	0.12142
2960.51722	0.12158
2958.58854	0.12177
2956.65987	0.12194
2954.73119	0.12211
2952.80252	0.12230
2950.87384	0.12252
2948.94516	0.12276
2947.01649	0.12294
2945.08781	0.12306
2943.15914	0.12315
2941.23046	0.12320
2939.30179	0.12315
2937.37311	0.12304
2935.44443	0.12294
2933.51576	0.12284
2931.58708	0.12272
2929.65841	0.12258
2927.72973	0.12240
2925.80106	0.12224
2923.87238	0.12213
2921.94370	0.12205
2920.01503	0.12202
2918.08635	0.12211
2916.15768	0.12244
2914.22900	0.12309
2912.30033	0.12392
2910.37165	0.12469
2908.44297	0.12530
2906.51430	0.12578
2904.58562	0.12620
2902.65695	0.12654
2900.72827	0.12685
2898.79960	0.12714
2896.87092	0.12742
2894.94224	0.12767
2893.01357	0.12794
2891.08489	0.12820
2889.15622	0.12843
2887.22754	0.12867
2885.29887	0.12894
2883.37019	0.12919
2881.44151	0.12940
2879.51284	0.12957
2877.58416	0.12973
2875.65549	0.12989
2873.72681	0.13006
2871.79814	0.13023
2869.86946	0.13038
2867.94078	0.13053
2866.01211	0.13067
2864.08343	0.13078
2862.15476	0.13086
2860.22608	0.13090
2858.29741	0.13088
2856.36873	0.13080
2854.44005	0.13062
2852.51138	0.13036
2850.58270	0.13023
2848.65403	0.13048
2846.72535	0.13113
2844.79668	0.13193
2842.86800	0.13268
2840.93932	0.13334
2839.01065	0.13389
2837.08197	0.13432
2835.15330	0.13466
2833.22462	0.13493
2831.29595	0.13516
2829.36727	0.13538
2827.43859	0.13562
2825.50992	0.13588
2823.58124	0.13612
2821.65257	0.13632
2819.72389	0.13650
2817.79522	0.13668
2815.86654	0.13686
2813.93786	0.13710
2812.00919	0.13736
2810.08051	0.13761
2808.15184	0.13786
2806.22316	0.13808
2804.29449	0.13827
2802.36581	0.13845
2800.43713	0.13862
2798.50846	0.13878
2796.57978	0.13895
2794.65111	0.13916
2792.72243	0.13941
2790.79376	0.13968
2788.86508	0.13989
2786.93640	0.14003
2785.00773	0.14020
2783.07905	0.14044
2781.15038	0.14066
2779.22170	0.14084
2777.29303	0.14104
2775.36435	0.14124
2773.43567	0.14144
2771.50700	0.14162
2769.57832	0.14179
2767.64965	0.14198
2765.72097	0.14220
2763.79230	0.14240
2761.86362	0.14254
2759.93494	0.14269
2758.00627	0.14292
2756.07759	0.14313
2754.14892	0.14331
2752.22024	0.14350
2750.29157	0.14372
2748.36289	0.14394
2746.43421	0.14410
2744.50554	0.14424
2742.57686	0.14441
2740.64819	0.14461
2738.71951	0.14480
2736.79084	0.14496
2734.86216	0.14512
2732.93348	0.14532
2731.00481	0.14549
2729.07613	0.14565
2727.14746	0.14581
2725.21878	0.14600
2723.29011	0.14618
2721.36143	0.14635
2719.43275	0.14654
2717.50408	0.14674
2715.57540	0.14692
2713.64673	0.14708
2711.71805	0.14730
2709.78938	0.14757
2707.86070	0.14778
2705.93202	0.14793
2704.00335	0.14808
2702.07467	0.14830
2700.14600	0.14856
2698.21732	0.14873
2696.28865	0.14883
2694.35997	0.14896
2692.43129	0.14916
2690.50262	0.14938
2688.57394	0.14959
2686.64527	0.14977
2684.71659	0.14996
2682.78792	0.15017
2680.85924	0.15038
2678.93056	0.15056
2677.00189	0.15073
2675.07321	0.15088
2673.14454	0.15103
2671.21586	0.15121
2669.28719	0.15141
2667.35851	0.15161
2665.42983	0.15181
2663.50116	0.15199
2661.57248	0.15216
2659.64381	0.15233
2657.71513	0.15252
2655.78646	0.15274
2653.85778	0.15298
2651.92910	0.15320
2650.00043	0.15337
2648.07175	0.15351
2646.14308	0.15368
2644.21440	0.15389
2642.28573	0.15410
2640.35705	0.15429
2638.42837	0.15449
2636.49970	0.15473
2634.57102	0.15495
2632.64235	0.15513
2630.71367	0.15530
2628.78500	0.15547
2626.85632	0.15567
2624.92764	0.15591
2622.99897	0.15618
2621.07029	0.15642
2619.14162	0.15663
2617.21294	0.15682
2615.28427	0.15697
2613.35559	0.15711
2611.42691	0.15732
2609.49824	0.15757
2607.56956	0.15780
2605.64089	0.15799
2603.71221	0.15816
2601.78354	0.15832
2599.85486	0.15848
2597.92618	0.15865
2595.99751	0.15885
2594.06883	0.15908
2592.14016	0.15931
2590.21148	0.15952
2588.28281	0.15973
2586.35413	0.15996
2584.42545	0.16019
2582.49678	0.16041
2580.56810	0.16060
2578.63943	0.16075
2576.71075	0.16091
2574.78208	0.16109
2572.85340	0.16131
2570.92472	0.16154
2568.99605	0.16172
2567.06737	0.16187
2565.13870	0.16205
2563.21002	0.16227
2561.28135	0.16249
2559.35267	0.16265
2557.42399	0.16280
2555.49532	0.16300
2553.56664	0.16321
2551.63797	0.16338
2549.70929	0.16354
2547.78062	0.16373
2545.85194	0.16393
2543.92326	0.16417
2541.99459	0.16444
2540.06591	0.16466
2538.13724	0.16482
2536.20856	0.16496
2534.27989	0.16513
2532.35121	0.16533
2530.42253	0.16549
2528.49386	0.16566
2526.56518	0.16586
2524.63651	0.16606
2522.70783	0.16627
2520.77916	0.16647
2518.85048	0.16665
2516.92181	0.16684
2514.99313	0.16704
2513.06445	0.16725
2511.13578	0.16748
2509.20710	0.16775
2507.27843	0.16802
2505.34975	0.16826
2503.42108	0.16844
2501.49240	0.16863
2499.56372	0.16890
2497.63505	0.16918
2495.70637	0.16940
2493.77770	0.16953
2491.84902	0.16965
2489.92035	0.16984
2487.99167	0.17007
2486.06299	0.17030
2484.13432	0.17053
2482.20564	0.17076
2480.27697	0.17098
2478.34829	0.17121
2476.41962	0.17141
2474.49094	0.17158
2472.56226	0.17179
2470.63359	0.17205
2468.70491	0.17231
2466.77624	0.17255
2464.84756	0.17277
2462.91889	0.17294
2460.99021	0.17306
2459.06153	0.17320
2457.13286	0.17338
2455.20418	0.17359
2453.27551	0.17382
2451.34683	0.17406
2449.41816	0.17425
2447.48948	0.17442
2445.56080	0.17463
2443.63213	0.17485
2441.70345	0.17508
2439.77478	0.17531
2437.84610	0.17556
2435.91743	0.17579
2433.98875	0.17596
2432.06007	0.17613
2430.13140	0.17633
2428.20272	0.17655
2426.27405	0.17678
2424.34537	0.17701
2422.41670	0.17723
2420.48802	0.17741
2418.55934	0.17760
2416.63067	0.17783
2414.70199	0.17807
2412.77332	0.17826
2410.84464	0.17841
2408.91597	0.17858
2406.98729	0.17880
2405.05861	0.17905
2403.12994	0.17928
2401.20126	0.17949
2399.27259	0.17968
2397.34391	0.17986
2395.41524	0.18007
2393.48656	0.18031
2391.55788	0.18054
2389.62921	0.18074
2387.70053	0.18093
2385.77186	0.18110
2383.84318	0.18128
2381.91451	0.18145
2379.98583	0.18157
2378.05715	0.18161
2376.12848	0.18160
2374.19980	0.18161
2372.27113	0.18167
2370.34245	0.18173
2368.41378	0.18176
2366.48510	0.18179
2364.55642	0.18188
2362.62775	0.18204
2360.69907	0.18225
2358.77040	0.18249
2356.84172	0.18277
2354.91305	0.18313
2352.98437	0.18356
2351.05569	0.18401
2349.12702	0.18433
2347.19834	0.18441
2345.26967	0.18440
2343.34099	0.18445
2341.41232	0.18458
2339.48364	0.18474
2337.55496	0.18491
2335.62629	0.18509
2333.69761	0.18531
2331.76894	0.18556
2329.84026	0.18581
2327.91159	0.18609
2325.98291	0.18638
2324.05423	0.18663
2322.12556	0.18687
2320.19688	0.18715
2318.26821	0.18743
2316.33953	0.18768
2314.41086	0.18791
2312.48218	0.18819
2310.55350	0.18850
2308.62483	0.18878
2306.69615	0.18908
2304.76748	0.18936
2302.83880	0.18958
2300.91013	0.18980
2298.98145	0.19005
2297.05277	0.19030
2295.12410	0.19054
2293.19542	0.19076
2291.26675	0.19094
2289.33807	0.19110
2287.40940	0.19135
2285.48072	0.19163
2283.55204	0.19186
2281.62337	0.19204
2279.69469	0.19221
2277.76602	0.19237
2275.83734	0.19257
2273.90867	0.19277
2271.97999	0.19293
2270.05131	0.19309
2268.12264	0.19329
2266.19396	0.19356
2264.26529	0.19384
2262.33661	0.19405
2260.40794	0.19419
2258.47926	0.19434
2256.55058	0.19452
2254.62191	0.19472
2252.69323	0.19490
2250.76456	0.19507
2248.83588	0.19527
2246.90721	0.19546
2244.97853	0.19562
2243.04985	0.19579
2241.12118	0.19603
2239.19250	0.19630
2237.26383	0.19652
2235.33515	0.19671
2233.40648	0.19688
2231.47780	0.19702
2229.54912	0.19719
2227.62045	0.19745
2225.69177	0.19769
2223.76310	0.19783
2221.83442	0.19799
2219.90575	0.19826
2217.97707	0.19855
2216.04839	0.19878
2214.11972	0.19897
2212.19104	0.19915
2210.26237	0.19930
2208.33369	0.19946
2206.40502	0.19966
2204.47634	0.19989
2202.54766	0.20015
2200.61899	0.20041
2198.69031	0.20062
2196.76164	0.20078
2194.83296	0.20091
2192.90429	0.20102
2190.97561	0.20117
2189.04693	0.20140
2187.11826	0.20168
2185.18958	0.20195
2183.26091	0.20216
2181.33223	0.20235
2179.40356	0.20254
2177.47488	0.20276
2175.54620	0.20300
2173.61753	0.20323
2171.68885	0.20343
2169.76018	0.20361
2167.83150	0.20384
2165.90283	0.20408
2163.97415	0.20427
2162.04547	0.20445
2160.11680	0.20466
2158.18812	0.20487
2156.25945	0.20508
2154.33077	0.20530
2152.40210	0.20548
2150.47342	0.20565
2148.54474	0.20586
2146.61607	0.20610
2144.68739	0.20635
2142.75872	0.20655
2140.83004	0.20671
2138.90137	0.20684
2136.97269	0.20703
2135.04401	0.20729
2133.11534	0.20754
2131.18666	0.20774
2129.25799	0.20797
2127.32931	0.20824
2125.40064	0.20845
2123.47196	0.20860
2121.54328	0.20874
2119.61461	0.20894
2117.68593	0.20919
2115.75726	0.20940
2113.82858	0.20960
2111.89991	0.20984
2109.97123	0.21002
2108.04255	0.21015
2106.11388	0.21038
2104.18520	0.21066
2102.25653	0.21088
2100.32785	0.21104
2098.39918	0.21125
2096.47050	0.21152
2094.54182	0.21178
2092.61315	0.21201
2090.68447	0.21223
2088.75580	0.21243
2086.82712	0.21259
2084.89845	0.21274
2082.96977	0.21290
2081.04109	0.21310
2079.11242	0.21333
2077.18374	0.21353
2075.25507	0.21369
2073.32639	0.21385
2071.39772	0.21404
2069.46904	0.21421
2067.54036	0.21434
2065.61169	0.21452
2063.68301	0.21476
2061.75434	0.21503
2059.82566	0.21525
2057.89699	0.21546
2055.96831	0.21567
2054.03963	0.21585
2052.11096	0.21604
2050.18228	0.21630
2048.25361	0.21653
2046.32493	0.21670
2044.39626	0.21688
2042.46758	0.21711
2040.53890	0.21735
2038.61023	0.21758
2036.68155	0.21779
2034.75288	0.21799
2032.82420	0.21817
2030.89553	0.21832
2028.96685	0.21851
2027.03817	0.21873
2025.10950	0.21892
2023.18082	0.21910
2021.25215	0.21928
2019.32347	0.21944
2017.39480	0.21960
2015.46612	0.21984
2013.53744	0.22013
2011.60877	0.22040
2009.68009	0.22064
2007.75142	0.22087
2005.82274	0.22110
2003.89407	0.22132
2001.96539	0.22157
2000.03671	0.22179
1998.10804	0.22195
1996.17936	0.22213
1994.25069	0.22234
1992.32201	0.22253
1990.39334	0.22272
1988.46466	0.22290
1986.53598	0.22305
1984.60731	0.22323
1982.67863	0.22348
1980.74996	0.22374
1978.82128	0.22396
1976.89261	0.22412
1974.96393	0.22427
1973.03525	0.22449
1971.10658	0.22472
1969.17790	0.22490
1967.24923	0.22505
1965.32055	0.22520
1963.39188	0.22537
1961.46320	0.22560
1959.53452	0.22585
1957.60585	0.22609
1955.67717	0.22634
1953.74850	0.22660
1951.81982	0.22680
1949.89115	0.22699
1947.96247	0.22720
1946.03379	0.22734
1944.10512	0.22741
1942.17644	0.22757
1940.24777	0.22789
1938.31909	0.22821
1936.39042	0.22843
1934.46174	0.22865
1932.53306	0.22888
1930.60439	0.22904
1928.67571	0.22917
1926.74704	0.22938
1924.81836	0.22963
1922.88969	0.22982
1920.96101	0.22993
1919.03233	0.23001
1917.10366	0.23026
1915.17498	0.23066
1913.24631	0.23094
1911.31763	0.23107
1909.38896	0.23125
1907.46028	0.23146
1905.53160	0.23164
1903.60293	0.23179
1901.67425	0.23201
1899.74558	0.23229
1897.81690	0.23254
1895.88823	0.23271
1893.95955	0.23285
1892.03087	0.23291
1890.10220	0.23303
1888.17352	0.23336
1886.24485	0.23379
1884.31617	0.23408
1882.38750	0.23422
1880.45882	0.23432
1878.53014	0.23448
1876.60147	0.23472
1874.67279	0.23493
1872.74412	0.23504
1870.81544	0.23500
1868.88677	0.23502
1866.95809	0.23533
1865.02941	0.23578
1863.10074	0.23614
1861.17206	0.23637
1859.24339	0.23657
1857.31471	0.23678
1855.38604	0.23698
1853.45736	0.23713
1851.52868	0.23728
1849.60001	0.23743
1847.67133	0.23745
1845.74266	0.23737
1843.81398	0.23758
1841.88531	0.23817
1839.95663	0.23866
1838.02795	0.23887
1836.09928	0.23904
1834.17060	0.23922
1832.24193	0.23924
1830.31325	0.23922
1828.38458	0.23941
1826.45590	0.23968
1824.52722	0.23998
1822.59855	0.24039
1820.66987	0.24073
1818.74120	0.24092
1816.81252	0.24112
1814.88385	0.24137
1812.95517	0.24150
1811.02649	0.24155
1809.09782	0.24171
1807.16914	0.24189
1805.24047	0.24198
1803.31179	0.24200
1801.38312	0.24207
1799.45444	0.24232
1797.52576	0.24264
1795.59709	0.24278
1793.66841	0.24270
1791.73974	0.24279
1789.81106	0.24324
1787.88239	0.24364
1785.95371	0.24374
1784.02503	0.24379
1782.09636	0.24388
1780.16768	0.24397
1778.23901	0.24415
1776.31033	0.24426
1774.38166	0.24417
1772.45298	0.24410
1770.52430	0.24425
1768.59563	0.24453
1766.66695	0.24491
1764.73828	0.24515
1762.80960	0.24517
1760.88093	0.24526
1758.95225	0.24545
1757.02357	0.24556
1755.09490	0.24556
1753.16622	0.24530
1751.23755	0.24493
1749.30887	0.24489
1747.38020	0.24515
1745.45152	0.24534
1743.52284	0.24528
1741.59417	0.24507
1739.66549	0.24492
1737.73682	0.24471
1735.80814	0.24425
1733.87947	0.24411
1731.95079	0.24474
1730.02211	0.24558
1728.09344	0.24619
1726.16476	0.24658
1724.23609	0.24684
1722.30741	0.24701
1720.37874	0.24687
1718.45006	0.24654
1716.52138	0.24659
1714.59271	0.24707
1712.66403	0.24760
1710.73536	0.24796
1708.80668	0.24806
1706.87801	0.24793
1704.94933	0.24775
1703.02065	0.24743
1701.09198	0.24701
1699.16330	0.24706
1697.23463	0.24743
1695.30595	0.24784
1693.37728	0.24834
1691.44860	0.24858
1689.51992	0.24852
1687.59125	0.24825
1685.66257	0.24775
1683.73390	0.24760
1681.80522	0.24814
1679.87655	0.24869
1677.94787	0.24873
1676.01919	0.24851
1674.09052	0.24843
1672.16184	0.24839
1670.23317	0.24830
1668.30449	0.24851
1666.37582	0.24893
1664.44714	0.24905
1662.51846	0.24906
1660.58979	0.24930
1658.66111	0.24952
1656.73244	0.24911
1654.80376	0.24812
1652.87509	0.24773
1650.94641	0.24836
1649.01773	0.24881
1647.08906	0.24881
1645.16038	0.24916
1643.23171	0.24977
1641.30303	0.25008
1639.37436	0.24996
1637.44568	0.24958
1635.51700	0.24948
1633.58833	0.24990
1631.65965	0.25029
1629.73098	0.25027
1627.80230	0.25011
1625.87363	0.24987
1623.94495	0.24947
1622.01627	0.24916
1620.08760	0.24915
1618.15892	0.24942
1616.23025	0.25015
1614.30157	0.25116
1612.37290	0.25188
1610.44422	0.25226
1608.51554	0.25262
1606.58687	0.25303
1604.65819	0.25333
1602.72952	0.25353
1600.80084	0.25380
1598.87217	0.25411
1596.94349	0.25433
1595.01481	0.25446
1593.08614	0.25459
1591.15746	0.25478
1589.22879	0.25501
1587.30011	0.25526
1585.37144	0.25549
1583.44276	0.25570
1581.51408	0.25590
1579.58541	0.25596
1577.65673	0.25588
1575.72806	0.25600
1573.79938	0.25638
1571.87071	0.25652
1569.94203	0.25647
1568.01335	0.25667
1566.08468	0.25704
1564.15600	0.25730
1562.22733	0.25703
1560.29865	0.25624
1558.36998	0.25601
1556.44130	0.25677
1554.51262	0.25765
1552.58395	0.25820
1550.65527	0.25856
1548.72660	0.25877
1546.79792	0.25867
1544.86925	0.25825
1542.94057	0.25776
1541.01189	0.25752
1539.08322	0.25792
1537.15454	0.25871
1535.22587	0.25913
1533.29719	0.25922
1531.36852	0.25947
1529.43984	0.25968
1527.51116	0.25965
1525.58249	0.25952
1523.65381	0.25925
1521.72514	0.25903
1519.79646	0.25923
1517.86779	0.25964
1515.93911	0.26007
1514.01043	0.26047
1512.08176	0.26057
1510.15308	0.26027
1508.22441	0.25989
1506.29573	0.26008
1504.36706	0.26092
1502.43838	0.26157
1500.50970	0.26151
1498.58103	0.26123
1496.65235	0.26133
1494.72368	0.26176
1492.79500	0.26190
1490.86633	0.26163
1488.93765	0.26153
1487.00897	0.26185
1485.08030	0.26228
1483.15162	0.26251
1481.22295	0.26256
1479.29427	0.26243
1477.36560	0.26193
1475.43692	0.26117
1473.50824	0.26064
1471.57957	0.26066
1469.65089	0.26097
1467.72222	0.26095
1465.79354	0.26065
1463.86487	0.26063
1461.93619	0.26074
1460.00751	0.26035
1458.07884	0.25969
1456.15016	0.25983
1454.22149	0.26081
1452.29281	0.26158
1450.36414	0.26175
1448.43546	0.26175
1446.50678	0.26194
1444.57811	0.26230
1442.64943	0.26258
1440.72076	0.26258
1438.79208	0.26220
1436.86341	0.26190
1434.93473	0.26224
1433.00605	0.26276
1431.07738	0.26291
1429.14870	0.26289
1427.22003	0.26286
1425.29135	0.26273
1423.36268	0.26257
1421.43400	0.26225
1419.50532	0.26190
1417.57665	0.26199
1415.64797	0.26239
1413.71930	0.26256
1411.79062	0.26247
1409.86195	0.26240
1407.93327	0.26239
1406.00459	0.26238
1404.07592	0.26239
1402.14724	0.26233
1400.21857	0.26208
1398.28989	0.26186
1396.36122	0.26177
1394.43254	0.26184
1392.50386	0.26205
1390.57519	0.26202
1388.64651	0.26159
1386.71784	0.26113
1384.78916	0.26095
1382.86049	0.26100
1380.93181	0.26114
1379.00313	0.26121
1377.07446	0.26111
1375.14578	0.26096
1373.21711	0.26098
1371.28843	0.26109
1369.35976	0.26114
1367.43108	0.26118
1365.50240	0.26112
1363.57373	0.26094
1361.64505	0.26089
1359.71638	0.26103
1357.78770	0.26116
1355.85903	0.26125
1353.93035	0.26133
1352.00167	0.26141
1350.07300	0.26147
1348.14432	0.26155
1346.21565	0.26163
1344.28697	0.26171
1342.35830	0.26169
1340.42962	0.26154
1338.50094	0.26141
1336.57227	0.26145
1334.64359	0.26154
1332.71492	0.26161
1330.78624	0.26158
1328.85757	0.26147
1326.92889	0.26138
1325.00021	0.26131
1323.07154	0.26121
1321.14286	0.26108
1319.21419	0.26098
1317.28551	0.26093
1315.35684	0.26082
1313.42816	0.26064
1311.49948	0.26049
1309.57081	0.26034
1307.64213	0.26009
1305.71346	0.25985
1303.78478	0.25973
1301.85611	0.25959
1299.92743	0.25930
1297.99875	0.25895
1296.07008	0.25863
1294.14140	0.25835
1292.21273	0.25813
1290.28405	0.25791
1288.35538	0.25760
1286.42670	0.25723
1284.49802	0.25687
1282.56935	0.25649
1280.64067	0.25604
1278.71200	0.25550
1276.78332	0.25487
1274.85465	0.25418
1272.92597	0.25344
1270.99729	0.25251
1269.06862	0.25135
1267.13994	0.25008
1265.21127	0.24894
1263.28259	0.24806
1261.35392	0.24755
1259.42524	0.24748
1257.49656	0.24766
1255.56789	0.24783
1253.63921	0.24787
1251.71054	0.24774
1249.78186	0.24736
1247.85319	0.24683
1245.92451	0.24630
1243.99583	0.24576
1242.06716	0.24515
1240.13848	0.24448
1238.20981	0.24379
1236.28113	0.24306
1234.35246	0.24234
1232.42378	0.24161
1230.49510	0.24090
1228.56643	0.24017
1226.63775	0.23946
1224.70908	0.23886
1222.78040	0.23828
1220.85173	0.23760
1218.92305	0.23685
1216.99437	0.23613
1215.06570	0.23548
1213.13702	0.23482
1211.20835	0.23417
1209.27967	0.23361
1207.35100	0.23303
1205.42232	0.23233
1203.49364	0.23165
1201.56497	0.23102
1199.63629	0.23038
1197.70762	0.22972
1195.77894	0.22911
1193.85027	0.22851
1191.92159	0.22784
1189.99291	0.22702
1188.06424	0.22608
1186.13556	0.22514
1184.20689	0.22428
1182.27821	0.22345
1180.34954	0.22249
1178.42086	0.22146
1176.49218	0.22046
1174.56351	0.21951
1172.63483	0.21858
1170.70616	0.21764
1168.77748	0.21666
1166.84881	0.21565
1164.92013	0.21460
1162.99145	0.21354
1161.06278	0.21262
1159.13410	0.21185
1157.20543	0.21107
1155.27675	0.21023
1153.34808	0.20937
1151.41940	0.20844
1149.49072	0.20748
1147.56205	0.20665
1145.63337	0.20594
1143.70470	0.20524
1141.77602	0.20448
1139.84735	0.20364
1137.91867	0.20274
1135.98999	0.20182
1134.06132	0.20089
1132.13264	0.19995
1130.20397	0.19896
1128.27529	0.19797
1126.34662	0.19705
1124.41794	0.19617
1122.48926	0.19522
1120.56059	0.19415
1118.63191	0.19305
1116.70324	0.19192
1114.77456	0.19076
1112.84589	0.18965
1110.91721	0.18860
1108.98853	0.18759
1107.05986	0.18657
1105.13118	0.18548
1103.20251	0.18442
1101.27383	0.18353
1099.34516	0.18272
1097.41648	0.18189
1095.48780	0.18105
1093.55913	0.18022
1091.63045	0.17938
1089.70178	0.17860
1087.77310	0.17789
1085.84443	0.17722
1083.91575	0.17653
1081.98707	0.17586
1080.05840	0.17526
1078.12972	0.17473
1076.20105	0.17419
1074.27237	0.17365
1072.34370	0.17321
1070.41502	0.17293
1068.48634	0.17273
1066.55767	0.17260
1064.62899	0.17259
1062.70032	0.17271
1060.77164	0.17282
1058.84297	0.17296
1056.91429	0.17325
1054.98561	0.17356
1053.05694	0.17379
1051.12826	0.17413
1049.19959	0.17461
1047.27091	0.17500
1045.34224	0.17529
1043.41356	0.17566
1041.48488	0.17621
1039.55621	0.17684
1037.62753	0.17742
1035.69886	0.17806
1033.77018	0.17871
1031.84151	0.17923
1029.91283	0.17968
1027.98415	0.18018
1026.05548	0.18073
1024.12680	0.18128
1022.19813	0.18183
1020.26945	0.18240
1018.34078	0.18310
1016.41210	0.18399
1014.48342	0.18497
1012.55475	0.18590
1010.62607	0.18684
1008.69740	0.18783
1006.76872	0.18885
1004.84005	0.18981
1002.91137	0.19061
1000.98269	0.19129
999.05402	0.19198
997.12534	0.19265
995.19667	0.19321
993.26799	0.19363
991.33932	0.19397
989.41064	0.19436
987.48196	0.19490
985.55329	0.19553
983.62461	0.19599
981.69594	0.19623
979.76726	0.19642
977.83859	0.19660
975.90991	0.19665
973.98123	0.19656
972.05256	0.19645
970.12388	0.19641
968.19521	0.19636
966.26653	0.19623
964.33786	0.19609
962.40918	0.19597
960.48050	0.19581
958.55183	0.19562
956.62315	0.19546
954.69448	0.19525
952.76580	0.19492
950.83713	0.19455
948.90845	0.19416
946.97977	0.19373
945.05110	0.19332
943.12242	0.19298
941.19375	0.19261
939.26507	0.19211
937.33640	0.19149
935.40772	0.19084
933.47904	0.19025
931.55037	0.18975
929.62169	0.18936
927.69302	0.18902
925.76434	0.18859
923.83567	0.18802
921.90699	0.18745
919.97831	0.18691
918.04964	0.18632
916.12096	0.18571
914.19229	0.18511
912.26361	0.18445
910.33494	0.18371
908.40626	0.18303
906.47758	0.18243
904.54891	0.18177
902.62023	0.18099
900.69156	0.18024
898.76288	0.17963
896.83421	0.17901
894.90553	0.17832
892.97685	0.17759
891.04818	0.17676
889.11950	0.17590
887.19083	0.17512
885.26215	0.17446
883.33348	0.17385
881.40480	0.17315
879.47612	0.17235
877.54745	0.17160
875.61877	0.17098
873.69010	0.17039
871.76142	0.16971
869.83275	0.16896
867.90407	0.16821
865.97539	0.16753
864.04672	0.16690
862.11804	0.16626
860.18937	0.16561
858.26069	0.16495
856.33202	0.16420
854.40334	0.16341
852.47466	0.16268
850.54599	0.16196
848.61731	0.16119
846.68864	0.16043
844.75996	0.15971
842.83129	0.15894
840.90261	0.15817
838.97394	0.15751
837.04526	0.15689
835.11658	0.15620
833.18791	0.15546
831.25923	0.15469
829.33056	0.15397
827.40188	0.15328
825.47321	0.15246
823.54453	0.15152
821.61585	0.15062
819.68718	0.14981
817.75850	0.14909
815.82983	0.14843
813.90115	0.14774
811.97248	0.14705
810.04380	0.14638
808.11512	0.14561
806.18645	0.14474
804.25777	0.14395
802.32910	0.14335
800.40042	0.14289
798.47175	0.14245
796.54307	0.14197
794.61439	0.14154
792.68572	0.14132
790.75704	0.14123
788.82837	0.14102
786.89969	0.14067
784.97102	0.14032
783.04234	0.13999
781.11366	0.13965
779.18499	0.13925
777.25631	0.13879
775.32764	0.13836
773.39896	0.13802
771.47029	0.13772
769.54161	0.13743
767.61293	0.13712
765.68426	0.13669
763.75558	0.13610
761.82691	0.13549
759.89823	0.13496
757.96956	0.13452
756.04088	0.13412
754.11220	0.13370
752.18353	0.13318
750.25485	0.13261
748.32618	0.13212
746.39750	0.13166
744.46883	0.13108
742.54015	0.13041
740.61147	0.12978
738.68280	0.12924
736.75412	0.12875
734.82545	0.12825
732.89677	0.12779
730.96810	0.12739
729.03942	0.12706
727.11074	0.12678
725.18207	0.12639
723.25339	0.12589
721.32472	0.12538
719.39604	0.12489
717.46737	0.12441
715.53869	0.12391
713.61001	0.12339
711.68134	0.12290
709.75266	0.12242
707.82399	0.12191
705.89531	0.12136
703.96664	0.12080
702.03796	0.12022
700.10928	0.11964
698.18061	0.11908
696.25193	0.11855
694.32326	0.11801
692.39458	0.11740
690.46591	0.11666
688.53723	0.11589
686.60855	0.11521
684.67988	0.11450
682.75120	0.11370
680.82253	0.11288
678.89385	0.11197
676.96518	0.11100
675.03650	0.11004
673.10782	0.10901
671.17915	0.10774
669.25047	0.10631
667.32180	0.10505
665.39312	0.10400
663.46445	0.10286
661.53577	0.10147
659.60709	0.10006
657.67842	0.09879
655.74974	0.09753
653.82107	0.09614
651.89239	0.09464
649.96372	0.09310
648.03504	0.09147
646.10636	0.08971
644.17769	0.08789
642.24901	0.08608
640.32034	0.08417
638.39166	0.08198
636.46299	0.07951
634.53431	0.07695
632.60563	0.07434
630.67696	0.07161
628.74828	0.06883
626.81961	0.06597
624.89093	0.06300
622.96226	0.05992
621.03358	0.05674
619.10490	0.05351
617.17623	0.05023
615.24755	0.04687
613.31888	0.04347
611.39020	0.04009
609.46153	0.03682
607.53285	0.03381
605.60417	0.03102
603.67550	0.02834
601.74682	0.02576
599.81815	0.02337
597.88947	0.02128
595.96080	0.01935
594.03212	0.01734
592.10344	0.01541
590.17477	0.01379
588.24609	0.01238
586.31742	0.01109
584.38874	0.00987
582.46007	0.00870
580.53139	0.00769
578.60271	0.00687
576.67404	0.00608
574.74536	0.00534
572.81669	0.00479
570.88801	0.00436
568.95934	0.00397
567.03066	0.00359
565.10198	0.00329
563.17331	0.00313
561.24463	0.00299
559.31596	0.00276
557.38728	0.00257
555.45861	0.00254
553.52993	0.00257
551.60125	0.00253
549.67258	0.00253
547.74390	0.00266
545.81523	0.00276
543.88655	0.00274
541.95788	0.00275
540.02920	0.00286
538.10052	0.00302
536.17185	0.00321
534.24317	0.00342
532.31450	0.00347
530.38582	0.00340
528.45715	0.00335
526.52847	0.00333
524.59979	0.00334
522.67112	0.00335
520.74244	0.00332
518.81377	0.00323
516.88509	0.00306
514.95642	0.00292
513.02774	0.00281
511.09906	0.00262
509.17039	0.00239
507.24171	0.00219
505.31304	0.00204
503.38436	0.00189
501.45569	0.00170
499.52701	0.00160
497.59833	0.00162
495.66966	0.00161
493.74098	0.00153
491.81231	0.00141
489.88363	0.00129
487.95496	0.00124
486.02628	0.00118
484.09760	0.00118
482.16893	0.00134
480.24025	0.00147
478.31158	0.00142
476.38290	0.00123
474.45423	0.00098
472.52555	0.00083
470.59687	0.00082
468.66820	0.00091
466.73952	0.00109
464.81085	0.00118
462.88217	0.00111
460.95350	0.00104
459.02482	0.00104
457.09614	0.00106
455.16747	0.00114
453.23879	0.00121
451.31012	0.00122
449.38144	0.00129
447.45277	0.00142
445.52409	0.00144
443.59541	0.00145
441.66674	0.00160
439.73806	0.00175
437.80939	0.00178
435.88071	0.00184
433.95204	0.00206
432.02336	0.00222
430.09468	0.00214
428.16601	0.00200
426.23733	0.00192
424.30866	0.00185
422.37998	0.00167
420.45131	0.00139
418.52263	0.00116
416.59395	0.00102
414.66528	0.00089
412.73660	0.00082
410.80793	0.00073
408.87925	0.00062
406.95058	0.00058
405.02190	0.00059
403.09322	0.00064
401.16455	0.00082
399.23587	0.00097
397.30720	0.00083
395.37852	0.00047
393.44985	0.00022
391.52117	0.00020
389.59249	0.00033
387.66382	0.00041
385.73514	0.00041
383.80647	0.00042
381.87779	0.00056
379.94912	0.00062
378.02044	0.00049
376.09176	0.00041
374.16309	0.00032
372.23441	0.00020
370.30574	0.00024
368.37706	0.00028
