7496.76250	0.00113
7494.83382	0.00113
7492.90514	0.00114
7490.97647	0.00115
7489.04779	0.00116
7487.11912	0.00117
7485.19044	0.00117
7483.26177	0.00116
7481.33309	0.00116
7479.40441	0.00117
7477.47574	0.00118
7475.54706	0.00118
7473.61839	0.00117
7471.68971	0.00117
7469.76104	0.00118
7467.83236	0.00119
7465.90368	0.00120
7463.97501	0.00119
7462.04633	0.00119
7460.11766	0.00121
7458.18898	0.00123
7456.26031	0.00124
7454.33163	0.00123
7452.40295	0.00122
7450.47428	0.00122
7448.54560	0.00121
7446.61693	0.00120
7444.68825	0.00122
7442.75958	0.00124
7440.83090	0.00124
7438.90222	0.00123
7436.97355	0.00124
7435.04487	0.00126
7433.11620	0.00127
7431.18752	0.00126
7429.25885	0.00124
7427.33017	0.00123
7425.40149	0.00123
7423.47282	0.00124
7421.54414	0.00125
7419.61547	0.00126
7417.68679	0.00127
7415.75812	0.00127
7413.82944	0.00129
7411.90076	0.00130
7409.97209	0.00132
7408.04341	0.00131
7406.11474	0.00129
7404.18606	0.00128
7402.25739	0.00128
7400.32871	0.00128
7398.40003	0.00129
7396.47136	0.00129
7394.54268	0.00128
7392.61401	0.00127
7390.68533	0.00129
7388.75666	0.00131
7386.82798	0.00132
7384.89930	0.00132
7382.97063	0.00133
7381.04195	0.00135
7379.11328	0.00135
7377.18460	0.00134
7375.25593	0.00133
7373.32725	0.00133
7371.39857	0.00133
7369.46990	0.00135
7367.54122	0.00135
7365.61255	0.00134
7363.68387	0.00135
7361.75520	0.00136
7359.82652	0.00137
7357.89784	0.00138
7355.96917	0.00139
7354.04049	0.00138
7352.11182	0.00139
7350.18314	0.00141
7348.25447	0.00143
7346.32579	0.00145
7344.39711	0.00144
7342.46844	0.00142
7340.53976	0.00139
7338.61109	0.00137
7336.68241	0.00138
7334.75374	0.00139
7332.82506	0.00141
7330.89638	0.00142
7328.96771	0.00143
7327.03903	0.00143
7325.11036	0.00143
7323.18168	0.00144
7321.25301	0.00145
7319.32433	0.00146
7317.39565	0.00145
7315.46698	0.00145
7313.53830	0.00145
7311.60963	0.00147
7309.68095	0.00147
7307.75228	0.00145
7305.82360	0.00144
7303.89492	0.00144
7301.96625	0.00146
7300.03757	0.00148
7298.10890	0.00148
7296.18022	0.00147
7294.25155	0.00146
7292.32287	0.00146
7290.39419	0.00148
7288.46552	0.00149
7286.53684	0.00149
7284.60817	0.00150
7282.67949	0.00152
7280.75082	0.00152
7278.82214	0.00150
7276.89346	0.00149
7274.96479	0.00149
7273.03611	0.00149
7271.10744	0.00150
7269.17876	0.00152
7267.25009	0.00152
7265.32141	0.00153
7263.39273	0.00154
7261.46406	0.00153
7259.53538	0.00153
7257.60671	0.00154
7255.67803	0.00155
7253.74936	0.00155
7251.82068	0.00156
7249.89200	0.00156
7247.96333	0.00156
7246.03465	0.00157
7244.10598	0.00158
7242.17730	0.00158
7240.24863	0.00158
7238.31995	0.00158
7236.39127	0.00159
7234.46260	0.00158
7232.53392	0.00158
7230.60525	0.00160
7228.67657	0.00160
7226.74790	0.00158
7224.81922	0.00157
7222.89054	0.00158
7220.96187	0.00161
7219.03319	0.00162
7217.10452	0.00162
7215.17584	0.00161
7213.24717	0.00162
7211.31849	0.00163
7209.38981	0.00165
7207.46114	0.00165
7205.53246	0.00164
7203.60379	0.00164
7201.67511	0.00165
7199.74644	0.00165
7197.81776	0.00163
7195.88908	0.00161
7193.96041	0.00162
7192.03173	0.00163
7190.10306	0.00163
7188.17438	0.00162
7186.24571	0.00162
7184.31703	0.00165
7182.38835	0.00169
7180.45968	0.00172
7178.53100	0.00171
7176.60233	0.00170
7174.67365	0.00170
7172.74498	0.00171
7170.81630	0.00171
7168.88762	0.00170
7166.95895	0.00169
7165.03027	0.00169
7163.10160	0.00170
7161.17292	0.00171
7159.24425	0.00171
7157.31557	0.00172
7155.38689	0.00175
7153.45822	0.00176
7151.52954	0.00177
7149.60087	0.00176
7147.67219	0.00176
7145.74352	0.00176
7143.81484	0.00176
7141.88616	0.00177
7139.95749	0.00179
7138.02881	0.00179
7136.10014	0.00178
7134.17146	0.00179
7132.24279	0.00181
7130.31411	0.00179
7128.38543	0.00176
7126.45676	0.00175
7124.52808	0.00175
7122.59941	0.00176
7120.67073	0.00178
7118.74206	0.00179
7116.81338	0.00178
7114.88470	0.00180
7112.95603	0.00183
7111.02735	0.00184
7109.09868	0.00186
7107.17000	0.00186
7105.24133	0.00186
7103.31265	0.00185
7101.38397	0.00185
7099.45530	0.00186
7097.52662	0.00187
7095.59795	0.00188
7093.66927	0.00188
7091.74060	0.00187
7089.81192	0.00186
7087.88324	0.00187
7085.95457	0.00188
7084.02589	0.00188
7082.09722	0.00189
7080.16854	0.00191
7078.23987	0.00193
7076.31119	0.00195
7074.38251	0.00194
7072.45384	0.00192
7070.52516	0.00190
7068.59649	0.00189
7066.66781	0.00189
7064.73914	0.00189
7062.81046	0.00191
7060.88178	0.00194
7058.95311	0.00194
7057.02443	0.00192
7055.09576	0.00192
7053.16708	0.00194
7051.23841	0.00196
7049.30973	0.00197
7047.38105	0.00197
7045.45238	0.00198
7043.52370	0.00198
7041.59503	0.00196
7039.66635	0.00196
7037.73768	0.00196
7035.80900	0.00198
7033.88032	0.00200
7031.95165	0.00202
7030.02297	0.00202
7028.09430	0.00202
7026.16562	0.00203
7024.23695	0.00206
7022.30827	0.00208
7020.37959	0.00208
7018.45092	0.00208
7016.52224	0.00208
7014.59357	0.00208
7012.66489	0.00205
7010.73622	0.00203
7008.80754	0.00202
7006.87886	0.00202
7004.95019	0.00205
7003.02151	0.00209
7001.09284	0.00209
6999.16416	0.00208
6997.23549	0.00207
6995.30681	0.00208
6993.37813	0.00210
6991.44946	0.00211
6989.52078	0.00212
6987.59211	0.00213
6985.66343	0.00212
6983.73476	0.00209
6981.80608	0.00206
6979.87740	0.00207
6977.94873	0.00210
6976.02005	0.00212
6974.09138	0.00213
6972.16270	0.00213
6970.23403	0.00213
6968.30535	0.00215
6966.37667	0.00218
6964.44800	0.00220
6962.51932	0.00219
6960.59065	0.00217
6958.66197	0.00215
6956.73330	0.00216
6954.80462	0.00217
6952.87594	0.00217
6950.94727	0.00217
6949.01859	0.00217
6947.08992	0.00218
6945.16124	0.00220
6943.23257	0.00223
6941.30389	0.00223
6939.37521	0.00223
6937.44654	0.00225
6935.51786	0.00225
6933.58919	0.00224
6931.66051	0.00222
6929.73184	0.00223
6927.80316	0.00224
6925.87448	0.00225
6923.94581	0.00226
6922.01713	0.00228
6920.08846	0.00229
6918.15978	0.00227
6916.23111	0.00225
6914.30243	0.00226
6912.37375	0.00228
6910.44508	0.00231
6908.51640	0.00232
6906.58773	0.00231
6904.65905	0.00231
6902.73038	0.00232
6900.80170	0.00232
6898.87302	0.00231
6896.94435	0.00231
6895.01567	0.00232
6893.08700	0.00232
6891.15832	0.00232
6889.22965	0.00232
6887.30097	0.00232
6885.37229	0.00233
6883.44362	0.00235
6881.51494	0.00237
6879.58627	0.00239
6877.65759	0.00240
6875.72892	0.00240
6873.80024	0.00240
6871.87156	0.00241
6869.94289	0.00241
6868.01421	0.00241
6866.08554	0.00241
6864.15686	0.00240
6862.22819	0.00239
6860.29951	0.00240
6858.37083	0.00243
6856.44216	0.00246
6854.51348	0.00246
6852.58481	0.00244
6850.65613	0.00244
6848.72746	0.00246
6846.79878	0.00248
6844.87010	0.00250
6842.94143	0.00250
6841.01275	0.00250
6839.08408	0.00250
6837.15540	0.00251
6835.22673	0.00251
6833.29805	0.00250
6831.36937	0.00248
6829.44070	0.00248
6827.51202	0.00249
6825.58335	0.00251
6823.65467	0.00252
6821.72600	0.00251
6819.79732	0.00251
6817.86864	0.00252
6815.93997	0.00252
6814.01129	0.00252
6812.08262	0.00253
6810.15394	0.00256
6808.22527	0.00258
6806.29659	0.00258
6804.36791	0.00258
6802.43924	0.00257
6800.51056	0.00258
6798.58189	0.00260
6796.65321	0.00262
6794.72454	0.00261
6792.79586	0.00258
6790.86718	0.00256
6788.93851	0.00258
6787.00983	0.00261
6785.08116	0.00263
6783.15248	0.00264
6781.22381	0.00265
6779.29513	0.00266
6777.36645	0.00266
6775.43778	0.00265
6773.50910	0.00265
6771.58043	0.00266
6769.65175	0.00268
6767.72308	0.00268
6765.79440	0.00268
6763.86572	0.00268
6761.93705	0.00268
6760.00837	0.00269
6758.07970	0.00270
6756.15102	0.00271
6754.22235	0.00272
6752.29367	0.00273
6750.36499	0.00274
6748.43632	0.00274
6746.50764	0.00272
6744.57897	0.00272
6742.65029	0.00273
6740.72162	0.00274
6738.79294	0.00275
6736.86426	0.00276
6734.93559	0.00277
6733.00691	0.00278
6731.07824	0.00278
6729.14956	0.00278
6727.22089	0.00277
6725.29221	0.00278
6723.36353	0.00278
6721.43486	0.00279
6719.50618	0.00282
6717.57751	0.00284
6715.64883	0.00284
6713.72016	0.00281
6711.79148	0.00279
6709.86280	0.00280
6707.93413	0.00284
6706.00545	0.00286
6704.07678	0.00286
6702.14810	0.00286
6700.21943	0.00286
6698.29075	0.00288
6696.36207	0.00290
6694.43340	0.00291
6692.50472	0.00291
6690.57605	0.00291
6688.64737	0.00293
6686.71870	0.00294
6684.79002	0.00294
6682.86134	0.00295
6680.93267	0.00296
6679.00399	0.00297
6677.07532	0.00299
6675.14664	0.00299
6673.21797	0.00298
6671.28929	0.00297
6669.36061	0.00296
6667.43194	0.00298
6665.50326	0.00300
6663.57459	0.00301
6661.64591	0.00300
6659.71724	0.00300
6657.78856	0.00300
6655.85988	0.00301
6653.93121	0.00302
6652.00253	0.00303
6650.07386	0.00304
6648.14518	0.00305
6646.21651	0.00306
6644.28783	0.00304
6642.35915	0.00304
6640.43048	0.00307
6638.50180	0.00310
6636.57313	0.00309
6634.64445	0.00308
6632.71578	0.00309
6630.78710	0.00312
6628.85842	0.00313
6626.92975	0.00315
6625.00107	0.00318
6623.07240	0.00320
6621.14372	0.00319
6619.21505	0.00317
6617.28637	0.00315
6615.35769	0.00315
6613.42902	0.00316
6611.50034	0.00317
6609.57167	0.00318
6607.64299	0.00318
6605.71432	0.00319
6603.78564	0.00320
6601.85696	0.00321
6599.92829	0.00322
6597.99961	0.00322
6596.07094	0.00324
6594.14226	0.00326
6592.21359	0.00327
6590.28491	0.00326
6588.35623	0.00327
6586.42756	0.00327
6584.49888	0.00328
6582.57021	0.00328
6580.64153	0.00330
6578.71286	0.00332
6576.78418	0.00333
6574.85550	0.00333
6572.92683	0.00333
6570.99815	0.00333
6569.06948	0.00334
6567.14080	0.00335
6565.21213	0.00334
6563.28345	0.00333
6561.35477	0.00333
6559.42610	0.00334
6557.49742	0.00336
6555.56875	0.00336
6553.64007	0.00335
6551.71140	0.00335
6549.78272	0.00338
6547.85404	0.00341
6545.92537	0.00344
6543.99669	0.00344
6542.06802	0.00343
6540.13934	0.00341
6538.21067	0.00342
6536.28199	0.00345
6534.35331	0.00347
6532.42464	0.00349
6530.49596	0.00348
6528.56729	0.00345
6526.63861	0.00345
6524.70994	0.00347
6522.78126	0.00348
6520.85258	0.00348
6518.92391	0.00350
6516.99523	0.00352
6515.06656	0.00352
6513.13788	0.00354
6511.20921	0.00357
6509.28053	0.00359
6507.35185	0.00359
6505.42318	0.00358
6503.49450	0.00357
6501.56583	0.00356
6499.63715	0.00355
6497.70848	0.00357
6495.77980	0.00359
6493.85112	0.00361
6491.92245	0.00364
6489.99377	0.00365
6488.06510	0.00364
6486.13642	0.00362
6484.20775	0.00363
6482.27907	0.00366
6480.35039	0.00368
6478.42172	0.00368
6476.49304	0.00368
6474.56437	0.00369
6472.63569	0.00370
6470.70702	0.00370
6468.77834	0.00371
6466.84966	0.00373
6464.92099	0.00374
6462.99231	0.00374
6461.06364	0.00374
6459.13496	0.00373
6457.20629	0.00374
6455.27761	0.00377
6453.34893	0.00379
6451.42026	0.00379
6449.49158	0.00379
6447.56291	0.00379
6445.63423	0.00380
6443.70556	0.00379
6441.77688	0.00378
6439.84820	0.00379
6437.91953	0.00381
6435.99085	0.00384
6434.06218	0.00386
6432.13350	0.00385
6430.20483	0.00385
6428.27615	0.00385
6426.34747	0.00386
6424.41880	0.00388
6422.49012	0.00388
6420.56145	0.00388
6418.63277	0.00390
6416.70410	0.00391
6414.77542	0.00391
6412.84674	0.00392
6410.91807	0.00392
6408.98939	0.00393
6407.06072	0.00397
6405.13204	0.00398
6403.20337	0.00399
6401.27469	0.00400
6399.34601	0.00400
6397.41734	0.00399
6395.48866	0.00399
6393.55999	0.00400
6391.63131	0.00402
6389.70264	0.00405
6387.77396	0.00405
6385.84528	0.00405
6383.91661	0.00405
6381.98793	0.00404
6380.05926	0.00403
6378.13058	0.00404
6376.20191	0.00406
6374.27323	0.00408
6372.34455	0.00411
6370.41588	0.00413
6368.48720	0.00414
6366.55853	0.00414
6364.62985	0.00415
6362.70118	0.00417
6360.77250	0.00417
6358.84382	0.00418
6356.91515	0.00420
6354.98647	0.00422
6353.05780	0.00424
6351.12912	0.00424
6349.20045	0.00423
6347.27177	0.00422
6345.34309	0.00423
6343.41442	0.00423
6341.48574	0.00424
6339.55707	0.00426
6337.62839	0.00427
6335.69972	0.00428
6333.77104	0.00427
6331.84236	0.00427
6329.91369	0.00429
6327.98501	0.00430
6326.05634	0.00432
6324.12766	0.00434
6322.19899	0.00435
6320.27031	0.00435
6318.34163	0.00434
6316.41296	0.00433
6314.48428	0.00434
6312.55561	0.00436
6310.62693	0.00439
6308.69826	0.00440
6306.76958	0.00439
6304.84090	0.00441
6302.91223	0.00445
6300.98355	0.00449
6299.05488	0.00451
6297.12620	0.00450
6295.19753	0.00450
6293.26885	0.00452
6291.34017	0.00453
6289.41150	0.00453
6287.48282	0.00452
6285.55415	0.00452
6283.62547	0.00452
6281.69680	0.00453
6279.76812	0.00455
6277.83944	0.00456
6275.91077	0.00457
6273.98209	0.00459
6272.05342	0.00459
6270.12474	0.00459
6268.19607	0.00461
6266.26739	0.00462
6264.33871	0.00463
6262.41004	0.00464
6260.48136	0.00468
6258.55269	0.00471
6256.62401	0.00471
6254.69534	0.00470
6252.76666	0.00470
6250.83798	0.00472
6248.90931	0.00473
6246.98063	0.00472
6245.05196	0.00470
6243.12328	0.00472
6241.19461	0.00476
6239.26593	0.00478
6237.33725	0.00479
6235.40858	0.00481
6233.47990	0.00482
6231.55123	0.00483
6229.62255	0.00484
6227.69388	0.00484
6225.76520	0.00484
6223.83652	0.00486
6221.90785	0.00489
6219.97917	0.00490
6218.05050	0.00491
6216.12182	0.00493
6214.19315	0.00493
6212.26447	0.00493
6210.33579	0.00492
6208.40712	0.00490
6206.47844	0.00491
6204.54977	0.00496
6202.62109	0.00501
6200.69242	0.00501
6198.76374	0.00498
6196.83506	0.00496
6194.90639	0.00497
6192.97771	0.00501
6191.04904	0.00505
6189.12036	0.00509
6187.19169	0.00509
6185.26301	0.00507
6183.33433	0.00507
6181.40566	0.00509
6179.47698	0.00510
6177.54831	0.00511
6175.61963	0.00514
6173.69096	0.00515
6171.76228	0.00512
6169.83360	0.00510
6167.90493	0.00512
6165.97625	0.00515
6164.04758	0.00518
6162.11890	0.00520
6160.19023	0.00521
6158.26155	0.00520
6156.33287	0.00520
6154.40420	0.00522
6152.47552	0.00524
6150.54685	0.00524
6148.61817	0.00526
6146.68950	0.00529
6144.76082	0.00532
6142.83214	0.00532
6140.90347	0.00532
6138.97479	0.00532
6137.04612	0.00532
6135.11744	0.00533
6133.18877	0.00535
6131.26009	0.00536
6129.33141	0.00537
6127.40274	0.00538
6125.47406	0.00538
6123.54539	0.00539
6121.61671	0.00541
6119.68804	0.00544
6117.75936	0.00546
6115.83068	0.00547
6113.90201	0.00548
6111.97333	0.00549
6110.04466	0.00550
6108.11598	0.00551
6106.18731	0.00551
6104.25863	0.00551
6102.32995	0.00552
6100.40128	0.00556
6098.47260	0.00559
6096.54393	0.00560
6094.61525	0.00559
6092.68658	0.00560
6090.75790	0.00562
6088.82922	0.00563
6086.90055	0.00563
6084.97187	0.00564
6083.04320	0.00566
6081.11452	0.00566
6079.18585	0.00565
6077.25717	0.00568
6075.32849	0.00571
6073.39982	0.00574
6071.47114	0.00575
6069.54247	0.00576
6067.61379	0.00576
6065.68512	0.00577
6063.75644	0.00578
6061.82776	0.00579
6059.89909	0.00580
6057.97041	0.00582
6056.04174	0.00582
6054.11306	0.00583
6052.18439	0.00585
6050.25571	0.00588
6048.32703	0.00589
6046.39836	0.00588
6044.46968	0.00588
6042.54101	0.00591
6040.61233	0.00594
6038.68366	0.00597
6036.75498	0.00598
6034.82630	0.00598
6032.89763	0.00598
6030.96895	0.00599
6029.04028	0.00599
6027.11160	0.00599
6025.18293	0.00601
6023.25425	0.00604
6021.32557	0.00605
6019.39690	0.00606
6017.46822	0.00608
6015.53955	0.00609
6013.61087	0.00609
6011.68220	0.00610
6009.75352	0.00613
6007.82484	0.00616
6005.89617	0.00618
6003.96749	0.00619
6002.03882	0.00620
6000.11014	0.00619
5998.18147	0.00618
5996.25279	0.00618
5994.32411	0.00621
5992.39544	0.00624
5990.46676	0.00627
5988.53809	0.00628
5986.60941	0.00630
5984.68074	0.00632
5982.75206	0.00632
5980.82338	0.00629
5978.89471	0.00628
5976.96603	0.00631
5975.03736	0.00634
5973.10868	0.00637
5971.18001	0.00639
5969.25133	0.00641
5967.32265	0.00641
5965.39398	0.00642
5963.46530	0.00646
5961.53663	0.00649
5959.60795	0.00651
5957.67928	0.00654
5955.75060	0.00655
5953.82192	0.00654
5951.89325	0.00653
5949.96457	0.00653
5948.03590	0.00652
5946.10722	0.00653
5944.17855	0.00656
5942.24987	0.00660
5940.32119	0.00663
5938.39252	0.00664
5936.46384	0.00664
5934.53517	0.00664
5932.60649	0.00664
5930.67782	0.00665
5928.74914	0.00666
5926.82046	0.00670
5924.89179	0.00673
5922.96311	0.00674
5921.03444	0.00672
5919.10576	0.00671
5917.17709	0.00672
5915.24841	0.00676
5913.31973	0.00680
5911.39106	0.00682
5909.46238	0.00683
5907.53371	0.00684
5905.60503	0.00686
5903.67636	0.00685
5901.74768	0.00686
5899.81900	0.00689
5897.89033	0.00692
5895.96165	0.00693
5894.03298	0.00694
5892.10430	0.00696
5890.17563	0.00698
5888.24695	0.00700
5886.31827	0.00703
5884.38960	0.00704
5882.46092	0.00703
5880.53225	0.00703
5878.60357	0.00704
5876.67490	0.00706
5874.74622	0.00708
5872.81755	0.00710
5870.88887	0.00713
5868.96019	0.00714
5867.03152	0.00713
5865.10284	0.00713
5863.17417	0.00713
5861.24549	0.00716
5859.31682	0.00719
5857.38814	0.00720
5855.45946	0.00720
5853.53079	0.00722
5851.60211	0.00727
5849.67344	0.00730
5847.74476	0.00731
5845.81609	0.00730
5843.88741	0.00729
5841.95873	0.00729
5840.03006	0.00730
5838.10138	0.00732
5836.17271	0.00736
5834.24403	0.00741
5832.31536	0.00744
5830.38668	0.00745
5828.45800	0.00746
5826.52933	0.00748
5824.60065	0.00751
5822.67198	0.00751
5820.74330	0.00751
5818.81463	0.00752
5816.88595	0.00754
5814.95727	0.00755
5813.02860	0.00755
5811.09992	0.00757
5809.17125	0.00760
5807.24257	0.00764
5805.31390	0.00768
5803.38522	0.00770
5801.45654	0.00768
5799.52787	0.00767
5797.59919	0.00769
5795.67052	0.00771
5793.74184	0.00773
5791.81317	0.00775
5789.88449	0.00778
5787.95581	0.00781
5786.02714	0.00781
5784.09846	0.00780
5782.16979	0.00783
5780.24111	0.00786
5778.31244	0.00787
5776.38376	0.00787
5774.45508	0.00790
5772.52641	0.00791
5770.59773	0.00790
5768.66906	0.00790
5766.74038	0.00793
5764.81171	0.00799
5762.88303	0.00803
5760.95435	0.00805
5759.02568	0.00806
5757.09700	0.00806
5755.16833	0.00807
5753.23965	0.00809
5751.31098	0.00811
5749.38230	0.00813
5747.45362	0.00814
5745.52495	0.00815
5743.59627	0.00815
5741.66760	0.00818
5739.73892	0.00821
5737.81025	0.00823
5735.88157	0.00825
5733.95289	0.00825
5732.02422	0.00824
5730.09554	0.00824
5728.16687	0.00826
5726.23819	0.00828
5724.30952	0.00829
5722.38084	0.00831
5720.45216	0.00834
5718.52349	0.00839
5716.59481	0.00842
5714.66614	0.00844
5712.73746	0.00844
5710.80879	0.00844
5708.88011	0.00843
5706.95143	0.00844
5705.02276	0.00847
5703.09408	0.00850
5701.16541	0.00852
5699.23673	0.00854
5697.30806	0.00858
5695.37938	0.00860
5693.45070	0.00861
5691.52203	0.00862
5689.59335	0.00864
5687.66468	0.00866
5685.73600	0.00868
5683.80733	0.00870
5681.87865	0.00870
5679.94997	0.00871
5678.02130	0.00875
5676.09262	0.00878
5674.16395	0.00878
5672.23527	0.00877
5670.30660	0.00882
5668.37792	0.00887
5666.44924	0.00889
5664.52057	0.00891
5662.59189	0.00891
5660.66322	0.00890
5658.73454	0.00891
5656.80587	0.00895
5654.87719	0.00898
5652.94851	0.00899
5651.01984	0.00898
5649.09116	0.00898
5647.16249	0.00899
5645.23381	0.00902
5643.30514	0.00906
5641.37646	0.00909
5639.44778	0.00910
5637.51911	0.00912
5635.59043	0.00915
5633.66176	0.00916
5631.73308	0.00916
5629.80441	0.00919
5627.87573	0.00923
5625.94705	0.00923
5624.01838	0.00923
5622.08970	0.00925
5620.16103	0.00928
5618.23235	0.00929
5616.30368	0.00930
5614.37500	0.00932
5612.44632	0.00933
5610.51765	0.00935
5608.58897	0.00937
5606.66030	0.00938
5604.73162	0.00940
5602.80295	0.00943
5600.87427	0.00947
5598.94559	0.00951
5597.01692	0.00953
5595.08824	0.00951
5593.15957	0.00950
5591.23089	0.00952
5589.30222	0.00956
5587.37354	0.00961
5585.44486	0.00965
5583.51619	0.00966
5581.58751	0.00964
5579.65884	0.00964
5577.73016	0.00967
5575.80149	0.00970
5573.87281	0.00973
5571.94413	0.00975
5570.01546	0.00978
5568.08678	0.00980
5566.15811	0.00979
5564.22943	0.00978
5562.30076	0.00980
5560.37208	0.00984
5558.44340	0.00986
5556.51473	0.00987
5554.58605	0.00987
5552.65738	0.00988
5550.72870	0.00991
5548.80003	0.00995
5546.87135	0.00999
5544.94267	0.01002
5543.01400	0.01005
5541.08532	0.01008
5539.15665	0.01011
5537.22797	0.01011
5535.29930	0.01009
5533.37062	0.01011
5531.44194	0.01016
5529.51327	0.01021
5527.58459	0.01023
5525.65592	0.01024
5523.72724	0.01022
5521.79857	0.01022
5519.86989	0.01025
5517.94121	0.01028
5516.01254	0.01031
5514.08386	0.01034
5512.15519	0.01037
5510.22651	0.01037
5508.29784	0.01038
5506.36916	0.01041
5504.44048	0.01046
5502.51181	0.01050
5500.58313	0.01053
5498.65446	0.01055
5496.72578	0.01056
5494.79711	0.01056
5492.86843	0.01056
5490.93975	0.01055
5489.01108	0.01056
5487.08240	0.01059
5485.15373	0.01061
5483.22505	0.01064
5481.29638	0.01066
5479.36770	0.01067
5477.43902	0.01070
5475.51035	0.01074
5473.58167	0.01078
5471.65300	0.01081
5469.72432	0.01085
5467.79565	0.01088
5465.86697	0.01090
5463.93829	0.01091
5462.00962	0.01092
5460.08094	0.01093
5458.15227	0.01093
5456.22359	0.01093
5454.29492	0.01094
5452.36624	0.01097
5450.43756	0.01099
5448.50889	0.01101
5446.58021	0.01106
5444.65154	0.01110
5442.72286	0.01114
5440.79419	0.01115
5438.86551	0.01116
5436.93683	0.01117
5435.00816	0.01119
5433.07948	0.01117
5431.15081	0.01115
5429.22213	0.01117
5427.29346	0.01122
5425.36478	0.01126
5423.43610	0.01131
5421.50743	0.01136
5419.57875	0.01137
5417.65008	0.01138
5415.72140	0.01139
5413.79273	0.01141
5411.86405	0.01143
5409.93537	0.01145
5408.00670	0.01148
5406.07802	0.01152
5404.14935	0.01154
5402.22067	0.01155
5400.29200	0.01156
5398.36332	0.01158
5396.43464	0.01159
5394.50597	0.01159
5392.57729	0.01161
5390.64862	0.01166
5388.71994	0.01171
5386.79127	0.01173
5384.86259	0.01172
5382.93391	0.01172
5381.00524	0.01174
5379.07656	0.01177
5377.14789	0.01181
5375.21921	0.01184
5373.29054	0.01188
5371.36186	0.01192
5369.43318	0.01194
5367.50451	0.01195
5365.57583	0.01196
5363.64716	0.01196
5361.71848	0.01198
5359.78981	0.01201
5357.86113	0.01203
5355.93245	0.01205
5354.00378	0.01207
5352.07510	0.01207
5350.14643	0.01207
5348.21775	0.01211
5346.28908	0.01217
5344.36040	0.01223
5342.43172	0.01229
5340.50305	0.01229
5338.57437	0.01226
5336.64570	0.01224
5334.71702	0.01226
5332.78835	0.01227
5330.85967	0.01227
5328.93099	0.01229
5327.00232	0.01233
5325.07364	0.01237
5323.14497	0.01242
5321.21629	0.01246
5319.28762	0.01248
5317.35894	0.01251
5315.43026	0.01255
5313.50159	0.01258
5311.57291	0.01260
5309.64424	0.01261
5307.71556	0.01263
5305.78689	0.01266
5303.85821	0.01271
5301.92953	0.01273
5300.00086	0.01275
5298.07218	0.01277
5296.14351	0.01279
5294.21483	0.01280
5292.28616	0.01278
5290.35748	0.01277
5288.42880	0.01280
5286.50013	0.01285
5284.57145	0.01288
5282.64278	0.01288
5280.71410	0.01292
5278.78543	0.01298
5276.85675	0.01303
5274.92807	0.01307
5272.99940	0.01309
5271.07072	0.01311
5269.14205	0.01313
5267.21337	0.01315
5265.28470	0.01316
5263.35602	0.01317
5261.42734	0.01318
5259.49867	0.01320
5257.56999	0.01323
5255.64132	0.01326
5253.71264	0.01329
5251.78397	0.01331
5249.85529	0.01332
5247.92661	0.01332
5245.99794	0.01336
5244.06926	0.01341
5242.14059	0.01344
5240.21191	0.01346
5238.28324	0.01348
5236.35456	0.01350
5234.42588	0.01352
5232.49721	0.01355
5230.56853	0.01358
5228.63986	0.01358
5226.71118	0.01359
5224.78251	0.01365
5222.85383	0.01373
5220.92515	0.01377
5218.99648	0.01376
5217.06780	0.01375
5215.13913	0.01376
5213.21045	0.01379
5211.28178	0.01382
5209.35310	0.01385
5207.42442	0.01386
5205.49575	0.01385
5203.56707	0.01387
5201.63840	0.01390
5199.70972	0.01392
5197.78105	0.01394
5195.85237	0.01398
5193.92369	0.01404
5191.99502	0.01409
5190.06634	0.01410
5188.13767	0.01410
5186.20899	0.01411
5184.28032	0.01414
5182.35164	0.01419
5180.42296	0.01424
5178.49429	0.01426
5176.56561	0.01425
5174.63694	0.01425
5172.70826	0.01427
5170.77959	0.01431
5168.85091	0.01437
5166.92223	0.01442
5164.99356	0.01443
5163.06488	0.01445
5161.13621	0.01448
5159.20753	0.01450
5157.27886	0.01452
5155.35018	0.01453
5153.42150	0.01455
5151.49283	0.01458
5149.56415	0.01462
5147.63548	0.01466
5145.70680	0.01470
5143.77813	0.01471
5141.84945	0.01472
5139.92077	0.01474
5137.99210	0.01475
5136.06342	0.01476
5134.13475	0.01478
5132.20607	0.01482
5130.27740	0.01486
5128.34872	0.01491
5126.42004	0.01495
5124.49137	0.01497
5122.56269	0.01498
5120.63402	0.01498
5118.70534	0.01499
5116.77667	0.01500
5114.84799	0.01502
5112.91931	0.01505
5110.99064	0.01508
5109.06196	0.01511
5107.13329	0.01513
5105.20461	0.01514
5103.27594	0.01517
5101.34726	0.01520
5099.41858	0.01522
5097.48991	0.01523
5095.56123	0.01526
5093.63256	0.01532
5091.70388	0.01536
5089.77521	0.01539
5087.84653	0.01542
5085.91785	0.01543
5083.98918	0.01545
5082.06050	0.01549
5080.13183	0.01551
5078.20315	0.01553
5076.27448	0.01556
5074.34580	0.01561
5072.41712	0.01566
5070.48845	0.01570
5068.55977	0.01571
5066.63110	0.01571
5064.70242	0.01572
5062.77375	0.01573
5060.84507	0.01576
5058.91639	0.01581
5056.98772	0.01583
5055.05904	0.01583
5053.13037	0.01585
5051.20169	0.01590
5049.27302	0.01596
5047.34434	0.01601
5045.41566	0.01605
5043.48699	0.01605
5041.55831	0.01603
5039.62964	0.01603
5037.70096	0.01606
5035.77229	0.01613
5033.84361	0.01616
5031.91493	0.01616
5029.98626	0.01618
5028.05758	0.01621
5026.12891	0.01625
5024.20023	0.01630
5022.27156	0.01635
5020.34288	0.01638
5018.41420	0.01639
5016.48553	0.01640
5014.55685	0.01642
5012.62818	0.01646
5010.69950	0.01650
5008.77083	0.01654
5006.84215	0.01657
5004.91347	0.01659
5002.98480	0.01662
5001.05612	0.01665
4999.12745	0.01667
4997.19877	0.01669
4995.27010	0.01673
4993.34142	0.01676
4991.41274	0.01677
4989.48407	0.01679
4987.55539	0.01682
4985.62672	0.01685
4983.69804	0.01688
4981.76937	0.01692
4979.84069	0.01696
4977.91201	0.01701
4975.98334	0.01704
4974.05466	0.01707
4972.12599	0.01709
4970.19731	0.01707
4968.26864	0.01705
4966.33996	0.01704
4964.41128	0.01708
4962.48261	0.01715
4960.55393	0.01723
4958.62526	0.01726
4956.69658	0.01727
4954.76791	0.01728
4952.83923	0.01729
4950.91055	0.01732
4948.98188	0.01738
4947.05320	0.01743
4945.12453	0.01748
4943.19585	0.01751
4941.26718	0.01752
4939.33850	0.01755
4937.40982	0.01758
4935.48115	0.01760
4933.55247	0.01763
4931.62380	0.01767
4929.69512	0.01768
4927.76645	0.01768
4925.83777	0.01770
4923.90909	0.01774
4921.98042	0.01778
4920.05174	0.01782
4918.12307	0.01786
4916.19439	0.01790
4914.26572	0.01793
4912.33704	0.01795
4910.40836	0.01793
4908.47969	0.01792
4906.55101	0.01796
4904.62234	0.01801
4902.69366	0.01805
4900.76499	0.01808
4898.83631	0.01810
4896.90763	0.01811
4894.97896	0.01814
4893.05028	0.01818
4891.12161	0.01823
4889.19293	0.01829
4887.26426	0.01834
4885.33558	0.01836
4883.40690	0.01835
4881.47823	0.01836
4879.54955	0.01843
4877.62088	0.01853
4875.69220	0.01857
4873.76353	0.01856
4871.83485	0.01855
4869.90617	0.01858
4867.97750	0.01861
4866.04882	0.01864
4864.12015	0.01864
4862.19147	0.01864
4860.26280	0.01867
4858.33412	0.01873
4856.40544	0.01877
4854.47677	0.01879
4852.54809	0.01881
4850.61942	0.01884
4848.69074	0.01888
4846.76207	0.01894
4844.83339	0.01897
4842.90471	0.01896
4840.97604	0.01897
4839.04736	0.01900
4837.11869	0.01905
4835.19001	0.01910
4833.26134	0.01912
4831.33266	0.01913
4829.40398	0.01916
4827.47531	0.01920
4825.54663	0.01924
4823.61796	0.01927
4821.68928	0.01929
4819.76061	0.01930
4817.83193	0.01933
4815.90325	0.01937
4813.97458	0.01944
4812.04590	0.01952
4810.11723	0.01958
4808.18855	0.01961
4806.25988	0.01960
4804.33120	0.01959
4802.40252	0.01961
4800.47385	0.01966
4798.54517	0.01972
4796.61650	0.01977
4794.68782	0.01981
4792.75915	0.01982
4790.83047	0.01982
4788.90179	0.01986
4786.97312	0.01993
4785.04444	0.01998
4783.11577	0.01999
4781.18709	0.01999
4779.25842	0.02001
4777.32974	0.02004
4775.40106	0.02007
4773.47239	0.02011
4771.54371	0.02015
4769.61504	0.02019
4767.68636	0.02023
4765.75769	0.02026
4763.82901	0.02028
4761.90033	0.02033
4759.97166	0.02039
4758.04298	0.02043
4756.11431	0.02042
4754.18563	0.02042
4752.25696	0.02042
4750.32828	0.02046
4748.39960	0.02053
4746.47093	0.02059
4744.54225	0.02064
4742.61358	0.02067
4740.68490	0.02069
4738.75623	0.02071
4736.82755	0.02073
4734.89887	0.02077
4732.97020	0.02084
4731.04152	0.02088
4729.11285	0.02089
4727.18417	0.02089
4725.25550	0.02093
4723.32682	0.02098
4721.39814	0.02102
4719.46947	0.02108
4717.54079	0.02117
4715.61212	0.02121
4713.68344	0.02120
4711.75477	0.02119
4709.82609	0.02120
4707.89741	0.02123
4705.96874	0.02125
4704.04006	0.02128
4702.11139	0.02136
4700.18271	0.02141
4698.25404	0.02142
4696.32536	0.02146
4694.39668	0.02151
4692.46801	0.02154
4690.53933	0.02153
4688.61066	0.02154
4686.68198	0.02161
4684.75331	0.02168
4682.82463	0.02172
4680.89595	0.02172
4678.96728	0.02176
4677.03860	0.02181
4675.10993	0.02186
4673.18125	0.02192
4671.25258	0.02196
4669.32390	0.02195
4667.39522	0.02195
4665.46655	0.02197
4663.53787	0.02204
4661.60920	0.02210
4659.68052	0.02215
4657.75185	0.02218
4655.82317	0.02221
4653.89449	0.02225
4651.96582	0.02229
4650.03714	0.02231
4648.10847	0.02233
4646.17979	0.02236
4644.25112	0.02242
4642.32244	0.02249
4640.39376	0.02252
4638.46509	0.02252
4636.53641	0.02254
4634.60774	0.02261
4632.67906	0.02267
4630.75039	0.02269
4628.82171	0.02269
4626.89303	0.02271
4624.96436	0.02276
4623.03568	0.02279
4621.10701	0.02282
4619.17833	0.02287
4617.24966	0.02294
4615.32098	0.02300
4613.39230	0.02303
4611.46363	0.02308
4609.53495	0.02314
4607.60628	0.02317
4605.67760	0.02320
4603.74893	0.02324
4601.82025	0.02329
4599.89157	0.02333
4597.96290	0.02334
4596.03422	0.02333
4594.10555	0.02336
4592.17687	0.02343
4590.24820	0.02348
4588.31952	0.02350
4586.39084	0.02352
4584.46217	0.02355
4582.53349	0.02360
4580.60482	0.02366
4578.67614	0.02372
4576.74747	0.02376
4574.81879	0.02378
4572.89011	0.02377
4570.96144	0.02380
4569.03276	0.02387
4567.10409	0.02395
4565.17541	0.02401
4563.24674	0.02405
4561.31806	0.02408
4559.38938	0.02410
4557.46071	0.02412
4555.53203	0.02416
4553.60336	0.02423
4551.67468	0.02432
4549.74601	0.02438
4547.81733	0.02438
4545.88865	0.02438
4543.95998	0.02443
4542.03130	0.02450
4540.10263	0.02451
4538.17395	0.02451
4536.24528	0.02456
4534.31660	0.02463
4532.38792	0.02468
4530.45925	0.02473
4528.53057	0.02478
4526.60190	0.02484
4524.67322	0.02488
4522.74455	0.02491
4520.81587	0.02495
4518.88719	0.02501
4516.95852	0.02506
4515.02984	0.02510
4513.10117	0.02514
4511.17249	0.02517
4509.24382	0.02519
4507.31514	0.02521
4505.38646	0.02524
4503.45779	0.02528
4501.52911	0.02531
4499.60044	0.02536
4497.67176	0.02541
4495.74309	0.02545
4493.81441	0.02549
4491.88573	0.02552
4489.95706	0.02557
4488.02838	0.02565
4486.09971	0.02569
4484.17103	0.02569
4482.24236	0.02571
4480.31368	0.02579
4478.38500	0.02586
4476.45633	0.02593
4474.52765	0.02598
4472.59898	0.02603
4470.67030	0.02608
4468.74163	0.02617
4466.81295	0.02623
4464.88427	0.02624
4462.95560	0.02625
4461.02692	0.02629
4459.09825	0.02635
4457.16957	0.02639
4455.24090	0.02642
4453.31222	0.02645
4451.38354	0.02650
4449.45487	0.02657
4447.52619	0.02663
4445.59752	0.02669
4443.66884	0.02671
4441.74017	0.02672
4439.81149	0.02675
4437.88281	0.02680
4435.95414	0.02686
4434.02546	0.02692
4432.09679	0.02699
4430.16811	0.02704
4428.23944	0.02708
4426.31076	0.02710
4424.38208	0.02714
4422.45341	0.02719
4420.52473	0.02724
4418.59606	0.02727
4416.66738	0.02728
4414.73871	0.02731
4412.81003	0.02737
4410.88135	0.02743
4408.95268	0.02749
4407.02400	0.02755
4405.09533	0.02759
4403.16665	0.02763
4401.23798	0.02769
4399.30930	0.02774
4397.38062	0.02779
4395.45195	0.02785
4393.52327	0.02790
4391.59460	0.02796
4389.66592	0.02803
4387.73725	0.02809
4385.80857	0.02813
4383.87989	0.02816
4381.95122	0.02821
4380.02254	0.02824
4378.09387	0.02827
4376.16519	0.02833
4374.23652	0.02841
4372.30784	0.02848
4370.37916	0.02852
4368.45049	0.02856
4366.52181	0.02859
4364.59314	0.02863
4362.66446	0.02868
4360.73579	0.02875
4358.80711	0.02880
4356.87843	0.02882
4354.94976	0.02882
4353.02108	0.02888
4351.09241	0.02897
4349.16373	0.02906
4347.23506	0.02913
4345.30638	0.02917
4343.37770	0.02921
4341.44903	0.02923
4339.52035	0.02926
4337.59168	0.02930
4335.66300	0.02935
4333.73433	0.02943
4331.80565	0.02950
4329.87697	0.02956
4327.94830	0.02961
4326.01962	0.02966
4324.09095	0.02970
4322.16227	0.02975
4320.23360	0.02982
4318.30492	0.02989
4316.37624	0.02995
4314.44757	0.03002
4312.51889	0.03008
4310.59022	0.03013
4308.66154	0.03016
4306.73287	0.03021
4304.80419	0.03029
4302.87551	0.03036
4300.94684	0.03042
4299.01816	0.03046
4297.08949	0.03050
4295.16081	0.03055
4293.23214	0.03062
4291.30346	0.03068
4289.37478	0.03074
4287.44611	0.03079
4285.51743	0.03085
4283.58876	0.03090
4281.66008	0.03096
4279.73141	0.03102
4277.80273	0.03107
4275.87405	0.03113
4273.94538	0.03116
4272.01670	0.03119
4270.08803	0.03126
4268.15935	0.03136
4266.23068	0.03146
4264.30200	0.03153
4262.37332	0.03158
4260.44465	0.03161
4258.51597	0.03164
4256.58730	0.03167
4254.65862	0.03169
4252.72995	0.03172
4250.80127	0.03180
4248.87259	0.03189
4246.94392	0.03196
4245.01524	0.03200
4243.08657	0.03204
4241.15789	0.03208
4239.22922	0.03215
4237.30054	0.03225
4235.37186	0.03235
4233.44319	0.03242
4231.51451	0.03244
4229.58584	0.03244
4227.65716	0.03248
4225.72849	0.03256
4223.79981	0.03266
4221.87113	0.03276
4219.94246	0.03284
4218.01378	0.03289
4216.08511	0.03294
4214.15643	0.03300
4212.22776	0.03307
4210.29908	0.03315
4208.37040	0.03322
4206.44173	0.03327
4204.51305	0.03330
4202.58438	0.03332
4200.65570	0.03336
4198.72703	0.03343
4196.79835	0.03353
4194.86968	0.03361
4192.94100	0.03366
4191.01232	0.03370
4189.08365	0.03374
4187.15497	0.03380
4185.22630	0.03388
4183.29762	0.03397
4181.36895	0.03404
4179.44027	0.03408
4177.51159	0.03413
4175.58292	0.03421
4173.65424	0.03429
4171.72557	0.03433
4169.79689	0.03435
4167.86822	0.03440
4165.93954	0.03448
4164.01086	0.03456
4162.08219	0.03464
4160.15351	0.03473
4158.22484	0.03478
4156.29616	0.03483
4154.36749	0.03491
4152.43881	0.03500
4150.51013	0.03508
4148.58146	0.03516
4146.65278	0.03523
4144.72411	0.03532
4142.79543	0.03539
4140.86676	0.03542
4138.93808	0.03545
4137.00940	0.03551
4135.08073	0.03557
4133.15205	0.03562
4131.22338	0.03570
4129.29470	0.03581
4127.36603	0.03591
4125.43735	0.03597
4123.50867	0.03603
4121.58000	0.03609
4119.65132	0.03615
4117.72265	0.03623
4115.79397	0.03631
4113.86530	0.03637
4111.93662	0.03639
4110.00794	0.03643
4108.07927	0.03653
4106.15059	0.03663
4104.22192	0.03672
4102.29324	0.03679
4100.36457	0.03686
4098.43589	0.03692
4096.50721	0.03698
4094.57854	0.03706
4092.64986	0.03714
4090.72119	0.03723
4088.79251	0.03730
4086.86384	0.03738
4084.93516	0.03744
4083.00648	0.03748
4081.07781	0.03752
4079.14913	0.03758
4077.22046	0.03769
4075.29178	0.03778
4073.36311	0.03784
4071.43443	0.03790
4069.50575	0.03798
4067.57708	0.03804
4065.64840	0.03808
4063.71973	0.03814
4061.79105	0.03824
4059.86238	0.03833
4057.93370	0.03840
4056.00502	0.03848
4054.07635	0.03859
4052.14767	0.03865
4050.21900	0.03867
4048.29032	0.03869
4046.36165	0.03873
4044.43297	0.03881
4042.50429	0.03891
4040.57562	0.03902
4038.64694	0.03911
4036.71827	0.03917
4034.78959	0.03923
4032.86092	0.03932
4030.93224	0.03943
4029.00356	0.03950
4027.07489	0.03954
4025.14621	0.03959
4023.21754	0.03965
4021.28886	0.03970
4019.36019	0.03975
4017.43151	0.03982
4015.50283	0.03993
4013.57416	0.04005
4011.64548	0.04015
4009.71681	0.04025
4007.78813	0.04036
4005.85946	0.04043
4003.93078	0.04048
4002.00210	0.04054
4000.07343	0.04062
3998.14475	0.04069
3996.21608	0.04075
3994.28740	0.04083
3992.35873	0.04092
3990.43005	0.04100
3988.50137	0.04106
3986.57270	0.04111
3984.64402	0.04115
3982.71535	0.04123
3980.78667	0.04136
3978.85800	0.04145
3976.92932	0.04149
3975.00064	0.04155
3973.07197	0.04164
3971.14329	0.04175
3969.21462	0.04183
3967.28594	0.04189
3965.35727	0.04193
3963.42859	0.04196
3961.49991	0.04202
3959.57124	0.04214
3957.64256	0.04228
3955.71389	0.04240
3953.78521	0.04248
3951.85654	0.04253
3949.92786	0.04258
3947.99918	0.04266
3946.07051	0.04275
3944.14183	0.04281
3942.21316	0.04286
3940.28448	0.04296
3938.35581	0.04309
3936.42713	0.04317
3934.49845	0.04321
3932.56978	0.04326
3930.64110	0.04333
3928.71243	0.04340
3926.78375	0.04348
3924.85508	0.04359
3922.92640	0.04371
3920.99772	0.04380
3919.06905	0.04383
3917.14037	0.04389
3915.21170	0.04401
3913.28302	0.04414
3911.35435	0.04424
3909.42567	0.04429
3907.49699	0.04427
3905.56832	0.04425
3903.63964	0.04425
3901.71097	0.04429
3899.78229	0.04442
3897.85362	0.04462
3895.92494	0.04479
3893.99626	0.04484
3892.06759	0.04486
3890.13891	0.04496
3888.21024	0.04505
3886.28156	0.04508
3884.35289	0.04514
3882.42421	0.04525
3880.49553	0.04535
3878.56686	0.04549
3876.63818	0.04562
3874.70951	0.04568
3872.78083	0.04571
3870.85216	0.04574
3868.92348	0.04583
3866.99480	0.04593
3865.06613	0.04600
3863.13745	0.04613
3861.20878	0.04627
3859.28010	0.04636
3857.35143	0.04631
3855.42275	0.04612
3853.49407	0.04610
3851.56540	0.04639
3849.63672	0.04674
3847.70805	0.04694
3845.77937	0.04703
3843.85070	0.04705
3841.92202	0.04706
3839.99334	0.04706
3838.06467	0.04711
3836.13599	0.04725
3834.20732	0.04739
3832.27864	0.04751
3830.34997	0.04763
3828.42129	0.04774
3826.49261	0.04782
3824.56394	0.04788
3822.63526	0.04792
3820.70659	0.04799
3818.77791	0.04809
3816.84924	0.04817
3814.92056	0.04832
3812.99188	0.04854
3811.06321	0.04869
3809.13453	0.04874
3807.20586	0.04878
3805.27718	0.04883
3803.34851	0.04882
3801.41983	0.04883
3799.49115	0.04897
3797.56248	0.04914
3795.63380	0.04929
3793.70513	0.04947
3791.77645	0.04962
3789.84778	0.04972
3787.91910	0.04977
3785.99042	0.04980
3784.06175	0.04987
3782.13307	0.04995
3780.20440	0.05003
3778.27572	0.05018
3776.34705	0.05036
3774.41837	0.05045
3772.48969	0.05044
3770.56102	0.05043
3768.63234	0.05050
3766.70367	0.05062
3764.77499	0.05077
3762.84632	0.05088
3760.91764	0.05091
3758.98896	0.05098
3757.06029	0.05113
3755.13161	0.05119
3753.20294	0.05112
3751.27426	0.05109
3749.34559	0.05118
3747.41691	0.05118
3745.48823	0.05109
3743.55956	0.05127
3741.63088	0.05167
3739.70221	0.05183
3737.77353	0.05172
3735.84486	0.05169
3733.91618	0.05187
3731.98750	0.05214
3730.05883	0.05239
3728.13015	0.05252
3726.20148	0.05257
3724.27280	0.05263
3722.34413	0.05272
3720.41545	0.05286
3718.48677	0.05304
3716.55810	0.05316
3714.62942	0.05316
3712.70075	0.05310
3710.77207	0.05315
3708.84340	0.05333
3706.91472	0.05353
3704.98604	0.05361
3703.05737	0.05365
3701.12869	0.05375
3699.20002	0.05394
3697.27134	0.05412
3695.34267	0.05420
3693.41399	0.05415
3691.48531	0.05406
3689.55664	0.05410
3687.62796	0.05433
3685.69929	0.05459
3683.77061	0.05475
3681.84194	0.05480
3679.91326	0.05478
3677.98458	0.05470
3676.05591	0.05466
3674.12723	0.05482
3672.19856	0.05502
3670.26988	0.05515
3668.34121	0.05533
3666.41253	0.05555
3664.48385	0.05567
3662.55518	0.05574
3660.62650	0.05581
3658.69783	0.05584
3656.76915	0.05584
3654.84048	0.05588
3652.91180	0.05585
3650.98312	0.05568
3649.05445	0.05560
3647.12577	0.05578
3645.19710	0.05611
3643.26842	0.05639
3641.33975	0.05656
3639.41107	0.05669
3637.48239	0.05681
3635.55372	0.05688
3633.62504	0.05688
3631.69637	0.05679
3629.76769	0.05670
3627.83902	0.05682
3625.91034	0.05709
3623.98166	0.05728
3622.05299	0.05731
3620.12431	0.05727
3618.19564	0.05730
3616.26696	0.05739
3614.33829	0.05747
3612.40961	0.05751
3610.48093	0.05755
3608.55226	0.05762
3606.62358	0.05774
3604.69491	0.05790
3602.76623	0.05803
3600.83756	0.05812
3598.90888	0.05817
3596.98020	0.05823
3595.05153	0.05829
3593.12285	0.05836
3591.19418	0.05840
3589.26550	0.05836
3587.33683	0.05834
3585.40815	0.05844
3583.47947	0.05862
3581.55080	0.05878
3579.62212	0.05892
3577.69345	0.05899
3575.76477	0.05903
3573.83610	0.05911
3571.90742	0.05921
3569.97874	0.05921
3568.05007	0.05915
3566.12139	0.05923
3564.19272	0.05945
3562.26404	0.05964
3560.33537	0.05976
3558.40669	0.05986
3556.47801	0.05992
3554.54934	0.05993
3552.62066	0.05992
3550.69199	0.05998
3548.76331	0.06005
3546.83464	0.06011
3544.90596	0.06023
3542.97728	0.06039
3541.04861	0.06052
3539.11993	0.06060
3537.19126	0.06064
3535.26258	0.06064
3533.33391	0.06062
3531.40523	0.06062
3529.47655	0.06065
3527.54788	0.06069
3525.61920	0.06071
3523.69053	0.06075
3521.76185	0.06083
3519.83318	0.06092
3517.90450	0.06098
3515.97582	0.06103
3514.04715	0.06106
3512.11847	0.06106
3510.18980	0.06105
3508.26112	0.06112
3506.33245	0.06121
3504.40377	0.06124
3502.47509	0.06126
3500.54642	0.06127
3498.61774	0.06126
3496.68907	0.06127
3494.76039	0.06132
3492.83172	0.06137
3490.90304	0.06140
3488.97436	0.06139
3487.04569	0.06142
3485.11701	0.06148
3483.18834	0.06155
3481.25966	0.06160
3479.33099	0.06164
3477.40231	0.06170
3475.47363	0.06177
3473.54496	0.06183
3471.61628	0.06189
3469.68761	0.06198
3467.75893	0.06210
3465.83026	0.06220
3463.90158	0.06230
3461.97290	0.06240
3460.04423	0.06250
3458.11555	0.06263
3456.18688	0.06275
3454.25820	0.06283
3452.32953	0.06291
3450.40085	0.06300
3448.47217	0.06310
3446.54350	0.06322
3444.61482	0.06333
3442.68615	0.06341
3440.75747	0.06354
3438.82880	0.06368
3436.90012	0.06382
3434.97144	0.06400
3433.04277	0.06419
3431.11409	0.06438
3429.18542	0.06461
3427.25674	0.06485
3425.32807	0.06507
3423.39939	0.06524
3421.47071	0.06540
3419.54204	0.06556
3417.61336	0.06574
3415.68469	0.06594
3413.75601	0.06613
3411.82734	0.06631
3409.89866	0.06650
3407.96998	0.06664
3406.04131	0.06675
3404.11263	0.06685
3402.18396	0.06696
3400.25528	0.06708
3398.32661	0.06720
3396.39793	0.06733
3394.46925	0.06749
3392.54058	0.06766
3390.61190	0.06780
3388.68323	0.06791
3386.75455	0.06801
3384.82588	0.06813
3382.89720	0.06830
3380.96852	0.06848
3379.03985	0.06862
3377.11117	0.06873
3375.18250	0.06883
3373.25382	0.06894
3371.32515	0.06908
3369.39647	0.06924
3367.46779	0.06940
3365.53912	0.06953
3363.61044	0.06965
3361.68177	0.06976
3359.75309	0.06986
3357.82442	0.06997
3355.89574	0.07010
3353.96706	0.07024
3352.03839	0.07035
3350.10971	0.07045
3348.18104	0.07057
3346.25236	0.07072
3344.32369	0.07087
3342.39501	0.07099
3340.46633	0.07109
3338.53766	0.07122
3336.60898	0.07135
3334.68031	0.07146
3332.75163	0.07156
3330.82296	0.07169
3328.89428	0.07186
3326.96560	0.07203
3325.03693	0.07216
3323.10825	0.07225
3321.17958	0.07235
3319.25090	0.07251
3317.32223	0.07270
3315.39355	0.07287
3313.46487	0.07299
3311.53620	0.07312
3309.60752	0.07327
3307.67885	0.07340
3305.75017	0.07351
3303.82150	0.07363
3301.89282	0.07378
3299.96414	0.07394
3298.03547	0.07403
3296.10679	0.07410
3294.17812	0.07420
3292.24944	0.07436
3290.32077	0.07457
3288.39209	0.07474
3286.46341	0.07488
3284.53474	0.07503
3282.60606	0.07517
3280.67739	0.07527
3278.74871	0.07536
3276.82004	0.07551
3274.89136	0.07565
3272.96268	0.07576
3271.03401	0.07590
3269.10533	0.07604
3267.17666	0.07614
3265.24798	0.07623
3263.31931	0.07639
3261.39063	0.07658
3259.46195	0.07674
3257.53328	0.07687
3255.60460	0.07698
3253.67593	0.07710
3251.74725	0.07725
3249.81858	0.07745
3247.88990	0.07762
3245.96122	0.07776
3244.03255	0.07786
3242.10387	0.07796
3240.17520	0.07807
3238.24652	0.07819
3236.31785	0.07832
3234.38917	0.07846
3232.46049	0.07865
3230.53182	0.07884
3228.60314	0.07901
3226.67447	0.07916
3224.74579	0.07930
3222.81712	0.07944
3220.88844	0.07957
3218.95976	0.07971
3217.03109	0.07986
3215.10241	0.07995
3213.17374	0.08000
3211.24506	0.08007
3209.31639	0.08021
3207.38771	0.08040
3205.45903	0.08060
3203.53036	0.08080
3201.60168	0.08096
3199.67301	0.08109
3197.74433	0.08122
3195.81566	0.08135
3193.88698	0.08147
3191.95830	0.08161
3190.02963	0.08178
3188.10095	0.08194
3186.17228	0.08210
3184.24360	0.08226
3182.31493	0.08242
3180.38625	0.08256
3178.45757	0.08270
3176.52890	0.08287
3174.60022	0.08305
3172.67155	0.08320
3170.74287	0.08333
3168.81420	0.08343
3166.88552	0.08354
3164.95684	0.08370
3163.02817	0.08390
3161.09949	0.08408
3159.17082	0.08418
3157.24214	0.08426
3155.31347	0.08440
3153.38479	0.08458
3151.45611	0.08473
3149.52744	0.08485
3147.59876	0.08495
3145.67009	0.08508
3143.74141	0.08525
3141.81274	0.08544
3139.88406	0.08558
3137.95538	0.08570
3136.02671	0.08586
3134.09803	0.08604
3132.16936	0.08621
3130.24068	0.08632
3128.31201	0.08645
3126.38333	0.08662
3124.45465	0.08677
3122.52598	0.08689
3120.59730	0.08703
3118.66863	0.08717
3116.73995	0.08729
3114.81128	0.08748
3112.88260	0.08771
3110.95392	0.08788
3109.02525	0.08795
3107.09657	0.08802
3105.16790	0.08814
3103.23922	0.08826
3101.31055	0.08838
3099.38187	0.08854
3097.45319	0.08874
3095.52452	0.08893
3093.59584	0.08908
3091.66717	0.08922
3089.73849	0.08933
3087.80982	0.08944
3085.88114	0.08959
3083.95246	0.08976
3082.02379	0.08991
3080.09511	0.09005
3078.16644	0.09020
3076.23776	0.09032
3074.30909	0.09045
3072.38041	0.09062
3070.45173	0.09080
3068.52306	0.09097
3066.59438	0.09111
3064.66571	0.09124
3062.73703	0.09137
3060.80836	0.09151
3058.87968	0.09166
3056.95100	0.09177
3055.02233	0.09187
3053.09365	0.09202
3051.16498	0.09222
3049.23630	0.09239
3047.30763	0.09252
3045.37895	0.09264
3043.45027	0.09277
3041.52160	0.09290
3039.59292	0.09301
3037.66425	0.09314
3035.73557	0.09328
3033.80690	0.09344
3031.87822	0.09362
3029.94954	0.09380
3028.02087	0.09395
3026.09219	0.09412
3024.16352	0.09431
3022.23484	0.09447
3020.30617	0.09460
3018.37749	0.09472
3016.44881	0.09482
3014.52014	0.09495
3012.59146	0.09511
3010.66279	0.09527
3008.73411	0.09541
3006.80544	0.09553
3004.87676	0.09567
3002.94808	0.09581
3001.01941	0.09594
2999.09073	0.09607
2997.16206	0.09623
2995.23338	0.09640
2993.30471	0.09651
2991.37603	0.09654
2989.44735	0.09659
2987.51868	0.09672
2985.59000	0.09688
2983.66133	0.09700
2981.73265	0.09708
2979.80398	0.09715
2977.87530	0.09723
2975.94662	0.09729
2974.01795	0.09729
2972.08927	0.09726
2970.16060	0.09725
2968.23192	0.09726
2966.30325	0.09726
2964.37457	0.09727
2962.44589	0.09733
2960.51722	0.09744
2958.58854	0.09759
2956.65987	0.09778
2954.73119	0.09799
2952.80252	0.09820
2950.87384	0.09840
2948.94516	0.09858
2947.01649	0.09871
2945.08781	0.09877
2943.15914	0.09884
2941.23046	0.09894
2939.30179	0.09898
2937.37311	0.09894
2935.44443	0.09890
2933.51576	0.09889
2931.58708	0.09886
2929.65841	0.09881
2927.72973	0.09876
2925.80106	0.09874
2923.87238	0.09873
2921.94370	0.09877
2920.01503	0.09886
2918.08635	0.09906
2916.15768	0.09940
2914.22900	0.09988
2912.30033	0.10040
2910.37165	0.10083
2908.44297	0.10112
2906.51430	0.10136
2904.58562	0.10161
2902.65695	0.10186
2900.72827	0.10210
2898.79960	0.10231
2896.87092	0.10251
2894.94224	0.10273
2893.01357	0.10292
2891.08489	0.10311
2889.15622	0.10330
2887.22754	0.10350
2885.29887	0.10369
2883.37019	0.10387
2881.44151	0.10402
2879.51284	0.10414
2877.58416	0.10426
2875.65549	0.10444
2873.72681	0.10464
2871.79814	0.10477
2869.86946	0.10486
2867.94078	0.10494
2866.01211	0.10503
2864.08343	0.10513
2862.15476	0.10526
2860.22608	0.10532
2858.29741	0.10529
2856.36873	0.10524
2854.44005	0.10523
2852.51138	0.10523
2850.58270	0.10532
2848.65403	0.10560
2846.72535	0.10605
2844.79668	0.10657
2842.86800	0.10707
2840.93932	0.10746
2839.01065	0.10773
2837.08197	0.10798
2835.15330	0.10822
2833.22462	0.10840
2831.29595	0.10852
2829.36727	0.10866
2827.43859	0.10884
2825.50992	0.10903
2823.58124	0.10922
2821.65257	0.10940
2819.72389	0.10956
2817.79522	0.10969
2815.86654	0.10981
2813.93786	0.11000
2812.00919	0.11022
2810.08051	0.11042
2808.15184	0.11060
2806.22316	0.11078
2804.29449	0.11094
2802.36581	0.11106
2800.43713	0.11118
2798.50846	0.11131
2796.57978	0.11147
2794.65111	0.11167
2792.72243	0.11184
2790.79376	0.11197
2788.86508	0.11211
2786.93640	0.11228
2785.00773	0.11248
2783.07905	0.11264
2781.15038	0.11277
2779.22170	0.11293
2777.29303	0.11313
2775.36435	0.11329
2773.43567	0.11342
2771.50700	0.11356
2769.57832	0.11369
2767.64965	0.11381
2765.72097	0.11395
2763.79230	0.11414
2761.86362	0.11433
2759.93494	0.11450
2758.00627	0.11465
2756.07759	0.11483
2754.14892	0.11502
2752.22024	0.11515
2750.29157	0.11527
2748.36289	0.11543
2746.43421	0.11558
2744.50554	0.11568
2742.57686	0.11580
2740.64819	0.11597
2738.71951	0.11617
2736.79084	0.11632
2734.86216	0.11648
2732.93348	0.11669
2731.00481	0.11689
2729.07613	0.11703
2727.14746	0.11715
2725.21878	0.11727
2723.29011	0.11739
2721.36143	0.11753
2719.43275	0.11769
2717.50408	0.11781
2715.57540	0.11791
2713.64673	0.11805
2711.71805	0.11822
2709.78938	0.11835
2707.86070	0.11842
2705.93202	0.11851
2704.00335	0.11871
2702.07467	0.11897
2700.14600	0.11918
2698.21732	0.11932
2696.28865	0.11942
2694.35997	0.11957
2692.43129	0.11979
2690.50262	0.12002
2688.57394	0.12019
2686.64527	0.12035
2684.71659	0.12049
2682.78792	0.12059
2680.85924	0.12070
2678.93056	0.12081
2677.00189	0.12091
2675.07321	0.12104
2673.14454	0.12123
2671.21586	0.12143
2669.28719	0.12162
2667.35851	0.12178
2665.42983	0.12193
2663.50116	0.12208
2661.57248	0.12222
2659.64381	0.12238
2657.71513	0.12255
2655.78646	0.12267
2653.85778	0.12280
2651.92910	0.12299
2650.00043	0.12317
2648.07175	0.12331
2646.14308	0.12345
2644.21440	0.12361
2642.28573	0.12377
2640.35705	0.12393
2638.42837	0.12408
2636.49970	0.12425
2634.57102	0.12442
2632.64235	0.12453
2630.71367	0.12463
2628.78500	0.12482
2626.85632	0.12506
2624.92764	0.12526
2622.99897	0.12539
2621.07029	0.12552
2619.14162	0.12575
2617.21294	0.12599
2615.28427	0.12616
2613.35559	0.12629
2611.42691	0.12644
2609.49824	0.12656
2607.56956	0.12666
2605.64089	0.12681
2603.71221	0.12701
2601.78354	0.12719
2599.85486	0.12733
2597.92618	0.12750
2595.99751	0.12766
2594.06883	0.12779
2592.14016	0.12793
2590.21148	0.12808
2588.28281	0.12823
2586.35413	0.12844
2584.42545	0.12866
2582.49678	0.12881
2580.56810	0.12892
2578.63943	0.12900
2576.71075	0.12910
2574.78208	0.12923
2572.85340	0.12942
2570.92472	0.12960
2568.99605	0.12977
2567.06737	0.12996
2565.13870	0.13019
2563.21002	0.13042
2561.28135	0.13061
2559.35267	0.13071
2557.42399	0.13081
2555.49532	0.13100
2553.56664	0.13115
2551.63797	0.13122
2549.70929	0.13132
2547.78062	0.13152
2545.85194	0.13170
2543.92326	0.13181
2541.99459	0.13193
2540.06591	0.13207
2538.13724	0.13222
2536.20856	0.13239
2534.27989	0.13261
2532.35121	0.13281
2530.42253	0.13297
2528.49386	0.13311
2526.56518	0.13324
2524.63651	0.13338
2522.70783	0.13356
2520.77916	0.13372
2518.85048	0.13387
2516.92181	0.13406
2514.99313	0.13424
2513.06445	0.13438
2511.13578	0.13452
2509.20710	0.13473
2507.27843	0.13495
2505.34975	0.13513
2503.42108	0.13529
2501.49240	0.13547
2499.56372	0.13567
2497.63505	0.13585
2495.70637	0.13596
2493.77770	0.13605
2491.84902	0.13620
2489.92035	0.13644
2487.99167	0.13669
2486.06299	0.13688
2484.13432	0.13702
2482.20564	0.13716
2480.27697	0.13731
2478.34829	0.13749
2476.41962	0.13768
2474.49094	0.13784
2472.56226	0.13801
2470.63359	0.13821
2468.70491	0.13841
2466.77624	0.13859
2464.84756	0.13874
2462.91889	0.13888
2460.99021	0.13900
2459.06153	0.13912
2457.13286	0.13927
2455.20418	0.13945
2453.27551	0.13962
2451.34683	0.13977
2449.41816	0.13994
2447.48948	0.14011
2445.56080	0.14030
2443.63213	0.14049
2441.70345	0.14067
2439.77478	0.14082
2437.84610	0.14095
2435.91743	0.14111
2433.98875	0.14128
2432.06007	0.14144
2430.13140	0.14162
2428.20272	0.14179
2426.27405	0.14193
2424.34537	0.14210
2422.41670	0.14230
2420.48802	0.14248
2418.55934	0.14268
2416.63067	0.14288
2414.70199	0.14307
2412.77332	0.14323
2410.84464	0.14336
2408.91597	0.14347
2406.98729	0.14363
2405.05861	0.14384
2403.12994	0.14401
2401.20126	0.14415
2399.27259	0.14428
2397.34391	0.14441
2395.41524	0.14453
2393.48656	0.14472
2391.55788	0.14495
2389.62921	0.14515
2387.70053	0.14528
2385.77186	0.14542
2383.84318	0.14556
2381.91451	0.14567
2379.98583	0.14577
2378.05715	0.14583
2376.12848	0.14590
2374.19980	0.14595
2372.27113	0.14594
2370.34245	0.14591
2368.41378	0.14593
2366.48510	0.14601
2364.55642	0.14608
2362.62775	0.14618
2360.69907	0.14634
2358.77040	0.14655
2356.84172	0.14684
2354.91305	0.14715
2352.98437	0.14745
2351.05569	0.14778
2349.12702	0.14801
2347.19834	0.14809
2345.26967	0.14813
2343.34099	0.14821
2341.41232	0.14834
2339.48364	0.14846
2337.55496	0.14859
2335.62629	0.14879
2333.69761	0.14902
2331.76894	0.14917
2329.84026	0.14931
2327.91159	0.14950
2325.98291	0.14973
2324.05423	0.14997
2322.12556	0.15021
2320.19688	0.15045
2318.26821	0.15068
2316.33953	0.15093
2314.41086	0.15115
2312.48218	0.15136
2310.55350	0.15160
2308.62483	0.15186
2306.69615	0.15205
2304.76748	0.15220
2302.83880	0.15237
2300.91013	0.15258
2298.98145	0.15277
2297.05277	0.15289
2295.12410	0.15302
2293.19542	0.15321
2291.26675	0.15344
2289.33807	0.15365
2287.40940	0.15380
2285.48072	0.15396
2283.55204	0.15414
2281.62337	0.15429
2279.69469	0.15444
2277.76602	0.15461
2275.83734	0.15481
2273.90867	0.15499
2271.97999	0.15513
2270.05131	0.15525
2268.12264	0.15541
2266.19396	0.15557
2264.26529	0.15573
2262.33661	0.15592
2260.40794	0.15614
2258.47926	0.15632
2256.55058	0.15648
2254.62191	0.15664
2252.69323	0.15677
2250.76456	0.15690
2248.83588	0.15704
2246.90721	0.15723
2244.97853	0.15748
2243.04985	0.15771
2241.12118	0.15789
2239.19250	0.15805
2237.26383	0.15820
2235.33515	0.15835
2233.40648	0.15851
2231.47780	0.15867
2229.54912	0.15882
2227.62045	0.15896
2225.69177	0.15910
2223.76310	0.15928
2221.83442	0.15945
2219.90575	0.15959
2217.97707	0.15972
2216.04839	0.15990
2214.11972	0.16011
2212.19104	0.16031
2210.26237	0.16048
2208.33369	0.16060
2206.40502	0.16072
2204.47634	0.16088
2202.54766	0.16106
2200.61899	0.16123
2198.69031	0.16139
2196.76164	0.16149
2194.83296	0.16160
2192.90429	0.16183
2190.97561	0.16206
2189.04693	0.16217
2187.11826	0.16224
2185.18958	0.16237
2183.26091	0.16254
2181.33223	0.16273
2179.40356	0.16296
2177.47488	0.16318
2175.54620	0.16336
2173.61753	0.16351
2171.68885	0.16366
2169.76018	0.16381
2167.83150	0.16399
2165.90283	0.16416
2163.97415	0.16429
2162.04547	0.16442
2160.11680	0.16460
2158.18812	0.16482
2156.25945	0.16499
2154.33077	0.16513
2152.40210	0.16530
2150.47342	0.16548
2148.54474	0.16562
2146.61607	0.16576
2144.68739	0.16592
2142.75872	0.16609
2140.83004	0.16629
2138.90137	0.16649
2136.97269	0.16668
2135.04401	0.16684
2133.11534	0.16699
2131.18666	0.16712
2129.25799	0.16725
2127.32931	0.16738
2125.40064	0.16752
2123.47196	0.16769
2121.54328	0.16789
2119.61461	0.16812
2117.68593	0.16835
2115.75726	0.16853
2113.82858	0.16868
2111.89991	0.16887
2109.97123	0.16906
2108.04255	0.16921
2106.11388	0.16933
2104.18520	0.16944
2102.25653	0.16955
2100.32785	0.16972
2098.39918	0.16997
2096.47050	0.17021
2094.54182	0.17040
2092.61315	0.17051
2090.68447	0.17065
2088.75580	0.17083
2086.82712	0.17100
2084.89845	0.17115
2082.96977	0.17134
2081.04109	0.17157
2079.11242	0.17179
2077.18374	0.17195
2075.25507	0.17205
2073.32639	0.17215
2071.39772	0.17231
2069.46904	0.17251
2067.54036	0.17267
2065.61169	0.17279
2063.68301	0.17296
2061.75434	0.17320
2059.82566	0.17344
2057.89699	0.17361
2055.96831	0.17370
2054.03963	0.17386
2052.11096	0.17411
2050.18228	0.17432
2048.25361	0.17445
2046.32493	0.17456
2044.39626	0.17470
2042.46758	0.17490
2040.53890	0.17512
2038.61023	0.17532
2036.68155	0.17547
2034.75288	0.17559
2032.82420	0.17570
2030.89553	0.17585
2028.96685	0.17605
2027.03817	0.17625
2025.10950	0.17645
2023.18082	0.17666
2021.25215	0.17686
2019.32347	0.17698
2017.39480	0.17706
2015.46612	0.17721
2013.53744	0.17738
2011.60877	0.17754
2009.68009	0.17772
2007.75142	0.17790
2005.82274	0.17802
2003.89407	0.17815
2001.96539	0.17833
2000.03671	0.17851
1998.10804	0.17869
1996.17936	0.17888
1994.25069	0.17906
1992.32201	0.17919
1990.39334	0.17934
1988.46466	0.17954
1986.53598	0.17973
1984.60731	0.17987
1982.67863	0.18000
1980.74996	0.18015
1978.82128	0.18029
1976.89261	0.18041
1974.96393	0.18054
1973.03525	0.18069
1971.10658	0.18082
1969.17790	0.18091
1967.24923	0.18103
1965.32055	0.18122
1963.39188	0.18141
1961.46320	0.18155
1959.53452	0.18164
1957.60585	0.18178
1955.67717	0.18198
1953.74850	0.18217
1951.81982	0.18234
1949.89115	0.18252
1947.96247	0.18270
1946.03379	0.18284
1944.10512	0.18294
1942.17644	0.18312
1940.24777	0.18340
1938.31909	0.18362
1936.39042	0.18373
1934.46174	0.18383
1932.53306	0.18394
1930.60439	0.18407
1928.67571	0.18423
1926.74704	0.18439
1924.81836	0.18450
1922.88969	0.18460
1920.96101	0.18471
1919.03233	0.18481
1917.10366	0.18506
1915.17498	0.18544
1913.24631	0.18571
1911.31763	0.18580
1909.38896	0.18586
1907.46028	0.18601
1905.53160	0.18624
1903.60293	0.18647
1901.67425	0.18664
1899.74558	0.18677
1897.81690	0.18691
1895.88823	0.18707
1893.95955	0.18726
1892.03087	0.18737
1890.10220	0.18744
1888.17352	0.18762
1886.24485	0.18786
1884.31617	0.18806
1882.38750	0.18825
1880.45882	0.18845
1878.53014	0.18862
1876.60147	0.18875
1874.67279	0.18890
1872.74412	0.18896
1870.81544	0.18883
1868.88677	0.18880
1866.95809	0.18910
1865.02941	0.18949
1863.10074	0.18973
1861.17206	0.18991
1859.24339	0.19015
1857.31471	0.19037
1855.38604	0.19055
1853.45736	0.19071
1851.52868	0.19089
1849.60001	0.19107
1847.67133	0.19116
1845.74266	0.19115
1843.81398	0.19123
1841.88531	0.19155
1839.95663	0.19192
1838.02795	0.19216
1836.09928	0.19233
1834.17060	0.19247
1832.24193	0.19245
1830.31325	0.19242
1828.38458	0.19257
1826.45590	0.19278
1824.52722	0.19300
1822.59855	0.19331
1820.66987	0.19358
1818.74120	0.19372
1816.81252	0.19382
1814.88385	0.19394
1812.95517	0.19403
1811.02649	0.19412
1809.09782	0.19428
1807.16914	0.19449
1805.24047	0.19464
1803.31179	0.19467
1801.38312	0.19467
1799.45444	0.19478
1797.52576	0.19496
1795.59709	0.19497
1793.66841	0.19482
1791.73974	0.19489
1789.81106	0.19530
1787.88239	0.19559
1785.95371	0.19560
1784.02503	0.19561
1782.09636	0.19575
1780.16768	0.19603
1778.23901	0.19639
1776.31033	0.19654
1774.38166	0.19636
1772.45298	0.19622
1770.52430	0.19640
1768.59563	0.19670
1766.66695	0.19700
1764.73828	0.19712
1762.80960	0.19701
1760.88093	0.19704
1758.95225	0.19730
1757.02357	0.19752
1755.09490	0.19751
1753.16622	0.19714
1751.23755	0.19674
1749.30887	0.19678
1747.38020	0.19708
1745.45152	0.19724
1743.52284	0.19719
1741.59417	0.19708
1739.66549	0.19716
1737.73682	0.19727
1735.80814	0.19710
1733.87947	0.19700
1731.95079	0.19736
1730.02211	0.19787
1728.09344	0.19821
1726.16476	0.19837
1724.23609	0.19845
1722.30741	0.19856
1720.37874	0.19848
1718.45006	0.19821
1716.52138	0.19819
1714.59271	0.19857
1712.66403	0.19906
1710.73536	0.19943
1708.80668	0.19954
1706.87801	0.19937
1704.94933	0.19913
1703.02065	0.19872
1701.09198	0.19826
1699.16330	0.19834
1697.23463	0.19886
1695.30595	0.19938
1693.37728	0.19988
1691.44860	0.20015
1689.51992	0.20018
1687.59125	0.20004
1685.66257	0.19969
1683.73390	0.19959
1681.80522	0.19993
1679.87655	0.20028
1677.94787	0.20030
1676.01919	0.20012
1674.09052	0.20005
1672.16184	0.20006
1670.23317	0.20010
1668.30449	0.20038
1666.37582	0.20067
1664.44714	0.20063
1662.51846	0.20060
1660.58979	0.20089
1658.66111	0.20109
1656.73244	0.20074
1654.80376	0.20005
1652.87509	0.19988
1650.94641	0.20030
1649.01773	0.20049
1647.08906	0.20050
1645.16038	0.20089
1643.23171	0.20138
1641.30303	0.20155
1639.37436	0.20135
1637.44568	0.20088
1635.51700	0.20070
1633.58833	0.20120
1631.65965	0.20176
1629.73098	0.20182
1627.80230	0.20163
1625.87363	0.20140
1623.94495	0.20103
1622.01627	0.20066
1620.08760	0.20048
1618.15892	0.20052
1616.23025	0.20108
1614.30157	0.20208
1612.37290	0.20285
1610.44422	0.20318
1608.51554	0.20345
1606.58687	0.20378
1604.65819	0.20404
1602.72952	0.20422
1600.80084	0.20443
1598.87217	0.20463
1596.94349	0.20477
1595.01481	0.20491
1593.08614	0.20509
1591.15746	0.20530
1589.22879	0.20553
1587.30011	0.20574
1585.37144	0.20591
1583.44276	0.20607
1581.51408	0.20622
1579.58541	0.20623
1577.65673	0.20615
1575.72806	0.20622
1573.79938	0.20643
1571.87071	0.20647
1569.94203	0.20649
1568.01335	0.20680
1566.08468	0.20717
1564.15600	0.20720
1562.22733	0.20670
1560.29865	0.20606
1558.36998	0.20617
1556.44130	0.20696
1554.51262	0.20757
1552.58395	0.20783
1550.65527	0.20798
1548.72660	0.20810
1546.79792	0.20803
1544.86925	0.20775
1542.94057	0.20743
1541.01189	0.20728
1539.08322	0.20768
1537.15454	0.20840
1535.22587	0.20870
1533.29719	0.20872
1531.36852	0.20892
1529.43984	0.20903
1527.51116	0.20890
1525.58249	0.20871
1523.65381	0.20832
1521.72514	0.20789
1519.79646	0.20798
1517.86779	0.20847
1515.93911	0.20902
1514.01043	0.20949
1512.08176	0.20950
1510.15308	0.20905
1508.22441	0.20851
1506.29573	0.20849
1504.36706	0.20921
1502.43838	0.20983
1500.50970	0.20977
1498.58103	0.20957
1496.65235	0.20977
1494.72368	0.21008
1492.79500	0.21002
1490.86633	0.20963
1488.93765	0.20940
1487.00897	0.20952
1485.08030	0.20977
1483.15162	0.20991
1481.22295	0.20986
1479.29427	0.20956
1477.36560	0.20901
1475.43692	0.20838
1473.50824	0.20779
1471.57957	0.20751
1469.65089	0.20755
1467.72222	0.20749
1465.79354	0.20723
1463.86487	0.20706
1461.93619	0.20684
1460.00751	0.20616
1458.07884	0.20527
1456.15016	0.20514
1454.22149	0.20585
1452.29281	0.20644
1450.36414	0.20653
1448.43546	0.20649
1446.50678	0.20664
1444.57811	0.20693
1442.64943	0.20714
1440.72076	0.20709
1438.79208	0.20667
1436.86341	0.20642
1434.93473	0.20687
1433.00605	0.20739
1431.07738	0.20749
1429.14870	0.20762
1427.22003	0.20791
1425.29135	0.20809
1423.36268	0.20809
1421.43400	0.20785
1419.50532	0.20754
1417.57665	0.20760
1415.64797	0.20798
1413.71930	0.20822
1411.79062	0.20826
1409.86195	0.20826
1407.93327	0.20825
1406.00459	0.20820
1404.07592	0.20817
1402.14724	0.20806
1400.21857	0.20779
1398.28989	0.20755
1396.36122	0.20750
1394.43254	0.20762
1392.50386	0.20783
1390.57519	0.20771
1388.64651	0.20718
1386.71784	0.20677
1384.78916	0.20680
1382.86049	0.20702
1380.93181	0.20714
1379.00313	0.20712
1377.07446	0.20703
1375.14578	0.20692
1373.21711	0.20684
1371.28843	0.20681
1369.35976	0.20684
1367.43108	0.20695
1365.50240	0.20702
1363.57373	0.20688
1361.64505	0.20677
1359.71638	0.20694
1357.78770	0.20720
1355.85903	0.20729
1353.93035	0.20728
1352.00167	0.20735
1350.07300	0.20745
1348.14432	0.20747
1346.21565	0.20748
1344.28697	0.20751
1342.35830	0.20745
1340.42962	0.20730
1338.50094	0.20728
1336.57227	0.20738
1334.64359	0.20746
1332.71492	0.20739
1330.78624	0.20719
1328.85757	0.20690
1326.92889	0.20663
1325.00021	0.20648
1323.07154	0.20644
1321.14286	0.20635
1319.21419	0.20618
1317.28551	0.20601
1315.35684	0.20584
1313.42816	0.20565
1311.49948	0.20546
1309.57081	0.20530
1307.64213	0.20513
1305.71346	0.20488
1303.78478	0.20459
1301.85611	0.20433
1299.92743	0.20411
1297.99875	0.20390
1296.07008	0.20373
1294.14140	0.20360
1292.21273	0.20343
1290.28405	0.20319
1288.35538	0.20294
1286.42670	0.20275
1284.49802	0.20257
1282.56935	0.20235
1280.64067	0.20207
1278.71200	0.20178
1276.78332	0.20147
1274.85465	0.20106
1272.92597	0.20054
1270.99729	0.19987
1269.06862	0.19901
1267.13994	0.19799
1265.21127	0.19703
1263.28259	0.19636
1261.35392	0.19612
1259.42524	0.19622
1257.49656	0.19645
1255.56789	0.19663
1253.63921	0.19672
1251.71054	0.19666
1249.78186	0.19642
1247.85319	0.19606
1245.92451	0.19563
1243.99583	0.19519
1242.06716	0.19477
1240.13848	0.19432
1238.20981	0.19381
1236.28113	0.19324
1234.35246	0.19268
1232.42378	0.19212
1230.49510	0.19156
1228.56643	0.19100
1226.63775	0.19045
1224.70908	0.18992
1222.78040	0.18939
1220.85173	0.18885
1218.92305	0.18835
1216.99437	0.18782
1215.06570	0.18721
1213.13702	0.18658
1211.20835	0.18601
1209.27967	0.18547
1207.35100	0.18486
1205.42232	0.18420
1203.49364	0.18358
1201.56497	0.18298
1199.63629	0.18232
1197.70762	0.18169
1195.77894	0.18111
1193.85027	0.18049
1191.92159	0.17982
1189.99291	0.17913
1188.06424	0.17838
1186.13556	0.17755
1184.20689	0.17668
1182.27821	0.17583
1180.34954	0.17496
1178.42086	0.17404
1176.49218	0.17312
1174.56351	0.17232
1172.63483	0.17152
1170.70616	0.17061
1168.77748	0.16971
1166.84881	0.16887
1164.92013	0.16798
1162.99145	0.16704
1161.06278	0.16618
1159.13410	0.16546
1157.20543	0.16476
1155.27675	0.16393
1153.34808	0.16298
1151.41940	0.16206
1149.49072	0.16128
1147.56205	0.16048
1145.63337	0.15957
1143.70470	0.15865
1141.77602	0.15776
1139.84735	0.15680
1137.91867	0.15573
1135.98999	0.15451
1134.06132	0.15308
1132.13264	0.15139
1130.20397	0.14942
1128.27529	0.14725
1126.34662	0.14496
1124.41794	0.14252
1122.48926	0.14000
1120.56059	0.13760
1118.63191	0.13544
1116.70324	0.13341
1114.77456	0.13145
1112.84589	0.12979
1110.91721	0.12857
1108.98853	0.12763
1107.05986	0.12685
1105.13118	0.12636
1103.20251	0.12628
1101.27383	0.12652
1099.34516	0.12699
1097.41648	0.12764
1095.48780	0.12841
1093.55913	0.12926
1091.63045	0.13014
1089.70178	0.13098
1087.77310	0.13173
1085.84443	0.13235
1083.91575	0.13281
1081.98707	0.13313
1080.05840	0.13342
1078.12972	0.13367
1076.20105	0.13385
1074.27237	0.13394
1072.34370	0.13402
1070.41502	0.13418
1068.48634	0.13433
1066.55767	0.13443
1064.62899	0.13455
1062.70032	0.13478
1060.77164	0.13512
1058.84297	0.13549
1056.91429	0.13582
1054.98561	0.13610
1053.05694	0.13627
1051.12826	0.13648
1049.19959	0.13687
1047.27091	0.13736
1045.34224	0.13775
1043.41356	0.13807
1041.48488	0.13845
1039.55621	0.13890
1037.62753	0.13935
1035.69886	0.13976
1033.77018	0.14016
1031.84151	0.14054
1029.91283	0.14085
1027.98415	0.14118
1026.05548	0.14159
1024.12680	0.14199
1022.19813	0.14233
1020.26945	0.14270
1018.34078	0.14312
1016.41210	0.14362
1014.48342	0.14423
1012.55475	0.14488
1010.62607	0.14550
1008.69740	0.14617
1006.76872	0.14686
1004.84005	0.14744
1002.91137	0.14787
1000.98269	0.14819
999.05402	0.14848
997.12534	0.14874
995.19667	0.14897
993.26799	0.14914
991.33932	0.14921
989.41064	0.14916
987.48196	0.14912
985.55329	0.14919
983.62461	0.14928
981.69594	0.14928
979.76726	0.14918
977.83859	0.14896
975.90991	0.14867
973.98123	0.14840
972.05256	0.14826
970.12388	0.14824
968.19521	0.14820
966.26653	0.14811
964.33786	0.14797
962.40918	0.14778
960.48050	0.14755
958.55183	0.14728
956.62315	0.14700
954.69448	0.14678
952.76580	0.14663
950.83713	0.14648
948.90845	0.14628
946.97977	0.14605
945.05110	0.14580
943.12242	0.14548
941.19375	0.14508
939.26507	0.14471
937.33640	0.14432
935.40772	0.14380
933.47904	0.14322
931.55037	0.14271
929.62169	0.14223
927.69302	0.14169
925.76434	0.14110
923.83567	0.14047
921.90699	0.13980
919.97831	0.13916
918.04964	0.13854
916.12096	0.13792
914.19229	0.13725
912.26361	0.13646
910.33494	0.13558
908.40626	0.13473
906.47758	0.13398
904.54891	0.13339
902.62023	0.13291
900.69156	0.13238
898.76288	0.13177
896.83421	0.13120
894.90553	0.13067
892.97685	0.13016
891.04818	0.12969
889.11950	0.12927
887.19083	0.12882
885.26215	0.12833
883.33348	0.12792
881.40480	0.12760
879.47612	0.12728
877.54745	0.12692
875.61877	0.12664
873.69010	0.12648
871.76142	0.12637
869.83275	0.12621
867.90407	0.12598
865.97539	0.12570
864.04672	0.12549
862.11804	0.12547
860.18937	0.12556
858.26069	0.12551
856.33202	0.12531
854.40334	0.12506
852.47466	0.12477
850.54599	0.12448
848.61731	0.12420
846.68864	0.12384
844.75996	0.12347
842.83129	0.12326
840.90261	0.12314
838.97394	0.12282
837.04526	0.12230
835.11658	0.12174
833.18791	0.12103
831.25923	0.12008
829.33056	0.11899
827.40188	0.11782
825.47321	0.11665
823.54453	0.11569
821.61585	0.11494
819.68718	0.11438
817.75850	0.11393
815.82983	0.11344
813.90115	0.11291
811.97248	0.11254
810.04380	0.11239
808.11512	0.11235
806.18645	0.11228
804.25777	0.11215
802.32910	0.11202
800.40042	0.11179
798.47175	0.11123
796.54307	0.11040
794.61439	0.10973
792.68572	0.10944
790.75704	0.10932
788.82837	0.10925
786.89969	0.10917
784.97102	0.10895
783.04234	0.10859
781.11366	0.10819
779.18499	0.10786
777.25631	0.10757
775.32764	0.10720
773.39896	0.10679
771.47029	0.10646
769.54161	0.10627
767.61293	0.10602
765.68426	0.10551
763.75558	0.10495
761.82691	0.10458
759.89823	0.10429
757.96956	0.10387
756.04088	0.10325
754.11220	0.10251
752.18353	0.10176
750.25485	0.10105
748.32618	0.10034
746.39750	0.09953
744.46883	0.09860
742.54015	0.09767
740.61147	0.09691
738.68280	0.09647
736.75412	0.09631
734.82545	0.09628
732.89677	0.09627
730.96810	0.09623
729.03942	0.09624
727.11074	0.09638
725.18207	0.09657
723.25339	0.09668
721.32472	0.09680
719.39604	0.09698
717.46737	0.09722
715.53869	0.09761
713.61001	0.09812
711.68134	0.09856
709.75266	0.09876
707.82399	0.09873
705.89531	0.09858
703.96664	0.09832
702.03796	0.09800
700.10928	0.09765
698.18061	0.09716
696.25193	0.09651
694.32326	0.09587
692.39458	0.09533
690.46591	0.09483
688.53723	0.09434
686.60855	0.09390
684.67988	0.09348
682.75120	0.09302
680.82253	0.09250
678.89385	0.09194
676.96518	0.09127
675.03650	0.09048
673.10782	0.08975
671.17915	0.08902
669.25047	0.08809
667.32180	0.08719
665.39312	0.08656
663.46445	0.08588
661.53577	0.08494
659.60709	0.08397
657.67842	0.08307
655.74974	0.08229
653.82107	0.08166
651.89239	0.08098
649.96372	0.08006
648.03504	0.07906
646.10636	0.07810
644.17769	0.07712
642.24901	0.07612
640.32034	0.07512
638.39166	0.07404
636.46299	0.07278
634.53431	0.07147
632.60563	0.06996
630.67696	0.06774
628.74828	0.06423
626.81961	0.05963
624.89093	0.05508
622.96226	0.05154
621.03358	0.04932
619.10490	0.04810
617.17623	0.04723
615.24755	0.04625
613.31888	0.04505
611.39020	0.04393
609.46153	0.04350
607.53285	0.04371
605.60417	0.04412
603.67550	0.04467
601.74682	0.04555
599.81815	0.04663
597.88947	0.04748
595.96080	0.04795
594.03212	0.04821
592.10344	0.04844
590.17477	0.04872
588.24609	0.04887
586.31742	0.04869
584.38874	0.04834
582.46007	0.04804
580.53139	0.04771
578.60271	0.04721
576.67404	0.04658
574.74536	0.04598
572.81669	0.04545
570.88801	0.04482
568.95934	0.04403
567.03066	0.04342
565.10198	0.04316
563.17331	0.04301
561.24463	0.04281
559.31596	0.04254
557.38728	0.04224
555.45861	0.04200
553.52993	0.04179
551.60125	0.04155
549.67258	0.04128
547.74390	0.04098
545.81523	0.04071
543.88655	0.04052
541.95788	0.04052
540.02920	0.04066
538.10052	0.04069
536.17185	0.04050
534.24317	0.04018
532.31450	0.03981
530.38582	0.03944
528.45715	0.03905
526.52847	0.03868
524.59979	0.03842
522.67112	0.03812
520.74244	0.03762
518.81377	0.03698
516.88509	0.03622
514.95642	0.03555
513.02774	0.03531
511.09906	0.03542
509.17039	0.03539
507.24171	0.03505
505.31304	0.03467
503.38436	0.03435
501.45569	0.03391
499.52701	0.03331
497.59833	0.03268
495.66966	0.03210
493.74098	0.03159
491.81231	0.03105
489.88363	0.03050
487.95496	0.02998
486.02628	0.02952
484.09760	0.02902
482.16893	0.02838
480.24025	0.02777
478.31158	0.02731
476.38290	0.02674
474.45423	0.02597
472.52555	0.02523
470.59687	0.02476
468.66820	0.02452
466.73952	0.02434
464.81085	0.02409
462.88217	0.02372
460.95350	0.02335
459.02482	0.02311
457.09614	0.02313
455.16747	0.02334
453.23879	0.02349
451.31012	0.02347
449.38144	0.02345
447.45277	0.02343
445.52409	0.02323
443.59541	0.02289
441.66674	0.02266
439.73806	0.02253
437.80939	0.02222
435.88071	0.02169
433.95204	0.02111
432.02336	0.02053
430.09468	0.01992
428.16601	0.01928
426.23733	0.01866
424.30866	0.01800
422.37998	0.01720
420.45131	0.01626
418.52263	0.01539
416.59395	0.01469
414.66528	0.01414
412.73660	0.01358
410.80793	0.01305
408.87925	0.01259
406.95058	0.01210
405.02190	0.01145
403.09322	0.01062
401.16455	0.00974
399.23587	0.00908
397.30720	0.00871
395.37852	0.00833
393.44985	0.00780
391.52117	0.00732
389.59249	0.00693
387.66382	0.00646
385.73514	0.00591
383.80647	0.00545
381.87779	0.00510
379.94912	0.00485
378.02044	0.00465
376.09176	0.00427
374.16309	0.00360
372.23441	0.00297
370.30574	0.00272
368.37706	0.00268
