7496.76250	0.00114
7494.83382	0.00113
7492.90514	0.00112
7490.97647	0.00112
7489.04779	0.00113
7487.11912	0.00114
7485.19044	0.00114
7483.26177	0.00114
7481.33309	0.00114
7479.40441	0.00114
7477.47574	0.00112
7475.54706	0.00112
7473.61839	0.00114
7471.68971	0.00118
7469.76104	0.00119
7467.83236	0.00116
7465.90368	0.00114
7463.97501	0.00116
7462.04633	0.00120
7460.11766	0.00121
7458.18898	0.00120
7456.26031	0.00119
7454.33163	0.00117
7452.40295	0.00116
7450.47428	0.00116
7448.54560	0.00119
7446.61693	0.00121
7444.68825	0.00120
7442.75958	0.00119
7440.83090	0.00119
7438.90222	0.00120
7436.97355	0.00119
7435.04487	0.00119
7433.11620	0.00120
7431.18752	0.00121
7429.25885	0.00121
7427.33017	0.00122
7425.40149	0.00124
7423.47282	0.00124
7421.54414	0.00123
7419.61547	0.00122
7417.68679	0.00122
7415.75812	0.00124
7413.82944	0.00126
7411.90076	0.00127
7409.97209	0.00127
7408.04341	0.00125
7406.11474	0.00124
7404.18606	0.00123
7402.25739	0.00125
7400.32871	0.00128
7398.40003	0.00130
7396.47136	0.00131
7394.54268	0.00131
7392.61401	0.00131
7390.68533	0.00131
7388.75666	0.00131
7386.82798	0.00131
7384.89930	0.00131
7382.97063	0.00130
7381.04195	0.00129
7379.11328	0.00129
7377.18460	0.00129
7375.25593	0.00130
7373.32725	0.00131
7371.39857	0.00130
7369.46990	0.00129
7367.54122	0.00132
7365.61255	0.00135
7363.68387	0.00135
7361.75520	0.00135
7359.82652	0.00136
7357.89784	0.00136
7355.96917	0.00135
7354.04049	0.00135
7352.11182	0.00136
7350.18314	0.00136
7348.25447	0.00136
7346.32579	0.00135
7344.39711	0.00134
7342.46844	0.00135
7340.53976	0.00136
7338.61109	0.00136
7336.68241	0.00135
7334.75374	0.00136
7332.82506	0.00138
7330.89638	0.00139
7328.96771	0.00140
7327.03903	0.00139
7325.11036	0.00138
7323.18168	0.00137
7321.25301	0.00137
7319.32433	0.00137
7317.39565	0.00138
7315.46698	0.00139
7313.53830	0.00139
7311.60963	0.00139
7309.68095	0.00140
7307.75228	0.00141
7305.82360	0.00143
7303.89492	0.00145
7301.96625	0.00144
7300.03757	0.00144
7298.10890	0.00147
7296.18022	0.00149
7294.25155	0.00151
7292.32287	0.00151
7290.39419	0.00149
7288.46552	0.00147
7286.53684	0.00147
7284.60817	0.00148
7282.67949	0.00151
7280.75082	0.00151
7278.82214	0.00150
7276.89346	0.00148
7274.96479	0.00148
7273.03611	0.00149
7271.10744	0.00150
7269.17876	0.00152
7267.25009	0.00153
7265.32141	0.00152
7263.39273	0.00150
7261.46406	0.00149
7259.53538	0.00151
7257.60671	0.00152
7255.67803	0.00152
7253.74936	0.00153
7251.82068	0.00155
7249.89200	0.00154
7247.96333	0.00154
7246.03465	0.00154
7244.10598	0.00154
7242.17730	0.00155
7240.24863	0.00156
7238.31995	0.00157
7236.39127	0.00158
7234.46260	0.00158
7232.53392	0.00158
7230.60525	0.00158
7228.67657	0.00160
7226.74790	0.00161
7224.81922	0.00161
7222.89054	0.00160
7220.96187	0.00161
7219.03319	0.00160
7217.10452	0.00160
7215.17584	0.00160
7213.24717	0.00159
7211.31849	0.00159
7209.38981	0.00160
7207.46114	0.00162
7205.53246	0.00162
7203.60379	0.00162
7201.67511	0.00162
7199.74644	0.00162
7197.81776	0.00161
7195.88908	0.00162
7193.96041	0.00164
7192.03173	0.00164
7190.10306	0.00163
7188.17438	0.00165
7186.24571	0.00168
7184.31703	0.00168
7182.38835	0.00166
7180.45968	0.00166
7178.53100	0.00167
7176.60233	0.00167
7174.67365	0.00168
7172.74498	0.00170
7170.81630	0.00171
7168.88762	0.00170
7166.95895	0.00171
7165.03027	0.00173
7163.10160	0.00173
7161.17292	0.00173
7159.24425	0.00173
7157.31557	0.00173
7155.38689	0.00172
7153.45822	0.00170
7151.52954	0.00170
7149.60087	0.00172
7147.67219	0.00173
7145.74352	0.00174
7143.81484	0.00174
7141.88616	0.00172
7139.95749	0.00170
7138.02881	0.00170
7136.10014	0.00171
7134.17146	0.00173
7132.24279	0.00176
7130.31411	0.00179
7128.38543	0.00180
7126.45676	0.00179
7124.52808	0.00177
7122.59941	0.00178
7120.67073	0.00181
7118.74206	0.00182
7116.81338	0.00181
7114.88470	0.00180
7112.95603	0.00182
7111.02735	0.00184
7109.09868	0.00183
7107.17000	0.00182
7105.24133	0.00182
7103.31265	0.00182
7101.38397	0.00181
7099.45530	0.00180
7097.52662	0.00181
7095.59795	0.00184
7093.66927	0.00185
7091.74060	0.00185
7089.81192	0.00186
7087.88324	0.00186
7085.95457	0.00185
7084.02589	0.00186
7082.09722	0.00185
7080.16854	0.00184
7078.23987	0.00184
7076.31119	0.00186
7074.38251	0.00185
7072.45384	0.00184
7070.52516	0.00186
7068.59649	0.00189
7066.66781	0.00192
7064.73914	0.00192
7062.81046	0.00191
7060.88178	0.00191
7058.95311	0.00192
7057.02443	0.00193
7055.09576	0.00194
7053.16708	0.00195
7051.23841	0.00196
7049.30973	0.00198
7047.38105	0.00199
7045.45238	0.00197
7043.52370	0.00195
7041.59503	0.00196
7039.66635	0.00197
7037.73768	0.00197
7035.80900	0.00196
7033.88032	0.00195
7031.95165	0.00196
7030.02297	0.00198
7028.09430	0.00201
7026.16562	0.00203
7024.23695	0.00203
7022.30827	0.00202
7020.37959	0.00202
7018.45092	0.00201
7016.52224	0.00201
7014.59357	0.00201
7012.66489	0.00201
7010.73622	0.00203
7008.80754	0.00205
7006.87886	0.00205
7004.95019	0.00205
7003.02151	0.00205
7001.09284	0.00204
6999.16416	0.00203
6997.23549	0.00205
6995.30681	0.00206
6993.37813	0.00207
6991.44946	0.00209
6989.52078	0.00210
6987.59211	0.00208
6985.66343	0.00207
6983.73476	0.00207
6981.80608	0.00209
6979.87740	0.00209
6977.94873	0.00208
6976.02005	0.00207
6974.09138	0.00209
6972.16270	0.00213
6970.23403	0.00216
6968.30535	0.00216
6966.37667	0.00215
6964.44800	0.00215
6962.51932	0.00215
6960.59065	0.00212
6958.66197	0.00209
6956.73330	0.00210
6954.80462	0.00213
6952.87594	0.00216
6950.94727	0.00215
6949.01859	0.00215
6947.08992	0.00216
6945.16124	0.00217
6943.23257	0.00218
6941.30389	0.00220
6939.37521	0.00222
6937.44654	0.00223
6935.51786	0.00222
6933.58919	0.00220
6931.66051	0.00219
6929.73184	0.00221
6927.80316	0.00224
6925.87448	0.00227
6923.94581	0.00227
6922.01713	0.00224
6920.08846	0.00222
6918.15978	0.00221
6916.23111	0.00222
6914.30243	0.00223
6912.37375	0.00224
6910.44508	0.00224
6908.51640	0.00224
6906.58773	0.00225
6904.65905	0.00226
6902.73038	0.00226
6900.80170	0.00227
6898.87302	0.00229
6896.94435	0.00232
6895.01567	0.00233
6893.08700	0.00231
6891.15832	0.00229
6889.22965	0.00228
6887.30097	0.00229
6885.37229	0.00232
6883.44362	0.00236
6881.51494	0.00238
6879.58627	0.00237
6877.65759	0.00233
6875.72892	0.00230
6873.80024	0.00230
6871.87156	0.00233
6869.94289	0.00235
6868.01421	0.00237
6866.08554	0.00240
6864.15686	0.00243
6862.22819	0.00242
6860.29951	0.00238
6858.37083	0.00236
6856.44216	0.00237
6854.51348	0.00239
6852.58481	0.00239
6850.65613	0.00238
6848.72746	0.00237
6846.79878	0.00238
6844.87010	0.00241
6842.94143	0.00245
6841.01275	0.00248
6839.08408	0.00247
6837.15540	0.00245
6835.22673	0.00246
6833.29805	0.00248
6831.36937	0.00248
6829.44070	0.00248
6827.51202	0.00250
6825.58335	0.00251
6823.65467	0.00251
6821.72600	0.00251
6819.79732	0.00251
6817.86864	0.00253
6815.93997	0.00254
6814.01129	0.00255
6812.08262	0.00255
6810.15394	0.00256
6808.22527	0.00257
6806.29659	0.00258
6804.36791	0.00257
6802.43924	0.00255
6800.51056	0.00253
6798.58189	0.00254
6796.65321	0.00255
6794.72454	0.00255
6792.79586	0.00253
6790.86718	0.00254
6788.93851	0.00255
6787.00983	0.00255
6785.08116	0.00255
6783.15248	0.00258
6781.22381	0.00261
6779.29513	0.00263
6777.36645	0.00265
6775.43778	0.00266
6773.50910	0.00267
6771.58043	0.00266
6769.65175	0.00266
6767.72308	0.00267
6765.79440	0.00267
6763.86572	0.00266
6761.93705	0.00264
6760.00837	0.00265
6758.07970	0.00267
6756.15102	0.00268
6754.22235	0.00268
6752.29367	0.00268
6750.36499	0.00268
6748.43632	0.00268
6746.50764	0.00268
6744.57897	0.00270
6742.65029	0.00272
6740.72162	0.00273
6738.79294	0.00273
6736.86426	0.00275
6734.93559	0.00277
6733.00691	0.00278
6731.07824	0.00277
6729.14956	0.00274
6727.22089	0.00271
6725.29221	0.00271
6723.36353	0.00273
6721.43486	0.00276
6719.50618	0.00278
6717.57751	0.00279
6715.64883	0.00280
6713.72016	0.00280
6711.79148	0.00281
6709.86280	0.00282
6707.93413	0.00282
6706.00545	0.00284
6704.07678	0.00286
6702.14810	0.00287
6700.21943	0.00287
6698.29075	0.00285
6696.36207	0.00284
6694.43340	0.00284
6692.50472	0.00285
6690.57605	0.00286
6688.64737	0.00286
6686.71870	0.00287
6684.79002	0.00290
6682.86134	0.00293
6680.93267	0.00294
6679.00399	0.00294
6677.07532	0.00295
6675.14664	0.00296
6673.21797	0.00296
6671.28929	0.00295
6669.36061	0.00295
6667.43194	0.00295
6665.50326	0.00295
6663.57459	0.00298
6661.64591	0.00300
6659.71724	0.00299
6657.78856	0.00299
6655.85988	0.00300
6653.93121	0.00302
6652.00253	0.00302
6650.07386	0.00302
6648.14518	0.00301
6646.21651	0.00301
6644.28783	0.00301
6642.35915	0.00303
6640.43048	0.00305
6638.50180	0.00306
6636.57313	0.00306
6634.64445	0.00305
6632.71578	0.00304
6630.78710	0.00303
6628.85842	0.00305
6626.92975	0.00307
6625.00107	0.00308
6623.07240	0.00309
6621.14372	0.00310
6619.21505	0.00311
6617.28637	0.00310
6615.35769	0.00311
6613.42902	0.00313
6611.50034	0.00314
6609.57167	0.00313
6607.64299	0.00313
6605.71432	0.00314
6603.78564	0.00314
6601.85696	0.00315
6599.92829	0.00318
6597.99961	0.00319
6596.07094	0.00319
6594.14226	0.00320
6592.21359	0.00322
6590.28491	0.00324
6588.35623	0.00324
6586.42756	0.00322
6584.49888	0.00321
6582.57021	0.00323
6580.64153	0.00325
6578.71286	0.00327
6576.78418	0.00328
6574.85550	0.00328
6572.92683	0.00329
6570.99815	0.00331
6569.06948	0.00332
6567.14080	0.00331
6565.21213	0.00329
6563.28345	0.00329
6561.35477	0.00329
6559.42610	0.00330
6557.49742	0.00332
6555.56875	0.00335
6553.64007	0.00336
6551.71140	0.00335
6549.78272	0.00335
6547.85404	0.00337
6545.92537	0.00337
6543.99669	0.00334
6542.06802	0.00334
6540.13934	0.00336
6538.21067	0.00338
6536.28199	0.00339
6534.35331	0.00340
6532.42464	0.00339
6530.49596	0.00338
6528.56729	0.00339
6526.63861	0.00340
6524.70994	0.00341
6522.78126	0.00342
6520.85258	0.00343
6518.92391	0.00344
6516.99523	0.00345
6515.06656	0.00348
6513.13788	0.00351
6511.20921	0.00353
6509.28053	0.00355
6507.35185	0.00356
6505.42318	0.00355
6503.49450	0.00355
6501.56583	0.00355
6499.63715	0.00355
6497.70848	0.00358
6495.77980	0.00359
6493.85112	0.00356
6491.92245	0.00354
6489.99377	0.00355
6488.06510	0.00358
6486.13642	0.00360
6484.20775	0.00360
6482.27907	0.00358
6480.35039	0.00357
6478.42172	0.00358
6476.49304	0.00361
6474.56437	0.00362
6472.63569	0.00364
6470.70702	0.00367
6468.77834	0.00369
6466.84966	0.00369
6464.92099	0.00371
6462.99231	0.00374
6461.06364	0.00373
6459.13496	0.00372
6457.20629	0.00372
6455.27761	0.00374
6453.34893	0.00375
6451.42026	0.00375
6449.49158	0.00376
6447.56291	0.00378
6445.63423	0.00379
6443.70556	0.00378
6441.77688	0.00378
6439.84820	0.00379
6437.91953	0.00380
6435.99085	0.00381
6434.06218	0.00383
6432.13350	0.00385
6430.20483	0.00385
6428.27615	0.00383
6426.34747	0.00381
6424.41880	0.00383
6422.49012	0.00387
6420.56145	0.00389
6418.63277	0.00389
6416.70410	0.00389
6414.77542	0.00389
6412.84674	0.00390
6410.91807	0.00392
6408.98939	0.00392
6407.06072	0.00393
6405.13204	0.00393
6403.20337	0.00394
6401.27469	0.00395
6399.34601	0.00398
6397.41734	0.00399
6395.48866	0.00398
6393.55999	0.00396
6391.63131	0.00396
6389.70264	0.00397
6387.77396	0.00399
6385.84528	0.00401
6383.91661	0.00402
6381.98793	0.00403
6380.05926	0.00404
6378.13058	0.00405
6376.20191	0.00406
6374.27323	0.00409
6372.34455	0.00412
6370.41588	0.00412
6368.48720	0.00409
6366.55853	0.00408
6364.62985	0.00411
6362.70118	0.00414
6360.77250	0.00415
6358.84382	0.00414
6356.91515	0.00414
6354.98647	0.00415
6353.05780	0.00417
6351.12912	0.00417
6349.20045	0.00416
6347.27177	0.00417
6345.34309	0.00419
6343.41442	0.00421
6341.48574	0.00421
6339.55707	0.00421
6337.62839	0.00423
6335.69972	0.00426
6333.77104	0.00429
6331.84236	0.00430
6329.91369	0.00429
6327.98501	0.00428
6326.05634	0.00427
6324.12766	0.00428
6322.19899	0.00429
6320.27031	0.00431
6318.34163	0.00433
6316.41296	0.00434
6314.48428	0.00434
6312.55561	0.00435
6310.62693	0.00437
6308.69826	0.00438
6306.76958	0.00436
6304.84090	0.00434
6302.91223	0.00435
6300.98355	0.00439
6299.05488	0.00443
6297.12620	0.00446
6295.19753	0.00446
6293.26885	0.00446
6291.34017	0.00445
6289.41150	0.00446
6287.48282	0.00448
6285.55415	0.00450
6283.62547	0.00450
6281.69680	0.00451
6279.76812	0.00453
6277.83944	0.00457
6275.91077	0.00457
6273.98209	0.00454
6272.05342	0.00453
6270.12474	0.00455
6268.19607	0.00456
6266.26739	0.00456
6264.33871	0.00456
6262.41004	0.00458
6260.48136	0.00460
6258.55269	0.00464
6256.62401	0.00467
6254.69534	0.00465
6252.76666	0.00462
6250.83798	0.00461
6248.90931	0.00465
6246.98063	0.00469
6245.05196	0.00470
6243.12328	0.00468
6241.19461	0.00466
6239.26593	0.00467
6237.33725	0.00470
6235.40858	0.00472
6233.47990	0.00471
6231.55123	0.00472
6229.62255	0.00475
6227.69388	0.00477
6225.76520	0.00479
6223.83652	0.00482
6221.90785	0.00483
6219.97917	0.00483
6218.05050	0.00484
6216.12182	0.00485
6214.19315	0.00485
6212.26447	0.00486
6210.33579	0.00488
6208.40712	0.00491
6206.47844	0.00492
6204.54977	0.00490
6202.62109	0.00487
6200.69242	0.00489
6198.76374	0.00493
6196.83506	0.00496
6194.90639	0.00499
6192.97771	0.00500
6191.04904	0.00498
6189.12036	0.00498
6187.19169	0.00501
6185.26301	0.00504
6183.33433	0.00504
6181.40566	0.00502
6179.47698	0.00501
6177.54831	0.00499
6175.61963	0.00502
6173.69096	0.00506
6171.76228	0.00510
6169.83360	0.00513
6167.90493	0.00515
6165.97625	0.00514
6164.04758	0.00511
6162.11890	0.00510
6160.19023	0.00511
6158.26155	0.00512
6156.33287	0.00514
6154.40420	0.00516
6152.47552	0.00518
6150.54685	0.00520
6148.61817	0.00522
6146.68950	0.00524
6144.76082	0.00526
6142.83214	0.00527
6140.90347	0.00527
6138.97479	0.00527
6137.04612	0.00527
6135.11744	0.00528
6133.18877	0.00528
6131.26009	0.00527
6129.33141	0.00525
6127.40274	0.00526
6125.47406	0.00531
6123.54539	0.00536
6121.61671	0.00539
6119.68804	0.00539
6117.75936	0.00539
6115.83068	0.00538
6113.90201	0.00537
6111.97333	0.00538
6110.04466	0.00540
6108.11598	0.00543
6106.18731	0.00546
6104.25863	0.00547
6102.32995	0.00548
6100.40128	0.00549
6098.47260	0.00549
6096.54393	0.00550
6094.61525	0.00552
6092.68658	0.00555
6090.75790	0.00557
6088.82922	0.00556
6086.90055	0.00555
6084.97187	0.00556
6083.04320	0.00559
6081.11452	0.00560
6079.18585	0.00562
6077.25717	0.00563
6075.32849	0.00564
6073.39982	0.00565
6071.47114	0.00564
6069.54247	0.00565
6067.61379	0.00568
6065.68512	0.00571
6063.75644	0.00572
6061.82776	0.00574
6059.89909	0.00577
6057.97041	0.00579
6056.04174	0.00578
6054.11306	0.00578
6052.18439	0.00578
6050.25571	0.00578
6048.32703	0.00579
6046.39836	0.00583
6044.46968	0.00587
6042.54101	0.00589
6040.61233	0.00589
6038.68366	0.00587
6036.75498	0.00585
6034.82630	0.00587
6032.89763	0.00591
6030.96895	0.00595
6029.04028	0.00597
6027.11160	0.00598
6025.18293	0.00598
6023.25425	0.00597
6021.32557	0.00597
6019.39690	0.00600
6017.46822	0.00603
6015.53955	0.00605
6013.61087	0.00604
6011.68220	0.00603
6009.75352	0.00605
6007.82484	0.00608
6005.89617	0.00611
6003.96749	0.00614
6002.03882	0.00616
6000.11014	0.00615
5998.18147	0.00613
5996.25279	0.00613
5994.32411	0.00614
5992.39544	0.00617
5990.46676	0.00618
5988.53809	0.00617
5986.60941	0.00618
5984.68074	0.00620
5982.75206	0.00620
5980.82338	0.00621
5978.89471	0.00625
5976.96603	0.00628
5975.03736	0.00630
5973.10868	0.00632
5971.18001	0.00635
5969.25133	0.00635
5967.32265	0.00635
5965.39398	0.00636
5963.46530	0.00637
5961.53663	0.00638
5959.60795	0.00639
5957.67928	0.00641
5955.75060	0.00644
5953.82192	0.00648
5951.89325	0.00649
5949.96457	0.00651
5948.03590	0.00654
5946.10722	0.00656
5944.17855	0.00655
5942.24987	0.00654
5940.32119	0.00656
5938.39252	0.00659
5936.46384	0.00659
5934.53517	0.00659
5932.60649	0.00659
5930.67782	0.00660
5928.74914	0.00660
5926.82046	0.00661
5924.89179	0.00662
5922.96311	0.00664
5921.03444	0.00666
5919.10576	0.00668
5917.17709	0.00668
5915.24841	0.00667
5913.31973	0.00672
5911.39106	0.00678
5909.46238	0.00682
5907.53371	0.00683
5905.60503	0.00683
5903.67636	0.00683
5901.74768	0.00684
5899.81900	0.00684
5897.89033	0.00686
5895.96165	0.00690
5894.03298	0.00691
5892.10430	0.00690
5890.17563	0.00689
5888.24695	0.00691
5886.31827	0.00692
5884.38960	0.00690
5882.46092	0.00690
5880.53225	0.00694
5878.60357	0.00698
5876.67490	0.00700
5874.74622	0.00702
5872.81755	0.00706
5870.88887	0.00710
5868.96019	0.00712
5867.03152	0.00712
5865.10284	0.00711
5863.17417	0.00710
5861.24549	0.00711
5859.31682	0.00715
5857.38814	0.00718
5855.45946	0.00720
5853.53079	0.00722
5851.60211	0.00722
5849.67344	0.00720
5847.74476	0.00720
5845.81609	0.00722
5843.88741	0.00723
5841.95873	0.00723
5840.03006	0.00722
5838.10138	0.00723
5836.17271	0.00726
5834.24403	0.00730
5832.31536	0.00733
5830.38668	0.00734
5828.45800	0.00736
5826.52933	0.00740
5824.60065	0.00743
5822.67198	0.00746
5820.74330	0.00749
5818.81463	0.00751
5816.88595	0.00750
5814.95727	0.00749
5813.02860	0.00751
5811.09992	0.00754
5809.17125	0.00755
5807.24257	0.00755
5805.31390	0.00756
5803.38522	0.00759
5801.45654	0.00761
5799.52787	0.00762
5797.59919	0.00763
5795.67052	0.00763
5793.74184	0.00761
5791.81317	0.00762
5789.88449	0.00766
5787.95581	0.00768
5786.02714	0.00770
5784.09846	0.00774
5782.16979	0.00778
5780.24111	0.00781
5778.31244	0.00782
5776.38376	0.00783
5774.45508	0.00785
5772.52641	0.00789
5770.59773	0.00789
5768.66906	0.00786
5766.74038	0.00785
5764.81171	0.00787
5762.88303	0.00790
5760.95435	0.00795
5759.02568	0.00801
5757.09700	0.00802
5755.16833	0.00801
5753.23965	0.00801
5751.31098	0.00803
5749.38230	0.00806
5747.45362	0.00807
5745.52495	0.00807
5743.59627	0.00808
5741.66760	0.00811
5739.73892	0.00813
5737.81025	0.00814
5735.88157	0.00816
5733.95289	0.00818
5732.02422	0.00819
5730.09554	0.00821
5728.16687	0.00822
5726.23819	0.00820
5724.30952	0.00819
5722.38084	0.00821
5720.45216	0.00823
5718.52349	0.00827
5716.59481	0.00830
5714.66614	0.00831
5712.73746	0.00832
5710.80879	0.00835
5708.88011	0.00839
5706.95143	0.00841
5705.02276	0.00842
5703.09408	0.00842
5701.16541	0.00841
5699.23673	0.00841
5697.30806	0.00845
5695.37938	0.00849
5693.45070	0.00852
5691.52203	0.00853
5689.59335	0.00854
5687.66468	0.00856
5685.73600	0.00859
5683.80733	0.00861
5681.87865	0.00863
5679.94997	0.00866
5678.02130	0.00868
5676.09262	0.00869
5674.16395	0.00870
5672.23527	0.00870
5670.30660	0.00873
5668.37792	0.00876
5666.44924	0.00878
5664.52057	0.00879
5662.59189	0.00880
5660.66322	0.00882
5658.73454	0.00884
5656.80587	0.00883
5654.87719	0.00884
5652.94851	0.00888
5651.01984	0.00894
5649.09116	0.00897
5647.16249	0.00898
5645.23381	0.00900
5643.30514	0.00902
5641.37646	0.00902
5639.44778	0.00902
5637.51911	0.00902
5635.59043	0.00904
5633.66176	0.00907
5631.73308	0.00909
5629.80441	0.00909
5627.87573	0.00911
5625.94705	0.00914
5624.01838	0.00919
5622.08970	0.00924
5620.16103	0.00926
5618.23235	0.00926
5616.30368	0.00926
5614.37500	0.00926
5612.44632	0.00927
5610.51765	0.00927
5608.58897	0.00929
5606.66030	0.00933
5604.73162	0.00938
5602.80295	0.00942
5600.87427	0.00942
5598.94559	0.00941
5597.01692	0.00942
5595.08824	0.00946
5593.15957	0.00949
5591.23089	0.00949
5589.30222	0.00949
5587.37354	0.00951
5585.44486	0.00953
5583.51619	0.00956
5581.58751	0.00958
5579.65884	0.00959
5577.73016	0.00958
5575.80149	0.00957
5573.87281	0.00958
5571.94413	0.00962
5570.01546	0.00964
5568.08678	0.00967
5566.15811	0.00973
5564.22943	0.00981
5562.30076	0.00985
5560.37208	0.00984
5558.44340	0.00983
5556.51473	0.00983
5554.58605	0.00985
5552.65738	0.00989
5550.72870	0.00993
5548.80003	0.00994
5546.87135	0.00994
5544.94267	0.00995
5543.01400	0.00998
5541.08532	0.01001
5539.15665	0.01002
5537.22797	0.01002
5535.29930	0.01004
5533.37062	0.01007
5531.44194	0.01010
5529.51327	0.01011
5527.58459	0.01013
5525.65592	0.01015
5523.72724	0.01017
5521.79857	0.01016
5519.86989	0.01017
5517.94121	0.01020
5516.01254	0.01024
5514.08386	0.01027
5512.15519	0.01029
5510.22651	0.01029
5508.29784	0.01032
5506.36916	0.01033
5504.44048	0.01032
5502.51181	0.01033
5500.58313	0.01038
5498.65446	0.01044
5496.72578	0.01048
5494.79711	0.01050
5492.86843	0.01051
5490.93975	0.01052
5489.01108	0.01051
5487.08240	0.01053
5485.15373	0.01058
5483.22505	0.01063
5481.29638	0.01064
5479.36770	0.01064
5477.43902	0.01062
5475.51035	0.01063
5473.58167	0.01065
5471.65300	0.01068
5469.72432	0.01071
5467.79565	0.01072
5465.86697	0.01073
5463.93829	0.01074
5462.00962	0.01077
5460.08094	0.01081
5458.15227	0.01083
5456.22359	0.01084
5454.29492	0.01085
5452.36624	0.01086
5450.43756	0.01088
5448.50889	0.01092
5446.58021	0.01096
5444.65154	0.01099
5442.72286	0.01100
5440.79419	0.01102
5438.86551	0.01105
5436.93683	0.01109
5435.00816	0.01109
5433.07948	0.01109
5431.15081	0.01112
5429.22213	0.01117
5427.29346	0.01121
5425.36478	0.01123
5423.43610	0.01122
5421.50743	0.01122
5419.57875	0.01123
5417.65008	0.01127
5415.72140	0.01132
5413.79273	0.01135
5411.86405	0.01137
5409.93537	0.01140
5408.00670	0.01143
5406.07802	0.01145
5404.14935	0.01145
5402.22067	0.01146
5400.29200	0.01147
5398.36332	0.01148
5396.43464	0.01151
5394.50597	0.01155
5392.57729	0.01159
5390.64862	0.01162
5388.71994	0.01163
5386.79127	0.01163
5384.86259	0.01163
5382.93391	0.01164
5381.00524	0.01167
5379.07656	0.01169
5377.14789	0.01170
5375.21921	0.01174
5373.29054	0.01179
5371.36186	0.01183
5369.43318	0.01185
5367.50451	0.01187
5365.57583	0.01187
5363.64716	0.01189
5361.71848	0.01194
5359.78981	0.01200
5357.86113	0.01203
5355.93245	0.01202
5354.00378	0.01200
5352.07510	0.01202
5350.14643	0.01207
5348.21775	0.01210
5346.28908	0.01212
5344.36040	0.01214
5342.43172	0.01216
5340.50305	0.01217
5338.57437	0.01218
5336.64570	0.01217
5334.71702	0.01217
5332.78835	0.01218
5330.85967	0.01221
5328.93099	0.01224
5327.00232	0.01228
5325.07364	0.01232
5323.14497	0.01234
5321.21629	0.01234
5319.28762	0.01236
5317.35894	0.01240
5315.43026	0.01245
5313.50159	0.01247
5311.57291	0.01248
5309.64424	0.01251
5307.71556	0.01253
5305.78689	0.01253
5303.85821	0.01254
5301.92953	0.01259
5300.00086	0.01263
5298.07218	0.01266
5296.14351	0.01268
5294.21483	0.01270
5292.28616	0.01271
5290.35748	0.01275
5288.42880	0.01279
5286.50013	0.01281
5284.57145	0.01283
5282.64278	0.01285
5280.71410	0.01289
5278.78543	0.01291
5276.85675	0.01292
5274.92807	0.01295
5272.99940	0.01300
5271.07072	0.01304
5269.14205	0.01306
5267.21337	0.01306
5265.28470	0.01305
5263.35602	0.01305
5261.42734	0.01309
5259.49867	0.01312
5257.56999	0.01315
5255.64132	0.01316
5253.71264	0.01317
5251.78397	0.01319
5249.85529	0.01321
5247.92661	0.01321
5245.99794	0.01321
5244.06926	0.01324
5242.14059	0.01330
5240.21191	0.01338
5238.28324	0.01346
5236.35456	0.01349
5234.42588	0.01348
5232.49721	0.01345
5230.56853	0.01346
5228.63986	0.01349
5226.71118	0.01349
5224.78251	0.01349
5222.85383	0.01352
5220.92515	0.01357
5218.99648	0.01361
5217.06780	0.01363
5215.13913	0.01365
5213.21045	0.01367
5211.28178	0.01370
5209.35310	0.01372
5207.42442	0.01374
5205.49575	0.01377
5203.56707	0.01380
5201.63840	0.01385
5199.70972	0.01389
5197.78105	0.01390
5195.85237	0.01391
5193.92369	0.01393
5191.99502	0.01395
5190.06634	0.01398
5188.13767	0.01402
5186.20899	0.01403
5184.28032	0.01403
5182.35164	0.01404
5180.42296	0.01407
5178.49429	0.01413
5176.56561	0.01417
5174.63694	0.01419
5172.70826	0.01421
5170.77959	0.01423
5168.85091	0.01425
5166.92223	0.01428
5164.99356	0.01432
5163.06488	0.01437
5161.13621	0.01440
5159.20753	0.01442
5157.27886	0.01445
5155.35018	0.01447
5153.42150	0.01447
5151.49283	0.01448
5149.56415	0.01450
5147.63548	0.01455
5145.70680	0.01459
5143.77813	0.01461
5141.84945	0.01462
5139.92077	0.01464
5137.99210	0.01468
5136.06342	0.01472
5134.13475	0.01476
5132.20607	0.01479
5130.27740	0.01483
5128.34872	0.01486
5126.42004	0.01485
5124.49137	0.01483
5122.56269	0.01483
5120.63402	0.01487
5118.70534	0.01491
5116.77667	0.01495
5114.84799	0.01498
5112.91931	0.01500
5110.99064	0.01502
5109.06196	0.01505
5107.13329	0.01507
5105.20461	0.01508
5103.27594	0.01511
5101.34726	0.01513
5099.41858	0.01514
5097.48991	0.01515
5095.56123	0.01519
5093.63256	0.01525
5091.70388	0.01528
5089.77521	0.01531
5087.84653	0.01534
5085.91785	0.01535
5083.98918	0.01536
5082.06050	0.01538
5080.13183	0.01540
5078.20315	0.01543
5076.27448	0.01548
5074.34580	0.01553
5072.41712	0.01557
5070.48845	0.01557
5068.55977	0.01557
5066.63110	0.01559
5064.70242	0.01560
5062.77375	0.01561
5060.84507	0.01565
5058.91639	0.01570
5056.98772	0.01574
5055.05904	0.01577
5053.13037	0.01579
5051.20169	0.01581
5049.27302	0.01585
5047.34434	0.01591
5045.41566	0.01594
5043.48699	0.01597
5041.55831	0.01599
5039.62964	0.01601
5037.70096	0.01604
5035.77229	0.01608
5033.84361	0.01610
5031.91493	0.01611
5029.98626	0.01614
5028.05758	0.01619
5026.12891	0.01623
5024.20023	0.01624
5022.27156	0.01626
5020.34288	0.01628
5018.41420	0.01630
5016.48553	0.01632
5014.55685	0.01637
5012.62818	0.01640
5010.69950	0.01641
5008.77083	0.01642
5006.84215	0.01645
5004.91347	0.01647
5002.98480	0.01650
5001.05612	0.01654
4999.12745	0.01658
4997.19877	0.01662
4995.27010	0.01664
4993.34142	0.01665
4991.41274	0.01667
4989.48407	0.01669
4987.55539	0.01671
4985.62672	0.01674
4983.69804	0.01678
4981.76937	0.01682
4979.84069	0.01683
4977.91201	0.01682
4975.98334	0.01684
4974.05466	0.01688
4972.12599	0.01693
4970.19731	0.01696
4968.26864	0.01699
4966.33996	0.01700
4964.41128	0.01702
4962.48261	0.01707
4960.55393	0.01712
4958.62526	0.01714
4956.69658	0.01715
4954.76791	0.01718
4952.83923	0.01722
4950.91055	0.01724
4948.98188	0.01727
4947.05320	0.01731
4945.12453	0.01733
4943.19585	0.01732
4941.26718	0.01735
4939.33850	0.01743
4937.40982	0.01751
4935.48115	0.01753
4933.55247	0.01754
4931.62380	0.01755
4929.69512	0.01756
4927.76645	0.01760
4925.83777	0.01765
4923.90909	0.01767
4921.98042	0.01770
4920.05174	0.01773
4918.12307	0.01776
4916.19439	0.01779
4914.26572	0.01779
4912.33704	0.01777
4910.40836	0.01778
4908.47969	0.01783
4906.55101	0.01790
4904.62234	0.01793
4902.69366	0.01795
4900.76499	0.01797
4898.83631	0.01801
4896.90763	0.01804
4894.97896	0.01808
4893.05028	0.01813
4891.12161	0.01818
4889.19293	0.01821
4887.26426	0.01822
4885.33558	0.01825
4883.40690	0.01828
4881.47823	0.01830
4879.54955	0.01829
4877.62088	0.01829
4875.69220	0.01831
4873.76353	0.01836
4871.83485	0.01841
4869.90617	0.01844
4867.97750	0.01847
4866.04882	0.01852
4864.12015	0.01857
4862.19147	0.01860
4860.26280	0.01862
4858.33412	0.01865
4856.40544	0.01868
4854.47677	0.01870
4852.54809	0.01873
4850.61942	0.01876
4848.69074	0.01880
4846.76207	0.01882
4844.83339	0.01883
4842.90471	0.01884
4840.97604	0.01889
4839.04736	0.01897
4837.11869	0.01903
4835.19001	0.01907
4833.26134	0.01908
4831.33266	0.01908
4829.40398	0.01908
4827.47531	0.01911
4825.54663	0.01915
4823.61796	0.01920
4821.68928	0.01922
4819.76061	0.01922
4817.83193	0.01926
4815.90325	0.01933
4813.97458	0.01939
4812.04590	0.01941
4810.11723	0.01941
4808.18855	0.01942
4806.25988	0.01944
4804.33120	0.01946
4802.40252	0.01952
4800.47385	0.01958
4798.54517	0.01962
4796.61650	0.01963
4794.68782	0.01963
4792.75915	0.01965
4790.83047	0.01969
4788.90179	0.01973
4786.97312	0.01977
4785.04444	0.01981
4783.11577	0.01985
4781.18709	0.01992
4779.25842	0.01999
4777.32974	0.02002
4775.40106	0.02002
4773.47239	0.02002
4771.54371	0.02007
4769.61504	0.02014
4767.68636	0.02018
4765.75769	0.02018
4763.82901	0.02020
4761.90033	0.02022
4759.97166	0.02024
4758.04298	0.02027
4756.11431	0.02030
4754.18563	0.02034
4752.25696	0.02039
4750.32828	0.02042
4748.39960	0.02045
4746.47093	0.02048
4744.54225	0.02050
4742.61358	0.02049
4740.68490	0.02049
4738.75623	0.02055
4736.82755	0.02063
4734.89887	0.02070
4732.97020	0.02074
4731.04152	0.02077
4729.11285	0.02079
4727.18417	0.02083
4725.25550	0.02087
4723.32682	0.02089
4721.39814	0.02092
4719.46947	0.02095
4717.54079	0.02097
4715.61212	0.02100
4713.68344	0.02103
4711.75477	0.02107
4709.82609	0.02111
4707.89741	0.02115
4705.96874	0.02121
4704.04006	0.02124
4702.11139	0.02124
4700.18271	0.02125
4698.25404	0.02129
4696.32536	0.02132
4694.39668	0.02136
4692.46801	0.02141
4690.53933	0.02143
4688.61066	0.02144
4686.68198	0.02149
4684.75331	0.02155
4682.82463	0.02158
4680.89595	0.02161
4678.96728	0.02166
4677.03860	0.02171
4675.10993	0.02174
4673.18125	0.02178
4671.25258	0.02183
4669.32390	0.02188
4667.39522	0.02192
4665.46655	0.02196
4663.53787	0.02197
4661.60920	0.02197
4659.68052	0.02198
4657.75185	0.02200
4655.82317	0.02205
4653.89449	0.02210
4651.96582	0.02216
4650.03714	0.02221
4648.10847	0.02227
4646.17979	0.02230
4644.25112	0.02231
4642.32244	0.02233
4640.39376	0.02236
4638.46509	0.02242
4636.53641	0.02248
4634.60774	0.02252
4632.67906	0.02254
4630.75039	0.02256
4628.82171	0.02258
4626.89303	0.02262
4624.96436	0.02266
4623.03568	0.02271
4621.10701	0.02277
4619.17833	0.02281
4617.24966	0.02284
4615.32098	0.02286
4613.39230	0.02288
4611.46363	0.02291
4609.53495	0.02297
4607.60628	0.02302
4605.67760	0.02306
4603.74893	0.02309
4601.82025	0.02312
4599.89157	0.02315
4597.96290	0.02319
4596.03422	0.02324
4594.10555	0.02328
4592.17687	0.02332
4590.24820	0.02335
4588.31952	0.02339
4586.39084	0.02342
4584.46217	0.02345
4582.53349	0.02348
4580.60482	0.02354
4578.67614	0.02359
4576.74747	0.02363
4574.81879	0.02367
4572.89011	0.02371
4570.96144	0.02375
4569.03276	0.02379
4567.10409	0.02383
4565.17541	0.02385
4563.24674	0.02388
4561.31806	0.02393
4559.38938	0.02400
4557.46071	0.02405
4555.53203	0.02406
4553.60336	0.02408
4551.67468	0.02413
4549.74601	0.02419
4547.81733	0.02423
4545.88865	0.02427
4543.95998	0.02431
4542.03130	0.02434
4540.10263	0.02438
4538.17395	0.02443
4536.24528	0.02448
4534.31660	0.02448
4532.38792	0.02450
4530.45925	0.02455
4528.53057	0.02460
4526.60190	0.02464
4524.67322	0.02468
4522.74455	0.02472
4520.81587	0.02480
4518.88719	0.02486
4516.95852	0.02488
4515.02984	0.02488
4513.10117	0.02492
4511.17249	0.02499
4509.24382	0.02506
4507.31514	0.02512
4505.38646	0.02516
4503.45779	0.02520
4501.52911	0.02523
4499.60044	0.02526
4497.67176	0.02529
4495.74309	0.02534
4493.81441	0.02537
4491.88573	0.02543
4489.95706	0.02550
4488.02838	0.02555
4486.09971	0.02557
4484.17103	0.02562
4482.24236	0.02569
4480.31368	0.02572
4478.38500	0.02573
4476.45633	0.02575
4474.52765	0.02577
4472.59898	0.02582
4470.67030	0.02590
4468.74163	0.02597
4466.81295	0.02603
4464.88427	0.02610
4462.95560	0.02617
4461.02692	0.02621
4459.09825	0.02623
4457.16957	0.02627
4455.24090	0.02634
4453.31222	0.02639
4451.38354	0.02640
4449.45487	0.02641
4447.52619	0.02643
4445.59752	0.02645
4443.66884	0.02650
4441.74017	0.02657
4439.81149	0.02663
4437.88281	0.02670
4435.95414	0.02675
4434.02546	0.02679
4432.09679	0.02685
4430.16811	0.02690
4428.23944	0.02694
4426.31076	0.02698
4424.38208	0.02702
4422.45341	0.02706
4420.52473	0.02711
4418.59606	0.02717
4416.66738	0.02720
4414.73871	0.02721
4412.81003	0.02724
4410.88135	0.02731
4408.95268	0.02737
4407.02400	0.02742
4405.09533	0.02747
4403.16665	0.02751
4401.23798	0.02757
4399.30930	0.02765
4397.38062	0.02770
4395.45195	0.02773
4393.52327	0.02777
4391.59460	0.02781
4389.66592	0.02784
4387.73725	0.02788
4385.80857	0.02794
4383.87989	0.02799
4381.95122	0.02804
4380.02254	0.02809
4378.09387	0.02817
4376.16519	0.02824
4374.23652	0.02828
4372.30784	0.02831
4370.37916	0.02833
4368.45049	0.02839
4366.52181	0.02848
4364.59314	0.02854
4362.66446	0.02854
4360.73579	0.02855
4358.80711	0.02865
4356.87843	0.02875
4354.94976	0.02880
4353.02108	0.02883
4351.09241	0.02889
4349.16373	0.02893
4347.23506	0.02896
4345.30638	0.02902
4343.37770	0.02909
4341.44903	0.02914
4339.52035	0.02919
4337.59168	0.02925
4335.66300	0.02929
4333.73433	0.02932
4331.80565	0.02937
4329.87697	0.02946
4327.94830	0.02954
4326.01962	0.02960
4324.09095	0.02965
4322.16227	0.02969
4320.23360	0.02972
4318.30492	0.02975
4316.37624	0.02978
4314.44757	0.02983
4312.51889	0.02989
4310.59022	0.02996
4308.66154	0.03003
4306.73287	0.03009
4304.80419	0.03013
4302.87551	0.03018
4300.94684	0.03024
4299.01816	0.03029
4297.08949	0.03035
4295.16081	0.03041
4293.23214	0.03047
4291.30346	0.03055
4289.37478	0.03062
4287.44611	0.03065
4285.51743	0.03067
4283.58876	0.03071
4281.66008	0.03077
4279.73141	0.03085
4277.80273	0.03094
4275.87405	0.03103
4273.94538	0.03110
4272.01670	0.03116
4270.08803	0.03120
4268.15935	0.03122
4266.23068	0.03125
4264.30200	0.03130
4262.37332	0.03137
4260.44465	0.03145
4258.51597	0.03151
4256.58730	0.03155
4254.65862	0.03161
4252.72995	0.03167
4250.80127	0.03171
4248.87259	0.03177
4246.94392	0.03185
4245.01524	0.03191
4243.08657	0.03194
4241.15789	0.03198
4239.22922	0.03204
4237.30054	0.03212
4235.37186	0.03218
4233.44319	0.03222
4231.51451	0.03226
4229.58584	0.03233
4227.65716	0.03243
4225.72849	0.03251
4223.79981	0.03255
4221.87113	0.03257
4219.94246	0.03263
4218.01378	0.03270
4216.08511	0.03277
4214.15643	0.03281
4212.22776	0.03285
4210.29908	0.03290
4208.37040	0.03297
4206.44173	0.03306
4204.51305	0.03315
4202.58438	0.03322
4200.65570	0.03328
4198.72703	0.03335
4196.79835	0.03341
4194.86968	0.03347
4192.94100	0.03352
4191.01232	0.03360
4189.08365	0.03365
4187.15497	0.03365
4185.22630	0.03365
4183.29762	0.03370
4181.36895	0.03380
4179.44027	0.03390
4177.51159	0.03399
4175.58292	0.03406
4173.65424	0.03414
4171.72557	0.03422
4169.79689	0.03425
4167.86822	0.03427
4165.93954	0.03435
4164.01086	0.03446
4162.08219	0.03456
4160.15351	0.03463
4158.22484	0.03467
4156.29616	0.03472
4154.36749	0.03478
4152.43881	0.03485
4150.51013	0.03491
4148.58146	0.03497
4146.65278	0.03504
4144.72411	0.03510
4142.79543	0.03514
4140.86676	0.03518
4138.93808	0.03525
4137.00940	0.03533
4135.08073	0.03542
4133.15205	0.03551
4131.22338	0.03561
4129.29470	0.03569
4127.36603	0.03571
4125.43735	0.03573
4123.50867	0.03577
4121.58000	0.03586
4119.65132	0.03596
4117.72265	0.03604
4115.79397	0.03610
4113.86530	0.03612
4111.93662	0.03618
4110.00794	0.03627
4108.07927	0.03638
4106.15059	0.03645
4104.22192	0.03651
4102.29324	0.03657
4100.36457	0.03663
4098.43589	0.03669
4096.50721	0.03677
4094.57854	0.03686
4092.64986	0.03694
4090.72119	0.03703
4088.79251	0.03711
4086.86384	0.03715
4084.93516	0.03718
4083.00648	0.03723
4081.07781	0.03729
4079.14913	0.03737
4077.22046	0.03749
4075.29178	0.03762
4073.36311	0.03771
4071.43443	0.03775
4069.50575	0.03776
4067.57708	0.03781
4065.64840	0.03788
4063.71973	0.03794
4061.79105	0.03800
4059.86238	0.03810
4057.93370	0.03819
4056.00502	0.03826
4054.07635	0.03831
4052.14767	0.03836
4050.21900	0.03842
4048.29032	0.03849
4046.36165	0.03855
4044.43297	0.03861
4042.50429	0.03869
4040.57562	0.03880
4038.64694	0.03890
4036.71827	0.03900
4034.78959	0.03906
4032.86092	0.03908
4030.93224	0.03913
4029.00356	0.03923
4027.07489	0.03931
4025.14621	0.03937
4023.21754	0.03946
4021.28886	0.03955
4019.36019	0.03964
4017.43151	0.03971
4015.50283	0.03979
4013.57416	0.03988
4011.64548	0.03998
4009.71681	0.04004
4007.78813	0.04008
4005.85946	0.04013
4003.93078	0.04022
4002.00210	0.04033
4000.07343	0.04043
3998.14475	0.04050
3996.21608	0.04055
3994.28740	0.04060
3992.35873	0.04068
3990.43005	0.04075
3988.50137	0.04085
3986.57270	0.04095
3984.64402	0.04105
3982.71535	0.04113
3980.78667	0.04118
3978.85800	0.04122
3976.92932	0.04127
3975.00064	0.04135
3973.07197	0.04147
3971.14329	0.04162
3969.21462	0.04173
3967.28594	0.04178
3965.35727	0.04181
3963.42859	0.04184
3961.49991	0.04190
3959.57124	0.04200
3957.64256	0.04209
3955.71389	0.04216
3953.78521	0.04222
3951.85654	0.04230
3949.92786	0.04236
3947.99918	0.04239
3946.07051	0.04245
3944.14183	0.04253
3942.21316	0.04261
3940.28448	0.04270
3938.35581	0.04282
3936.42713	0.04292
3934.49845	0.04296
3932.56978	0.04300
3930.64110	0.04311
3928.71243	0.04327
3926.78375	0.04338
3924.85508	0.04346
3922.92640	0.04354
3920.99772	0.04359
3919.06905	0.04359
3917.14037	0.04363
3915.21170	0.04376
3913.28302	0.04391
3911.35435	0.04400
3909.42567	0.04405
3907.49699	0.04404
3905.56832	0.04400
3903.63964	0.04402
3901.71097	0.04410
3899.78229	0.04425
3897.85362	0.04447
3895.92494	0.04463
3893.99626	0.04462
3892.06759	0.04457
3890.13891	0.04466
3888.21024	0.04481
3886.28156	0.04492
3884.35289	0.04501
3882.42421	0.04504
3880.49553	0.04508
3878.56686	0.04522
3876.63818	0.04535
3874.70951	0.04540
3872.78083	0.04544
3870.85216	0.04545
3868.92348	0.04550
3866.99480	0.04563
3865.06613	0.04574
3863.13745	0.04586
3861.20878	0.04604
3859.28010	0.04615
3857.35143	0.04603
3855.42275	0.04571
3853.49407	0.04566
3851.56540	0.04605
3849.63672	0.04647
3847.70805	0.04667
3845.77937	0.04673
3843.85070	0.04675
3841.92202	0.04680
3839.99334	0.04686
3838.06467	0.04693
3836.13599	0.04702
3834.20732	0.04711
3832.27864	0.04720
3830.34997	0.04735
3828.42129	0.04754
3826.49261	0.04767
3824.56394	0.04771
3822.63526	0.04766
3820.70659	0.04767
3818.77791	0.04778
3816.84924	0.04790
3814.92056	0.04806
3812.99188	0.04827
3811.06321	0.04840
3809.13453	0.04843
3807.20586	0.04848
3805.27718	0.04854
3803.34851	0.04852
3801.41983	0.04854
3799.49115	0.04871
3797.56248	0.04891
3795.63380	0.04908
3793.70513	0.04925
3791.77645	0.04937
3789.84778	0.04946
3787.91910	0.04956
3785.99042	0.04965
3784.06175	0.04973
3782.13307	0.04978
3780.20440	0.04980
3778.27572	0.04988
3776.34705	0.05003
3774.41837	0.05015
3772.48969	0.05021
3770.56102	0.05027
3768.63234	0.05038
3766.70367	0.05050
3764.77499	0.05058
3762.84632	0.05058
3760.91764	0.05054
3758.98896	0.05059
3757.06029	0.05074
3755.13161	0.05080
3753.20294	0.05067
3751.27426	0.05058
3749.34559	0.05071
3747.41691	0.05078
3745.48823	0.05068
3743.55956	0.05084
3741.63088	0.05126
3739.70221	0.05148
3737.77353	0.05142
3735.84486	0.05142
3733.91618	0.05164
3731.98750	0.05194
3730.05883	0.05216
3728.13015	0.05222
3726.20148	0.05221
3724.27280	0.05228
3722.34413	0.05243
3720.41545	0.05262
3718.48677	0.05280
3716.55810	0.05291
3714.62942	0.05290
3712.70075	0.05287
3710.77207	0.05296
3708.84340	0.05316
3706.91472	0.05333
3704.98604	0.05340
3703.05737	0.05344
3701.12869	0.05357
3699.20002	0.05375
3697.27134	0.05388
3695.34267	0.05394
3693.41399	0.05391
3691.48531	0.05383
3689.55664	0.05383
3687.62796	0.05403
3685.69929	0.05431
3683.77061	0.05449
3681.84194	0.05456
3679.91326	0.05456
3677.98458	0.05452
3676.05591	0.05452
3674.12723	0.05464
3672.19856	0.05476
3670.26988	0.05485
3668.34121	0.05506
3666.41253	0.05534
3664.48385	0.05551
3662.55518	0.05558
3660.62650	0.05563
3658.69783	0.05566
3656.76915	0.05569
3654.84048	0.05573
3652.91180	0.05565
3650.98312	0.05543
3649.05445	0.05532
3647.12577	0.05546
3645.19710	0.05578
3643.26842	0.05610
3641.33975	0.05629
3639.41107	0.05641
3637.48239	0.05651
3635.55372	0.05660
3633.62504	0.05663
3631.69637	0.05654
3629.76769	0.05641
3627.83902	0.05652
3625.91034	0.05684
3623.98166	0.05706
3622.05299	0.05706
3620.12431	0.05698
3618.19564	0.05703
3616.26696	0.05716
3614.33829	0.05719
3612.40961	0.05715
3610.48093	0.05715
3608.55226	0.05726
3606.62358	0.05750
3604.69491	0.05770
3602.76623	0.05779
3600.83756	0.05782
3598.90888	0.05786
3596.98020	0.05789
3595.05153	0.05794
3593.12285	0.05802
3591.19418	0.05806
3589.26550	0.05800
3587.33683	0.05801
3585.40815	0.05820
3583.47947	0.05844
3581.55080	0.05859
3579.62212	0.05866
3577.69345	0.05873
3575.76477	0.05879
3573.83610	0.05884
3571.90742	0.05888
3569.97874	0.05884
3568.05007	0.05879
3566.12139	0.05892
3564.19272	0.05917
3562.26404	0.05935
3560.33537	0.05946
3558.40669	0.05953
3556.47801	0.05960
3554.54934	0.05967
3552.62066	0.05975
3550.69199	0.05979
3548.76331	0.05979
3546.83464	0.05980
3544.90596	0.05990
3542.97728	0.06005
3541.04861	0.06016
3539.11993	0.06022
3537.19126	0.06027
3535.26258	0.06033
3533.33391	0.06036
3531.40523	0.06037
3529.47655	0.06037
3527.54788	0.06040
3525.61920	0.06047
3523.69053	0.06054
3521.76185	0.06061
3519.83318	0.06068
3517.90450	0.06071
3515.97582	0.06073
3514.04715	0.06075
3512.11847	0.06077
3510.18980	0.06078
3508.26112	0.06083
3506.33245	0.06087
3504.40377	0.06086
3502.47509	0.06088
3500.54642	0.06096
3498.61774	0.06104
3496.68907	0.06109
3494.76039	0.06110
3492.83172	0.06108
3490.90304	0.06108
3488.97436	0.06112
3487.04569	0.06121
3485.11701	0.06127
3483.18834	0.06130
3481.25966	0.06131
3479.33099	0.06134
3477.40231	0.06142
3475.47363	0.06151
3473.54496	0.06162
3471.61628	0.06169
3469.68761	0.06173
3467.75893	0.06179
3465.83026	0.06189
3463.90158	0.06199
3461.97290	0.06210
3460.04423	0.06225
3458.11555	0.06242
3456.18688	0.06251
3454.25820	0.06257
3452.32953	0.06268
3450.40085	0.06278
3448.47217	0.06283
3446.54350	0.06288
3444.61482	0.06300
3442.68615	0.06313
3440.75747	0.06324
3438.82880	0.06335
3436.90012	0.06353
3434.97144	0.06374
3433.04277	0.06394
3431.11409	0.06416
3429.18542	0.06438
3427.25674	0.06457
3425.32807	0.06474
3423.39939	0.06490
3421.47071	0.06508
3419.54204	0.06527
3417.61336	0.06549
3415.68469	0.06570
3413.75601	0.06586
3411.82734	0.06599
3409.89866	0.06611
3407.96998	0.06623
3406.04131	0.06638
3404.11263	0.06654
3402.18396	0.06668
3400.25528	0.06682
3398.32661	0.06694
3396.39793	0.06705
3394.46925	0.06719
3392.54058	0.06735
3390.61190	0.06751
3388.68323	0.06765
3386.75455	0.06776
3384.82588	0.06787
3382.89720	0.06797
3380.96852	0.06808
3379.03985	0.06822
3377.11117	0.06839
3375.18250	0.06854
3373.25382	0.06866
3371.32515	0.06880
3369.39647	0.06897
3367.46779	0.06912
3365.53912	0.06922
3363.61044	0.06929
3361.68177	0.06938
3359.75309	0.06952
3357.82442	0.06969
3355.89574	0.06986
3353.96706	0.07001
3352.03839	0.07014
3350.10971	0.07027
3348.18104	0.07040
3346.25236	0.07052
3344.32369	0.07060
3342.39501	0.07067
3340.46633	0.07079
3338.53766	0.07093
3336.60898	0.07109
3334.68031	0.07129
3332.75163	0.07146
3330.82296	0.07155
3328.89428	0.07163
3326.96560	0.07174
3325.03693	0.07188
3323.10825	0.07202
3321.17958	0.07215
3319.25090	0.07229
3317.32223	0.07243
3315.39355	0.07254
3313.46487	0.07265
3311.53620	0.07281
3309.60752	0.07299
3307.67885	0.07313
3305.75017	0.07323
3303.82150	0.07333
3301.89282	0.07345
3299.96414	0.07359
3298.03547	0.07374
3296.10679	0.07387
3294.17812	0.07398
3292.24944	0.07410
3290.32077	0.07425
3288.39209	0.07441
3286.46341	0.07453
3284.53474	0.07461
3282.60606	0.07470
3280.67739	0.07485
3278.74871	0.07505
3276.82004	0.07521
3274.89136	0.07535
3272.96268	0.07551
3271.03401	0.07567
3269.10533	0.07579
3267.17666	0.07588
3265.24798	0.07600
3263.31931	0.07616
3261.39063	0.07631
3259.46195	0.07645
3257.53328	0.07661
3255.60460	0.07676
3253.67593	0.07689
3251.74725	0.07698
3249.81858	0.07705
3247.88990	0.07716
3245.96122	0.07734
3244.03255	0.07753
3242.10387	0.07767
3240.17520	0.07779
3238.24652	0.07794
3236.31785	0.07811
3234.38917	0.07827
3232.46049	0.07845
3230.53182	0.07860
3228.60314	0.07870
3226.67447	0.07878
3224.74579	0.07891
3222.81712	0.07909
3220.88844	0.07925
3218.95976	0.07939
3217.03109	0.07952
3215.10241	0.07964
3213.17374	0.07973
3211.24506	0.07984
3209.31639	0.07999
3207.38771	0.08017
3205.45903	0.08035
3203.53036	0.08055
3201.60168	0.08075
3199.67301	0.08087
3197.74433	0.08096
3195.81566	0.08110
3193.88698	0.08126
3191.95830	0.08141
3190.02963	0.08156
3188.10095	0.08171
3186.17228	0.08181
3184.24360	0.08192
3182.31493	0.08211
3180.38625	0.08232
3178.45757	0.08250
3176.52890	0.08263
3174.60022	0.08272
3172.67155	0.08283
3170.74287	0.08299
3168.81420	0.08315
3166.88552	0.08331
3164.95684	0.08347
3163.02817	0.08362
3161.09949	0.08376
3159.17082	0.08391
3157.24214	0.08404
3155.31347	0.08414
3153.38479	0.08427
3151.45611	0.08444
3149.52744	0.08461
3147.59876	0.08475
3145.67009	0.08488
3143.74141	0.08499
3141.81274	0.08512
3139.88406	0.08527
3137.95538	0.08543
3136.02671	0.08560
3134.09803	0.08574
3132.16936	0.08587
3130.24068	0.08601
3128.31201	0.08618
3126.38333	0.08636
3124.45465	0.08652
3122.52598	0.08663
3120.59730	0.08670
3118.66863	0.08677
3116.73995	0.08688
3114.81128	0.08704
3112.88260	0.08726
3110.95392	0.08749
3109.02525	0.08767
3107.09657	0.08778
3105.16790	0.08786
3103.23922	0.08798
3101.31055	0.08814
3099.38187	0.08830
3097.45319	0.08845
3095.52452	0.08859
3093.59584	0.08877
3091.66717	0.08895
3089.73849	0.08910
3087.80982	0.08920
3085.88114	0.08928
3083.95246	0.08942
3082.02379	0.08961
3080.09511	0.08979
3078.16644	0.08993
3076.23776	0.09007
3074.30909	0.09020
3072.38041	0.09037
3070.45173	0.09054
3068.52306	0.09067
3066.59438	0.09080
3064.66571	0.09096
3062.73703	0.09110
3060.80836	0.09124
3058.87968	0.09139
3056.95100	0.09151
3055.02233	0.09164
3053.09365	0.09177
3051.16498	0.09187
3049.23630	0.09196
3047.30763	0.09209
3045.37895	0.09228
3043.45027	0.09248
3041.52160	0.09267
3039.59292	0.09283
3037.66425	0.09294
3035.73557	0.09302
3033.80690	0.09312
3031.87822	0.09327
3029.94954	0.09343
3028.02087	0.09357
3026.09219	0.09372
3024.16352	0.09390
3022.23484	0.09409
3020.30617	0.09428
3018.37749	0.09442
3016.44881	0.09453
3014.52014	0.09465
3012.59146	0.09476
3010.66279	0.09490
3008.73411	0.09507
3006.80544	0.09520
3004.87676	0.09531
3002.94808	0.09544
3001.01941	0.09557
2999.09073	0.09572
2997.16206	0.09591
2995.23338	0.09611
2993.30471	0.09629
2991.37603	0.09642
2989.44735	0.09652
2987.51868	0.09657
2985.59000	0.09661
2983.66133	0.09671
2981.73265	0.09680
2979.80398	0.09684
2977.87530	0.09686
2975.94662	0.09691
2974.01795	0.09696
2972.08927	0.09701
2970.16060	0.09703
2968.23192	0.09701
2966.30325	0.09699
2964.37457	0.09703
2962.44589	0.09710
2960.51722	0.09717
2958.58854	0.09728
2956.65987	0.09746
2954.73119	0.09769
2952.80252	0.09791
2950.87384	0.09810
2948.94516	0.09828
2947.01649	0.09843
2945.08781	0.09852
2943.15914	0.09856
2941.23046	0.09860
2939.30179	0.09863
2937.37311	0.09863
2935.44443	0.09859
2933.51576	0.09856
2931.58708	0.09854
2929.65841	0.09849
2927.72973	0.09842
2925.80106	0.09841
2923.87238	0.09846
2921.94370	0.09854
2920.01503	0.09863
2918.08635	0.09877
2916.15768	0.09907
2914.22900	0.09956
2912.30033	0.10008
2910.37165	0.10052
2908.44297	0.10086
2906.51430	0.10110
2904.58562	0.10131
2902.65695	0.10157
2900.72827	0.10185
2898.79960	0.10206
2896.87092	0.10223
2894.94224	0.10241
2893.01357	0.10260
2891.08489	0.10281
2889.15622	0.10307
2887.22754	0.10329
2885.29887	0.10343
2883.37019	0.10358
2881.44151	0.10376
2879.51284	0.10392
2877.58416	0.10408
2875.65549	0.10421
2873.72681	0.10432
2871.79814	0.10448
2869.86946	0.10465
2867.94078	0.10479
2866.01211	0.10488
2864.08343	0.10494
2862.15476	0.10496
2860.22608	0.10497
2858.29741	0.10500
2856.36873	0.10500
2854.44005	0.10496
2852.51138	0.10495
2850.58270	0.10509
2848.65403	0.10539
2846.72535	0.10581
2844.79668	0.10629
2842.86800	0.10669
2840.93932	0.10700
2839.01065	0.10731
2837.08197	0.10763
2835.15330	0.10789
2833.22462	0.10812
2831.29595	0.10837
2829.36727	0.10862
2827.43859	0.10878
2825.50992	0.10890
2823.58124	0.10908
2821.65257	0.10925
2819.72389	0.10937
2817.79522	0.10947
2815.86654	0.10962
2813.93786	0.10977
2812.00919	0.10992
2810.08051	0.11010
2808.15184	0.11029
2806.22316	0.11045
2804.29449	0.11059
2802.36581	0.11075
2800.43713	0.11092
2798.50846	0.11107
2796.57978	0.11121
2794.65111	0.11141
2792.72243	0.11162
2790.79376	0.11178
2788.86508	0.11193
2786.93640	0.11209
2785.00773	0.11223
2783.07905	0.11240
2781.15038	0.11260
2779.22170	0.11274
2777.29303	0.11282
2775.36435	0.11293
2773.43567	0.11309
2771.50700	0.11327
2769.57832	0.11348
2767.64965	0.11364
2765.72097	0.11374
2763.79230	0.11385
2761.86362	0.11399
2759.93494	0.11413
2758.00627	0.11428
2756.07759	0.11445
2754.14892	0.11461
2752.22024	0.11478
2750.29157	0.11500
2748.36289	0.11519
2746.43421	0.11533
2744.50554	0.11545
2742.57686	0.11559
2740.64819	0.11577
2738.71951	0.11597
2736.79084	0.11612
2734.86216	0.11623
2732.93348	0.11636
2731.00481	0.11650
2729.07613	0.11661
2727.14746	0.11674
2725.21878	0.11690
2723.29011	0.11707
2721.36143	0.11725
2719.43275	0.11742
2717.50408	0.11756
2715.57540	0.11768
2713.64673	0.11783
2711.71805	0.11799
2709.78938	0.11813
2707.86070	0.11824
2705.93202	0.11836
2704.00335	0.11849
2702.07467	0.11861
2700.14600	0.11876
2698.21732	0.11896
2696.28865	0.11919
2694.35997	0.11938
2692.43129	0.11952
2690.50262	0.11958
2688.57394	0.11965
2686.64527	0.11980
2684.71659	0.11997
2682.78792	0.12014
2680.85924	0.12031
2678.93056	0.12047
2677.00189	0.12062
2675.07321	0.12078
2673.14454	0.12096
2671.21586	0.12114
2669.28719	0.12130
2667.35851	0.12148
2665.42983	0.12168
2663.50116	0.12185
2661.57248	0.12195
2659.64381	0.12203
2657.71513	0.12213
2655.78646	0.12226
2653.85778	0.12244
2651.92910	0.12263
2650.00043	0.12279
2648.07175	0.12293
2646.14308	0.12306
2644.21440	0.12321
2642.28573	0.12341
2640.35705	0.12362
2638.42837	0.12379
2636.49970	0.12393
2634.57102	0.12406
2632.64235	0.12423
2630.71367	0.12442
2628.78500	0.12459
2626.85632	0.12474
2624.92764	0.12487
2622.99897	0.12499
2621.07029	0.12516
2619.14162	0.12540
2617.21294	0.12562
2615.28427	0.12580
2613.35559	0.12596
2611.42691	0.12610
2609.49824	0.12623
2607.56956	0.12638
2605.64089	0.12653
2603.71221	0.12667
2601.78354	0.12682
2599.85486	0.12698
2597.92618	0.12713
2595.99751	0.12725
2594.06883	0.12738
2592.14016	0.12754
2590.21148	0.12773
2588.28281	0.12791
2586.35413	0.12808
2584.42545	0.12825
2582.49678	0.12841
2580.56810	0.12859
2578.63943	0.12874
2576.71075	0.12887
2574.78208	0.12905
2572.85340	0.12925
2570.92472	0.12942
2568.99605	0.12956
2567.06737	0.12968
2565.13870	0.12982
2563.21002	0.13000
2561.28135	0.13019
2559.35267	0.13036
2557.42399	0.13050
2555.49532	0.13061
2553.56664	0.13075
2551.63797	0.13091
2549.70929	0.13105
2547.78062	0.13116
2545.85194	0.13129
2543.92326	0.13152
2541.99459	0.13176
2540.06591	0.13192
2538.13724	0.13204
2536.20856	0.13221
2534.27989	0.13242
2532.35121	0.13261
2530.42253	0.13276
2528.49386	0.13285
2526.56518	0.13291
2524.63651	0.13300
2522.70783	0.13313
2520.77916	0.13333
2518.85048	0.13358
2516.92181	0.13383
2514.99313	0.13399
2513.06445	0.13413
2511.13578	0.13430
2509.20710	0.13446
2507.27843	0.13458
2505.34975	0.13473
2503.42108	0.13494
2501.49240	0.13513
2499.56372	0.13531
2497.63505	0.13546
2495.70637	0.13559
2493.77770	0.13573
2491.84902	0.13593
2489.92035	0.13612
2487.99167	0.13629
2486.06299	0.13645
2484.13432	0.13662
2482.20564	0.13683
2480.27697	0.13704
2478.34829	0.13721
2476.41962	0.13738
2474.49094	0.13758
2472.56226	0.13777
2470.63359	0.13791
2468.70491	0.13804
2466.77624	0.13821
2464.84756	0.13841
2462.91889	0.13860
2460.99021	0.13880
2459.06153	0.13900
2457.13286	0.13913
2455.20418	0.13922
2453.27551	0.13937
2451.34683	0.13955
2449.41816	0.13969
2447.48948	0.13978
2445.56080	0.13990
2443.63213	0.14008
2441.70345	0.14028
2439.77478	0.14048
2437.84610	0.14070
2435.91743	0.14092
2433.98875	0.14109
2432.06007	0.14119
2430.13140	0.14126
2428.20272	0.14143
2426.27405	0.14169
2424.34537	0.14190
2422.41670	0.14207
2420.48802	0.14226
2418.55934	0.14245
2416.63067	0.14259
2414.70199	0.14271
2412.77332	0.14286
2410.84464	0.14299
2408.91597	0.14311
2406.98729	0.14324
2405.05861	0.14343
2403.12994	0.14368
2401.20126	0.14390
2399.27259	0.14407
2397.34391	0.14422
2395.41524	0.14439
2393.48656	0.14456
2391.55788	0.14471
2389.62921	0.14485
2387.70053	0.14501
2385.77186	0.14517
2383.84318	0.14528
2381.91451	0.14537
2379.98583	0.14545
2378.05715	0.14554
2376.12848	0.14561
2374.19980	0.14561
2372.27113	0.14558
2370.34245	0.14561
2368.41378	0.14569
2366.48510	0.14578
2364.55642	0.14586
2362.62775	0.14598
2360.69907	0.14615
2358.77040	0.14636
2356.84172	0.14657
2354.91305	0.14685
2352.98437	0.14721
2351.05569	0.14758
2349.12702	0.14780
2347.19834	0.14782
2345.26967	0.14780
2343.34099	0.14787
2341.41232	0.14805
2339.48364	0.14824
2337.55496	0.14837
2335.62629	0.14849
2333.69761	0.14869
2331.76894	0.14894
2329.84026	0.14916
2327.91159	0.14934
2325.98291	0.14953
2324.05423	0.14974
2322.12556	0.14994
2320.19688	0.15013
2318.26821	0.15033
2316.33953	0.15055
2314.41086	0.15079
2312.48218	0.15104
2310.55350	0.15129
2308.62483	0.15150
2306.69615	0.15167
2304.76748	0.15184
2302.83880	0.15203
2300.91013	0.15223
2298.98145	0.15241
2297.05277	0.15254
2295.12410	0.15270
2293.19542	0.15292
2291.26675	0.15315
2289.33807	0.15336
2287.40940	0.15352
2285.48072	0.15364
2283.55204	0.15380
2281.62337	0.15400
2279.69469	0.15421
2277.76602	0.15436
2275.83734	0.15445
2273.90867	0.15455
2271.97999	0.15473
2270.05131	0.15497
2268.12264	0.15521
2266.19396	0.15540
2264.26529	0.15557
2262.33661	0.15574
2260.40794	0.15593
2258.47926	0.15609
2256.55058	0.15624
2254.62191	0.15640
2252.69323	0.15652
2250.76456	0.15662
2248.83588	0.15677
2246.90721	0.15698
2244.97853	0.15720
2243.04985	0.15738
2241.12118	0.15754
2239.19250	0.15773
2237.26383	0.15788
2235.33515	0.15798
2233.40648	0.15810
2231.47780	0.15830
2229.54912	0.15850
2227.62045	0.15863
2225.69177	0.15874
2223.76310	0.15891
2221.83442	0.15911
2219.90575	0.15924
2217.97707	0.15936
2216.04839	0.15956
2214.11972	0.15979
2212.19104	0.15995
2210.26237	0.16006
2208.33369	0.16022
2206.40502	0.16042
2204.47634	0.16059
2202.54766	0.16071
2200.61899	0.16082
2198.69031	0.16093
2196.76164	0.16109
2194.83296	0.16130
2192.90429	0.16149
2190.97561	0.16168
2189.04693	0.16187
2187.11826	0.16204
2185.18958	0.16222
2183.26091	0.16241
2181.33223	0.16257
2179.40356	0.16269
2177.47488	0.16281
2175.54620	0.16296
2173.61753	0.16316
2171.68885	0.16336
2169.76018	0.16354
2167.83150	0.16370
2165.90283	0.16384
2163.97415	0.16396
2162.04547	0.16415
2160.11680	0.16440
2158.18812	0.16465
2156.25945	0.16486
2154.33077	0.16504
2152.40210	0.16519
2150.47342	0.16529
2148.54474	0.16534
2146.61607	0.16539
2144.68739	0.16554
2142.75872	0.16580
2140.83004	0.16604
2138.90137	0.16621
2136.97269	0.16636
2135.04401	0.16652
2133.11534	0.16674
2131.18666	0.16695
2129.25799	0.16710
2127.32931	0.16721
2125.40064	0.16735
2123.47196	0.16749
2121.54328	0.16765
2119.61461	0.16788
2117.68593	0.16811
2115.75726	0.16826
2113.82858	0.16836
2111.89991	0.16851
2109.97123	0.16869
2108.04255	0.16891
2106.11388	0.16912
2104.18520	0.16924
2102.25653	0.16935
2100.32785	0.16953
2098.39918	0.16977
2096.47050	0.17003
2094.54182	0.17024
2092.61315	0.17037
2090.68447	0.17044
2088.75580	0.17055
2086.82712	0.17070
2084.89845	0.17088
2082.96977	0.17103
2081.04109	0.17116
2079.11242	0.17130
2077.18374	0.17150
2075.25507	0.17172
2073.32639	0.17191
2071.39772	0.17208
2069.46904	0.17226
2067.54036	0.17246
2065.61169	0.17261
2063.68301	0.17273
2061.75434	0.17286
2059.82566	0.17303
2057.89699	0.17323
2055.96831	0.17343
2054.03963	0.17361
2052.11096	0.17373
2050.18228	0.17381
2048.25361	0.17396
2046.32493	0.17416
2044.39626	0.17436
2042.46758	0.17453
2040.53890	0.17470
2038.61023	0.17487
2036.68155	0.17507
2034.75288	0.17532
2032.82420	0.17553
2030.89553	0.17569
2028.96685	0.17581
2027.03817	0.17593
2025.10950	0.17611
2023.18082	0.17637
2021.25215	0.17657
2019.32347	0.17668
2017.39480	0.17679
2015.46612	0.17698
2013.53744	0.17717
2011.60877	0.17734
2009.68009	0.17755
2007.75142	0.17778
2005.82274	0.17796
2003.89407	0.17812
2001.96539	0.17827
2000.03671	0.17841
1998.10804	0.17856
1996.17936	0.17868
1994.25069	0.17872
1992.32201	0.17876
1990.39334	0.17895
1988.46466	0.17927
1986.53598	0.17951
1984.60731	0.17962
1982.67863	0.17968
1980.74996	0.17979
1978.82128	0.17994
1976.89261	0.18006
1974.96393	0.18018
1973.03525	0.18028
1971.10658	0.18040
1969.17790	0.18055
1967.24923	0.18071
1965.32055	0.18088
1963.39188	0.18106
1961.46320	0.18126
1959.53452	0.18148
1957.60585	0.18170
1955.67717	0.18187
1953.74850	0.18200
1951.81982	0.18214
1949.89115	0.18229
1947.96247	0.18246
1946.03379	0.18263
1944.10512	0.18272
1942.17644	0.18280
1940.24777	0.18305
1938.31909	0.18338
1936.39042	0.18357
1934.46174	0.18365
1932.53306	0.18375
1930.60439	0.18390
1928.67571	0.18410
1926.74704	0.18427
1924.81836	0.18432
1922.88969	0.18437
1920.96101	0.18448
1919.03233	0.18459
1917.10366	0.18481
1915.17498	0.18519
1913.24631	0.18548
1911.31763	0.18562
1909.38896	0.18571
1907.46028	0.18583
1905.53160	0.18602
1903.60293	0.18622
1901.67425	0.18640
1899.74558	0.18656
1897.81690	0.18665
1895.88823	0.18673
1893.95955	0.18688
1892.03087	0.18705
1890.10220	0.18718
1888.17352	0.18736
1886.24485	0.18756
1884.31617	0.18771
1882.38750	0.18785
1880.45882	0.18805
1878.53014	0.18825
1876.60147	0.18841
1874.67279	0.18857
1872.74412	0.18861
1870.81544	0.18843
1868.88677	0.18837
1866.95809	0.18879
1865.02941	0.18934
1863.10074	0.18965
1861.17206	0.18979
1859.24339	0.18990
1857.31471	0.19004
1855.38604	0.19021
1853.45736	0.19040
1851.52868	0.19056
1849.60001	0.19065
1847.67133	0.19070
1845.74266	0.19073
1843.81398	0.19086
1841.88531	0.19119
1839.95663	0.19153
1838.02795	0.19177
1836.09928	0.19201
1834.17060	0.19220
1832.24193	0.19224
1830.31325	0.19225
1828.38458	0.19239
1826.45590	0.19258
1824.52722	0.19279
1822.59855	0.19305
1820.66987	0.19330
1818.74120	0.19352
1816.81252	0.19369
1814.88385	0.19380
1812.95517	0.19384
1811.02649	0.19385
1809.09782	0.19394
1807.16914	0.19415
1805.24047	0.19436
1803.31179	0.19441
1801.38312	0.19441
1799.45444	0.19452
1797.52576	0.19467
1795.59709	0.19463
1793.66841	0.19448
1791.73974	0.19463
1789.81106	0.19511
1787.88239	0.19541
1785.95371	0.19539
1784.02503	0.19542
1782.09636	0.19558
1780.16768	0.19575
1778.23901	0.19599
1776.31033	0.19621
1774.38166	0.19624
1772.45298	0.19618
1770.52430	0.19625
1768.59563	0.19648
1766.66695	0.19675
1764.73828	0.19683
1762.80960	0.19672
1760.88093	0.19676
1758.95225	0.19702
1757.02357	0.19723
1755.09490	0.19722
1753.16622	0.19677
1751.23755	0.19627
1749.30887	0.19631
1747.38020	0.19663
1745.45152	0.19670
1743.52284	0.19659
1741.59417	0.19654
1739.66549	0.19669
1737.73682	0.19688
1735.80814	0.19680
1733.87947	0.19676
1731.95079	0.19712
1730.02211	0.19760
1728.09344	0.19793
1726.16476	0.19815
1724.23609	0.19830
1722.30741	0.19840
1720.37874	0.19826
1718.45006	0.19798
1716.52138	0.19805
1714.59271	0.19842
1712.66403	0.19873
1710.73536	0.19894
1708.80668	0.19909
1706.87801	0.19911
1704.94933	0.19897
1703.02065	0.19851
1701.09198	0.19807
1699.16330	0.19829
1697.23463	0.19889
1695.30595	0.19938
1693.37728	0.19973
1691.44860	0.19976
1689.51992	0.19963
1687.59125	0.19954
1685.66257	0.19934
1683.73390	0.19929
1681.80522	0.19963
1679.87655	0.19997
1677.94787	0.19996
1676.01919	0.19975
1674.09052	0.19970
1672.16184	0.19975
1670.23317	0.19984
1668.30449	0.20012
1666.37582	0.20030
1664.44714	0.20011
1662.51846	0.20004
1660.58979	0.20039
1658.66111	0.20065
1656.73244	0.20038
1654.80376	0.19978
1652.87509	0.19958
1650.94641	0.19991
1649.01773	0.20003
1647.08906	0.20008
1645.16038	0.20055
1643.23171	0.20105
1641.30303	0.20122
1639.37436	0.20108
1637.44568	0.20069
1635.51700	0.20057
1633.58833	0.20104
1631.65965	0.20149
1629.73098	0.20142
1627.80230	0.20117
1625.87363	0.20096
1623.94495	0.20066
1622.01627	0.20040
1620.08760	0.20032
1618.15892	0.20036
1616.23025	0.20085
1614.30157	0.20180
1612.37290	0.20250
1610.44422	0.20280
1608.51554	0.20308
1606.58687	0.20346
1604.65819	0.20381
1602.72952	0.20407
1600.80084	0.20432
1598.87217	0.20454
1596.94349	0.20466
1595.01481	0.20471
1593.08614	0.20483
1591.15746	0.20504
1589.22879	0.20528
1587.30011	0.20550
1585.37144	0.20571
1583.44276	0.20586
1581.51408	0.20598
1579.58541	0.20601
1577.65673	0.20590
1575.72806	0.20596
1573.79938	0.20627
1571.87071	0.20644
1569.94203	0.20641
1568.01335	0.20654
1566.08468	0.20680
1564.15600	0.20684
1562.22733	0.20630
1560.29865	0.20559
1558.36998	0.20576
1556.44130	0.20672
1554.51262	0.20752
1552.58395	0.20792
1550.65527	0.20810
1548.72660	0.20816
1546.79792	0.20800
1544.86925	0.20767
1542.94057	0.20730
1541.01189	0.20710
1539.08322	0.20745
1537.15454	0.20805
1535.22587	0.20815
1533.29719	0.20808
1531.36852	0.20843
1529.43984	0.20873
1527.51116	0.20859
1525.58249	0.20830
1523.65381	0.20790
1521.72514	0.20755
1519.79646	0.20769
1517.86779	0.20814
1515.93911	0.20866
1514.01043	0.20912
1512.08176	0.20915
1510.15308	0.20874
1508.22441	0.20828
1506.29573	0.20834
1504.36706	0.20904
1502.43838	0.20957
1500.50970	0.20947
1498.58103	0.20932
1496.65235	0.20959
1494.72368	0.20990
1492.79500	0.20969
1490.86633	0.20917
1488.93765	0.20896
1487.00897	0.20917
1485.08030	0.20949
1483.15162	0.20963
1481.22295	0.20954
1479.29427	0.20922
1477.36560	0.20867
1475.43692	0.20803
1473.50824	0.20747
1471.57957	0.20724
1469.65089	0.20735
1467.72222	0.20728
1465.79354	0.20687
1463.86487	0.20662
1461.93619	0.20656
1460.00751	0.20601
1458.07884	0.20504
1456.15016	0.20481
1454.22149	0.20551
1452.29281	0.20608
1450.36414	0.20621
1448.43546	0.20632
1446.50678	0.20662
1444.57811	0.20694
1442.64943	0.20708
1440.72076	0.20694
1438.79208	0.20644
1436.86341	0.20612
1434.93473	0.20655
1433.00605	0.20709
1431.07738	0.20720
1429.14870	0.20731
1427.22003	0.20763
1425.29135	0.20781
1423.36268	0.20777
1421.43400	0.20755
1419.50532	0.20734
1417.57665	0.20748
1415.64797	0.20790
1413.71930	0.20816
1411.79062	0.20817
1409.86195	0.20813
1407.93327	0.20807
1406.00459	0.20797
1404.07592	0.20795
1402.14724	0.20793
1400.21857	0.20775
1398.28989	0.20751
1396.36122	0.20730
1394.43254	0.20733
1392.50386	0.20754
1390.57519	0.20741
1388.64651	0.20683
1386.71784	0.20644
1384.78916	0.20649
1382.86049	0.20672
1380.93181	0.20694
1379.00313	0.20701
1377.07446	0.20692
1375.14578	0.20682
1373.21711	0.20687
1371.28843	0.20695
1369.35976	0.20690
1367.43108	0.20681
1365.50240	0.20677
1363.57373	0.20663
1361.64505	0.20651
1359.71638	0.20667
1357.78770	0.20695
1355.85903	0.20710
1353.93035	0.20718
1352.00167	0.20730
1350.07300	0.20737
1348.14432	0.20742
1346.21565	0.20748
1344.28697	0.20747
1342.35830	0.20735
1340.42962	0.20721
1338.50094	0.20713
1336.57227	0.20710
1334.64359	0.20707
1332.71492	0.20704
1330.78624	0.20702
1328.85757	0.20695
1326.92889	0.20675
1325.00021	0.20652
1323.07154	0.20627
1321.14286	0.20596
1319.21419	0.20567
1317.28551	0.20550
1315.35684	0.20541
1313.42816	0.20536
1311.49948	0.20528
1309.57081	0.20508
1307.64213	0.20478
1305.71346	0.20448
1303.78478	0.20421
1301.85611	0.20398
1299.92743	0.20383
1297.99875	0.20372
1296.07008	0.20358
1294.14140	0.20340
1292.21273	0.20318
1290.28405	0.20295
1288.35538	0.20275
1286.42670	0.20256
1284.49802	0.20236
1282.56935	0.20219
1280.64067	0.20198
1278.71200	0.20167
1276.78332	0.20129
1274.85465	0.20085
1272.92597	0.20032
1270.99729	0.19966
1269.06862	0.19886
1267.13994	0.19788
1265.21127	0.19684
1263.28259	0.19610
1261.35392	0.19586
1259.42524	0.19600
1257.49656	0.19626
1255.56789	0.19645
1253.63921	0.19654
1251.71054	0.19645
1249.78186	0.19622
1247.85319	0.19591
1245.92451	0.19549
1243.99583	0.19498
1242.06716	0.19454
1240.13848	0.19419
1238.20981	0.19378
1236.28113	0.19317
1234.35246	0.19244
1232.42378	0.19175
1230.49510	0.19115
1228.56643	0.19054
1226.63775	0.18998
1224.70908	0.18951
1222.78040	0.18905
1220.85173	0.18852
1218.92305	0.18801
1216.99437	0.18751
1215.06570	0.18694
1213.13702	0.18630
1211.20835	0.18573
1209.27967	0.18528
1207.35100	0.18485
1205.42232	0.18431
1203.49364	0.18370
1201.56497	0.18307
1199.63629	0.18238
1197.70762	0.18165
1195.77894	0.18102
1193.85027	0.18046
1191.92159	0.17981
1189.99291	0.17907
1188.06424	0.17828
1186.13556	0.17744
1184.20689	0.17661
1182.27821	0.17580
1180.34954	0.17494
1178.42086	0.17405
1176.49218	0.17319
1174.56351	0.17235
1172.63483	0.17147
1170.70616	0.17055
1168.77748	0.16964
1166.84881	0.16879
1164.92013	0.16795
1162.99145	0.16704
1161.06278	0.16611
1159.13410	0.16526
1157.20543	0.16447
1155.27675	0.16370
1153.34808	0.16292
1151.41940	0.16214
1149.49072	0.16136
1147.56205	0.16059
1145.63337	0.15975
1143.70470	0.15881
1141.77602	0.15782
1139.84735	0.15677
1137.91867	0.15561
1135.98999	0.15430
1134.06132	0.15283
1132.13264	0.15123
1130.20397	0.14946
1128.27529	0.14740
1126.34662	0.14507
1124.41794	0.14262
1122.48926	0.14017
1120.56059	0.13776
1118.63191	0.13542
1116.70324	0.13331
1114.77456	0.13146
1112.84589	0.12980
1110.91721	0.12845
1108.98853	0.12751
1107.05986	0.12689
1105.13118	0.12653
1103.20251	0.12639
1101.27383	0.12652
1099.34516	0.12695
1097.41648	0.12761
1095.48780	0.12842
1093.55913	0.12934
1091.63045	0.13026
1089.70178	0.13108
1087.77310	0.13177
1085.84443	0.13232
1083.91575	0.13276
1081.98707	0.13313
1080.05840	0.13345
1078.12972	0.13374
1076.20105	0.13398
1074.27237	0.13415
1072.34370	0.13422
1070.41502	0.13423
1068.48634	0.13430
1066.55767	0.13449
1064.62899	0.13472
1062.70032	0.13492
1060.77164	0.13513
1058.84297	0.13542
1056.91429	0.13575
1054.98561	0.13604
1053.05694	0.13628
1051.12826	0.13654
1049.19959	0.13684
1047.27091	0.13722
1045.34224	0.13770
1043.41356	0.13817
1041.48488	0.13855
1039.55621	0.13895
1037.62753	0.13942
1035.69886	0.13986
1033.77018	0.14024
1031.84151	0.14061
1029.91283	0.14091
1027.98415	0.14117
1026.05548	0.14151
1024.12680	0.14191
1022.19813	0.14223
1020.26945	0.14258
1018.34078	0.14318
1016.41210	0.14388
1014.48342	0.14449
1012.55475	0.14504
1010.62607	0.14567
1008.69740	0.14636
1006.76872	0.14695
1004.84005	0.14740
1002.91137	0.14779
1000.98269	0.14817
999.05402	0.14843
997.12534	0.14858
995.19667	0.14872
993.26799	0.14895
991.33932	0.14917
989.41064	0.14923
987.48196	0.14919
985.55329	0.14919
983.62461	0.14926
981.69594	0.14934
979.76726	0.14930
977.83859	0.14908
975.90991	0.14880
973.98123	0.14857
972.05256	0.14838
970.12388	0.14824
968.19521	0.14815
966.26653	0.14805
964.33786	0.14787
962.40918	0.14764
960.48050	0.14736
958.55183	0.14714
956.62315	0.14705
954.69448	0.14689
952.76580	0.14659
950.83713	0.14635
948.90845	0.14621
946.97977	0.14601
945.05110	0.14567
943.12242	0.14532
941.19375	0.14505
939.26507	0.14478
937.33640	0.14436
935.40772	0.14378
933.47904	0.14322
931.55037	0.14269
929.62169	0.14211
927.69302	0.14154
925.76434	0.14100
923.83567	0.14041
921.90699	0.13977
919.97831	0.13909
918.04964	0.13832
916.12096	0.13756
914.19229	0.13691
912.26361	0.13625
910.33494	0.13548
908.40626	0.13473
906.47758	0.13403
904.54891	0.13337
902.62023	0.13273
900.69156	0.13213
898.76288	0.13168
896.83421	0.13128
894.90553	0.13080
892.97685	0.13027
891.04818	0.12977
889.11950	0.12928
887.19083	0.12881
885.26215	0.12841
883.33348	0.12804
881.40480	0.12761
879.47612	0.12718
877.54745	0.12686
875.61877	0.12672
873.69010	0.12662
871.76142	0.12641
869.83275	0.12613
867.90407	0.12580
865.97539	0.12545
864.04672	0.12514
862.11804	0.12499
860.18937	0.12499
858.26069	0.12498
856.33202	0.12485
854.40334	0.12469
852.47466	0.12449
850.54599	0.12423
848.61731	0.12394
846.68864	0.12368
844.75996	0.12344
842.83129	0.12319
840.90261	0.12284
838.97394	0.12238
837.04526	0.12188
835.11658	0.12135
833.18791	0.12063
831.25923	0.11966
829.33056	0.11858
827.40188	0.11754
825.47321	0.11655
823.54453	0.11569
821.61585	0.11494
819.68718	0.11427
817.75850	0.11369
815.82983	0.11320
813.90115	0.11283
811.97248	0.11256
810.04380	0.11232
808.11512	0.11212
806.18645	0.11200
804.25777	0.11195
802.32910	0.11190
800.40042	0.11172
798.47175	0.11132
796.54307	0.11070
794.61439	0.11007
792.68572	0.10964
790.75704	0.10938
788.82837	0.10914
786.89969	0.10893
784.97102	0.10871
783.04234	0.10839
781.11366	0.10807
779.18499	0.10782
777.25631	0.10756
775.32764	0.10724
773.39896	0.10688
771.47029	0.10649
769.54161	0.10614
767.61293	0.10584
765.68426	0.10547
763.75558	0.10501
761.82691	0.10463
759.89823	0.10419
757.96956	0.10358
756.04088	0.10297
754.11220	0.10243
752.18353	0.10183
750.25485	0.10109
748.32618	0.10029
746.39750	0.09951
744.46883	0.09869
742.54015	0.09773
740.61147	0.09677
738.68280	0.09620
736.75412	0.09606
734.82545	0.09612
732.89677	0.09614
730.96810	0.09614
729.03942	0.09621
727.11074	0.09629
725.18207	0.09634
723.25339	0.09649
721.32472	0.09670
719.39604	0.09685
717.46737	0.09700
715.53869	0.09735
713.61001	0.09784
711.68134	0.09828
709.75266	0.09867
707.82399	0.09895
705.89531	0.09888
703.96664	0.09849
702.03796	0.09814
700.10928	0.09784
698.18061	0.09738
696.25193	0.09674
694.32326	0.09603
692.39458	0.09534
690.46591	0.09475
688.53723	0.09436
686.60855	0.09407
684.67988	0.09365
682.75120	0.09307
680.82253	0.09248
678.89385	0.09192
676.96518	0.09129
675.03650	0.09051
673.10782	0.08962
671.17915	0.08871
669.25047	0.08780
667.32180	0.08702
665.39312	0.08638
663.46445	0.08563
661.53577	0.08469
659.60709	0.08373
657.67842	0.08295
655.74974	0.08230
653.82107	0.08157
651.89239	0.08072
649.96372	0.07978
648.03504	0.07884
646.10636	0.07799
644.17769	0.07716
642.24901	0.07620
640.32034	0.07517
638.39166	0.07415
636.46299	0.07308
634.53431	0.07180
632.60563	0.07011
630.67696	0.06769
628.74828	0.06411
626.81961	0.05954
624.89093	0.05502
622.96226	0.05149
621.03358	0.04931
619.10490	0.04811
617.17623	0.04723
615.24755	0.04632
613.31888	0.04516
611.39020	0.04397
609.46153	0.04347
607.53285	0.04368
605.60417	0.04405
603.67550	0.04456
601.74682	0.04549
599.81815	0.04667
597.88947	0.04767
595.96080	0.04833
594.03212	0.04865
592.10344	0.04877
590.17477	0.04888
588.24609	0.04888
586.31742	0.04872
584.38874	0.04851
582.46007	0.04812
580.53139	0.04755
578.60271	0.04708
576.67404	0.04671
574.74536	0.04620
572.81669	0.04550
570.88801	0.04473
568.95934	0.04401
567.03066	0.04352
565.10198	0.04329
563.17331	0.04310
561.24463	0.04287
559.31596	0.04262
557.38728	0.04237
555.45861	0.04211
553.52993	0.04185
551.60125	0.04160
549.67258	0.04147
547.74390	0.04140
545.81523	0.04121
543.88655	0.04085
541.95788	0.04051
540.02920	0.04034
538.10052	0.04028
536.17185	0.04022
534.24317	0.04008
532.31450	0.03983
530.38582	0.03954
528.45715	0.03923
526.52847	0.03886
524.59979	0.03852
522.67112	0.03821
520.74244	0.03777
518.81377	0.03720
516.88509	0.03659
514.95642	0.03587
513.02774	0.03526
511.09906	0.03508
509.17039	0.03511
507.24171	0.03501
505.31304	0.03465
503.38436	0.03402
501.45569	0.03335
499.52701	0.03277
497.59833	0.03222
495.66966	0.03167
493.74098	0.03119
491.81231	0.03069
489.88363	0.03019
487.95496	0.02973
486.02628	0.02922
484.09760	0.02869
482.16893	0.02821
480.24025	0.02765
478.31158	0.02696
476.38290	0.02639
474.45423	0.02599
472.52555	0.02554
470.59687	0.02495
468.66820	0.02427
466.73952	0.02377
464.81085	0.02370
462.88217	0.02380
460.95350	0.02379
459.02482	0.02363
457.09614	0.02345
455.16747	0.02337
453.23879	0.02340
451.31012	0.02342
449.38144	0.02330
447.45277	0.02306
445.52409	0.02285
443.59541	0.02272
441.66674	0.02258
439.73806	0.02233
437.80939	0.02195
435.88071	0.02145
433.95204	0.02086
432.02336	0.02026
430.09468	0.01963
428.16601	0.01893
426.23733	0.01814
424.30866	0.01727
422.37998	0.01650
420.45131	0.01603
418.52263	0.01568
416.59395	0.01520
414.66528	0.01463
412.73660	0.01402
410.80793	0.01329
408.87925	0.01251
406.95058	0.01180
405.02190	0.01117
403.09322	0.01054
401.16455	0.00989
399.23587	0.00924
397.30720	0.00859
395.37852	0.00795
393.44985	0.00745
391.52117	0.00715
389.59249	0.00685
387.66382	0.00644
385.73514	0.00604
383.80647	0.00570
381.87779	0.00523
379.94912	0.00459
378.02044	0.00406
376.09176	0.00375
374.16309	0.00346
372.23441	0.00318
370.30574	0.00298
368.37706	0.00278
