7496.76250	0.00113
7494.83382	0.00114
7492.90514	0.00115
7490.97647	0.00115
7489.04779	0.00114
7487.11912	0.00111
7485.19044	0.00110
7483.26177	0.00111
7481.33309	0.00114
7479.40441	0.00116
7477.47574	0.00115
7475.54706	0.00112
7473.61839	0.00114
7471.68971	0.00118
7469.76104	0.00119
7467.83236	0.00118
7465.90368	0.00116
7463.97501	0.00115
7462.04633	0.00116
7460.11766	0.00118
7458.18898	0.00119
7456.26031	0.00118
7454.33163	0.00118
7452.40295	0.00120
7450.47428	0.00123
7448.54560	0.00123
7446.61693	0.00122
7444.68825	0.00123
7442.75958	0.00123
7440.83090	0.00123
7438.90222	0.00125
7436.97355	0.00125
7435.04487	0.00124
7433.11620	0.00123
7431.18752	0.00121
7429.25885	0.00120
7427.33017	0.00122
7425.40149	0.00124
7423.47282	0.00125
7421.54414	0.00124
7419.61547	0.00123
7417.68679	0.00123
7415.75812	0.00123
7413.82944	0.00125
7411.90076	0.00126
7409.97209	0.00127
7408.04341	0.00128
7406.11474	0.00130
7404.18606	0.00131
7402.25739	0.00130
7400.32871	0.00129
7398.40003	0.00128
7396.47136	0.00129
7394.54268	0.00130
7392.61401	0.00131
7390.68533	0.00130
7388.75666	0.00130
7386.82798	0.00128
7384.89930	0.00129
7382.97063	0.00131
7381.04195	0.00133
7379.11328	0.00133
7377.18460	0.00131
7375.25593	0.00132
7373.32725	0.00135
7371.39857	0.00137
7369.46990	0.00137
7367.54122	0.00135
7365.61255	0.00133
7363.68387	0.00132
7361.75520	0.00133
7359.82652	0.00133
7357.89784	0.00133
7355.96917	0.00133
7354.04049	0.00135
7352.11182	0.00136
7350.18314	0.00137
7348.25447	0.00137
7346.32579	0.00138
7344.39711	0.00139
7342.46844	0.00138
7340.53976	0.00137
7338.61109	0.00138
7336.68241	0.00141
7334.75374	0.00144
7332.82506	0.00144
7330.89638	0.00144
7328.96771	0.00143
7327.03903	0.00142
7325.11036	0.00142
7323.18168	0.00141
7321.25301	0.00140
7319.32433	0.00141
7317.39565	0.00144
7315.46698	0.00147
7313.53830	0.00149
7311.60963	0.00148
7309.68095	0.00147
7307.75228	0.00148
7305.82360	0.00149
7303.89492	0.00149
7301.96625	0.00148
7300.03757	0.00146
7298.10890	0.00144
7296.18022	0.00142
7294.25155	0.00143
7292.32287	0.00146
7290.39419	0.00149
7288.46552	0.00151
7286.53684	0.00151
7284.60817	0.00151
7282.67949	0.00151
7280.75082	0.00151
7278.82214	0.00151
7276.89346	0.00150
7274.96479	0.00149
7273.03611	0.00150
7271.10744	0.00151
7269.17876	0.00152
7267.25009	0.00151
7265.32141	0.00152
7263.39273	0.00153
7261.46406	0.00154
7259.53538	0.00153
7257.60671	0.00154
7255.67803	0.00155
7253.74936	0.00156
7251.82068	0.00156
7249.89200	0.00155
7247.96333	0.00155
7246.03465	0.00156
7244.10598	0.00156
7242.17730	0.00157
7240.24863	0.00158
7238.31995	0.00158
7236.39127	0.00157
7234.46260	0.00156
7232.53392	0.00156
7230.60525	0.00157
7228.67657	0.00156
7226.74790	0.00155
7224.81922	0.00157
7222.89054	0.00160
7220.96187	0.00162
7219.03319	0.00163
7217.10452	0.00164
7215.17584	0.00164
7213.24717	0.00165
7211.31849	0.00164
7209.38981	0.00163
7207.46114	0.00161
7205.53246	0.00159
7203.60379	0.00160
7201.67511	0.00163
7199.74644	0.00167
7197.81776	0.00168
7195.88908	0.00165
7193.96041	0.00164
7192.03173	0.00165
7190.10306	0.00167
7188.17438	0.00164
7186.24571	0.00162
7184.31703	0.00161
7182.38835	0.00163
7180.45968	0.00166
7178.53100	0.00168
7176.60233	0.00168
7174.67365	0.00169
7172.74498	0.00170
7170.81630	0.00171
7168.88762	0.00172
7166.95895	0.00172
7165.03027	0.00173
7163.10160	0.00174
7161.17292	0.00175
7159.24425	0.00175
7157.31557	0.00173
7155.38689	0.00172
7153.45822	0.00173
7151.52954	0.00174
7149.60087	0.00176
7147.67219	0.00177
7145.74352	0.00178
7143.81484	0.00177
7141.88616	0.00176
7139.95749	0.00176
7138.02881	0.00177
7136.10014	0.00178
7134.17146	0.00178
7132.24279	0.00179
7130.31411	0.00181
7128.38543	0.00183
7126.45676	0.00182
7124.52808	0.00181
7122.59941	0.00181
7120.67073	0.00181
7118.74206	0.00179
7116.81338	0.00179
7114.88470	0.00180
7112.95603	0.00180
7111.02735	0.00180
7109.09868	0.00180
7107.17000	0.00180
7105.24133	0.00181
7103.31265	0.00184
7101.38397	0.00186
7099.45530	0.00186
7097.52662	0.00184
7095.59795	0.00184
7093.66927	0.00185
7091.74060	0.00186
7089.81192	0.00187
7087.88324	0.00188
7085.95457	0.00188
7084.02589	0.00187
7082.09722	0.00185
7080.16854	0.00185
7078.23987	0.00190
7076.31119	0.00194
7074.38251	0.00193
7072.45384	0.00190
7070.52516	0.00188
7068.59649	0.00188
7066.66781	0.00188
7064.73914	0.00189
7062.81046	0.00191
7060.88178	0.00193
7058.95311	0.00194
7057.02443	0.00194
7055.09576	0.00193
7053.16708	0.00192
7051.23841	0.00191
7049.30973	0.00191
7047.38105	0.00194
7045.45238	0.00197
7043.52370	0.00197
7041.59503	0.00195
7039.66635	0.00194
7037.73768	0.00195
7035.80900	0.00196
7033.88032	0.00197
7031.95165	0.00198
7030.02297	0.00200
7028.09430	0.00201
7026.16562	0.00201
7024.23695	0.00202
7022.30827	0.00202
7020.37959	0.00204
7018.45092	0.00206
7016.52224	0.00205
7014.59357	0.00203
7012.66489	0.00201
7010.73622	0.00202
7008.80754	0.00204
7006.87886	0.00206
7004.95019	0.00207
7003.02151	0.00208
7001.09284	0.00207
6999.16416	0.00207
6997.23549	0.00209
6995.30681	0.00211
6993.37813	0.00212
6991.44946	0.00210
6989.52078	0.00208
6987.59211	0.00209
6985.66343	0.00208
6983.73476	0.00209
6981.80608	0.00211
6979.87740	0.00214
6977.94873	0.00215
6976.02005	0.00214
6974.09138	0.00212
6972.16270	0.00210
6970.23403	0.00209
6968.30535	0.00212
6966.37667	0.00216
6964.44800	0.00218
6962.51932	0.00216
6960.59065	0.00215
6958.66197	0.00216
6956.73330	0.00216
6954.80462	0.00216
6952.87594	0.00216
6950.94727	0.00216
6949.01859	0.00219
6947.08992	0.00221
6945.16124	0.00220
6943.23257	0.00218
6941.30389	0.00217
6939.37521	0.00217
6937.44654	0.00221
6935.51786	0.00226
6933.58919	0.00229
6931.66051	0.00226
6929.73184	0.00223
6927.80316	0.00222
6925.87448	0.00224
6923.94581	0.00226
6922.01713	0.00225
6920.08846	0.00223
6918.15978	0.00223
6916.23111	0.00225
6914.30243	0.00226
6912.37375	0.00227
6910.44508	0.00230
6908.51640	0.00231
6906.58773	0.00230
6904.65905	0.00230
6902.73038	0.00231
6900.80170	0.00234
6898.87302	0.00235
6896.94435	0.00232
6895.01567	0.00229
6893.08700	0.00228
6891.15832	0.00228
6889.22965	0.00229
6887.30097	0.00230
6885.37229	0.00231
6883.44362	0.00232
6881.51494	0.00235
6879.58627	0.00237
6877.65759	0.00236
6875.72892	0.00235
6873.80024	0.00237
6871.87156	0.00239
6869.94289	0.00239
6868.01421	0.00239
6866.08554	0.00240
6864.15686	0.00241
6862.22819	0.00240
6860.29951	0.00238
6858.37083	0.00240
6856.44216	0.00244
6854.51348	0.00246
6852.58481	0.00246
6850.65613	0.00245
6848.72746	0.00245
6846.79878	0.00244
6844.87010	0.00246
6842.94143	0.00248
6841.01275	0.00249
6839.08408	0.00248
6837.15540	0.00247
6835.22673	0.00248
6833.29805	0.00249
6831.36937	0.00248
6829.44070	0.00247
6827.51202	0.00246
6825.58335	0.00246
6823.65467	0.00249
6821.72600	0.00253
6819.79732	0.00256
6817.86864	0.00256
6815.93997	0.00254
6814.01129	0.00252
6812.08262	0.00250
6810.15394	0.00250
6808.22527	0.00251
6806.29659	0.00252
6804.36791	0.00254
6802.43924	0.00255
6800.51056	0.00255
6798.58189	0.00254
6796.65321	0.00254
6794.72454	0.00255
6792.79586	0.00256
6790.86718	0.00257
6788.93851	0.00258
6787.00983	0.00259
6785.08116	0.00260
6783.15248	0.00264
6781.22381	0.00267
6779.29513	0.00266
6777.36645	0.00263
6775.43778	0.00264
6773.50910	0.00266
6771.58043	0.00268
6769.65175	0.00269
6767.72308	0.00269
6765.79440	0.00268
6763.86572	0.00268
6761.93705	0.00267
6760.00837	0.00267
6758.07970	0.00269
6756.15102	0.00268
6754.22235	0.00268
6752.29367	0.00269
6750.36499	0.00272
6748.43632	0.00275
6746.50764	0.00276
6744.57897	0.00275
6742.65029	0.00274
6740.72162	0.00273
6738.79294	0.00273
6736.86426	0.00274
6734.93559	0.00275
6733.00691	0.00275
6731.07824	0.00276
6729.14956	0.00278
6727.22089	0.00277
6725.29221	0.00276
6723.36353	0.00277
6721.43486	0.00279
6719.50618	0.00281
6717.57751	0.00281
6715.64883	0.00282
6713.72016	0.00284
6711.79148	0.00286
6709.86280	0.00286
6707.93413	0.00284
6706.00545	0.00283
6704.07678	0.00282
6702.14810	0.00281
6700.21943	0.00280
6698.29075	0.00283
6696.36207	0.00287
6694.43340	0.00289
6692.50472	0.00291
6690.57605	0.00294
6688.64737	0.00295
6686.71870	0.00295
6684.79002	0.00292
6682.86134	0.00290
6680.93267	0.00291
6679.00399	0.00292
6677.07532	0.00292
6675.14664	0.00291
6673.21797	0.00292
6671.28929	0.00294
6669.36061	0.00296
6667.43194	0.00297
6665.50326	0.00297
6663.57459	0.00298
6661.64591	0.00300
6659.71724	0.00302
6657.78856	0.00302
6655.85988	0.00301
6653.93121	0.00301
6652.00253	0.00303
6650.07386	0.00307
6648.14518	0.00309
6646.21651	0.00308
6644.28783	0.00306
6642.35915	0.00307
6640.43048	0.00306
6638.50180	0.00305
6636.57313	0.00305
6634.64445	0.00305
6632.71578	0.00306
6630.78710	0.00308
6628.85842	0.00309
6626.92975	0.00309
6625.00107	0.00310
6623.07240	0.00311
6621.14372	0.00311
6619.21505	0.00311
6617.28637	0.00312
6615.35769	0.00313
6613.42902	0.00316
6611.50034	0.00320
6609.57167	0.00321
6607.64299	0.00321
6605.71432	0.00320
6603.78564	0.00319
6601.85696	0.00318
6599.92829	0.00316
6597.99961	0.00316
6596.07094	0.00318
6594.14226	0.00320
6592.21359	0.00321
6590.28491	0.00321
6588.35623	0.00322
6586.42756	0.00324
6584.49888	0.00326
6582.57021	0.00326
6580.64153	0.00326
6578.71286	0.00325
6576.78418	0.00327
6574.85550	0.00330
6572.92683	0.00332
6570.99815	0.00332
6569.06948	0.00332
6567.14080	0.00331
6565.21213	0.00330
6563.28345	0.00330
6561.35477	0.00332
6559.42610	0.00335
6557.49742	0.00336
6555.56875	0.00337
6553.64007	0.00337
6551.71140	0.00339
6549.78272	0.00340
6547.85404	0.00340
6545.92537	0.00339
6543.99669	0.00340
6542.06802	0.00341
6540.13934	0.00343
6538.21067	0.00343
6536.28199	0.00342
6534.35331	0.00342
6532.42464	0.00344
6530.49596	0.00347
6528.56729	0.00349
6526.63861	0.00349
6524.70994	0.00347
6522.78126	0.00347
6520.85258	0.00348
6518.92391	0.00347
6516.99523	0.00346
6515.06656	0.00345
6513.13788	0.00346
6511.20921	0.00349
6509.28053	0.00351
6507.35185	0.00351
6505.42318	0.00350
6503.49450	0.00351
6501.56583	0.00352
6499.63715	0.00353
6497.70848	0.00355
6495.77980	0.00357
6493.85112	0.00358
6491.92245	0.00360
6489.99377	0.00360
6488.06510	0.00361
6486.13642	0.00363
6484.20775	0.00365
6482.27907	0.00366
6480.35039	0.00366
6478.42172	0.00367
6476.49304	0.00368
6474.56437	0.00369
6472.63569	0.00369
6470.70702	0.00371
6468.77834	0.00372
6466.84966	0.00374
6464.92099	0.00374
6462.99231	0.00374
6461.06364	0.00374
6459.13496	0.00375
6457.20629	0.00376
6455.27761	0.00376
6453.34893	0.00373
6451.42026	0.00371
6449.49158	0.00372
6447.56291	0.00374
6445.63423	0.00377
6443.70556	0.00378
6441.77688	0.00379
6439.84820	0.00381
6437.91953	0.00382
6435.99085	0.00382
6434.06218	0.00382
6432.13350	0.00383
6430.20483	0.00383
6428.27615	0.00384
6426.34747	0.00384
6424.41880	0.00385
6422.49012	0.00387
6420.56145	0.00389
6418.63277	0.00392
6416.70410	0.00393
6414.77542	0.00392
6412.84674	0.00390
6410.91807	0.00390
6408.98939	0.00390
6407.06072	0.00392
6405.13204	0.00394
6403.20337	0.00395
6401.27469	0.00396
6399.34601	0.00394
6397.41734	0.00394
6395.48866	0.00396
6393.55999	0.00399
6391.63131	0.00402
6389.70264	0.00405
6387.77396	0.00406
6385.84528	0.00406
6383.91661	0.00405
6381.98793	0.00406
6380.05926	0.00407
6378.13058	0.00409
6376.20191	0.00411
6374.27323	0.00413
6372.34455	0.00414
6370.41588	0.00413
6368.48720	0.00413
6366.55853	0.00411
6364.62985	0.00413
6362.70118	0.00416
6360.77250	0.00419
6358.84382	0.00420
6356.91515	0.00422
6354.98647	0.00423
6353.05780	0.00421
6351.12912	0.00419
6349.20045	0.00419
6347.27177	0.00420
6345.34309	0.00422
6343.41442	0.00424
6341.48574	0.00425
6339.55707	0.00426
6337.62839	0.00426
6335.69972	0.00425
6333.77104	0.00425
6331.84236	0.00426
6329.91369	0.00429
6327.98501	0.00431
6326.05634	0.00431
6324.12766	0.00430
6322.19899	0.00432
6320.27031	0.00434
6318.34163	0.00437
6316.41296	0.00440
6314.48428	0.00443
6312.55561	0.00443
6310.62693	0.00441
6308.69826	0.00439
6306.76958	0.00441
6304.84090	0.00444
6302.91223	0.00445
6300.98355	0.00443
6299.05488	0.00442
6297.12620	0.00441
6295.19753	0.00441
6293.26885	0.00443
6291.34017	0.00446
6289.41150	0.00446
6287.48282	0.00447
6285.55415	0.00449
6283.62547	0.00451
6281.69680	0.00451
6279.76812	0.00450
6277.83944	0.00452
6275.91077	0.00455
6273.98209	0.00457
6272.05342	0.00458
6270.12474	0.00457
6268.19607	0.00456
6266.26739	0.00456
6264.33871	0.00459
6262.41004	0.00463
6260.48136	0.00464
6258.55269	0.00465
6256.62401	0.00466
6254.69534	0.00467
6252.76666	0.00467
6250.83798	0.00467
6248.90931	0.00468
6246.98063	0.00468
6245.05196	0.00468
6243.12328	0.00468
6241.19461	0.00468
6239.26593	0.00470
6237.33725	0.00475
6235.40858	0.00479
6233.47990	0.00481
6231.55123	0.00482
6229.62255	0.00481
6227.69388	0.00482
6225.76520	0.00484
6223.83652	0.00485
6221.90785	0.00484
6219.97917	0.00483
6218.05050	0.00484
6216.12182	0.00487
6214.19315	0.00490
6212.26447	0.00490
6210.33579	0.00490
6208.40712	0.00491
6206.47844	0.00493
6204.54977	0.00494
6202.62109	0.00495
6200.69242	0.00495
6198.76374	0.00494
6196.83506	0.00495
6194.90639	0.00497
6192.97771	0.00498
6191.04904	0.00497
6189.12036	0.00498
6187.19169	0.00499
6185.26301	0.00502
6183.33433	0.00504
6181.40566	0.00505
6179.47698	0.00504
6177.54831	0.00506
6175.61963	0.00509
6173.69096	0.00510
6171.76228	0.00510
6169.83360	0.00510
6167.90493	0.00512
6165.97625	0.00516
6164.04758	0.00519
6162.11890	0.00520
6160.19023	0.00521
6158.26155	0.00523
6156.33287	0.00525
6154.40420	0.00525
6152.47552	0.00523
6150.54685	0.00522
6148.61817	0.00523
6146.68950	0.00524
6144.76082	0.00526
6142.83214	0.00529
6140.90347	0.00531
6138.97479	0.00531
6137.04612	0.00532
6135.11744	0.00533
6133.18877	0.00534
6131.26009	0.00535
6129.33141	0.00538
6127.40274	0.00541
6125.47406	0.00540
6123.54539	0.00540
6121.61671	0.00541
6119.68804	0.00542
6117.75936	0.00542
6115.83068	0.00543
6113.90201	0.00546
6111.97333	0.00550
6110.04466	0.00551
6108.11598	0.00550
6106.18731	0.00548
6104.25863	0.00548
6102.32995	0.00549
6100.40128	0.00551
6098.47260	0.00555
6096.54393	0.00559
6094.61525	0.00560
6092.68658	0.00558
6090.75790	0.00556
6088.82922	0.00556
6086.90055	0.00560
6084.97187	0.00564
6083.04320	0.00564
6081.11452	0.00563
6079.18585	0.00564
6077.25717	0.00565
6075.32849	0.00566
6073.39982	0.00567
6071.47114	0.00569
6069.54247	0.00571
6067.61379	0.00572
6065.68512	0.00574
6063.75644	0.00575
6061.82776	0.00576
6059.89909	0.00577
6057.97041	0.00579
6056.04174	0.00581
6054.11306	0.00584
6052.18439	0.00586
6050.25571	0.00585
6048.32703	0.00584
6046.39836	0.00587
6044.46968	0.00589
6042.54101	0.00591
6040.61233	0.00593
6038.68366	0.00593
6036.75498	0.00593
6034.82630	0.00593
6032.89763	0.00593
6030.96895	0.00594
6029.04028	0.00598
6027.11160	0.00600
6025.18293	0.00601
6023.25425	0.00602
6021.32557	0.00603
6019.39690	0.00603
6017.46822	0.00603
6015.53955	0.00605
6013.61087	0.00608
6011.68220	0.00609
6009.75352	0.00609
6007.82484	0.00609
6005.89617	0.00610
6003.96749	0.00614
6002.03882	0.00616
6000.11014	0.00617
5998.18147	0.00619
5996.25279	0.00621
5994.32411	0.00624
5992.39544	0.00627
5990.46676	0.00627
5988.53809	0.00626
5986.60941	0.00628
5984.68074	0.00631
5982.75206	0.00632
5980.82338	0.00632
5978.89471	0.00630
5976.96603	0.00630
5975.03736	0.00633
5973.10868	0.00636
5971.18001	0.00639
5969.25133	0.00641
5967.32265	0.00641
5965.39398	0.00640
5963.46530	0.00641
5961.53663	0.00643
5959.60795	0.00641
5957.67928	0.00639
5955.75060	0.00642
5953.82192	0.00646
5951.89325	0.00649
5949.96457	0.00652
5948.03590	0.00655
5946.10722	0.00657
5944.17855	0.00659
5942.24987	0.00661
5940.32119	0.00663
5938.39252	0.00661
5936.46384	0.00658
5934.53517	0.00658
5932.60649	0.00660
5930.67782	0.00663
5928.74914	0.00665
5926.82046	0.00667
5924.89179	0.00669
5922.96311	0.00670
5921.03444	0.00670
5919.10576	0.00673
5917.17709	0.00675
5915.24841	0.00677
5913.31973	0.00678
5911.39106	0.00679
5909.46238	0.00680
5907.53371	0.00681
5905.60503	0.00681
5903.67636	0.00681
5901.74768	0.00684
5899.81900	0.00688
5897.89033	0.00691
5895.96165	0.00692
5894.03298	0.00692
5892.10430	0.00692
5890.17563	0.00692
5888.24695	0.00694
5886.31827	0.00696
5884.38960	0.00698
5882.46092	0.00699
5880.53225	0.00701
5878.60357	0.00704
5876.67490	0.00707
5874.74622	0.00708
5872.81755	0.00710
5870.88887	0.00712
5868.96019	0.00711
5867.03152	0.00710
5865.10284	0.00713
5863.17417	0.00715
5861.24549	0.00717
5859.31682	0.00721
5857.38814	0.00723
5855.45946	0.00724
5853.53079	0.00723
5851.60211	0.00721
5849.67344	0.00720
5847.74476	0.00721
5845.81609	0.00725
5843.88741	0.00729
5841.95873	0.00732
5840.03006	0.00734
5838.10138	0.00734
5836.17271	0.00733
5834.24403	0.00735
5832.31536	0.00737
5830.38668	0.00739
5828.45800	0.00743
5826.52933	0.00748
5824.60065	0.00751
5822.67198	0.00752
5820.74330	0.00751
5818.81463	0.00750
5816.88595	0.00750
5814.95727	0.00751
5813.02860	0.00752
5811.09992	0.00754
5809.17125	0.00757
5807.24257	0.00760
5805.31390	0.00761
5803.38522	0.00759
5801.45654	0.00757
5799.52787	0.00759
5797.59919	0.00763
5795.67052	0.00768
5793.74184	0.00771
5791.81317	0.00774
5789.88449	0.00777
5787.95581	0.00779
5786.02714	0.00779
5784.09846	0.00780
5782.16979	0.00782
5780.24111	0.00783
5778.31244	0.00785
5776.38376	0.00788
5774.45508	0.00789
5772.52641	0.00791
5770.59773	0.00793
5768.66906	0.00795
5766.74038	0.00797
5764.81171	0.00799
5762.88303	0.00800
5760.95435	0.00799
5759.02568	0.00797
5757.09700	0.00796
5755.16833	0.00799
5753.23965	0.00803
5751.31098	0.00805
5749.38230	0.00806
5747.45362	0.00808
5745.52495	0.00809
5743.59627	0.00813
5741.66760	0.00817
5739.73892	0.00819
5737.81025	0.00820
5735.88157	0.00819
5733.95289	0.00819
5732.02422	0.00820
5730.09554	0.00823
5728.16687	0.00824
5726.23819	0.00826
5724.30952	0.00829
5722.38084	0.00832
5720.45216	0.00832
5718.52349	0.00833
5716.59481	0.00834
5714.66614	0.00836
5712.73746	0.00840
5710.80879	0.00843
5708.88011	0.00844
5706.95143	0.00846
5705.02276	0.00849
5703.09408	0.00849
5701.16541	0.00847
5699.23673	0.00848
5697.30806	0.00852
5695.37938	0.00857
5693.45070	0.00860
5691.52203	0.00861
5689.59335	0.00861
5687.66468	0.00861
5685.73600	0.00863
5683.80733	0.00865
5681.87865	0.00865
5679.94997	0.00867
5678.02130	0.00871
5676.09262	0.00875
5674.16395	0.00876
5672.23527	0.00875
5670.30660	0.00876
5668.37792	0.00879
5666.44924	0.00883
5664.52057	0.00888
5662.59189	0.00890
5660.66322	0.00890
5658.73454	0.00889
5656.80587	0.00890
5654.87719	0.00892
5652.94851	0.00894
5651.01984	0.00897
5649.09116	0.00901
5647.16249	0.00905
5645.23381	0.00907
5643.30514	0.00907
5641.37646	0.00906
5639.44778	0.00906
5637.51911	0.00907
5635.59043	0.00910
5633.66176	0.00913
5631.73308	0.00916
5629.80441	0.00916
5627.87573	0.00916
5625.94705	0.00916
5624.01838	0.00919
5622.08970	0.00922
5620.16103	0.00927
5618.23235	0.00930
5616.30368	0.00931
5614.37500	0.00931
5612.44632	0.00932
5610.51765	0.00933
5608.58897	0.00935
5606.66030	0.00938
5604.73162	0.00940
5602.80295	0.00943
5600.87427	0.00947
5598.94559	0.00950
5597.01692	0.00953
5595.08824	0.00954
5593.15957	0.00954
5591.23089	0.00954
5589.30222	0.00957
5587.37354	0.00959
5585.44486	0.00962
5583.51619	0.00965
5581.58751	0.00968
5579.65884	0.00967
5577.73016	0.00968
5575.80149	0.00970
5573.87281	0.00972
5571.94413	0.00973
5570.01546	0.00974
5568.08678	0.00975
5566.15811	0.00975
5564.22943	0.00977
5562.30076	0.00980
5560.37208	0.00984
5558.44340	0.00988
5556.51473	0.00990
5554.58605	0.00991
5552.65738	0.00993
5550.72870	0.00995
5548.80003	0.00997
5546.87135	0.00997
5544.94267	0.00999
5543.01400	0.01003
5541.08532	0.01005
5539.15665	0.01004
5537.22797	0.01006
5535.29930	0.01010
5533.37062	0.01013
5531.44194	0.01013
5529.51327	0.01013
5527.58459	0.01012
5525.65592	0.01013
5523.72724	0.01019
5521.79857	0.01024
5519.86989	0.01024
5517.94121	0.01025
5516.01254	0.01030
5514.08386	0.01034
5512.15519	0.01033
5510.22651	0.01031
5508.29784	0.01033
5506.36916	0.01037
5504.44048	0.01038
5502.51181	0.01038
5500.58313	0.01040
5498.65446	0.01043
5496.72578	0.01045
5494.79711	0.01046
5492.86843	0.01049
5490.93975	0.01052
5489.01108	0.01052
5487.08240	0.01052
5485.15373	0.01055
5483.22505	0.01059
5481.29638	0.01063
5479.36770	0.01067
5477.43902	0.01068
5475.51035	0.01068
5473.58167	0.01070
5471.65300	0.01071
5469.72432	0.01071
5467.79565	0.01073
5465.86697	0.01077
5463.93829	0.01080
5462.00962	0.01083
5460.08094	0.01087
5458.15227	0.01090
5456.22359	0.01092
5454.29492	0.01092
5452.36624	0.01092
5450.43756	0.01091
5448.50889	0.01093
5446.58021	0.01098
5444.65154	0.01102
5442.72286	0.01104
5440.79419	0.01106
5438.86551	0.01108
5436.93683	0.01111
5435.00816	0.01114
5433.07948	0.01115
5431.15081	0.01117
5429.22213	0.01120
5427.29346	0.01124
5425.36478	0.01125
5423.43610	0.01127
5421.50743	0.01129
5419.57875	0.01132
5417.65008	0.01136
5415.72140	0.01139
5413.79273	0.01141
5411.86405	0.01142
5409.93537	0.01143
5408.00670	0.01146
5406.07802	0.01147
5404.14935	0.01149
5402.22067	0.01151
5400.29200	0.01155
5398.36332	0.01158
5396.43464	0.01160
5394.50597	0.01164
5392.57729	0.01169
5390.64862	0.01172
5388.71994	0.01171
5386.79127	0.01169
5384.86259	0.01170
5382.93391	0.01173
5381.00524	0.01175
5379.07656	0.01176
5377.14789	0.01177
5375.21921	0.01179
5373.29054	0.01182
5371.36186	0.01186
5369.43318	0.01190
5367.50451	0.01192
5365.57583	0.01193
5363.64716	0.01194
5361.71848	0.01195
5359.78981	0.01198
5357.86113	0.01201
5355.93245	0.01204
5354.00378	0.01207
5352.07510	0.01208
5350.14643	0.01208
5348.21775	0.01210
5346.28908	0.01214
5344.36040	0.01218
5342.43172	0.01222
5340.50305	0.01223
5338.57437	0.01221
5336.64570	0.01220
5334.71702	0.01223
5332.78835	0.01227
5330.85967	0.01229
5328.93099	0.01232
5327.00232	0.01234
5325.07364	0.01237
5323.14497	0.01241
5321.21629	0.01245
5319.28762	0.01249
5317.35894	0.01251
5315.43026	0.01252
5313.50159	0.01254
5311.57291	0.01257
5309.64424	0.01259
5307.71556	0.01260
5305.78689	0.01263
5303.85821	0.01266
5301.92953	0.01268
5300.00086	0.01270
5298.07218	0.01271
5296.14351	0.01271
5294.21483	0.01271
5292.28616	0.01270
5290.35748	0.01272
5288.42880	0.01278
5286.50013	0.01284
5284.57145	0.01288
5282.64278	0.01291
5280.71410	0.01295
5278.78543	0.01297
5276.85675	0.01296
5274.92807	0.01296
5272.99940	0.01299
5271.07072	0.01302
5269.14205	0.01304
5267.21337	0.01306
5265.28470	0.01310
5263.35602	0.01313
5261.42734	0.01315
5259.49867	0.01319
5257.56999	0.01321
5255.64132	0.01322
5253.71264	0.01322
5251.78397	0.01324
5249.85529	0.01326
5247.92661	0.01329
5245.99794	0.01333
5244.06926	0.01336
5242.14059	0.01338
5240.21191	0.01340
5238.28324	0.01341
5236.35456	0.01343
5234.42588	0.01345
5232.49721	0.01349
5230.56853	0.01352
5228.63986	0.01354
5226.71118	0.01354
5224.78251	0.01357
5222.85383	0.01362
5220.92515	0.01366
5218.99648	0.01367
5217.06780	0.01367
5215.13913	0.01367
5213.21045	0.01371
5211.28178	0.01377
5209.35310	0.01380
5207.42442	0.01380
5205.49575	0.01380
5203.56707	0.01382
5201.63840	0.01384
5199.70972	0.01389
5197.78105	0.01394
5195.85237	0.01397
5193.92369	0.01398
5191.99502	0.01400
5190.06634	0.01404
5188.13767	0.01408
5186.20899	0.01411
5184.28032	0.01414
5182.35164	0.01417
5180.42296	0.01417
5178.49429	0.01418
5176.56561	0.01422
5174.63694	0.01426
5172.70826	0.01428
5170.77959	0.01429
5168.85091	0.01429
5166.92223	0.01431
5164.99356	0.01434
5163.06488	0.01438
5161.13621	0.01441
5159.20753	0.01441
5157.27886	0.01441
5155.35018	0.01444
5153.42150	0.01449
5151.49283	0.01453
5149.56415	0.01455
5147.63548	0.01457
5145.70680	0.01460
5143.77813	0.01463
5141.84945	0.01465
5139.92077	0.01467
5137.99210	0.01470
5136.06342	0.01472
5134.13475	0.01475
5132.20607	0.01478
5130.27740	0.01483
5128.34872	0.01487
5126.42004	0.01489
5124.49137	0.01489
5122.56269	0.01491
5120.63402	0.01493
5118.70534	0.01496
5116.77667	0.01498
5114.84799	0.01500
5112.91931	0.01504
5110.99064	0.01509
5109.06196	0.01514
5107.13329	0.01516
5105.20461	0.01517
5103.27594	0.01518
5101.34726	0.01519
5099.41858	0.01522
5097.48991	0.01525
5095.56123	0.01526
5093.63256	0.01528
5091.70388	0.01532
5089.77521	0.01537
5087.84653	0.01540
5085.91785	0.01541
5083.98918	0.01542
5082.06050	0.01542
5080.13183	0.01543
5078.20315	0.01546
5076.27448	0.01549
5074.34580	0.01551
5072.41712	0.01553
5070.48845	0.01558
5068.55977	0.01565
5066.63110	0.01569
5064.70242	0.01571
5062.77375	0.01574
5060.84507	0.01578
5058.91639	0.01579
5056.98772	0.01577
5055.05904	0.01576
5053.13037	0.01579
5051.20169	0.01584
5049.27302	0.01589
5047.34434	0.01592
5045.41566	0.01593
5043.48699	0.01594
5041.55831	0.01597
5039.62964	0.01601
5037.70096	0.01604
5035.77229	0.01607
5033.84361	0.01610
5031.91493	0.01611
5029.98626	0.01614
5028.05758	0.01618
5026.12891	0.01623
5024.20023	0.01627
5022.27156	0.01629
5020.34288	0.01631
5018.41420	0.01636
5016.48553	0.01641
5014.55685	0.01643
5012.62818	0.01641
5010.69950	0.01640
5008.77083	0.01644
5006.84215	0.01652
5004.91347	0.01659
5002.98480	0.01661
5001.05612	0.01662
4999.12745	0.01664
4997.19877	0.01664
4995.27010	0.01664
4993.34142	0.01666
4991.41274	0.01669
4989.48407	0.01672
4987.55539	0.01673
4985.62672	0.01676
4983.69804	0.01682
4981.76937	0.01689
4979.84069	0.01691
4977.91201	0.01691
4975.98334	0.01692
4974.05466	0.01697
4972.12599	0.01702
4970.19731	0.01707
4968.26864	0.01711
4966.33996	0.01713
4964.41128	0.01716
4962.48261	0.01718
4960.55393	0.01721
4958.62526	0.01726
4956.69658	0.01730
4954.76791	0.01731
4952.83923	0.01731
4950.91055	0.01732
4948.98188	0.01735
4947.05320	0.01738
4945.12453	0.01742
4943.19585	0.01747
4941.26718	0.01750
4939.33850	0.01751
4937.40982	0.01749
4935.48115	0.01749
4933.55247	0.01754
4931.62380	0.01762
4929.69512	0.01767
4927.76645	0.01767
4925.83777	0.01768
4923.90909	0.01770
4921.98042	0.01774
4920.05174	0.01775
4918.12307	0.01775
4916.19439	0.01777
4914.26572	0.01781
4912.33704	0.01784
4910.40836	0.01786
4908.47969	0.01789
4906.55101	0.01795
4904.62234	0.01803
4902.69366	0.01808
4900.76499	0.01811
4898.83631	0.01811
4896.90763	0.01810
4894.97896	0.01810
4893.05028	0.01811
4891.12161	0.01814
4889.19293	0.01818
4887.26426	0.01823
4885.33558	0.01828
4883.40690	0.01831
4881.47823	0.01830
4879.54955	0.01829
4877.62088	0.01835
4875.69220	0.01843
4873.76353	0.01845
4871.83485	0.01845
4869.90617	0.01848
4867.97750	0.01854
4866.04882	0.01858
4864.12015	0.01860
4862.19147	0.01860
4860.26280	0.01863
4858.33412	0.01866
4856.40544	0.01868
4854.47677	0.01871
4852.54809	0.01874
4850.61942	0.01879
4848.69074	0.01884
4846.76207	0.01889
4844.83339	0.01893
4842.90471	0.01895
4840.97604	0.01896
4839.04736	0.01899
4837.11869	0.01901
4835.19001	0.01906
4833.26134	0.01912
4831.33266	0.01917
4829.40398	0.01920
4827.47531	0.01921
4825.54663	0.01920
4823.61796	0.01920
4821.68928	0.01924
4819.76061	0.01927
4817.83193	0.01928
4815.90325	0.01930
4813.97458	0.01935
4812.04590	0.01939
4810.11723	0.01940
4808.18855	0.01944
4806.25988	0.01951
4804.33120	0.01956
4802.40252	0.01958
4800.47385	0.01959
4798.54517	0.01962
4796.61650	0.01967
4794.68782	0.01973
4792.75915	0.01978
4790.83047	0.01980
4788.90179	0.01983
4786.97312	0.01986
4785.04444	0.01989
4783.11577	0.01991
4781.18709	0.01995
4779.25842	0.01998
4777.32974	0.02001
4775.40106	0.02003
4773.47239	0.02005
4771.54371	0.02009
4769.61504	0.02015
4767.68636	0.02018
4765.75769	0.02021
4763.82901	0.02026
4761.90033	0.02030
4759.97166	0.02033
4758.04298	0.02036
4756.11431	0.02039
4754.18563	0.02041
4752.25696	0.02041
4750.32828	0.02040
4748.39960	0.02043
4746.47093	0.02049
4744.54225	0.02055
4742.61358	0.02058
4740.68490	0.02060
4738.75623	0.02063
4736.82755	0.02068
4734.89887	0.02070
4732.97020	0.02072
4731.04152	0.02078
4729.11285	0.02084
4727.18417	0.02086
4725.25550	0.02087
4723.32682	0.02090
4721.39814	0.02097
4719.46947	0.02103
4717.54079	0.02107
4715.61212	0.02109
4713.68344	0.02111
4711.75477	0.02114
4709.82609	0.02116
4707.89741	0.02118
4705.96874	0.02120
4704.04006	0.02125
4702.11139	0.02131
4700.18271	0.02135
4698.25404	0.02138
4696.32536	0.02139
4694.39668	0.02140
4692.46801	0.02143
4690.53933	0.02149
4688.61066	0.02158
4686.68198	0.02166
4684.75331	0.02170
4682.82463	0.02173
4680.89595	0.02174
4678.96728	0.02173
4677.03860	0.02173
4675.10993	0.02177
4673.18125	0.02181
4671.25258	0.02185
4669.32390	0.02190
4667.39522	0.02196
4665.46655	0.02202
4663.53787	0.02204
4661.60920	0.02202
4659.68052	0.02202
4657.75185	0.02203
4655.82317	0.02205
4653.89449	0.02209
4651.96582	0.02214
4650.03714	0.02221
4648.10847	0.02229
4646.17979	0.02234
4644.25112	0.02237
4642.32244	0.02240
4640.39376	0.02244
4638.46509	0.02245
4636.53641	0.02244
4634.60774	0.02246
4632.67906	0.02250
4630.75039	0.02255
4628.82171	0.02260
4626.89303	0.02265
4624.96436	0.02270
4623.03568	0.02273
4621.10701	0.02276
4619.17833	0.02281
4617.24966	0.02288
4615.32098	0.02294
4613.39230	0.02298
4611.46363	0.02300
4609.53495	0.02301
4607.60628	0.02304
4605.67760	0.02310
4603.74893	0.02314
4601.82025	0.02315
4599.89157	0.02318
4597.96290	0.02324
4596.03422	0.02328
4594.10555	0.02330
4592.17687	0.02335
4590.24820	0.02341
4588.31952	0.02345
4586.39084	0.02347
4584.46217	0.02349
4582.53349	0.02352
4580.60482	0.02355
4578.67614	0.02359
4576.74747	0.02363
4574.81879	0.02367
4572.89011	0.02370
4570.96144	0.02375
4569.03276	0.02382
4567.10409	0.02390
4565.17541	0.02395
4563.24674	0.02399
4561.31806	0.02401
4559.38938	0.02403
4557.46071	0.02406
4555.53203	0.02410
4553.60336	0.02413
4551.67468	0.02417
4549.74601	0.02422
4547.81733	0.02426
4545.88865	0.02430
4543.95998	0.02434
4542.03130	0.02442
4540.10263	0.02446
4538.17395	0.02447
4536.24528	0.02448
4534.31660	0.02453
4532.38792	0.02458
4530.45925	0.02463
4528.53057	0.02469
4526.60190	0.02474
4524.67322	0.02477
4522.74455	0.02480
4520.81587	0.02486
4518.88719	0.02492
4516.95852	0.02495
4515.02984	0.02498
4513.10117	0.02504
4511.17249	0.02509
4509.24382	0.02511
4507.31514	0.02511
4505.38646	0.02515
4503.45779	0.02520
4501.52911	0.02525
4499.60044	0.02533
4497.67176	0.02541
4495.74309	0.02547
4493.81441	0.02549
4491.88573	0.02551
4489.95706	0.02557
4488.02838	0.02564
4486.09971	0.02568
4484.17103	0.02571
4482.24236	0.02575
4480.31368	0.02578
4478.38500	0.02582
4476.45633	0.02584
4474.52765	0.02587
4472.59898	0.02591
4470.67030	0.02595
4468.74163	0.02598
4466.81295	0.02603
4464.88427	0.02611
4462.95560	0.02617
4461.02692	0.02619
4459.09825	0.02624
4457.16957	0.02629
4455.24090	0.02632
4453.31222	0.02637
4451.38354	0.02645
4449.45487	0.02650
4447.52619	0.02653
4445.59752	0.02659
4443.66884	0.02666
4441.74017	0.02671
4439.81149	0.02674
4437.88281	0.02676
4435.95414	0.02676
4434.02546	0.02678
4432.09679	0.02686
4430.16811	0.02696
4428.23944	0.02703
4426.31076	0.02706
4424.38208	0.02705
4422.45341	0.02706
4420.52473	0.02713
4418.59606	0.02722
4416.66738	0.02727
4414.73871	0.02728
4412.81003	0.02730
4410.88135	0.02736
4408.95268	0.02744
4407.02400	0.02749
4405.09533	0.02754
4403.16665	0.02759
4401.23798	0.02764
4399.30930	0.02767
4397.38062	0.02771
4395.45195	0.02775
4393.52327	0.02780
4391.59460	0.02785
4389.66592	0.02792
4387.73725	0.02799
4385.80857	0.02803
4383.87989	0.02808
4381.95122	0.02814
4380.02254	0.02821
4378.09387	0.02825
4376.16519	0.02826
4374.23652	0.02830
4372.30784	0.02838
4370.37916	0.02844
4368.45049	0.02847
4366.52181	0.02851
4364.59314	0.02855
4362.66446	0.02861
4360.73579	0.02870
4358.80711	0.02879
4356.87843	0.02883
4354.94976	0.02884
4353.02108	0.02887
4351.09241	0.02892
4349.16373	0.02898
4347.23506	0.02904
4345.30638	0.02910
4343.37770	0.02915
4341.44903	0.02921
4339.52035	0.02927
4337.59168	0.02933
4335.66300	0.02937
4333.73433	0.02939
4331.80565	0.02942
4329.87697	0.02946
4327.94830	0.02951
4326.01962	0.02958
4324.09095	0.02966
4322.16227	0.02971
4320.23360	0.02975
4318.30492	0.02981
4316.37624	0.02986
4314.44757	0.02992
4312.51889	0.03000
4310.59022	0.03008
4308.66154	0.03015
4306.73287	0.03017
4304.80419	0.03020
4302.87551	0.03024
4300.94684	0.03030
4299.01816	0.03036
4297.08949	0.03042
4295.16081	0.03045
4293.23214	0.03047
4291.30346	0.03053
4289.37478	0.03063
4287.44611	0.03072
4285.51743	0.03078
4283.58876	0.03081
4281.66008	0.03086
4279.73141	0.03092
4277.80273	0.03095
4275.87405	0.03099
4273.94538	0.03107
4272.01670	0.03113
4270.08803	0.03115
4268.15935	0.03120
4266.23068	0.03130
4264.30200	0.03140
4262.37332	0.03147
4260.44465	0.03153
4258.51597	0.03158
4256.58730	0.03161
4254.65862	0.03165
4252.72995	0.03169
4250.80127	0.03172
4248.87259	0.03178
4246.94392	0.03187
4245.01524	0.03196
4243.08657	0.03204
4241.15789	0.03209
4239.22922	0.03215
4237.30054	0.03218
4235.37186	0.03217
4233.44319	0.03220
4231.51451	0.03230
4229.58584	0.03241
4227.65716	0.03247
4225.72849	0.03252
4223.79981	0.03258
4221.87113	0.03264
4219.94246	0.03270
4218.01378	0.03276
4216.08511	0.03283
4214.15643	0.03288
4212.22776	0.03293
4210.29908	0.03296
4208.37040	0.03298
4206.44173	0.03302
4204.51305	0.03311
4202.58438	0.03322
4200.65570	0.03332
4198.72703	0.03339
4196.79835	0.03345
4194.86968	0.03353
4192.94100	0.03361
4191.01232	0.03366
4189.08365	0.03369
4187.15497	0.03373
4185.22630	0.03379
4183.29762	0.03386
4181.36895	0.03394
4179.44027	0.03397
4177.51159	0.03399
4175.58292	0.03405
4173.65424	0.03415
4171.72557	0.03424
4169.79689	0.03432
4167.86822	0.03440
4165.93954	0.03444
4164.01086	0.03448
4162.08219	0.03455
4160.15351	0.03462
4158.22484	0.03464
4156.29616	0.03468
4154.36749	0.03474
4152.43881	0.03482
4150.51013	0.03490
4148.58146	0.03500
4146.65278	0.03510
4144.72411	0.03516
4142.79543	0.03524
4140.86676	0.03532
4138.93808	0.03536
4137.00940	0.03540
4135.08073	0.03546
4133.15205	0.03555
4131.22338	0.03565
4129.29470	0.03573
4127.36603	0.03578
4125.43735	0.03581
4123.50867	0.03584
4121.58000	0.03590
4119.65132	0.03597
4117.72265	0.03605
4115.79397	0.03613
4113.86530	0.03621
4111.93662	0.03626
4110.00794	0.03629
4108.07927	0.03636
4106.15059	0.03647
4104.22192	0.03654
4102.29324	0.03660
4100.36457	0.03668
4098.43589	0.03677
4096.50721	0.03685
4094.57854	0.03692
4092.64986	0.03698
4090.72119	0.03703
4088.79251	0.03708
4086.86384	0.03715
4084.93516	0.03724
4083.00648	0.03733
4081.07781	0.03740
4079.14913	0.03747
4077.22046	0.03756
4075.29178	0.03765
4073.36311	0.03772
4071.43443	0.03777
4069.50575	0.03778
4067.57708	0.03779
4065.64840	0.03788
4063.71973	0.03800
4061.79105	0.03811
4059.86238	0.03818
4057.93370	0.03824
4056.00502	0.03830
4054.07635	0.03836
4052.14767	0.03843
4050.21900	0.03851
4048.29032	0.03859
4046.36165	0.03864
4044.43297	0.03869
4042.50429	0.03878
4040.57562	0.03887
4038.64694	0.03896
4036.71827	0.03905
4034.78959	0.03913
4032.86092	0.03921
4030.93224	0.03927
4029.00356	0.03934
4027.07489	0.03944
4025.14621	0.03950
4023.21754	0.03954
4021.28886	0.03959
4019.36019	0.03965
4017.43151	0.03973
4015.50283	0.03982
4013.57416	0.03991
4011.64548	0.03997
4009.71681	0.04003
4007.78813	0.04010
4005.85946	0.04019
4003.93078	0.04028
4002.00210	0.04033
4000.07343	0.04038
3998.14475	0.04049
3996.21608	0.04063
3994.28740	0.04073
3992.35873	0.04080
3990.43005	0.04089
3988.50137	0.04099
3986.57270	0.04104
3984.64402	0.04107
3982.71535	0.04113
3980.78667	0.04121
3978.85800	0.04129
3976.92932	0.04135
3975.00064	0.04142
3973.07197	0.04151
3971.14329	0.04161
3969.21462	0.04170
3967.28594	0.04180
3965.35727	0.04189
3963.42859	0.04194
3961.49991	0.04202
3959.57124	0.04214
3957.64256	0.04226
3955.71389	0.04233
3953.78521	0.04238
3951.85654	0.04242
3949.92786	0.04246
3947.99918	0.04252
3946.07051	0.04258
3944.14183	0.04266
3942.21316	0.04275
3940.28448	0.04284
3938.35581	0.04291
3936.42713	0.04299
3934.49845	0.04304
3932.56978	0.04311
3930.64110	0.04323
3928.71243	0.04335
3926.78375	0.04343
3924.85508	0.04352
3922.92640	0.04363
3920.99772	0.04367
3919.06905	0.04366
3917.14037	0.04371
3915.21170	0.04386
3913.28302	0.04401
3911.35435	0.04411
3909.42567	0.04416
3907.49699	0.04415
3905.56832	0.04412
3903.63964	0.04410
3901.71097	0.04415
3899.78229	0.04430
3897.85362	0.04450
3895.92494	0.04463
3893.99626	0.04463
3892.06759	0.04464
3890.13891	0.04475
3888.21024	0.04484
3886.28156	0.04490
3884.35289	0.04503
3882.42421	0.04515
3880.49553	0.04524
3878.56686	0.04538
3876.63818	0.04551
3874.70951	0.04556
3872.78083	0.04557
3870.85216	0.04557
3868.92348	0.04564
3866.99480	0.04576
3865.06613	0.04583
3863.13745	0.04593
3861.20878	0.04610
3859.28010	0.04624
3857.35143	0.04617
3855.42275	0.04592
3853.49407	0.04591
3851.56540	0.04626
3849.63672	0.04663
3847.70805	0.04682
3845.77937	0.04688
3843.85070	0.04691
3841.92202	0.04693
3839.99334	0.04694
3838.06467	0.04699
3836.13599	0.04711
3834.20732	0.04725
3832.27864	0.04741
3830.34997	0.04757
3828.42129	0.04769
3826.49261	0.04779
3824.56394	0.04783
3822.63526	0.04778
3820.70659	0.04779
3818.77791	0.04792
3816.84924	0.04808
3814.92056	0.04828
3812.99188	0.04851
3811.06321	0.04860
3809.13453	0.04857
3807.20586	0.04859
3805.27718	0.04867
3803.34851	0.04868
3801.41983	0.04866
3799.49115	0.04877
3797.56248	0.04894
3795.63380	0.04914
3793.70513	0.04933
3791.77645	0.04947
3789.84778	0.04955
3787.91910	0.04960
3785.99042	0.04970
3784.06175	0.04980
3782.13307	0.04985
3780.20440	0.04986
3778.27572	0.04993
3776.34705	0.05010
3774.41837	0.05024
3772.48969	0.05030
3770.56102	0.05032
3768.63234	0.05039
3766.70367	0.05052
3764.77499	0.05067
3762.84632	0.05077
3760.91764	0.05078
3758.98896	0.05083
3757.06029	0.05094
3755.13161	0.05095
3753.20294	0.05085
3751.27426	0.05081
3749.34559	0.05092
3747.41691	0.05100
3745.48823	0.05094
3743.55956	0.05109
3741.63088	0.05147
3739.70221	0.05165
3737.77353	0.05160
3735.84486	0.05161
3733.91618	0.05180
3731.98750	0.05206
3730.05883	0.05226
3728.13015	0.05234
3726.20148	0.05237
3724.27280	0.05247
3722.34413	0.05262
3720.41545	0.05276
3718.48677	0.05288
3716.55810	0.05297
3714.62942	0.05296
3712.70075	0.05294
3710.77207	0.05304
3708.84340	0.05328
3706.91472	0.05352
3704.98604	0.05361
3703.05737	0.05361
3701.12869	0.05367
3699.20002	0.05382
3697.27134	0.05393
3695.34267	0.05399
3693.41399	0.05401
3691.48531	0.05398
3689.55664	0.05397
3687.62796	0.05409
3685.69929	0.05429
3683.77061	0.05444
3681.84194	0.05455
3679.91326	0.05463
3677.98458	0.05465
3676.05591	0.05467
3674.12723	0.05478
3672.19856	0.05489
3670.26988	0.05496
3668.34121	0.05513
3666.41253	0.05535
3664.48385	0.05550
3662.55518	0.05558
3660.62650	0.05564
3658.69783	0.05569
3656.76915	0.05575
3654.84048	0.05581
3652.91180	0.05574
3650.98312	0.05552
3649.05445	0.05541
3647.12577	0.05558
3645.19710	0.05594
3643.26842	0.05627
3641.33975	0.05646
3639.41107	0.05656
3637.48239	0.05662
3635.55372	0.05666
3633.62504	0.05666
3631.69637	0.05661
3629.76769	0.05653
3627.83902	0.05662
3625.91034	0.05690
3623.98166	0.05709
3622.05299	0.05709
3620.12431	0.05702
3618.19564	0.05706
3616.26696	0.05720
3614.33829	0.05730
3612.40961	0.05733
3610.48093	0.05735
3608.55226	0.05744
3606.62358	0.05760
3604.69491	0.05774
3602.76623	0.05782
3600.83756	0.05791
3598.90888	0.05800
3596.98020	0.05804
3595.05153	0.05805
3593.12285	0.05813
3591.19418	0.05820
3589.26550	0.05820
3587.33683	0.05825
3585.40815	0.05842
3583.47947	0.05859
3581.55080	0.05868
3579.62212	0.05876
3577.69345	0.05888
3575.76477	0.05900
3573.83610	0.05906
3571.90742	0.05906
3569.97874	0.05900
3568.05007	0.05894
3566.12139	0.05906
3564.19272	0.05929
3562.26404	0.05945
3560.33537	0.05951
3558.40669	0.05955
3556.47801	0.05963
3554.54934	0.05974
3552.62066	0.05985
3550.69199	0.05995
3548.76331	0.05998
3546.83464	0.05998
3544.90596	0.06005
3542.97728	0.06016
3541.04861	0.06023
3539.11993	0.06023
3537.19126	0.06024
3535.26258	0.06033
3533.33391	0.06046
3531.40523	0.06051
3529.47655	0.06052
3527.54788	0.06059
3525.61920	0.06066
3523.69053	0.06069
3521.76185	0.06073
3519.83318	0.06075
3517.90450	0.06075
3515.97582	0.06078
3514.04715	0.06083
3512.11847	0.06088
3510.18980	0.06093
3508.26112	0.06098
3506.33245	0.06101
3504.40377	0.06103
3502.47509	0.06105
3500.54642	0.06109
3498.61774	0.06114
3496.68907	0.06119
3494.76039	0.06121
3492.83172	0.06122
3490.90304	0.06123
3488.97436	0.06124
3487.04569	0.06126
3485.11701	0.06128
3483.18834	0.06131
3481.25966	0.06137
3479.33099	0.06148
3477.40231	0.06157
3475.47363	0.06163
3473.54496	0.06170
3471.61628	0.06179
3469.68761	0.06190
3467.75893	0.06200
3465.83026	0.06209
3463.90158	0.06219
3461.97290	0.06227
3460.04423	0.06233
3458.11555	0.06239
3456.18688	0.06249
3454.25820	0.06263
3452.32953	0.06277
3450.40085	0.06287
3448.47217	0.06296
3446.54350	0.06306
3444.61482	0.06318
3442.68615	0.06328
3440.75747	0.06337
3438.82880	0.06349
3436.90012	0.06367
3434.97144	0.06387
3433.04277	0.06404
3431.11409	0.06420
3429.18542	0.06441
3427.25674	0.06465
3425.32807	0.06484
3423.39939	0.06500
3421.47071	0.06520
3419.54204	0.06542
3417.61336	0.06562
3415.68469	0.06579
3413.75601	0.06595
3411.82734	0.06610
3409.89866	0.06627
3407.96998	0.06646
3406.04131	0.06661
3404.11263	0.06673
3402.18396	0.06682
3400.25528	0.06692
3398.32661	0.06706
3396.39793	0.06721
3394.46925	0.06732
3392.54058	0.06743
3390.61190	0.06758
3388.68323	0.06775
3386.75455	0.06792
3384.82588	0.06806
3382.89720	0.06816
3380.96852	0.06826
3379.03985	0.06838
3377.11117	0.06851
3375.18250	0.06866
3373.25382	0.06881
3371.32515	0.06891
3369.39647	0.06900
3367.46779	0.06911
3365.53912	0.06923
3363.61044	0.06937
3361.68177	0.06954
3359.75309	0.06970
3357.82442	0.06982
3355.89574	0.06991
3353.96706	0.07003
3352.03839	0.07018
3350.10971	0.07034
3348.18104	0.07048
3346.25236	0.07059
3344.32369	0.07069
3342.39501	0.07083
3340.46633	0.07099
3338.53766	0.07112
3336.60898	0.07122
3334.68031	0.07132
3332.75163	0.07143
3330.82296	0.07158
3328.89428	0.07172
3326.96560	0.07182
3325.03693	0.07194
3323.10825	0.07209
3321.17958	0.07223
3319.25090	0.07235
3317.32223	0.07246
3315.39355	0.07258
3313.46487	0.07271
3311.53620	0.07287
3309.60752	0.07302
3307.67885	0.07315
3305.75017	0.07325
3303.82150	0.07334
3301.89282	0.07346
3299.96414	0.07362
3298.03547	0.07379
3296.10679	0.07395
3294.17812	0.07408
3292.24944	0.07419
3290.32077	0.07430
3288.39209	0.07444
3286.46341	0.07459
3284.53474	0.07476
3282.60606	0.07492
3280.67739	0.07504
3278.74871	0.07516
3276.82004	0.07530
3274.89136	0.07543
3272.96268	0.07556
3271.03401	0.07570
3269.10533	0.07582
3267.17666	0.07593
3265.24798	0.07606
3263.31931	0.07621
3261.39063	0.07640
3259.46195	0.07657
3257.53328	0.07671
3255.60460	0.07686
3253.67593	0.07702
3251.74725	0.07717
3249.81858	0.07731
3247.88990	0.07744
3245.96122	0.07756
3244.03255	0.07765
3242.10387	0.07773
3240.17520	0.07786
3238.24652	0.07803
3236.31785	0.07821
3234.38917	0.07836
3232.46049	0.07847
3230.53182	0.07860
3228.60314	0.07875
3226.67447	0.07889
3224.74579	0.07904
3222.81712	0.07920
3220.88844	0.07934
3218.95976	0.07945
3217.03109	0.07956
3215.10241	0.07969
3213.17374	0.07984
3211.24506	0.08000
3209.31639	0.08014
3207.38771	0.08029
3205.45903	0.08046
3203.53036	0.08059
3201.60168	0.08069
3199.67301	0.08079
3197.74433	0.08093
3195.81566	0.08111
3193.88698	0.08130
3191.95830	0.08146
3190.02963	0.08160
3188.10095	0.08173
3186.17228	0.08183
3184.24360	0.08195
3182.31493	0.08209
3180.38625	0.08224
3178.45757	0.08241
3176.52890	0.08258
3174.60022	0.08275
3172.67155	0.08293
3170.74287	0.08310
3168.81420	0.08322
3166.88552	0.08334
3164.95684	0.08347
3163.02817	0.08362
3161.09949	0.08377
3159.17082	0.08393
3157.24214	0.08408
3155.31347	0.08423
3153.38479	0.08438
3151.45611	0.08452
3149.52744	0.08467
3147.59876	0.08481
3145.67009	0.08491
3143.74141	0.08499
3141.81274	0.08511
3139.88406	0.08526
3137.95538	0.08540
3136.02671	0.08557
3134.09803	0.08577
3132.16936	0.08592
3130.24068	0.08603
3128.31201	0.08616
3126.38333	0.08635
3124.45465	0.08654
3122.52598	0.08669
3120.59730	0.08680
3118.66863	0.08692
3116.73995	0.08705
3114.81128	0.08717
3112.88260	0.08727
3110.95392	0.08742
3109.02525	0.08761
3107.09657	0.08781
3105.16790	0.08797
3103.23922	0.08811
3101.31055	0.08824
3099.38187	0.08837
3097.45319	0.08851
3095.52452	0.08864
3093.59584	0.08874
3091.66717	0.08886
3089.73849	0.08901
3087.80982	0.08917
3085.88114	0.08931
3083.95246	0.08945
3082.02379	0.08961
3080.09511	0.08979
3078.16644	0.08995
3076.23776	0.09008
3074.30909	0.09021
3072.38041	0.09034
3070.45173	0.09048
3068.52306	0.09063
3066.59438	0.09078
3064.66571	0.09093
3062.73703	0.09107
3060.80836	0.09119
3058.87968	0.09131
3056.95100	0.09144
3055.02233	0.09161
3053.09365	0.09182
3051.16498	0.09201
3049.23630	0.09215
3047.30763	0.09228
3045.37895	0.09242
3043.45027	0.09253
3041.52160	0.09263
3039.59292	0.09278
3037.66425	0.09300
3035.73557	0.09319
3033.80690	0.09332
3031.87822	0.09342
3029.94954	0.09357
3028.02087	0.09373
3026.09219	0.09386
3024.16352	0.09399
3022.23484	0.09412
3020.30617	0.09422
3018.37749	0.09433
3016.44881	0.09445
3014.52014	0.09456
3012.59146	0.09472
3010.66279	0.09492
3008.73411	0.09513
3006.80544	0.09528
3004.87676	0.09539
3002.94808	0.09552
3001.01941	0.09566
2999.09073	0.09579
2997.16206	0.09592
2995.23338	0.09605
2993.30471	0.09619
2991.37603	0.09630
2989.44735	0.09641
2987.51868	0.09657
2985.59000	0.09670
2983.66133	0.09674
2981.73265	0.09676
2979.80398	0.09683
2977.87530	0.09690
2975.94662	0.09695
2974.01795	0.09699
2972.08927	0.09701
2970.16060	0.09702
2968.23192	0.09701
2966.30325	0.09701
2964.37457	0.09704
2962.44589	0.09712
2960.51722	0.09723
2958.58854	0.09736
2956.65987	0.09750
2954.73119	0.09768
2952.80252	0.09790
2950.87384	0.09812
2948.94516	0.09829
2947.01649	0.09842
2945.08781	0.09852
2943.15914	0.09857
2941.23046	0.09860
2939.30179	0.09865
2937.37311	0.09870
2935.44443	0.09868
2933.51576	0.09860
2931.58708	0.09852
2929.65841	0.09847
2927.72973	0.09846
2925.80106	0.09851
2923.87238	0.09857
2921.94370	0.09863
2920.01503	0.09869
2918.08635	0.09881
2916.15768	0.09907
2914.22900	0.09947
2912.30033	0.09995
2910.37165	0.10039
2908.44297	0.10077
2906.51430	0.10110
2904.58562	0.10136
2902.65695	0.10158
2900.72827	0.10178
2898.79960	0.10198
2896.87092	0.10221
2894.94224	0.10248
2893.01357	0.10274
2891.08489	0.10292
2889.15622	0.10306
2887.22754	0.10322
2885.29887	0.10342
2883.37019	0.10360
2881.44151	0.10378
2879.51284	0.10398
2877.58416	0.10414
2875.65549	0.10424
2873.72681	0.10432
2871.79814	0.10444
2869.86946	0.10459
2867.94078	0.10470
2866.01211	0.10478
2864.08343	0.10483
2862.15476	0.10487
2860.22608	0.10492
2858.29741	0.10497
2856.36873	0.10499
2854.44005	0.10497
2852.51138	0.10498
2850.58270	0.10514
2848.65403	0.10547
2846.72535	0.10593
2844.79668	0.10644
2842.86800	0.10689
2840.93932	0.10720
2839.01065	0.10746
2837.08197	0.10772
2835.15330	0.10793
2833.22462	0.10808
2831.29595	0.10822
2829.36727	0.10840
2827.43859	0.10862
2825.50992	0.10885
2823.58124	0.10904
2821.65257	0.10920
2819.72389	0.10932
2817.79522	0.10942
2815.86654	0.10956
2813.93786	0.10972
2812.00919	0.10990
2810.08051	0.11008
2808.15184	0.11024
2806.22316	0.11042
2804.29449	0.11061
2802.36581	0.11077
2800.43713	0.11091
2798.50846	0.11108
2796.57978	0.11127
2794.65111	0.11146
2792.72243	0.11159
2790.79376	0.11168
2788.86508	0.11181
2786.93640	0.11198
2785.00773	0.11215
2783.07905	0.11232
2781.15038	0.11248
2779.22170	0.11263
2777.29303	0.11281
2775.36435	0.11305
2773.43567	0.11329
2771.50700	0.11345
2769.57832	0.11356
2767.64965	0.11367
2765.72097	0.11381
2763.79230	0.11394
2761.86362	0.11406
2759.93494	0.11420
2758.00627	0.11438
2756.07759	0.11455
2754.14892	0.11470
2752.22024	0.11483
2750.29157	0.11497
2748.36289	0.11512
2746.43421	0.11526
2744.50554	0.11540
2742.57686	0.11555
2740.64819	0.11574
2738.71951	0.11593
2736.79084	0.11609
2734.86216	0.11622
2732.93348	0.11635
2731.00481	0.11648
2729.07613	0.11663
2727.14746	0.11680
2725.21878	0.11700
2723.29011	0.11719
2721.36143	0.11735
2719.43275	0.11747
2717.50408	0.11756
2715.57540	0.11767
2713.64673	0.11784
2711.71805	0.11804
2709.78938	0.11822
2707.86070	0.11835
2705.93202	0.11845
2704.00335	0.11858
2702.07467	0.11874
2700.14600	0.11888
2698.21732	0.11899
2696.28865	0.11911
2694.35997	0.11926
2692.43129	0.11941
2690.50262	0.11951
2688.57394	0.11964
2686.64527	0.11980
2684.71659	0.11997
2682.78792	0.12013
2680.85924	0.12031
2678.93056	0.12050
2677.00189	0.12071
2675.07321	0.12090
2673.14454	0.12103
2671.21586	0.12112
2669.28719	0.12120
2667.35851	0.12131
2665.42983	0.12145
2663.50116	0.12163
2661.57248	0.12180
2659.64381	0.12197
2657.71513	0.12218
2655.78646	0.12240
2653.85778	0.12258
2651.92910	0.12271
2650.00043	0.12283
2648.07175	0.12298
2646.14308	0.12311
2644.21440	0.12323
2642.28573	0.12338
2640.35705	0.12358
2638.42837	0.12379
2636.49970	0.12399
2634.57102	0.12418
2632.64235	0.12434
2630.71367	0.12448
2628.78500	0.12462
2626.85632	0.12475
2624.92764	0.12489
2622.99897	0.12506
2621.07029	0.12525
2619.14162	0.12543
2617.21294	0.12559
2615.28427	0.12574
2613.35559	0.12591
2611.42691	0.12607
2609.49824	0.12620
2607.56956	0.12633
2605.64089	0.12649
2603.71221	0.12667
2601.78354	0.12684
2599.85486	0.12699
2597.92618	0.12713
2595.99751	0.12726
2594.06883	0.12739
2592.14016	0.12753
2590.21148	0.12768
2588.28281	0.12785
2586.35413	0.12804
2584.42545	0.12824
2582.49678	0.12838
2580.56810	0.12848
2578.63943	0.12863
2576.71075	0.12885
2574.78208	0.12907
2572.85340	0.12926
2570.92472	0.12941
2568.99605	0.12953
2567.06737	0.12964
2565.13870	0.12977
2563.21002	0.12994
2561.28135	0.13011
2559.35267	0.13023
2557.42399	0.13034
2555.49532	0.13050
2553.56664	0.13070
2551.63797	0.13089
2549.70929	0.13106
2547.78062	0.13117
2545.85194	0.13130
2543.92326	0.13146
2541.99459	0.13163
2540.06591	0.13180
2538.13724	0.13197
2536.20856	0.13215
2534.27989	0.13229
2532.35121	0.13239
2530.42253	0.13252
2528.49386	0.13270
2526.56518	0.13290
2524.63651	0.13309
2522.70783	0.13324
2520.77916	0.13339
2518.85048	0.13356
2516.92181	0.13376
2514.99313	0.13394
2513.06445	0.13408
2511.13578	0.13422
2509.20710	0.13439
2507.27843	0.13456
2505.34975	0.13472
2503.42108	0.13491
2501.49240	0.13511
2499.56372	0.13528
2497.63505	0.13541
2495.70637	0.13554
2493.77770	0.13571
2491.84902	0.13592
2489.92035	0.13616
2487.99167	0.13639
2486.06299	0.13658
2484.13432	0.13668
2482.20564	0.13677
2480.27697	0.13692
2478.34829	0.13713
2476.41962	0.13734
2474.49094	0.13751
2472.56226	0.13770
2470.63359	0.13792
2468.70491	0.13808
2466.77624	0.13818
2464.84756	0.13833
2462.91889	0.13852
2460.99021	0.13865
2459.06153	0.13876
2457.13286	0.13892
2455.20418	0.13910
2453.27551	0.13928
2451.34683	0.13947
2449.41816	0.13968
2447.48948	0.13987
2445.56080	0.14003
2443.63213	0.14015
2441.70345	0.14031
2439.77478	0.14052
2437.84610	0.14071
2435.91743	0.14084
2433.98875	0.14098
2432.06007	0.14113
2430.13140	0.14127
2428.20272	0.14143
2426.27405	0.14164
2424.34537	0.14189
2422.41670	0.14210
2420.48802	0.14223
2418.55934	0.14234
2416.63067	0.14249
2414.70199	0.14264
2412.77332	0.14282
2410.84464	0.14304
2408.91597	0.14324
2406.98729	0.14339
2405.05861	0.14353
2403.12994	0.14366
2401.20126	0.14380
2399.27259	0.14396
2397.34391	0.14408
2395.41524	0.14420
2393.48656	0.14438
2391.55788	0.14458
2389.62921	0.14477
2387.70053	0.14492
2385.77186	0.14506
2383.84318	0.14517
2381.91451	0.14525
2379.98583	0.14535
2378.05715	0.14542
2376.12848	0.14542
2374.19980	0.14539
2372.27113	0.14541
2370.34245	0.14547
2368.41378	0.14558
2366.48510	0.14572
2364.55642	0.14582
2362.62775	0.14593
2360.69907	0.14610
2358.77040	0.14630
2356.84172	0.14648
2354.91305	0.14676
2352.98437	0.14716
2351.05569	0.14757
2349.12702	0.14782
2347.19834	0.14793
2345.26967	0.14798
2343.34099	0.14798
2341.41232	0.14800
2339.48364	0.14812
2337.55496	0.14831
2335.62629	0.14851
2333.69761	0.14869
2331.76894	0.14882
2329.84026	0.14895
2327.91159	0.14913
2325.98291	0.14935
2324.05423	0.14957
2322.12556	0.14978
2320.19688	0.15002
2318.26821	0.15027
2316.33953	0.15052
2314.41086	0.15076
2312.48218	0.15098
2310.55350	0.15118
2308.62483	0.15143
2306.69615	0.15168
2304.76748	0.15188
2302.83880	0.15205
2300.91013	0.15218
2298.98145	0.15229
2297.05277	0.15244
2295.12410	0.15263
2293.19542	0.15284
2291.26675	0.15303
2289.33807	0.15320
2287.40940	0.15337
2285.48072	0.15356
2283.55204	0.15374
2281.62337	0.15388
2279.69469	0.15399
2277.76602	0.15412
2275.83734	0.15432
2273.90867	0.15454
2271.97999	0.15477
2270.05131	0.15498
2268.12264	0.15513
2266.19396	0.15528
2264.26529	0.15549
2262.33661	0.15568
2260.40794	0.15581
2258.47926	0.15593
2256.55058	0.15608
2254.62191	0.15624
2252.69323	0.15642
2250.76456	0.15659
2248.83588	0.15675
2246.90721	0.15691
2244.97853	0.15708
2243.04985	0.15727
2241.12118	0.15747
2239.19250	0.15767
2237.26383	0.15782
2235.33515	0.15794
2233.40648	0.15810
2231.47780	0.15828
2229.54912	0.15844
2227.62045	0.15857
2225.69177	0.15871
2223.76310	0.15889
2221.83442	0.15910
2219.90575	0.15929
2217.97707	0.15944
2216.04839	0.15955
2214.11972	0.15968
2212.19104	0.15982
2210.26237	0.15995
2208.33369	0.16009
2206.40502	0.16028
2204.47634	0.16048
2202.54766	0.16068
2200.61899	0.16087
2198.69031	0.16106
2196.76164	0.16122
2194.83296	0.16135
2192.90429	0.16148
2190.97561	0.16167
2189.04693	0.16186
2187.11826	0.16200
2185.18958	0.16214
2183.26091	0.16231
2181.33223	0.16249
2179.40356	0.16265
2177.47488	0.16282
2175.54620	0.16301
2173.61753	0.16317
2171.68885	0.16330
2169.76018	0.16343
2167.83150	0.16358
2165.90283	0.16377
2163.97415	0.16397
2162.04547	0.16414
2160.11680	0.16427
2158.18812	0.16443
2156.25945	0.16461
2154.33077	0.16478
2152.40210	0.16494
2150.47342	0.16509
2148.54474	0.16522
2146.61607	0.16539
2144.68739	0.16559
2142.75872	0.16572
2140.83004	0.16583
2138.90137	0.16597
2136.97269	0.16614
2135.04401	0.16634
2133.11534	0.16654
2131.18666	0.16671
2129.25799	0.16689
2127.32931	0.16708
2125.40064	0.16726
2123.47196	0.16744
2121.54328	0.16764
2119.61461	0.16783
2117.68593	0.16798
2115.75726	0.16811
2113.82858	0.16824
2111.89991	0.16841
2109.97123	0.16864
2108.04255	0.16885
2106.11388	0.16904
2104.18520	0.16921
2102.25653	0.16935
2100.32785	0.16946
2098.39918	0.16958
2096.47050	0.16978
2094.54182	0.17001
2092.61315	0.17019
2090.68447	0.17037
2088.75580	0.17055
2086.82712	0.17068
2084.89845	0.17081
2082.96977	0.17099
2081.04109	0.17118
2079.11242	0.17129
2077.18374	0.17136
2075.25507	0.17153
2073.32639	0.17177
2071.39772	0.17195
2069.46904	0.17207
2067.54036	0.17220
2065.61169	0.17235
2063.68301	0.17256
2061.75434	0.17282
2059.82566	0.17302
2057.89699	0.17315
2055.96831	0.17324
2054.03963	0.17336
2052.11096	0.17352
2050.18228	0.17370
2048.25361	0.17391
2046.32493	0.17411
2044.39626	0.17425
2042.46758	0.17435
2040.53890	0.17451
2038.61023	0.17477
2036.68155	0.17505
2034.75288	0.17524
2032.82420	0.17537
2030.89553	0.17551
2028.96685	0.17568
2027.03817	0.17585
2025.10950	0.17602
2023.18082	0.17620
2021.25215	0.17639
2019.32347	0.17653
2017.39480	0.17666
2015.46612	0.17686
2013.53744	0.17710
2011.60877	0.17732
2009.68009	0.17748
2007.75142	0.17759
2005.82274	0.17771
2003.89407	0.17789
2001.96539	0.17811
2000.03671	0.17831
1998.10804	0.17845
1996.17936	0.17860
1994.25069	0.17869
1992.32201	0.17874
1990.39334	0.17886
1988.46466	0.17905
1986.53598	0.17918
1984.60731	0.17932
1982.67863	0.17951
1980.74996	0.17971
1978.82128	0.17990
1976.89261	0.18009
1974.96393	0.18026
1973.03525	0.18037
1971.10658	0.18044
1969.17790	0.18053
1967.24923	0.18066
1965.32055	0.18082
1963.39188	0.18100
1961.46320	0.18115
1959.53452	0.18127
1957.60585	0.18140
1955.67717	0.18157
1953.74850	0.18173
1951.81982	0.18186
1949.89115	0.18202
1947.96247	0.18223
1946.03379	0.18238
1944.10512	0.18244
1942.17644	0.18256
1940.24777	0.18278
1938.31909	0.18299
1936.39042	0.18320
1934.46174	0.18343
1932.53306	0.18363
1930.60439	0.18377
1928.67571	0.18388
1926.74704	0.18402
1924.81836	0.18415
1922.88969	0.18424
1920.96101	0.18434
1919.03233	0.18445
1917.10366	0.18468
1915.17498	0.18507
1913.24631	0.18541
1911.31763	0.18558
1909.38896	0.18565
1907.46028	0.18577
1905.53160	0.18597
1903.60293	0.18618
1901.67425	0.18635
1899.74558	0.18645
1897.81690	0.18652
1895.88823	0.18664
1893.95955	0.18681
1892.03087	0.18693
1890.10220	0.18703
1888.17352	0.18725
1886.24485	0.18751
1884.31617	0.18768
1882.38750	0.18783
1880.45882	0.18800
1878.53014	0.18816
1876.60147	0.18829
1874.67279	0.18841
1872.74412	0.18846
1870.81544	0.18839
1868.88677	0.18839
1866.95809	0.18866
1865.02941	0.18903
1863.10074	0.18931
1861.17206	0.18951
1859.24339	0.18969
1857.31471	0.18988
1855.38604	0.19011
1853.45736	0.19035
1851.52868	0.19054
1849.60001	0.19063
1847.67133	0.19061
1845.74266	0.19059
1843.81398	0.19078
1841.88531	0.19117
1839.95663	0.19150
1838.02795	0.19169
1836.09928	0.19184
1834.17060	0.19195
1832.24193	0.19195
1830.31325	0.19197
1828.38458	0.19215
1826.45590	0.19236
1824.52722	0.19255
1822.59855	0.19279
1820.66987	0.19299
1818.74120	0.19312
1816.81252	0.19326
1814.88385	0.19346
1812.95517	0.19364
1811.02649	0.19381
1809.09782	0.19401
1807.16914	0.19416
1805.24047	0.19419
1803.31179	0.19415
1801.38312	0.19418
1799.45444	0.19437
1797.52576	0.19458
1795.59709	0.19453
1793.66841	0.19438
1791.73974	0.19456
1789.81106	0.19508
1787.88239	0.19542
1785.95371	0.19544
1784.02503	0.19546
1782.09636	0.19560
1780.16768	0.19579
1778.23901	0.19600
1776.31033	0.19608
1774.38166	0.19599
1772.45298	0.19592
1770.52430	0.19604
1768.59563	0.19632
1766.66695	0.19659
1764.73828	0.19670
1762.80960	0.19663
1760.88093	0.19669
1758.95225	0.19690
1757.02357	0.19709
1755.09490	0.19711
1753.16622	0.19674
1751.23755	0.19633
1749.30887	0.19638
1747.38020	0.19670
1745.45152	0.19685
1743.52284	0.19681
1741.59417	0.19670
1739.66549	0.19670
1737.73682	0.19679
1735.80814	0.19671
1733.87947	0.19664
1731.95079	0.19695
1730.02211	0.19745
1728.09344	0.19783
1726.16476	0.19803
1724.23609	0.19812
1722.30741	0.19818
1720.37874	0.19803
1718.45006	0.19777
1716.52138	0.19788
1714.59271	0.19836
1712.66403	0.19881
1710.73536	0.19907
1708.80668	0.19911
1706.87801	0.19899
1704.94933	0.19887
1703.02065	0.19862
1701.09198	0.19831
1699.16330	0.19842
1697.23463	0.19887
1695.30595	0.19928
1693.37728	0.19961
1691.44860	0.19971
1689.51992	0.19964
1687.59125	0.19955
1685.66257	0.19929
1683.73390	0.19917
1681.80522	0.19949
1679.87655	0.19989
1677.94787	0.19989
1676.01919	0.19967
1674.09052	0.19963
1672.16184	0.19969
1670.23317	0.19975
1668.30449	0.20003
1666.37582	0.20029
1664.44714	0.20018
1662.51846	0.20012
1660.58979	0.20041
1658.66111	0.20064
1656.73244	0.20036
1654.80376	0.19964
1652.87509	0.19930
1650.94641	0.19962
1649.01773	0.19986
1647.08906	0.19994
1645.16038	0.20043
1643.23171	0.20101
1641.30303	0.20119
1639.37436	0.20099
1637.44568	0.20062
1635.51700	0.20053
1633.58833	0.20090
1631.65965	0.20126
1629.73098	0.20131
1627.80230	0.20125
1625.87363	0.20109
1623.94495	0.20073
1622.01627	0.20036
1620.08760	0.20018
1618.15892	0.20024
1616.23025	0.20082
1614.30157	0.20182
1612.37290	0.20257
1610.44422	0.20287
1608.51554	0.20309
1606.58687	0.20337
1604.65819	0.20361
1602.72952	0.20380
1600.80084	0.20398
1598.87217	0.20414
1596.94349	0.20428
1595.01481	0.20447
1593.08614	0.20472
1591.15746	0.20495
1589.22879	0.20512
1587.30011	0.20522
1585.37144	0.20533
1583.44276	0.20550
1581.51408	0.20570
1579.58541	0.20573
1577.65673	0.20555
1575.72806	0.20555
1573.79938	0.20594
1571.87071	0.20624
1569.94203	0.20631
1568.01335	0.20645
1566.08468	0.20667
1564.15600	0.20669
1562.22733	0.20623
1560.29865	0.20556
1558.36998	0.20562
1556.44130	0.20645
1554.51262	0.20722
1552.58395	0.20765
1550.65527	0.20788
1548.72660	0.20795
1546.79792	0.20776
1544.86925	0.20741
1542.94057	0.20710
1541.01189	0.20702
1539.08322	0.20741
1537.15454	0.20796
1535.22587	0.20806
1533.29719	0.20802
1531.36852	0.20827
1529.43984	0.20847
1527.51116	0.20834
1525.58249	0.20810
1523.65381	0.20778
1521.72514	0.20758
1519.79646	0.20780
1517.86779	0.20825
1515.93911	0.20871
1514.01043	0.20907
1512.08176	0.20911
1510.15308	0.20876
1508.22441	0.20825
1506.29573	0.20821
1504.36706	0.20890
1502.43838	0.20946
1500.50970	0.20931
1498.58103	0.20901
1496.65235	0.20915
1494.72368	0.20950
1492.79500	0.20946
1490.86633	0.20901
1488.93765	0.20868
1487.00897	0.20877
1485.08030	0.20908
1483.15162	0.20924
1481.22295	0.20918
1479.29427	0.20893
1477.36560	0.20842
1475.43692	0.20783
1473.50824	0.20736
1471.57957	0.20716
1469.65089	0.20721
1467.72222	0.20705
1465.79354	0.20662
1463.86487	0.20639
1461.93619	0.20631
1460.00751	0.20575
1458.07884	0.20490
1456.15016	0.20480
1454.22149	0.20548
1452.29281	0.20597
1450.36414	0.20602
1448.43546	0.20600
1446.50678	0.20611
1444.57811	0.20633
1442.64943	0.20652
1440.72076	0.20653
1438.79208	0.20622
1436.86341	0.20605
1434.93473	0.20645
1433.00605	0.20694
1431.07738	0.20708
1429.14870	0.20717
1427.22003	0.20739
1425.29135	0.20757
1423.36268	0.20764
1421.43400	0.20749
1419.50532	0.20722
1417.57665	0.20727
1415.64797	0.20759
1413.71930	0.20776
1411.79062	0.20776
1409.86195	0.20778
1407.93327	0.20782
1406.00459	0.20780
1404.07592	0.20777
1402.14724	0.20764
1400.21857	0.20731
1398.28989	0.20705
1396.36122	0.20704
1394.43254	0.20724
1392.50386	0.20749
1390.57519	0.20737
1388.64651	0.20679
1386.71784	0.20632
1384.78916	0.20628
1382.86049	0.20650
1380.93181	0.20670
1379.00313	0.20673
1377.07446	0.20662
1375.14578	0.20654
1373.21711	0.20661
1371.28843	0.20670
1369.35976	0.20671
1367.43108	0.20673
1365.50240	0.20672
1363.57373	0.20657
1361.64505	0.20644
1359.71638	0.20652
1357.78770	0.20670
1355.85903	0.20682
1353.93035	0.20690
1352.00167	0.20699
1350.07300	0.20708
1348.14432	0.20717
1346.21565	0.20726
1344.28697	0.20730
1342.35830	0.20717
1340.42962	0.20694
1338.50094	0.20681
1336.57227	0.20681
1334.64359	0.20678
1332.71492	0.20673
1330.78624	0.20671
1328.85757	0.20667
1326.92889	0.20657
1325.00021	0.20640
1323.07154	0.20612
1321.14286	0.20581
1319.21419	0.20566
1317.28551	0.20563
1315.35684	0.20553
1313.42816	0.20530
1311.49948	0.20501
1309.57081	0.20474
1307.64213	0.20449
1305.71346	0.20425
1303.78478	0.20407
1301.85611	0.20393
1299.92743	0.20374
1297.99875	0.20351
1296.07008	0.20338
1294.14140	0.20332
1292.21273	0.20321
1290.28405	0.20299
1288.35538	0.20268
1286.42670	0.20237
1284.49802	0.20213
1282.56935	0.20188
1280.64067	0.20162
1278.71200	0.20139
1276.78332	0.20112
1274.85465	0.20070
1272.92597	0.20008
1270.99729	0.19939
1269.06862	0.19864
1267.13994	0.19774
1265.21127	0.19680
1263.28259	0.19611
1261.35392	0.19586
1259.42524	0.19595
1257.49656	0.19615
1255.56789	0.19627
1253.63921	0.19626
1251.71054	0.19610
1249.78186	0.19582
1247.85319	0.19548
1245.92451	0.19510
1243.99583	0.19472
1242.06716	0.19433
1240.13848	0.19391
1238.20981	0.19344
1236.28113	0.19290
1234.35246	0.19228
1232.42378	0.19163
1230.49510	0.19099
1228.56643	0.19041
1226.63775	0.18984
1224.70908	0.18925
1222.78040	0.18868
1220.85173	0.18814
1218.92305	0.18760
1216.99437	0.18709
1215.06570	0.18659
1213.13702	0.18603
1211.20835	0.18540
1209.27967	0.18482
1207.35100	0.18432
1205.42232	0.18387
1203.49364	0.18337
1201.56497	0.18277
1199.63629	0.18210
1197.70762	0.18136
1195.77894	0.18059
1193.85027	0.17990
1191.92159	0.17930
1189.99291	0.17866
1188.06424	0.17796
1186.13556	0.17720
1184.20689	0.17633
1182.27821	0.17536
1180.34954	0.17444
1178.42086	0.17367
1176.49218	0.17295
1174.56351	0.17209
1172.63483	0.17111
1170.70616	0.17011
1168.77748	0.16921
1166.84881	0.16837
1164.92013	0.16747
1162.99145	0.16659
1161.06278	0.16582
1159.13410	0.16504
1157.20543	0.16417
1155.27675	0.16328
1153.34808	0.16248
1151.41940	0.16175
1149.49072	0.16099
1147.56205	0.16016
1145.63337	0.15929
1143.70470	0.15838
1141.77602	0.15742
1139.84735	0.15645
1137.91867	0.15545
1135.98999	0.15430
1134.06132	0.15287
1132.13264	0.15112
1130.20397	0.14911
1128.27529	0.14694
1126.34662	0.14464
1124.41794	0.14221
1122.48926	0.13976
1120.56059	0.13742
1118.63191	0.13518
1116.70324	0.13306
1114.77456	0.13116
1112.84589	0.12957
1110.91721	0.12828
1108.98853	0.12726
1107.05986	0.12652
1105.13118	0.12611
1103.20251	0.12609
1101.27383	0.12641
1099.34516	0.12691
1097.41648	0.12752
1095.48780	0.12830
1093.55913	0.12920
1091.63045	0.13008
1089.70178	0.13086
1087.77310	0.13152
1085.84443	0.13213
1083.91575	0.13269
1081.98707	0.13305
1080.05840	0.13324
1078.12972	0.13341
1076.20105	0.13360
1074.27237	0.13375
1072.34370	0.13389
1070.41502	0.13405
1068.48634	0.13418
1066.55767	0.13425
1064.62899	0.13440
1062.70032	0.13467
1060.77164	0.13491
1058.84297	0.13512
1056.91429	0.13538
1054.98561	0.13576
1053.05694	0.13617
1051.12826	0.13650
1049.19959	0.13681
1047.27091	0.13715
1045.34224	0.13749
1043.41356	0.13785
1041.48488	0.13823
1039.55621	0.13864
1037.62753	0.13909
1035.69886	0.13957
1033.77018	0.14006
1031.84151	0.14048
1029.91283	0.14079
1027.98415	0.14107
1026.05548	0.14137
1024.12680	0.14173
1022.19813	0.14221
1020.26945	0.14274
1018.34078	0.14319
1016.41210	0.14358
1014.48342	0.14410
1012.55475	0.14474
1010.62607	0.14537
1008.69740	0.14597
1006.76872	0.14660
1004.84005	0.14720
1002.91137	0.14763
1000.98269	0.14795
999.05402	0.14827
997.12534	0.14855
995.19667	0.14876
993.26799	0.14888
991.33932	0.14892
989.41064	0.14899
987.48196	0.14914
985.55329	0.14929
983.62461	0.14936
981.69594	0.14929
979.76726	0.14911
977.83859	0.14884
975.90991	0.14858
973.98123	0.14840
972.05256	0.14828
970.12388	0.14816
968.19521	0.14795
966.26653	0.14768
964.33786	0.14749
962.40918	0.14740
960.48050	0.14731
958.55183	0.14722
956.62315	0.14706
954.69448	0.14676
952.76580	0.14646
950.83713	0.14626
948.90845	0.14602
946.97977	0.14563
945.05110	0.14528
943.12242	0.14506
941.19375	0.14481
939.26507	0.14447
937.33640	0.14414
935.40772	0.14380
933.47904	0.14329
931.55037	0.14264
929.62169	0.14201
927.69302	0.14149
925.76434	0.14104
923.83567	0.14050
921.90699	0.13981
919.97831	0.13908
918.04964	0.13844
916.12096	0.13778
914.19229	0.13703
912.26361	0.13621
910.33494	0.13542
908.40626	0.13467
906.47758	0.13401
904.54891	0.13347
902.62023	0.13299
900.69156	0.13240
898.76288	0.13171
896.83421	0.13109
894.90553	0.13055
892.97685	0.13002
891.04818	0.12952
889.11950	0.12908
887.19083	0.12867
885.26215	0.12821
883.33348	0.12770
881.40480	0.12729
879.47612	0.12712
877.54745	0.12703
875.61877	0.12678
873.69010	0.12642
871.76142	0.12618
869.83275	0.12603
867.90407	0.12575
865.97539	0.12533
864.04672	0.12507
862.11804	0.12508
860.18937	0.12517
858.26069	0.12510
856.33202	0.12484
854.40334	0.12457
852.47466	0.12436
850.54599	0.12409
848.61731	0.12385
846.68864	0.12375
844.75996	0.12363
842.83129	0.12327
840.90261	0.12279
838.97394	0.12238
837.04526	0.12193
835.11658	0.12131
833.18791	0.12066
831.25923	0.11992
829.33056	0.11891
827.40188	0.11768
825.47321	0.11650
823.54453	0.11551
821.61585	0.11467
819.68718	0.11399
817.75850	0.11354
815.82983	0.11324
813.90115	0.11291
811.97248	0.11249
810.04380	0.11215
808.11512	0.11192
806.18645	0.11173
804.25777	0.11162
802.32910	0.11160
800.40042	0.11146
798.47175	0.11106
796.54307	0.11052
794.61439	0.11000
792.68572	0.10960
790.75704	0.10928
788.82837	0.10907
786.89969	0.10892
784.97102	0.10867
783.04234	0.10830
781.11366	0.10792
779.18499	0.10764
777.25631	0.10742
775.32764	0.10716
773.39896	0.10686
771.47029	0.10657
769.54161	0.10620
767.61293	0.10577
765.68426	0.10538
763.75558	0.10500
761.82691	0.10458
759.89823	0.10408
757.96956	0.10349
756.04088	0.10285
754.11220	0.10222
752.18353	0.10158
750.25485	0.10086
748.32618	0.10005
746.39750	0.09921
744.46883	0.09828
742.54015	0.09726
740.61147	0.09641
738.68280	0.09599
736.75412	0.09589
734.82545	0.09596
732.89677	0.09609
730.96810	0.09617
729.03942	0.09618
727.11074	0.09623
725.18207	0.09634
723.25339	0.09646
721.32472	0.09662
719.39604	0.09682
717.46737	0.09713
715.53869	0.09764
713.61001	0.09821
711.68134	0.09857
709.75266	0.09862
707.82399	0.09855
705.89531	0.09850
703.96664	0.09843
702.03796	0.09820
700.10928	0.09779
698.18061	0.09727
696.25193	0.09673
694.32326	0.09618
692.39458	0.09556
690.46591	0.09490
688.53723	0.09435
686.60855	0.09388
684.67988	0.09336
682.75120	0.09289
680.82253	0.09242
678.89385	0.09181
676.96518	0.09111
675.03650	0.09044
673.10782	0.08970
671.17915	0.08882
669.25047	0.08786
667.32180	0.08705
665.39312	0.08643
663.46445	0.08566
661.53577	0.08470
659.60709	0.08374
657.67842	0.08285
655.74974	0.08205
653.82107	0.08133
651.89239	0.08057
649.96372	0.07972
648.03504	0.07881
646.10636	0.07783
644.17769	0.07685
642.24901	0.07584
640.32034	0.07476
638.39166	0.07373
636.46299	0.07277
634.53431	0.07167
632.60563	0.07007
630.67696	0.06766
628.74828	0.06413
626.81961	0.05955
624.89093	0.05486
622.96226	0.05113
621.03358	0.04884
619.10490	0.04764
617.17623	0.04678
615.24755	0.04596
613.31888	0.04502
611.39020	0.04412
609.46153	0.04373
607.53285	0.04386
605.60417	0.04418
603.67550	0.04473
601.74682	0.04554
599.81815	0.04642
597.88947	0.04726
595.96080	0.04802
594.03212	0.04858
592.10344	0.04881
590.17477	0.04876
588.24609	0.04859
586.31742	0.04847
584.38874	0.04832
582.46007	0.04803
580.53139	0.04768
578.60271	0.04730
576.67404	0.04671
574.74536	0.04587
572.81669	0.04505
570.88801	0.04430
568.95934	0.04358
567.03066	0.04314
565.10198	0.04300
563.17331	0.04286
561.24463	0.04262
559.31596	0.04239
557.38728	0.04215
555.45861	0.04184
553.52993	0.04156
551.60125	0.04146
549.67258	0.04147
547.74390	0.04142
545.81523	0.04130
543.88655	0.04115
541.95788	0.04086
540.02920	0.04046
538.10052	0.04019
536.17185	0.04013
534.24317	0.04010
532.31450	0.03992
530.38582	0.03959
528.45715	0.03915
526.52847	0.03868
524.59979	0.03829
522.67112	0.03799
520.74244	0.03767
518.81377	0.03713
516.88509	0.03639
514.95642	0.03571
513.02774	0.03532
511.09906	0.03512
509.17039	0.03491
507.24171	0.03462
505.31304	0.03435
503.38436	0.03408
501.45569	0.03376
499.52701	0.03337
497.59833	0.03279
495.66966	0.03198
493.74098	0.03130
491.81231	0.03082
489.88363	0.03033
487.95496	0.02990
486.02628	0.02952
484.09760	0.02890
482.16893	0.02801
480.24025	0.02718
478.31158	0.02663
476.38290	0.02619
474.45423	0.02566
472.52555	0.02511
470.59687	0.02481
468.66820	0.02460
466.73952	0.02426
464.81085	0.02397
462.88217	0.02387
460.95350	0.02374
459.02482	0.02350
457.09614	0.02326
455.16747	0.02311
453.23879	0.02308
451.31012	0.02311
449.38144	0.02308
447.45277	0.02298
445.52409	0.02291
443.59541	0.02280
441.66674	0.02247
439.73806	0.02206
437.80939	0.02178
435.88071	0.02159
433.95204	0.02119
432.02336	0.02049
430.09468	0.01975
428.16601	0.01906
426.23733	0.01835
424.30866	0.01765
422.37998	0.01705
420.45131	0.01645
418.52263	0.01579
416.59395	0.01515
414.66528	0.01445
412.73660	0.01368
410.80793	0.01296
408.87925	0.01233
406.95058	0.01173
405.02190	0.01108
403.09322	0.01040
401.16455	0.00975
399.23587	0.00914
397.30720	0.00868
395.37852	0.00825
393.44985	0.00763
391.52117	0.00697
389.59249	0.00655
387.66382	0.00625
385.73514	0.00595
383.80647	0.00570
381.87779	0.00536
379.94912	0.00484
378.02044	0.00434
376.09176	0.00405
374.16309	0.00392
372.23441	0.00372
370.30574	0.00334
368.37706	0.00287
