7496.76250	0.00203
7494.83382	0.00203
7492.90514	0.00204
7490.97647	0.00205
7489.04779	0.00206
7487.11912	0.00207
7485.19044	0.00210
7483.26177	0.00213
7481.33309	0.00213
7479.40441	0.00212
7477.47574	0.00213
7475.54706	0.00215
7473.61839	0.00216
7471.68971	0.00215
7469.76104	0.00215
7467.83236	0.00216
7465.90368	0.00216
7463.97501	0.00214
7462.04633	0.00213
7460.11766	0.00212
7458.18898	0.00213
7456.26031	0.00216
7454.33163	0.00219
7452.40295	0.00220
7450.47428	0.00219
7448.54560	0.00218
7446.61693	0.00219
7444.68825	0.00220
7442.75958	0.00221
7440.83090	0.00222
7438.90222	0.00221
7436.97355	0.00222
7435.04487	0.00224
7433.11620	0.00226
7431.18752	0.00225
7429.25885	0.00224
7427.33017	0.00225
7425.40149	0.00227
7423.47282	0.00228
7421.54414	0.00226
7419.61547	0.00226
7417.68679	0.00227
7415.75812	0.00229
7413.82944	0.00230
7411.90076	0.00229
7409.97209	0.00228
7408.04341	0.00228
7406.11474	0.00230
7404.18606	0.00232
7402.25739	0.00234
7400.32871	0.00235
7398.40003	0.00235
7396.47136	0.00236
7394.54268	0.00238
7392.61401	0.00239
7390.68533	0.00239
7388.75666	0.00239
7386.82798	0.00240
7384.89930	0.00240
7382.97063	0.00239
7381.04195	0.00239
7379.11328	0.00241
7377.18460	0.00244
7375.25593	0.00246
7373.32725	0.00244
7371.39857	0.00243
7369.46990	0.00242
7367.54122	0.00244
7365.61255	0.00246
7363.68387	0.00247
7361.75520	0.00247
7359.82652	0.00247
7357.89784	0.00247
7355.96917	0.00249
7354.04049	0.00249
7352.11182	0.00249
7350.18314	0.00249
7348.25447	0.00251
7346.32579	0.00252
7344.39711	0.00252
7342.46844	0.00250
7340.53976	0.00250
7338.61109	0.00253
7336.68241	0.00255
7334.75374	0.00256
7332.82506	0.00256
7330.89638	0.00254
7328.96771	0.00252
7327.03903	0.00252
7325.11036	0.00254
7323.18168	0.00256
7321.25301	0.00257
7319.32433	0.00259
7317.39565	0.00261
7315.46698	0.00260
7313.53830	0.00259
7311.60963	0.00261
7309.68095	0.00263
7307.75228	0.00263
7305.82360	0.00261
7303.89492	0.00262
7301.96625	0.00263
7300.03757	0.00264
7298.10890	0.00265
7296.18022	0.00265
7294.25155	0.00266
7292.32287	0.00267
7290.39419	0.00265
7288.46552	0.00265
7286.53684	0.00266
7284.60817	0.00268
7282.67949	0.00269
7280.75082	0.00270
7278.82214	0.00272
7276.89346	0.00273
7274.96479	0.00274
7273.03611	0.00274
7271.10744	0.00274
7269.17876	0.00275
7267.25009	0.00276
7265.32141	0.00276
7263.39273	0.00276
7261.46406	0.00277
7259.53538	0.00277
7257.60671	0.00277
7255.67803	0.00279
7253.74936	0.00282
7251.82068	0.00284
7249.89200	0.00283
7247.96333	0.00282
7246.03465	0.00285
7244.10598	0.00287
7242.17730	0.00288
7240.24863	0.00287
7238.31995	0.00289
7236.39127	0.00291
7234.46260	0.00292
7232.53392	0.00290
7230.60525	0.00290
7228.67657	0.00290
7226.74790	0.00290
7224.81922	0.00291
7222.89054	0.00292
7220.96187	0.00291
7219.03319	0.00292
7217.10452	0.00294
7215.17584	0.00295
7213.24717	0.00295
7211.31849	0.00296
7209.38981	0.00297
7207.46114	0.00297
7205.53246	0.00296
7203.60379	0.00297
7201.67511	0.00300
7199.74644	0.00304
7197.81776	0.00305
7195.88908	0.00305
7193.96041	0.00303
7192.03173	0.00304
7190.10306	0.00304
7188.17438	0.00305
7186.24571	0.00306
7184.31703	0.00307
7182.38835	0.00308
7180.45968	0.00308
7178.53100	0.00307
7176.60233	0.00306
7174.67365	0.00306
7172.74498	0.00307
7170.81630	0.00309
7168.88762	0.00312
7166.95895	0.00314
7165.03027	0.00314
7163.10160	0.00313
7161.17292	0.00313
7159.24425	0.00314
7157.31557	0.00315
7155.38689	0.00316
7153.45822	0.00319
7151.52954	0.00321
7149.60087	0.00319
7147.67219	0.00317
7145.74352	0.00316
7143.81484	0.00317
7141.88616	0.00320
7139.95749	0.00321
7138.02881	0.00323
7136.10014	0.00325
7134.17146	0.00326
7132.24279	0.00325
7130.31411	0.00324
7128.38543	0.00325
7126.45676	0.00326
7124.52808	0.00326
7122.59941	0.00326
7120.67073	0.00325
7118.74206	0.00326
7116.81338	0.00327
7114.88470	0.00330
7112.95603	0.00332
7111.02735	0.00333
7109.09868	0.00331
7107.17000	0.00328
7105.24133	0.00328
7103.31265	0.00331
7101.38397	0.00335
7099.45530	0.00338
7097.52662	0.00339
7095.59795	0.00340
7093.66927	0.00339
7091.74060	0.00339
7089.81192	0.00338
7087.88324	0.00337
7085.95457	0.00340
7084.02589	0.00344
7082.09722	0.00347
7080.16854	0.00347
7078.23987	0.00345
7076.31119	0.00344
7074.38251	0.00344
7072.45384	0.00345
7070.52516	0.00346
7068.59649	0.00348
7066.66781	0.00351
7064.73914	0.00352
7062.81046	0.00350
7060.88178	0.00348
7058.95311	0.00350
7057.02443	0.00354
7055.09576	0.00357
7053.16708	0.00358
7051.23841	0.00358
7049.30973	0.00357
7047.38105	0.00355
7045.45238	0.00355
7043.52370	0.00356
7041.59503	0.00359
7039.66635	0.00362
7037.73768	0.00363
7035.80900	0.00363
7033.88032	0.00364
7031.95165	0.00365
7030.02297	0.00365
7028.09430	0.00364
7026.16562	0.00365
7024.23695	0.00366
7022.30827	0.00367
7020.37959	0.00368
7018.45092	0.00370
7016.52224	0.00371
7014.59357	0.00372
7012.66489	0.00373
7010.73622	0.00374
7008.80754	0.00373
7006.87886	0.00373
7004.95019	0.00373
7003.02151	0.00373
7001.09284	0.00374
6999.16416	0.00375
6997.23549	0.00375
6995.30681	0.00376
6993.37813	0.00380
6991.44946	0.00382
6989.52078	0.00383
6987.59211	0.00382
6985.66343	0.00383
6983.73476	0.00385
6981.80608	0.00386
6979.87740	0.00388
6977.94873	0.00389
6976.02005	0.00390
6974.09138	0.00391
6972.16270	0.00390
6970.23403	0.00389
6968.30535	0.00389
6966.37667	0.00390
6964.44800	0.00393
6962.51932	0.00395
6960.59065	0.00394
6958.66197	0.00392
6956.73330	0.00392
6954.80462	0.00393
6952.87594	0.00393
6950.94727	0.00394
6949.01859	0.00396
6947.08992	0.00399
6945.16124	0.00402
6943.23257	0.00405
6941.30389	0.00405
6939.37521	0.00406
6937.44654	0.00407
6935.51786	0.00407
6933.58919	0.00406
6931.66051	0.00408
6929.73184	0.00409
6927.80316	0.00409
6925.87448	0.00410
6923.94581	0.00411
6922.01713	0.00413
6920.08846	0.00414
6918.15978	0.00414
6916.23111	0.00414
6914.30243	0.00415
6912.37375	0.00415
6910.44508	0.00416
6908.51640	0.00418
6906.58773	0.00418
6904.65905	0.00417
6902.73038	0.00418
6900.80170	0.00421
6898.87302	0.00423
6896.94435	0.00424
6895.01567	0.00423
6893.08700	0.00424
6891.15832	0.00426
6889.22965	0.00429
6887.30097	0.00431
6885.37229	0.00431
6883.44362	0.00430
6881.51494	0.00431
6879.58627	0.00432
6877.65759	0.00432
6875.72892	0.00433
6873.80024	0.00434
6871.87156	0.00433
6869.94289	0.00432
6868.01421	0.00433
6866.08554	0.00437
6864.15686	0.00440
6862.22819	0.00441
6860.29951	0.00440
6858.37083	0.00439
6856.44216	0.00438
6854.51348	0.00439
6852.58481	0.00440
6850.65613	0.00440
6848.72746	0.00441
6846.79878	0.00445
6844.87010	0.00449
6842.94143	0.00450
6841.01275	0.00450
6839.08408	0.00451
6837.15540	0.00452
6835.22673	0.00453
6833.29805	0.00455
6831.36937	0.00456
6829.44070	0.00456
6827.51202	0.00456
6825.58335	0.00456
6823.65467	0.00456
6821.72600	0.00457
6819.79732	0.00458
6817.86864	0.00460
6815.93997	0.00461
6814.01129	0.00463
6812.08262	0.00466
6810.15394	0.00468
6808.22527	0.00468
6806.29659	0.00466
6804.36791	0.00464
6802.43924	0.00464
6800.51056	0.00466
6798.58189	0.00469
6796.65321	0.00472
6794.72454	0.00473
6792.79586	0.00473
6790.86718	0.00473
6788.93851	0.00474
6787.00983	0.00477
6785.08116	0.00480
6783.15248	0.00483
6781.22381	0.00484
6779.29513	0.00484
6777.36645	0.00482
6775.43778	0.00481
6773.50910	0.00482
6771.58043	0.00484
6769.65175	0.00484
6767.72308	0.00484
6765.79440	0.00486
6763.86572	0.00488
6761.93705	0.00489
6760.00837	0.00491
6758.07970	0.00495
6756.15102	0.00499
6754.22235	0.00502
6752.29367	0.00501
6750.36499	0.00499
6748.43632	0.00499
6746.50764	0.00501
6744.57897	0.00502
6742.65029	0.00503
6740.72162	0.00504
6738.79294	0.00504
6736.86426	0.00501
6734.93559	0.00500
6733.00691	0.00502
6731.07824	0.00505
6729.14956	0.00507
6727.22089	0.00509
6725.29221	0.00512
6723.36353	0.00513
6721.43486	0.00514
6719.50618	0.00514
6717.57751	0.00516
6715.64883	0.00516
6713.72016	0.00515
6711.79148	0.00515
6709.86280	0.00517
6707.93413	0.00517
6706.00545	0.00514
6704.07678	0.00514
6702.14810	0.00518
6700.21943	0.00523
6698.29075	0.00526
6696.36207	0.00526
6694.43340	0.00526
6692.50472	0.00527
6690.57605	0.00530
6688.64737	0.00533
6686.71870	0.00535
6684.79002	0.00536
6682.86134	0.00535
6680.93267	0.00534
6679.00399	0.00535
6677.07532	0.00537
6675.14664	0.00538
6673.21797	0.00538
6671.28929	0.00540
6669.36061	0.00544
6667.43194	0.00547
6665.50326	0.00547
6663.57459	0.00545
6661.64591	0.00546
6659.71724	0.00549
6657.78856	0.00552
6655.85988	0.00554
6653.93121	0.00553
6652.00253	0.00553
6650.07386	0.00554
6648.14518	0.00554
6646.21651	0.00554
6644.28783	0.00555
6642.35915	0.00557
6640.43048	0.00558
6638.50180	0.00559
6636.57313	0.00561
6634.64445	0.00563
6632.71578	0.00565
6630.78710	0.00567
6628.85842	0.00567
6626.92975	0.00567
6625.00107	0.00568
6623.07240	0.00570
6621.14372	0.00572
6619.21505	0.00573
6617.28637	0.00574
6615.35769	0.00575
6613.42902	0.00577
6611.50034	0.00578
6609.57167	0.00580
6607.64299	0.00582
6605.71432	0.00583
6603.78564	0.00584
6601.85696	0.00587
6599.92829	0.00587
6597.99961	0.00587
6596.07094	0.00588
6594.14226	0.00589
6592.21359	0.00592
6590.28491	0.00594
6588.35623	0.00596
6586.42756	0.00597
6584.49888	0.00595
6582.57021	0.00593
6580.64153	0.00594
6578.71286	0.00596
6576.78418	0.00598
6574.85550	0.00601
6572.92683	0.00604
6570.99815	0.00605
6569.06948	0.00607
6567.14080	0.00610
6565.21213	0.00610
6563.28345	0.00608
6561.35477	0.00609
6559.42610	0.00612
6557.49742	0.00614
6555.56875	0.00616
6553.64007	0.00618
6551.71140	0.00618
6549.78272	0.00617
6547.85404	0.00616
6545.92537	0.00617
6543.99669	0.00620
6542.06802	0.00623
6540.13934	0.00625
6538.21067	0.00626
6536.28199	0.00626
6534.35331	0.00627
6532.42464	0.00629
6530.49596	0.00630
6528.56729	0.00630
6526.63861	0.00630
6524.70994	0.00631
6522.78126	0.00634
6520.85258	0.00636
6518.92391	0.00639
6516.99523	0.00641
6515.06656	0.00642
6513.13788	0.00642
6511.20921	0.00644
6509.28053	0.00647
6507.35185	0.00649
6505.42318	0.00650
6503.49450	0.00651
6501.56583	0.00654
6499.63715	0.00658
6497.70848	0.00659
6495.77980	0.00658
6493.85112	0.00658
6491.92245	0.00660
6489.99377	0.00662
6488.06510	0.00663
6486.13642	0.00663
6484.20775	0.00662
6482.27907	0.00661
6480.35039	0.00661
6478.42172	0.00663
6476.49304	0.00665
6474.56437	0.00668
6472.63569	0.00670
6470.70702	0.00672
6468.77834	0.00673
6466.84966	0.00675
6464.92099	0.00677
6462.99231	0.00678
6461.06364	0.00679
6459.13496	0.00681
6457.20629	0.00682
6455.27761	0.00684
6453.34893	0.00685
6451.42026	0.00689
6449.49158	0.00693
6447.56291	0.00692
6445.63423	0.00690
6443.70556	0.00691
6441.77688	0.00694
6439.84820	0.00697
6437.91953	0.00699
6435.99085	0.00699
6434.06218	0.00697
6432.13350	0.00696
6430.20483	0.00699
6428.27615	0.00701
6426.34747	0.00704
6424.41880	0.00708
6422.49012	0.00711
6420.56145	0.00713
6418.63277	0.00713
6416.70410	0.00715
6414.77542	0.00718
6412.84674	0.00719
6410.91807	0.00720
6408.98939	0.00720
6407.06072	0.00721
6405.13204	0.00723
6403.20337	0.00725
6401.27469	0.00727
6399.34601	0.00729
6397.41734	0.00731
6395.48866	0.00733
6393.55999	0.00736
6391.63131	0.00736
6389.70264	0.00735
6387.77396	0.00735
6385.84528	0.00737
6383.91661	0.00740
6381.98793	0.00741
6380.05926	0.00741
6378.13058	0.00740
6376.20191	0.00743
6374.27323	0.00747
6372.34455	0.00750
6370.41588	0.00753
6368.48720	0.00756
6366.55853	0.00756
6364.62985	0.00755
6362.70118	0.00757
6360.77250	0.00760
6358.84382	0.00762
6356.91515	0.00763
6354.98647	0.00764
6353.05780	0.00764
6351.12912	0.00766
6349.20045	0.00769
6347.27177	0.00771
6345.34309	0.00772
6343.41442	0.00773
6341.48574	0.00774
6339.55707	0.00777
6337.62839	0.00778
6335.69972	0.00779
6333.77104	0.00781
6331.84236	0.00785
6329.91369	0.00790
6327.98501	0.00792
6326.05634	0.00790
6324.12766	0.00789
6322.19899	0.00793
6320.27031	0.00797
6318.34163	0.00798
6316.41296	0.00799
6314.48428	0.00798
6312.55561	0.00798
6310.62693	0.00801
6308.69826	0.00805
6306.76958	0.00808
6304.84090	0.00811
6302.91223	0.00813
6300.98355	0.00813
6299.05488	0.00812
6297.12620	0.00812
6295.19753	0.00814
6293.26885	0.00816
6291.34017	0.00817
6289.41150	0.00820
6287.48282	0.00823
6285.55415	0.00826
6283.62547	0.00828
6281.69680	0.00829
6279.76812	0.00829
6277.83944	0.00831
6275.91077	0.00836
6273.98209	0.00841
6272.05342	0.00842
6270.12474	0.00840
6268.19607	0.00840
6266.26739	0.00841
6264.33871	0.00841
6262.41004	0.00842
6260.48136	0.00846
6258.55269	0.00849
6256.62401	0.00852
6254.69534	0.00854
6252.76666	0.00854
6250.83798	0.00853
6248.90931	0.00853
6246.98063	0.00857
6245.05196	0.00861
6243.12328	0.00864
6241.19461	0.00864
6239.26593	0.00865
6237.33725	0.00869
6235.40858	0.00870
6233.47990	0.00872
6231.55123	0.00875
6229.62255	0.00878
6227.69388	0.00882
6225.76520	0.00885
6223.83652	0.00886
6221.90785	0.00887
6219.97917	0.00891
6218.05050	0.00896
6216.12182	0.00896
6214.19315	0.00894
6212.26447	0.00893
6210.33579	0.00892
6208.40712	0.00895
6206.47844	0.00899
6204.54977	0.00904
6202.62109	0.00906
6200.69242	0.00908
6198.76374	0.00909
6196.83506	0.00910
6194.90639	0.00911
6192.97771	0.00911
6191.04904	0.00913
6189.12036	0.00916
6187.19169	0.00920
6185.26301	0.00922
6183.33433	0.00923
6181.40566	0.00923
6179.47698	0.00924
6177.54831	0.00928
6175.61963	0.00931
6173.69096	0.00932
6171.76228	0.00935
6169.83360	0.00938
6167.90493	0.00941
6165.97625	0.00943
6164.04758	0.00945
6162.11890	0.00948
6160.19023	0.00951
6158.26155	0.00953
6156.33287	0.00954
6154.40420	0.00955
6152.47552	0.00957
6150.54685	0.00960
6148.61817	0.00964
6146.68950	0.00966
6144.76082	0.00966
6142.83214	0.00967
6140.90347	0.00969
6138.97479	0.00972
6137.04612	0.00974
6135.11744	0.00974
6133.18877	0.00975
6131.26009	0.00977
6129.33141	0.00978
6127.40274	0.00979
6125.47406	0.00981
6123.54539	0.00984
6121.61671	0.00990
6119.68804	0.00996
6117.75936	0.00998
6115.83068	0.00998
6113.90201	0.00997
6111.97333	0.00998
6110.04466	0.01001
6108.11598	0.01003
6106.18731	0.01005
6104.25863	0.01007
6102.32995	0.01012
6100.40128	0.01017
6098.47260	0.01017
6096.54393	0.01017
6094.61525	0.01021
6092.68658	0.01025
6090.75790	0.01026
6088.82922	0.01026
6086.90055	0.01027
6084.97187	0.01029
6083.04320	0.01031
6081.11452	0.01031
6079.18585	0.01031
6077.25717	0.01034
6075.32849	0.01037
6073.39982	0.01041
6071.47114	0.01044
6069.54247	0.01046
6067.61379	0.01047
6065.68512	0.01048
6063.75644	0.01050
6061.82776	0.01055
6059.89909	0.01061
6057.97041	0.01063
6056.04174	0.01064
6054.11306	0.01065
6052.18439	0.01066
6050.25571	0.01067
6048.32703	0.01070
6046.39836	0.01073
6044.46968	0.01074
6042.54101	0.01075
6040.61233	0.01077
6038.68366	0.01081
6036.75498	0.01085
6034.82630	0.01088
6032.89763	0.01089
6030.96895	0.01091
6029.04028	0.01094
6027.11160	0.01098
6025.18293	0.01101
6023.25425	0.01103
6021.32557	0.01106
6019.39690	0.01106
6017.46822	0.01107
6015.53955	0.01110
6013.61087	0.01113
6011.68220	0.01114
6009.75352	0.01117
6007.82484	0.01122
6005.89617	0.01124
6003.96749	0.01125
6002.03882	0.01127
6000.11014	0.01130
5998.18147	0.01133
5996.25279	0.01136
5994.32411	0.01137
5992.39544	0.01138
5990.46676	0.01138
5988.53809	0.01140
5986.60941	0.01144
5984.68074	0.01149
5982.75206	0.01153
5980.82338	0.01154
5978.89471	0.01154
5976.96603	0.01155
5975.03736	0.01159
5973.10868	0.01164
5971.18001	0.01166
5969.25133	0.01168
5967.32265	0.01172
5965.39398	0.01176
5963.46530	0.01179
5961.53663	0.01180
5959.60795	0.01181
5957.67928	0.01185
5955.75060	0.01189
5953.82192	0.01193
5951.89325	0.01195
5949.96457	0.01197
5948.03590	0.01197
5946.10722	0.01198
5944.17855	0.01202
5942.24987	0.01207
5940.32119	0.01211
5938.39252	0.01212
5936.46384	0.01211
5934.53517	0.01210
5932.60649	0.01213
5930.67782	0.01216
5928.74914	0.01218
5926.82046	0.01222
5924.89179	0.01227
5922.96311	0.01230
5921.03444	0.01233
5919.10576	0.01237
5917.17709	0.01238
5915.24841	0.01240
5913.31973	0.01242
5911.39106	0.01244
5909.46238	0.01246
5907.53371	0.01248
5905.60503	0.01252
5903.67636	0.01255
5901.74768	0.01257
5899.81900	0.01261
5897.89033	0.01265
5895.96165	0.01269
5894.03298	0.01271
5892.10430	0.01273
5890.17563	0.01276
5888.24695	0.01279
5886.31827	0.01282
5884.38960	0.01283
5882.46092	0.01284
5880.53225	0.01286
5878.60357	0.01289
5876.67490	0.01290
5874.74622	0.01292
5872.81755	0.01295
5870.88887	0.01300
5868.96019	0.01305
5867.03152	0.01309
5865.10284	0.01312
5863.17417	0.01315
5861.24549	0.01316
5859.31682	0.01317
5857.38814	0.01318
5855.45946	0.01321
5853.53079	0.01325
5851.60211	0.01327
5849.67344	0.01329
5847.74476	0.01332
5845.81609	0.01335
5843.88741	0.01339
5841.95873	0.01340
5840.03006	0.01341
5838.10138	0.01343
5836.17271	0.01348
5834.24403	0.01354
5832.31536	0.01358
5830.38668	0.01362
5828.45800	0.01365
5826.52933	0.01365
5824.60065	0.01366
5822.67198	0.01370
5820.74330	0.01374
5818.81463	0.01377
5816.88595	0.01379
5814.95727	0.01384
5813.02860	0.01389
5811.09992	0.01391
5809.17125	0.01392
5807.24257	0.01392
5805.31390	0.01394
5803.38522	0.01398
5801.45654	0.01402
5799.52787	0.01405
5797.59919	0.01407
5795.67052	0.01410
5793.74184	0.01413
5791.81317	0.01416
5789.88449	0.01419
5787.95581	0.01422
5786.02714	0.01424
5784.09846	0.01429
5782.16979	0.01435
5780.24111	0.01438
5778.31244	0.01439
5776.38376	0.01440
5774.45508	0.01441
5772.52641	0.01443
5770.59773	0.01447
5768.66906	0.01452
5766.74038	0.01457
5764.81171	0.01460
5762.88303	0.01462
5760.95435	0.01461
5759.02568	0.01461
5757.09700	0.01464
5755.16833	0.01470
5753.23965	0.01476
5751.31098	0.01482
5749.38230	0.01487
5747.45362	0.01490
5745.52495	0.01491
5743.59627	0.01492
5741.66760	0.01495
5739.73892	0.01499
5737.81025	0.01505
5735.88157	0.01508
5733.95289	0.01508
5732.02422	0.01508
5730.09554	0.01511
5728.16687	0.01514
5726.23819	0.01519
5724.30952	0.01524
5722.38084	0.01528
5720.45216	0.01531
5718.52349	0.01533
5716.59481	0.01535
5714.66614	0.01540
5712.73746	0.01543
5710.80879	0.01544
5708.88011	0.01546
5706.95143	0.01550
5705.02276	0.01552
5703.09408	0.01554
5701.16541	0.01559
5699.23673	0.01565
5697.30806	0.01570
5695.37938	0.01572
5693.45070	0.01574
5691.52203	0.01578
5689.59335	0.01585
5687.66468	0.01590
5685.73600	0.01590
5683.80733	0.01588
5681.87865	0.01588
5679.94997	0.01593
5678.02130	0.01601
5676.09262	0.01604
5674.16395	0.01604
5672.23527	0.01608
5670.30660	0.01614
5668.37792	0.01618
5666.44924	0.01619
5664.52057	0.01621
5662.59189	0.01624
5660.66322	0.01628
5658.73454	0.01633
5656.80587	0.01637
5654.87719	0.01640
5652.94851	0.01644
5651.01984	0.01648
5649.09116	0.01648
5647.16249	0.01648
5645.23381	0.01650
5643.30514	0.01654
5641.37646	0.01660
5639.44778	0.01665
5637.51911	0.01667
5635.59043	0.01668
5633.66176	0.01672
5631.73308	0.01676
5629.80441	0.01679
5627.87573	0.01682
5625.94705	0.01686
5624.01838	0.01690
5622.08970	0.01694
5620.16103	0.01696
5618.23235	0.01700
5616.30368	0.01704
5614.37500	0.01707
5612.44632	0.01709
5610.51765	0.01714
5608.58897	0.01720
5606.66030	0.01725
5604.73162	0.01727
5602.80295	0.01729
5600.87427	0.01733
5598.94559	0.01737
5597.01692	0.01740
5595.08824	0.01743
5593.15957	0.01747
5591.23089	0.01751
5589.30222	0.01754
5587.37354	0.01755
5585.44486	0.01758
5583.51619	0.01763
5581.58751	0.01768
5579.65884	0.01773
5577.73016	0.01775
5575.80149	0.01774
5573.87281	0.01776
5571.94413	0.01780
5570.01546	0.01785
5568.08678	0.01792
5566.15811	0.01799
5564.22943	0.01802
5562.30076	0.01802
5560.37208	0.01804
5558.44340	0.01808
5556.51473	0.01813
5554.58605	0.01817
5552.65738	0.01819
5550.72870	0.01823
5548.80003	0.01827
5546.87135	0.01831
5544.94267	0.01833
5543.01400	0.01837
5541.08532	0.01840
5539.15665	0.01843
5537.22797	0.01847
5535.29930	0.01853
5533.37062	0.01857
5531.44194	0.01861
5529.51327	0.01866
5527.58459	0.01870
5525.65592	0.01871
5523.72724	0.01873
5521.79857	0.01875
5519.86989	0.01878
5517.94121	0.01880
5516.01254	0.01883
5514.08386	0.01889
5512.15519	0.01896
5510.22651	0.01901
5508.29784	0.01904
5506.36916	0.01906
5504.44048	0.01911
5502.51181	0.01915
5500.58313	0.01916
5498.65446	0.01918
5496.72578	0.01922
5494.79711	0.01925
5492.86843	0.01928
5490.93975	0.01933
5489.01108	0.01939
5487.08240	0.01944
5485.15373	0.01947
5483.22505	0.01949
5481.29638	0.01953
5479.36770	0.01958
5477.43902	0.01960
5475.51035	0.01964
5473.58167	0.01969
5471.65300	0.01973
5469.72432	0.01975
5467.79565	0.01980
5465.86697	0.01985
5463.93829	0.01986
5462.00962	0.01986
5460.08094	0.01993
5458.15227	0.02001
5456.22359	0.02003
5454.29492	0.02004
5452.36624	0.02006
5450.43756	0.02007
5448.50889	0.02009
5446.58021	0.02014
5444.65154	0.02021
5442.72286	0.02028
5440.79419	0.02032
5438.86551	0.02036
5436.93683	0.02041
5435.00816	0.02045
5433.07948	0.02050
5431.15081	0.02053
5429.22213	0.02055
5427.29346	0.02060
5425.36478	0.02066
5423.43610	0.02071
5421.50743	0.02074
5419.57875	0.02077
5417.65008	0.02080
5415.72140	0.02080
5413.79273	0.02081
5411.86405	0.02088
5409.93537	0.02096
5408.00670	0.02101
5406.07802	0.02104
5404.14935	0.02109
5402.22067	0.02116
5400.29200	0.02121
5398.36332	0.02121
5396.43464	0.02121
5394.50597	0.02125
5392.57729	0.02134
5390.64862	0.02141
5388.71994	0.02142
5386.79127	0.02143
5384.86259	0.02148
5382.93391	0.02152
5381.00524	0.02155
5379.07656	0.02159
5377.14789	0.02161
5375.21921	0.02164
5373.29054	0.02171
5371.36186	0.02178
5369.43318	0.02183
5367.50451	0.02185
5365.57583	0.02187
5363.64716	0.02190
5361.71848	0.02195
5359.78981	0.02199
5357.86113	0.02203
5355.93245	0.02204
5354.00378	0.02205
5352.07510	0.02210
5350.14643	0.02219
5348.21775	0.02224
5346.28908	0.02224
5344.36040	0.02226
5342.43172	0.02232
5340.50305	0.02235
5338.57437	0.02236
5336.64570	0.02241
5334.71702	0.02249
5332.78835	0.02256
5330.85967	0.02261
5328.93099	0.02264
5327.00232	0.02271
5325.07364	0.02280
5323.14497	0.02286
5321.21629	0.02288
5319.28762	0.02289
5317.35894	0.02292
5315.43026	0.02296
5313.50159	0.02300
5311.57291	0.02303
5309.64424	0.02305
5307.71556	0.02310
5305.78689	0.02316
5303.85821	0.02323
5301.92953	0.02327
5300.00086	0.02331
5298.07218	0.02335
5296.14351	0.02342
5294.21483	0.02349
5292.28616	0.02353
5290.35748	0.02356
5288.42880	0.02360
5286.50013	0.02363
5284.57145	0.02366
5282.64278	0.02371
5280.71410	0.02375
5278.78543	0.02378
5276.85675	0.02381
5274.92807	0.02384
5272.99940	0.02390
5271.07072	0.02397
5269.14205	0.02403
5267.21337	0.02405
5265.28470	0.02402
5263.35602	0.02402
5261.42734	0.02411
5259.49867	0.02421
5257.56999	0.02428
5255.64132	0.02430
5253.71264	0.02431
5251.78397	0.02433
5249.85529	0.02434
5247.92661	0.02437
5245.99794	0.02444
5244.06926	0.02454
5242.14059	0.02464
5240.21191	0.02468
5238.28324	0.02469
5236.35456	0.02472
5234.42588	0.02477
5232.49721	0.02480
5230.56853	0.02482
5228.63986	0.02484
5226.71118	0.02486
5224.78251	0.02489
5222.85383	0.02495
5220.92515	0.02504
5218.99648	0.02510
5217.06780	0.02515
5215.13913	0.02520
5213.21045	0.02526
5211.28178	0.02531
5209.35310	0.02533
5207.42442	0.02533
5205.49575	0.02535
5203.56707	0.02544
5201.63840	0.02554
5199.70972	0.02561
5197.78105	0.02565
5195.85237	0.02569
5193.92369	0.02574
5191.99502	0.02576
5190.06634	0.02579
5188.13767	0.02584
5186.20899	0.02590
5184.28032	0.02594
5182.35164	0.02597
5180.42296	0.02602
5178.49429	0.02607
5176.56561	0.02613
5174.63694	0.02618
5172.70826	0.02623
5170.77959	0.02630
5168.85091	0.02635
5166.92223	0.02639
5164.99356	0.02640
5163.06488	0.02642
5161.13621	0.02646
5159.20753	0.02650
5157.27886	0.02656
5155.35018	0.02664
5153.42150	0.02671
5151.49283	0.02677
5149.56415	0.02681
5147.63548	0.02683
5145.70680	0.02687
5143.77813	0.02692
5141.84945	0.02696
5139.92077	0.02702
5137.99210	0.02708
5136.06342	0.02711
5134.13475	0.02714
5132.20607	0.02717
5130.27740	0.02720
5128.34872	0.02724
5126.42004	0.02731
5124.49137	0.02737
5122.56269	0.02743
5120.63402	0.02752
5118.70534	0.02759
5116.77667	0.02761
5114.84799	0.02762
5112.91931	0.02764
5110.99064	0.02765
5109.06196	0.02769
5107.13329	0.02778
5105.20461	0.02786
5103.27594	0.02791
5101.34726	0.02794
5099.41858	0.02796
5097.48991	0.02800
5095.56123	0.02804
5093.63256	0.02810
5091.70388	0.02821
5089.77521	0.02829
5087.84653	0.02831
5085.91785	0.02832
5083.98918	0.02837
5082.06050	0.02843
5080.13183	0.02848
5078.20315	0.02854
5076.27448	0.02859
5074.34580	0.02863
5072.41712	0.02868
5070.48845	0.02875
5068.55977	0.02880
5066.63110	0.02884
5064.70242	0.02886
5062.77375	0.02889
5060.84507	0.02895
5058.91639	0.02902
5056.98772	0.02907
5055.05904	0.02910
5053.13037	0.02914
5051.20169	0.02920
5049.27302	0.02924
5047.34434	0.02926
5045.41566	0.02931
5043.48699	0.02940
5041.55831	0.02948
5039.62964	0.02954
5037.70096	0.02960
5035.77229	0.02963
5033.84361	0.02965
5031.91493	0.02966
5029.98626	0.02970
5028.05758	0.02974
5026.12891	0.02978
5024.20023	0.02984
5022.27156	0.02990
5020.34288	0.02997
5018.41420	0.03005
5016.48553	0.03009
5014.55685	0.03010
5012.62818	0.03016
5010.69950	0.03026
5008.77083	0.03034
5006.84215	0.03039
5004.91347	0.03046
5002.98480	0.03051
5001.05612	0.03054
4999.12745	0.03056
4997.19877	0.03060
4995.27010	0.03065
4993.34142	0.03071
4991.41274	0.03079
4989.48407	0.03083
4987.55539	0.03085
4985.62672	0.03090
4983.69804	0.03098
4981.76937	0.03105
4979.84069	0.03111
4977.91201	0.03119
4975.98334	0.03124
4974.05466	0.03125
4972.12599	0.03124
4970.19731	0.03128
4968.26864	0.03135
4966.33996	0.03142
4964.41128	0.03149
4962.48261	0.03156
4960.55393	0.03161
4958.62526	0.03163
4956.69658	0.03164
4954.76791	0.03171
4952.83923	0.03182
4950.91055	0.03189
4948.98188	0.03193
4947.05320	0.03198
4945.12453	0.03204
4943.19585	0.03208
4941.26718	0.03215
4939.33850	0.03222
4937.40982	0.03226
4935.48115	0.03229
4933.55247	0.03235
4931.62380	0.03240
4929.69512	0.03244
4927.76645	0.03248
4925.83777	0.03253
4923.90909	0.03260
4921.98042	0.03267
4920.05174	0.03271
4918.12307	0.03274
4916.19439	0.03279
4914.26572	0.03285
4912.33704	0.03291
4910.40836	0.03295
4908.47969	0.03298
4906.55101	0.03304
4904.62234	0.03313
4902.69366	0.03320
4900.76499	0.03323
4898.83631	0.03325
4896.90763	0.03330
4894.97896	0.03340
4893.05028	0.03349
4891.12161	0.03355
4889.19293	0.03361
4887.26426	0.03367
4885.33558	0.03372
4883.40690	0.03375
4881.47823	0.03381
4879.54955	0.03386
4877.62088	0.03391
4875.69220	0.03395
4873.76353	0.03397
4871.83485	0.03401
4869.90617	0.03407
4867.97750	0.03412
4866.04882	0.03415
4864.12015	0.03419
4862.19147	0.03426
4860.26280	0.03436
4858.33412	0.03443
4856.40544	0.03449
4854.47677	0.03455
4852.54809	0.03460
4850.61942	0.03467
4848.69074	0.03472
4846.76207	0.03477
4844.83339	0.03482
4842.90471	0.03487
4840.97604	0.03493
4839.04736	0.03499
4837.11869	0.03507
4835.19001	0.03515
4833.26134	0.03523
4831.33266	0.03527
4829.40398	0.03530
4827.47531	0.03533
4825.54663	0.03538
4823.61796	0.03543
4821.68928	0.03547
4819.76061	0.03551
4817.83193	0.03556
4815.90325	0.03563
4813.97458	0.03572
4812.04590	0.03578
4810.11723	0.03582
4808.18855	0.03589
4806.25988	0.03596
4804.33120	0.03601
4802.40252	0.03605
4800.47385	0.03612
4798.54517	0.03620
4796.61650	0.03630
4794.68782	0.03639
4792.75915	0.03642
4790.83047	0.03643
4788.90179	0.03646
4786.97312	0.03652
4785.04444	0.03659
4783.11577	0.03667
4781.18709	0.03672
4779.25842	0.03678
4777.32974	0.03684
4775.40106	0.03688
4773.47239	0.03692
4771.54371	0.03697
4769.61504	0.03703
4767.68636	0.03709
4765.75769	0.03717
4763.82901	0.03727
4761.90033	0.03736
4759.97166	0.03741
4758.04298	0.03746
4756.11431	0.03750
4754.18563	0.03753
4752.25696	0.03758
4750.32828	0.03766
4748.39960	0.03774
4746.47093	0.03780
4744.54225	0.03785
4742.61358	0.03791
4740.68490	0.03800
4738.75623	0.03808
4736.82755	0.03814
4734.89887	0.03820
4732.97020	0.03826
4731.04152	0.03832
4729.11285	0.03840
4727.18417	0.03847
4725.25550	0.03849
4723.32682	0.03850
4721.39814	0.03854
4719.46947	0.03862
4717.54079	0.03869
4715.61212	0.03876
4713.68344	0.03886
4711.75477	0.03894
4709.82609	0.03900
4707.89741	0.03904
4705.96874	0.03911
4704.04006	0.03920
4702.11139	0.03927
4700.18271	0.03933
4698.25404	0.03940
4696.32536	0.03947
4694.39668	0.03953
4692.46801	0.03957
4690.53933	0.03960
4688.61066	0.03963
4686.68198	0.03971
4684.75331	0.03981
4682.82463	0.03988
4680.89595	0.03994
4678.96728	0.04001
4677.03860	0.04008
4675.10993	0.04016
4673.18125	0.04025
4671.25258	0.04033
4669.32390	0.04037
4667.39522	0.04041
4665.46655	0.04048
4663.53787	0.04053
4661.60920	0.04059
4659.68052	0.04067
4657.75185	0.04073
4655.82317	0.04077
4653.89449	0.04084
4651.96582	0.04094
4650.03714	0.04104
4648.10847	0.04113
4646.17979	0.04120
4644.25112	0.04128
4642.32244	0.04134
4640.39376	0.04141
4638.46509	0.04147
4636.53641	0.04151
4634.60774	0.04152
4632.67906	0.04155
4630.75039	0.04165
4628.82171	0.04176
4626.89303	0.04184
4624.96436	0.04188
4623.03568	0.04194
4621.10701	0.04201
4619.17833	0.04207
4617.24966	0.04213
4615.32098	0.04221
4613.39230	0.04231
4611.46363	0.04241
4609.53495	0.04249
4607.60628	0.04259
4605.67760	0.04267
4603.74893	0.04271
4601.82025	0.04273
4599.89157	0.04276
4597.96290	0.04282
4596.03422	0.04288
4594.10555	0.04295
4592.17687	0.04305
4590.24820	0.04315
4588.31952	0.04326
4586.39084	0.04337
4584.46217	0.04344
4582.53349	0.04348
4580.60482	0.04353
4578.67614	0.04360
4576.74747	0.04366
4574.81879	0.04373
4572.89011	0.04382
4570.96144	0.04391
4569.03276	0.04399
4567.10409	0.04406
4565.17541	0.04413
4563.24674	0.04420
4561.31806	0.04426
4559.38938	0.04435
4557.46071	0.04447
4555.53203	0.04456
4553.60336	0.04457
4551.67468	0.04458
4549.74601	0.04464
4547.81733	0.04474
4545.88865	0.04484
4543.95998	0.04493
4542.03130	0.04500
4540.10263	0.04506
4538.17395	0.04514
4536.24528	0.04524
4534.31660	0.04532
4532.38792	0.04537
4530.45925	0.04543
4528.53057	0.04553
4526.60190	0.04565
4524.67322	0.04577
4522.74455	0.04585
4520.81587	0.04591
4518.88719	0.04597
4516.95852	0.04601
4515.02984	0.04608
4513.10117	0.04617
4511.17249	0.04625
4509.24382	0.04632
4507.31514	0.04637
4505.38646	0.04644
4503.45779	0.04654
4501.52911	0.04661
4499.60044	0.04667
4497.67176	0.04676
4495.74309	0.04686
4493.81441	0.04693
4491.88573	0.04702
4489.95706	0.04713
4488.02838	0.04721
4486.09971	0.04726
4484.17103	0.04732
4482.24236	0.04739
4480.31368	0.04749
4478.38500	0.04761
4476.45633	0.04772
4474.52765	0.04781
4472.59898	0.04787
4470.67030	0.04792
4468.74163	0.04799
4466.81295	0.04806
4464.88427	0.04813
4462.95560	0.04821
4461.02692	0.04830
4459.09825	0.04837
4457.16957	0.04843
4455.24090	0.04853
4453.31222	0.04865
4451.38354	0.04875
4449.45487	0.04883
4447.52619	0.04892
4445.59752	0.04901
4443.66884	0.04907
4441.74017	0.04913
4439.81149	0.04921
4437.88281	0.04932
4435.95414	0.04941
4434.02546	0.04947
4432.09679	0.04953
4430.16811	0.04963
4428.23944	0.04977
4426.31076	0.04989
4424.38208	0.05000
4422.45341	0.05009
4420.52473	0.05015
4418.59606	0.05024
4416.66738	0.05034
4414.73871	0.05042
4412.81003	0.05050
4410.88135	0.05058
4408.95268	0.05064
4407.02400	0.05071
4405.09533	0.05079
4403.16665	0.05086
4401.23798	0.05096
4399.30930	0.05106
4397.38062	0.05115
4395.45195	0.05124
4393.52327	0.05136
4391.59460	0.05148
4389.66592	0.05158
4387.73725	0.05168
4385.80857	0.05177
4383.87989	0.05182
4381.95122	0.05187
4380.02254	0.05195
4378.09387	0.05203
4376.16519	0.05212
4374.23652	0.05222
4372.30784	0.05234
4370.37916	0.05246
4368.45049	0.05253
4366.52181	0.05262
4364.59314	0.05271
4362.66446	0.05279
4360.73579	0.05290
4358.80711	0.05302
4356.87843	0.05312
4354.94976	0.05322
4353.02108	0.05332
4351.09241	0.05342
4349.16373	0.05351
4347.23506	0.05359
4345.30638	0.05367
4343.37770	0.05376
4341.44903	0.05385
4339.52035	0.05393
4337.59168	0.05400
4335.66300	0.05411
4333.73433	0.05422
4331.80565	0.05430
4329.87697	0.05440
4327.94830	0.05453
4326.01962	0.05465
4324.09095	0.05474
4322.16227	0.05482
4320.23360	0.05491
4318.30492	0.05502
4316.37624	0.05514
4314.44757	0.05527
4312.51889	0.05539
4310.59022	0.05547
4308.66154	0.05553
4306.73287	0.05562
4304.80419	0.05574
4302.87551	0.05585
4300.94684	0.05595
4299.01816	0.05604
4297.08949	0.05616
4295.16081	0.05626
4293.23214	0.05635
4291.30346	0.05643
4289.37478	0.05655
4287.44611	0.05670
4285.51743	0.05683
4283.58876	0.05693
4281.66008	0.05703
4279.73141	0.05716
4277.80273	0.05728
4275.87405	0.05736
4273.94538	0.05742
4272.01670	0.05749
4270.08803	0.05760
4268.15935	0.05771
4266.23068	0.05783
4264.30200	0.05795
4262.37332	0.05805
4260.44465	0.05814
4258.51597	0.05823
4256.58730	0.05833
4254.65862	0.05842
4252.72995	0.05850
4250.80127	0.05860
4248.87259	0.05871
4246.94392	0.05884
4245.01524	0.05897
4243.08657	0.05907
4241.15789	0.05916
4239.22922	0.05928
4237.30054	0.05940
4235.37186	0.05948
4233.44319	0.05957
4231.51451	0.05968
4229.58584	0.05981
4227.65716	0.05994
4225.72849	0.06006
4223.79981	0.06019
4221.87113	0.06029
4219.94246	0.06038
4218.01378	0.06050
4216.08511	0.06061
4214.15643	0.06071
4212.22776	0.06084
4210.29908	0.06097
4208.37040	0.06106
4206.44173	0.06115
4204.51305	0.06126
4202.58438	0.06139
4200.65570	0.06150
4198.72703	0.06160
4196.79835	0.06172
4194.86968	0.06186
4192.94100	0.06199
4191.01232	0.06210
4189.08365	0.06219
4187.15497	0.06229
4185.22630	0.06240
4183.29762	0.06253
4181.36895	0.06266
4179.44027	0.06280
4177.51159	0.06294
4175.58292	0.06306
4173.65424	0.06316
4171.72557	0.06327
4169.79689	0.06340
4167.86822	0.06353
4165.93954	0.06364
4164.01086	0.06374
4162.08219	0.06384
4160.15351	0.06395
4158.22484	0.06405
4156.29616	0.06415
4154.36749	0.06427
4152.43881	0.06443
4150.51013	0.06457
4148.58146	0.06469
4146.65278	0.06481
4144.72411	0.06494
4142.79543	0.06505
4140.86676	0.06517
4138.93808	0.06532
4137.00940	0.06546
4135.08073	0.06557
4133.15205	0.06568
4131.22338	0.06579
4129.29470	0.06591
4127.36603	0.06606
4125.43735	0.06620
4123.50867	0.06630
4121.58000	0.06638
4119.65132	0.06648
4117.72265	0.06660
4115.79397	0.06673
4113.86530	0.06685
4111.93662	0.06698
4110.00794	0.06712
4108.07927	0.06724
4106.15059	0.06733
4104.22192	0.06743
4102.29324	0.06756
4100.36457	0.06770
4098.43589	0.06785
4096.50721	0.06802
4094.57854	0.06817
4092.64986	0.06829
4090.72119	0.06842
4088.79251	0.06855
4086.86384	0.06867
4084.93516	0.06879
4083.00648	0.06892
4081.07781	0.06906
4079.14913	0.06917
4077.22046	0.06928
4075.29178	0.06941
4073.36311	0.06956
4071.43443	0.06970
4069.50575	0.06983
4067.57708	0.06998
4065.64840	0.07011
4063.71973	0.07022
4061.79105	0.07034
4059.86238	0.07050
4057.93370	0.07066
4056.00502	0.07081
4054.07635	0.07095
4052.14767	0.07108
4050.21900	0.07122
4048.29032	0.07135
4046.36165	0.07144
4044.43297	0.07156
4042.50429	0.07173
4040.57562	0.07191
4038.64694	0.07207
4036.71827	0.07223
4034.78959	0.07238
4032.86092	0.07247
4030.93224	0.07255
4029.00356	0.07266
4027.07489	0.07278
4025.14621	0.07289
4023.21754	0.07305
4021.28886	0.07323
4019.36019	0.07337
4017.43151	0.07348
4015.50283	0.07360
4013.57416	0.07373
4011.64548	0.07386
4009.71681	0.07399
4007.78813	0.07414
4005.85946	0.07430
4003.93078	0.07445
4002.00210	0.07459
4000.07343	0.07474
3998.14475	0.07490
3996.21608	0.07503
3994.28740	0.07512
3992.35873	0.07526
3990.43005	0.07544
3988.50137	0.07561
3986.57270	0.07574
3984.64402	0.07585
3982.71535	0.07598
3980.78667	0.07611
3978.85800	0.07622
3976.92932	0.07633
3975.00064	0.07650
3973.07197	0.07669
3971.14329	0.07684
3969.21462	0.07699
3967.28594	0.07716
3965.35727	0.07730
3963.42859	0.07740
3961.49991	0.07753
3959.57124	0.07767
3957.64256	0.07782
3955.71389	0.07796
3953.78521	0.07809
3951.85654	0.07818
3949.92786	0.07825
3947.99918	0.07837
3946.07051	0.07853
3944.14183	0.07864
3942.21316	0.07881
3940.28448	0.07908
3938.35581	0.07931
3936.42713	0.07941
3934.49845	0.07940
3932.56978	0.07941
3930.64110	0.07959
3928.71243	0.07988
3926.78375	0.08007
3924.85508	0.08017
3922.92640	0.08032
3920.99772	0.08044
3919.06905	0.08045
3917.14037	0.08054
3915.21170	0.08085
3913.28302	0.08120
3911.35435	0.08142
3909.42567	0.08150
3907.49699	0.08142
3905.56832	0.08120
3903.63964	0.08106
3901.71097	0.08115
3899.78229	0.08150
3897.85362	0.08204
3895.92494	0.08247
3893.99626	0.08256
3892.06759	0.08257
3890.13891	0.08276
3888.21024	0.08287
3886.28156	0.08284
3884.35289	0.08297
3882.42421	0.08311
3880.49553	0.08325
3878.56686	0.08364
3876.63818	0.08395
3874.70951	0.08396
3872.78083	0.08394
3870.85216	0.08396
3868.92348	0.08415
3866.99480	0.08441
3865.06613	0.08456
3863.13745	0.08477
3861.20878	0.08511
3859.28010	0.08534
3857.35143	0.08514
3855.42275	0.08461
3853.49407	0.08453
3851.56540	0.08522
3849.63672	0.08605
3847.70805	0.08648
3845.77937	0.08655
3843.85070	0.08649
3841.92202	0.08643
3839.99334	0.08645
3838.06467	0.08663
3836.13599	0.08693
3834.20732	0.08719
3832.27864	0.08743
3830.34997	0.08770
3828.42129	0.08790
3826.49261	0.08803
3824.56394	0.08808
3822.63526	0.08799
3820.70659	0.08804
3818.77791	0.08836
3816.84924	0.08867
3814.92056	0.08903
3812.99188	0.08948
3811.06321	0.08974
3809.13453	0.08971
3807.20586	0.08966
3805.27718	0.08974
3803.34851	0.08977
3801.41983	0.08983
3799.49115	0.09009
3797.56248	0.09039
3795.63380	0.09074
3793.70513	0.09117
3791.77645	0.09148
3789.84778	0.09163
3787.91910	0.09169
3785.99042	0.09175
3784.06175	0.09190
3782.13307	0.09202
3780.20440	0.09208
3778.27572	0.09231
3776.34705	0.09270
3774.41837	0.09296
3772.48969	0.09294
3770.56102	0.09286
3768.63234	0.09299
3766.70367	0.09322
3764.77499	0.09346
3762.84632	0.09366
3760.91764	0.09371
3758.98896	0.09377
3757.06029	0.09397
3755.13161	0.09404
3753.20294	0.09384
3751.27426	0.09367
3749.34559	0.09383
3747.41691	0.09395
3745.48823	0.09379
3743.55956	0.09406
3741.63088	0.09481
3739.70221	0.09515
3737.77353	0.09490
3735.84486	0.09469
3733.91618	0.09500
3731.98750	0.09567
3730.05883	0.09625
3728.13015	0.09648
3726.20148	0.09652
3724.27280	0.09667
3722.34413	0.09698
3720.41545	0.09735
3718.48677	0.09770
3716.55810	0.09788
3714.62942	0.09777
3712.70075	0.09758
3710.77207	0.09771
3708.84340	0.09820
3706.91472	0.09871
3704.98604	0.09895
3703.05737	0.09895
3701.12869	0.09908
3699.20002	0.09942
3697.27134	0.09973
3695.34267	0.09983
3693.41399	0.09969
3691.48531	0.09946
3689.55664	0.09950
3687.62796	0.09998
3685.69929	0.10057
3683.77061	0.10095
3681.84194	0.10107
3679.91326	0.10096
3677.98458	0.10066
3676.05591	0.10049
3674.12723	0.10075
3672.19856	0.10109
3670.26988	0.10127
3668.34121	0.10164
3666.41253	0.10218
3664.48385	0.10257
3662.55518	0.10280
3660.62650	0.10293
3658.69783	0.10289
3656.76915	0.10287
3654.84048	0.10296
3652.91180	0.10282
3650.98312	0.10232
3649.05445	0.10204
3647.12577	0.10242
3645.19710	0.10322
3643.26842	0.10388
3641.33975	0.10422
3639.41107	0.10446
3637.48239	0.10463
3635.55372	0.10469
3633.62504	0.10464
3631.69637	0.10436
3629.76769	0.10409
3627.83902	0.10441
3625.91034	0.10514
3623.98166	0.10555
3622.05299	0.10548
3620.12431	0.10525
3618.19564	0.10523
3616.26696	0.10539
3614.33829	0.10551
3612.40961	0.10561
3610.48093	0.10569
3608.55226	0.10586
3606.62358	0.10627
3604.69491	0.10670
3602.76623	0.10686
3600.83756	0.10687
3598.90888	0.10692
3596.98020	0.10700
3595.05153	0.10713
3593.12285	0.10732
3591.19418	0.10731
3589.26550	0.10703
3587.33683	0.10701
3585.40815	0.10749
3583.47947	0.10802
3581.55080	0.10831
3579.62212	0.10846
3577.69345	0.10859
3575.76477	0.10872
3573.83610	0.10890
3571.90742	0.10901
3569.97874	0.10880
3568.05007	0.10848
3566.12139	0.10860
3564.19272	0.10914
3562.26404	0.10962
3560.33537	0.10991
3558.40669	0.11011
3556.47801	0.11022
3554.54934	0.11023
3552.62066	0.11029
3550.69199	0.11044
3548.76331	0.11049
3546.83464	0.11045
3544.90596	0.11056
3542.97728	0.11083
3541.04861	0.11109
3539.11993	0.11126
3537.19126	0.11137
3535.26258	0.11150
3533.33391	0.11160
3531.40523	0.11160
3529.47655	0.11159
3527.54788	0.11165
3525.61920	0.11173
3523.69053	0.11181
3521.76185	0.11193
3519.83318	0.11206
3517.90450	0.11219
3515.97582	0.11235
3514.04715	0.11246
3512.11847	0.11247
3510.18980	0.11247
3508.26112	0.11255
3506.33245	0.11260
3504.40377	0.11257
3502.47509	0.11261
3500.54642	0.11275
3498.61774	0.11285
3496.68907	0.11289
3494.76039	0.11297
3492.83172	0.11308
3490.90304	0.11313
3488.97436	0.11314
3487.04569	0.11315
3485.11701	0.11319
3483.18834	0.11324
3481.25966	0.11334
3479.33099	0.11352
3477.40231	0.11371
3475.47363	0.11388
3473.54496	0.11403
3471.61628	0.11416
3469.68761	0.11430
3467.75893	0.11449
3465.83026	0.11469
3463.90158	0.11489
3461.97290	0.11506
3460.04423	0.11522
3458.11555	0.11542
3456.18688	0.11564
3454.25820	0.11584
3452.32953	0.11601
3450.40085	0.11615
3448.47217	0.11626
3446.54350	0.11639
3444.61482	0.11658
3442.68615	0.11678
3440.75747	0.11701
3438.82880	0.11734
3436.90012	0.11768
3434.97144	0.11802
3433.04277	0.11837
3431.11409	0.11873
3429.18542	0.11912
3427.25674	0.11952
3425.32807	0.11987
3423.39939	0.12019
3421.47071	0.12050
3419.54204	0.12082
3417.61336	0.12114
3415.68469	0.12147
3413.75601	0.12181
3411.82734	0.12212
3409.89866	0.12239
3407.96998	0.12266
3406.04131	0.12295
3404.11263	0.12321
3402.18396	0.12345
3400.25528	0.12366
3398.32661	0.12388
3396.39793	0.12412
3394.46925	0.12441
3392.54058	0.12469
3390.61190	0.12498
3388.68323	0.12525
3386.75455	0.12549
3384.82588	0.12572
3382.89720	0.12597
3380.96852	0.12624
3379.03985	0.12651
3377.11117	0.12674
3375.18250	0.12697
3373.25382	0.12722
3371.32515	0.12746
3369.39647	0.12769
3367.46779	0.12791
3365.53912	0.12811
3363.61044	0.12832
3361.68177	0.12859
3359.75309	0.12887
3357.82442	0.12911
3355.89574	0.12931
3353.96706	0.12953
3352.03839	0.12976
3350.10971	0.12998
3348.18104	0.13023
3346.25236	0.13052
3344.32369	0.13079
3342.39501	0.13102
3340.46633	0.13125
3338.53766	0.13145
3336.60898	0.13165
3334.68031	0.13188
3332.75163	0.13214
3330.82296	0.13239
3328.89428	0.13263
3326.96560	0.13287
3325.03693	0.13313
3323.10825	0.13340
3321.17958	0.13366
3319.25090	0.13391
3317.32223	0.13416
3315.39355	0.13440
3313.46487	0.13460
3311.53620	0.13482
3309.60752	0.13506
3307.67885	0.13533
3305.75017	0.13562
3303.82150	0.13590
3301.89282	0.13615
3299.96414	0.13639
3298.03547	0.13660
3296.10679	0.13682
3294.17812	0.13707
3292.24944	0.13729
3290.32077	0.13750
3288.39209	0.13774
3286.46341	0.13801
3284.53474	0.13828
3282.60606	0.13852
3280.67739	0.13876
3278.74871	0.13902
3276.82004	0.13928
3274.89136	0.13951
3272.96268	0.13972
3271.03401	0.14000
3269.10533	0.14031
3267.17666	0.14060
3265.24798	0.14086
3263.31931	0.14112
3261.39063	0.14137
3259.46195	0.14162
3257.53328	0.14188
3255.60460	0.14219
3253.67593	0.14252
3251.74725	0.14283
3249.81858	0.14306
3247.88990	0.14324
3245.96122	0.14344
3244.03255	0.14369
3242.10387	0.14398
3240.17520	0.14428
3238.24652	0.14456
3236.31785	0.14485
3234.38917	0.14509
3232.46049	0.14530
3230.53182	0.14553
3228.60314	0.14581
3226.67447	0.14609
3224.74579	0.14636
3222.81712	0.14660
3220.88844	0.14683
3218.95976	0.14708
3217.03109	0.14736
3215.10241	0.14759
3213.17374	0.14778
3211.24506	0.14799
3209.31639	0.14826
3207.38771	0.14854
3205.45903	0.14883
3203.53036	0.14914
3201.60168	0.14946
3199.67301	0.14974
3197.74433	0.15001
3195.81566	0.15028
3193.88698	0.15056
3191.95830	0.15084
3190.02963	0.15111
3188.10095	0.15137
3186.17228	0.15163
3184.24360	0.15190
3182.31493	0.15216
3180.38625	0.15241
3178.45757	0.15268
3176.52890	0.15300
3174.60022	0.15337
3172.67155	0.15369
3170.74287	0.15393
3168.81420	0.15414
3166.88552	0.15437
3164.95684	0.15465
3163.02817	0.15495
3161.09949	0.15524
3159.17082	0.15551
3157.24214	0.15576
3155.31347	0.15599
3153.38479	0.15624
3151.45611	0.15651
3149.52744	0.15681
3147.59876	0.15709
3145.67009	0.15734
3143.74141	0.15760
3141.81274	0.15791
3139.88406	0.15822
3137.95538	0.15846
3136.02671	0.15866
3134.09803	0.15888
3132.16936	0.15916
3130.24068	0.15946
3128.31201	0.15975
3126.38333	0.16002
3124.45465	0.16024
3122.52598	0.16047
3120.59730	0.16071
3118.66863	0.16095
3116.73995	0.16119
3114.81128	0.16145
3112.88260	0.16175
3110.95392	0.16209
3109.02525	0.16241
3107.09657	0.16269
3105.16790	0.16296
3103.23922	0.16322
3101.31055	0.16348
3099.38187	0.16372
3097.45319	0.16396
3095.52452	0.16422
3093.59584	0.16451
3091.66717	0.16479
3089.73849	0.16508
3087.80982	0.16538
3085.88114	0.16567
3083.95246	0.16594
3082.02379	0.16621
3080.09511	0.16649
3078.16644	0.16677
3076.23776	0.16703
3074.30909	0.16728
3072.38041	0.16750
3070.45173	0.16772
3068.52306	0.16794
3066.59438	0.16820
3064.66571	0.16851
3062.73703	0.16884
3060.80836	0.16915
3058.87968	0.16943
3056.95100	0.16970
3055.02233	0.16999
3053.09365	0.17026
3051.16498	0.17048
3049.23630	0.17070
3047.30763	0.17097
3045.37895	0.17126
3043.45027	0.17154
3041.52160	0.17182
3039.59292	0.17209
3037.66425	0.17232
3035.73557	0.17255
3033.80690	0.17277
3031.87822	0.17299
3029.94954	0.17327
3028.02087	0.17361
3026.09219	0.17392
3024.16352	0.17420
3022.23484	0.17446
3020.30617	0.17472
3018.37749	0.17499
3016.44881	0.17526
3014.52014	0.17552
3012.59146	0.17575
3010.66279	0.17600
3008.73411	0.17629
3006.80544	0.17658
3004.87676	0.17686
3002.94808	0.17712
3001.01941	0.17736
2999.09073	0.17761
2997.16206	0.17787
2995.23338	0.17810
2993.30471	0.17835
2991.37603	0.17862
2989.44735	0.17885
2987.51868	0.17902
2985.59000	0.17918
2983.66133	0.17936
2981.73265	0.17954
2979.80398	0.17970
2977.87530	0.17984
2975.94662	0.17995
2974.01795	0.17997
2972.08927	0.17991
2970.16060	0.17981
2968.23192	0.17973
2966.30325	0.17976
2964.37457	0.17992
2962.44589	0.18013
2960.51722	0.18036
2958.58854	0.18067
2956.65987	0.18104
2954.73119	0.18140
2952.80252	0.18173
2950.87384	0.18205
2948.94516	0.18234
2947.01649	0.18258
2945.08781	0.18276
2943.15914	0.18290
2941.23046	0.18300
2939.30179	0.18305
2937.37311	0.18307
2935.44443	0.18307
2933.51576	0.18304
2931.58708	0.18297
2929.65841	0.18288
2927.72973	0.18279
2925.80106	0.18275
2923.87238	0.18277
2921.94370	0.18287
2920.01503	0.18305
2918.08635	0.18334
2916.15768	0.18386
2914.22900	0.18469
2912.30033	0.18563
2910.37165	0.18644
2908.44297	0.18709
2906.51430	0.18765
2904.58562	0.18815
2902.65695	0.18861
2900.72827	0.18909
2898.79960	0.18953
2896.87092	0.18991
2894.94224	0.19027
2893.01357	0.19065
2891.08489	0.19103
2889.15622	0.19140
2887.22754	0.19174
2885.29887	0.19205
2883.37019	0.19234
2881.44151	0.19259
2879.51284	0.19281
2877.58416	0.19304
2875.65549	0.19328
2873.72681	0.19354
2871.79814	0.19381
2869.86946	0.19409
2867.94078	0.19441
2866.01211	0.19469
2864.08343	0.19486
2862.15476	0.19491
2860.22608	0.19495
2858.29741	0.19497
2856.36873	0.19495
2854.44005	0.19490
2852.51138	0.19488
2850.58270	0.19504
2848.65403	0.19556
2846.72535	0.19641
2844.79668	0.19735
2842.86800	0.19821
2840.93932	0.19891
2839.01065	0.19944
2837.08197	0.19987
2835.15330	0.20027
2833.22462	0.20066
2831.29595	0.20103
2829.36727	0.20142
2827.43859	0.20180
2825.50992	0.20211
2823.58124	0.20239
2821.65257	0.20268
2819.72389	0.20296
2817.79522	0.20326
2815.86654	0.20356
2813.93786	0.20384
2812.00919	0.20411
2810.08051	0.20438
2808.15184	0.20470
2806.22316	0.20505
2804.29449	0.20541
2802.36581	0.20574
2800.43713	0.20602
2798.50846	0.20628
2796.57978	0.20656
2794.65111	0.20686
2792.72243	0.20718
2790.79376	0.20748
2788.86508	0.20773
2786.93640	0.20801
2785.00773	0.20833
2783.07905	0.20865
2781.15038	0.20896
2779.22170	0.20926
2777.29303	0.20956
2775.36435	0.20985
2773.43567	0.21013
2771.50700	0.21040
2769.57832	0.21067
2767.64965	0.21093
2765.72097	0.21119
2763.79230	0.21147
2761.86362	0.21175
2759.93494	0.21206
2758.00627	0.21238
2756.07759	0.21268
2754.14892	0.21295
2752.22024	0.21320
2750.29157	0.21343
2748.36289	0.21371
2746.43421	0.21403
2744.50554	0.21431
2742.57686	0.21459
2740.64819	0.21493
2738.71951	0.21525
2736.79084	0.21552
2734.86216	0.21574
2732.93348	0.21597
2731.00481	0.21625
2729.07613	0.21655
2727.14746	0.21686
2725.21878	0.21718
2723.29011	0.21749
2721.36143	0.21778
2719.43275	0.21805
2717.50408	0.21830
2715.57540	0.21858
2713.64673	0.21886
2711.71805	0.21911
2709.78938	0.21939
2707.86070	0.21969
2705.93202	0.21993
2704.00335	0.22019
2702.07467	0.22051
2700.14600	0.22078
2698.21732	0.22099
2696.28865	0.22126
2694.35997	0.22162
2692.43129	0.22197
2690.50262	0.22226
2688.57394	0.22250
2686.64527	0.22272
2684.71659	0.22298
2682.78792	0.22329
2680.85924	0.22359
2678.93056	0.22382
2677.00189	0.22406
2675.07321	0.22433
2673.14454	0.22461
2671.21586	0.22489
2669.28719	0.22516
2667.35851	0.22543
2665.42983	0.22572
2663.50116	0.22603
2661.57248	0.22633
2659.64381	0.22661
2657.71513	0.22689
2655.78646	0.22720
2653.85778	0.22753
2651.92910	0.22784
2650.00043	0.22812
2648.07175	0.22840
2646.14308	0.22867
2644.21440	0.22893
2642.28573	0.22921
2640.35705	0.22952
2638.42837	0.22984
2636.49970	0.23015
2634.57102	0.23047
2632.64235	0.23079
2630.71367	0.23107
2628.78500	0.23136
2626.85632	0.23170
2624.92764	0.23204
2622.99897	0.23234
2621.07029	0.23264
2619.14162	0.23299
2617.21294	0.23332
2615.28427	0.23358
2613.35559	0.23384
2611.42691	0.23416
2609.49824	0.23452
2607.56956	0.23485
2605.64089	0.23512
2603.71221	0.23536
2601.78354	0.23563
2599.85486	0.23595
2597.92618	0.23629
2595.99751	0.23658
2594.06883	0.23686
2592.14016	0.23713
2590.21148	0.23740
2588.28281	0.23767
2586.35413	0.23794
2584.42545	0.23820
2582.49678	0.23851
2580.56810	0.23886
2578.63943	0.23919
2576.71075	0.23946
2574.78208	0.23972
2572.85340	0.24004
2570.92472	0.24037
2568.99605	0.24069
2567.06737	0.24099
2565.13870	0.24127
2563.21002	0.24152
2561.28135	0.24179
2559.35267	0.24209
2557.42399	0.24239
2555.49532	0.24267
2553.56664	0.24295
2551.63797	0.24322
2549.70929	0.24346
2547.78062	0.24371
2545.85194	0.24401
2543.92326	0.24439
2541.99459	0.24475
2540.06591	0.24505
2538.13724	0.24531
2536.20856	0.24559
2534.27989	0.24590
2532.35121	0.24617
2530.42253	0.24641
2528.49386	0.24668
2526.56518	0.24700
2524.63651	0.24735
2522.70783	0.24767
2520.77916	0.24795
2518.85048	0.24824
2516.92181	0.24856
2514.99313	0.24891
2513.06445	0.24927
2511.13578	0.24959
2509.20710	0.24989
2507.27843	0.25019
2505.34975	0.25046
2503.42108	0.25071
2501.49240	0.25102
2499.56372	0.25136
2497.63505	0.25170
2495.70637	0.25205
2493.77770	0.25240
2491.84902	0.25274
2489.92035	0.25303
2487.99167	0.25333
2486.06299	0.25368
2484.13432	0.25405
2482.20564	0.25439
2480.27697	0.25471
2478.34829	0.25500
2476.41962	0.25526
2474.49094	0.25552
2472.56226	0.25585
2470.63359	0.25626
2468.70491	0.25667
2466.77624	0.25700
2464.84756	0.25727
2462.91889	0.25751
2460.99021	0.25775
2459.06153	0.25803
2457.13286	0.25838
2455.20418	0.25875
2453.27551	0.25910
2451.34683	0.25945
2449.41816	0.25979
2447.48948	0.26007
2445.56080	0.26032
2443.63213	0.26061
2441.70345	0.26093
2439.77478	0.26124
2437.84610	0.26155
2435.91743	0.26185
2433.98875	0.26213
2432.06007	0.26240
2430.13140	0.26271
2428.20272	0.26310
2426.27405	0.26349
2424.34537	0.26381
2422.41670	0.26409
2420.48802	0.26440
2418.55934	0.26472
2416.63067	0.26504
2414.70199	0.26537
2412.77332	0.26568
2410.84464	0.26598
2408.91597	0.26627
2406.98729	0.26655
2405.05861	0.26685
2403.12994	0.26718
2401.20126	0.26749
2399.27259	0.26778
2397.34391	0.26807
2395.41524	0.26840
2393.48656	0.26873
2391.55788	0.26902
2389.62921	0.26934
2387.70053	0.26966
2385.77186	0.26992
2383.84318	0.27013
2381.91451	0.27033
2379.98583	0.27056
2378.05715	0.27075
2376.12848	0.27084
2374.19980	0.27088
2372.27113	0.27095
2370.34245	0.27105
2368.41378	0.27117
2366.48510	0.27133
2364.55642	0.27155
2362.62775	0.27180
2360.69907	0.27209
2358.77040	0.27243
2356.84172	0.27286
2354.91305	0.27340
2352.98437	0.27401
2351.05569	0.27467
2349.12702	0.27519
2347.19834	0.27540
2345.26967	0.27539
2343.34099	0.27538
2341.41232	0.27550
2339.48364	0.27578
2337.55496	0.27609
2335.62629	0.27638
2333.69761	0.27670
2331.76894	0.27709
2329.84026	0.27748
2327.91159	0.27784
2325.98291	0.27821
2324.05423	0.27862
2322.12556	0.27904
2320.19688	0.27948
2318.26821	0.27991
2316.33953	0.28032
2314.41086	0.28072
2312.48218	0.28110
2310.55350	0.28149
2308.62483	0.28189
2306.69615	0.28226
2304.76748	0.28260
2302.83880	0.28291
2300.91013	0.28319
2298.98145	0.28354
2297.05277	0.28395
2295.12410	0.28432
2293.19542	0.28464
2291.26675	0.28497
2289.33807	0.28529
2287.40940	0.28556
2285.48072	0.28584
2283.55204	0.28609
2281.62337	0.28630
2279.69469	0.28657
2277.76602	0.28693
2275.83734	0.28733
2273.90867	0.28767
2271.97999	0.28797
2270.05131	0.28833
2268.12264	0.28868
2266.19396	0.28895
2264.26529	0.28922
2262.33661	0.28956
2260.40794	0.28992
2258.47926	0.29021
2256.55058	0.29047
2254.62191	0.29076
2252.69323	0.29105
2250.76456	0.29132
2248.83588	0.29163
2246.90721	0.29196
2244.97853	0.29233
2243.04985	0.29272
2241.12118	0.29307
2239.19250	0.29337
2237.26383	0.29364
2235.33515	0.29392
2233.40648	0.29423
2231.47780	0.29454
2229.54912	0.29485
2227.62045	0.29518
2225.69177	0.29550
2223.76310	0.29580
2221.83442	0.29610
2219.90575	0.29640
2217.97707	0.29671
2216.04839	0.29701
2214.11972	0.29729
2212.19104	0.29757
2210.26237	0.29785
2208.33369	0.29814
2206.40502	0.29844
2204.47634	0.29877
2202.54766	0.29905
2200.61899	0.29931
2198.69031	0.29965
2196.76164	0.30003
2194.83296	0.30035
2192.90429	0.30062
2190.97561	0.30089
2189.04693	0.30113
2187.11826	0.30140
2185.18958	0.30175
2183.26091	0.30210
2181.33223	0.30244
2179.40356	0.30278
2177.47488	0.30310
2175.54620	0.30339
2173.61753	0.30368
2171.68885	0.30398
2169.76018	0.30427
2167.83150	0.30457
2165.90283	0.30495
2163.97415	0.30533
2162.04547	0.30564
2160.11680	0.30594
2158.18812	0.30628
2156.25945	0.30659
2154.33077	0.30686
2152.40210	0.30712
2150.47342	0.30741
2148.54474	0.30777
2146.61607	0.30817
2144.68739	0.30852
2142.75872	0.30881
2140.83004	0.30908
2138.90137	0.30934
2136.97269	0.30961
2135.04401	0.30994
2133.11534	0.31029
2131.18666	0.31061
2129.25799	0.31091
2127.32931	0.31119
2125.40064	0.31151
2123.47196	0.31189
2121.54328	0.31228
2119.61461	0.31259
2117.68593	0.31285
2115.75726	0.31310
2113.82858	0.31338
2111.89991	0.31372
2109.97123	0.31406
2108.04255	0.31440
2106.11388	0.31474
2104.18520	0.31503
2102.25653	0.31529
2100.32785	0.31558
2098.39918	0.31589
2096.47050	0.31620
2094.54182	0.31656
2092.61315	0.31692
2090.68447	0.31725
2088.75580	0.31754
2086.82712	0.31781
2084.89845	0.31809
2082.96977	0.31843
2081.04109	0.31879
2079.11242	0.31910
2077.18374	0.31937
2075.25507	0.31963
2073.32639	0.31991
2071.39772	0.32023
2069.46904	0.32056
2067.54036	0.32085
2065.61169	0.32113
2063.68301	0.32148
2061.75434	0.32186
2059.82566	0.32223
2057.89699	0.32256
2055.96831	0.32286
2054.03963	0.32318
2052.11096	0.32352
2050.18228	0.32384
2048.25361	0.32414
2046.32493	0.32440
2044.39626	0.32463
2042.46758	0.32493
2040.53890	0.32533
2038.61023	0.32573
2036.68155	0.32603
2034.75288	0.32634
2032.82420	0.32668
2030.89553	0.32698
2028.96685	0.32730
2027.03817	0.32765
2025.10950	0.32797
2023.18082	0.32822
2021.25215	0.32843
2019.32347	0.32865
2017.39480	0.32897
2015.46612	0.32942
2013.53744	0.32984
2011.60877	0.33018
2009.68009	0.33052
2007.75142	0.33091
2005.82274	0.33128
2003.89407	0.33157
2001.96539	0.33182
2000.03671	0.33207
1998.10804	0.33234
1996.17936	0.33257
1994.25069	0.33269
1992.32201	0.33281
1990.39334	0.33315
1988.46466	0.33362
1986.53598	0.33406
1984.60731	0.33443
1982.67863	0.33474
1980.74996	0.33500
1978.82128	0.33528
1976.89261	0.33554
1974.96393	0.33579
1973.03525	0.33606
1971.10658	0.33632
1969.17790	0.33644
1967.24923	0.33655
1965.32055	0.33690
1963.39188	0.33735
1961.46320	0.33770
1959.53452	0.33800
1957.60585	0.33826
1955.67717	0.33851
1953.74850	0.33883
1951.81982	0.33915
1949.89115	0.33944
1947.96247	0.33970
1946.03379	0.33986
1944.10512	0.33991
1942.17644	0.34015
1940.24777	0.34074
1938.31909	0.34135
1936.39042	0.34174
1934.46174	0.34205
1932.53306	0.34238
1930.60439	0.34267
1928.67571	0.34292
1926.74704	0.34310
1924.81836	0.34312
1922.88969	0.34316
1920.96101	0.34333
1919.03233	0.34352
1917.10366	0.34402
1915.17498	0.34483
1913.24631	0.34534
1911.31763	0.34542
1909.38896	0.34555
1907.46028	0.34603
1905.53160	0.34668
1903.60293	0.34722
1901.67425	0.34753
1899.74558	0.34770
1897.81690	0.34783
1895.88823	0.34797
1893.95955	0.34821
1892.03087	0.34841
1890.10220	0.34856
1888.17352	0.34897
1886.24485	0.34953
1884.31617	0.34991
1882.38750	0.35020
1880.45882	0.35052
1878.53014	0.35085
1876.60147	0.35121
1874.67279	0.35150
1872.74412	0.35148
1870.81544	0.35102
1868.88677	0.35077
1866.95809	0.35141
1865.02941	0.35245
1863.10074	0.35314
1861.17206	0.35352
1859.24339	0.35387
1857.31471	0.35427
1855.38604	0.35467
1853.45736	0.35501
1851.52868	0.35524
1849.60001	0.35529
1847.67133	0.35505
1845.74266	0.35465
1843.81398	0.35487
1841.88531	0.35595
1839.95663	0.35687
1838.02795	0.35719
1836.09928	0.35749
1834.17060	0.35786
1832.24193	0.35782
1830.31325	0.35761
1828.38458	0.35779
1826.45590	0.35817
1824.52722	0.35869
1822.59855	0.35948
1820.66987	0.36008
1818.74120	0.36033
1816.81252	0.36060
1814.88385	0.36085
1812.95517	0.36088
1811.02649	0.36094
1809.09782	0.36133
1807.16914	0.36182
1805.24047	0.36201
1803.31179	0.36181
1801.38312	0.36171
1799.45444	0.36211
1797.52576	0.36264
1795.59709	0.36277
1793.66841	0.36253
1791.73974	0.36260
1789.81106	0.36340
1787.88239	0.36413
1785.95371	0.36427
1784.02503	0.36431
1782.09636	0.36449
1780.16768	0.36477
1778.23901	0.36518
1776.31033	0.36534
1774.38166	0.36499
1772.45298	0.36463
1770.52430	0.36478
1768.59563	0.36540
1766.66695	0.36631
1764.73828	0.36690
1762.80960	0.36685
1760.88093	0.36687
1758.95225	0.36709
1757.02357	0.36727
1755.09490	0.36741
1753.16622	0.36691
1751.23755	0.36596
1749.30887	0.36572
1747.38020	0.36621
1745.45152	0.36667
1743.52284	0.36687
1741.59417	0.36705
1739.66549	0.36732
1737.73682	0.36732
1735.80814	0.36656
1733.87947	0.36611
1731.95079	0.36696
1730.02211	0.36824
1728.09344	0.36931
1726.16476	0.37001
1724.23609	0.37028
1722.30741	0.37027
1720.37874	0.36965
1718.45006	0.36879
1716.52138	0.36884
1714.59271	0.36983
1712.66403	0.37094
1710.73536	0.37157
1708.80668	0.37154
1706.87801	0.37115
1704.94933	0.37088
1703.02065	0.37014
1701.09198	0.36899
1699.16330	0.36890
1697.23463	0.36974
1695.30595	0.37076
1693.37728	0.37196
1691.44860	0.37247
1689.51992	0.37218
1687.59125	0.37156
1685.66257	0.37053
1683.73390	0.37016
1681.80522	0.37112
1679.87655	0.37224
1677.94787	0.37245
1676.01919	0.37207
1674.09052	0.37194
1672.16184	0.37187
1670.23317	0.37169
1668.30449	0.37233
1666.37582	0.37343
1664.44714	0.37365
1662.51846	0.37353
1660.58979	0.37397
1658.66111	0.37434
1656.73244	0.37341
1654.80376	0.37132
1652.87509	0.37053
1650.94641	0.37184
1649.01773	0.37272
1647.08906	0.37271
1645.16038	0.37348
1643.23171	0.37467
1641.30303	0.37515
1639.37436	0.37472
1637.44568	0.37379
1635.51700	0.37358
1633.58833	0.37474
1631.65965	0.37593
1629.73098	0.37605
1627.80230	0.37564
1625.87363	0.37510
1623.94495	0.37432
1622.01627	0.37376
1620.08760	0.37365
1618.15892	0.37387
1616.23025	0.37496
1614.30157	0.37678
1612.37290	0.37810
1610.44422	0.37858
1608.51554	0.37892
1606.58687	0.37945
1604.65819	0.37996
1602.72952	0.38038
1600.80084	0.38089
1598.87217	0.38140
1596.94349	0.38164
1595.01481	0.38176
1593.08614	0.38207
1591.15746	0.38260
1589.22879	0.38313
1587.30011	0.38355
1585.37144	0.38386
1583.44276	0.38416
1581.51408	0.38440
1579.58541	0.38422
1577.65673	0.38364
1575.72806	0.38366
1573.79938	0.38449
1571.87071	0.38479
1569.94203	0.38457
1568.01335	0.38491
1566.08468	0.38562
1564.15600	0.38598
1562.22733	0.38519
1560.29865	0.38334
1558.36998	0.38269
1556.44130	0.38432
1554.51262	0.38632
1552.58395	0.38729
1550.65527	0.38760
1548.72660	0.38789
1546.79792	0.38784
1544.86925	0.38695
1542.94057	0.38577
1541.01189	0.38524
1539.08322	0.38609
1537.15454	0.38765
1535.22587	0.38831
1533.29719	0.38839
1531.36852	0.38893
1529.43984	0.38928
1527.51116	0.38903
1525.58249	0.38873
1523.65381	0.38814
1521.72514	0.38743
1519.79646	0.38761
1517.86779	0.38842
1515.93911	0.38927
1514.01043	0.38996
1512.08176	0.38989
1510.15308	0.38883
1508.22441	0.38779
1506.29573	0.38842
1504.36706	0.39062
1502.43838	0.39218
1500.50970	0.39214
1498.58103	0.39168
1496.65235	0.39193
1494.72368	0.39270
1492.79500	0.39274
1490.86633	0.39190
1488.93765	0.39161
1487.00897	0.39247
1485.08030	0.39354
1483.15162	0.39397
1481.22295	0.39390
1479.29427	0.39354
1477.36560	0.39270
1475.43692	0.39165
1473.50824	0.39101
1471.57957	0.39125
1469.65089	0.39202
1467.72222	0.39221
1465.79354	0.39185
1463.86487	0.39193
1461.93619	0.39211
1460.00751	0.39109
1458.07884	0.38950
1456.15016	0.38956
1454.22149	0.39131
1452.29281	0.39284
1450.36414	0.39337
1448.43546	0.39340
1446.50678	0.39365
1444.57811	0.39416
1442.64943	0.39454
1440.72076	0.39442
1438.79208	0.39343
1436.86341	0.39255
1434.93473	0.39305
1433.00605	0.39393
1431.07738	0.39412
1429.14870	0.39426
1427.22003	0.39448
1425.29135	0.39429
1423.36268	0.39387
1421.43400	0.39307
1419.50532	0.39205
1417.57665	0.39209
1415.64797	0.39317
1413.71930	0.39393
1411.79062	0.39413
1409.86195	0.39419
1407.93327	0.39406
1406.00459	0.39370
1404.07592	0.39359
1402.14724	0.39365
1400.21857	0.39331
1398.28989	0.39275
1396.36122	0.39236
1394.43254	0.39252
1392.50386	0.39311
1390.57519	0.39309
1388.64651	0.39219
1386.71784	0.39151
1384.78916	0.39160
1382.86049	0.39196
1380.93181	0.39218
1379.00313	0.39218
1377.07446	0.39186
1375.14578	0.39145
1373.21711	0.39145
1371.28843	0.39179
1369.35976	0.39200
1367.43108	0.39203
1365.50240	0.39168
1363.57373	0.39096
1361.64505	0.39077
1359.71638	0.39130
1357.78770	0.39173
1355.85903	0.39184
1353.93035	0.39197
1352.00167	0.39214
1350.07300	0.39229
1348.14432	0.39253
1346.21565	0.39279
1344.28697	0.39284
1342.35830	0.39245
1340.42962	0.39182
1338.50094	0.39163
1336.57227	0.39201
1334.64359	0.39249
1332.71492	0.39274
1330.78624	0.39273
1328.85757	0.39252
1326.92889	0.39230
1325.00021	0.39216
1323.07154	0.39196
1321.14286	0.39163
1319.21419	0.39136
1317.28551	0.39126
1315.35684	0.39118
1313.42816	0.39108
1311.49948	0.39102
1309.57081	0.39089
1307.64213	0.39057
1305.71346	0.39019
1303.78478	0.38982
1301.85611	0.38946
1299.92743	0.38906
1297.99875	0.38861
1296.07008	0.38814
1294.14140	0.38773
1292.21273	0.38741
1290.28405	0.38707
1288.35538	0.38661
1286.42670	0.38607
1284.49802	0.38548
1282.56935	0.38487
1280.64067	0.38428
1278.71200	0.38363
1276.78332	0.38277
1274.85465	0.38172
1272.92597	0.38049
1270.99729	0.37902
1269.06862	0.37720
1267.13994	0.37519
1265.21127	0.37343
1263.28259	0.37222
1261.35392	0.37158
1259.42524	0.37146
1257.49656	0.37176
1255.56789	0.37210
1253.63921	0.37211
1251.71054	0.37173
1249.78186	0.37112
1247.85319	0.37044
1245.92451	0.36970
1243.99583	0.36882
1242.06716	0.36783
1240.13848	0.36681
1238.20981	0.36586
1236.28113	0.36497
1234.35246	0.36397
1232.42378	0.36284
1230.49510	0.36167
1228.56643	0.36053
1226.63775	0.35947
1224.70908	0.35854
1222.78040	0.35767
1220.85173	0.35672
1218.92305	0.35570
1216.99437	0.35472
1215.06570	0.35379
1213.13702	0.35282
1211.20835	0.35183
1209.27967	0.35086
1207.35100	0.34987
1205.42232	0.34885
1203.49364	0.34785
1201.56497	0.34688
1199.63629	0.34598
1197.70762	0.34512
1195.77894	0.34427
1193.85027	0.34333
1191.92159	0.34222
1189.99291	0.34101
1188.06424	0.33980
1186.13556	0.33860
1184.20689	0.33732
1182.27821	0.33590
1180.34954	0.33442
1178.42086	0.33300
1176.49218	0.33158
1174.56351	0.33013
1172.63483	0.32876
1170.70616	0.32737
1168.77748	0.32582
1166.84881	0.32421
1164.92013	0.32270
1162.99145	0.32124
1161.06278	0.31979
1159.13410	0.31840
1157.20543	0.31708
1155.27675	0.31586
1153.34808	0.31469
1151.41940	0.31344
1149.49072	0.31215
1147.56205	0.31100
1145.63337	0.30991
1143.70470	0.30883
1141.77602	0.30769
1139.84735	0.30646
1137.91867	0.30518
1135.98999	0.30386
1134.06132	0.30252
1132.13264	0.30122
1130.20397	0.29988
1128.27529	0.29844
1126.34662	0.29696
1124.41794	0.29547
1122.48926	0.29396
1120.56059	0.29246
1118.63191	0.29090
1116.70324	0.28929
1114.77456	0.28766
1112.84589	0.28596
1110.91721	0.28433
1108.98853	0.28284
1107.05986	0.28140
1105.13118	0.27995
1103.20251	0.27845
1101.27383	0.27687
1099.34516	0.27534
1097.41648	0.27403
1095.48780	0.27285
1093.55913	0.27160
1091.63045	0.27029
1089.70178	0.26905
1087.77310	0.26791
1085.84443	0.26686
1083.91575	0.26587
1081.98707	0.26494
1080.05840	0.26402
1078.12972	0.26306
1076.20105	0.26218
1074.27237	0.26151
1072.34370	0.26099
1070.41502	0.26055
1068.48634	0.26027
1066.55767	0.26016
1064.62899	0.26011
1062.70032	0.26015
1060.77164	0.26033
1058.84297	0.26059
1056.91429	0.26092
1054.98561	0.26139
1053.05694	0.26196
1051.12826	0.26253
1049.19959	0.26305
1047.27091	0.26359
1045.34224	0.26424
1043.41356	0.26499
1041.48488	0.26577
1039.55621	0.26652
1037.62753	0.26727
1035.69886	0.26806
1033.77018	0.26892
1031.84151	0.26981
1029.91283	0.27072
1027.98415	0.27163
1026.05548	0.27251
1024.12680	0.27334
1022.19813	0.27415
1020.26945	0.27509
1018.34078	0.27626
1016.41210	0.27756
1014.48342	0.27895
1012.55475	0.28042
1010.62607	0.28188
1008.69740	0.28329
1006.76872	0.28470
1004.84005	0.28607
1002.91137	0.28731
1000.98269	0.28837
999.05402	0.28931
997.12534	0.29019
995.19667	0.29104
993.26799	0.29182
991.33932	0.29246
989.41064	0.29302
987.48196	0.29359
985.55329	0.29424
983.62461	0.29492
981.69594	0.29547
979.76726	0.29585
977.83859	0.29607
975.90991	0.29614
973.98123	0.29611
972.05256	0.29599
970.12388	0.29586
968.19521	0.29581
966.26653	0.29577
964.33786	0.29567
962.40918	0.29547
960.48050	0.29515
958.55183	0.29470
956.62315	0.29425
954.69448	0.29389
952.76580	0.29355
950.83713	0.29314
948.90845	0.29263
946.97977	0.29203
945.05110	0.29138
943.12242	0.29073
941.19375	0.29012
939.26507	0.28946
937.33640	0.28873
935.40772	0.28800
933.47904	0.28727
931.55037	0.28657
929.62169	0.28585
927.69302	0.28511
925.76434	0.28444
923.83567	0.28377
921.90699	0.28295
919.97831	0.28207
918.04964	0.28128
916.12096	0.28060
914.19229	0.27990
912.26361	0.27908
910.33494	0.27820
908.40626	0.27732
906.47758	0.27641
904.54891	0.27550
902.62023	0.27463
900.69156	0.27374
898.76288	0.27278
896.83421	0.27184
894.90553	0.27093
892.97685	0.26996
891.04818	0.26903
889.11950	0.26814
887.19083	0.26716
885.26215	0.26614
883.33348	0.26524
881.40480	0.26446
879.47612	0.26370
877.54745	0.26290
875.61877	0.26215
873.69010	0.26142
871.76142	0.26062
869.83275	0.25978
867.90407	0.25893
865.97539	0.25804
864.04672	0.25716
862.11804	0.25629
860.18937	0.25539
858.26069	0.25446
856.33202	0.25355
854.40334	0.25265
852.47466	0.25172
850.54599	0.25074
848.61731	0.24981
846.68864	0.24900
844.75996	0.24821
842.83129	0.24731
840.90261	0.24633
838.97394	0.24537
837.04526	0.24447
835.11658	0.24360
833.18791	0.24271
831.25923	0.24176
829.33056	0.24065
827.40188	0.23942
825.47321	0.23822
823.54453	0.23703
821.61585	0.23585
819.68718	0.23479
817.75850	0.23390
815.82983	0.23299
813.90115	0.23202
811.97248	0.23102
810.04380	0.22990
808.11512	0.22885
806.18645	0.22801
804.25777	0.22724
802.32910	0.22650
800.40042	0.22584
798.47175	0.22527
796.54307	0.22478
794.61439	0.22438
792.68572	0.22406
790.75704	0.22373
788.82837	0.22340
786.89969	0.22313
784.97102	0.22286
783.04234	0.22246
781.11366	0.22195
779.18499	0.22144
777.25631	0.22095
775.32764	0.22043
773.39896	0.21991
771.47029	0.21946
769.54161	0.21900
767.61293	0.21839
765.68426	0.21767
763.75558	0.21692
761.82691	0.21614
759.89823	0.21538
757.96956	0.21468
756.04088	0.21393
754.11220	0.21292
752.18353	0.21177
750.25485	0.21072
748.32618	0.20980
746.39750	0.20895
744.46883	0.20820
742.54015	0.20743
740.61147	0.20653
738.68280	0.20568
736.75412	0.20499
734.82545	0.20430
732.89677	0.20345
730.96810	0.20252
729.03942	0.20167
727.11074	0.20102
725.18207	0.20053
723.25339	0.19996
721.32472	0.19917
719.39604	0.19834
717.46737	0.19756
715.53869	0.19667
713.61001	0.19574
711.68134	0.19489
709.75266	0.19413
707.82399	0.19341
705.89531	0.19265
703.96664	0.19181
702.03796	0.19106
700.10928	0.19038
698.18061	0.18960
696.25193	0.18873
694.32326	0.18787
692.39458	0.18698
690.46591	0.18597
688.53723	0.18492
686.60855	0.18399
684.67988	0.18309
682.75120	0.18212
680.82253	0.18110
678.89385	0.18005
676.96518	0.17887
675.03650	0.17752
673.10782	0.17609
671.17915	0.17459
669.25047	0.17288
667.32180	0.17128
665.39312	0.16994
663.46445	0.16851
661.53577	0.16686
659.60709	0.16522
657.67842	0.16367
655.74974	0.16216
653.82107	0.16065
651.89239	0.15920
649.96372	0.15781
648.03504	0.15628
646.10636	0.15459
644.17769	0.15290
642.24901	0.15120
640.32034	0.14931
638.39166	0.14726
636.46299	0.14523
634.53431	0.14337
632.60563	0.14162
630.67696	0.13981
628.74828	0.13795
626.81961	0.13611
624.89093	0.13432
622.96226	0.13263
621.03358	0.13103
619.10490	0.12942
617.17623	0.12771
615.24755	0.12592
613.31888	0.12405
611.39020	0.12219
609.46153	0.12044
607.53285	0.11875
605.60417	0.11709
603.67550	0.11543
601.74682	0.11377
599.81815	0.11230
597.88947	0.11104
595.96080	0.10973
594.03212	0.10832
592.10344	0.10700
590.17477	0.10587
588.24609	0.10489
586.31742	0.10394
584.38874	0.10286
582.46007	0.10168
580.53139	0.10049
578.60271	0.09934
576.67404	0.09821
574.74536	0.09706
572.81669	0.09591
570.88801	0.09483
568.95934	0.09388
567.03066	0.09302
565.10198	0.09219
563.17331	0.09140
561.24463	0.09074
559.31596	0.09012
557.38728	0.08939
555.45861	0.08855
553.52993	0.08782
551.60125	0.08728
549.67258	0.08671
547.74390	0.08602
545.81523	0.08540
543.88655	0.08497
541.95788	0.08453
540.02920	0.08389
538.10052	0.08326
536.17185	0.08283
534.24317	0.08243
532.31450	0.08181
530.38582	0.08108
528.45715	0.08040
526.52847	0.07978
524.59979	0.07917
522.67112	0.07843
520.74244	0.07753
518.81377	0.07661
516.88509	0.07569
514.95642	0.07473
513.02774	0.07391
511.09906	0.07334
509.17039	0.07276
507.24171	0.07189
505.31304	0.07077
503.38436	0.06959
501.45569	0.06854
499.52701	0.06757
497.59833	0.06641
495.66966	0.06504
493.74098	0.06370
491.81231	0.06239
489.88363	0.06104
487.95496	0.05977
486.02628	0.05863
484.09760	0.05752
482.16893	0.05631
480.24025	0.05498
478.31158	0.05359
476.38290	0.05235
474.45423	0.05127
472.52555	0.05016
470.59687	0.04901
468.66820	0.04795
466.73952	0.04711
464.81085	0.04647
462.88217	0.04600
460.95350	0.04571
459.02482	0.04550
457.09614	0.04540
455.16747	0.04539
453.23879	0.04534
451.31012	0.04528
449.38144	0.04519
447.45277	0.04495
445.52409	0.04459
443.59541	0.04414
441.66674	0.04359
439.73806	0.04296
437.80939	0.04223
435.88071	0.04139
433.95204	0.04038
432.02336	0.03913
430.09468	0.03777
428.16601	0.03648
426.23733	0.03535
424.30866	0.03425
422.37998	0.03300
420.45131	0.03161
418.52263	0.03022
416.59395	0.02896
414.66528	0.02772
412.73660	0.02633
410.80793	0.02505
408.87925	0.02400
406.95058	0.02288
405.02190	0.02158
403.09322	0.02023
401.16455	0.01887
399.23587	0.01760
397.30720	0.01661
395.37852	0.01581
393.44985	0.01499
391.52117	0.01412
389.59249	0.01323
387.66382	0.01211
385.73514	0.01092
383.80647	0.01002
381.87779	0.00939
379.94912	0.00889
378.02044	0.00843
376.09176	0.00786
374.16309	0.00713
372.23441	0.00639
370.30574	0.00575
368.37706	0.00513
