7496.76250	0.00231
7494.83382	0.00231
7492.90514	0.00231
7490.97647	0.00232
7489.04779	0.00232
7487.11912	0.00233
7485.19044	0.00233
7483.26177	0.00232
7481.33309	0.00233
7479.40441	0.00236
7477.47574	0.00238
7475.54706	0.00239
7473.61839	0.00240
7471.68971	0.00242
7469.76104	0.00243
7467.83236	0.00243
7465.90368	0.00241
7463.97501	0.00239
7462.04633	0.00238
7460.11766	0.00239
7458.18898	0.00240
7456.26031	0.00240
7454.33163	0.00242
7452.40295	0.00244
7450.47428	0.00245
7448.54560	0.00246
7446.61693	0.00246
7444.68825	0.00246
7442.75958	0.00248
7440.83090	0.00251
7438.90222	0.00252
7436.97355	0.00252
7435.04487	0.00250
7433.11620	0.00249
7431.18752	0.00249
7429.25885	0.00251
7427.33017	0.00253
7425.40149	0.00254
7423.47282	0.00253
7421.54414	0.00253
7419.61547	0.00255
7417.68679	0.00256
7415.75812	0.00256
7413.82944	0.00257
7411.90076	0.00259
7409.97209	0.00259
7408.04341	0.00258
7406.11474	0.00258
7404.18606	0.00259
7402.25739	0.00261
7400.32871	0.00263
7398.40003	0.00265
7396.47136	0.00265
7394.54268	0.00265
7392.61401	0.00266
7390.68533	0.00268
7388.75666	0.00268
7386.82798	0.00269
7384.89930	0.00268
7382.97063	0.00267
7381.04195	0.00266
7379.11328	0.00268
7377.18460	0.00271
7375.25593	0.00272
7373.32725	0.00272
7371.39857	0.00270
7369.46990	0.00270
7367.54122	0.00272
7365.61255	0.00273
7363.68387	0.00274
7361.75520	0.00273
7359.82652	0.00274
7357.89784	0.00275
7355.96917	0.00278
7354.04049	0.00280
7352.11182	0.00281
7350.18314	0.00282
7348.25447	0.00283
7346.32579	0.00283
7344.39711	0.00283
7342.46844	0.00283
7340.53976	0.00282
7338.61109	0.00282
7336.68241	0.00283
7334.75374	0.00285
7332.82506	0.00287
7330.89638	0.00287
7328.96771	0.00288
7327.03903	0.00291
7325.11036	0.00293
7323.18168	0.00294
7321.25301	0.00291
7319.32433	0.00290
7317.39565	0.00291
7315.46698	0.00292
7313.53830	0.00292
7311.60963	0.00291
7309.68095	0.00293
7307.75228	0.00295
7305.82360	0.00297
7303.89492	0.00297
7301.96625	0.00296
7300.03757	0.00296
7298.10890	0.00298
7296.18022	0.00300
7294.25155	0.00301
7292.32287	0.00301
7290.39419	0.00300
7288.46552	0.00299
7286.53684	0.00302
7284.60817	0.00305
7282.67949	0.00307
7280.75082	0.00308
7278.82214	0.00308
7276.89346	0.00309
7274.96479	0.00311
7273.03611	0.00312
7271.10744	0.00312
7269.17876	0.00312
7267.25009	0.00311
7265.32141	0.00310
7263.39273	0.00310
7261.46406	0.00310
7259.53538	0.00311
7257.60671	0.00312
7255.67803	0.00313
7253.74936	0.00315
7251.82068	0.00317
7249.89200	0.00317
7247.96333	0.00316
7246.03465	0.00317
7244.10598	0.00319
7242.17730	0.00320
7240.24863	0.00321
7238.31995	0.00322
7236.39127	0.00323
7234.46260	0.00323
7232.53392	0.00324
7230.60525	0.00325
7228.67657	0.00327
7226.74790	0.00327
7224.81922	0.00326
7222.89054	0.00326
7220.96187	0.00327
7219.03319	0.00328
7217.10452	0.00328
7215.17584	0.00329
7213.24717	0.00329
7211.31849	0.00330
7209.38981	0.00331
7207.46114	0.00333
7205.53246	0.00335
7203.60379	0.00336
7201.67511	0.00337
7199.74644	0.00338
7197.81776	0.00338
7195.88908	0.00337
7193.96041	0.00337
7192.03173	0.00338
7190.10306	0.00340
7188.17438	0.00340
7186.24571	0.00339
7184.31703	0.00338
7182.38835	0.00340
7180.45968	0.00343
7178.53100	0.00344
7176.60233	0.00344
7174.67365	0.00345
7172.74498	0.00346
7170.81630	0.00348
7168.88762	0.00350
7166.95895	0.00351
7165.03027	0.00352
7163.10160	0.00351
7161.17292	0.00348
7159.24425	0.00348
7157.31557	0.00351
7155.38689	0.00354
7153.45822	0.00355
7151.52954	0.00356
7149.60087	0.00358
7147.67219	0.00361
7145.74352	0.00361
7143.81484	0.00359
7141.88616	0.00358
7139.95749	0.00358
7138.02881	0.00357
7136.10014	0.00359
7134.17146	0.00362
7132.24279	0.00365
7130.31411	0.00367
7128.38543	0.00368
7126.45676	0.00369
7124.52808	0.00369
7122.59941	0.00367
7120.67073	0.00366
7118.74206	0.00365
7116.81338	0.00365
7114.88470	0.00368
7112.95603	0.00371
7111.02735	0.00372
7109.09868	0.00373
7107.17000	0.00374
7105.24133	0.00373
7103.31265	0.00373
7101.38397	0.00376
7099.45530	0.00380
7097.52662	0.00381
7095.59795	0.00379
7093.66927	0.00377
7091.74060	0.00377
7089.81192	0.00379
7087.88324	0.00382
7085.95457	0.00384
7084.02589	0.00384
7082.09722	0.00383
7080.16854	0.00381
7078.23987	0.00382
7076.31119	0.00385
7074.38251	0.00388
7072.45384	0.00390
7070.52516	0.00391
7068.59649	0.00390
7066.66781	0.00387
7064.73914	0.00386
7062.81046	0.00388
7060.88178	0.00390
7058.95311	0.00392
7057.02443	0.00395
7055.09576	0.00397
7053.16708	0.00397
7051.23841	0.00397
7049.30973	0.00399
7047.38105	0.00401
7045.45238	0.00401
7043.52370	0.00400
7041.59503	0.00399
7039.66635	0.00401
7037.73768	0.00402
7035.80900	0.00405
7033.88032	0.00407
7031.95165	0.00407
7030.02297	0.00406
7028.09430	0.00406
7026.16562	0.00406
7024.23695	0.00408
7022.30827	0.00410
7020.37959	0.00412
7018.45092	0.00412
7016.52224	0.00412
7014.59357	0.00413
7012.66489	0.00413
7010.73622	0.00413
7008.80754	0.00413
7006.87886	0.00415
7004.95019	0.00416
7003.02151	0.00418
7001.09284	0.00420
6999.16416	0.00421
6997.23549	0.00423
6995.30681	0.00423
6993.37813	0.00424
6991.44946	0.00424
6989.52078	0.00424
6987.59211	0.00426
6985.66343	0.00428
6983.73476	0.00427
6981.80608	0.00426
6979.87740	0.00427
6977.94873	0.00430
6976.02005	0.00432
6974.09138	0.00434
6972.16270	0.00436
6970.23403	0.00436
6968.30535	0.00436
6966.37667	0.00436
6964.44800	0.00436
6962.51932	0.00436
6960.59065	0.00437
6958.66197	0.00438
6956.73330	0.00439
6954.80462	0.00439
6952.87594	0.00440
6950.94727	0.00441
6949.01859	0.00442
6947.08992	0.00443
6945.16124	0.00444
6943.23257	0.00446
6941.30389	0.00448
6939.37521	0.00450
6937.44654	0.00450
6935.51786	0.00449
6933.58919	0.00448
6931.66051	0.00449
6929.73184	0.00450
6927.80316	0.00452
6925.87448	0.00453
6923.94581	0.00454
6922.01713	0.00457
6920.08846	0.00458
6918.15978	0.00459
6916.23111	0.00460
6914.30243	0.00461
6912.37375	0.00463
6910.44508	0.00464
6908.51640	0.00465
6906.58773	0.00466
6904.65905	0.00465
6902.73038	0.00464
6900.80170	0.00465
6898.87302	0.00469
6896.94435	0.00472
6895.01567	0.00472
6893.08700	0.00473
6891.15832	0.00474
6889.22965	0.00475
6887.30097	0.00475
6885.37229	0.00476
6883.44362	0.00476
6881.51494	0.00476
6879.58627	0.00477
6877.65759	0.00480
6875.72892	0.00482
6873.80024	0.00481
6871.87156	0.00480
6869.94289	0.00481
6868.01421	0.00482
6866.08554	0.00483
6864.15686	0.00484
6862.22819	0.00486
6860.29951	0.00489
6858.37083	0.00491
6856.44216	0.00491
6854.51348	0.00492
6852.58481	0.00494
6850.65613	0.00495
6848.72746	0.00494
6846.79878	0.00493
6844.87010	0.00496
6842.94143	0.00500
6841.01275	0.00503
6839.08408	0.00504
6837.15540	0.00503
6835.22673	0.00503
6833.29805	0.00504
6831.36937	0.00505
6829.44070	0.00505
6827.51202	0.00507
6825.58335	0.00511
6823.65467	0.00515
6821.72600	0.00515
6819.79732	0.00514
6817.86864	0.00514
6815.93997	0.00515
6814.01129	0.00516
6812.08262	0.00515
6810.15394	0.00516
6808.22527	0.00518
6806.29659	0.00520
6804.36791	0.00522
6802.43924	0.00523
6800.51056	0.00523
6798.58189	0.00522
6796.65321	0.00523
6794.72454	0.00524
6792.79586	0.00525
6790.86718	0.00525
6788.93851	0.00527
6787.00983	0.00529
6785.08116	0.00531
6783.15248	0.00531
6781.22381	0.00531
6779.29513	0.00532
6777.36645	0.00534
6775.43778	0.00536
6773.50910	0.00537
6771.58043	0.00539
6769.65175	0.00542
6767.72308	0.00543
6765.79440	0.00541
6763.86572	0.00539
6761.93705	0.00542
6760.00837	0.00545
6758.07970	0.00545
6756.15102	0.00546
6754.22235	0.00547
6752.29367	0.00547
6750.36499	0.00548
6748.43632	0.00549
6746.50764	0.00550
6744.57897	0.00552
6742.65029	0.00554
6740.72162	0.00555
6738.79294	0.00556
6736.86426	0.00556
6734.93559	0.00558
6733.00691	0.00561
6731.07824	0.00563
6729.14956	0.00562
6727.22089	0.00561
6725.29221	0.00561
6723.36353	0.00563
6721.43486	0.00565
6719.50618	0.00566
6717.57751	0.00567
6715.64883	0.00570
6713.72016	0.00572
6711.79148	0.00571
6709.86280	0.00572
6707.93413	0.00574
6706.00545	0.00576
6704.07678	0.00578
6702.14810	0.00580
6700.21943	0.00580
6698.29075	0.00580
6696.36207	0.00581
6694.43340	0.00583
6692.50472	0.00584
6690.57605	0.00585
6688.64737	0.00586
6686.71870	0.00587
6684.79002	0.00588
6682.86134	0.00589
6680.93267	0.00590
6679.00399	0.00591
6677.07532	0.00593
6675.14664	0.00594
6673.21797	0.00593
6671.28929	0.00596
6669.36061	0.00600
6667.43194	0.00601
6665.50326	0.00600
6663.57459	0.00601
6661.64591	0.00603
6659.71724	0.00606
6657.78856	0.00607
6655.85988	0.00607
6653.93121	0.00606
6652.00253	0.00608
6650.07386	0.00610
6648.14518	0.00613
6646.21651	0.00614
6644.28783	0.00613
6642.35915	0.00614
6640.43048	0.00617
6638.50180	0.00618
6636.57313	0.00618
6634.64445	0.00617
6632.71578	0.00619
6630.78710	0.00621
6628.85842	0.00624
6626.92975	0.00626
6625.00107	0.00629
6623.07240	0.00629
6621.14372	0.00628
6619.21505	0.00630
6617.28637	0.00633
6615.35769	0.00634
6613.42902	0.00636
6611.50034	0.00637
6609.57167	0.00638
6607.64299	0.00639
6605.71432	0.00641
6603.78564	0.00642
6601.85696	0.00643
6599.92829	0.00643
6597.99961	0.00645
6596.07094	0.00648
6594.14226	0.00649
6592.21359	0.00651
6590.28491	0.00653
6588.35623	0.00654
6586.42756	0.00655
6584.49888	0.00657
6582.57021	0.00658
6580.64153	0.00658
6578.71286	0.00659
6576.78418	0.00661
6574.85550	0.00664
6572.92683	0.00666
6570.99815	0.00666
6569.06948	0.00664
6567.14080	0.00663
6565.21213	0.00667
6563.28345	0.00671
6561.35477	0.00672
6559.42610	0.00674
6557.49742	0.00675
6555.56875	0.00676
6553.64007	0.00679
6551.71140	0.00681
6549.78272	0.00680
6547.85404	0.00678
6545.92537	0.00679
6543.99669	0.00681
6542.06802	0.00683
6540.13934	0.00686
6538.21067	0.00690
6536.28199	0.00692
6534.35331	0.00692
6532.42464	0.00692
6530.49596	0.00692
6528.56729	0.00694
6526.63861	0.00696
6524.70994	0.00697
6522.78126	0.00699
6520.85258	0.00701
6518.92391	0.00701
6516.99523	0.00703
6515.06656	0.00707
6513.13788	0.00708
6511.20921	0.00707
6509.28053	0.00707
6507.35185	0.00708
6505.42318	0.00711
6503.49450	0.00714
6501.56583	0.00716
6499.63715	0.00717
6497.70848	0.00718
6495.77980	0.00720
6493.85112	0.00723
6491.92245	0.00724
6489.99377	0.00725
6488.06510	0.00725
6486.13642	0.00727
6484.20775	0.00728
6482.27907	0.00731
6480.35039	0.00734
6478.42172	0.00735
6476.49304	0.00736
6474.56437	0.00738
6472.63569	0.00741
6470.70702	0.00743
6468.77834	0.00744
6466.84966	0.00746
6464.92099	0.00749
6462.99231	0.00749
6461.06364	0.00748
6459.13496	0.00750
6457.20629	0.00752
6455.27761	0.00753
6453.34893	0.00754
6451.42026	0.00756
6449.49158	0.00758
6447.56291	0.00760
6445.63423	0.00761
6443.70556	0.00761
6441.77688	0.00763
6439.84820	0.00766
6437.91953	0.00766
6435.99085	0.00766
6434.06218	0.00767
6432.13350	0.00768
6430.20483	0.00771
6428.27615	0.00774
6426.34747	0.00777
6424.41880	0.00778
6422.49012	0.00780
6420.56145	0.00781
6418.63277	0.00781
6416.70410	0.00780
6414.77542	0.00779
6412.84674	0.00781
6410.91807	0.00786
6408.98939	0.00790
6407.06072	0.00792
6405.13204	0.00794
6403.20337	0.00797
6401.27469	0.00799
6399.34601	0.00801
6397.41734	0.00802
6395.48866	0.00804
6393.55999	0.00805
6391.63131	0.00806
6389.70264	0.00807
6387.77396	0.00807
6385.84528	0.00808
6383.91661	0.00811
6381.98793	0.00814
6380.05926	0.00815
6378.13058	0.00818
6376.20191	0.00822
6374.27323	0.00822
6372.34455	0.00822
6370.41588	0.00822
6368.48720	0.00822
6366.55853	0.00824
6364.62985	0.00827
6362.70118	0.00831
6360.77250	0.00834
6358.84382	0.00837
6356.91515	0.00839
6354.98647	0.00841
6353.05780	0.00842
6351.12912	0.00842
6349.20045	0.00843
6347.27177	0.00844
6345.34309	0.00846
6343.41442	0.00847
6341.48574	0.00848
6339.55707	0.00849
6337.62839	0.00851
6335.69972	0.00854
6333.77104	0.00857
6331.84236	0.00859
6329.91369	0.00862
6327.98501	0.00865
6326.05634	0.00865
6324.12766	0.00866
6322.19899	0.00868
6320.27031	0.00869
6318.34163	0.00869
6316.41296	0.00870
6314.48428	0.00873
6312.55561	0.00875
6310.62693	0.00877
6308.69826	0.00881
6306.76958	0.00884
6304.84090	0.00885
6302.91223	0.00885
6300.98355	0.00887
6299.05488	0.00889
6297.12620	0.00891
6295.19753	0.00892
6293.26885	0.00892
6291.34017	0.00894
6289.41150	0.00897
6287.48282	0.00899
6285.55415	0.00901
6283.62547	0.00904
6281.69680	0.00906
6279.76812	0.00907
6277.83944	0.00907
6275.91077	0.00907
6273.98209	0.00909
6272.05342	0.00911
6270.12474	0.00914
6268.19607	0.00915
6266.26739	0.00918
6264.33871	0.00922
6262.41004	0.00926
6260.48136	0.00929
6258.55269	0.00930
6256.62401	0.00931
6254.69534	0.00933
6252.76666	0.00936
6250.83798	0.00940
6248.90931	0.00940
6246.98063	0.00939
6245.05196	0.00939
6243.12328	0.00941
6241.19461	0.00942
6239.26593	0.00942
6237.33725	0.00944
6235.40858	0.00947
6233.47990	0.00951
6231.55123	0.00955
6229.62255	0.00957
6227.69388	0.00960
6225.76520	0.00963
6223.83652	0.00966
6221.90785	0.00968
6219.97917	0.00969
6218.05050	0.00970
6216.12182	0.00972
6214.19315	0.00974
6212.26447	0.00975
6210.33579	0.00975
6208.40712	0.00978
6206.47844	0.00981
6204.54977	0.00985
6202.62109	0.00990
6200.69242	0.00993
6198.76374	0.00995
6196.83506	0.00996
6194.90639	0.00997
6192.97771	0.00998
6191.04904	0.00998
6189.12036	0.01001
6187.19169	0.01005
6185.26301	0.01006
6183.33433	0.01007
6181.40566	0.01010
6179.47698	0.01013
6177.54831	0.01016
6175.61963	0.01018
6173.69096	0.01017
6171.76228	0.01017
6169.83360	0.01019
6167.90493	0.01021
6165.97625	0.01023
6164.04758	0.01024
6162.11890	0.01026
6160.19023	0.01028
6158.26155	0.01030
6156.33287	0.01033
6154.40420	0.01038
6152.47552	0.01041
6150.54685	0.01043
6148.61817	0.01045
6146.68950	0.01046
6144.76082	0.01047
6142.83214	0.01049
6140.90347	0.01053
6138.97479	0.01054
6137.04612	0.01055
6135.11744	0.01058
6133.18877	0.01062
6131.26009	0.01064
6129.33141	0.01065
6127.40274	0.01066
6125.47406	0.01068
6123.54539	0.01071
6121.61671	0.01073
6119.68804	0.01074
6117.75936	0.01076
6115.83068	0.01078
6113.90201	0.01081
6111.97333	0.01086
6110.04466	0.01090
6108.11598	0.01092
6106.18731	0.01095
6104.25863	0.01098
6102.32995	0.01099
6100.40128	0.01100
6098.47260	0.01102
6096.54393	0.01103
6094.61525	0.01104
6092.68658	0.01106
6090.75790	0.01109
6088.82922	0.01111
6086.90055	0.01114
6084.97187	0.01116
6083.04320	0.01119
6081.11452	0.01121
6079.18585	0.01123
6077.25717	0.01125
6075.32849	0.01128
6073.39982	0.01132
6071.47114	0.01135
6069.54247	0.01139
6067.61379	0.01143
6065.68512	0.01146
6063.75644	0.01146
6061.82776	0.01146
6059.89909	0.01147
6057.97041	0.01149
6056.04174	0.01152
6054.11306	0.01153
6052.18439	0.01154
6050.25571	0.01156
6048.32703	0.01158
6046.39836	0.01163
6044.46968	0.01168
6042.54101	0.01171
6040.61233	0.01174
6038.68366	0.01178
6036.75498	0.01181
6034.82630	0.01183
6032.89763	0.01183
6030.96895	0.01185
6029.04028	0.01186
6027.11160	0.01187
6025.18293	0.01189
6023.25425	0.01195
6021.32557	0.01200
6019.39690	0.01202
6017.46822	0.01200
6015.53955	0.01201
6013.61087	0.01205
6011.68220	0.01209
6009.75352	0.01211
6007.82484	0.01214
6005.89617	0.01217
6003.96749	0.01219
6002.03882	0.01220
6000.11014	0.01220
5998.18147	0.01222
5996.25279	0.01226
5994.32411	0.01230
5992.39544	0.01233
5990.46676	0.01235
5988.53809	0.01236
5986.60941	0.01239
5984.68074	0.01244
5982.75206	0.01251
5980.82338	0.01255
5978.89471	0.01256
5976.96603	0.01256
5975.03736	0.01258
5973.10868	0.01260
5971.18001	0.01263
5969.25133	0.01267
5967.32265	0.01269
5965.39398	0.01271
5963.46530	0.01272
5961.53663	0.01274
5959.60795	0.01276
5957.67928	0.01276
5955.75060	0.01278
5953.82192	0.01284
5951.89325	0.01290
5949.96457	0.01293
5948.03590	0.01295
5946.10722	0.01298
5944.17855	0.01299
5942.24987	0.01299
5940.32119	0.01300
5938.39252	0.01303
5936.46384	0.01308
5934.53517	0.01313
5932.60649	0.01316
5930.67782	0.01318
5928.74914	0.01320
5926.82046	0.01323
5924.89179	0.01324
5922.96311	0.01326
5921.03444	0.01329
5919.10576	0.01330
5917.17709	0.01331
5915.24841	0.01334
5913.31973	0.01338
5911.39106	0.01344
5909.46238	0.01347
5907.53371	0.01350
5905.60503	0.01351
5903.67636	0.01352
5901.74768	0.01354
5899.81900	0.01358
5897.89033	0.01361
5895.96165	0.01363
5894.03298	0.01366
5892.10430	0.01370
5890.17563	0.01372
5888.24695	0.01372
5886.31827	0.01374
5884.38960	0.01379
5882.46092	0.01385
5880.53225	0.01391
5878.60357	0.01394
5876.67490	0.01396
5874.74622	0.01398
5872.81755	0.01399
5870.88887	0.01400
5868.96019	0.01403
5867.03152	0.01408
5865.10284	0.01413
5863.17417	0.01413
5861.24549	0.01415
5859.31682	0.01420
5857.38814	0.01425
5855.45946	0.01428
5853.53079	0.01430
5851.60211	0.01432
5849.67344	0.01433
5847.74476	0.01434
5845.81609	0.01438
5843.88741	0.01443
5841.95873	0.01447
5840.03006	0.01448
5838.10138	0.01449
5836.17271	0.01451
5834.24403	0.01453
5832.31536	0.01457
5830.38668	0.01461
5828.45800	0.01464
5826.52933	0.01468
5824.60065	0.01473
5822.67198	0.01476
5820.74330	0.01478
5818.81463	0.01482
5816.88595	0.01485
5814.95727	0.01488
5813.02860	0.01491
5811.09992	0.01496
5809.17125	0.01499
5807.24257	0.01501
5805.31390	0.01501
5803.38522	0.01504
5801.45654	0.01509
5799.52787	0.01514
5797.59919	0.01517
5795.67052	0.01520
5793.74184	0.01522
5791.81317	0.01524
5789.88449	0.01528
5787.95581	0.01530
5786.02714	0.01531
5784.09846	0.01534
5782.16979	0.01539
5780.24111	0.01545
5778.31244	0.01550
5776.38376	0.01554
5774.45508	0.01554
5772.52641	0.01551
5770.59773	0.01550
5768.66906	0.01554
5766.74038	0.01561
5764.81171	0.01567
5762.88303	0.01571
5760.95435	0.01575
5759.02568	0.01576
5757.09700	0.01578
5755.16833	0.01581
5753.23965	0.01583
5751.31098	0.01586
5749.38230	0.01589
5747.45362	0.01593
5745.52495	0.01597
5743.59627	0.01603
5741.66760	0.01608
5739.73892	0.01610
5737.81025	0.01609
5735.88157	0.01612
5733.95289	0.01619
5732.02422	0.01624
5730.09554	0.01625
5728.16687	0.01627
5726.23819	0.01631
5724.30952	0.01634
5722.38084	0.01635
5720.45216	0.01636
5718.52349	0.01639
5716.59481	0.01644
5714.66614	0.01648
5712.73746	0.01650
5710.80879	0.01653
5708.88011	0.01658
5706.95143	0.01665
5705.02276	0.01670
5703.09408	0.01672
5701.16541	0.01673
5699.23673	0.01674
5697.30806	0.01678
5695.37938	0.01683
5693.45070	0.01688
5691.52203	0.01692
5689.59335	0.01695
5687.66468	0.01697
5685.73600	0.01700
5683.80733	0.01703
5681.87865	0.01705
5679.94997	0.01708
5678.02130	0.01711
5676.09262	0.01715
5674.16395	0.01718
5672.23527	0.01720
5670.30660	0.01724
5668.37792	0.01732
5666.44924	0.01738
5664.52057	0.01740
5662.59189	0.01740
5660.66322	0.01744
5658.73454	0.01748
5656.80587	0.01751
5654.87719	0.01755
5652.94851	0.01762
5651.01984	0.01767
5649.09116	0.01769
5647.16249	0.01769
5645.23381	0.01769
5643.30514	0.01772
5641.37646	0.01779
5639.44778	0.01786
5637.51911	0.01789
5635.59043	0.01791
5633.66176	0.01793
5631.73308	0.01796
5629.80441	0.01801
5627.87573	0.01806
5625.94705	0.01807
5624.01838	0.01808
5622.08970	0.01812
5620.16103	0.01817
5618.23235	0.01822
5616.30368	0.01825
5614.37500	0.01828
5612.44632	0.01831
5610.51765	0.01833
5608.58897	0.01837
5606.66030	0.01843
5604.73162	0.01848
5602.80295	0.01853
5600.87427	0.01855
5598.94559	0.01857
5597.01692	0.01858
5595.08824	0.01859
5593.15957	0.01862
5591.23089	0.01866
5589.30222	0.01871
5587.37354	0.01876
5585.44486	0.01880
5583.51619	0.01882
5581.58751	0.01882
5579.65884	0.01885
5577.73016	0.01890
5575.80149	0.01895
5573.87281	0.01899
5571.94413	0.01905
5570.01546	0.01909
5568.08678	0.01914
5566.15811	0.01919
5564.22943	0.01922
5562.30076	0.01923
5560.37208	0.01925
5558.44340	0.01929
5556.51473	0.01934
5554.58605	0.01941
5552.65738	0.01945
5550.72870	0.01947
5548.80003	0.01950
5546.87135	0.01954
5544.94267	0.01958
5543.01400	0.01964
5541.08532	0.01969
5539.15665	0.01972
5537.22797	0.01973
5535.29930	0.01976
5533.37062	0.01981
5531.44194	0.01985
5529.51327	0.01989
5527.58459	0.01991
5525.65592	0.01992
5523.72724	0.01991
5521.79857	0.01993
5519.86989	0.02000
5517.94121	0.02007
5516.01254	0.02013
5514.08386	0.02018
5512.15519	0.02023
5510.22651	0.02027
5508.29784	0.02031
5506.36916	0.02036
5504.44048	0.02039
5502.51181	0.02042
5500.58313	0.02045
5498.65446	0.02049
5496.72578	0.02052
5494.79711	0.02055
5492.86843	0.02057
5490.93975	0.02062
5489.01108	0.02068
5487.08240	0.02075
5485.15373	0.02081
5483.22505	0.02085
5481.29638	0.02088
5479.36770	0.02093
5477.43902	0.02097
5475.51035	0.02100
5473.58167	0.02101
5471.65300	0.02103
5469.72432	0.02105
5467.79565	0.02108
5465.86697	0.02112
5463.93829	0.02118
5462.00962	0.02123
5460.08094	0.02129
5458.15227	0.02135
5456.22359	0.02139
5454.29492	0.02142
5452.36624	0.02146
5450.43756	0.02149
5448.50889	0.02150
5446.58021	0.02151
5444.65154	0.02153
5442.72286	0.02157
5440.79419	0.02163
5438.86551	0.02168
5436.93683	0.02174
5435.00816	0.02181
5433.07948	0.02185
5431.15081	0.02186
5429.22213	0.02186
5427.29346	0.02192
5425.36478	0.02198
5423.43610	0.02202
5421.50743	0.02209
5419.57875	0.02217
5417.65008	0.02219
5415.72140	0.02217
5413.79273	0.02219
5411.86405	0.02226
5409.93537	0.02232
5408.00670	0.02236
5406.07802	0.02238
5404.14935	0.02242
5402.22067	0.02247
5400.29200	0.02252
5398.36332	0.02255
5396.43464	0.02258
5394.50597	0.02264
5392.57729	0.02270
5390.64862	0.02273
5388.71994	0.02274
5386.79127	0.02277
5384.86259	0.02282
5382.93391	0.02288
5381.00524	0.02293
5379.07656	0.02298
5377.14789	0.02301
5375.21921	0.02303
5373.29054	0.02307
5371.36186	0.02312
5369.43318	0.02314
5367.50451	0.02317
5365.57583	0.02321
5363.64716	0.02327
5361.71848	0.02330
5359.78981	0.02333
5357.86113	0.02339
5355.93245	0.02345
5354.00378	0.02348
5352.07510	0.02352
5350.14643	0.02357
5348.21775	0.02361
5346.28908	0.02364
5344.36040	0.02369
5342.43172	0.02374
5340.50305	0.02378
5338.57437	0.02383
5336.64570	0.02390
5334.71702	0.02396
5332.78835	0.02401
5330.85967	0.02406
5328.93099	0.02409
5327.00232	0.02412
5325.07364	0.02416
5323.14497	0.02421
5321.21629	0.02424
5319.28762	0.02427
5317.35894	0.02431
5315.43026	0.02436
5313.50159	0.02442
5311.57291	0.02445
5309.64424	0.02445
5307.71556	0.02447
5305.78689	0.02455
5303.85821	0.02464
5301.92953	0.02468
5300.00086	0.02470
5298.07218	0.02473
5296.14351	0.02480
5294.21483	0.02485
5292.28616	0.02488
5290.35748	0.02491
5288.42880	0.02496
5286.50013	0.02499
5284.57145	0.02503
5282.64278	0.02508
5280.71410	0.02513
5278.78543	0.02518
5276.85675	0.02523
5274.92807	0.02527
5272.99940	0.02532
5271.07072	0.02535
5269.14205	0.02538
5267.21337	0.02542
5265.28470	0.02548
5263.35602	0.02552
5261.42734	0.02558
5259.49867	0.02562
5257.56999	0.02563
5255.64132	0.02566
5253.71264	0.02574
5251.78397	0.02582
5249.85529	0.02587
5247.92661	0.02590
5245.99794	0.02594
5244.06926	0.02598
5242.14059	0.02603
5240.21191	0.02607
5238.28324	0.02611
5236.35456	0.02616
5234.42588	0.02620
5232.49721	0.02625
5230.56853	0.02630
5228.63986	0.02634
5226.71118	0.02638
5224.78251	0.02643
5222.85383	0.02649
5220.92515	0.02652
5218.99648	0.02654
5217.06780	0.02658
5215.13913	0.02664
5213.21045	0.02671
5211.28178	0.02677
5209.35310	0.02680
5207.42442	0.02682
5205.49575	0.02688
5203.56707	0.02697
5201.63840	0.02703
5199.70972	0.02706
5197.78105	0.02709
5195.85237	0.02713
5193.92369	0.02717
5191.99502	0.02721
5190.06634	0.02727
5188.13767	0.02733
5186.20899	0.02737
5184.28032	0.02740
5182.35164	0.02743
5180.42296	0.02746
5178.49429	0.02749
5176.56561	0.02753
5174.63694	0.02757
5172.70826	0.02761
5170.77959	0.02767
5168.85091	0.02774
5166.92223	0.02780
5164.99356	0.02785
5163.06488	0.02790
5161.13621	0.02795
5159.20753	0.02800
5157.27886	0.02804
5155.35018	0.02808
5153.42150	0.02811
5151.49283	0.02813
5149.56415	0.02817
5147.63548	0.02824
5145.70680	0.02832
5143.77813	0.02841
5141.84945	0.02848
5139.92077	0.02852
5137.99210	0.02857
5136.06342	0.02862
5134.13475	0.02866
5132.20607	0.02868
5130.27740	0.02872
5128.34872	0.02879
5126.42004	0.02884
5124.49137	0.02885
5122.56269	0.02888
5120.63402	0.02894
5118.70534	0.02900
5116.77667	0.02905
5114.84799	0.02910
5112.91931	0.02916
5110.99064	0.02919
5109.06196	0.02923
5107.13329	0.02927
5105.20461	0.02930
5103.27594	0.02935
5101.34726	0.02941
5099.41858	0.02946
5097.48991	0.02949
5095.56123	0.02952
5093.63256	0.02956
5091.70388	0.02962
5089.77521	0.02969
5087.84653	0.02977
5085.91785	0.02982
5083.98918	0.02988
5082.06050	0.02993
5080.13183	0.02997
5078.20315	0.03002
5076.27448	0.03009
5074.34580	0.03015
5072.41712	0.03020
5070.48845	0.03023
5068.55977	0.03026
5066.63110	0.03032
5064.70242	0.03039
5062.77375	0.03046
5060.84507	0.03051
5058.91639	0.03053
5056.98772	0.03054
5055.05904	0.03056
5053.13037	0.03062
5051.20169	0.03069
5049.27302	0.03077
5047.34434	0.03084
5045.41566	0.03086
5043.48699	0.03089
5041.55831	0.03096
5039.62964	0.03102
5037.70096	0.03106
5035.77229	0.03110
5033.84361	0.03115
5031.91493	0.03121
5029.98626	0.03127
5028.05758	0.03133
5026.12891	0.03139
5024.20023	0.03144
5022.27156	0.03147
5020.34288	0.03149
5018.41420	0.03153
5016.48553	0.03158
5014.55685	0.03166
5012.62818	0.03173
5010.69950	0.03178
5008.77083	0.03182
5006.84215	0.03189
5004.91347	0.03194
5002.98480	0.03198
5001.05612	0.03202
4999.12745	0.03207
4997.19877	0.03211
4995.27010	0.03217
4993.34142	0.03224
4991.41274	0.03229
4989.48407	0.03235
4987.55539	0.03240
4985.62672	0.03244
4983.69804	0.03248
4981.76937	0.03253
4979.84069	0.03259
4977.91201	0.03264
4975.98334	0.03269
4974.05466	0.03274
4972.12599	0.03279
4970.19731	0.03282
4968.26864	0.03287
4966.33996	0.03294
4964.41128	0.03302
4962.48261	0.03307
4960.55393	0.03311
4958.62526	0.03316
4956.69658	0.03322
4954.76791	0.03329
4952.83923	0.03335
4950.91055	0.03340
4948.98188	0.03346
4947.05320	0.03351
4945.12453	0.03355
4943.19585	0.03360
4941.26718	0.03366
4939.33850	0.03371
4937.40982	0.03376
4935.48115	0.03380
4933.55247	0.03385
4931.62380	0.03391
4929.69512	0.03398
4927.76645	0.03404
4925.83777	0.03409
4923.90909	0.03413
4921.98042	0.03417
4920.05174	0.03422
4918.12307	0.03427
4916.19439	0.03430
4914.26572	0.03436
4912.33704	0.03445
4910.40836	0.03454
4908.47969	0.03460
4906.55101	0.03465
4904.62234	0.03468
4902.69366	0.03473
4900.76499	0.03481
4898.83631	0.03488
4896.90763	0.03495
4894.97896	0.03501
4893.05028	0.03505
4891.12161	0.03507
4889.19293	0.03510
4887.26426	0.03514
4885.33558	0.03519
4883.40690	0.03525
4881.47823	0.03531
4879.54955	0.03537
4877.62088	0.03544
4875.69220	0.03551
4873.76353	0.03558
4871.83485	0.03566
4869.90617	0.03573
4867.97750	0.03577
4866.04882	0.03579
4864.12015	0.03581
4862.19147	0.03586
4860.26280	0.03594
4858.33412	0.03602
4856.40544	0.03608
4854.47677	0.03616
4852.54809	0.03625
4850.61942	0.03633
4848.69074	0.03635
4846.76207	0.03635
4844.83339	0.03638
4842.90471	0.03642
4840.97604	0.03646
4839.04736	0.03650
4837.11869	0.03656
4835.19001	0.03664
4833.26134	0.03675
4831.33266	0.03684
4829.40398	0.03690
4827.47531	0.03693
4825.54663	0.03697
4823.61796	0.03701
4821.68928	0.03707
4819.76061	0.03714
4817.83193	0.03719
4815.90325	0.03722
4813.97458	0.03728
4812.04590	0.03736
4810.11723	0.03743
4808.18855	0.03746
4806.25988	0.03750
4804.33120	0.03759
4802.40252	0.03767
4800.47385	0.03772
4798.54517	0.03778
4796.61650	0.03784
4794.68782	0.03789
4792.75915	0.03796
4790.83047	0.03805
4788.90179	0.03813
4786.97312	0.03819
4785.04444	0.03825
4783.11577	0.03828
4781.18709	0.03828
4779.25842	0.03831
4777.32974	0.03840
4775.40106	0.03849
4773.47239	0.03856
4771.54371	0.03862
4769.61504	0.03868
4767.68636	0.03875
4765.75769	0.03881
4763.82901	0.03884
4761.90033	0.03888
4759.97166	0.03895
4758.04298	0.03904
4756.11431	0.03913
4754.18563	0.03921
4752.25696	0.03928
4750.32828	0.03934
4748.39960	0.03941
4746.47093	0.03948
4744.54225	0.03954
4742.61358	0.03960
4740.68490	0.03965
4738.75623	0.03970
4736.82755	0.03974
4734.89887	0.03981
4732.97020	0.03988
4731.04152	0.03995
4729.11285	0.04001
4727.18417	0.04005
4725.25550	0.04008
4723.32682	0.04015
4721.39814	0.04025
4719.46947	0.04034
4717.54079	0.04040
4715.61212	0.04045
4713.68344	0.04049
4711.75477	0.04052
4709.82609	0.04057
4707.89741	0.04065
4705.96874	0.04072
4704.04006	0.04080
4702.11139	0.04089
4700.18271	0.04095
4698.25404	0.04099
4696.32536	0.04105
4694.39668	0.04111
4692.46801	0.04119
4690.53933	0.04127
4688.61066	0.04137
4686.68198	0.04145
4684.75331	0.04149
4682.82463	0.04152
4680.89595	0.04156
4678.96728	0.04161
4677.03860	0.04169
4675.10993	0.04178
4673.18125	0.04185
4671.25258	0.04191
4669.32390	0.04196
4667.39522	0.04201
4665.46655	0.04209
4663.53787	0.04218
4661.60920	0.04227
4659.68052	0.04233
4657.75185	0.04238
4655.82317	0.04244
4653.89449	0.04253
4651.96582	0.04263
4650.03714	0.04271
4648.10847	0.04276
4646.17979	0.04279
4644.25112	0.04283
4642.32244	0.04289
4640.39376	0.04298
4638.46509	0.04308
4636.53641	0.04315
4634.60774	0.04321
4632.67906	0.04328
4630.75039	0.04336
4628.82171	0.04344
4626.89303	0.04351
4624.96436	0.04358
4623.03568	0.04366
4621.10701	0.04373
4619.17833	0.04379
4617.24966	0.04384
4615.32098	0.04389
4613.39230	0.04396
4611.46363	0.04403
4609.53495	0.04409
4607.60628	0.04417
4605.67760	0.04425
4603.74893	0.04433
4601.82025	0.04440
4599.89157	0.04448
4597.96290	0.04454
4596.03422	0.04461
4594.10555	0.04469
4592.17687	0.04477
4590.24820	0.04484
4588.31952	0.04491
4586.39084	0.04498
4584.46217	0.04504
4582.53349	0.04511
4580.60482	0.04519
4578.67614	0.04524
4576.74747	0.04531
4574.81879	0.04541
4572.89011	0.04553
4570.96144	0.04561
4569.03276	0.04568
4567.10409	0.04574
4565.17541	0.04577
4563.24674	0.04581
4561.31806	0.04591
4559.38938	0.04603
4557.46071	0.04615
4555.53203	0.04624
4553.60336	0.04630
4551.67468	0.04636
4549.74601	0.04640
4547.81733	0.04644
4545.88865	0.04651
4543.95998	0.04662
4542.03130	0.04673
4540.10263	0.04680
4538.17395	0.04686
4536.24528	0.04693
4534.31660	0.04701
4532.38792	0.04710
4530.45925	0.04718
4528.53057	0.04725
4526.60190	0.04730
4524.67322	0.04734
4522.74455	0.04743
4520.81587	0.04754
4518.88719	0.04765
4516.95852	0.04775
4515.02984	0.04784
4513.10117	0.04791
4511.17249	0.04797
4509.24382	0.04804
4507.31514	0.04813
4505.38646	0.04822
4503.45779	0.04831
4501.52911	0.04838
4499.60044	0.04842
4497.67176	0.04846
4495.74309	0.04854
4493.81441	0.04865
4491.88573	0.04874
4489.95706	0.04882
4488.02838	0.04889
4486.09971	0.04898
4484.17103	0.04905
4482.24236	0.04912
4480.31368	0.04920
4478.38500	0.04928
4476.45633	0.04936
4474.52765	0.04945
4472.59898	0.04957
4470.67030	0.04967
4468.74163	0.04975
4466.81295	0.04982
4464.88427	0.04992
4462.95560	0.05001
4461.02692	0.05009
4459.09825	0.05019
4457.16957	0.05029
4455.24090	0.05038
4453.31222	0.05046
4451.38354	0.05054
4449.45487	0.05062
4447.52619	0.05070
4445.59752	0.05079
4443.66884	0.05087
4441.74017	0.05095
4439.81149	0.05103
4437.88281	0.05112
4435.95414	0.05119
4434.02546	0.05127
4432.09679	0.05137
4430.16811	0.05146
4428.23944	0.05154
4426.31076	0.05163
4424.38208	0.05173
4422.45341	0.05184
4420.52473	0.05193
4418.59606	0.05201
4416.66738	0.05207
4414.73871	0.05214
4412.81003	0.05225
4410.88135	0.05235
4408.95268	0.05242
4407.02400	0.05252
4405.09533	0.05263
4403.16665	0.05273
4401.23798	0.05282
4399.30930	0.05290
4397.38062	0.05298
4395.45195	0.05308
4393.52327	0.05319
4391.59460	0.05330
4389.66592	0.05341
4387.73725	0.05352
4385.80857	0.05362
4383.87989	0.05369
4381.95122	0.05376
4380.02254	0.05382
4378.09387	0.05391
4376.16519	0.05401
4374.23652	0.05408
4372.30784	0.05413
4370.37916	0.05422
4368.45049	0.05436
4366.52181	0.05451
4364.59314	0.05460
4362.66446	0.05468
4360.73579	0.05478
4358.80711	0.05488
4356.87843	0.05496
4354.94976	0.05505
4353.02108	0.05514
4351.09241	0.05523
4349.16373	0.05533
4347.23506	0.05544
4345.30638	0.05555
4343.37770	0.05565
4341.44903	0.05576
4339.52035	0.05587
4337.59168	0.05596
4335.66300	0.05604
4333.73433	0.05616
4331.80565	0.05629
4329.87697	0.05637
4327.94830	0.05643
4326.01962	0.05649
4324.09095	0.05657
4322.16227	0.05669
4320.23360	0.05683
4318.30492	0.05693
4316.37624	0.05702
4314.44757	0.05714
4312.51889	0.05726
4310.59022	0.05733
4308.66154	0.05739
4306.73287	0.05750
4304.80419	0.05764
4302.87551	0.05775
4300.94684	0.05785
4299.01816	0.05798
4297.08949	0.05811
4295.16081	0.05821
4293.23214	0.05828
4291.30346	0.05836
4289.37478	0.05847
4287.44611	0.05860
4285.51743	0.05872
4283.58876	0.05884
4281.66008	0.05896
4279.73141	0.05907
4277.80273	0.05916
4275.87405	0.05927
4273.94538	0.05937
4272.01670	0.05948
4270.08803	0.05959
4268.15935	0.05970
4266.23068	0.05978
4264.30200	0.05987
4262.37332	0.05998
4260.44465	0.06007
4258.51597	0.06017
4256.58730	0.06030
4254.65862	0.06043
4252.72995	0.06054
4250.80127	0.06062
4248.87259	0.06070
4246.94392	0.06080
4245.01524	0.06094
4243.08657	0.06107
4241.15789	0.06118
4239.22922	0.06127
4237.30054	0.06140
4235.37186	0.06153
4233.44319	0.06163
4231.51451	0.06174
4229.58584	0.06185
4227.65716	0.06197
4225.72849	0.06209
4223.79981	0.06220
4221.87113	0.06230
4219.94246	0.06241
4218.01378	0.06250
4216.08511	0.06259
4214.15643	0.06272
4212.22776	0.06288
4210.29908	0.06303
4208.37040	0.06318
4206.44173	0.06328
4204.51305	0.06336
4202.58438	0.06345
4200.65570	0.06359
4198.72703	0.06374
4196.79835	0.06384
4194.86968	0.06390
4192.94100	0.06399
4191.01232	0.06413
4189.08365	0.06427
4187.15497	0.06439
4185.22630	0.06451
4183.29762	0.06463
4181.36895	0.06474
4179.44027	0.06484
4177.51159	0.06495
4175.58292	0.06505
4173.65424	0.06517
4171.72557	0.06531
4169.79689	0.06547
4167.86822	0.06560
4165.93954	0.06571
4164.01086	0.06585
4162.08219	0.06598
4160.15351	0.06610
4158.22484	0.06622
4156.29616	0.06632
4154.36749	0.06639
4152.43881	0.06649
4150.51013	0.06666
4148.58146	0.06683
4146.65278	0.06695
4144.72411	0.06704
4142.79543	0.06716
4140.86676	0.06728
4138.93808	0.06740
4137.00940	0.06754
4135.08073	0.06768
4133.15205	0.06781
4131.22338	0.06793
4129.29470	0.06803
4127.36603	0.06813
4125.43735	0.06828
4123.50867	0.06844
4121.58000	0.06858
4119.65132	0.06872
4117.72265	0.06886
4115.79397	0.06898
4113.86530	0.06908
4111.93662	0.06920
4110.00794	0.06935
4108.07927	0.06950
4106.15059	0.06964
4104.22192	0.06977
4102.29324	0.06990
4100.36457	0.07002
4098.43589	0.07014
4096.50721	0.07027
4094.57854	0.07039
4092.64986	0.07050
4090.72119	0.07061
4088.79251	0.07074
4086.86384	0.07090
4084.93516	0.07108
4083.00648	0.07122
4081.07781	0.07133
4079.14913	0.07144
4077.22046	0.07156
4075.29178	0.07170
4073.36311	0.07183
4071.43443	0.07197
4069.50575	0.07211
4067.57708	0.07225
4065.64840	0.07236
4063.71973	0.07245
4061.79105	0.07257
4059.86238	0.07273
4057.93370	0.07289
4056.00502	0.07306
4054.07635	0.07324
4052.14767	0.07339
4050.21900	0.07349
4048.29032	0.07357
4046.36165	0.07367
4044.43297	0.07383
4042.50429	0.07403
4040.57562	0.07420
4038.64694	0.07432
4036.71827	0.07444
4034.78959	0.07459
4032.86092	0.07472
4030.93224	0.07484
4029.00356	0.07496
4027.07489	0.07508
4025.14621	0.07521
4023.21754	0.07538
4021.28886	0.07555
4019.36019	0.07570
4017.43151	0.07582
4015.50283	0.07597
4013.57416	0.07615
4011.64548	0.07632
4009.71681	0.07644
4007.78813	0.07656
4005.85946	0.07671
4003.93078	0.07686
4002.00210	0.07700
4000.07343	0.07712
3998.14475	0.07722
3996.21608	0.07736
3994.28740	0.07754
3992.35873	0.07770
3990.43005	0.07783
3988.50137	0.07795
3986.57270	0.07808
3984.64402	0.07823
3982.71535	0.07841
3980.78667	0.07860
3978.85800	0.07877
3976.92932	0.07890
3975.00064	0.07900
3973.07197	0.07912
3971.14329	0.07927
3969.21462	0.07944
3967.28594	0.07960
3965.35727	0.07977
3963.42859	0.07993
3961.49991	0.08008
3959.57124	0.08022
3957.64256	0.08036
3955.71389	0.08049
3953.78521	0.08062
3951.85654	0.08076
3949.92786	0.08091
3947.99918	0.08106
3946.07051	0.08123
3944.14183	0.08138
3942.21316	0.08154
3940.28448	0.08173
3938.35581	0.08189
3936.42713	0.08202
3934.49845	0.08213
3932.56978	0.08223
3930.64110	0.08237
3928.71243	0.08255
3926.78375	0.08271
3924.85508	0.08285
3922.92640	0.08299
3920.99772	0.08311
3919.06905	0.08323
3917.14037	0.08340
3915.21170	0.08362
3913.28302	0.08383
3911.35435	0.08403
3909.42567	0.08421
3907.49699	0.08428
3905.56832	0.08424
3903.63964	0.08423
3901.71097	0.08437
3899.78229	0.08463
3897.85362	0.08496
3895.92494	0.08521
3893.99626	0.08532
3892.06759	0.08538
3890.13891	0.08553
3888.21024	0.08563
3886.28156	0.08569
3884.35289	0.08586
3882.42421	0.08605
3880.49553	0.08622
3878.56686	0.08649
3876.63818	0.08674
3874.70951	0.08684
3872.78083	0.08686
3870.85216	0.08688
3868.92348	0.08703
3866.99480	0.08726
3865.06613	0.08746
3863.13745	0.08772
3861.20878	0.08803
3859.28010	0.08824
3857.35143	0.08814
3855.42275	0.08783
3853.49407	0.08782
3851.56540	0.08834
3849.63672	0.08894
3847.70805	0.08926
3845.77937	0.08940
3843.85070	0.08948
3841.92202	0.08953
3839.99334	0.08953
3838.06467	0.08960
3836.13599	0.08985
3834.20732	0.09016
3832.27864	0.09043
3830.34997	0.09066
3828.42129	0.09085
3826.49261	0.09099
3824.56394	0.09107
3822.63526	0.09107
3820.70659	0.09115
3818.77791	0.09136
3816.84924	0.09157
3814.92056	0.09189
3812.99188	0.09227
3811.06321	0.09249
3809.13453	0.09252
3807.20586	0.09256
3805.27718	0.09271
3803.34851	0.09282
3801.41983	0.09295
3799.49115	0.09323
3797.56248	0.09353
3795.63380	0.09376
3793.70513	0.09400
3791.77645	0.09423
3789.84778	0.09442
3787.91910	0.09455
3785.99042	0.09468
3784.06175	0.09483
3782.13307	0.09495
3780.20440	0.09505
3778.27572	0.09524
3776.34705	0.09551
3774.41837	0.09572
3772.48969	0.09582
3770.56102	0.09591
3768.63234	0.09610
3766.70367	0.09636
3764.77499	0.09657
3762.84632	0.09671
3760.91764	0.09677
3758.98896	0.09687
3757.06029	0.09708
3755.13161	0.09719
3753.20294	0.09710
3751.27426	0.09702
3749.34559	0.09718
3747.41691	0.09733
3745.48823	0.09731
3743.55956	0.09762
3741.63088	0.09826
3739.70221	0.09859
3737.77353	0.09851
3735.84486	0.09846
3733.91618	0.09868
3731.98750	0.09911
3730.05883	0.09952
3728.13015	0.09976
3726.20148	0.09988
3724.27280	0.10005
3722.34413	0.10027
3720.41545	0.10050
3718.48677	0.10076
3716.55810	0.10096
3714.62942	0.10102
3712.70075	0.10100
3710.77207	0.10112
3708.84340	0.10141
3706.91472	0.10174
3704.98604	0.10197
3703.05737	0.10211
3701.12869	0.10232
3699.20002	0.10261
3697.27134	0.10284
3695.34267	0.10296
3693.41399	0.10296
3691.48531	0.10286
3689.55664	0.10287
3687.62796	0.10317
3685.69929	0.10362
3683.77061	0.10395
3681.84194	0.10412
3679.91326	0.10417
3677.98458	0.10407
3676.05591	0.10399
3674.12723	0.10419
3672.19856	0.10447
3670.26988	0.10469
3668.34121	0.10504
3666.41253	0.10547
3664.48385	0.10577
3662.55518	0.10593
3660.62650	0.10602
3658.69783	0.10605
3656.76915	0.10609
3654.84048	0.10618
3652.91180	0.10613
3650.98312	0.10588
3649.05445	0.10576
3647.12577	0.10605
3645.19710	0.10659
3643.26842	0.10709
3641.33975	0.10746
3639.41107	0.10768
3637.48239	0.10780
3635.55372	0.10789
3633.62504	0.10797
3631.69637	0.10789
3629.76769	0.10778
3627.83902	0.10800
3625.91034	0.10846
3623.98166	0.10876
3622.05299	0.10883
3620.12431	0.10881
3618.19564	0.10890
3616.26696	0.10907
3614.33829	0.10919
3612.40961	0.10924
3610.48093	0.10929
3608.55226	0.10943
3606.62358	0.10973
3604.69491	0.11003
3602.76623	0.11020
3600.83756	0.11035
3598.90888	0.11053
3596.98020	0.11064
3595.05153	0.11071
3593.12285	0.11081
3591.19418	0.11088
3589.26550	0.11090
3587.33683	0.11104
3585.40815	0.11134
3583.47947	0.11162
3581.55080	0.11180
3579.62212	0.11195
3577.69345	0.11212
3575.76477	0.11228
3573.83610	0.11243
3571.90742	0.11254
3569.97874	0.11254
3568.05007	0.11254
3566.12139	0.11270
3564.19272	0.11300
3562.26404	0.11325
3560.33537	0.11342
3558.40669	0.11355
3556.47801	0.11368
3554.54934	0.11378
3552.62066	0.11389
3550.69199	0.11401
3548.76331	0.11411
3546.83464	0.11420
3544.90596	0.11435
3542.97728	0.11456
3541.04861	0.11472
3539.11993	0.11482
3537.19126	0.11491
3535.26258	0.11502
3533.33391	0.11513
3531.40523	0.11520
3529.47655	0.11525
3527.54788	0.11529
3525.61920	0.11538
3523.69053	0.11548
3521.76185	0.11558
3519.83318	0.11569
3517.90450	0.11579
3515.97582	0.11587
3514.04715	0.11595
3512.11847	0.11600
3510.18980	0.11603
3508.26112	0.11610
3506.33245	0.11618
3504.40377	0.11622
3502.47509	0.11629
3500.54642	0.11641
3498.61774	0.11651
3496.68907	0.11654
3494.76039	0.11653
3492.83172	0.11654
3490.90304	0.11658
3488.97436	0.11660
3487.04569	0.11662
3485.11701	0.11667
3483.18834	0.11676
3481.25966	0.11688
3479.33099	0.11703
3477.40231	0.11718
3475.47363	0.11735
3473.54496	0.11753
3471.61628	0.11767
3469.68761	0.11780
3467.75893	0.11794
3465.83026	0.11812
3463.90158	0.11833
3461.97290	0.11854
3460.04423	0.11876
3458.11555	0.11896
3456.18688	0.11912
3454.25820	0.11929
3452.32953	0.11948
3450.40085	0.11966
3448.47217	0.11978
3446.54350	0.11993
3444.61482	0.12013
3442.68615	0.12035
3440.75747	0.12061
3438.82880	0.12091
3436.90012	0.12123
3434.97144	0.12158
3433.04277	0.12196
3431.11409	0.12233
3429.18542	0.12270
3427.25674	0.12307
3425.32807	0.12346
3423.39939	0.12384
3421.47071	0.12418
3419.54204	0.12449
3417.61336	0.12482
3415.68469	0.12516
3413.75601	0.12548
3411.82734	0.12578
3409.89866	0.12607
3407.96998	0.12632
3406.04131	0.12655
3404.11263	0.12679
3402.18396	0.12703
3400.25528	0.12728
3398.32661	0.12754
3396.39793	0.12780
3394.46925	0.12805
3392.54058	0.12831
3390.61190	0.12863
3388.68323	0.12896
3386.75455	0.12922
3384.82588	0.12944
3382.89720	0.12968
3380.96852	0.12996
3379.03985	0.13022
3377.11117	0.13045
3375.18250	0.13068
3373.25382	0.13093
3371.32515	0.13117
3369.39647	0.13141
3367.46779	0.13165
3365.53912	0.13189
3363.61044	0.13213
3361.68177	0.13236
3359.75309	0.13259
3357.82442	0.13282
3355.89574	0.13305
3353.96706	0.13331
3352.03839	0.13357
3350.10971	0.13382
3348.18104	0.13405
3346.25236	0.13427
3344.32369	0.13448
3342.39501	0.13470
3340.46633	0.13493
3338.53766	0.13517
3336.60898	0.13543
3334.68031	0.13571
3332.75163	0.13596
3330.82296	0.13618
3328.89428	0.13638
3326.96560	0.13660
3325.03693	0.13686
3323.10825	0.13711
3321.17958	0.13738
3319.25090	0.13765
3317.32223	0.13787
3315.39355	0.13804
3313.46487	0.13823
3311.53620	0.13849
3309.60752	0.13877
3307.67885	0.13903
3305.75017	0.13928
3303.82150	0.13955
3301.89282	0.13982
3299.96414	0.14009
3298.03547	0.14035
3296.10679	0.14060
3294.17812	0.14082
3292.24944	0.14106
3290.32077	0.14133
3288.39209	0.14160
3286.46341	0.14187
3284.53474	0.14211
3282.60606	0.14235
3280.67739	0.14262
3278.74871	0.14289
3276.82004	0.14312
3274.89136	0.14336
3272.96268	0.14363
3271.03401	0.14392
3269.10533	0.14419
3267.17666	0.14448
3265.24798	0.14477
3263.31931	0.14502
3261.39063	0.14526
3259.46195	0.14551
3257.53328	0.14574
3255.60460	0.14594
3253.67593	0.14616
3251.74725	0.14644
3249.81858	0.14676
3247.88990	0.14707
3245.96122	0.14735
3244.03255	0.14762
3242.10387	0.14787
3240.17520	0.14807
3238.24652	0.14829
3236.31785	0.14857
3234.38917	0.14888
3232.46049	0.14915
3230.53182	0.14942
3228.60314	0.14970
3226.67447	0.14997
3224.74579	0.15020
3222.81712	0.15044
3220.88844	0.15070
3218.95976	0.15096
3217.03109	0.15120
3215.10241	0.15143
3213.17374	0.15165
3211.24506	0.15190
3209.31639	0.15215
3207.38771	0.15239
3205.45903	0.15266
3203.53036	0.15295
3201.60168	0.15325
3199.67301	0.15356
3197.74433	0.15390
3195.81566	0.15423
3193.88698	0.15452
3191.95830	0.15478
3190.02963	0.15502
3188.10095	0.15524
3186.17228	0.15549
3184.24360	0.15576
3182.31493	0.15606
3180.38625	0.15636
3178.45757	0.15665
3176.52890	0.15694
3174.60022	0.15723
3172.67155	0.15751
3170.74287	0.15777
3168.81420	0.15801
3166.88552	0.15825
3164.95684	0.15851
3163.02817	0.15877
3161.09949	0.15902
3159.17082	0.15929
3157.24214	0.15957
3155.31347	0.15985
3153.38479	0.16014
3151.45611	0.16044
3149.52744	0.16075
3147.59876	0.16105
3145.67009	0.16129
3143.74141	0.16147
3141.81274	0.16168
3139.88406	0.16196
3137.95538	0.16226
3136.02671	0.16252
3134.09803	0.16277
3132.16936	0.16306
3130.24068	0.16337
3128.31201	0.16368
3126.38333	0.16396
3124.45465	0.16421
3122.52598	0.16446
3120.59730	0.16473
3118.66863	0.16500
3116.73995	0.16525
3114.81128	0.16547
3112.88260	0.16575
3110.95392	0.16613
3109.02525	0.16650
3107.09657	0.16678
3105.16790	0.16699
3103.23922	0.16721
3101.31055	0.16747
3099.38187	0.16775
3097.45319	0.16802
3095.52452	0.16826
3093.59584	0.16850
3091.66717	0.16874
3089.73849	0.16898
3087.80982	0.16924
3085.88114	0.16954
3083.95246	0.16985
3082.02379	0.17012
3080.09511	0.17035
3078.16644	0.17062
3076.23776	0.17090
3074.30909	0.17116
3072.38041	0.17141
3070.45173	0.17168
3068.52306	0.17193
3066.59438	0.17217
3064.66571	0.17246
3062.73703	0.17277
3060.80836	0.17302
3058.87968	0.17327
3056.95100	0.17356
3055.02233	0.17387
3053.09365	0.17417
3051.16498	0.17443
3049.23630	0.17468
3047.30763	0.17494
3045.37895	0.17520
3043.45027	0.17546
3041.52160	0.17576
3039.59292	0.17609
3037.66425	0.17636
3035.73557	0.17658
3033.80690	0.17678
3031.87822	0.17698
3029.94954	0.17727
3028.02087	0.17763
3026.09219	0.17796
3024.16352	0.17823
3022.23484	0.17847
3020.30617	0.17872
3018.37749	0.17896
3016.44881	0.17918
3014.52014	0.17944
3012.59146	0.17976
3010.66279	0.18006
3008.73411	0.18029
3006.80544	0.18050
3004.87676	0.18079
3002.94808	0.18113
3001.01941	0.18142
2999.09073	0.18165
2997.16206	0.18188
2995.23338	0.18211
2993.30471	0.18232
2991.37603	0.18253
2989.44735	0.18277
2987.51868	0.18301
2985.59000	0.18320
2983.66133	0.18334
2981.73265	0.18348
2979.80398	0.18365
2977.87530	0.18378
2975.94662	0.18384
2974.01795	0.18386
2972.08927	0.18385
2970.16060	0.18380
2968.23192	0.18376
2966.30325	0.18380
2964.37457	0.18393
2962.44589	0.18412
2960.51722	0.18434
2958.58854	0.18461
2956.65987	0.18492
2954.73119	0.18526
2952.80252	0.18559
2950.87384	0.18593
2948.94516	0.18626
2947.01649	0.18656
2945.08781	0.18682
2943.15914	0.18697
2941.23046	0.18702
2939.30179	0.18701
2937.37311	0.18698
2935.44443	0.18693
2933.51576	0.18685
2931.58708	0.18676
2929.65841	0.18669
2927.72973	0.18665
2925.80106	0.18664
2923.87238	0.18666
2921.94370	0.18674
2920.01503	0.18694
2918.08635	0.18726
2916.15768	0.18777
2914.22900	0.18855
2912.30033	0.18950
2910.37165	0.19037
2908.44297	0.19103
2906.51430	0.19157
2904.58562	0.19207
2902.65695	0.19252
2900.72827	0.19291
2898.79960	0.19332
2896.87092	0.19374
2894.94224	0.19414
2893.01357	0.19454
2891.08489	0.19493
2889.15622	0.19528
2887.22754	0.19559
2885.29887	0.19591
2883.37019	0.19623
2881.44151	0.19653
2879.51284	0.19682
2877.58416	0.19710
2875.65549	0.19738
2873.72681	0.19763
2871.79814	0.19784
2869.86946	0.19804
2867.94078	0.19828
2866.01211	0.19852
2864.08343	0.19872
2862.15476	0.19887
2860.22608	0.19895
2858.29741	0.19895
2856.36873	0.19891
2854.44005	0.19887
2852.51138	0.19887
2850.58270	0.19904
2848.65403	0.19959
2846.72535	0.20049
2844.79668	0.20142
2842.86800	0.20221
2840.93932	0.20285
2839.01065	0.20337
2837.08197	0.20383
2835.15330	0.20424
2833.22462	0.20460
2831.29595	0.20495
2829.36727	0.20528
2827.43859	0.20559
2825.50992	0.20593
2823.58124	0.20628
2821.65257	0.20658
2819.72389	0.20685
2817.79522	0.20714
2815.86654	0.20746
2813.93786	0.20778
2812.00919	0.20810
2810.08051	0.20839
2808.15184	0.20869
2806.22316	0.20904
2804.29449	0.20939
2802.36581	0.20968
2800.43713	0.20992
2798.50846	0.21022
2796.57978	0.21056
2794.65111	0.21090
2792.72243	0.21119
2790.79376	0.21148
2788.86508	0.21178
2786.93640	0.21209
2785.00773	0.21236
2783.07905	0.21264
2781.15038	0.21293
2779.22170	0.21324
2777.29303	0.21354
2775.36435	0.21380
2773.43567	0.21404
2771.50700	0.21432
2769.57832	0.21466
2767.64965	0.21498
2765.72097	0.21523
2763.79230	0.21548
2761.86362	0.21578
2759.93494	0.21611
2758.00627	0.21643
2756.07759	0.21664
2754.14892	0.21684
2752.22024	0.21710
2750.29157	0.21741
2748.36289	0.21773
2746.43421	0.21803
2744.50554	0.21831
2742.57686	0.21857
2740.64819	0.21885
2738.71951	0.21912
2736.79084	0.21940
2734.86216	0.21971
2732.93348	0.22002
2731.00481	0.22031
2729.07613	0.22053
2727.14746	0.22075
2725.21878	0.22106
2723.29011	0.22140
2721.36143	0.22169
2719.43275	0.22196
2717.50408	0.22225
2715.57540	0.22254
2713.64673	0.22282
2711.71805	0.22310
2709.78938	0.22335
2707.86070	0.22359
2705.93202	0.22386
2704.00335	0.22413
2702.07467	0.22439
2700.14600	0.22466
2698.21732	0.22497
2696.28865	0.22525
2694.35997	0.22550
2692.43129	0.22576
2690.50262	0.22604
2688.57394	0.22634
2686.64527	0.22663
2684.71659	0.22688
2682.78792	0.22712
2680.85924	0.22738
2678.93056	0.22769
2677.00189	0.22804
2675.07321	0.22839
2673.14454	0.22867
2671.21586	0.22892
2669.28719	0.22916
2667.35851	0.22942
2665.42983	0.22972
2663.50116	0.23005
2661.57248	0.23036
2659.64381	0.23064
2657.71513	0.23089
2655.78646	0.23116
2653.85778	0.23144
2651.92910	0.23172
2650.00043	0.23200
2648.07175	0.23229
2646.14308	0.23259
2644.21440	0.23289
2642.28573	0.23322
2640.35705	0.23356
2638.42837	0.23387
2636.49970	0.23415
2634.57102	0.23445
2632.64235	0.23474
2630.71367	0.23503
2628.78500	0.23532
2626.85632	0.23564
2624.92764	0.23596
2622.99897	0.23629
2621.07029	0.23661
2619.14162	0.23691
2617.21294	0.23721
2615.28427	0.23751
2613.35559	0.23780
2611.42691	0.23809
2609.49824	0.23837
2607.56956	0.23866
2605.64089	0.23897
2603.71221	0.23926
2601.78354	0.23956
2599.85486	0.23985
2597.92618	0.24014
2595.99751	0.24042
2594.06883	0.24072
2592.14016	0.24102
2590.21148	0.24132
2588.28281	0.24163
2586.35413	0.24193
2584.42545	0.24223
2582.49678	0.24255
2580.56810	0.24284
2578.63943	0.24312
2576.71075	0.24340
2574.78208	0.24366
2572.85340	0.24394
2570.92472	0.24421
2568.99605	0.24445
2567.06737	0.24473
2565.13870	0.24504
2563.21002	0.24536
2561.28135	0.24566
2559.35267	0.24595
2557.42399	0.24626
2555.49532	0.24656
2553.56664	0.24687
2551.63797	0.24718
2549.70929	0.24746
2547.78062	0.24774
2545.85194	0.24803
2543.92326	0.24833
2541.99459	0.24861
2540.06591	0.24889
2538.13724	0.24914
2536.20856	0.24936
2534.27989	0.24960
2532.35121	0.24986
2530.42253	0.25018
2528.49386	0.25058
2526.56518	0.25097
2524.63651	0.25129
2522.70783	0.25156
2520.77916	0.25181
2518.85048	0.25208
2516.92181	0.25238
2514.99313	0.25269
2513.06445	0.25299
2511.13578	0.25332
2509.20710	0.25364
2507.27843	0.25395
2505.34975	0.25427
2503.42108	0.25457
2501.49240	0.25484
2499.56372	0.25514
2497.63505	0.25548
2495.70637	0.25583
2493.77770	0.25619
2491.84902	0.25658
2489.92035	0.25694
2487.99167	0.25728
2486.06299	0.25759
2484.13432	0.25787
2482.20564	0.25817
2480.27697	0.25851
2478.34829	0.25881
2476.41962	0.25907
2474.49094	0.25934
2472.56226	0.25962
2470.63359	0.25996
2468.70491	0.26034
2466.77624	0.26067
2464.84756	0.26093
2462.91889	0.26120
2460.99021	0.26152
2459.06153	0.26188
2457.13286	0.26222
2455.20418	0.26254
2453.27551	0.26282
2451.34683	0.26309
2449.41816	0.26340
2447.48948	0.26375
2445.56080	0.26409
2443.63213	0.26444
2441.70345	0.26478
2439.77478	0.26509
2437.84610	0.26538
2435.91743	0.26569
2433.98875	0.26598
2432.06007	0.26625
2430.13140	0.26653
2428.20272	0.26679
2426.27405	0.26709
2424.34537	0.26745
2422.41670	0.26781
2420.48802	0.26814
2418.55934	0.26847
2416.63067	0.26879
2414.70199	0.26908
2412.77332	0.26935
2410.84464	0.26964
2408.91597	0.26996
2406.98729	0.27029
2405.05861	0.27059
2403.12994	0.27086
2401.20126	0.27117
2399.27259	0.27150
2397.34391	0.27180
2395.41524	0.27211
2393.48656	0.27244
2391.55788	0.27274
2389.62921	0.27301
2387.70053	0.27324
2385.77186	0.27347
2383.84318	0.27372
2381.91451	0.27396
2379.98583	0.27413
2378.05715	0.27426
2376.12848	0.27439
2374.19980	0.27446
2372.27113	0.27445
2370.34245	0.27444
2368.41378	0.27450
2366.48510	0.27463
2364.55642	0.27483
2362.62775	0.27506
2360.69907	0.27537
2358.77040	0.27579
2356.84172	0.27627
2354.91305	0.27673
2352.98437	0.27728
2351.05569	0.27794
2349.12702	0.27842
2347.19834	0.27855
2345.26967	0.27858
2343.34099	0.27874
2341.41232	0.27899
2339.48364	0.27926
2337.55496	0.27952
2335.62629	0.27977
2333.69761	0.28004
2331.76894	0.28040
2329.84026	0.28082
2327.91159	0.28123
2325.98291	0.28160
2324.05423	0.28200
2322.12556	0.28244
2320.19688	0.28287
2318.26821	0.28329
2316.33953	0.28371
2314.41086	0.28417
2312.48218	0.28464
2310.55350	0.28504
2308.62483	0.28537
2306.69615	0.28572
2304.76748	0.28613
2302.83880	0.28653
2300.91013	0.28687
2298.98145	0.28722
2297.05277	0.28753
2295.12410	0.28780
2293.19542	0.28808
2291.26675	0.28843
2289.33807	0.28879
2287.40940	0.28910
2285.48072	0.28936
2283.55204	0.28965
2281.62337	0.29002
2279.69469	0.29039
2277.76602	0.29071
2275.83734	0.29095
2273.90867	0.29117
2271.97999	0.29142
2270.05131	0.29175
2268.12264	0.29211
2266.19396	0.29245
2264.26529	0.29278
2262.33661	0.29311
2260.40794	0.29342
2258.47926	0.29367
2256.55058	0.29392
2254.62191	0.29424
2252.69323	0.29464
2250.76456	0.29499
2248.83588	0.29528
2246.90721	0.29554
2244.97853	0.29582
2243.04985	0.29608
2241.12118	0.29638
2239.19250	0.29672
2237.26383	0.29703
2235.33515	0.29732
2233.40648	0.29762
2231.47780	0.29797
2229.54912	0.29829
2227.62045	0.29858
2225.69177	0.29888
2223.76310	0.29916
2221.83442	0.29940
2219.90575	0.29966
2217.97707	0.30001
2216.04839	0.30034
2214.11972	0.30061
2212.19104	0.30091
2210.26237	0.30128
2208.33369	0.30165
2206.40502	0.30198
2204.47634	0.30228
2202.54766	0.30258
2200.61899	0.30287
2198.69031	0.30314
2196.76164	0.30340
2194.83296	0.30366
2192.90429	0.30390
2190.97561	0.30415
2189.04693	0.30446
2187.11826	0.30480
2185.18958	0.30511
2183.26091	0.30538
2181.33223	0.30565
2179.40356	0.30597
2177.47488	0.30631
2175.54620	0.30664
2173.61753	0.30694
2171.68885	0.30724
2169.76018	0.30755
2167.83150	0.30788
2165.90283	0.30824
2163.97415	0.30860
2162.04547	0.30889
2160.11680	0.30916
2158.18812	0.30948
2156.25945	0.30984
2154.33077	0.31015
2152.40210	0.31044
2150.47342	0.31074
2148.54474	0.31104
2146.61607	0.31135
2144.68739	0.31167
2142.75872	0.31198
2140.83004	0.31229
2138.90137	0.31259
2136.97269	0.31288
2135.04401	0.31318
2133.11534	0.31348
2131.18666	0.31375
2129.25799	0.31403
2127.32931	0.31436
2125.40064	0.31474
2123.47196	0.31510
2121.54328	0.31539
2119.61461	0.31565
2117.68593	0.31592
2115.75726	0.31622
2113.82858	0.31656
2111.89991	0.31691
2109.97123	0.31723
2108.04255	0.31755
2106.11388	0.31788
2104.18520	0.31823
2102.25653	0.31860
2100.32785	0.31896
2098.39918	0.31926
2096.47050	0.31950
2094.54182	0.31973
2092.61315	0.31995
2090.68447	0.32018
2088.75580	0.32049
2086.82712	0.32091
2084.89845	0.32133
2082.96977	0.32168
2081.04109	0.32195
2079.11242	0.32221
2077.18374	0.32251
2075.25507	0.32280
2073.32639	0.32308
2071.39772	0.32337
2069.46904	0.32366
2067.54036	0.32394
2065.61169	0.32422
2063.68301	0.32454
2061.75434	0.32491
2059.82566	0.32528
2057.89699	0.32563
2055.96831	0.32595
2054.03963	0.32627
2052.11096	0.32656
2050.18228	0.32682
2048.25361	0.32709
2046.32493	0.32743
2044.39626	0.32781
2042.46758	0.32813
2040.53890	0.32839
2038.61023	0.32868
2036.68155	0.32901
2034.75288	0.32934
2032.82420	0.32966
2030.89553	0.32997
2028.96685	0.33027
2027.03817	0.33058
2025.10950	0.33088
2023.18082	0.33118
2021.25215	0.33150
2019.32347	0.33181
2017.39480	0.33212
2015.46612	0.33245
2013.53744	0.33279
2011.60877	0.33312
2009.68009	0.33348
2007.75142	0.33384
2005.82274	0.33414
2003.89407	0.33437
2001.96539	0.33459
2000.03671	0.33487
1998.10804	0.33524
1996.17936	0.33553
1994.25069	0.33569
1992.32201	0.33585
1990.39334	0.33615
1988.46466	0.33651
1986.53598	0.33689
1984.60731	0.33726
1982.67863	0.33755
1980.74996	0.33779
1978.82128	0.33802
1976.89261	0.33827
1974.96393	0.33858
1973.03525	0.33890
1971.10658	0.33915
1969.17790	0.33933
1967.24923	0.33956
1965.32055	0.33989
1963.39188	0.34021
1961.46320	0.34048
1959.53452	0.34074
1957.60585	0.34104
1955.67717	0.34139
1953.74850	0.34174
1951.81982	0.34204
1949.89115	0.34233
1947.96247	0.34260
1946.03379	0.34282
1944.10512	0.34298
1942.17644	0.34326
1940.24777	0.34373
1938.31909	0.34418
1936.39042	0.34448
1934.46174	0.34472
1932.53306	0.34501
1930.60439	0.34533
1928.67571	0.34569
1926.74704	0.34599
1924.81836	0.34617
1922.88969	0.34634
1920.96101	0.34657
1919.03233	0.34682
1917.10366	0.34722
1915.17498	0.34777
1913.24631	0.34818
1911.31763	0.34841
1909.38896	0.34862
1907.46028	0.34893
1905.53160	0.34928
1903.60293	0.34959
1901.67425	0.34989
1899.74558	0.35017
1897.81690	0.35038
1895.88823	0.35060
1893.95955	0.35086
1892.03087	0.35110
1890.10220	0.35131
1888.17352	0.35168
1886.24485	0.35221
1884.31617	0.35261
1882.38750	0.35287
1880.45882	0.35312
1878.53014	0.35339
1876.60147	0.35368
1874.67279	0.35398
1872.74412	0.35417
1870.81544	0.35412
1868.88677	0.35416
1866.95809	0.35462
1865.02941	0.35527
1863.10074	0.35577
1861.17206	0.35611
1859.24339	0.35643
1857.31471	0.35679
1855.38604	0.35718
1853.45736	0.35755
1851.52868	0.35781
1849.60001	0.35796
1847.67133	0.35797
1845.74266	0.35786
1843.81398	0.35806
1841.88531	0.35879
1839.95663	0.35951
1838.02795	0.35992
1836.09928	0.36024
1834.17060	0.36050
1832.24193	0.36052
1830.31325	0.36052
1828.38458	0.36079
1826.45590	0.36115
1824.52722	0.36156
1822.59855	0.36214
1820.66987	0.36270
1818.74120	0.36308
1816.81252	0.36334
1814.88385	0.36348
1812.95517	0.36356
1811.02649	0.36372
1809.09782	0.36403
1807.16914	0.36442
1805.24047	0.36470
1803.31179	0.36474
1801.38312	0.36472
1799.45444	0.36497
1797.52576	0.36537
1795.59709	0.36553
1793.66841	0.36546
1791.73974	0.36569
1789.81106	0.36631
1787.88239	0.36681
1785.95371	0.36700
1784.02503	0.36715
1782.09636	0.36732
1780.16768	0.36751
1778.23901	0.36781
1776.31033	0.36793
1774.38166	0.36771
1772.45298	0.36757
1770.52430	0.36784
1768.59563	0.36834
1766.66695	0.36893
1764.73828	0.36931
1762.80960	0.36934
1760.88093	0.36940
1758.95225	0.36957
1757.02357	0.36971
1755.09490	0.36977
1753.16622	0.36949
1751.23755	0.36908
1749.30887	0.36917
1747.38020	0.36956
1745.45152	0.36980
1743.52284	0.36984
1741.59417	0.36981
1739.66549	0.36987
1737.73682	0.36985
1735.80814	0.36939
1733.87947	0.36923
1731.95079	0.37003
1730.02211	0.37106
1728.09344	0.37180
1726.16476	0.37231
1724.23609	0.37265
1722.30741	0.37279
1720.37874	0.37244
1718.45006	0.37189
1716.52138	0.37201
1714.59271	0.37284
1712.66403	0.37371
1710.73536	0.37416
1708.80668	0.37413
1706.87801	0.37393
1704.94933	0.37383
1703.02065	0.37340
1701.09198	0.37271
1699.16330	0.37271
1697.23463	0.37320
1695.30595	0.37374
1693.37728	0.37448
1691.44860	0.37490
1689.51992	0.37480
1687.59125	0.37435
1685.66257	0.37360
1683.73390	0.37341
1681.80522	0.37421
1679.87655	0.37506
1677.94787	0.37519
1676.01919	0.37489
1674.09052	0.37483
1672.16184	0.37483
1670.23317	0.37477
1668.30449	0.37519
1666.37582	0.37587
1664.44714	0.37599
1662.51846	0.37592
1660.58979	0.37617
1658.66111	0.37639
1656.73244	0.37583
1654.80376	0.37451
1652.87509	0.37400
1650.94641	0.37493
1649.01773	0.37557
1647.08906	0.37553
1645.16038	0.37602
1643.23171	0.37689
1641.30303	0.37735
1639.37436	0.37720
1637.44568	0.37662
1635.51700	0.37639
1633.58833	0.37705
1631.65965	0.37785
1629.73098	0.37802
1627.80230	0.37778
1625.87363	0.37725
1623.94495	0.37643
1622.01627	0.37583
1620.08760	0.37572
1618.15892	0.37605
1616.23025	0.37713
1614.30157	0.37869
1612.37290	0.37982
1610.44422	0.38039
1608.51554	0.38089
1606.58687	0.38148
1604.65819	0.38202
1602.72952	0.38247
1600.80084	0.38292
1598.87217	0.38333
1596.94349	0.38363
1595.01481	0.38386
1593.08614	0.38414
1591.15746	0.38447
1589.22879	0.38479
1587.30011	0.38513
1585.37144	0.38547
1583.44276	0.38577
1581.51408	0.38598
1579.58541	0.38596
1577.65673	0.38568
1575.72806	0.38577
1573.79938	0.38638
1571.87071	0.38671
1569.94203	0.38674
1568.01335	0.38707
1566.08468	0.38752
1564.15600	0.38775
1562.22733	0.38734
1560.29865	0.38625
1558.36998	0.38595
1556.44130	0.38709
1554.51262	0.38845
1552.58395	0.38920
1550.65527	0.38961
1548.72660	0.38994
1546.79792	0.38994
1544.86925	0.38942
1542.94057	0.38875
1541.01189	0.38845
1539.08322	0.38902
1537.15454	0.39012
1535.22587	0.39064
1533.29719	0.39076
1531.36852	0.39120
1529.43984	0.39153
1527.51116	0.39135
1525.58249	0.39109
1523.65381	0.39072
1521.72514	0.39038
1519.79646	0.39069
1517.86779	0.39140
1515.93911	0.39202
1514.01043	0.39248
1512.08176	0.39259
1510.15308	0.39218
1508.22441	0.39159
1506.29573	0.39179
1504.36706	0.39303
1502.43838	0.39402
1500.50970	0.39401
1498.58103	0.39366
1496.65235	0.39377
1494.72368	0.39430
1492.79500	0.39448
1490.86633	0.39409
1488.93765	0.39390
1487.00897	0.39433
1485.08030	0.39493
1483.15162	0.39521
1481.22295	0.39522
1479.29427	0.39504
1477.36560	0.39450
1475.43692	0.39369
1473.50824	0.39308
1471.57957	0.39312
1469.65089	0.39352
1467.72222	0.39356
1465.79354	0.39335
1463.86487	0.39350
1461.93619	0.39369
1460.00751	0.39311
1458.07884	0.39222
1456.15016	0.39234
1454.22149	0.39342
1452.29281	0.39430
1450.36414	0.39457
1448.43546	0.39465
1446.50678	0.39495
1444.57811	0.39537
1442.64943	0.39563
1440.72076	0.39550
1438.79208	0.39488
1436.86341	0.39444
1434.93473	0.39485
1433.00605	0.39545
1431.07738	0.39555
1429.14870	0.39552
1427.22003	0.39561
1425.29135	0.39562
1423.36268	0.39544
1421.43400	0.39486
1419.50532	0.39420
1417.57665	0.39428
1415.64797	0.39486
1413.71930	0.39513
1411.79062	0.39515
1409.86195	0.39521
1407.93327	0.39518
1406.00459	0.39498
1404.07592	0.39482
1402.14724	0.39470
1400.21857	0.39446
1398.28989	0.39424
1396.36122	0.39414
1394.43254	0.39421
1392.50386	0.39442
1390.57519	0.39429
1388.64651	0.39359
1386.71784	0.39287
1384.78916	0.39262
1382.86049	0.39281
1380.93181	0.39309
1379.00313	0.39313
1377.07446	0.39284
1375.14578	0.39253
1373.21711	0.39257
1371.28843	0.39281
1369.35976	0.39292
1367.43108	0.39289
1365.50240	0.39268
1363.57373	0.39235
1361.64505	0.39231
1359.71638	0.39263
1357.78770	0.39288
1355.85903	0.39286
1353.93035	0.39281
1352.00167	0.39289
1350.07300	0.39307
1348.14432	0.39326
1346.21565	0.39342
1344.28697	0.39348
1342.35830	0.39333
1340.42962	0.39307
1338.50094	0.39301
1336.57227	0.39315
1334.64359	0.39330
1332.71492	0.39331
1330.78624	0.39318
1328.85757	0.39300
1326.92889	0.39285
1325.00021	0.39273
1323.07154	0.39263
1321.14286	0.39251
1319.21419	0.39234
1317.28551	0.39220
1315.35684	0.39207
1313.42816	0.39184
1311.49948	0.39158
1309.57081	0.39134
1307.64213	0.39103
1305.71346	0.39066
1303.78478	0.39031
1301.85611	0.38998
1299.92743	0.38968
1297.99875	0.38938
1296.07008	0.38899
1294.14140	0.38851
1292.21273	0.38808
1290.28405	0.38765
1288.35538	0.38713
1286.42670	0.38653
1284.49802	0.38589
1282.56935	0.38527
1280.64067	0.38472
1278.71200	0.38411
1276.78332	0.38333
1274.85465	0.38237
1272.92597	0.38123
1270.99729	0.37977
1269.06862	0.37794
1267.13994	0.37596
1265.21127	0.37416
1263.28259	0.37290
1261.35392	0.37235
1259.42524	0.37235
1257.49656	0.37256
1255.56789	0.37272
1253.63921	0.37269
1251.71054	0.37233
1249.78186	0.37173
1247.85319	0.37108
1245.92451	0.37037
1243.99583	0.36953
1242.06716	0.36860
1240.13848	0.36760
1238.20981	0.36659
1236.28113	0.36562
1234.35246	0.36461
1232.42378	0.36350
1230.49510	0.36239
1228.56643	0.36136
1226.63775	0.36036
1224.70908	0.35934
1222.78040	0.35833
1220.85173	0.35738
1218.92305	0.35647
1216.99437	0.35553
1215.06570	0.35453
1213.13702	0.35351
1211.20835	0.35252
1209.27967	0.35153
1207.35100	0.35061
1205.42232	0.34978
1203.49364	0.34887
1201.56497	0.34780
1199.63629	0.34673
1197.70762	0.34577
1195.77894	0.34486
1193.85027	0.34394
1191.92159	0.34296
1189.99291	0.34187
1188.06424	0.34065
1186.13556	0.33934
1184.20689	0.33794
1182.27821	0.33646
1180.34954	0.33496
1178.42086	0.33351
1176.49218	0.33214
1174.56351	0.33077
1172.63483	0.32940
1170.70616	0.32804
1168.77748	0.32663
1166.84881	0.32509
1164.92013	0.32349
1162.99145	0.32193
1161.06278	0.32046
1159.13410	0.31904
1157.20543	0.31771
1155.27675	0.31645
1153.34808	0.31517
1151.41940	0.31391
1149.49072	0.31273
1147.56205	0.31162
1145.63337	0.31053
1143.70470	0.30935
1141.77602	0.30805
1139.84735	0.30676
1137.91867	0.30558
1135.98999	0.30440
1134.06132	0.30306
1132.13264	0.30159
1130.20397	0.30017
1128.27529	0.29882
1126.34662	0.29740
1124.41794	0.29594
1122.48926	0.29447
1120.56059	0.29297
1118.63191	0.29143
1116.70324	0.28981
1114.77456	0.28811
1112.84589	0.28646
1110.91721	0.28491
1108.98853	0.28337
1107.05986	0.28177
1105.13118	0.28015
1103.20251	0.27866
1101.27383	0.27731
1099.34516	0.27596
1097.41648	0.27462
1095.48780	0.27333
1093.55913	0.27206
1091.63045	0.27083
1089.70178	0.26976
1087.77310	0.26879
1085.84443	0.26774
1083.91575	0.26661
1081.98707	0.26547
1080.05840	0.26436
1078.12972	0.26340
1076.20105	0.26260
1074.27237	0.26192
1072.34370	0.26131
1070.41502	0.26081
1068.48634	0.26047
1066.55767	0.26032
1064.62899	0.26034
1062.70032	0.26047
1060.77164	0.26063
1058.84297	0.26084
1056.91429	0.26118
1054.98561	0.26160
1053.05694	0.26200
1051.12826	0.26244
1049.19959	0.26299
1047.27091	0.26361
1045.34224	0.26432
1043.41356	0.26508
1041.48488	0.26578
1039.55621	0.26647
1037.62753	0.26728
1035.69886	0.26816
1033.77018	0.26900
1031.84151	0.26978
1029.91283	0.27058
1027.98415	0.27140
1026.05548	0.27225
1024.12680	0.27308
1022.19813	0.27392
1020.26945	0.27492
1018.34078	0.27606
1016.41210	0.27727
1014.48342	0.27857
1012.55475	0.27996
1010.62607	0.28142
1008.69740	0.28292
1006.76872	0.28439
1004.84005	0.28578
1002.91137	0.28706
1000.98269	0.28817
999.05402	0.28912
997.12534	0.28989
995.19667	0.29051
993.26799	0.29111
991.33932	0.29182
989.41064	0.29261
987.48196	0.29337
985.55329	0.29398
983.62461	0.29444
981.69594	0.29487
979.76726	0.29521
977.83859	0.29538
975.90991	0.29546
973.98123	0.29550
972.05256	0.29548
970.12388	0.29540
968.19521	0.29536
966.26653	0.29531
964.33786	0.29513
962.40918	0.29476
960.48050	0.29433
958.55183	0.29395
956.62315	0.29360
954.69448	0.29320
952.76580	0.29281
950.83713	0.29239
948.90845	0.29187
946.97977	0.29128
945.05110	0.29064
943.12242	0.28994
941.19375	0.28930
939.26507	0.28871
937.33640	0.28814
935.40772	0.28753
933.47904	0.28685
931.55037	0.28611
929.62169	0.28536
927.69302	0.28461
925.76434	0.28386
923.83567	0.28310
921.90699	0.28233
919.97831	0.28157
918.04964	0.28077
916.12096	0.27992
914.19229	0.27908
912.26361	0.27828
910.33494	0.27751
908.40626	0.27672
906.47758	0.27587
904.54891	0.27494
902.62023	0.27398
900.69156	0.27306
898.76288	0.27213
896.83421	0.27120
894.90553	0.27030
892.97685	0.26944
891.04818	0.26857
889.11950	0.26762
887.19083	0.26668
885.26215	0.26580
883.33348	0.26494
881.40480	0.26405
879.47612	0.26315
877.54745	0.26221
875.61877	0.26133
873.69010	0.26063
871.76142	0.26000
869.83275	0.25937
867.90407	0.25865
865.97539	0.25773
864.04672	0.25674
862.11804	0.25585
860.18937	0.25503
858.26069	0.25412
856.33202	0.25312
854.40334	0.25210
852.47466	0.25111
850.54599	0.25023
848.61731	0.24939
846.68864	0.24851
844.75996	0.24766
842.83129	0.24680
840.90261	0.24586
838.97394	0.24488
837.04526	0.24397
835.11658	0.24304
833.18791	0.24199
831.25923	0.24091
829.33056	0.23984
827.40188	0.23868
825.47321	0.23748
823.54453	0.23633
821.61585	0.23526
819.68718	0.23428
817.75850	0.23336
815.82983	0.23242
813.90115	0.23135
811.97248	0.23019
810.04380	0.22912
808.11512	0.22821
806.18645	0.22741
804.25777	0.22664
802.32910	0.22586
800.40042	0.22513
798.47175	0.22462
796.54307	0.22431
794.61439	0.22398
792.68572	0.22367
790.75704	0.22347
788.82837	0.22326
786.89969	0.22297
784.97102	0.22266
783.04234	0.22223
781.11366	0.22167
779.18499	0.22108
777.25631	0.22047
775.32764	0.21986
773.39896	0.21938
771.47029	0.21903
769.54161	0.21863
767.61293	0.21803
765.68426	0.21730
763.75558	0.21652
761.82691	0.21571
759.89823	0.21493
757.96956	0.21416
756.04088	0.21331
754.11220	0.21234
752.18353	0.21131
750.25485	0.21034
748.32618	0.20954
746.39750	0.20876
744.46883	0.20781
742.54015	0.20680
740.61147	0.20585
738.68280	0.20504
736.75412	0.20436
734.82545	0.20373
732.89677	0.20302
730.96810	0.20228
729.03942	0.20162
727.11074	0.20096
725.18207	0.20027
723.25339	0.19951
721.32472	0.19870
719.39604	0.19786
717.46737	0.19697
715.53869	0.19610
713.61001	0.19535
711.68134	0.19461
709.75266	0.19374
707.82399	0.19288
705.89531	0.19215
703.96664	0.19147
702.03796	0.19071
700.10928	0.18978
698.18061	0.18883
696.25193	0.18799
694.32326	0.18721
692.39458	0.18644
690.46591	0.18567
688.53723	0.18479
686.60855	0.18370
684.67988	0.18252
682.75120	0.18147
680.82253	0.18056
678.89385	0.17947
676.96518	0.17814
675.03650	0.17686
673.10782	0.17567
671.17915	0.17418
669.25047	0.17231
667.32180	0.17067
665.39312	0.16945
663.46445	0.16807
661.53577	0.16641
659.60709	0.16479
657.67842	0.16332
655.74974	0.16183
653.82107	0.16039
651.89239	0.15903
649.96372	0.15757
648.03504	0.15592
646.10636	0.15419
644.17769	0.15248
642.24901	0.15074
640.32034	0.14892
638.39166	0.14705
636.46299	0.14521
634.53431	0.14343
632.60563	0.14166
630.67696	0.13978
628.74828	0.13787
626.81961	0.13604
624.89093	0.13427
622.96226	0.13250
621.03358	0.13076
619.10490	0.12907
617.17623	0.12741
615.24755	0.12564
613.31888	0.12371
611.39020	0.12176
609.46153	0.11992
607.53285	0.11823
605.60417	0.11669
603.67550	0.11522
601.74682	0.11371
599.81815	0.11209
597.88947	0.11049
595.96080	0.10913
594.03212	0.10794
592.10344	0.10678
590.17477	0.10572
588.24609	0.10477
586.31742	0.10370
584.38874	0.10249
582.46007	0.10125
580.53139	0.10005
578.60271	0.09894
576.67404	0.09786
574.74536	0.09678
572.81669	0.09576
570.88801	0.09479
568.95934	0.09380
567.03066	0.09285
565.10198	0.09213
563.17331	0.09155
561.24463	0.09087
559.31596	0.09010
557.38728	0.08932
555.45861	0.08848
553.52993	0.08764
551.60125	0.08699
549.67258	0.08659
547.74390	0.08614
545.81523	0.08559
543.88655	0.08509
541.95788	0.08457
540.02920	0.08388
538.10052	0.08323
536.17185	0.08281
534.24317	0.08248
532.31450	0.08194
530.38582	0.08124
528.45715	0.08058
526.52847	0.07991
524.59979	0.07913
522.67112	0.07834
520.74244	0.07759
518.81377	0.07680
516.88509	0.07598
514.95642	0.07513
513.02774	0.07412
511.09906	0.07309
509.17039	0.07223
507.24171	0.07144
505.31304	0.07065
503.38436	0.06975
501.45569	0.06868
499.52701	0.06754
497.59833	0.06639
495.66966	0.06518
493.74098	0.06387
491.81231	0.06252
489.88363	0.06115
487.95496	0.05979
486.02628	0.05851
484.09760	0.05723
482.16893	0.05578
480.24025	0.05443
478.31158	0.05342
476.38290	0.05243
474.45423	0.05116
472.52555	0.04983
470.59687	0.04875
468.66820	0.04788
466.73952	0.04710
464.81085	0.04638
462.88217	0.04583
460.95350	0.04548
459.02482	0.04528
457.09614	0.04523
455.16747	0.04531
453.23879	0.04533
451.31012	0.04524
449.38144	0.04515
447.45277	0.04487
445.52409	0.04435
443.59541	0.04383
441.66674	0.04332
439.73806	0.04261
437.80939	0.04173
435.88071	0.04083
433.95204	0.03982
432.02336	0.03875
430.09468	0.03779
428.16601	0.03673
426.23733	0.03529
424.30866	0.03367
422.37998	0.03222
420.45131	0.03096
418.52263	0.02972
416.59395	0.02845
414.66528	0.02728
412.73660	0.02613
410.80793	0.02490
408.87925	0.02370
406.95058	0.02244
405.02190	0.02110
403.09322	0.01996
401.16455	0.01895
399.23587	0.01776
397.30720	0.01648
395.37852	0.01545
393.44985	0.01454
391.52117	0.01365
389.59249	0.01283
387.66382	0.01198
385.73514	0.01109
383.80647	0.01032
381.87779	0.00972
379.94912	0.00910
378.02044	0.00832
376.09176	0.00748
374.16309	0.00672
372.23441	0.00601
370.30574	0.00539
368.37706	0.00493
