7496.76250	0.00220
7494.83382	0.00218
7492.90514	0.00216
7490.97647	0.00217
7489.04779	0.00217
7487.11912	0.00217
7485.19044	0.00218
7483.26177	0.00220
7481.33309	0.00223
7479.40441	0.00224
7477.47574	0.00224
7475.54706	0.00225
7473.61839	0.00225
7471.68971	0.00226
7469.76104	0.00226
7467.83236	0.00227
7465.90368	0.00229
7463.97501	0.00229
7462.04633	0.00228
7460.11766	0.00229
7458.18898	0.00231
7456.26031	0.00231
7454.33163	0.00231
7452.40295	0.00231
7450.47428	0.00231
7448.54560	0.00231
7446.61693	0.00232
7444.68825	0.00232
7442.75958	0.00233
7440.83090	0.00234
7438.90222	0.00235
7436.97355	0.00235
7435.04487	0.00234
7433.11620	0.00236
7431.18752	0.00238
7429.25885	0.00238
7427.33017	0.00237
7425.40149	0.00236
7423.47282	0.00237
7421.54414	0.00240
7419.61547	0.00242
7417.68679	0.00241
7415.75812	0.00241
7413.82944	0.00241
7411.90076	0.00243
7409.97209	0.00244
7408.04341	0.00243
7406.11474	0.00243
7404.18606	0.00244
7402.25739	0.00246
7400.32871	0.00249
7398.40003	0.00250
7396.47136	0.00250
7394.54268	0.00250
7392.61401	0.00250
7390.68533	0.00250
7388.75666	0.00249
7386.82798	0.00251
7384.89930	0.00252
7382.97063	0.00252
7381.04195	0.00252
7379.11328	0.00253
7377.18460	0.00253
7375.25593	0.00254
7373.32725	0.00256
7371.39857	0.00258
7369.46990	0.00259
7367.54122	0.00258
7365.61255	0.00257
7363.68387	0.00257
7361.75520	0.00258
7359.82652	0.00260
7357.89784	0.00262
7355.96917	0.00263
7354.04049	0.00263
7352.11182	0.00263
7350.18314	0.00264
7348.25447	0.00265
7346.32579	0.00264
7344.39711	0.00264
7342.46844	0.00265
7340.53976	0.00265
7338.61109	0.00265
7336.68241	0.00267
7334.75374	0.00269
7332.82506	0.00273
7330.89638	0.00275
7328.96771	0.00273
7327.03903	0.00271
7325.11036	0.00270
7323.18168	0.00270
7321.25301	0.00270
7319.32433	0.00271
7317.39565	0.00273
7315.46698	0.00274
7313.53830	0.00275
7311.60963	0.00278
7309.68095	0.00279
7307.75228	0.00279
7305.82360	0.00278
7303.89492	0.00278
7301.96625	0.00281
7300.03757	0.00284
7298.10890	0.00283
7296.18022	0.00282
7294.25155	0.00282
7292.32287	0.00284
7290.39419	0.00286
7288.46552	0.00286
7286.53684	0.00285
7284.60817	0.00284
7282.67949	0.00285
7280.75082	0.00288
7278.82214	0.00290
7276.89346	0.00291
7274.96479	0.00290
7273.03611	0.00288
7271.10744	0.00288
7269.17876	0.00290
7267.25009	0.00290
7265.32141	0.00290
7263.39273	0.00290
7261.46406	0.00290
7259.53538	0.00291
7257.60671	0.00293
7255.67803	0.00294
7253.74936	0.00296
7251.82068	0.00299
7249.89200	0.00301
7247.96333	0.00303
7246.03465	0.00303
7244.10598	0.00301
7242.17730	0.00298
7240.24863	0.00298
7238.31995	0.00300
7236.39127	0.00301
7234.46260	0.00302
7232.53392	0.00304
7230.60525	0.00306
7228.67657	0.00307
7226.74790	0.00306
7224.81922	0.00305
7222.89054	0.00307
7220.96187	0.00309
7219.03319	0.00309
7217.10452	0.00308
7215.17584	0.00308
7213.24717	0.00309
7211.31849	0.00311
7209.38981	0.00312
7207.46114	0.00313
7205.53246	0.00313
7203.60379	0.00312
7201.67511	0.00311
7199.74644	0.00313
7197.81776	0.00316
7195.88908	0.00317
7193.96041	0.00318
7192.03173	0.00318
7190.10306	0.00318
7188.17438	0.00317
7186.24571	0.00315
7184.31703	0.00315
7182.38835	0.00316
7180.45968	0.00319
7178.53100	0.00322
7176.60233	0.00324
7174.67365	0.00325
7172.74498	0.00327
7170.81630	0.00327
7168.88762	0.00325
7166.95895	0.00324
7165.03027	0.00323
7163.10160	0.00324
7161.17292	0.00327
7159.24425	0.00331
7157.31557	0.00333
7155.38689	0.00333
7153.45822	0.00331
7151.52954	0.00332
7149.60087	0.00334
7147.67219	0.00337
7145.74352	0.00340
7143.81484	0.00341
7141.88616	0.00339
7139.95749	0.00337
7138.02881	0.00335
7136.10014	0.00336
7134.17146	0.00339
7132.24279	0.00342
7130.31411	0.00345
7128.38543	0.00346
7126.45676	0.00344
7124.52808	0.00343
7122.59941	0.00345
7120.67073	0.00346
7118.74206	0.00346
7116.81338	0.00347
7114.88470	0.00350
7112.95603	0.00352
7111.02735	0.00353
7109.09868	0.00354
7107.17000	0.00355
7105.24133	0.00355
7103.31265	0.00354
7101.38397	0.00353
7099.45530	0.00353
7097.52662	0.00354
7095.59795	0.00355
7093.66927	0.00356
7091.74060	0.00358
7089.81192	0.00360
7087.88324	0.00361
7085.95457	0.00359
7084.02589	0.00358
7082.09722	0.00359
7080.16854	0.00361
7078.23987	0.00364
7076.31119	0.00365
7074.38251	0.00366
7072.45384	0.00367
7070.52516	0.00367
7068.59649	0.00367
7066.66781	0.00367
7064.73914	0.00369
7062.81046	0.00370
7060.88178	0.00371
7058.95311	0.00370
7057.02443	0.00370
7055.09576	0.00371
7053.16708	0.00371
7051.23841	0.00372
7049.30973	0.00374
7047.38105	0.00376
7045.45238	0.00378
7043.52370	0.00379
7041.59503	0.00380
7039.66635	0.00380
7037.73768	0.00380
7035.80900	0.00380
7033.88032	0.00382
7031.95165	0.00383
7030.02297	0.00383
7028.09430	0.00382
7026.16562	0.00382
7024.23695	0.00384
7022.30827	0.00388
7020.37959	0.00391
7018.45092	0.00391
7016.52224	0.00391
7014.59357	0.00390
7012.66489	0.00390
7010.73622	0.00391
7008.80754	0.00392
7006.87886	0.00393
7004.95019	0.00394
7003.02151	0.00396
7001.09284	0.00399
6999.16416	0.00401
6997.23549	0.00402
6995.30681	0.00401
6993.37813	0.00401
6991.44946	0.00399
6989.52078	0.00399
6987.59211	0.00401
6985.66343	0.00404
6983.73476	0.00405
6981.80608	0.00404
6979.87740	0.00405
6977.94873	0.00405
6976.02005	0.00406
6974.09138	0.00406
6972.16270	0.00408
6970.23403	0.00411
6968.30535	0.00412
6966.37667	0.00412
6964.44800	0.00411
6962.51932	0.00411
6960.59065	0.00412
6958.66197	0.00413
6956.73330	0.00415
6954.80462	0.00416
6952.87594	0.00417
6950.94727	0.00417
6949.01859	0.00417
6947.08992	0.00419
6945.16124	0.00420
6943.23257	0.00420
6941.30389	0.00421
6939.37521	0.00422
6937.44654	0.00425
6935.51786	0.00429
6933.58919	0.00430
6931.66051	0.00429
6929.73184	0.00429
6927.80316	0.00427
6925.87448	0.00426
6923.94581	0.00428
6922.01713	0.00432
6920.08846	0.00434
6918.15978	0.00435
6916.23111	0.00437
6914.30243	0.00438
6912.37375	0.00440
6910.44508	0.00440
6908.51640	0.00439
6906.58773	0.00439
6904.65905	0.00439
6902.73038	0.00439
6900.80170	0.00438
6898.87302	0.00439
6896.94435	0.00441
6895.01567	0.00444
6893.08700	0.00444
6891.15832	0.00443
6889.22965	0.00444
6887.30097	0.00447
6885.37229	0.00449
6883.44362	0.00450
6881.51494	0.00451
6879.58627	0.00453
6877.65759	0.00455
6875.72892	0.00457
6873.80024	0.00457
6871.87156	0.00457
6869.94289	0.00458
6868.01421	0.00458
6866.08554	0.00460
6864.15686	0.00462
6862.22819	0.00465
6860.29951	0.00467
6858.37083	0.00467
6856.44216	0.00467
6854.51348	0.00469
6852.58481	0.00472
6850.65613	0.00474
6848.72746	0.00473
6846.79878	0.00472
6844.87010	0.00473
6842.94143	0.00474
6841.01275	0.00474
6839.08408	0.00474
6837.15540	0.00475
6835.22673	0.00475
6833.29805	0.00475
6831.36937	0.00475
6829.44070	0.00477
6827.51202	0.00478
6825.58335	0.00479
6823.65467	0.00481
6821.72600	0.00484
6819.79732	0.00486
6817.86864	0.00485
6815.93997	0.00485
6814.01129	0.00487
6812.08262	0.00489
6810.15394	0.00488
6808.22527	0.00487
6806.29659	0.00488
6804.36791	0.00490
6802.43924	0.00491
6800.51056	0.00491
6798.58189	0.00492
6796.65321	0.00494
6794.72454	0.00495
6792.79586	0.00498
6790.86718	0.00501
6788.93851	0.00503
6787.00983	0.00503
6785.08116	0.00504
6783.15248	0.00505
6781.22381	0.00506
6779.29513	0.00506
6777.36645	0.00506
6775.43778	0.00507
6773.50910	0.00510
6771.58043	0.00512
6769.65175	0.00512
6767.72308	0.00512
6765.79440	0.00512
6763.86572	0.00514
6761.93705	0.00516
6760.00837	0.00517
6758.07970	0.00517
6756.15102	0.00516
6754.22235	0.00516
6752.29367	0.00518
6750.36499	0.00521
6748.43632	0.00522
6746.50764	0.00522
6744.57897	0.00522
6742.65029	0.00523
6740.72162	0.00526
6738.79294	0.00528
6736.86426	0.00530
6734.93559	0.00528
6733.00691	0.00528
6731.07824	0.00533
6729.14956	0.00538
6727.22089	0.00541
6725.29221	0.00540
6723.36353	0.00540
6721.43486	0.00543
6719.50618	0.00545
6717.57751	0.00544
6715.64883	0.00542
6713.72016	0.00541
6711.79148	0.00541
6709.86280	0.00541
6707.93413	0.00542
6706.00545	0.00544
6704.07678	0.00545
6702.14810	0.00547
6700.21943	0.00550
6698.29075	0.00552
6696.36207	0.00552
6694.43340	0.00552
6692.50472	0.00553
6690.57605	0.00555
6688.64737	0.00558
6686.71870	0.00561
6684.79002	0.00563
6682.86134	0.00564
6680.93267	0.00563
6679.00399	0.00562
6677.07532	0.00562
6675.14664	0.00564
6673.21797	0.00567
6671.28929	0.00571
6669.36061	0.00573
6667.43194	0.00573
6665.50326	0.00573
6663.57459	0.00573
6661.64591	0.00573
6659.71724	0.00573
6657.78856	0.00575
6655.85988	0.00579
6653.93121	0.00581
6652.00253	0.00581
6650.07386	0.00582
6648.14518	0.00584
6646.21651	0.00585
6644.28783	0.00585
6642.35915	0.00584
6640.43048	0.00585
6638.50180	0.00586
6636.57313	0.00587
6634.64445	0.00589
6632.71578	0.00589
6630.78710	0.00591
6628.85842	0.00592
6626.92975	0.00593
6625.00107	0.00596
6623.07240	0.00599
6621.14372	0.00601
6619.21505	0.00601
6617.28637	0.00603
6615.35769	0.00604
6613.42902	0.00605
6611.50034	0.00605
6609.57167	0.00606
6607.64299	0.00607
6605.71432	0.00609
6603.78564	0.00610
6601.85696	0.00611
6599.92829	0.00613
6597.99961	0.00615
6596.07094	0.00616
6594.14226	0.00616
6592.21359	0.00617
6590.28491	0.00620
6588.35623	0.00622
6586.42756	0.00623
6584.49888	0.00625
6582.57021	0.00625
6580.64153	0.00627
6578.71286	0.00628
6576.78418	0.00628
6574.85550	0.00628
6572.92683	0.00629
6570.99815	0.00630
6569.06948	0.00630
6567.14080	0.00633
6565.21213	0.00637
6563.28345	0.00640
6561.35477	0.00642
6559.42610	0.00643
6557.49742	0.00643
6555.56875	0.00642
6553.64007	0.00642
6551.71140	0.00641
6549.78272	0.00642
6547.85404	0.00646
6545.92537	0.00650
6543.99669	0.00653
6542.06802	0.00653
6540.13934	0.00654
6538.21067	0.00655
6536.28199	0.00656
6534.35331	0.00658
6532.42464	0.00660
6530.49596	0.00662
6528.56729	0.00662
6526.63861	0.00662
6524.70994	0.00665
6522.78126	0.00668
6520.85258	0.00669
6518.92391	0.00668
6516.99523	0.00668
6515.06656	0.00669
6513.13788	0.00672
6511.20921	0.00675
6509.28053	0.00679
6507.35185	0.00681
6505.42318	0.00682
6503.49450	0.00683
6501.56583	0.00684
6499.63715	0.00684
6497.70848	0.00685
6495.77980	0.00687
6493.85112	0.00690
6491.92245	0.00693
6489.99377	0.00693
6488.06510	0.00690
6486.13642	0.00688
6484.20775	0.00691
6482.27907	0.00694
6480.35039	0.00696
6478.42172	0.00698
6476.49304	0.00699
6474.56437	0.00699
6472.63569	0.00700
6470.70702	0.00703
6468.77834	0.00706
6466.84966	0.00708
6464.92099	0.00711
6462.99231	0.00713
6461.06364	0.00713
6459.13496	0.00713
6457.20629	0.00713
6455.27761	0.00716
6453.34893	0.00719
6451.42026	0.00721
6449.49158	0.00721
6447.56291	0.00721
6445.63423	0.00722
6443.70556	0.00725
6441.77688	0.00728
6439.84820	0.00728
6437.91953	0.00730
6435.99085	0.00733
6434.06218	0.00736
6432.13350	0.00738
6430.20483	0.00739
6428.27615	0.00740
6426.34747	0.00740
6424.41880	0.00740
6422.49012	0.00740
6420.56145	0.00740
6418.63277	0.00741
6416.70410	0.00742
6414.77542	0.00746
6412.84674	0.00751
6410.91807	0.00753
6408.98939	0.00753
6407.06072	0.00752
6405.13204	0.00754
6403.20337	0.00758
6401.27469	0.00762
6399.34601	0.00765
6397.41734	0.00766
6395.48866	0.00765
6393.55999	0.00764
6391.63131	0.00766
6389.70264	0.00769
6387.77396	0.00771
6385.84528	0.00774
6383.91661	0.00776
6381.98793	0.00775
6380.05926	0.00774
6378.13058	0.00775
6376.20191	0.00779
6374.27323	0.00782
6372.34455	0.00785
6370.41588	0.00788
6368.48720	0.00790
6366.55853	0.00790
6364.62985	0.00789
6362.70118	0.00789
6360.77250	0.00793
6358.84382	0.00797
6356.91515	0.00798
6354.98647	0.00798
6353.05780	0.00799
6351.12912	0.00801
6349.20045	0.00805
6347.27177	0.00808
6345.34309	0.00810
6343.41442	0.00811
6341.48574	0.00812
6339.55707	0.00814
6337.62839	0.00814
6335.69972	0.00817
6333.77104	0.00820
6331.84236	0.00822
6329.91369	0.00823
6327.98501	0.00825
6326.05634	0.00827
6324.12766	0.00828
6322.19899	0.00830
6320.27031	0.00834
6318.34163	0.00835
6316.41296	0.00836
6314.48428	0.00836
6312.55561	0.00838
6310.62693	0.00841
6308.69826	0.00845
6306.76958	0.00848
6304.84090	0.00849
6302.91223	0.00849
6300.98355	0.00850
6299.05488	0.00852
6297.12620	0.00853
6295.19753	0.00852
6293.26885	0.00853
6291.34017	0.00855
6289.41150	0.00857
6287.48282	0.00859
6285.55415	0.00860
6283.62547	0.00862
6281.69680	0.00866
6279.76812	0.00869
6277.83944	0.00870
6275.91077	0.00871
6273.98209	0.00873
6272.05342	0.00877
6270.12474	0.00879
6268.19607	0.00880
6266.26739	0.00882
6264.33871	0.00885
6262.41004	0.00885
6260.48136	0.00884
6258.55269	0.00884
6256.62401	0.00887
6254.69534	0.00891
6252.76666	0.00894
6250.83798	0.00894
6248.90931	0.00895
6246.98063	0.00899
6245.05196	0.00902
6243.12328	0.00904
6241.19461	0.00907
6239.26593	0.00909
6237.33725	0.00909
6235.40858	0.00910
6233.47990	0.00911
6231.55123	0.00912
6229.62255	0.00914
6227.69388	0.00916
6225.76520	0.00919
6223.83652	0.00920
6221.90785	0.00921
6219.97917	0.00924
6218.05050	0.00927
6216.12182	0.00929
6214.19315	0.00931
6212.26447	0.00933
6210.33579	0.00936
6208.40712	0.00938
6206.47844	0.00941
6204.54977	0.00944
6202.62109	0.00946
6200.69242	0.00948
6198.76374	0.00949
6196.83506	0.00952
6194.90639	0.00955
6192.97771	0.00958
6191.04904	0.00961
6189.12036	0.00962
6187.19169	0.00963
6185.26301	0.00965
6183.33433	0.00967
6181.40566	0.00968
6179.47698	0.00971
6177.54831	0.00973
6175.61963	0.00975
6173.69096	0.00976
6171.76228	0.00977
6169.83360	0.00978
6167.90493	0.00979
6165.97625	0.00980
6164.04758	0.00982
6162.11890	0.00986
6160.19023	0.00990
6158.26155	0.00994
6156.33287	0.00996
6154.40420	0.00996
6152.47552	0.00996
6150.54685	0.00997
6148.61817	0.01000
6146.68950	0.01005
6144.76082	0.01009
6142.83214	0.01009
6140.90347	0.01008
6138.97479	0.01008
6137.04612	0.01010
6135.11744	0.01011
6133.18877	0.01014
6131.26009	0.01017
6129.33141	0.01019
6127.40274	0.01022
6125.47406	0.01025
6123.54539	0.01028
6121.61671	0.01031
6119.68804	0.01033
6117.75936	0.01034
6115.83068	0.01036
6113.90201	0.01040
6111.97333	0.01044
6110.04466	0.01045
6108.11598	0.01046
6106.18731	0.01048
6104.25863	0.01051
6102.32995	0.01053
6100.40128	0.01054
6098.47260	0.01053
6096.54393	0.01055
6094.61525	0.01059
6092.68658	0.01064
6090.75790	0.01068
6088.82922	0.01071
6086.90055	0.01073
6084.97187	0.01075
6083.04320	0.01078
6081.11452	0.01081
6079.18585	0.01083
6077.25717	0.01084
6075.32849	0.01084
6073.39982	0.01086
6071.47114	0.01088
6069.54247	0.01091
6067.61379	0.01093
6065.68512	0.01095
6063.75644	0.01098
6061.82776	0.01102
6059.89909	0.01105
6057.97041	0.01108
6056.04174	0.01109
6054.11306	0.01111
6052.18439	0.01115
6050.25571	0.01120
6048.32703	0.01122
6046.39836	0.01123
6044.46968	0.01124
6042.54101	0.01126
6040.61233	0.01128
6038.68366	0.01130
6036.75498	0.01130
6034.82630	0.01131
6032.89763	0.01133
6030.96895	0.01136
6029.04028	0.01138
6027.11160	0.01141
6025.18293	0.01145
6023.25425	0.01150
6021.32557	0.01153
6019.39690	0.01154
6017.46822	0.01156
6015.53955	0.01159
6013.61087	0.01162
6011.68220	0.01162
6009.75352	0.01164
6007.82484	0.01169
6005.89617	0.01173
6003.96749	0.01175
6002.03882	0.01176
6000.11014	0.01178
5998.18147	0.01180
5996.25279	0.01180
5994.32411	0.01181
5992.39544	0.01184
5990.46676	0.01189
5988.53809	0.01193
5986.60941	0.01197
5984.68074	0.01201
5982.75206	0.01202
5980.82338	0.01202
5978.89471	0.01203
5976.96603	0.01205
5975.03736	0.01209
5973.10868	0.01215
5971.18001	0.01218
5969.25133	0.01220
5967.32265	0.01222
5965.39398	0.01223
5963.46530	0.01224
5961.53663	0.01225
5959.60795	0.01226
5957.67928	0.01228
5955.75060	0.01230
5953.82192	0.01233
5951.89325	0.01239
5949.96457	0.01244
5948.03590	0.01248
5946.10722	0.01248
5944.17855	0.01249
5942.24987	0.01251
5940.32119	0.01255
5938.39252	0.01258
5936.46384	0.01261
5934.53517	0.01265
5932.60649	0.01268
5930.67782	0.01269
5928.74914	0.01269
5926.82046	0.01271
5924.89179	0.01275
5922.96311	0.01278
5921.03444	0.01280
5919.10576	0.01283
5917.17709	0.01287
5915.24841	0.01292
5913.31973	0.01295
5911.39106	0.01299
5909.46238	0.01304
5907.53371	0.01308
5905.60503	0.01308
5903.67636	0.01308
5901.74768	0.01309
5899.81900	0.01311
5897.89033	0.01311
5895.96165	0.01314
5894.03298	0.01318
5892.10430	0.01322
5890.17563	0.01323
5888.24695	0.01323
5886.31827	0.01326
5884.38960	0.01332
5882.46092	0.01336
5880.53225	0.01338
5878.60357	0.01337
5876.67490	0.01339
5874.74622	0.01346
5872.81755	0.01353
5870.88887	0.01358
5868.96019	0.01359
5867.03152	0.01359
5865.10284	0.01360
5863.17417	0.01362
5861.24549	0.01366
5859.31682	0.01370
5857.38814	0.01373
5855.45946	0.01373
5853.53079	0.01373
5851.60211	0.01377
5849.67344	0.01382
5847.74476	0.01387
5845.81609	0.01392
5843.88741	0.01397
5841.95873	0.01401
5840.03006	0.01401
5838.10138	0.01401
5836.17271	0.01403
5834.24403	0.01405
5832.31536	0.01406
5830.38668	0.01408
5828.45800	0.01413
5826.52933	0.01419
5824.60065	0.01421
5822.67198	0.01423
5820.74330	0.01424
5818.81463	0.01427
5816.88595	0.01430
5814.95727	0.01434
5813.02860	0.01438
5811.09992	0.01441
5809.17125	0.01443
5807.24257	0.01448
5805.31390	0.01454
5803.38522	0.01457
5801.45654	0.01459
5799.52787	0.01462
5797.59919	0.01465
5795.67052	0.01468
5793.74184	0.01472
5791.81317	0.01476
5789.88449	0.01478
5787.95581	0.01479
5786.02714	0.01480
5784.09846	0.01484
5782.16979	0.01490
5780.24111	0.01494
5778.31244	0.01496
5776.38376	0.01496
5774.45508	0.01497
5772.52641	0.01500
5770.59773	0.01505
5768.66906	0.01509
5766.74038	0.01511
5764.81171	0.01512
5762.88303	0.01515
5760.95435	0.01519
5759.02568	0.01522
5757.09700	0.01527
5755.16833	0.01533
5753.23965	0.01538
5751.31098	0.01541
5749.38230	0.01545
5747.45362	0.01548
5745.52495	0.01550
5743.59627	0.01550
5741.66760	0.01553
5739.73892	0.01557
5737.81025	0.01560
5735.88157	0.01562
5733.95289	0.01565
5732.02422	0.01567
5730.09554	0.01569
5728.16687	0.01572
5726.23819	0.01575
5724.30952	0.01577
5722.38084	0.01580
5720.45216	0.01585
5718.52349	0.01591
5716.59481	0.01593
5714.66614	0.01596
5712.73746	0.01601
5710.80879	0.01607
5708.88011	0.01612
5706.95143	0.01614
5705.02276	0.01616
5703.09408	0.01618
5701.16541	0.01621
5699.23673	0.01624
5697.30806	0.01624
5695.37938	0.01625
5693.45070	0.01628
5691.52203	0.01632
5689.59335	0.01637
5687.66468	0.01641
5685.73600	0.01643
5683.80733	0.01648
5681.87865	0.01653
5679.94997	0.01657
5678.02130	0.01661
5676.09262	0.01663
5674.16395	0.01666
5672.23527	0.01671
5670.30660	0.01678
5668.37792	0.01684
5666.44924	0.01687
5664.52057	0.01687
5662.59189	0.01687
5660.66322	0.01689
5658.73454	0.01691
5656.80587	0.01694
5654.87719	0.01697
5652.94851	0.01700
5651.01984	0.01705
5649.09116	0.01710
5647.16249	0.01715
5645.23381	0.01719
5643.30514	0.01722
5641.37646	0.01726
5639.44778	0.01730
5637.51911	0.01733
5635.59043	0.01734
5633.66176	0.01736
5631.73308	0.01739
5629.80441	0.01744
5627.87573	0.01748
5625.94705	0.01750
5624.01838	0.01752
5622.08970	0.01754
5620.16103	0.01759
5618.23235	0.01766
5616.30368	0.01772
5614.37500	0.01776
5612.44632	0.01778
5610.51765	0.01779
5608.58897	0.01781
5606.66030	0.01786
5604.73162	0.01791
5602.80295	0.01795
5600.87427	0.01798
5598.94559	0.01802
5597.01692	0.01806
5595.08824	0.01811
5593.15957	0.01816
5591.23089	0.01819
5589.30222	0.01822
5587.37354	0.01825
5585.44486	0.01827
5583.51619	0.01829
5581.58751	0.01831
5579.65884	0.01836
5577.73016	0.01840
5575.80149	0.01841
5573.87281	0.01844
5571.94413	0.01850
5570.01546	0.01856
5568.08678	0.01859
5566.15811	0.01862
5564.22943	0.01868
5562.30076	0.01874
5560.37208	0.01879
5558.44340	0.01881
5556.51473	0.01883
5554.58605	0.01885
5552.65738	0.01888
5550.72870	0.01890
5548.80003	0.01891
5546.87135	0.01893
5544.94267	0.01897
5543.01400	0.01901
5541.08532	0.01905
5539.15665	0.01909
5537.22797	0.01914
5535.29930	0.01917
5533.37062	0.01921
5531.44194	0.01925
5529.51327	0.01930
5527.58459	0.01935
5525.65592	0.01942
5523.72724	0.01949
5521.79857	0.01953
5519.86989	0.01955
5517.94121	0.01954
5516.01254	0.01957
5514.08386	0.01965
5512.15519	0.01972
5510.22651	0.01974
5508.29784	0.01975
5506.36916	0.01978
5504.44048	0.01981
5502.51181	0.01982
5500.58313	0.01985
5498.65446	0.01991
5496.72578	0.01994
5494.79711	0.01996
5492.86843	0.02000
5490.93975	0.02006
5489.01108	0.02012
5487.08240	0.02017
5485.15373	0.02021
5483.22505	0.02026
5481.29638	0.02031
5479.36770	0.02034
5477.43902	0.02034
5475.51035	0.02037
5473.58167	0.02040
5471.65300	0.02043
5469.72432	0.02048
5467.79565	0.02054
5465.86697	0.02059
5463.93829	0.02061
5462.00962	0.02062
5460.08094	0.02066
5458.15227	0.02072
5456.22359	0.02079
5454.29492	0.02084
5452.36624	0.02088
5450.43756	0.02090
5448.50889	0.02092
5446.58021	0.02096
5444.65154	0.02102
5442.72286	0.02105
5440.79419	0.02107
5438.86551	0.02110
5436.93683	0.02114
5435.00816	0.02117
5433.07948	0.02121
5431.15081	0.02125
5429.22213	0.02131
5427.29346	0.02136
5425.36478	0.02139
5423.43610	0.02142
5421.50743	0.02147
5419.57875	0.02152
5417.65008	0.02155
5415.72140	0.02156
5413.79273	0.02159
5411.86405	0.02163
5409.93537	0.02170
5408.00670	0.02177
5406.07802	0.02181
5404.14935	0.02185
5402.22067	0.02190
5400.29200	0.02195
5398.36332	0.02198
5396.43464	0.02200
5394.50597	0.02204
5392.57729	0.02210
5390.64862	0.02215
5388.71994	0.02218
5386.79127	0.02221
5384.86259	0.02225
5382.93391	0.02232
5381.00524	0.02239
5379.07656	0.02242
5377.14789	0.02244
5375.21921	0.02248
5373.29054	0.02254
5371.36186	0.02259
5369.43318	0.02261
5367.50451	0.02262
5365.57583	0.02264
5363.64716	0.02268
5361.71848	0.02273
5359.78981	0.02278
5357.86113	0.02283
5355.93245	0.02286
5354.00378	0.02288
5352.07510	0.02291
5350.14643	0.02296
5348.21775	0.02304
5346.28908	0.02313
5344.36040	0.02318
5342.43172	0.02322
5340.50305	0.02324
5338.57437	0.02325
5336.64570	0.02326
5334.71702	0.02333
5332.78835	0.02340
5330.85967	0.02345
5328.93099	0.02347
5327.00232	0.02351
5325.07364	0.02357
5323.14497	0.02364
5321.21629	0.02372
5319.28762	0.02377
5317.35894	0.02378
5315.43026	0.02381
5313.50159	0.02386
5311.57291	0.02391
5309.64424	0.02394
5307.71556	0.02395
5305.78689	0.02396
5303.85821	0.02399
5301.92953	0.02404
5300.00086	0.02408
5298.07218	0.02415
5296.14351	0.02420
5294.21483	0.02423
5292.28616	0.02425
5290.35748	0.02429
5288.42880	0.02436
5286.50013	0.02440
5284.57145	0.02442
5282.64278	0.02445
5280.71410	0.02449
5278.78543	0.02453
5276.85675	0.02459
5274.92807	0.02465
5272.99940	0.02472
5271.07072	0.02478
5269.14205	0.02484
5267.21337	0.02489
5265.28470	0.02490
5263.35602	0.02493
5261.42734	0.02498
5259.49867	0.02505
5257.56999	0.02509
5255.64132	0.02511
5253.71264	0.02513
5251.78397	0.02519
5249.85529	0.02526
5247.92661	0.02532
5245.99794	0.02537
5244.06926	0.02542
5242.14059	0.02548
5240.21191	0.02553
5238.28324	0.02555
5236.35456	0.02558
5234.42588	0.02563
5232.49721	0.02570
5230.56853	0.02575
5228.63986	0.02576
5226.71118	0.02579
5224.78251	0.02584
5222.85383	0.02589
5220.92515	0.02592
5218.99648	0.02596
5217.06780	0.02602
5215.13913	0.02609
5213.21045	0.02614
5211.28178	0.02617
5209.35310	0.02618
5207.42442	0.02619
5205.49575	0.02624
5203.56707	0.02633
5201.63840	0.02641
5199.70972	0.02646
5197.78105	0.02651
5195.85237	0.02656
5193.92369	0.02661
5191.99502	0.02665
5190.06634	0.02669
5188.13767	0.02671
5186.20899	0.02674
5184.28032	0.02680
5182.35164	0.02686
5180.42296	0.02691
5178.49429	0.02697
5176.56561	0.02702
5174.63694	0.02705
5172.70826	0.02708
5170.77959	0.02711
5168.85091	0.02715
5166.92223	0.02721
5164.99356	0.02728
5163.06488	0.02735
5161.13621	0.02741
5159.20753	0.02743
5157.27886	0.02746
5155.35018	0.02751
5153.42150	0.02756
5151.49283	0.02763
5149.56415	0.02769
5147.63548	0.02772
5145.70680	0.02775
5143.77813	0.02781
5141.84945	0.02787
5139.92077	0.02793
5137.99210	0.02797
5136.06342	0.02796
5134.13475	0.02795
5132.20607	0.02800
5130.27740	0.02809
5128.34872	0.02818
5126.42004	0.02825
5124.49137	0.02829
5122.56269	0.02833
5120.63402	0.02839
5118.70534	0.02846
5116.77667	0.02848
5114.84799	0.02849
5112.91931	0.02851
5110.99064	0.02855
5109.06196	0.02861
5107.13329	0.02867
5105.20461	0.02872
5103.27594	0.02876
5101.34726	0.02880
5099.41858	0.02884
5097.48991	0.02890
5095.56123	0.02898
5093.63256	0.02907
5091.70388	0.02915
5089.77521	0.02921
5087.84653	0.02926
5085.91785	0.02930
5083.98918	0.02933
5082.06050	0.02936
5080.13183	0.02941
5078.20315	0.02947
5076.27448	0.02953
5074.34580	0.02957
5072.41712	0.02959
5070.48845	0.02963
5068.55977	0.02968
5066.63110	0.02974
5064.70242	0.02979
5062.77375	0.02984
5060.84507	0.02992
5058.91639	0.03000
5056.98772	0.03006
5055.05904	0.03007
5053.13037	0.03009
5051.20169	0.03014
5049.27302	0.03021
5047.34434	0.03027
5045.41566	0.03033
5043.48699	0.03038
5041.55831	0.03040
5039.62964	0.03042
5037.70096	0.03047
5035.77229	0.03054
5033.84361	0.03060
5031.91493	0.03063
5029.98626	0.03068
5028.05758	0.03074
5026.12891	0.03078
5024.20023	0.03081
5022.27156	0.03087
5020.34288	0.03094
5018.41420	0.03103
5016.48553	0.03111
5014.55685	0.03114
5012.62818	0.03116
5010.69950	0.03120
5008.77083	0.03125
5006.84215	0.03131
5004.91347	0.03138
5002.98480	0.03143
5001.05612	0.03145
4999.12745	0.03148
4997.19877	0.03153
4995.27010	0.03162
4993.34142	0.03170
4991.41274	0.03176
4989.48407	0.03181
4987.55539	0.03184
4985.62672	0.03188
4983.69804	0.03191
4981.76937	0.03197
4979.84069	0.03204
4977.91201	0.03210
4975.98334	0.03216
4974.05466	0.03222
4972.12599	0.03227
4970.19731	0.03231
4968.26864	0.03235
4966.33996	0.03239
4964.41128	0.03244
4962.48261	0.03251
4960.55393	0.03258
4958.62526	0.03262
4956.69658	0.03266
4954.76791	0.03269
4952.83923	0.03271
4950.91055	0.03277
4948.98188	0.03286
4947.05320	0.03295
4945.12453	0.03302
4943.19585	0.03306
4941.26718	0.03306
4939.33850	0.03308
4937.40982	0.03315
4935.48115	0.03325
4933.55247	0.03333
4931.62380	0.03340
4929.69512	0.03347
4927.76645	0.03352
4925.83777	0.03355
4923.90909	0.03359
4921.98042	0.03363
4920.05174	0.03368
4918.12307	0.03375
4916.19439	0.03382
4914.26572	0.03386
4912.33704	0.03390
4910.40836	0.03397
4908.47969	0.03405
4906.55101	0.03410
4904.62234	0.03414
4902.69366	0.03421
4900.76499	0.03428
4898.83631	0.03432
4896.90763	0.03434
4894.97896	0.03437
4893.05028	0.03439
4891.12161	0.03445
4889.19293	0.03454
4887.26426	0.03463
4885.33558	0.03468
4883.40690	0.03471
4881.47823	0.03475
4879.54955	0.03479
4877.62088	0.03482
4875.69220	0.03488
4873.76353	0.03498
4871.83485	0.03508
4869.90617	0.03515
4867.97750	0.03519
4866.04882	0.03521
4864.12015	0.03525
4862.19147	0.03532
4860.26280	0.03541
4858.33412	0.03547
4856.40544	0.03554
4854.47677	0.03561
4852.54809	0.03567
4850.61942	0.03571
4848.69074	0.03574
4846.76207	0.03577
4844.83339	0.03582
4842.90471	0.03590
4840.97604	0.03598
4839.04736	0.03605
4837.11869	0.03610
4835.19001	0.03614
4833.26134	0.03619
4831.33266	0.03623
4829.40398	0.03626
4827.47531	0.03630
4825.54663	0.03636
4823.61796	0.03645
4821.68928	0.03656
4819.76061	0.03664
4817.83193	0.03668
4815.90325	0.03673
4813.97458	0.03679
4812.04590	0.03687
4810.11723	0.03692
4808.18855	0.03695
4806.25988	0.03700
4804.33120	0.03708
4802.40252	0.03718
4800.47385	0.03725
4798.54517	0.03729
4796.61650	0.03734
4794.68782	0.03738
4792.75915	0.03741
4790.83047	0.03748
4788.90179	0.03757
4786.97312	0.03764
4785.04444	0.03767
4783.11577	0.03769
4781.18709	0.03776
4779.25842	0.03785
4777.32974	0.03793
4775.40106	0.03797
4773.47239	0.03803
4771.54371	0.03810
4769.61504	0.03817
4767.68636	0.03823
4765.75769	0.03830
4763.82901	0.03836
4761.90033	0.03844
4759.97166	0.03853
4758.04298	0.03861
4756.11431	0.03865
4754.18563	0.03868
4752.25696	0.03871
4750.32828	0.03877
4748.39960	0.03884
4746.47093	0.03891
4744.54225	0.03896
4742.61358	0.03901
4740.68490	0.03908
4738.75623	0.03915
4736.82755	0.03921
4734.89887	0.03925
4732.97020	0.03931
4731.04152	0.03940
4729.11285	0.03948
4727.18417	0.03955
4725.25550	0.03960
4723.32682	0.03966
4721.39814	0.03973
4719.46947	0.03980
4717.54079	0.03984
4715.61212	0.03988
4713.68344	0.03996
4711.75477	0.04005
4709.82609	0.04012
4707.89741	0.04018
4705.96874	0.04023
4704.04006	0.04030
4702.11139	0.04038
4700.18271	0.04043
4698.25404	0.04048
4696.32536	0.04053
4694.39668	0.04059
4692.46801	0.04068
4690.53933	0.04079
4688.61066	0.04087
4686.68198	0.04091
4684.75331	0.04092
4682.82463	0.04095
4680.89595	0.04100
4678.96728	0.04107
4677.03860	0.04116
4675.10993	0.04128
4673.18125	0.04135
4671.25258	0.04138
4669.32390	0.04145
4667.39522	0.04157
4665.46655	0.04167
4663.53787	0.04172
4661.60920	0.04174
4659.68052	0.04179
4657.75185	0.04187
4655.82317	0.04194
4653.89449	0.04200
4651.96582	0.04206
4650.03714	0.04212
4648.10847	0.04219
4646.17979	0.04225
4644.25112	0.04231
4642.32244	0.04237
4640.39376	0.04242
4638.46509	0.04247
4636.53641	0.04255
4634.60774	0.04266
4632.67906	0.04278
4630.75039	0.04288
4628.82171	0.04294
4626.89303	0.04297
4624.96436	0.04300
4623.03568	0.04307
4621.10701	0.04317
4619.17833	0.04327
4617.24966	0.04336
4615.32098	0.04344
4613.39230	0.04353
4611.46363	0.04361
4609.53495	0.04367
4607.60628	0.04371
4605.67760	0.04376
4603.74893	0.04383
4601.82025	0.04389
4599.89157	0.04398
4597.96290	0.04408
4596.03422	0.04415
4594.10555	0.04418
4592.17687	0.04422
4590.24820	0.04428
4588.31952	0.04434
4586.39084	0.04441
4584.46217	0.04451
4582.53349	0.04461
4580.60482	0.04468
4578.67614	0.04475
4576.74747	0.04482
4574.81879	0.04489
4572.89011	0.04497
4570.96144	0.04505
4569.03276	0.04511
4567.10409	0.04518
4565.17541	0.04526
4563.24674	0.04535
4561.31806	0.04542
4559.38938	0.04548
4557.46071	0.04557
4555.53203	0.04567
4553.60336	0.04575
4551.67468	0.04584
4549.74601	0.04594
4547.81733	0.04602
4545.88865	0.04607
4543.95998	0.04611
4542.03130	0.04616
4540.10263	0.04625
4538.17395	0.04633
4536.24528	0.04640
4534.31660	0.04647
4532.38792	0.04655
4530.45925	0.04662
4528.53057	0.04669
4526.60190	0.04677
4524.67322	0.04688
4522.74455	0.04697
4520.81587	0.04706
4518.88719	0.04714
4516.95852	0.04723
4515.02984	0.04733
4513.10117	0.04744
4511.17249	0.04752
4509.24382	0.04756
4507.31514	0.04761
4505.38646	0.04770
4503.45779	0.04780
4501.52911	0.04788
4499.60044	0.04794
4497.67176	0.04798
4495.74309	0.04805
4493.81441	0.04814
4491.88573	0.04823
4489.95706	0.04832
4488.02838	0.04840
4486.09971	0.04849
4484.17103	0.04859
4482.24236	0.04867
4480.31368	0.04873
4478.38500	0.04881
4476.45633	0.04891
4474.52765	0.04901
4472.59898	0.04910
4470.67030	0.04916
4468.74163	0.04922
4466.81295	0.04930
4464.88427	0.04937
4462.95560	0.04944
4461.02692	0.04954
4459.09825	0.04965
4457.16957	0.04974
4455.24090	0.04981
4453.31222	0.04988
4451.38354	0.04998
4449.45487	0.05010
4447.52619	0.05021
4445.59752	0.05029
4443.66884	0.05036
4441.74017	0.05044
4439.81149	0.05052
4437.88281	0.05060
4435.95414	0.05068
4434.02546	0.05077
4432.09679	0.05084
4430.16811	0.05093
4428.23944	0.05104
4426.31076	0.05114
4424.38208	0.05123
4422.45341	0.05132
4420.52473	0.05140
4418.59606	0.05144
4416.66738	0.05149
4414.73871	0.05158
4412.81003	0.05170
4410.88135	0.05184
4408.95268	0.05197
4407.02400	0.05205
4405.09533	0.05212
4403.16665	0.05221
4401.23798	0.05230
4399.30930	0.05240
4397.38062	0.05248
4395.45195	0.05256
4393.52327	0.05267
4391.59460	0.05278
4389.66592	0.05286
4387.73725	0.05293
4385.80857	0.05302
4383.87989	0.05313
4381.95122	0.05323
4380.02254	0.05333
4378.09387	0.05342
4376.16519	0.05349
4374.23652	0.05356
4372.30784	0.05365
4370.37916	0.05378
4368.45049	0.05389
4366.52181	0.05399
4364.59314	0.05408
4362.66446	0.05415
4360.73579	0.05422
4358.80711	0.05430
4356.87843	0.05438
4354.94976	0.05448
4353.02108	0.05461
4351.09241	0.05473
4349.16373	0.05484
4347.23506	0.05495
4345.30638	0.05507
4343.37770	0.05516
4341.44903	0.05523
4339.52035	0.05531
4337.59168	0.05539
4335.66300	0.05548
4333.73433	0.05560
4331.80565	0.05570
4329.87697	0.05580
4327.94830	0.05592
4326.01962	0.05603
4324.09095	0.05611
4322.16227	0.05617
4320.23360	0.05625
4318.30492	0.05635
4316.37624	0.05646
4314.44757	0.05654
4312.51889	0.05663
4310.59022	0.05678
4308.66154	0.05690
4306.73287	0.05698
4304.80419	0.05707
4302.87551	0.05717
4300.94684	0.05728
4299.01816	0.05742
4297.08949	0.05755
4295.16081	0.05765
4293.23214	0.05774
4291.30346	0.05786
4289.37478	0.05798
4287.44611	0.05807
4285.51743	0.05818
4283.58876	0.05831
4281.66008	0.05842
4279.73141	0.05851
4277.80273	0.05862
4275.87405	0.05873
4273.94538	0.05882
4272.01670	0.05891
4270.08803	0.05903
4268.15935	0.05915
4266.23068	0.05925
4264.30200	0.05934
4262.37332	0.05944
4260.44465	0.05956
4258.51597	0.05966
4256.58730	0.05975
4254.65862	0.05984
4252.72995	0.05995
4250.80127	0.06005
4248.87259	0.06016
4246.94392	0.06027
4245.01524	0.06037
4243.08657	0.06046
4241.15789	0.06056
4239.22922	0.06068
4237.30054	0.06082
4235.37186	0.06095
4233.44319	0.06106
4231.51451	0.06117
4229.58584	0.06128
4227.65716	0.06138
4225.72849	0.06147
4223.79981	0.06157
4221.87113	0.06169
4219.94246	0.06184
4218.01378	0.06200
4216.08511	0.06212
4214.15643	0.06223
4212.22776	0.06234
4210.29908	0.06247
4208.37040	0.06257
4206.44173	0.06265
4204.51305	0.06275
4202.58438	0.06288
4200.65570	0.06299
4198.72703	0.06307
4196.79835	0.06316
4194.86968	0.06327
4192.94100	0.06340
4191.01232	0.06354
4189.08365	0.06367
4187.15497	0.06379
4185.22630	0.06392
4183.29762	0.06404
4181.36895	0.06414
4179.44027	0.06423
4177.51159	0.06433
4175.58292	0.06444
4173.65424	0.06457
4171.72557	0.06472
4169.79689	0.06487
4167.86822	0.06500
4165.93954	0.06511
4164.01086	0.06522
4162.08219	0.06534
4160.15351	0.06547
4158.22484	0.06557
4156.29616	0.06568
4154.36749	0.06583
4152.43881	0.06597
4150.51013	0.06610
4148.58146	0.06622
4146.65278	0.06633
4144.72411	0.06644
4142.79543	0.06657
4140.86676	0.06673
4138.93808	0.06686
4137.00940	0.06693
4135.08073	0.06701
4133.15205	0.06713
4131.22338	0.06733
4129.29470	0.06751
4127.36603	0.06762
4125.43735	0.06774
4123.50867	0.06786
4121.58000	0.06797
4119.65132	0.06809
4117.72265	0.06821
4115.79397	0.06833
4113.86530	0.06846
4111.93662	0.06860
4110.00794	0.06873
4108.07927	0.06887
4106.15059	0.06902
4104.22192	0.06912
4102.29324	0.06924
4100.36457	0.06938
4098.43589	0.06949
4096.50721	0.06957
4094.57854	0.06969
4092.64986	0.06983
4090.72119	0.06996
4088.79251	0.07011
4086.86384	0.07026
4084.93516	0.07039
4083.00648	0.07052
4081.07781	0.07064
4079.14913	0.07078
4077.22046	0.07093
4075.29178	0.07107
4073.36311	0.07118
4071.43443	0.07130
4069.50575	0.07145
4067.57708	0.07161
4065.64840	0.07178
4063.71973	0.07195
4061.79105	0.07210
4059.86238	0.07222
4057.93370	0.07233
4056.00502	0.07244
4054.07635	0.07256
4052.14767	0.07269
4050.21900	0.07283
4048.29032	0.07298
4046.36165	0.07310
4044.43297	0.07322
4042.50429	0.07335
4040.57562	0.07352
4038.64694	0.07369
4036.71827	0.07382
4034.78959	0.07393
4032.86092	0.07408
4030.93224	0.07424
4029.00356	0.07437
4027.07489	0.07447
4025.14621	0.07459
4023.21754	0.07473
4021.28886	0.07489
4019.36019	0.07505
4017.43151	0.07518
4015.50283	0.07530
4013.57416	0.07543
4011.64548	0.07555
4009.71681	0.07567
4007.78813	0.07581
4005.85946	0.07600
4003.93078	0.07619
4002.00210	0.07635
4000.07343	0.07648
3998.14475	0.07661
3996.21608	0.07675
3994.28740	0.07687
3992.35873	0.07698
3990.43005	0.07711
3988.50137	0.07726
3986.57270	0.07743
3984.64402	0.07760
3982.71535	0.07779
3980.78667	0.07795
3978.85800	0.07808
3976.92932	0.07821
3975.00064	0.07837
3973.07197	0.07850
3971.14329	0.07862
3969.21462	0.07878
3967.28594	0.07895
3965.35727	0.07911
3963.42859	0.07925
3961.49991	0.07940
3959.57124	0.07955
3957.64256	0.07967
3955.71389	0.07978
3953.78521	0.07991
3951.85654	0.08005
3949.92786	0.08018
3947.99918	0.08034
3946.07051	0.08050
3944.14183	0.08063
3942.21316	0.08078
3940.28448	0.08097
3938.35581	0.08115
3936.42713	0.08126
3934.49845	0.08134
3932.56978	0.08146
3930.64110	0.08165
3928.71243	0.08184
3926.78375	0.08198
3924.85508	0.08211
3922.92640	0.08225
3920.99772	0.08236
3919.06905	0.08246
3917.14037	0.08262
3915.21170	0.08287
3913.28302	0.08311
3911.35435	0.08330
3909.42567	0.08343
3907.49699	0.08343
3905.56832	0.08335
3903.63964	0.08336
3901.71097	0.08351
3899.78229	0.08377
3897.85362	0.08411
3895.92494	0.08439
3893.99626	0.08450
3892.06759	0.08459
3890.13891	0.08476
3888.21024	0.08487
3886.28156	0.08493
3884.35289	0.08512
3882.42421	0.08533
3880.49553	0.08550
3878.56686	0.08574
3876.63818	0.08597
3874.70951	0.08607
3872.78083	0.08608
3870.85216	0.08612
3868.92348	0.08628
3866.99480	0.08649
3865.06613	0.08667
3863.13745	0.08692
3861.20878	0.08721
3859.28010	0.08741
3857.35143	0.08735
3855.42275	0.08702
3853.49407	0.08696
3851.56540	0.08747
3849.63672	0.08809
3847.70805	0.08847
3845.77937	0.08862
3843.85070	0.08866
3841.92202	0.08868
3839.99334	0.08871
3838.06467	0.08880
3836.13599	0.08907
3834.20732	0.08940
3832.27864	0.08969
3830.34997	0.08993
3828.42129	0.09011
3826.49261	0.09023
3824.56394	0.09030
3822.63526	0.09026
3820.70659	0.09034
3818.77791	0.09058
3816.84924	0.09080
3814.92056	0.09106
3812.99188	0.09141
3811.06321	0.09164
3809.13453	0.09170
3807.20586	0.09175
3805.27718	0.09187
3803.34851	0.09194
3801.41983	0.09205
3799.49115	0.09236
3797.56248	0.09268
3795.63380	0.09293
3793.70513	0.09317
3791.77645	0.09338
3789.84778	0.09355
3787.91910	0.09370
3785.99042	0.09384
3784.06175	0.09399
3782.13307	0.09412
3780.20440	0.09423
3778.27572	0.09443
3776.34705	0.09470
3774.41837	0.09490
3772.48969	0.09498
3770.56102	0.09504
3768.63234	0.09518
3766.70367	0.09540
3764.77499	0.09564
3762.84632	0.09584
3760.91764	0.09593
3758.98896	0.09604
3757.06029	0.09624
3755.13161	0.09633
3753.20294	0.09618
3751.27426	0.09607
3749.34559	0.09625
3747.41691	0.09640
3745.48823	0.09637
3743.55956	0.09666
3741.63088	0.09731
3739.70221	0.09765
3737.77353	0.09757
3735.84486	0.09752
3733.91618	0.09775
3731.98750	0.09817
3730.05883	0.09856
3728.13015	0.09880
3726.20148	0.09894
3724.27280	0.09913
3722.34413	0.09936
3720.41545	0.09961
3718.48677	0.09986
3716.55810	0.10005
3714.62942	0.10006
3712.70075	0.10000
3710.77207	0.10018
3708.84340	0.10059
3706.91472	0.10097
3704.98604	0.10115
3703.05737	0.10123
3701.12869	0.10139
3699.20002	0.10163
3697.27134	0.10183
3695.34267	0.10197
3693.41399	0.10203
3691.48531	0.10200
3689.55664	0.10205
3687.62796	0.10233
3685.69929	0.10275
3683.77061	0.10306
3681.84194	0.10318
3679.91326	0.10318
3677.98458	0.10307
3676.05591	0.10303
3674.12723	0.10327
3672.19856	0.10354
3670.26988	0.10372
3668.34121	0.10407
3666.41253	0.10450
3664.48385	0.10479
3662.55518	0.10497
3660.62650	0.10509
3658.69783	0.10508
3656.76915	0.10508
3654.84048	0.10523
3652.91180	0.10525
3650.98312	0.10498
3649.05445	0.10481
3647.12577	0.10510
3645.19710	0.10569
3643.26842	0.10617
3641.33975	0.10643
3639.41107	0.10661
3637.48239	0.10678
3635.55372	0.10693
3633.62504	0.10699
3631.69637	0.10686
3629.76769	0.10671
3627.83902	0.10696
3625.91034	0.10747
3623.98166	0.10778
3622.05299	0.10779
3620.12431	0.10772
3618.19564	0.10781
3616.26696	0.10801
3614.33829	0.10815
3612.40961	0.10826
3610.48093	0.10835
3608.55226	0.10848
3606.62358	0.10876
3604.69491	0.10907
3602.76623	0.10922
3600.83756	0.10931
3598.90888	0.10943
3596.98020	0.10955
3595.05153	0.10967
3593.12285	0.10983
3591.19418	0.10991
3589.26550	0.10986
3587.33683	0.10992
3585.40815	0.11026
3583.47947	0.11059
3581.55080	0.11075
3579.62212	0.11088
3577.69345	0.11107
3575.76477	0.11128
3573.83610	0.11145
3571.90742	0.11151
3569.97874	0.11143
3568.05007	0.11136
3566.12139	0.11155
3564.19272	0.11192
3562.26404	0.11220
3560.33537	0.11237
3558.40669	0.11252
3556.47801	0.11267
3554.54934	0.11278
3552.62066	0.11288
3550.69199	0.11301
3548.76331	0.11310
3546.83464	0.11318
3544.90596	0.11334
3542.97728	0.11353
3541.04861	0.11368
3539.11993	0.11379
3537.19126	0.11390
3535.26258	0.11402
3533.33391	0.11412
3531.40523	0.11418
3529.47655	0.11425
3527.54788	0.11434
3525.61920	0.11442
3523.69053	0.11447
3521.76185	0.11452
3519.83318	0.11459
3517.90450	0.11466
3515.97582	0.11478
3514.04715	0.11493
3512.11847	0.11505
3510.18980	0.11511
3508.26112	0.11515
3506.33245	0.11513
3504.40377	0.11512
3502.47509	0.11518
3500.54642	0.11528
3498.61774	0.11535
3496.68907	0.11538
3494.76039	0.11546
3492.83172	0.11557
3490.90304	0.11561
3488.97436	0.11561
3487.04569	0.11562
3485.11701	0.11569
3483.18834	0.11579
3481.25966	0.11589
3479.33099	0.11600
3477.40231	0.11612
3475.47363	0.11625
3473.54496	0.11641
3471.61628	0.11661
3469.68761	0.11680
3467.75893	0.11698
3465.83026	0.11717
3463.90158	0.11736
3461.97290	0.11752
3460.04423	0.11770
3458.11555	0.11790
3456.18688	0.11811
3454.25820	0.11831
3452.32953	0.11851
3450.40085	0.11870
3448.47217	0.11886
3446.54350	0.11901
3444.61482	0.11916
3442.68615	0.11933
3440.75747	0.11956
3438.82880	0.11984
3436.90012	0.12015
3434.97144	0.12046
3433.04277	0.12082
3431.11409	0.12121
3429.18542	0.12161
3427.25674	0.12201
3425.32807	0.12239
3423.39939	0.12277
3421.47071	0.12316
3419.54204	0.12353
3417.61336	0.12386
3415.68469	0.12414
3413.75601	0.12441
3411.82734	0.12472
3409.89866	0.12500
3407.96998	0.12523
3406.04131	0.12545
3404.11263	0.12569
3402.18396	0.12593
3400.25528	0.12616
3398.32661	0.12642
3396.39793	0.12673
3394.46925	0.12706
3392.54058	0.12736
3390.61190	0.12764
3388.68323	0.12790
3386.75455	0.12816
3384.82588	0.12841
3382.89720	0.12866
3380.96852	0.12888
3379.03985	0.12911
3377.11117	0.12936
3375.18250	0.12961
3373.25382	0.12984
3371.32515	0.13007
3369.39647	0.13033
3367.46779	0.13057
3365.53912	0.13076
3363.61044	0.13095
3361.68177	0.13118
3359.75309	0.13146
3357.82442	0.13171
3355.89574	0.13192
3353.96706	0.13217
3352.03839	0.13245
3350.10971	0.13270
3348.18104	0.13291
3346.25236	0.13312
3344.32369	0.13334
3342.39501	0.13355
3340.46633	0.13377
3338.53766	0.13403
3336.60898	0.13428
3334.68031	0.13452
3332.75163	0.13478
3330.82296	0.13505
3328.89428	0.13532
3326.96560	0.13554
3325.03693	0.13577
3323.10825	0.13601
3321.17958	0.13624
3319.25090	0.13646
3317.32223	0.13670
3315.39355	0.13694
3313.46487	0.13719
3311.53620	0.13742
3309.60752	0.13765
3307.67885	0.13791
3305.75017	0.13818
3303.82150	0.13841
3301.89282	0.13863
3299.96414	0.13889
3298.03547	0.13917
3296.10679	0.13942
3294.17812	0.13966
3292.24944	0.13992
3290.32077	0.14018
3288.39209	0.14044
3286.46341	0.14071
3284.53474	0.14100
3282.60606	0.14129
3280.67739	0.14154
3278.74871	0.14176
3276.82004	0.14195
3274.89136	0.14218
3272.96268	0.14248
3271.03401	0.14280
3269.10533	0.14309
3267.17666	0.14335
3265.24798	0.14360
3263.31931	0.14383
3261.39063	0.14407
3259.46195	0.14434
3257.53328	0.14460
3255.60460	0.14484
3253.67593	0.14509
3251.74725	0.14535
3249.81858	0.14562
3247.88990	0.14590
3245.96122	0.14620
3244.03255	0.14647
3242.10387	0.14670
3240.17520	0.14692
3238.24652	0.14719
3236.31785	0.14748
3234.38917	0.14776
3232.46049	0.14801
3230.53182	0.14825
3228.60314	0.14850
3226.67447	0.14876
3224.74579	0.14901
3222.81712	0.14926
3220.88844	0.14951
3218.95976	0.14977
3217.03109	0.15004
3215.10241	0.15031
3213.17374	0.15058
3211.24506	0.15084
3209.31639	0.15108
3207.38771	0.15134
3205.45903	0.15164
3203.53036	0.15191
3201.60168	0.15215
3199.67301	0.15242
3197.74433	0.15274
3195.81566	0.15303
3193.88698	0.15330
3191.95830	0.15359
3190.02963	0.15389
3188.10095	0.15418
3186.17228	0.15444
3184.24360	0.15469
3182.31493	0.15497
3180.38625	0.15523
3178.45757	0.15547
3176.52890	0.15574
3174.60022	0.15606
3172.67155	0.15637
3170.74287	0.15664
3168.81420	0.15688
3166.88552	0.15714
3164.95684	0.15742
3163.02817	0.15768
3161.09949	0.15796
3159.17082	0.15826
3157.24214	0.15853
3155.31347	0.15875
3153.38479	0.15898
3151.45611	0.15927
3149.52744	0.15959
3147.59876	0.15987
3145.67009	0.16010
3143.74141	0.16030
3141.81274	0.16054
3139.88406	0.16082
3137.95538	0.16110
3136.02671	0.16137
3134.09803	0.16166
3132.16936	0.16196
3130.24068	0.16223
3128.31201	0.16248
3126.38333	0.16274
3124.45465	0.16301
3122.52598	0.16328
3120.59730	0.16357
3118.66863	0.16387
3116.73995	0.16416
3114.81128	0.16444
3112.88260	0.16472
3110.95392	0.16499
3109.02525	0.16523
3107.09657	0.16546
3105.16790	0.16570
3103.23922	0.16595
3101.31055	0.16622
3099.38187	0.16652
3097.45319	0.16683
3095.52452	0.16710
3093.59584	0.16736
3091.66717	0.16764
3089.73849	0.16792
3087.80982	0.16818
3085.88114	0.16843
3083.95246	0.16867
3082.02379	0.16893
3080.09511	0.16923
3078.16644	0.16956
3076.23776	0.16987
3074.30909	0.17014
3072.38041	0.17039
3070.45173	0.17062
3068.52306	0.17084
3066.59438	0.17106
3064.66571	0.17130
3062.73703	0.17159
3060.80836	0.17191
3058.87968	0.17218
3056.95100	0.17243
3055.02233	0.17272
3053.09365	0.17300
3051.16498	0.17326
3049.23630	0.17352
3047.30763	0.17381
3045.37895	0.17411
3043.45027	0.17434
3041.52160	0.17453
3039.59292	0.17481
3037.66425	0.17516
3035.73557	0.17549
3033.80690	0.17576
3031.87822	0.17600
3029.94954	0.17627
3028.02087	0.17659
3026.09219	0.17693
3024.16352	0.17718
3022.23484	0.17735
3020.30617	0.17753
3018.37749	0.17778
3016.44881	0.17804
3014.52014	0.17833
3012.59146	0.17865
3010.66279	0.17897
3008.73411	0.17926
3006.80544	0.17950
3004.87676	0.17970
3002.94808	0.17992
3001.01941	0.18019
2999.09073	0.18050
2997.16206	0.18080
2995.23338	0.18104
2993.30471	0.18124
2991.37603	0.18142
2989.44735	0.18163
2987.51868	0.18186
2985.59000	0.18209
2983.66133	0.18229
2981.73265	0.18245
2979.80398	0.18257
2977.87530	0.18266
2975.94662	0.18276
2974.01795	0.18286
2972.08927	0.18286
2970.16060	0.18277
2968.23192	0.18268
2966.30325	0.18268
2964.37457	0.18277
2962.44589	0.18298
2960.51722	0.18328
2958.58854	0.18359
2956.65987	0.18388
2954.73119	0.18422
2952.80252	0.18460
2950.87384	0.18497
2948.94516	0.18528
2947.01649	0.18552
2945.08781	0.18568
2943.15914	0.18578
2941.23046	0.18585
2939.30179	0.18587
2937.37311	0.18586
2935.44443	0.18586
2933.51576	0.18582
2931.58708	0.18573
2929.65841	0.18561
2927.72973	0.18554
2925.80106	0.18555
2923.87238	0.18558
2921.94370	0.18560
2920.01503	0.18575
2918.08635	0.18609
2916.15768	0.18669
2914.22900	0.18753
2912.30033	0.18848
2910.37165	0.18932
2908.44297	0.18999
2906.51430	0.19052
2904.58562	0.19102
2902.65695	0.19153
2900.72827	0.19202
2898.79960	0.19244
2896.87092	0.19278
2894.94224	0.19312
2893.01357	0.19349
2891.08489	0.19388
2889.15622	0.19424
2887.22754	0.19458
2885.29887	0.19487
2883.37019	0.19512
2881.44151	0.19538
2879.51284	0.19568
2877.58416	0.19599
2875.65549	0.19629
2873.72681	0.19655
2871.79814	0.19679
2869.86946	0.19703
2867.94078	0.19728
2866.01211	0.19751
2864.08343	0.19768
2862.15476	0.19780
2860.22608	0.19785
2858.29741	0.19782
2856.36873	0.19776
2854.44005	0.19774
2852.51138	0.19777
2850.58270	0.19796
2848.65403	0.19851
2846.72535	0.19940
2844.79668	0.20033
2842.86800	0.20110
2840.93932	0.20176
2839.01065	0.20231
2837.08197	0.20271
2835.15330	0.20308
2833.22462	0.20349
2831.29595	0.20388
2829.36727	0.20422
2827.43859	0.20454
2825.50992	0.20492
2823.58124	0.20532
2821.65257	0.20566
2819.72389	0.20592
2817.79522	0.20619
2815.86654	0.20653
2813.93786	0.20685
2812.00919	0.20714
2810.08051	0.20743
2808.15184	0.20775
2806.22316	0.20806
2804.29449	0.20834
2802.36581	0.20861
2800.43713	0.20892
2798.50846	0.20924
2796.57978	0.20955
2794.65111	0.20983
2792.72243	0.21008
2790.79376	0.21031
2788.86508	0.21059
2786.93640	0.21094
2785.00773	0.21127
2783.07905	0.21156
2781.15038	0.21185
2779.22170	0.21216
2777.29303	0.21247
2775.36435	0.21279
2773.43567	0.21309
2771.50700	0.21337
2769.57832	0.21367
2767.64965	0.21396
2765.72097	0.21421
2763.79230	0.21447
2761.86362	0.21477
2759.93494	0.21510
2758.00627	0.21540
2756.07759	0.21565
2754.14892	0.21590
2752.22024	0.21618
2750.29157	0.21651
2748.36289	0.21684
2746.43421	0.21713
2744.50554	0.21739
2742.57686	0.21765
2740.64819	0.21796
2738.71951	0.21825
2736.79084	0.21848
2734.86216	0.21871
2732.93348	0.21894
2731.00481	0.21919
2729.07613	0.21951
2727.14746	0.21988
2725.21878	0.22023
2723.29011	0.22049
2721.36143	0.22072
2719.43275	0.22099
2717.50408	0.22127
2715.57540	0.22153
2713.64673	0.22183
2711.71805	0.22214
2709.78938	0.22239
2707.86070	0.22262
2705.93202	0.22285
2704.00335	0.22314
2702.07467	0.22347
2700.14600	0.22379
2698.21732	0.22411
2696.28865	0.22442
2694.35997	0.22472
2692.43129	0.22501
2690.50262	0.22525
2688.57394	0.22549
2686.64527	0.22577
2684.71659	0.22608
2682.78792	0.22636
2680.85924	0.22659
2678.93056	0.22683
2677.00189	0.22709
2675.07321	0.22738
2673.14454	0.22770
2671.21586	0.22799
2669.28719	0.22822
2667.35851	0.22845
2665.42983	0.22875
2663.50116	0.22908
2661.57248	0.22938
2659.64381	0.22965
2657.71513	0.22995
2655.78646	0.23028
2653.85778	0.23060
2651.92910	0.23091
2650.00043	0.23117
2648.07175	0.23141
2646.14308	0.23170
2644.21440	0.23205
2642.28573	0.23237
2640.35705	0.23262
2638.42837	0.23288
2636.49970	0.23317
2634.57102	0.23345
2632.64235	0.23376
2630.71367	0.23412
2628.78500	0.23451
2626.85632	0.23487
2624.92764	0.23514
2622.99897	0.23536
2621.07029	0.23564
2619.14162	0.23598
2617.21294	0.23630
2615.28427	0.23655
2613.35559	0.23681
2611.42691	0.23714
2609.49824	0.23750
2607.56956	0.23782
2605.64089	0.23806
2603.71221	0.23825
2601.78354	0.23854
2599.85486	0.23895
2597.92618	0.23932
2595.99751	0.23964
2594.06883	0.23998
2592.14016	0.24033
2590.21148	0.24060
2588.28281	0.24081
2586.35413	0.24104
2584.42545	0.24135
2582.49678	0.24165
2580.56810	0.24192
2578.63943	0.24223
2576.71075	0.24257
2574.78208	0.24289
2572.85340	0.24314
2570.92472	0.24340
2568.99605	0.24370
2567.06737	0.24400
2565.13870	0.24428
2563.21002	0.24454
2561.28135	0.24483
2559.35267	0.24515
2557.42399	0.24545
2555.49532	0.24569
2553.56664	0.24595
2551.63797	0.24628
2549.70929	0.24663
2547.78062	0.24693
2545.85194	0.24718
2543.92326	0.24739
2541.99459	0.24761
2540.06591	0.24791
2538.13724	0.24825
2536.20856	0.24860
2534.27989	0.24891
2532.35121	0.24918
2530.42253	0.24944
2528.49386	0.24974
2526.56518	0.25007
2524.63651	0.25040
2522.70783	0.25070
2520.77916	0.25098
2518.85048	0.25126
2516.92181	0.25160
2514.99313	0.25195
2513.06445	0.25225
2511.13578	0.25253
2509.20710	0.25286
2507.27843	0.25321
2505.34975	0.25354
2503.42108	0.25385
2501.49240	0.25418
2499.56372	0.25454
2497.63505	0.25493
2495.70637	0.25525
2493.77770	0.25549
2491.84902	0.25573
2489.92035	0.25602
2487.99167	0.25634
2486.06299	0.25671
2484.13432	0.25712
2482.20564	0.25747
2480.27697	0.25776
2478.34829	0.25805
2476.41962	0.25832
2474.49094	0.25860
2472.56226	0.25894
2470.63359	0.25928
2468.70491	0.25960
2466.77624	0.25990
2464.84756	0.26021
2462.91889	0.26053
2460.99021	0.26083
2459.06153	0.26113
2457.13286	0.26145
2455.20418	0.26179
2453.27551	0.26211
2451.34683	0.26245
2449.41816	0.26278
2447.48948	0.26307
2445.56080	0.26338
2443.63213	0.26372
2441.70345	0.26403
2439.77478	0.26429
2437.84610	0.26461
2435.91743	0.26499
2433.98875	0.26533
2432.06007	0.26563
2430.13140	0.26593
2428.20272	0.26624
2426.27405	0.26655
2424.34537	0.26685
2422.41670	0.26713
2420.48802	0.26742
2418.55934	0.26775
2416.63067	0.26804
2414.70199	0.26831
2412.77332	0.26860
2410.84464	0.26891
2408.91597	0.26925
2406.98729	0.26961
2405.05861	0.26993
2403.12994	0.27017
2401.20126	0.27043
2399.27259	0.27074
2397.34391	0.27106
2395.41524	0.27136
2393.48656	0.27167
2391.55788	0.27200
2389.62921	0.27234
2387.70053	0.27267
2385.77186	0.27294
2383.84318	0.27314
2381.91451	0.27332
2379.98583	0.27349
2378.05715	0.27361
2376.12848	0.27370
2374.19980	0.27380
2372.27113	0.27387
2370.34245	0.27389
2368.41378	0.27392
2366.48510	0.27402
2364.55642	0.27422
2362.62775	0.27450
2360.69907	0.27483
2358.77040	0.27517
2356.84172	0.27556
2354.91305	0.27608
2352.98437	0.27674
2351.05569	0.27740
2349.12702	0.27786
2347.19834	0.27804
2345.26967	0.27809
2343.34099	0.27820
2341.41232	0.27841
2339.48364	0.27870
2337.55496	0.27902
2335.62629	0.27933
2333.69761	0.27965
2331.76894	0.27999
2329.84026	0.28034
2327.91159	0.28066
2325.98291	0.28096
2324.05423	0.28131
2322.12556	0.28172
2320.19688	0.28217
2318.26821	0.28261
2316.33953	0.28303
2314.41086	0.28347
2312.48218	0.28392
2310.55350	0.28436
2308.62483	0.28481
2306.69615	0.28522
2304.76748	0.28556
2302.83880	0.28590
2300.91013	0.28628
2298.98145	0.28662
2297.05277	0.28693
2295.12410	0.28727
2293.19542	0.28762
2291.26675	0.28794
2289.33807	0.28826
2287.40940	0.28855
2285.48072	0.28879
2283.55204	0.28905
2281.62337	0.28938
2279.69469	0.28974
2277.76602	0.29007
2275.83734	0.29041
2273.90867	0.29073
2271.97999	0.29101
2270.05131	0.29126
2268.12264	0.29155
2266.19396	0.29192
2264.26529	0.29231
2262.33661	0.29266
2260.40794	0.29296
2258.47926	0.29324
2256.55058	0.29354
2254.62191	0.29381
2252.69323	0.29403
2250.76456	0.29429
2248.83588	0.29465
2246.90721	0.29503
2244.97853	0.29537
2243.04985	0.29564
2241.12118	0.29592
2239.19250	0.29623
2237.26383	0.29654
2235.33515	0.29685
2233.40648	0.29717
2231.47780	0.29749
2229.54912	0.29783
2227.62045	0.29820
2225.69177	0.29852
2223.76310	0.29878
2221.83442	0.29906
2219.90575	0.29934
2217.97707	0.29962
2216.04839	0.29991
2214.11972	0.30025
2212.19104	0.30061
2210.26237	0.30095
2208.33369	0.30125
2206.40502	0.30154
2204.47634	0.30184
2202.54766	0.30212
2200.61899	0.30238
2198.69031	0.30263
2196.76164	0.30293
2194.83296	0.30327
2192.90429	0.30356
2190.97561	0.30377
2189.04693	0.30402
2187.11826	0.30439
2185.18958	0.30477
2183.26091	0.30512
2181.33223	0.30548
2179.40356	0.30581
2177.47488	0.30608
2175.54620	0.30634
2173.61753	0.30662
2171.68885	0.30692
2169.76018	0.30722
2167.83150	0.30754
2165.90283	0.30787
2163.97415	0.30822
2162.04547	0.30856
2160.11680	0.30890
2158.18812	0.30920
2156.25945	0.30951
2154.33077	0.30982
2152.40210	0.31012
2150.47342	0.31043
2148.54474	0.31077
2146.61607	0.31110
2144.68739	0.31141
2142.75872	0.31169
2140.83004	0.31196
2138.90137	0.31225
2136.97269	0.31258
2135.04401	0.31290
2133.11534	0.31319
2131.18666	0.31349
2129.25799	0.31386
2127.32931	0.31424
2125.40064	0.31454
2123.47196	0.31482
2121.54328	0.31514
2119.61461	0.31545
2117.68593	0.31570
2115.75726	0.31599
2113.82858	0.31636
2111.89991	0.31675
2109.97123	0.31707
2108.04255	0.31739
2106.11388	0.31773
2104.18520	0.31802
2102.25653	0.31826
2100.32785	0.31850
2098.39918	0.31881
2096.47050	0.31917
2094.54182	0.31954
2092.61315	0.31992
2090.68447	0.32026
2088.75580	0.32053
2086.82712	0.32079
2084.89845	0.32111
2082.96977	0.32147
2081.04109	0.32180
2079.11242	0.32208
2077.18374	0.32238
2075.25507	0.32269
2073.32639	0.32300
2071.39772	0.32332
2069.46904	0.32364
2067.54036	0.32392
2065.61169	0.32421
2063.68301	0.32453
2061.75434	0.32487
2059.82566	0.32515
2057.89699	0.32545
2055.96831	0.32581
2054.03963	0.32618
2052.11096	0.32653
2050.18228	0.32683
2048.25361	0.32710
2046.32493	0.32737
2044.39626	0.32765
2042.46758	0.32792
2040.53890	0.32828
2038.61023	0.32870
2036.68155	0.32905
2034.75288	0.32932
2032.82420	0.32957
2030.89553	0.32984
2028.96685	0.33011
2027.03817	0.33042
2025.10950	0.33077
2023.18082	0.33113
2021.25215	0.33147
2019.32347	0.33178
2017.39480	0.33211
2015.46612	0.33251
2013.53744	0.33289
2011.60877	0.33320
2009.68009	0.33346
2007.75142	0.33375
2005.82274	0.33406
2003.89407	0.33434
2001.96539	0.33460
2000.03671	0.33487
1998.10804	0.33521
1996.17936	0.33554
1994.25069	0.33580
1992.32201	0.33602
1990.39334	0.33631
1988.46466	0.33667
1986.53598	0.33701
1984.60731	0.33730
1982.67863	0.33759
1980.74996	0.33789
1978.82128	0.33817
1976.89261	0.33844
1974.96393	0.33869
1973.03525	0.33893
1971.10658	0.33911
1969.17790	0.33924
1967.24923	0.33947
1965.32055	0.33985
1963.39188	0.34028
1961.46320	0.34066
1959.53452	0.34095
1957.60585	0.34119
1955.67717	0.34140
1953.74850	0.34162
1951.81982	0.34190
1949.89115	0.34225
1947.96247	0.34259
1946.03379	0.34285
1944.10512	0.34302
1942.17644	0.34330
1940.24777	0.34376
1938.31909	0.34423
1936.39042	0.34455
1934.46174	0.34477
1932.53306	0.34504
1930.60439	0.34535
1928.67571	0.34569
1926.74704	0.34600
1924.81836	0.34622
1922.88969	0.34642
1920.96101	0.34664
1919.03233	0.34683
1917.10366	0.34720
1915.17498	0.34776
1913.24631	0.34820
1911.31763	0.34846
1909.38896	0.34868
1907.46028	0.34897
1905.53160	0.34932
1903.60293	0.34970
1901.67425	0.35011
1899.74558	0.35050
1897.81690	0.35078
1895.88823	0.35097
1893.95955	0.35121
1892.03087	0.35144
1890.10220	0.35160
1888.17352	0.35191
1886.24485	0.35233
1884.31617	0.35268
1882.38750	0.35296
1880.45882	0.35325
1878.53014	0.35357
1876.60147	0.35395
1874.67279	0.35429
1872.74412	0.35441
1870.81544	0.35427
1868.88677	0.35432
1866.95809	0.35483
1865.02941	0.35548
1863.10074	0.35599
1861.17206	0.35639
1859.24339	0.35675
1857.31471	0.35705
1855.38604	0.35733
1853.45736	0.35763
1851.52868	0.35793
1849.60001	0.35818
1847.67133	0.35821
1845.74266	0.35804
1843.81398	0.35823
1841.88531	0.35902
1839.95663	0.35977
1838.02795	0.36018
1836.09928	0.36048
1834.17060	0.36074
1832.24193	0.36081
1830.31325	0.36088
1828.38458	0.36118
1826.45590	0.36151
1824.52722	0.36188
1822.59855	0.36247
1820.66987	0.36300
1818.74120	0.36330
1816.81252	0.36353
1814.88385	0.36374
1812.95517	0.36387
1811.02649	0.36405
1809.09782	0.36446
1807.16914	0.36489
1805.24047	0.36507
1803.31179	0.36505
1801.38312	0.36509
1799.45444	0.36540
1797.52576	0.36578
1795.59709	0.36590
1793.66841	0.36575
1791.73974	0.36591
1789.81106	0.36657
1787.88239	0.36714
1785.95371	0.36733
1784.02503	0.36745
1782.09636	0.36767
1780.16768	0.36794
1778.23901	0.36823
1776.31033	0.36834
1774.38166	0.36817
1772.45298	0.36806
1770.52430	0.36828
1768.59563	0.36871
1766.66695	0.36927
1764.73828	0.36971
1762.80960	0.36982
1760.88093	0.36993
1758.95225	0.37011
1757.02357	0.37022
1755.09490	0.37026
1753.16622	0.36992
1751.23755	0.36942
1749.30887	0.36943
1747.38020	0.36983
1745.45152	0.37014
1743.52284	0.37032
1741.59417	0.37040
1739.66549	0.37053
1737.73682	0.37054
1735.80814	0.37001
1733.87947	0.36975
1731.95079	0.37055
1730.02211	0.37167
1728.09344	0.37244
1726.16476	0.37292
1724.23609	0.37319
1722.30741	0.37327
1720.37874	0.37290
1718.45006	0.37239
1716.52138	0.37249
1714.59271	0.37326
1712.66403	0.37412
1710.73536	0.37460
1708.80668	0.37460
1706.87801	0.37437
1704.94933	0.37423
1703.02065	0.37376
1701.09198	0.37302
1699.16330	0.37301
1697.23463	0.37353
1695.30595	0.37410
1693.37728	0.37487
1691.44860	0.37533
1689.51992	0.37533
1687.59125	0.37497
1685.66257	0.37426
1683.73390	0.37404
1681.80522	0.37479
1679.87655	0.37561
1677.94787	0.37570
1676.01919	0.37536
1674.09052	0.37530
1672.16184	0.37536
1670.23317	0.37532
1668.30449	0.37570
1666.37582	0.37637
1664.44714	0.37659
1662.51846	0.37663
1660.58979	0.37696
1658.66111	0.37717
1656.73244	0.37655
1654.80376	0.37515
1652.87509	0.37456
1650.94641	0.37547
1649.01773	0.37619
1647.08906	0.37628
1645.16038	0.37682
1643.23171	0.37767
1641.30303	0.37803
1639.37436	0.37771
1637.44568	0.37706
1635.51700	0.37695
1633.58833	0.37774
1631.65965	0.37847
1629.73098	0.37848
1627.80230	0.37818
1625.87363	0.37772
1623.94495	0.37703
1622.01627	0.37654
1620.08760	0.37652
1618.15892	0.37693
1616.23025	0.37800
1614.30157	0.37951
1612.37290	0.38065
1610.44422	0.38127
1608.51554	0.38178
1606.58687	0.38229
1604.65819	0.38268
1602.72952	0.38304
1600.80084	0.38349
1598.87217	0.38390
1596.94349	0.38414
1595.01481	0.38439
1593.08614	0.38474
1591.15746	0.38511
1589.22879	0.38549
1587.30011	0.38587
1585.37144	0.38620
1583.44276	0.38650
1581.51408	0.38673
1579.58541	0.38671
1577.65673	0.38647
1575.72806	0.38661
1573.79938	0.38721
1571.87071	0.38739
1569.94203	0.38727
1568.01335	0.38764
1566.08468	0.38824
1564.15600	0.38854
1562.22733	0.38809
1560.29865	0.38700
1558.36998	0.38672
1556.44130	0.38785
1554.51262	0.38919
1552.58395	0.38998
1550.65527	0.39037
1548.72660	0.39059
1546.79792	0.39055
1544.86925	0.39007
1542.94057	0.38940
1541.01189	0.38911
1539.08322	0.38977
1537.15454	0.39096
1535.22587	0.39155
1533.29719	0.39168
1531.36852	0.39207
1529.43984	0.39236
1527.51116	0.39224
1525.58249	0.39198
1523.65381	0.39154
1521.72514	0.39118
1519.79646	0.39143
1517.86779	0.39202
1515.93911	0.39262
1514.01043	0.39318
1512.08176	0.39334
1510.15308	0.39288
1508.22441	0.39226
1506.29573	0.39258
1504.36706	0.39397
1502.43838	0.39502
1500.50970	0.39502
1498.58103	0.39465
1496.65235	0.39470
1494.72368	0.39520
1492.79500	0.39538
1490.86633	0.39501
1488.93765	0.39492
1487.00897	0.39548
1485.08030	0.39618
1483.15162	0.39652
1481.22295	0.39648
1479.29427	0.39619
1477.36560	0.39564
1475.43692	0.39482
1473.50824	0.39412
1471.57957	0.39407
1469.65089	0.39451
1467.72222	0.39465
1465.79354	0.39447
1463.86487	0.39457
1461.93619	0.39466
1460.00751	0.39392
1458.07884	0.39290
1456.15016	0.39308
1454.22149	0.39441
1452.29281	0.39548
1450.36414	0.39578
1448.43546	0.39579
1446.50678	0.39598
1444.57811	0.39636
1442.64943	0.39671
1440.72076	0.39669
1438.79208	0.39601
1436.86341	0.39543
1434.93473	0.39583
1433.00605	0.39653
1431.07738	0.39668
1429.14870	0.39666
1427.22003	0.39671
1425.29135	0.39658
1423.36268	0.39625
1421.43400	0.39561
1419.50532	0.39498
1417.57665	0.39516
1415.64797	0.39590
1413.71930	0.39629
1411.79062	0.39630
1409.86195	0.39625
1407.93327	0.39613
1406.00459	0.39597
1404.07592	0.39594
1402.14724	0.39587
1400.21857	0.39549
1398.28989	0.39506
1396.36122	0.39487
1394.43254	0.39502
1392.50386	0.39542
1390.57519	0.39539
1388.64651	0.39463
1386.71784	0.39386
1384.78916	0.39369
1382.86049	0.39397
1380.93181	0.39429
1379.00313	0.39432
1377.07446	0.39405
1375.14578	0.39376
1373.21711	0.39374
1371.28843	0.39392
1369.35976	0.39402
1367.43108	0.39401
1365.50240	0.39380
1363.57373	0.39342
1361.64505	0.39330
1359.71638	0.39354
1357.78770	0.39380
1355.85903	0.39391
1353.93035	0.39398
1352.00167	0.39409
1350.07300	0.39421
1348.14432	0.39437
1346.21565	0.39457
1344.28697	0.39470
1342.35830	0.39453
1340.42962	0.39415
1338.50094	0.39403
1336.57227	0.39425
1334.64359	0.39447
1332.71492	0.39453
1330.78624	0.39442
1328.85757	0.39426
1326.92889	0.39417
1325.00021	0.39412
1323.07154	0.39399
1321.14286	0.39378
1319.21419	0.39358
1317.28551	0.39345
1315.35684	0.39333
1313.42816	0.39317
1311.49948	0.39293
1309.57081	0.39261
1307.64213	0.39229
1305.71346	0.39195
1303.78478	0.39161
1301.85611	0.39128
1299.92743	0.39094
1297.99875	0.39055
1296.07008	0.39013
1294.14140	0.38972
1292.21273	0.38927
1290.28405	0.38877
1288.35538	0.38828
1286.42670	0.38782
1284.49802	0.38731
1282.56935	0.38669
1280.64067	0.38601
1278.71200	0.38529
1276.78332	0.38451
1274.85465	0.38361
1272.92597	0.38248
1270.99729	0.38101
1269.06862	0.37920
1267.13994	0.37726
1265.21127	0.37549
1263.28259	0.37419
1261.35392	0.37348
1259.42524	0.37331
1257.49656	0.37353
1255.56789	0.37382
1253.63921	0.37385
1251.71054	0.37350
1249.78186	0.37286
1247.85319	0.37212
1245.92451	0.37138
1243.99583	0.37061
1242.06716	0.36974
1240.13848	0.36875
1238.20981	0.36768
1236.28113	0.36659
1234.35246	0.36560
1232.42378	0.36462
1230.49510	0.36343
1228.56643	0.36220
1226.63775	0.36121
1224.70908	0.36035
1222.78040	0.35938
1220.85173	0.35829
1218.92305	0.35731
1216.99437	0.35644
1215.06570	0.35549
1213.13702	0.35445
1211.20835	0.35343
1209.27967	0.35246
1207.35100	0.35151
1205.42232	0.35051
1203.49364	0.34950
1201.56497	0.34856
1199.63629	0.34774
1197.70762	0.34700
1195.77894	0.34617
1193.85027	0.34514
1191.92159	0.34396
1189.99291	0.34273
1188.06424	0.34148
1186.13556	0.34016
1184.20689	0.33880
1182.27821	0.33748
1180.34954	0.33613
1178.42086	0.33472
1176.49218	0.33326
1174.56351	0.33183
1172.63483	0.33043
1170.70616	0.32898
1168.77748	0.32742
1166.84881	0.32583
1164.92013	0.32437
1162.99145	0.32305
1161.06278	0.32167
1159.13410	0.32019
1157.20543	0.31871
1155.27675	0.31734
1153.34808	0.31610
1151.41940	0.31488
1149.49072	0.31362
1147.56205	0.31238
1145.63337	0.31126
1143.70470	0.31022
1141.77602	0.30916
1139.84735	0.30800
1137.91867	0.30672
1135.98999	0.30538
1134.06132	0.30401
1132.13264	0.30264
1130.20397	0.30126
1128.27529	0.29983
1126.34662	0.29835
1124.41794	0.29684
1122.48926	0.29534
1120.56059	0.29384
1118.63191	0.29229
1116.70324	0.29066
1114.77456	0.28902
1112.84589	0.28736
1110.91721	0.28572
1108.98853	0.28423
1107.05986	0.28281
1105.13118	0.28134
1103.20251	0.27988
1101.27383	0.27852
1099.34516	0.27716
1097.41648	0.27576
1095.48780	0.27444
1093.55913	0.27319
1091.63045	0.27196
1089.70178	0.27072
1087.77310	0.26947
1085.84443	0.26830
1083.91575	0.26729
1081.98707	0.26637
1080.05840	0.26543
1078.12972	0.26446
1076.20105	0.26351
1074.27237	0.26273
1072.34370	0.26218
1070.41502	0.26178
1068.48634	0.26149
1066.55767	0.26133
1064.62899	0.26126
1062.70032	0.26130
1060.77164	0.26146
1058.84297	0.26169
1056.91429	0.26197
1054.98561	0.26236
1053.05694	0.26281
1051.12826	0.26328
1049.19959	0.26381
1047.27091	0.26437
1045.34224	0.26500
1043.41356	0.26576
1041.48488	0.26657
1039.55621	0.26735
1037.62753	0.26817
1035.69886	0.26910
1033.77018	0.27006
1031.84151	0.27092
1029.91283	0.27168
1027.98415	0.27250
1026.05548	0.27340
1024.12680	0.27422
1022.19813	0.27501
1020.26945	0.27594
1018.34078	0.27709
1016.41210	0.27839
1014.48342	0.27972
1012.55475	0.28112
1010.62607	0.28263
1008.69740	0.28416
1006.76872	0.28561
1004.84005	0.28700
1002.91137	0.28822
1000.98269	0.28922
999.05402	0.29017
997.12534	0.29108
995.19667	0.29184
993.26799	0.29249
991.33932	0.29316
989.41064	0.29384
987.48196	0.29444
985.55329	0.29501
983.62461	0.29558
981.69594	0.29611
979.76726	0.29646
977.83859	0.29664
975.90991	0.29670
973.98123	0.29670
972.05256	0.29668
970.12388	0.29663
968.19521	0.29646
966.26653	0.29623
964.33786	0.29604
962.40918	0.29590
960.48050	0.29567
958.55183	0.29536
956.62315	0.29506
954.69448	0.29472
952.76580	0.29425
950.83713	0.29371
948.90845	0.29315
946.97977	0.29259
945.05110	0.29205
943.12242	0.29147
941.19375	0.29082
939.26507	0.29000
937.33640	0.28913
935.40772	0.28840
933.47904	0.28778
931.55037	0.28714
929.62169	0.28654
927.69302	0.28595
925.76434	0.28525
923.83567	0.28444
921.90699	0.28364
919.97831	0.28285
918.04964	0.28203
916.12096	0.28121
914.19229	0.28039
912.26361	0.27961
910.33494	0.27884
908.40626	0.27801
906.47758	0.27711
904.54891	0.27618
902.62023	0.27527
900.69156	0.27439
898.76288	0.27347
896.83421	0.27247
894.90553	0.27142
892.97685	0.27039
891.04818	0.26941
889.11950	0.26852
887.19083	0.26774
885.26215	0.26688
883.33348	0.26583
881.40480	0.26480
879.47612	0.26397
877.54745	0.26322
875.61877	0.26252
873.69010	0.26185
871.76142	0.26108
869.83275	0.26025
867.90407	0.25953
865.97539	0.25888
864.04672	0.25808
862.11804	0.25709
860.18937	0.25606
858.26069	0.25512
856.33202	0.25426
854.40334	0.25335
852.47466	0.25230
850.54599	0.25123
848.61731	0.25031
846.68864	0.24949
844.75996	0.24864
842.83129	0.24777
840.90261	0.24698
838.97394	0.24622
837.04526	0.24528
835.11658	0.24417
833.18791	0.24303
831.25923	0.24198
829.33056	0.24099
827.40188	0.23998
825.47321	0.23883
823.54453	0.23757
821.61585	0.23631
819.68718	0.23520
817.75850	0.23424
815.82983	0.23331
813.90115	0.23235
811.97248	0.23130
810.04380	0.23017
808.11512	0.22914
806.18645	0.22830
804.25777	0.22752
802.32910	0.22677
800.40042	0.22612
798.47175	0.22561
796.54307	0.22513
794.61439	0.22471
792.68572	0.22441
790.75704	0.22414
788.82837	0.22387
786.89969	0.22363
784.97102	0.22333
783.04234	0.22290
781.11366	0.22235
779.18499	0.22179
777.25631	0.22132
775.32764	0.22090
773.39896	0.22045
771.47029	0.21996
769.54161	0.21939
767.61293	0.21874
765.68426	0.21813
763.75558	0.21757
761.82691	0.21687
759.89823	0.21601
757.96956	0.21510
756.04088	0.21421
754.11220	0.21331
752.18353	0.21231
750.25485	0.21131
748.32618	0.21044
746.39750	0.20960
744.46883	0.20867
742.54015	0.20774
740.61147	0.20684
738.68280	0.20591
736.75412	0.20510
734.82545	0.20449
732.89677	0.20380
730.96810	0.20295
729.03942	0.20215
727.11074	0.20140
725.18207	0.20060
723.25339	0.19986
721.32472	0.19922
719.39604	0.19862
717.46737	0.19797
715.53869	0.19718
713.61001	0.19627
711.68134	0.19541
709.75266	0.19457
707.82399	0.19363
705.89531	0.19272
703.96664	0.19199
702.03796	0.19128
700.10928	0.19046
698.18061	0.18960
696.25193	0.18874
694.32326	0.18788
692.39458	0.18708
690.46591	0.18633
688.53723	0.18554
686.60855	0.18465
684.67988	0.18360
682.75120	0.18249
680.82253	0.18143
678.89385	0.18039
676.96518	0.17931
675.03650	0.17809
673.10782	0.17661
671.17915	0.17488
669.25047	0.17306
667.32180	0.17141
665.39312	0.17001
663.46445	0.16861
661.53577	0.16711
659.60709	0.16551
657.67842	0.16388
655.74974	0.16236
653.82107	0.16102
651.89239	0.15966
649.96372	0.15805
648.03504	0.15625
646.10636	0.15452
644.17769	0.15291
642.24901	0.15122
640.32034	0.14939
638.39166	0.14748
636.46299	0.14553
634.53431	0.14357
632.60563	0.14175
630.67696	0.14007
628.74828	0.13836
626.81961	0.13652
624.89093	0.13463
622.96226	0.13275
621.03358	0.13097
619.10490	0.12942
617.17623	0.12781
615.24755	0.12587
613.31888	0.12385
611.39020	0.12205
609.46153	0.12040
607.53285	0.11876
605.60417	0.11708
603.67550	0.11545
601.74682	0.11392
599.81815	0.11242
597.88947	0.11094
595.96080	0.10963
594.03212	0.10847
592.10344	0.10730
590.17477	0.10611
588.24609	0.10502
586.31742	0.10394
584.38874	0.10279
582.46007	0.10159
580.53139	0.10042
578.60271	0.09928
576.67404	0.09820
574.74536	0.09718
572.81669	0.09615
570.88801	0.09510
568.95934	0.09419
567.03066	0.09343
565.10198	0.09264
563.17331	0.09178
561.24463	0.09098
559.31596	0.09030
557.38728	0.08973
555.45861	0.08904
553.52993	0.08818
551.60125	0.08735
549.67258	0.08667
547.74390	0.08611
545.81523	0.08559
543.88655	0.08509
541.95788	0.08464
540.02920	0.08418
538.10052	0.08369
536.17185	0.08318
534.24317	0.08271
532.31450	0.08228
530.38582	0.08170
528.45715	0.08088
526.52847	0.07996
524.59979	0.07909
522.67112	0.07827
520.74244	0.07756
518.81377	0.07693
516.88509	0.07620
514.95642	0.07531
513.02774	0.07439
511.09906	0.07350
509.17039	0.07257
507.24171	0.07165
505.31304	0.07073
503.38436	0.06975
501.45569	0.06876
499.52701	0.06768
497.59833	0.06635
495.66966	0.06496
493.74098	0.06367
491.81231	0.06242
489.88363	0.06117
487.95496	0.05992
486.02628	0.05867
484.09760	0.05748
482.16893	0.05627
480.24025	0.05498
478.31158	0.05369
476.38290	0.05245
474.45423	0.05123
472.52555	0.05007
470.59687	0.04904
468.66820	0.04817
466.73952	0.04746
464.81085	0.04686
462.88217	0.04632
460.95350	0.04585
459.02482	0.04551
457.09614	0.04538
455.16747	0.04542
453.23879	0.04546
451.31012	0.04541
449.38144	0.04520
447.45277	0.04485
445.52409	0.04458
443.59541	0.04431
441.66674	0.04377
439.73806	0.04301
437.80939	0.04219
435.88071	0.04134
433.95204	0.04045
432.02336	0.03938
430.09468	0.03807
428.16601	0.03666
426.23733	0.03524
424.30866	0.03395
422.37998	0.03288
420.45131	0.03175
418.52263	0.03033
416.59395	0.02881
414.66528	0.02745
412.73660	0.02619
410.80793	0.02487
408.87925	0.02353
406.95058	0.02238
405.02190	0.02142
403.09322	0.02032
401.16455	0.01903
399.23587	0.01776
397.30720	0.01667
395.37852	0.01571
393.44985	0.01472
391.52117	0.01379
389.59249	0.01302
387.66382	0.01227
385.73514	0.01143
383.80647	0.01060
381.87779	0.00984
379.94912	0.00920
378.02044	0.00864
376.09176	0.00800
374.16309	0.00713
372.23441	0.00625
370.30574	0.00561
368.37706	0.00520
