7496.76250	0.00211
7494.83382	0.00213
7492.90514	0.00214
7490.97647	0.00215
7489.04779	0.00215
7487.11912	0.00216
7485.19044	0.00217
7483.26177	0.00218
7481.33309	0.00219
7479.40441	0.00218
7477.47574	0.00218
7475.54706	0.00220
7473.61839	0.00221
7471.68971	0.00220
7469.76104	0.00220
7467.83236	0.00222
7465.90368	0.00223
7463.97501	0.00222
7462.04633	0.00221
7460.11766	0.00223
7458.18898	0.00226
7456.26031	0.00228
7454.33163	0.00228
7452.40295	0.00227
7450.47428	0.00227
7448.54560	0.00228
7446.61693	0.00229
7444.68825	0.00229
7442.75958	0.00228
7440.83090	0.00229
7438.90222	0.00230
7436.97355	0.00231
7435.04487	0.00230
7433.11620	0.00230
7431.18752	0.00229
7429.25885	0.00228
7427.33017	0.00229
7425.40149	0.00231
7423.47282	0.00233
7421.54414	0.00234
7419.61547	0.00235
7417.68679	0.00236
7415.75812	0.00238
7413.82944	0.00241
7411.90076	0.00242
7409.97209	0.00243
7408.04341	0.00242
7406.11474	0.00242
7404.18606	0.00243
7402.25739	0.00243
7400.32871	0.00244
7398.40003	0.00244
7396.47136	0.00244
7394.54268	0.00244
7392.61401	0.00243
7390.68533	0.00244
7388.75666	0.00246
7386.82798	0.00245
7384.89930	0.00244
7382.97063	0.00246
7381.04195	0.00249
7379.11328	0.00249
7377.18460	0.00249
7375.25593	0.00251
7373.32725	0.00253
7371.39857	0.00254
7369.46990	0.00253
7367.54122	0.00251
7365.61255	0.00250
7363.68387	0.00250
7361.75520	0.00253
7359.82652	0.00256
7357.89784	0.00258
7355.96917	0.00258
7354.04049	0.00258
7352.11182	0.00258
7350.18314	0.00258
7348.25447	0.00259
7346.32579	0.00260
7344.39711	0.00260
7342.46844	0.00260
7340.53976	0.00261
7338.61109	0.00263
7336.68241	0.00263
7334.75374	0.00263
7332.82506	0.00264
7330.89638	0.00265
7328.96771	0.00265
7327.03903	0.00264
7325.11036	0.00263
7323.18168	0.00265
7321.25301	0.00266
7319.32433	0.00267
7317.39565	0.00269
7315.46698	0.00272
7313.53830	0.00273
7311.60963	0.00271
7309.68095	0.00270
7307.75228	0.00271
7305.82360	0.00271
7303.89492	0.00270
7301.96625	0.00272
7300.03757	0.00274
7298.10890	0.00274
7296.18022	0.00273
7294.25155	0.00272
7292.32287	0.00272
7290.39419	0.00274
7288.46552	0.00276
7286.53684	0.00277
7284.60817	0.00279
7282.67949	0.00282
7280.75082	0.00284
7278.82214	0.00284
7276.89346	0.00283
7274.96479	0.00284
7273.03611	0.00285
7271.10744	0.00285
7269.17876	0.00284
7267.25009	0.00285
7265.32141	0.00286
7263.39273	0.00287
7261.46406	0.00289
7259.53538	0.00291
7257.60671	0.00292
7255.67803	0.00293
7253.74936	0.00293
7251.82068	0.00295
7249.89200	0.00296
7247.96333	0.00295
7246.03465	0.00294
7244.10598	0.00294
7242.17730	0.00295
7240.24863	0.00297
7238.31995	0.00299
7236.39127	0.00298
7234.46260	0.00296
7232.53392	0.00295
7230.60525	0.00297
7228.67657	0.00298
7226.74790	0.00299
7224.81922	0.00299
7222.89054	0.00299
7220.96187	0.00300
7219.03319	0.00303
7217.10452	0.00303
7215.17584	0.00303
7213.24717	0.00304
7211.31849	0.00305
7209.38981	0.00305
7207.46114	0.00305
7205.53246	0.00306
7203.60379	0.00308
7201.67511	0.00310
7199.74644	0.00311
7197.81776	0.00311
7195.88908	0.00311
7193.96041	0.00312
7192.03173	0.00314
7190.10306	0.00316
7188.17438	0.00315
7186.24571	0.00314
7184.31703	0.00315
7182.38835	0.00317
7180.45968	0.00317
7178.53100	0.00318
7176.60233	0.00318
7174.67365	0.00318
7172.74498	0.00320
7170.81630	0.00324
7168.88762	0.00325
7166.95895	0.00324
7165.03027	0.00325
7163.10160	0.00325
7161.17292	0.00326
7159.24425	0.00326
7157.31557	0.00327
7155.38689	0.00327
7153.45822	0.00326
7151.52954	0.00325
7149.60087	0.00327
7147.67219	0.00329
7145.74352	0.00330
7143.81484	0.00332
7141.88616	0.00333
7139.95749	0.00336
7138.02881	0.00339
7136.10014	0.00340
7134.17146	0.00338
7132.24279	0.00337
7130.31411	0.00336
7128.38543	0.00337
7126.45676	0.00339
7124.52808	0.00339
7122.59941	0.00339
7120.67073	0.00339
7118.74206	0.00338
7116.81338	0.00338
7114.88470	0.00341
7112.95603	0.00344
7111.02735	0.00346
7109.09868	0.00346
7107.17000	0.00344
7105.24133	0.00344
7103.31265	0.00346
7101.38397	0.00349
7099.45530	0.00349
7097.52662	0.00349
7095.59795	0.00350
7093.66927	0.00350
7091.74060	0.00351
7089.81192	0.00353
7087.88324	0.00352
7085.95457	0.00352
7084.02589	0.00354
7082.09722	0.00355
7080.16854	0.00354
7078.23987	0.00355
7076.31119	0.00358
7074.38251	0.00359
7072.45384	0.00359
7070.52516	0.00359
7068.59649	0.00360
7066.66781	0.00362
7064.73914	0.00362
7062.81046	0.00362
7060.88178	0.00362
7058.95311	0.00364
7057.02443	0.00365
7055.09576	0.00365
7053.16708	0.00366
7051.23841	0.00369
7049.30973	0.00370
7047.38105	0.00369
7045.45238	0.00368
7043.52370	0.00368
7041.59503	0.00368
7039.66635	0.00369
7037.73768	0.00369
7035.80900	0.00370
7033.88032	0.00371
7031.95165	0.00373
7030.02297	0.00374
7028.09430	0.00375
7026.16562	0.00375
7024.23695	0.00375
7022.30827	0.00376
7020.37959	0.00380
7018.45092	0.00383
7016.52224	0.00382
7014.59357	0.00381
7012.66489	0.00383
7010.73622	0.00385
7008.80754	0.00385
7006.87886	0.00383
7004.95019	0.00383
7003.02151	0.00385
7001.09284	0.00387
6999.16416	0.00390
6997.23549	0.00392
6995.30681	0.00392
6993.37813	0.00393
6991.44946	0.00393
6989.52078	0.00392
6987.59211	0.00391
6985.66343	0.00392
6983.73476	0.00394
6981.80608	0.00397
6979.87740	0.00398
6977.94873	0.00400
6976.02005	0.00401
6974.09138	0.00403
6972.16270	0.00403
6970.23403	0.00404
6968.30535	0.00406
6966.37667	0.00406
6964.44800	0.00405
6962.51932	0.00406
6960.59065	0.00408
6958.66197	0.00409
6956.73330	0.00410
6954.80462	0.00410
6952.87594	0.00410
6950.94727	0.00411
6949.01859	0.00413
6947.08992	0.00415
6945.16124	0.00416
6943.23257	0.00416
6941.30389	0.00417
6939.37521	0.00418
6937.44654	0.00419
6935.51786	0.00419
6933.58919	0.00420
6931.66051	0.00420
6929.73184	0.00417
6927.80316	0.00418
6925.87448	0.00422
6923.94581	0.00426
6922.01713	0.00428
6920.08846	0.00428
6918.15978	0.00426
6916.23111	0.00425
6914.30243	0.00426
6912.37375	0.00429
6910.44508	0.00429
6908.51640	0.00429
6906.58773	0.00430
6904.65905	0.00432
6902.73038	0.00434
6900.80170	0.00435
6898.87302	0.00435
6896.94435	0.00436
6895.01567	0.00437
6893.08700	0.00439
6891.15832	0.00439
6889.22965	0.00440
6887.30097	0.00440
6885.37229	0.00441
6883.44362	0.00441
6881.51494	0.00442
6879.58627	0.00443
6877.65759	0.00445
6875.72892	0.00447
6873.80024	0.00447
6871.87156	0.00448
6869.94289	0.00450
6868.01421	0.00452
6866.08554	0.00452
6864.15686	0.00451
6862.22819	0.00451
6860.29951	0.00452
6858.37083	0.00452
6856.44216	0.00452
6854.51348	0.00453
6852.58481	0.00457
6850.65613	0.00460
6848.72746	0.00461
6846.79878	0.00461
6844.87010	0.00459
6842.94143	0.00459
6841.01275	0.00462
6839.08408	0.00466
6837.15540	0.00467
6835.22673	0.00466
6833.29805	0.00465
6831.36937	0.00466
6829.44070	0.00468
6827.51202	0.00469
6825.58335	0.00469
6823.65467	0.00470
6821.72600	0.00471
6819.79732	0.00473
6817.86864	0.00476
6815.93997	0.00479
6814.01129	0.00479
6812.08262	0.00479
6810.15394	0.00479
6808.22527	0.00479
6806.29659	0.00478
6804.36791	0.00479
6802.43924	0.00481
6800.51056	0.00483
6798.58189	0.00483
6796.65321	0.00483
6794.72454	0.00484
6792.79586	0.00488
6790.86718	0.00492
6788.93851	0.00495
6787.00983	0.00496
6785.08116	0.00495
6783.15248	0.00493
6781.22381	0.00492
6779.29513	0.00493
6777.36645	0.00497
6775.43778	0.00502
6773.50910	0.00505
6771.58043	0.00504
6769.65175	0.00503
6767.72308	0.00503
6765.79440	0.00501
6763.86572	0.00500
6761.93705	0.00501
6760.00837	0.00503
6758.07970	0.00506
6756.15102	0.00507
6754.22235	0.00508
6752.29367	0.00510
6750.36499	0.00513
6748.43632	0.00514
6746.50764	0.00514
6744.57897	0.00513
6742.65029	0.00514
6740.72162	0.00517
6738.79294	0.00519
6736.86426	0.00520
6734.93559	0.00519
6733.00691	0.00518
6731.07824	0.00517
6729.14956	0.00517
6727.22089	0.00522
6725.29221	0.00527
6723.36353	0.00529
6721.43486	0.00530
6719.50618	0.00532
6717.57751	0.00533
6715.64883	0.00532
6713.72016	0.00532
6711.79148	0.00534
6709.86280	0.00534
6707.93413	0.00535
6706.00545	0.00535
6704.07678	0.00534
6702.14810	0.00533
6700.21943	0.00534
6698.29075	0.00539
6696.36207	0.00544
6694.43340	0.00548
6692.50472	0.00548
6690.57605	0.00550
6688.64737	0.00550
6686.71870	0.00549
6684.79002	0.00551
6682.86134	0.00553
6680.93267	0.00554
6679.00399	0.00554
6677.07532	0.00554
6675.14664	0.00555
6673.21797	0.00557
6671.28929	0.00560
6669.36061	0.00563
6667.43194	0.00565
6665.50326	0.00565
6663.57459	0.00563
6661.64591	0.00564
6659.71724	0.00567
6657.78856	0.00569
6655.85988	0.00570
6653.93121	0.00570
6652.00253	0.00570
6650.07386	0.00571
6648.14518	0.00574
6646.21651	0.00577
6644.28783	0.00579
6642.35915	0.00580
6640.43048	0.00580
6638.50180	0.00579
6636.57313	0.00578
6634.64445	0.00577
6632.71578	0.00579
6630.78710	0.00584
6628.85842	0.00588
6626.92975	0.00590
6625.00107	0.00590
6623.07240	0.00588
6621.14372	0.00587
6619.21505	0.00590
6617.28637	0.00592
6615.35769	0.00594
6613.42902	0.00597
6611.50034	0.00598
6609.57167	0.00598
6607.64299	0.00598
6605.71432	0.00600
6603.78564	0.00602
6601.85696	0.00604
6599.92829	0.00604
6597.99961	0.00601
6596.07094	0.00600
6594.14226	0.00604
6592.21359	0.00608
6590.28491	0.00611
6588.35623	0.00611
6586.42756	0.00611
6584.49888	0.00613
6582.57021	0.00615
6580.64153	0.00616
6578.71286	0.00618
6576.78418	0.00621
6574.85550	0.00623
6572.92683	0.00622
6570.99815	0.00622
6569.06948	0.00623
6567.14080	0.00625
6565.21213	0.00628
6563.28345	0.00629
6561.35477	0.00628
6559.42610	0.00627
6557.49742	0.00629
6555.56875	0.00632
6553.64007	0.00635
6551.71140	0.00636
6549.78272	0.00636
6547.85404	0.00637
6545.92537	0.00637
6543.99669	0.00635
6542.06802	0.00636
6540.13934	0.00640
6538.21067	0.00645
6536.28199	0.00646
6534.35331	0.00648
6532.42464	0.00650
6530.49596	0.00653
6528.56729	0.00656
6526.63861	0.00657
6524.70994	0.00657
6522.78126	0.00657
6520.85258	0.00658
6518.92391	0.00659
6516.99523	0.00658
6515.06656	0.00656
6513.13788	0.00657
6511.20921	0.00661
6509.28053	0.00663
6507.35185	0.00665
6505.42318	0.00666
6503.49450	0.00667
6501.56583	0.00669
6499.63715	0.00671
6497.70848	0.00673
6495.77980	0.00674
6493.85112	0.00673
6491.92245	0.00671
6489.99377	0.00672
6488.06510	0.00676
6486.13642	0.00679
6484.20775	0.00681
6482.27907	0.00683
6480.35039	0.00685
6478.42172	0.00690
6476.49304	0.00694
6474.56437	0.00696
6472.63569	0.00695
6470.70702	0.00694
6468.77834	0.00693
6466.84966	0.00693
6464.92099	0.00696
6462.99231	0.00700
6461.06364	0.00700
6459.13496	0.00700
6457.20629	0.00702
6455.27761	0.00703
6453.34893	0.00704
6451.42026	0.00704
6449.49158	0.00704
6447.56291	0.00705
6445.63423	0.00706
6443.70556	0.00708
6441.77688	0.00712
6439.84820	0.00714
6437.91953	0.00714
6435.99085	0.00715
6434.06218	0.00720
6432.13350	0.00725
6430.20483	0.00727
6428.27615	0.00728
6426.34747	0.00730
6424.41880	0.00732
6422.49012	0.00732
6420.56145	0.00733
6418.63277	0.00734
6416.70410	0.00734
6414.77542	0.00735
6412.84674	0.00738
6410.91807	0.00739
6408.98939	0.00740
6407.06072	0.00742
6405.13204	0.00745
6403.20337	0.00747
6401.27469	0.00749
6399.34601	0.00751
6397.41734	0.00752
6395.48866	0.00752
6393.55999	0.00753
6391.63131	0.00755
6389.70264	0.00757
6387.77396	0.00760
6385.84528	0.00761
6383.91661	0.00760
6381.98793	0.00761
6380.05926	0.00765
6378.13058	0.00768
6376.20191	0.00769
6374.27323	0.00769
6372.34455	0.00770
6370.41588	0.00771
6368.48720	0.00774
6366.55853	0.00775
6364.62985	0.00777
6362.70118	0.00778
6360.77250	0.00778
6358.84382	0.00780
6356.91515	0.00784
6354.98647	0.00789
6353.05780	0.00795
6351.12912	0.00797
6349.20045	0.00795
6347.27177	0.00794
6345.34309	0.00793
6343.41442	0.00794
6341.48574	0.00795
6339.55707	0.00799
6337.62839	0.00802
6335.69972	0.00804
6333.77104	0.00805
6331.84236	0.00807
6329.91369	0.00810
6327.98501	0.00812
6326.05634	0.00814
6324.12766	0.00816
6322.19899	0.00819
6320.27031	0.00822
6318.34163	0.00821
6316.41296	0.00819
6314.48428	0.00819
6312.55561	0.00825
6310.62693	0.00830
6308.69826	0.00833
6306.76958	0.00835
6304.84090	0.00835
6302.91223	0.00833
6300.98355	0.00833
6299.05488	0.00836
6297.12620	0.00840
6295.19753	0.00842
6293.26885	0.00842
6291.34017	0.00843
6289.41150	0.00846
6287.48282	0.00848
6285.55415	0.00851
6283.62547	0.00854
6281.69680	0.00855
6279.76812	0.00855
6277.83944	0.00855
6275.91077	0.00856
6273.98209	0.00856
6272.05342	0.00856
6270.12474	0.00860
6268.19607	0.00864
6266.26739	0.00865
6264.33871	0.00867
6262.41004	0.00870
6260.48136	0.00874
6258.55269	0.00876
6256.62401	0.00877
6254.69534	0.00878
6252.76666	0.00880
6250.83798	0.00880
6248.90931	0.00881
6246.98063	0.00884
6245.05196	0.00887
6243.12328	0.00889
6241.19461	0.00890
6239.26593	0.00894
6237.33725	0.00899
6235.40858	0.00901
6233.47990	0.00900
6231.55123	0.00899
6229.62255	0.00901
6227.69388	0.00905
6225.76520	0.00907
6223.83652	0.00906
6221.90785	0.00907
6219.97917	0.00911
6218.05050	0.00915
6216.12182	0.00917
6214.19315	0.00918
6212.26447	0.00919
6210.33579	0.00920
6208.40712	0.00923
6206.47844	0.00925
6204.54977	0.00925
6202.62109	0.00926
6200.69242	0.00929
6198.76374	0.00932
6196.83506	0.00933
6194.90639	0.00934
6192.97771	0.00935
6191.04904	0.00939
6189.12036	0.00945
6187.19169	0.00949
6185.26301	0.00951
6183.33433	0.00952
6181.40566	0.00950
6179.47698	0.00950
6177.54831	0.00952
6175.61963	0.00953
6173.69096	0.00956
6171.76228	0.00960
6169.83360	0.00963
6167.90493	0.00964
6165.97625	0.00966
6164.04758	0.00970
6162.11890	0.00974
6160.19023	0.00975
6158.26155	0.00977
6156.33287	0.00981
6154.40420	0.00983
6152.47552	0.00983
6150.54685	0.00982
6148.61817	0.00984
6146.68950	0.00987
6144.76082	0.00991
6142.83214	0.00992
6140.90347	0.00993
6138.97479	0.00997
6137.04612	0.00999
6135.11744	0.01000
6133.18877	0.01002
6131.26009	0.01005
6129.33141	0.01006
6127.40274	0.01006
6125.47406	0.01010
6123.54539	0.01015
6121.61671	0.01019
6119.68804	0.01019
6117.75936	0.01021
6115.83068	0.01026
6113.90201	0.01027
6111.97333	0.01026
6110.04466	0.01025
6108.11598	0.01027
6106.18731	0.01030
6104.25863	0.01032
6102.32995	0.01035
6100.40128	0.01038
6098.47260	0.01041
6096.54393	0.01044
6094.61525	0.01047
6092.68658	0.01050
6090.75790	0.01053
6088.82922	0.01055
6086.90055	0.01057
6084.97187	0.01058
6083.04320	0.01059
6081.11452	0.01059
6079.18585	0.01062
6077.25717	0.01067
6075.32849	0.01070
6073.39982	0.01073
6071.47114	0.01075
6069.54247	0.01076
6067.61379	0.01078
6065.68512	0.01079
6063.75644	0.01079
6061.82776	0.01081
6059.89909	0.01085
6057.97041	0.01089
6056.04174	0.01093
6054.11306	0.01095
6052.18439	0.01098
6050.25571	0.01101
6048.32703	0.01103
6046.39836	0.01104
6044.46968	0.01106
6042.54101	0.01108
6040.61233	0.01110
6038.68366	0.01113
6036.75498	0.01117
6034.82630	0.01122
6032.89763	0.01129
6030.96895	0.01131
6029.04028	0.01128
6027.11160	0.01127
6025.18293	0.01128
6023.25425	0.01129
6021.32557	0.01131
6019.39690	0.01134
6017.46822	0.01134
6015.53955	0.01136
6013.61087	0.01141
6011.68220	0.01147
6009.75352	0.01150
6007.82484	0.01151
6005.89617	0.01153
6003.96749	0.01154
6002.03882	0.01155
6000.11014	0.01157
5998.18147	0.01160
5996.25279	0.01164
5994.32411	0.01168
5992.39544	0.01172
5990.46676	0.01173
5988.53809	0.01174
5986.60941	0.01176
5984.68074	0.01180
5982.75206	0.01183
5980.82338	0.01185
5978.89471	0.01185
5976.96603	0.01185
5975.03736	0.01186
5973.10868	0.01189
5971.18001	0.01194
5969.25133	0.01199
5967.32265	0.01204
5965.39398	0.01207
5963.46530	0.01207
5961.53663	0.01209
5959.60795	0.01214
5957.67928	0.01216
5955.75060	0.01216
5953.82192	0.01217
5951.89325	0.01220
5949.96457	0.01222
5948.03590	0.01224
5946.10722	0.01228
5944.17855	0.01232
5942.24987	0.01235
5940.32119	0.01237
5938.39252	0.01241
5936.46384	0.01243
5934.53517	0.01246
5932.60649	0.01249
5930.67782	0.01252
5928.74914	0.01257
5926.82046	0.01261
5924.89179	0.01262
5922.96311	0.01262
5921.03444	0.01264
5919.10576	0.01266
5917.17709	0.01268
5915.24841	0.01270
5913.31973	0.01272
5911.39106	0.01274
5909.46238	0.01276
5907.53371	0.01279
5905.60503	0.01283
5903.67636	0.01287
5901.74768	0.01292
5899.81900	0.01299
5897.89033	0.01304
5895.96165	0.01302
5894.03298	0.01298
5892.10430	0.01297
5890.17563	0.01298
5888.24695	0.01302
5886.31827	0.01308
5884.38960	0.01313
5882.46092	0.01316
5880.53225	0.01319
5878.60357	0.01323
5876.67490	0.01327
5874.74622	0.01328
5872.81755	0.01330
5870.88887	0.01331
5868.96019	0.01331
5867.03152	0.01333
5865.10284	0.01338
5863.17417	0.01345
5861.24549	0.01348
5859.31682	0.01347
5857.38814	0.01346
5855.45946	0.01349
5853.53079	0.01354
5851.60211	0.01359
5849.67344	0.01364
5847.74476	0.01366
5845.81609	0.01368
5843.88741	0.01370
5841.95873	0.01375
5840.03006	0.01380
5838.10138	0.01384
5836.17271	0.01388
5834.24403	0.01392
5832.31536	0.01395
5830.38668	0.01395
5828.45800	0.01397
5826.52933	0.01398
5824.60065	0.01400
5822.67198	0.01406
5820.74330	0.01410
5818.81463	0.01411
5816.88595	0.01410
5814.95727	0.01412
5813.02860	0.01416
5811.09992	0.01419
5809.17125	0.01422
5807.24257	0.01425
5805.31390	0.01428
5803.38522	0.01430
5801.45654	0.01433
5799.52787	0.01437
5797.59919	0.01440
5795.67052	0.01443
5793.74184	0.01448
5791.81317	0.01453
5789.88449	0.01457
5787.95581	0.01459
5786.02714	0.01459
5784.09846	0.01459
5782.16979	0.01463
5780.24111	0.01468
5778.31244	0.01474
5776.38376	0.01478
5774.45508	0.01480
5772.52641	0.01482
5770.59773	0.01484
5768.66906	0.01489
5766.74038	0.01492
5764.81171	0.01492
5762.88303	0.01493
5760.95435	0.01497
5759.02568	0.01504
5757.09700	0.01510
5755.16833	0.01515
5753.23965	0.01518
5751.31098	0.01520
5749.38230	0.01522
5747.45362	0.01525
5745.52495	0.01526
5743.59627	0.01527
5741.66760	0.01528
5739.73892	0.01531
5737.81025	0.01533
5735.88157	0.01537
5733.95289	0.01541
5732.02422	0.01546
5730.09554	0.01549
5728.16687	0.01552
5726.23819	0.01556
5724.30952	0.01561
5722.38084	0.01564
5720.45216	0.01567
5718.52349	0.01569
5716.59481	0.01571
5714.66614	0.01573
5712.73746	0.01576
5710.80879	0.01579
5708.88011	0.01583
5706.95143	0.01585
5705.02276	0.01587
5703.09408	0.01590
5701.16541	0.01593
5699.23673	0.01599
5697.30806	0.01604
5695.37938	0.01608
5693.45070	0.01611
5691.52203	0.01613
5689.59335	0.01615
5687.66468	0.01618
5685.73600	0.01623
5683.80733	0.01629
5681.87865	0.01635
5679.94997	0.01638
5678.02130	0.01639
5676.09262	0.01642
5674.16395	0.01646
5672.23527	0.01650
5670.30660	0.01651
5668.37792	0.01653
5666.44924	0.01656
5664.52057	0.01659
5662.59189	0.01662
5660.66322	0.01665
5658.73454	0.01668
5656.80587	0.01673
5654.87719	0.01678
5652.94851	0.01683
5651.01984	0.01684
5649.09116	0.01684
5647.16249	0.01686
5645.23381	0.01691
5643.30514	0.01697
5641.37646	0.01704
5639.44778	0.01709
5637.51911	0.01712
5635.59043	0.01712
5633.66176	0.01713
5631.73308	0.01717
5629.80441	0.01720
5627.87573	0.01723
5625.94705	0.01725
5624.01838	0.01729
5622.08970	0.01733
5620.16103	0.01735
5618.23235	0.01736
5616.30368	0.01739
5614.37500	0.01744
5612.44632	0.01746
5610.51765	0.01748
5608.58897	0.01753
5606.66030	0.01760
5604.73162	0.01764
5602.80295	0.01766
5600.87427	0.01768
5598.94559	0.01771
5597.01692	0.01775
5595.08824	0.01780
5593.15957	0.01786
5591.23089	0.01793
5589.30222	0.01797
5587.37354	0.01798
5585.44486	0.01799
5583.51619	0.01801
5581.58751	0.01808
5579.65884	0.01814
5577.73016	0.01816
5575.80149	0.01816
5573.87281	0.01820
5571.94413	0.01824
5570.01546	0.01826
5568.08678	0.01829
5566.15811	0.01836
5564.22943	0.01843
5562.30076	0.01848
5560.37208	0.01852
5558.44340	0.01854
5556.51473	0.01856
5554.58605	0.01858
5552.65738	0.01861
5550.72870	0.01864
5548.80003	0.01868
5546.87135	0.01871
5544.94267	0.01873
5543.01400	0.01877
5541.08532	0.01882
5539.15665	0.01887
5537.22797	0.01891
5535.29930	0.01893
5533.37062	0.01894
5531.44194	0.01897
5529.51327	0.01903
5527.58459	0.01909
5525.65592	0.01915
5523.72724	0.01919
5521.79857	0.01921
5519.86989	0.01922
5517.94121	0.01924
5516.01254	0.01928
5514.08386	0.01934
5512.15519	0.01939
5510.22651	0.01943
5508.29784	0.01944
5506.36916	0.01945
5504.44048	0.01950
5502.51181	0.01956
5500.58313	0.01960
5498.65446	0.01964
5496.72578	0.01968
5494.79711	0.01970
5492.86843	0.01972
5490.93975	0.01975
5489.01108	0.01978
5487.08240	0.01982
5485.15373	0.01988
5483.22505	0.01993
5481.29638	0.01999
5479.36770	0.02004
5477.43902	0.02010
5475.51035	0.02013
5473.58167	0.02015
5471.65300	0.02017
5469.72432	0.02020
5467.79565	0.02022
5465.86697	0.02025
5463.93829	0.02031
5462.00962	0.02037
5460.08094	0.02042
5458.15227	0.02043
5456.22359	0.02046
5454.29492	0.02053
5452.36624	0.02060
5450.43756	0.02063
5448.50889	0.02065
5446.58021	0.02066
5444.65154	0.02067
5442.72286	0.02070
5440.79419	0.02075
5438.86551	0.02080
5436.93683	0.02083
5435.00816	0.02086
5433.07948	0.02092
5431.15081	0.02098
5429.22213	0.02102
5427.29346	0.02106
5425.36478	0.02113
5423.43610	0.02119
5421.50743	0.02126
5419.57875	0.02129
5417.65008	0.02128
5415.72140	0.02127
5413.79273	0.02130
5411.86405	0.02136
5409.93537	0.02142
5408.00670	0.02146
5406.07802	0.02149
5404.14935	0.02154
5402.22067	0.02161
5400.29200	0.02167
5398.36332	0.02167
5396.43464	0.02168
5394.50597	0.02175
5392.57729	0.02183
5390.64862	0.02189
5388.71994	0.02191
5386.79127	0.02193
5384.86259	0.02197
5382.93391	0.02202
5381.00524	0.02206
5379.07656	0.02208
5377.14789	0.02210
5375.21921	0.02215
5373.29054	0.02219
5371.36186	0.02223
5369.43318	0.02227
5367.50451	0.02232
5365.57583	0.02239
5363.64716	0.02245
5361.71848	0.02253
5359.78981	0.02259
5357.86113	0.02261
5355.93245	0.02261
5354.00378	0.02262
5352.07510	0.02266
5350.14643	0.02272
5348.21775	0.02276
5346.28908	0.02279
5344.36040	0.02282
5342.43172	0.02286
5340.50305	0.02290
5338.57437	0.02294
5336.64570	0.02301
5334.71702	0.02307
5332.78835	0.02312
5330.85967	0.02315
5328.93099	0.02319
5327.00232	0.02324
5325.07364	0.02329
5323.14497	0.02334
5321.21629	0.02339
5319.28762	0.02343
5317.35894	0.02346
5315.43026	0.02348
5313.50159	0.02350
5311.57291	0.02355
5309.64424	0.02360
5307.71556	0.02364
5305.78689	0.02368
5303.85821	0.02374
5301.92953	0.02381
5300.00086	0.02387
5298.07218	0.02390
5296.14351	0.02394
5294.21483	0.02400
5292.28616	0.02402
5290.35748	0.02403
5288.42880	0.02406
5286.50013	0.02410
5284.57145	0.02413
5282.64278	0.02418
5280.71410	0.02425
5278.78543	0.02434
5276.85675	0.02439
5274.92807	0.02440
5272.99940	0.02442
5271.07072	0.02447
5269.14205	0.02450
5267.21337	0.02452
5265.28470	0.02455
5263.35602	0.02459
5261.42734	0.02466
5259.49867	0.02473
5257.56999	0.02477
5255.64132	0.02481
5253.71264	0.02484
5251.78397	0.02489
5249.85529	0.02494
5247.92661	0.02497
5245.99794	0.02501
5244.06926	0.02505
5242.14059	0.02513
5240.21191	0.02521
5238.28324	0.02524
5236.35456	0.02527
5234.42588	0.02532
5232.49721	0.02537
5230.56853	0.02541
5228.63986	0.02545
5226.71118	0.02549
5224.78251	0.02553
5222.85383	0.02558
5220.92515	0.02563
5218.99648	0.02568
5217.06780	0.02574
5215.13913	0.02578
5213.21045	0.02579
5211.28178	0.02582
5209.35310	0.02586
5207.42442	0.02593
5205.49575	0.02601
5203.56707	0.02608
5201.63840	0.02614
5199.70972	0.02617
5197.78105	0.02620
5195.85237	0.02624
5193.92369	0.02628
5191.99502	0.02632
5190.06634	0.02637
5188.13767	0.02642
5186.20899	0.02647
5184.28032	0.02653
5182.35164	0.02659
5180.42296	0.02664
5178.49429	0.02666
5176.56561	0.02667
5174.63694	0.02672
5172.70826	0.02679
5170.77959	0.02684
5168.85091	0.02689
5166.92223	0.02694
5164.99356	0.02698
5163.06488	0.02703
5161.13621	0.02709
5159.20753	0.02712
5157.27886	0.02714
5155.35018	0.02717
5153.42150	0.02722
5151.49283	0.02727
5149.56415	0.02733
5147.63548	0.02736
5145.70680	0.02740
5143.77813	0.02747
5141.84945	0.02756
5139.92077	0.02762
5137.99210	0.02766
5136.06342	0.02769
5134.13475	0.02771
5132.20607	0.02773
5130.27740	0.02776
5128.34872	0.02783
5126.42004	0.02790
5124.49137	0.02796
5122.56269	0.02799
5120.63402	0.02803
5118.70534	0.02807
5116.77667	0.02813
5114.84799	0.02819
5112.91931	0.02826
5110.99064	0.02832
5109.06196	0.02836
5107.13329	0.02839
5105.20461	0.02844
5103.27594	0.02848
5101.34726	0.02854
5099.41858	0.02860
5097.48991	0.02866
5095.56123	0.02868
5093.63256	0.02870
5091.70388	0.02873
5089.77521	0.02880
5087.84653	0.02888
5085.91785	0.02894
5083.98918	0.02900
5082.06050	0.02904
5080.13183	0.02908
5078.20315	0.02910
5076.27448	0.02913
5074.34580	0.02917
5072.41712	0.02921
5070.48845	0.02924
5068.55977	0.02931
5066.63110	0.02939
5064.70242	0.02942
5062.77375	0.02944
5060.84507	0.02949
5058.91639	0.02959
5056.98772	0.02968
5055.05904	0.02973
5053.13037	0.02974
5051.20169	0.02975
5049.27302	0.02980
5047.34434	0.02986
5045.41566	0.02992
5043.48699	0.02998
5041.55831	0.03003
5039.62964	0.03009
5037.70096	0.03015
5035.77229	0.03021
5033.84361	0.03027
5031.91493	0.03035
5029.98626	0.03039
5028.05758	0.03040
5026.12891	0.03044
5024.20023	0.03051
5022.27156	0.03056
5020.34288	0.03058
5018.41420	0.03062
5016.48553	0.03066
5014.55685	0.03073
5012.62818	0.03083
5010.69950	0.03092
5008.77083	0.03098
5006.84215	0.03099
5004.91347	0.03100
5002.98480	0.03104
5001.05612	0.03113
4999.12745	0.03123
4997.19877	0.03129
4995.27010	0.03133
4993.34142	0.03137
4991.41274	0.03142
4989.48407	0.03147
4987.55539	0.03151
4985.62672	0.03154
4983.69804	0.03158
4981.76937	0.03160
4979.84069	0.03162
4977.91201	0.03168
4975.98334	0.03176
4974.05466	0.03184
4972.12599	0.03190
4970.19731	0.03194
4968.26864	0.03198
4966.33996	0.03202
4964.41128	0.03208
4962.48261	0.03213
4960.55393	0.03220
4958.62526	0.03227
4956.69658	0.03233
4954.76791	0.03239
4952.83923	0.03244
4950.91055	0.03247
4948.98188	0.03250
4947.05320	0.03257
4945.12453	0.03267
4943.19585	0.03276
4941.26718	0.03280
4939.33850	0.03282
4937.40982	0.03287
4935.48115	0.03293
4933.55247	0.03298
4931.62380	0.03301
4929.69512	0.03305
4927.76645	0.03310
4925.83777	0.03316
4923.90909	0.03322
4921.98042	0.03328
4920.05174	0.03335
4918.12307	0.03340
4916.19439	0.03344
4914.26572	0.03350
4912.33704	0.03357
4910.40836	0.03363
4908.47969	0.03368
4906.55101	0.03372
4904.62234	0.03376
4902.69366	0.03382
4900.76499	0.03386
4898.83631	0.03390
4896.90763	0.03396
4894.97896	0.03403
4893.05028	0.03408
4891.12161	0.03411
4889.19293	0.03413
4887.26426	0.03417
4885.33558	0.03425
4883.40690	0.03436
4881.47823	0.03444
4879.54955	0.03447
4877.62088	0.03450
4875.69220	0.03456
4873.76353	0.03461
4871.83485	0.03467
4869.90617	0.03475
4867.97750	0.03482
4866.04882	0.03486
4864.12015	0.03491
4862.19147	0.03498
4860.26280	0.03505
4858.33412	0.03512
4856.40544	0.03517
4854.47677	0.03523
4852.54809	0.03528
4850.61942	0.03534
4848.69074	0.03538
4846.76207	0.03543
4844.83339	0.03550
4842.90471	0.03556
4840.97604	0.03557
4839.04736	0.03558
4837.11869	0.03562
4835.19001	0.03571
4833.26134	0.03580
4831.33266	0.03588
4829.40398	0.03595
4827.47531	0.03602
4825.54663	0.03608
4823.61796	0.03613
4821.68928	0.03619
4819.76061	0.03623
4817.83193	0.03627
4815.90325	0.03630
4813.97458	0.03636
4812.04590	0.03644
4810.11723	0.03651
4808.18855	0.03657
4806.25988	0.03663
4804.33120	0.03670
4802.40252	0.03678
4800.47385	0.03684
4798.54517	0.03691
4796.61650	0.03697
4794.68782	0.03702
4792.75915	0.03707
4790.83047	0.03712
4788.90179	0.03716
4786.97312	0.03722
4785.04444	0.03729
4783.11577	0.03738
4781.18709	0.03746
4779.25842	0.03750
4777.32974	0.03755
4775.40106	0.03762
4773.47239	0.03771
4771.54371	0.03776
4769.61504	0.03780
4767.68636	0.03785
4765.75769	0.03792
4763.82901	0.03799
4761.90033	0.03803
4759.97166	0.03807
4758.04298	0.03813
4756.11431	0.03821
4754.18563	0.03828
4752.25696	0.03834
4750.32828	0.03838
4748.39960	0.03843
4746.47093	0.03849
4744.54225	0.03855
4742.61358	0.03862
4740.68490	0.03869
4738.75623	0.03876
4736.82755	0.03883
4734.89887	0.03890
4732.97020	0.03897
4731.04152	0.03903
4729.11285	0.03907
4727.18417	0.03913
4725.25550	0.03919
4723.32682	0.03925
4721.39814	0.03931
4719.46947	0.03938
4717.54079	0.03947
4715.61212	0.03953
4713.68344	0.03958
4711.75477	0.03965
4709.82609	0.03971
4707.89741	0.03975
4705.96874	0.03982
4704.04006	0.03989
4702.11139	0.03997
4700.18271	0.04005
4698.25404	0.04013
4696.32536	0.04019
4694.39668	0.04025
4692.46801	0.04031
4690.53933	0.04036
4688.61066	0.04043
4686.68198	0.04049
4684.75331	0.04055
4682.82463	0.04060
4680.89595	0.04064
4678.96728	0.04070
4677.03860	0.04078
4675.10993	0.04085
4673.18125	0.04092
4671.25258	0.04099
4669.32390	0.04106
4667.39522	0.04114
4665.46655	0.04123
4663.53787	0.04131
4661.60920	0.04138
4659.68052	0.04142
4657.75185	0.04147
4655.82317	0.04152
4653.89449	0.04160
4651.96582	0.04170
4650.03714	0.04177
4648.10847	0.04183
4646.17979	0.04189
4644.25112	0.04194
4642.32244	0.04196
4640.39376	0.04201
4638.46509	0.04211
4636.53641	0.04222
4634.60774	0.04231
4632.67906	0.04237
4630.75039	0.04240
4628.82171	0.04243
4626.89303	0.04248
4624.96436	0.04255
4623.03568	0.04267
4621.10701	0.04278
4619.17833	0.04285
4617.24966	0.04290
4615.32098	0.04296
4613.39230	0.04306
4611.46363	0.04315
4609.53495	0.04322
4607.60628	0.04325
4605.67760	0.04330
4603.74893	0.04337
4601.82025	0.04345
4599.89157	0.04353
4597.96290	0.04363
4596.03422	0.04372
4594.10555	0.04378
4592.17687	0.04385
4590.24820	0.04392
4588.31952	0.04400
4586.39084	0.04409
4584.46217	0.04418
4582.53349	0.04424
4580.60482	0.04428
4578.67614	0.04431
4576.74747	0.04434
4574.81879	0.04440
4572.89011	0.04453
4570.96144	0.04468
4569.03276	0.04476
4567.10409	0.04481
4565.17541	0.04488
4563.24674	0.04497
4561.31806	0.04503
4559.38938	0.04508
4557.46071	0.04515
4555.53203	0.04524
4553.60336	0.04530
4551.67468	0.04536
4549.74601	0.04544
4547.81733	0.04554
4545.88865	0.04561
4543.95998	0.04563
4542.03130	0.04567
4540.10263	0.04575
4538.17395	0.04584
4536.24528	0.04595
4534.31660	0.04605
4532.38792	0.04613
4530.45925	0.04620
4528.53057	0.04628
4526.60190	0.04637
4524.67322	0.04646
4522.74455	0.04654
4520.81587	0.04660
4518.88719	0.04668
4516.95852	0.04677
4515.02984	0.04683
4513.10117	0.04688
4511.17249	0.04694
4509.24382	0.04702
4507.31514	0.04712
4505.38646	0.04723
4503.45779	0.04732
4501.52911	0.04741
4499.60044	0.04749
4497.67176	0.04758
4495.74309	0.04766
4493.81441	0.04773
4491.88573	0.04780
4489.95706	0.04788
4488.02838	0.04795
4486.09971	0.04800
4484.17103	0.04807
4482.24236	0.04819
4480.31368	0.04832
4478.38500	0.04841
4476.45633	0.04845
4474.52765	0.04848
4472.59898	0.04856
4470.67030	0.04869
4468.74163	0.04882
4466.81295	0.04890
4464.88427	0.04894
4462.95560	0.04900
4461.02692	0.04910
4459.09825	0.04919
4457.16957	0.04925
4455.24090	0.04935
4453.31222	0.04947
4451.38354	0.04956
4449.45487	0.04964
4447.52619	0.04971
4445.59752	0.04979
4443.66884	0.04987
4441.74017	0.04997
4439.81149	0.05004
4437.88281	0.05010
4435.95414	0.05017
4434.02546	0.05026
4432.09679	0.05034
4430.16811	0.05042
4428.23944	0.05051
4426.31076	0.05060
4424.38208	0.05070
4422.45341	0.05080
4420.52473	0.05089
4418.59606	0.05099
4416.66738	0.05110
4414.73871	0.05120
4412.81003	0.05129
4410.88135	0.05137
4408.95268	0.05145
4407.02400	0.05156
4405.09533	0.05167
4403.16665	0.05176
4401.23798	0.05182
4399.30930	0.05189
4397.38062	0.05197
4395.45195	0.05205
4393.52327	0.05213
4391.59460	0.05221
4389.66592	0.05230
4387.73725	0.05242
4385.80857	0.05254
4383.87989	0.05262
4381.95122	0.05270
4380.02254	0.05282
4378.09387	0.05296
4376.16519	0.05308
4374.23652	0.05316
4372.30784	0.05325
4370.37916	0.05335
4368.45049	0.05343
4366.52181	0.05348
4364.59314	0.05357
4362.66446	0.05370
4360.73579	0.05381
4358.80711	0.05388
4356.87843	0.05395
4354.94976	0.05404
4353.02108	0.05413
4351.09241	0.05425
4349.16373	0.05435
4347.23506	0.05442
4345.30638	0.05448
4343.37770	0.05459
4341.44903	0.05471
4339.52035	0.05483
4337.59168	0.05494
4335.66300	0.05505
4333.73433	0.05514
4331.80565	0.05522
4329.87697	0.05530
4327.94830	0.05542
4326.01962	0.05555
4324.09095	0.05565
4322.16227	0.05572
4320.23360	0.05580
4318.30492	0.05589
4316.37624	0.05598
4314.44757	0.05607
4312.51889	0.05617
4310.59022	0.05628
4308.66154	0.05638
4306.73287	0.05648
4304.80419	0.05658
4302.87551	0.05666
4300.94684	0.05677
4299.01816	0.05689
4297.08949	0.05701
4295.16081	0.05715
4293.23214	0.05727
4291.30346	0.05737
4289.37478	0.05747
4287.44611	0.05757
4285.51743	0.05768
4283.58876	0.05780
4281.66008	0.05793
4279.73141	0.05803
4277.80273	0.05814
4275.87405	0.05827
4273.94538	0.05835
4272.01670	0.05842
4270.08803	0.05851
4268.15935	0.05861
4266.23068	0.05871
4264.30200	0.05883
4262.37332	0.05892
4260.44465	0.05897
4258.51597	0.05903
4256.58730	0.05915
4254.65862	0.05930
4252.72995	0.05942
4250.80127	0.05952
4248.87259	0.05960
4246.94392	0.05968
4245.01524	0.05982
4243.08657	0.05997
4241.15789	0.06008
4239.22922	0.06017
4237.30054	0.06029
4235.37186	0.06042
4233.44319	0.06053
4231.51451	0.06064
4229.58584	0.06075
4227.65716	0.06087
4225.72849	0.06100
4223.79981	0.06114
4221.87113	0.06127
4219.94246	0.06136
4218.01378	0.06143
4216.08511	0.06156
4214.15643	0.06169
4212.22776	0.06179
4210.29908	0.06188
4208.37040	0.06197
4206.44173	0.06207
4204.51305	0.06220
4202.58438	0.06235
4200.65570	0.06250
4198.72703	0.06261
4196.79835	0.06269
4194.86968	0.06275
4192.94100	0.06283
4191.01232	0.06294
4189.08365	0.06308
4187.15497	0.06321
4185.22630	0.06333
4183.29762	0.06344
4181.36895	0.06354
4179.44027	0.06366
4177.51159	0.06379
4175.58292	0.06394
4173.65424	0.06409
4171.72557	0.06423
4169.79689	0.06435
4167.86822	0.06445
4165.93954	0.06457
4164.01086	0.06468
4162.08219	0.06479
4160.15351	0.06489
4158.22484	0.06501
4156.29616	0.06515
4154.36749	0.06530
4152.43881	0.06544
4150.51013	0.06554
4148.58146	0.06562
4146.65278	0.06575
4144.72411	0.06591
4142.79543	0.06603
4140.86676	0.06614
4138.93808	0.06628
4137.00940	0.06643
4135.08073	0.06653
4133.15205	0.06661
4131.22338	0.06671
4129.29470	0.06686
4127.36603	0.06703
4125.43735	0.06720
4123.50867	0.06735
4121.58000	0.06747
4119.65132	0.06757
4117.72265	0.06766
4115.79397	0.06776
4113.86530	0.06787
4111.93662	0.06801
4110.00794	0.06817
4108.07927	0.06831
4106.15059	0.06841
4104.22192	0.06849
4102.29324	0.06860
4100.36457	0.06876
4098.43589	0.06892
4096.50721	0.06906
4094.57854	0.06918
4092.64986	0.06929
4090.72119	0.06938
4088.79251	0.06946
4086.86384	0.06956
4084.93516	0.06971
4083.00648	0.06990
4081.07781	0.07005
4079.14913	0.07018
4077.22046	0.07032
4075.29178	0.07046
4073.36311	0.07062
4071.43443	0.07076
4069.50575	0.07088
4067.57708	0.07101
4065.64840	0.07116
4063.71973	0.07132
4061.79105	0.07147
4059.86238	0.07159
4057.93370	0.07169
4056.00502	0.07179
4054.07635	0.07193
4052.14767	0.07207
4050.21900	0.07218
4048.29032	0.07230
4046.36165	0.07244
4044.43297	0.07260
4042.50429	0.07276
4040.57562	0.07290
4038.64694	0.07303
4036.71827	0.07315
4034.78959	0.07325
4032.86092	0.07336
4030.93224	0.07351
4029.00356	0.07369
4027.07489	0.07386
4025.14621	0.07401
4023.21754	0.07414
4021.28886	0.07429
4019.36019	0.07445
4017.43151	0.07459
4015.50283	0.07472
4013.57416	0.07486
4011.64548	0.07498
4009.71681	0.07509
4007.78813	0.07521
4005.85946	0.07536
4003.93078	0.07552
4002.00210	0.07567
4000.07343	0.07582
3998.14475	0.07595
3996.21608	0.07605
3994.28740	0.07619
3992.35873	0.07637
3990.43005	0.07654
3988.50137	0.07670
3986.57270	0.07687
3984.64402	0.07699
3982.71535	0.07710
3980.78667	0.07723
3978.85800	0.07740
3976.92932	0.07757
3975.00064	0.07772
3973.07197	0.07786
3971.14329	0.07798
3969.21462	0.07811
3967.28594	0.07824
3965.35727	0.07837
3963.42859	0.07850
3961.49991	0.07865
3959.57124	0.07882
3957.64256	0.07900
3955.71389	0.07917
3953.78521	0.07925
3951.85654	0.07929
3949.92786	0.07939
3947.99918	0.07957
3946.07051	0.07977
3944.14183	0.07992
3942.21316	0.08009
3940.28448	0.08030
3938.35581	0.08051
3936.42713	0.08063
3934.49845	0.08068
3932.56978	0.08076
3930.64110	0.08095
3928.71243	0.08115
3926.78375	0.08129
3924.85508	0.08142
3922.92640	0.08159
3920.99772	0.08174
3919.06905	0.08186
3917.14037	0.08199
3915.21170	0.08221
3913.28302	0.08244
3911.35435	0.08262
3909.42567	0.08271
3907.49699	0.08269
3905.56832	0.08261
3903.63964	0.08262
3901.71097	0.08275
3899.78229	0.08298
3897.85362	0.08333
3895.92494	0.08367
3893.99626	0.08381
3892.06759	0.08387
3890.13891	0.08406
3888.21024	0.08420
3886.28156	0.08424
3884.35289	0.08436
3882.42421	0.08451
3880.49553	0.08466
3878.56686	0.08495
3876.63818	0.08519
3874.70951	0.08528
3872.78083	0.08532
3870.85216	0.08537
3868.92348	0.08554
3866.99480	0.08576
3865.06613	0.08590
3863.13745	0.08612
3861.20878	0.08645
3859.28010	0.08668
3857.35143	0.08656
3855.42275	0.08615
3853.49407	0.08607
3851.56540	0.08659
3849.63672	0.08724
3847.70805	0.08762
3845.77937	0.08778
3843.85070	0.08782
3841.92202	0.08787
3839.99334	0.08791
3838.06467	0.08802
3836.13599	0.08828
3834.20732	0.08859
3832.27864	0.08884
3830.34997	0.08907
3828.42129	0.08929
3826.49261	0.08948
3824.56394	0.08955
3822.63526	0.08949
3820.70659	0.08953
3818.77791	0.08973
3816.84924	0.08993
3814.92056	0.09025
3812.99188	0.09068
3811.06321	0.09095
3809.13453	0.09096
3807.20586	0.09099
3805.27718	0.09119
3803.34851	0.09130
3801.41983	0.09134
3799.49115	0.09155
3797.56248	0.09183
3795.63380	0.09210
3793.70513	0.09240
3791.77645	0.09269
3789.84778	0.09290
3787.91910	0.09304
3785.99042	0.09315
3784.06175	0.09329
3782.13307	0.09341
3780.20440	0.09349
3778.27572	0.09369
3776.34705	0.09401
3774.41837	0.09423
3772.48969	0.09428
3770.56102	0.09429
3768.63234	0.09441
3766.70367	0.09462
3764.77499	0.09486
3762.84632	0.09506
3760.91764	0.09516
3758.98896	0.09523
3757.06029	0.09537
3755.13161	0.09543
3753.20294	0.09532
3751.27426	0.09523
3749.34559	0.09539
3747.41691	0.09556
3745.48823	0.09554
3743.55956	0.09584
3741.63088	0.09649
3739.70221	0.09679
3737.77353	0.09666
3735.84486	0.09661
3733.91618	0.09688
3731.98750	0.09736
3730.05883	0.09779
3728.13015	0.09798
3726.20148	0.09808
3724.27280	0.09827
3722.34413	0.09851
3720.41545	0.09880
3718.48677	0.09908
3716.55810	0.09928
3714.62942	0.09928
3712.70075	0.09917
3710.77207	0.09926
3708.84340	0.09963
3706.91472	0.10004
3704.98604	0.10027
3703.05737	0.10036
3701.12869	0.10053
3699.20002	0.10082
3697.27134	0.10107
3695.34267	0.10118
3693.41399	0.10116
3691.48531	0.10107
3689.55664	0.10115
3687.62796	0.10150
3685.69929	0.10195
3683.77061	0.10227
3681.84194	0.10243
3679.91326	0.10247
3677.98458	0.10234
3676.05591	0.10220
3674.12723	0.10236
3672.19856	0.10264
3670.26988	0.10286
3668.34121	0.10322
3666.41253	0.10366
3664.48385	0.10398
3662.55518	0.10418
3660.62650	0.10433
3658.69783	0.10436
3656.76915	0.10436
3654.84048	0.10442
3652.91180	0.10431
3650.98312	0.10397
3649.05445	0.10383
3647.12577	0.10421
3645.19710	0.10484
3643.26842	0.10536
3641.33975	0.10567
3639.41107	0.10588
3637.48239	0.10605
3635.55372	0.10616
3633.62504	0.10618
3631.69637	0.10603
3629.76769	0.10584
3627.83902	0.10608
3625.91034	0.10662
3623.98166	0.10693
3622.05299	0.10691
3620.12431	0.10684
3618.19564	0.10694
3616.26696	0.10714
3614.33829	0.10727
3612.40961	0.10733
3610.48093	0.10735
3608.55226	0.10749
3606.62358	0.10784
3604.69491	0.10816
3602.76623	0.10832
3600.83756	0.10844
3598.90888	0.10860
3596.98020	0.10870
3595.05153	0.10881
3593.12285	0.10899
3591.19418	0.10909
3589.26550	0.10902
3587.33683	0.10905
3585.40815	0.10935
3583.47947	0.10969
3581.55080	0.10988
3579.62212	0.11003
3577.69345	0.11020
3575.76477	0.11037
3573.83610	0.11051
3571.90742	0.11058
3569.97874	0.11051
3568.05007	0.11044
3566.12139	0.11062
3564.19272	0.11098
3562.26404	0.11130
3560.33537	0.11152
3558.40669	0.11169
3556.47801	0.11184
3554.54934	0.11193
3552.62066	0.11203
3550.69199	0.11216
3548.76331	0.11225
3546.83464	0.11232
3544.90596	0.11246
3542.97728	0.11266
3541.04861	0.11283
3539.11993	0.11297
3537.19126	0.11309
3535.26258	0.11319
3533.33391	0.11328
3531.40523	0.11332
3529.47655	0.11335
3527.54788	0.11341
3525.61920	0.11348
3523.69053	0.11354
3521.76185	0.11363
3519.83318	0.11373
3517.90450	0.11383
3515.97582	0.11394
3514.04715	0.11407
3512.11847	0.11416
3510.18980	0.11419
3508.26112	0.11420
3506.33245	0.11424
3504.40377	0.11428
3502.47509	0.11437
3500.54642	0.11450
3498.61774	0.11458
3496.68907	0.11458
3494.76039	0.11459
3492.83172	0.11464
3490.90304	0.11469
3488.97436	0.11473
3487.04569	0.11477
3485.11701	0.11481
3483.18834	0.11485
3481.25966	0.11495
3479.33099	0.11511
3477.40231	0.11526
3475.47363	0.11542
3473.54496	0.11558
3471.61628	0.11570
3469.68761	0.11579
3467.75893	0.11594
3465.83026	0.11615
3463.90158	0.11636
3461.97290	0.11659
3460.04423	0.11686
3458.11555	0.11710
3456.18688	0.11730
3454.25820	0.11751
3452.32953	0.11769
3450.40085	0.11778
3448.47217	0.11785
3446.54350	0.11800
3444.61482	0.11821
3442.68615	0.11842
3440.75747	0.11867
3438.82880	0.11894
3436.90012	0.11923
3434.97144	0.11958
3433.04277	0.12001
3431.11409	0.12042
3429.18542	0.12078
3427.25674	0.12113
3425.32807	0.12149
3423.39939	0.12183
3421.47071	0.12218
3419.54204	0.12254
3417.61336	0.12290
3415.68469	0.12322
3413.75601	0.12350
3411.82734	0.12379
3409.89866	0.12408
3407.96998	0.12435
3406.04131	0.12455
3404.11263	0.12474
3402.18396	0.12499
3400.25528	0.12526
3398.32661	0.12554
3396.39793	0.12583
3394.46925	0.12611
3392.54058	0.12636
3390.61190	0.12659
3388.68323	0.12683
3386.75455	0.12712
3384.82588	0.12743
3382.89720	0.12769
3380.96852	0.12789
3379.03985	0.12811
3377.11117	0.12833
3375.18250	0.12858
3373.25382	0.12883
3371.32515	0.12907
3369.39647	0.12930
3367.46779	0.12955
3365.53912	0.12980
3363.61044	0.13002
3361.68177	0.13023
3359.75309	0.13044
3357.82442	0.13066
3355.89574	0.13092
3353.96706	0.13119
3352.03839	0.13144
3350.10971	0.13166
3348.18104	0.13187
3346.25236	0.13212
3344.32369	0.13240
3342.39501	0.13268
3340.46633	0.13294
3338.53766	0.13315
3336.60898	0.13338
3334.68031	0.13365
3332.75163	0.13391
3330.82296	0.13411
3328.89428	0.13429
3326.96560	0.13452
3325.03693	0.13477
3323.10825	0.13502
3321.17958	0.13530
3319.25090	0.13557
3317.32223	0.13581
3315.39355	0.13600
3313.46487	0.13620
3311.53620	0.13643
3309.60752	0.13671
3307.67885	0.13699
3305.75017	0.13724
3303.82150	0.13746
3301.89282	0.13773
3299.96414	0.13804
3298.03547	0.13832
3296.10679	0.13853
3294.17812	0.13873
3292.24944	0.13897
3290.32077	0.13924
3288.39209	0.13950
3286.46341	0.13975
3284.53474	0.13997
3282.60606	0.14020
3280.67739	0.14047
3278.74871	0.14074
3276.82004	0.14098
3274.89136	0.14121
3272.96268	0.14145
3271.03401	0.14172
3269.10533	0.14199
3267.17666	0.14226
3265.24798	0.14254
3263.31931	0.14283
3261.39063	0.14313
3259.46195	0.14342
3257.53328	0.14366
3255.60460	0.14387
3253.67593	0.14411
3251.74725	0.14436
3249.81858	0.14459
3247.88990	0.14484
3245.96122	0.14514
3244.03255	0.14543
3242.10387	0.14568
3240.17520	0.14594
3238.24652	0.14618
3236.31785	0.14640
3234.38917	0.14665
3232.46049	0.14693
3230.53182	0.14722
3228.60314	0.14750
3226.67447	0.14777
3224.74579	0.14803
3222.81712	0.14827
3220.88844	0.14850
3218.95976	0.14870
3217.03109	0.14892
3215.10241	0.14919
3213.17374	0.14947
3211.24506	0.14969
3209.31639	0.14993
3207.38771	0.15026
3205.45903	0.15059
3203.53036	0.15088
3201.60168	0.15118
3199.67301	0.15151
3197.74433	0.15180
3195.81566	0.15205
3193.88698	0.15228
3191.95830	0.15255
3190.02963	0.15284
3188.10095	0.15311
3186.17228	0.15337
3184.24360	0.15363
3182.31493	0.15390
3180.38625	0.15416
3178.45757	0.15442
3176.52890	0.15469
3174.60022	0.15497
3172.67155	0.15528
3170.74287	0.15560
3168.81420	0.15592
3166.88552	0.15617
3164.95684	0.15638
3163.02817	0.15663
3161.09949	0.15691
3159.17082	0.15714
3157.24214	0.15737
3155.31347	0.15764
3153.38479	0.15793
3151.45611	0.15821
3149.52744	0.15851
3147.59876	0.15879
3145.67009	0.15903
3143.74141	0.15926
3141.81274	0.15952
3139.88406	0.15980
3137.95538	0.16007
3136.02671	0.16033
3134.09803	0.16058
3132.16936	0.16085
3130.24068	0.16116
3128.31201	0.16148
3126.38333	0.16179
3124.45465	0.16204
3122.52598	0.16228
3120.59730	0.16255
3118.66863	0.16281
3116.73995	0.16304
3114.81128	0.16328
3112.88260	0.16356
3110.95392	0.16384
3109.02525	0.16408
3107.09657	0.16428
3105.16790	0.16455
3103.23922	0.16490
3101.31055	0.16527
3099.38187	0.16556
3097.45319	0.16580
3095.52452	0.16605
3093.59584	0.16633
3091.66717	0.16662
3089.73849	0.16690
3087.80982	0.16713
3085.88114	0.16735
3083.95246	0.16760
3082.02379	0.16788
3080.09511	0.16817
3078.16644	0.16844
3076.23776	0.16869
3074.30909	0.16894
3072.38041	0.16920
3070.45173	0.16949
3068.52306	0.16980
3066.59438	0.17011
3064.66571	0.17037
3062.73703	0.17062
3060.80836	0.17088
3058.87968	0.17114
3056.95100	0.17141
3055.02233	0.17172
3053.09365	0.17203
3051.16498	0.17230
3049.23630	0.17250
3047.30763	0.17272
3045.37895	0.17303
3043.45027	0.17335
3041.52160	0.17360
3039.59292	0.17384
3037.66425	0.17408
3035.73557	0.17432
3033.80690	0.17459
3031.87822	0.17488
3029.94954	0.17515
3028.02087	0.17541
3026.09219	0.17566
3024.16352	0.17591
3022.23484	0.17618
3020.30617	0.17646
3018.37749	0.17674
3016.44881	0.17700
3014.52014	0.17727
3012.59146	0.17753
3010.66279	0.17778
3008.73411	0.17808
3006.80544	0.17839
3004.87676	0.17866
3002.94808	0.17889
3001.01941	0.17910
2999.09073	0.17931
2997.16206	0.17956
2995.23338	0.17986
2993.30471	0.18017
2991.37603	0.18046
2989.44735	0.18071
2987.51868	0.18096
2985.59000	0.18115
2983.66133	0.18127
2981.73265	0.18133
2979.80398	0.18138
2977.87530	0.18147
2975.94662	0.18160
2974.01795	0.18167
2972.08927	0.18167
2970.16060	0.18162
2968.23192	0.18157
2966.30325	0.18158
2964.37457	0.18168
2962.44589	0.18186
2960.51722	0.18208
2958.58854	0.18237
2956.65987	0.18272
2954.73119	0.18309
2952.80252	0.18345
2950.87384	0.18384
2948.94516	0.18422
2947.01649	0.18450
2945.08781	0.18468
2943.15914	0.18478
2941.23046	0.18481
2939.30179	0.18480
2937.37311	0.18478
2935.44443	0.18473
2933.51576	0.18467
2931.58708	0.18461
2929.65841	0.18456
2927.72973	0.18455
2925.80106	0.18457
2923.87238	0.18458
2921.94370	0.18462
2920.01503	0.18476
2918.08635	0.18505
2916.15768	0.18559
2914.22900	0.18641
2912.30033	0.18735
2910.37165	0.18818
2908.44297	0.18888
2906.51430	0.18948
2904.58562	0.18996
2902.65695	0.19037
2900.72827	0.19078
2898.79960	0.19119
2896.87092	0.19160
2894.94224	0.19198
2893.01357	0.19233
2891.08489	0.19267
2889.15622	0.19302
2887.22754	0.19339
2885.29887	0.19373
2883.37019	0.19405
2881.44151	0.19435
2879.51284	0.19462
2877.58416	0.19487
2875.65549	0.19514
2873.72681	0.19539
2871.79814	0.19562
2869.86946	0.19585
2867.94078	0.19607
2866.01211	0.19629
2864.08343	0.19652
2862.15476	0.19673
2860.22608	0.19684
2858.29741	0.19685
2856.36873	0.19679
2854.44005	0.19671
2852.51138	0.19666
2850.58270	0.19680
2848.65403	0.19733
2846.72535	0.19820
2844.79668	0.19919
2842.86800	0.20008
2840.93932	0.20076
2839.01065	0.20127
2837.08197	0.20172
2835.15330	0.20211
2833.22462	0.20243
2831.29595	0.20274
2829.36727	0.20307
2827.43859	0.20342
2825.50992	0.20378
2823.58124	0.20412
2821.65257	0.20440
2819.72389	0.20466
2817.79522	0.20496
2815.86654	0.20528
2813.93786	0.20564
2812.00919	0.20597
2810.08051	0.20626
2808.15184	0.20652
2806.22316	0.20682
2804.29449	0.20715
2802.36581	0.20747
2800.43713	0.20777
2798.50846	0.20808
2796.57978	0.20838
2794.65111	0.20865
2792.72243	0.20891
2790.79376	0.20920
2788.86508	0.20952
2786.93640	0.20984
2785.00773	0.21015
2783.07905	0.21044
2781.15038	0.21073
2779.22170	0.21102
2777.29303	0.21133
2775.36435	0.21167
2773.43567	0.21194
2771.50700	0.21219
2769.57832	0.21249
2767.64965	0.21279
2765.72097	0.21306
2763.79230	0.21331
2761.86362	0.21358
2759.93494	0.21387
2758.00627	0.21416
2756.07759	0.21447
2754.14892	0.21478
2752.22024	0.21504
2750.29157	0.21529
2748.36289	0.21557
2746.43421	0.21583
2744.50554	0.21608
2742.57686	0.21638
2740.64819	0.21668
2738.71951	0.21695
2736.79084	0.21723
2734.86216	0.21750
2732.93348	0.21775
2731.00481	0.21802
2729.07613	0.21831
2727.14746	0.21860
2725.21878	0.21889
2723.29011	0.21918
2721.36143	0.21945
2719.43275	0.21975
2717.50408	0.22009
2715.57540	0.22039
2713.64673	0.22067
2711.71805	0.22095
2709.78938	0.22121
2707.86070	0.22146
2705.93202	0.22176
2704.00335	0.22208
2702.07467	0.22236
2700.14600	0.22261
2698.21732	0.22288
2696.28865	0.22319
2694.35997	0.22345
2692.43129	0.22366
2690.50262	0.22389
2688.57394	0.22416
2686.64527	0.22446
2684.71659	0.22476
2682.78792	0.22505
2680.85924	0.22532
2678.93056	0.22561
2677.00189	0.22593
2675.07321	0.22624
2673.14454	0.22650
2671.21586	0.22675
2669.28719	0.22700
2667.35851	0.22726
2665.42983	0.22752
2663.50116	0.22778
2661.57248	0.22806
2659.64381	0.22837
2657.71513	0.22869
2655.78646	0.22900
2653.85778	0.22927
2651.92910	0.22954
2650.00043	0.22984
2648.07175	0.23017
2646.14308	0.23050
2644.21440	0.23083
2642.28573	0.23115
2640.35705	0.23148
2638.42837	0.23177
2636.49970	0.23202
2634.57102	0.23227
2632.64235	0.23256
2630.71367	0.23287
2628.78500	0.23317
2626.85632	0.23349
2624.92764	0.23382
2622.99897	0.23411
2621.07029	0.23441
2619.14162	0.23474
2617.21294	0.23504
2615.28427	0.23531
2613.35559	0.23561
2611.42691	0.23592
2609.49824	0.23622
2607.56956	0.23650
2605.64089	0.23679
2603.71221	0.23707
2601.78354	0.23736
2599.85486	0.23770
2597.92618	0.23808
2595.99751	0.23845
2594.06883	0.23878
2592.14016	0.23905
2590.21148	0.23928
2588.28281	0.23950
2586.35413	0.23976
2584.42545	0.24007
2582.49678	0.24041
2580.56810	0.24073
2578.63943	0.24103
2576.71075	0.24131
2574.78208	0.24160
2572.85340	0.24191
2570.92472	0.24220
2568.99605	0.24244
2567.06737	0.24268
2565.13870	0.24297
2563.21002	0.24330
2561.28135	0.24362
2559.35267	0.24393
2557.42399	0.24423
2555.49532	0.24449
2553.56664	0.24474
2551.63797	0.24501
2549.70929	0.24530
2547.78062	0.24561
2545.85194	0.24593
2543.92326	0.24623
2541.99459	0.24652
2540.06591	0.24679
2538.13724	0.24705
2536.20856	0.24734
2534.27989	0.24765
2532.35121	0.24797
2530.42253	0.24827
2528.49386	0.24853
2526.56518	0.24878
2524.63651	0.24902
2522.70783	0.24930
2520.77916	0.24964
2518.85048	0.25000
2516.92181	0.25035
2514.99313	0.25071
2513.06445	0.25104
2511.13578	0.25130
2509.20710	0.25158
2507.27843	0.25191
2505.34975	0.25225
2503.42108	0.25259
2501.49240	0.25296
2499.56372	0.25329
2497.63505	0.25358
2495.70637	0.25387
2493.77770	0.25417
2491.84902	0.25453
2489.92035	0.25492
2487.99167	0.25530
2486.06299	0.25565
2484.13432	0.25594
2482.20564	0.25618
2480.27697	0.25645
2478.34829	0.25677
2476.41962	0.25713
2474.49094	0.25746
2472.56226	0.25776
2470.63359	0.25807
2468.70491	0.25838
2466.77624	0.25867
2464.84756	0.25894
2462.91889	0.25925
2460.99021	0.25959
2459.06153	0.25993
2457.13286	0.26023
2455.20418	0.26054
2453.27551	0.26085
2451.34683	0.26116
2449.41816	0.26147
2447.48948	0.26180
2445.56080	0.26211
2443.63213	0.26238
2441.70345	0.26266
2439.77478	0.26298
2437.84610	0.26330
2435.91743	0.26363
2433.98875	0.26399
2432.06007	0.26435
2430.13140	0.26464
2428.20272	0.26487
2426.27405	0.26513
2424.34537	0.26547
2422.41670	0.26586
2420.48802	0.26620
2418.55934	0.26648
2416.63067	0.26675
2414.70199	0.26707
2412.77332	0.26742
2410.84464	0.26774
2408.91597	0.26801
2406.98729	0.26828
2405.05861	0.26855
2403.12994	0.26887
2401.20126	0.26923
2399.27259	0.26956
2397.34391	0.26986
2395.41524	0.27019
2393.48656	0.27050
2391.55788	0.27074
2389.62921	0.27098
2387.70053	0.27129
2385.77186	0.27163
2383.84318	0.27190
2381.91451	0.27210
2379.98583	0.27222
2378.05715	0.27231
2376.12848	0.27239
2374.19980	0.27244
2372.27113	0.27246
2370.34245	0.27255
2368.41378	0.27275
2366.48510	0.27295
2364.55642	0.27310
2362.62775	0.27327
2360.69907	0.27350
2358.77040	0.27382
2356.84172	0.27426
2354.91305	0.27482
2352.98437	0.27544
2351.05569	0.27605
2349.12702	0.27654
2347.19834	0.27676
2345.26967	0.27681
2343.34099	0.27688
2341.41232	0.27707
2339.48364	0.27736
2337.55496	0.27767
2335.62629	0.27796
2333.69761	0.27825
2331.76894	0.27857
2329.84026	0.27895
2327.91159	0.27938
2325.98291	0.27979
2324.05423	0.28018
2322.12556	0.28062
2320.19688	0.28107
2318.26821	0.28150
2316.33953	0.28190
2314.41086	0.28227
2312.48218	0.28268
2310.55350	0.28312
2308.62483	0.28351
2306.69615	0.28387
2304.76748	0.28426
2302.83880	0.28462
2300.91013	0.28495
2298.98145	0.28528
2297.05277	0.28557
2295.12410	0.28585
2293.19542	0.28617
2291.26675	0.28652
2289.33807	0.28689
2287.40940	0.28725
2285.48072	0.28759
2283.55204	0.28793
2281.62337	0.28825
2279.69469	0.28852
2277.76602	0.28879
2275.83734	0.28908
2273.90867	0.28937
2271.97999	0.28967
2270.05131	0.29000
2268.12264	0.29036
2266.19396	0.29071
2264.26529	0.29100
2262.33661	0.29130
2260.40794	0.29164
2258.47926	0.29197
2256.55058	0.29222
2254.62191	0.29248
2252.69323	0.29280
2250.76456	0.29312
2248.83588	0.29342
2246.90721	0.29371
2244.97853	0.29400
2243.04985	0.29430
2241.12118	0.29463
2239.19250	0.29498
2237.26383	0.29534
2235.33515	0.29568
2233.40648	0.29600
2231.47780	0.29627
2229.54912	0.29653
2227.62045	0.29682
2225.69177	0.29712
2223.76310	0.29741
2221.83442	0.29770
2219.90575	0.29800
2217.97707	0.29834
2216.04839	0.29866
2214.11972	0.29897
2212.19104	0.29927
2210.26237	0.29955
2208.33369	0.29982
2206.40502	0.30011
2204.47634	0.30043
2202.54766	0.30079
2200.61899	0.30115
2198.69031	0.30149
2196.76164	0.30182
2194.83296	0.30213
2192.90429	0.30239
2190.97561	0.30261
2189.04693	0.30282
2187.11826	0.30308
2185.18958	0.30337
2183.26091	0.30366
2181.33223	0.30396
2179.40356	0.30427
2177.47488	0.30459
2175.54620	0.30493
2173.61753	0.30530
2171.68885	0.30568
2169.76018	0.30601
2167.83150	0.30628
2165.90283	0.30654
2163.97415	0.30681
2162.04547	0.30710
2160.11680	0.30744
2158.18812	0.30782
2156.25945	0.30820
2154.33077	0.30849
2152.40210	0.30872
2150.47342	0.30901
2148.54474	0.30938
2146.61607	0.30975
2144.68739	0.31015
2142.75872	0.31056
2140.83004	0.31085
2138.90137	0.31108
2136.97269	0.31136
2135.04401	0.31166
2133.11534	0.31198
2131.18666	0.31233
2129.25799	0.31270
2127.32931	0.31301
2125.40064	0.31328
2123.47196	0.31355
2121.54328	0.31384
2119.61461	0.31416
2117.68593	0.31448
2115.75726	0.31480
2113.82858	0.31510
2111.89991	0.31542
2109.97123	0.31575
2108.04255	0.31606
2106.11388	0.31639
2104.18520	0.31676
2102.25653	0.31711
2100.32785	0.31739
2098.39918	0.31767
2096.47050	0.31795
2094.54182	0.31820
2092.61315	0.31848
2090.68447	0.31883
2088.75580	0.31918
2086.82712	0.31950
2084.89845	0.31982
2082.96977	0.32012
2081.04109	0.32041
2079.11242	0.32071
2077.18374	0.32104
2075.25507	0.32136
2073.32639	0.32165
2071.39772	0.32191
2069.46904	0.32219
2067.54036	0.32251
2065.61169	0.32281
2063.68301	0.32311
2061.75434	0.32347
2059.82566	0.32385
2057.89699	0.32422
2055.96831	0.32456
2054.03963	0.32483
2052.11096	0.32508
2050.18228	0.32539
2048.25361	0.32573
2046.32493	0.32602
2044.39626	0.32630
2042.46758	0.32662
2040.53890	0.32697
2038.61023	0.32733
2036.68155	0.32772
2034.75288	0.32808
2032.82420	0.32839
2030.89553	0.32869
2028.96685	0.32903
2027.03817	0.32938
2025.10950	0.32969
2023.18082	0.32998
2021.25215	0.33028
2019.32347	0.33056
2017.39480	0.33085
2015.46612	0.33117
2013.53744	0.33151
2011.60877	0.33180
2009.68009	0.33209
2007.75142	0.33239
2005.82274	0.33271
2003.89407	0.33301
2001.96539	0.33328
2000.03671	0.33356
1998.10804	0.33385
1996.17936	0.33415
1994.25069	0.33435
1992.32201	0.33450
1990.39334	0.33475
1988.46466	0.33512
1986.53598	0.33553
1984.60731	0.33590
1982.67863	0.33621
1980.74996	0.33648
1978.82128	0.33674
1976.89261	0.33703
1974.96393	0.33734
1973.03525	0.33762
1971.10658	0.33785
1969.17790	0.33801
1967.24923	0.33822
1965.32055	0.33856
1963.39188	0.33893
1961.46320	0.33927
1959.53452	0.33958
1957.60585	0.33990
1955.67717	0.34017
1953.74850	0.34041
1951.81982	0.34069
1949.89115	0.34102
1947.96247	0.34136
1946.03379	0.34160
1944.10512	0.34174
1942.17644	0.34198
1940.24777	0.34242
1938.31909	0.34288
1936.39042	0.34326
1934.46174	0.34359
1932.53306	0.34387
1930.60439	0.34411
1928.67571	0.34440
1926.74704	0.34470
1924.81836	0.34491
1922.88969	0.34510
1920.96101	0.34533
1919.03233	0.34550
1917.10366	0.34589
1915.17498	0.34650
1913.24631	0.34694
1911.31763	0.34713
1909.38896	0.34730
1907.46028	0.34764
1905.53160	0.34807
1903.60293	0.34845
1901.67425	0.34880
1899.74558	0.34913
1897.81690	0.34939
1895.88823	0.34960
1893.95955	0.34981
1892.03087	0.34996
1890.10220	0.35009
1888.17352	0.35047
1886.24485	0.35100
1884.31617	0.35142
1882.38750	0.35170
1880.45882	0.35193
1878.53014	0.35220
1876.60147	0.35257
1874.67279	0.35296
1872.74412	0.35311
1870.81544	0.35293
1868.88677	0.35286
1866.95809	0.35336
1865.02941	0.35415
1863.10074	0.35478
1861.17206	0.35517
1859.24339	0.35548
1857.31471	0.35582
1855.38604	0.35617
1853.45736	0.35650
1851.52868	0.35675
1849.60001	0.35687
1847.67133	0.35677
1845.74266	0.35657
1843.81398	0.35683
1841.88531	0.35776
1839.95663	0.35862
1838.02795	0.35900
1836.09928	0.35921
1834.17060	0.35938
1832.24193	0.35937
1830.31325	0.35938
1828.38458	0.35969
1826.45590	0.36009
1824.52722	0.36052
1822.59855	0.36111
1820.66987	0.36159
1818.74120	0.36187
1816.81252	0.36221
1814.88385	0.36254
1812.95517	0.36266
1811.02649	0.36277
1809.09782	0.36314
1807.16914	0.36357
1805.24047	0.36375
1803.31179	0.36365
1801.38312	0.36359
1799.45444	0.36392
1797.52576	0.36440
1795.59709	0.36454
1793.66841	0.36438
1791.73974	0.36452
1789.81106	0.36520
1787.88239	0.36578
1785.95371	0.36592
1784.02503	0.36606
1782.09636	0.36635
1780.16768	0.36666
1778.23901	0.36698
1776.31033	0.36704
1774.38166	0.36673
1772.45298	0.36653
1770.52430	0.36681
1768.59563	0.36736
1766.66695	0.36803
1764.73828	0.36853
1762.80960	0.36860
1760.88093	0.36871
1758.95225	0.36893
1757.02357	0.36901
1755.09490	0.36900
1753.16622	0.36861
1751.23755	0.36801
1749.30887	0.36795
1747.38020	0.36839
1745.45152	0.36877
1743.52284	0.36892
1741.59417	0.36898
1739.66549	0.36915
1737.73682	0.36915
1735.80814	0.36855
1733.87947	0.36822
1731.95079	0.36899
1730.02211	0.37012
1728.09344	0.37095
1726.16476	0.37150
1724.23609	0.37183
1722.30741	0.37196
1720.37874	0.37153
1718.45006	0.37084
1716.52138	0.37084
1714.59271	0.37164
1712.66403	0.37267
1710.73536	0.37339
1708.80668	0.37348
1706.87801	0.37317
1704.94933	0.37289
1703.02065	0.37232
1701.09198	0.37151
1699.16330	0.37146
1697.23463	0.37197
1695.30595	0.37263
1693.37728	0.37355
1691.44860	0.37407
1689.51992	0.37400
1687.59125	0.37358
1685.66257	0.37281
1683.73390	0.37255
1681.80522	0.37332
1679.87655	0.37417
1677.94787	0.37427
1676.01919	0.37397
1674.09052	0.37398
1672.16184	0.37398
1670.23317	0.37379
1668.30449	0.37414
1666.37582	0.37490
1664.44714	0.37519
1662.51846	0.37529
1660.58979	0.37572
1658.66111	0.37602
1656.73244	0.37533
1654.80376	0.37377
1652.87509	0.37314
1650.94641	0.37407
1649.01773	0.37467
1647.08906	0.37459
1645.16038	0.37520
1643.23171	0.37620
1641.30303	0.37657
1639.37436	0.37621
1637.44568	0.37551
1635.51700	0.37534
1633.58833	0.37621
1631.65965	0.37718
1629.73098	0.37734
1627.80230	0.37705
1625.87363	0.37660
1623.94495	0.37593
1622.01627	0.37544
1620.08760	0.37533
1618.15892	0.37556
1616.23025	0.37653
1614.30157	0.37806
1612.37290	0.37919
1610.44422	0.37976
1608.51554	0.38027
1606.58687	0.38094
1604.65819	0.38156
1602.72952	0.38201
1600.80084	0.38239
1598.87217	0.38267
1596.94349	0.38286
1595.01481	0.38314
1593.08614	0.38358
1591.15746	0.38399
1589.22879	0.38436
1587.30011	0.38475
1585.37144	0.38508
1583.44276	0.38536
1581.51408	0.38560
1579.58541	0.38557
1577.65673	0.38521
1575.72806	0.38528
1573.79938	0.38600
1571.87071	0.38637
1569.94203	0.38628
1568.01335	0.38652
1566.08468	0.38704
1564.15600	0.38732
1562.22733	0.38682
1560.29865	0.38558
1558.36998	0.38521
1556.44130	0.38643
1554.51262	0.38789
1552.58395	0.38867
1550.65527	0.38902
1548.72660	0.38931
1546.79792	0.38929
1544.86925	0.38868
1542.94057	0.38791
1541.01189	0.38761
1539.08322	0.38834
1537.15454	0.38960
1535.22587	0.39014
1533.29719	0.39020
1531.36852	0.39061
1529.43984	0.39093
1527.51116	0.39079
1525.58249	0.39056
1523.65381	0.39012
1521.72514	0.38964
1519.79646	0.38986
1517.86779	0.39054
1515.93911	0.39124
1514.01043	0.39183
1512.08176	0.39195
1510.15308	0.39140
1508.22441	0.39070
1506.29573	0.39101
1504.36706	0.39251
1502.43838	0.39372
1500.50970	0.39379
1498.58103	0.39343
1496.65235	0.39355
1494.72368	0.39411
1492.79500	0.39419
1490.86633	0.39363
1488.93765	0.39344
1487.00897	0.39400
1485.08030	0.39473
1483.15162	0.39512
1481.22295	0.39515
1479.29427	0.39491
1477.36560	0.39429
1475.43692	0.39341
1473.50824	0.39274
1471.57957	0.39273
1469.65089	0.39320
1467.72222	0.39333
1465.79354	0.39313
1463.86487	0.39324
1461.93619	0.39341
1460.00751	0.39272
1458.07884	0.39163
1456.15016	0.39174
1454.22149	0.39307
1452.29281	0.39417
1450.36414	0.39447
1448.43546	0.39450
1446.50678	0.39478
1444.57811	0.39524
1442.64943	0.39554
1440.72076	0.39541
1438.79208	0.39466
1436.86341	0.39406
1434.93473	0.39451
1433.00605	0.39527
1431.07738	0.39547
1429.14870	0.39553
1427.22003	0.39559
1425.29135	0.39546
1423.36268	0.39519
1421.43400	0.39458
1419.50532	0.39386
1417.57665	0.39400
1415.64797	0.39482
1413.71930	0.39532
1411.79062	0.39537
1409.86195	0.39534
1407.93327	0.39526
1406.00459	0.39504
1404.07592	0.39488
1402.14724	0.39473
1400.21857	0.39441
1398.28989	0.39408
1396.36122	0.39384
1394.43254	0.39388
1392.50386	0.39421
1390.57519	0.39411
1388.64651	0.39337
1386.71784	0.39276
1384.78916	0.39273
1382.86049	0.39296
1380.93181	0.39311
1379.00313	0.39306
1377.07446	0.39283
1375.14578	0.39261
1373.21711	0.39267
1371.28843	0.39291
1369.35976	0.39301
1367.43108	0.39293
1365.50240	0.39263
1363.57373	0.39217
1361.64505	0.39204
1359.71638	0.39234
1357.78770	0.39265
1355.85903	0.39281
1353.93035	0.39293
1352.00167	0.39304
1350.07300	0.39315
1348.14432	0.39331
1346.21565	0.39346
1344.28697	0.39350
1342.35830	0.39336
1340.42962	0.39313
1338.50094	0.39304
1336.57227	0.39314
1334.64359	0.39325
1332.71492	0.39327
1330.78624	0.39323
1328.85757	0.39319
1326.92889	0.39314
1325.00021	0.39300
1323.07154	0.39282
1321.14286	0.39265
1319.21419	0.39250
1317.28551	0.39236
1315.35684	0.39225
1313.42816	0.39214
1311.49948	0.39199
1309.57081	0.39177
1307.64213	0.39147
1305.71346	0.39105
1303.78478	0.39057
1301.85611	0.39017
1299.92743	0.38984
1297.99875	0.38949
1296.07008	0.38908
1294.14140	0.38868
1292.21273	0.38829
1290.28405	0.38785
1288.35538	0.38734
1286.42670	0.38682
1284.49802	0.38631
1282.56935	0.38578
1280.64067	0.38516
1278.71200	0.38436
1276.78332	0.38340
1274.85465	0.38235
1272.92597	0.38119
1270.99729	0.37979
1269.06862	0.37806
1267.13994	0.37614
1265.21127	0.37435
1263.28259	0.37302
1261.35392	0.37234
1259.42524	0.37230
1257.49656	0.37262
1255.56789	0.37288
1253.63921	0.37285
1251.71054	0.37251
1249.78186	0.37199
1247.85319	0.37128
1245.92451	0.37045
1243.99583	0.36963
1242.06716	0.36880
1240.13848	0.36790
1238.20981	0.36695
1236.28113	0.36594
1234.35246	0.36482
1232.42378	0.36363
1230.49510	0.36248
1228.56643	0.36139
1226.63775	0.36033
1224.70908	0.35931
1222.78040	0.35836
1220.85173	0.35740
1218.92305	0.35638
1216.99437	0.35534
1215.06570	0.35434
1213.13702	0.35344
1211.20835	0.35257
1209.27967	0.35162
1207.35100	0.35065
1205.42232	0.34967
1203.49364	0.34868
1201.56497	0.34778
1199.63629	0.34699
1197.70762	0.34616
1195.77894	0.34519
1193.85027	0.34410
1191.92159	0.34300
1189.99291	0.34190
1188.06424	0.34076
1186.13556	0.33948
1184.20689	0.33807
1182.27821	0.33672
1180.34954	0.33543
1178.42086	0.33408
1176.49218	0.33261
1174.56351	0.33109
1172.63483	0.32956
1170.70616	0.32802
1168.77748	0.32651
1166.84881	0.32504
1164.92013	0.32355
1162.99145	0.32203
1161.06278	0.32056
1159.13410	0.31919
1157.20543	0.31787
1155.27675	0.31664
1153.34808	0.31550
1151.41940	0.31432
1149.49072	0.31303
1147.56205	0.31182
1145.63337	0.31070
1143.70470	0.30954
1141.77602	0.30829
1139.84735	0.30704
1137.91867	0.30581
1135.98999	0.30459
1134.06132	0.30331
1132.13264	0.30196
1130.20397	0.30064
1128.27529	0.29936
1126.34662	0.29800
1124.41794	0.29652
1122.48926	0.29492
1120.56059	0.29326
1118.63191	0.29156
1116.70324	0.28982
1114.77456	0.28807
1112.84589	0.28645
1110.91721	0.28500
1108.98853	0.28366
1107.05986	0.28229
1105.13118	0.28080
1103.20251	0.27922
1101.27383	0.27765
1099.34516	0.27616
1097.41648	0.27481
1095.48780	0.27359
1093.55913	0.27241
1091.63045	0.27125
1089.70178	0.27010
1087.77310	0.26891
1085.84443	0.26772
1083.91575	0.26660
1081.98707	0.26560
1080.05840	0.26466
1078.12972	0.26372
1076.20105	0.26287
1074.27237	0.26223
1072.34370	0.26167
1070.41502	0.26112
1068.48634	0.26075
1066.55767	0.26072
1064.62899	0.26086
1062.70032	0.26096
1060.77164	0.26103
1058.84297	0.26121
1056.91429	0.26155
1054.98561	0.26190
1053.05694	0.26218
1051.12826	0.26256
1049.19959	0.26319
1047.27091	0.26393
1045.34224	0.26462
1043.41356	0.26532
1041.48488	0.26606
1039.55621	0.26682
1037.62753	0.26761
1035.69886	0.26844
1033.77018	0.26927
1031.84151	0.27012
1029.91283	0.27101
1027.98415	0.27192
1026.05548	0.27276
1024.12680	0.27355
1022.19813	0.27443
1020.26945	0.27545
1018.34078	0.27652
1016.41210	0.27763
1014.48342	0.27885
1012.55475	0.28023
1010.62607	0.28173
1008.69740	0.28325
1006.76872	0.28471
1004.84005	0.28606
1002.91137	0.28735
1000.98269	0.28855
999.05402	0.28956
997.12534	0.29037
995.19667	0.29111
993.26799	0.29187
991.33932	0.29260
989.41064	0.29327
987.48196	0.29393
985.55329	0.29458
983.62461	0.29518
981.69594	0.29566
979.76726	0.29595
977.83859	0.29609
975.90991	0.29617
973.98123	0.29622
972.05256	0.29626
970.12388	0.29625
968.19521	0.29612
966.26653	0.29588
964.33786	0.29557
962.40918	0.29523
960.48050	0.29496
958.55183	0.29478
956.62315	0.29453
954.69448	0.29412
952.76580	0.29364
950.83713	0.29312
948.90845	0.29254
946.97977	0.29198
945.05110	0.29144
943.12242	0.29084
941.19375	0.29017
939.26507	0.28946
937.33640	0.28876
935.40772	0.28810
933.47904	0.28741
931.55037	0.28668
929.62169	0.28598
927.69302	0.28526
925.76434	0.28453
923.83567	0.28385
921.90699	0.28319
919.97831	0.28247
918.04964	0.28163
916.12096	0.28066
914.19229	0.27966
912.26361	0.27883
910.33494	0.27821
908.40626	0.27754
906.47758	0.27671
904.54891	0.27583
902.62023	0.27490
900.69156	0.27391
898.76288	0.27296
896.83421	0.27199
894.90553	0.27101
892.97685	0.27010
891.04818	0.26922
889.11950	0.26826
887.19083	0.26727
885.26215	0.26640
883.33348	0.26559
881.40480	0.26468
879.47612	0.26369
877.54745	0.26280
875.61877	0.26205
873.69010	0.26132
871.76142	0.26059
869.83275	0.25982
867.90407	0.25900
865.97539	0.25817
864.04672	0.25730
862.11804	0.25636
860.18937	0.25551
858.26069	0.25474
856.33202	0.25384
854.40334	0.25281
852.47466	0.25182
850.54599	0.25092
848.61731	0.25005
846.68864	0.24917
844.75996	0.24828
842.83129	0.24735
840.90261	0.24641
838.97394	0.24546
837.04526	0.24451
835.11658	0.24365
833.18791	0.24285
831.25923	0.24184
829.33056	0.24058
827.40188	0.23930
825.47321	0.23811
823.54453	0.23695
821.61585	0.23585
819.68718	0.23486
817.75850	0.23391
815.82983	0.23289
813.90115	0.23186
811.97248	0.23087
810.04380	0.22983
808.11512	0.22881
806.18645	0.22797
804.25777	0.22719
802.32910	0.22640
800.40042	0.22568
798.47175	0.22509
796.54307	0.22468
794.61439	0.22440
792.68572	0.22411
790.75704	0.22384
788.82837	0.22368
786.89969	0.22348
784.97102	0.22308
783.04234	0.22249
781.11366	0.22191
779.18499	0.22146
777.25631	0.22115
775.32764	0.22087
773.39896	0.22037
771.47029	0.21965
769.54161	0.21901
767.61293	0.21848
765.68426	0.21785
763.75558	0.21712
761.82691	0.21634
759.89823	0.21551
757.96956	0.21467
756.04088	0.21373
754.11220	0.21277
752.18353	0.21192
750.25485	0.21104
748.32618	0.21001
746.39750	0.20901
744.46883	0.20811
742.54015	0.20725
740.61147	0.20651
738.68280	0.20586
736.75412	0.20516
734.82545	0.20436
732.89677	0.20357
730.96810	0.20285
729.03942	0.20219
727.11074	0.20148
725.18207	0.20071
723.25339	0.19990
721.32472	0.19914
719.39604	0.19845
717.46737	0.19773
715.53869	0.19684
713.61001	0.19583
711.68134	0.19493
709.75266	0.19419
707.82399	0.19342
705.89531	0.19251
703.96664	0.19165
702.03796	0.19090
700.10928	0.19010
698.18061	0.18919
696.25193	0.18826
694.32326	0.18736
692.39458	0.18656
690.46591	0.18588
688.53723	0.18517
686.60855	0.18428
684.67988	0.18323
682.75120	0.18207
680.82253	0.18085
678.89385	0.17962
676.96518	0.17843
675.03650	0.17718
673.10782	0.17580
671.17915	0.17422
669.25047	0.17248
667.32180	0.17093
665.39312	0.16970
663.46445	0.16840
661.53577	0.16681
659.60709	0.16514
657.67842	0.16355
655.74974	0.16207
653.82107	0.16067
651.89239	0.15929
649.96372	0.15780
648.03504	0.15618
646.10636	0.15455
644.17769	0.15292
642.24901	0.15116
640.32034	0.14929
638.39166	0.14742
636.46299	0.14548
634.53431	0.14349
632.60563	0.14163
630.67696	0.13988
628.74828	0.13804
626.81961	0.13618
624.89093	0.13438
622.96226	0.13263
621.03358	0.13099
619.10490	0.12939
617.17623	0.12771
615.24755	0.12586
613.31888	0.12386
611.39020	0.12197
609.46153	0.12022
607.53285	0.11844
605.60417	0.11669
603.67550	0.11511
601.74682	0.11357
599.81815	0.11196
597.88947	0.11052
595.96080	0.10935
594.03212	0.10830
592.10344	0.10717
590.17477	0.10600
588.24609	0.10482
586.31742	0.10367
584.38874	0.10258
582.46007	0.10147
580.53139	0.10030
578.60271	0.09918
576.67404	0.09813
574.74536	0.09710
572.81669	0.09612
570.88801	0.09518
568.95934	0.09423
567.03066	0.09332
565.10198	0.09245
563.17331	0.09162
561.24463	0.09087
559.31596	0.09009
557.38728	0.08928
555.45861	0.08852
553.52993	0.08778
551.60125	0.08711
549.67258	0.08660
547.74390	0.08617
545.81523	0.08566
543.88655	0.08505
541.95788	0.08444
540.02920	0.08390
538.10052	0.08343
536.17185	0.08293
534.24317	0.08240
532.31450	0.08185
530.38582	0.08118
528.45715	0.08045
526.52847	0.07979
524.59979	0.07913
522.67112	0.07837
520.74244	0.07756
518.81377	0.07682
516.88509	0.07607
514.95642	0.07521
513.02774	0.07425
511.09906	0.07327
509.17039	0.07230
507.24171	0.07142
505.31304	0.07063
503.38436	0.06973
501.45569	0.06858
499.52701	0.06738
497.59833	0.06629
495.66966	0.06513
493.74098	0.06387
491.81231	0.06260
489.88363	0.06133
487.95496	0.06006
486.02628	0.05879
484.09760	0.05746
482.16893	0.05615
480.24025	0.05484
478.31158	0.05353
476.38290	0.05229
474.45423	0.05113
472.52555	0.05002
470.59687	0.04899
468.66820	0.04815
466.73952	0.04751
464.81085	0.04690
462.88217	0.04627
460.95350	0.04580
459.02482	0.04550
457.09614	0.04534
455.16747	0.04530
453.23879	0.04530
451.31012	0.04522
449.38144	0.04510
447.45277	0.04497
445.52409	0.04469
443.59541	0.04425
441.66674	0.04380
439.73806	0.04329
437.80939	0.04245
435.88071	0.04132
433.95204	0.04012
432.02336	0.03895
430.09468	0.03779
428.16601	0.03662
426.23733	0.03545
424.30866	0.03419
422.37998	0.03276
420.45131	0.03122
418.52263	0.02974
416.59395	0.02839
414.66528	0.02726
412.73660	0.02632
410.80793	0.02534
408.87925	0.02423
406.95058	0.02301
405.02190	0.02168
403.09322	0.02034
401.16455	0.01909
399.23587	0.01797
397.30720	0.01687
395.37852	0.01566
393.44985	0.01447
391.52117	0.01353
389.59249	0.01284
387.66382	0.01222
385.73514	0.01142
383.80647	0.01056
381.87779	0.00990
379.94912	0.00930
378.02044	0.00840
376.09176	0.00737
374.16309	0.00664
372.23441	0.00615
370.30574	0.00561
368.37706	0.00506
