7496.76250	0.00121
7494.83382	0.00121
7492.90514	0.00121
7490.97647	0.00121
7489.04779	0.00120
7487.11912	0.00119
7485.19044	0.00120
7483.26177	0.00121
7481.33309	0.00124
7479.40441	0.00125
7477.47574	0.00125
7475.54706	0.00124
7473.61839	0.00123
7471.68971	0.00123
7469.76104	0.00124
7467.83236	0.00126
7465.90368	0.00126
7463.97501	0.00125
7462.04633	0.00126
7460.11766	0.00128
7458.18898	0.00130
7456.26031	0.00129
7454.33163	0.00126
7452.40295	0.00124
7450.47428	0.00124
7448.54560	0.00126
7446.61693	0.00128
7444.68825	0.00128
7442.75958	0.00129
7440.83090	0.00130
7438.90222	0.00131
7436.97355	0.00132
7435.04487	0.00132
7433.11620	0.00131
7431.18752	0.00132
7429.25885	0.00133
7427.33017	0.00133
7425.40149	0.00132
7423.47282	0.00132
7421.54414	0.00132
7419.61547	0.00133
7417.68679	0.00135
7415.75812	0.00136
7413.82944	0.00136
7411.90076	0.00136
7409.97209	0.00135
7408.04341	0.00135
7406.11474	0.00135
7404.18606	0.00136
7402.25739	0.00137
7400.32871	0.00138
7398.40003	0.00139
7396.47136	0.00138
7394.54268	0.00137
7392.61401	0.00138
7390.68533	0.00139
7388.75666	0.00140
7386.82798	0.00140
7384.89930	0.00140
7382.97063	0.00140
7381.04195	0.00140
7379.11328	0.00140
7377.18460	0.00140
7375.25593	0.00140
7373.32725	0.00141
7371.39857	0.00141
7369.46990	0.00142
7367.54122	0.00142
7365.61255	0.00142
7363.68387	0.00143
7361.75520	0.00145
7359.82652	0.00146
7357.89784	0.00145
7355.96917	0.00145
7354.04049	0.00145
7352.11182	0.00145
7350.18314	0.00145
7348.25447	0.00146
7346.32579	0.00148
7344.39711	0.00149
7342.46844	0.00149
7340.53976	0.00149
7338.61109	0.00148
7336.68241	0.00149
7334.75374	0.00151
7332.82506	0.00150
7330.89638	0.00149
7328.96771	0.00148
7327.03903	0.00149
7325.11036	0.00149
7323.18168	0.00151
7321.25301	0.00152
7319.32433	0.00153
7317.39565	0.00154
7315.46698	0.00154
7313.53830	0.00154
7311.60963	0.00154
7309.68095	0.00154
7307.75228	0.00155
7305.82360	0.00155
7303.89492	0.00154
7301.96625	0.00154
7300.03757	0.00156
7298.10890	0.00157
7296.18022	0.00158
7294.25155	0.00157
7292.32287	0.00158
7290.39419	0.00157
7288.46552	0.00156
7286.53684	0.00157
7284.60817	0.00158
7282.67949	0.00159
7280.75082	0.00161
7278.82214	0.00163
7276.89346	0.00164
7274.96479	0.00162
7273.03611	0.00160
7271.10744	0.00160
7269.17876	0.00161
7267.25009	0.00163
7265.32141	0.00165
7263.39273	0.00166
7261.46406	0.00165
7259.53538	0.00164
7257.60671	0.00165
7255.67803	0.00165
7253.74936	0.00166
7251.82068	0.00167
7249.89200	0.00167
7247.96333	0.00167
7246.03465	0.00167
7244.10598	0.00169
7242.17730	0.00170
7240.24863	0.00169
7238.31995	0.00169
7236.39127	0.00169
7234.46260	0.00168
7232.53392	0.00167
7230.60525	0.00168
7228.67657	0.00170
7226.74790	0.00171
7224.81922	0.00171
7222.89054	0.00172
7220.96187	0.00174
7219.03319	0.00175
7217.10452	0.00175
7215.17584	0.00175
7213.24717	0.00174
7211.31849	0.00173
7209.38981	0.00173
7207.46114	0.00174
7205.53246	0.00175
7203.60379	0.00175
7201.67511	0.00175
7199.74644	0.00175
7197.81776	0.00176
7195.88908	0.00176
7193.96041	0.00175
7192.03173	0.00176
7190.10306	0.00178
7188.17438	0.00180
7186.24571	0.00180
7184.31703	0.00181
7182.38835	0.00180
7180.45968	0.00181
7178.53100	0.00182
7176.60233	0.00183
7174.67365	0.00183
7172.74498	0.00183
7170.81630	0.00183
7168.88762	0.00184
7166.95895	0.00185
7165.03027	0.00186
7163.10160	0.00186
7161.17292	0.00187
7159.24425	0.00187
7157.31557	0.00187
7155.38689	0.00187
7153.45822	0.00188
7151.52954	0.00189
7149.60087	0.00191
7147.67219	0.00191
7145.74352	0.00192
7143.81484	0.00192
7141.88616	0.00191
7139.95749	0.00190
7138.02881	0.00190
7136.10014	0.00191
7134.17146	0.00193
7132.24279	0.00193
7130.31411	0.00193
7128.38543	0.00193
7126.45676	0.00193
7124.52808	0.00192
7122.59941	0.00191
7120.67073	0.00191
7118.74206	0.00194
7116.81338	0.00198
7114.88470	0.00199
7112.95603	0.00199
7111.02735	0.00199
7109.09868	0.00198
7107.17000	0.00197
7105.24133	0.00197
7103.31265	0.00197
7101.38397	0.00197
7099.45530	0.00200
7097.52662	0.00202
7095.59795	0.00203
7093.66927	0.00203
7091.74060	0.00204
7089.81192	0.00204
7087.88324	0.00203
7085.95457	0.00202
7084.02589	0.00201
7082.09722	0.00200
7080.16854	0.00200
7078.23987	0.00202
7076.31119	0.00205
7074.38251	0.00206
7072.45384	0.00207
7070.52516	0.00207
7068.59649	0.00205
7066.66781	0.00203
7064.73914	0.00203
7062.81046	0.00205
7060.88178	0.00207
7058.95311	0.00209
7057.02443	0.00210
7055.09576	0.00210
7053.16708	0.00210
7051.23841	0.00210
7049.30973	0.00210
7047.38105	0.00210
7045.45238	0.00210
7043.52370	0.00212
7041.59503	0.00213
7039.66635	0.00214
7037.73768	0.00215
7035.80900	0.00214
7033.88032	0.00214
7031.95165	0.00215
7030.02297	0.00216
7028.09430	0.00217
7026.16562	0.00218
7024.23695	0.00219
7022.30827	0.00219
7020.37959	0.00219
7018.45092	0.00218
7016.52224	0.00218
7014.59357	0.00220
7012.66489	0.00222
7010.73622	0.00223
7008.80754	0.00223
7006.87886	0.00222
7004.95019	0.00222
7003.02151	0.00223
7001.09284	0.00224
6999.16416	0.00225
6997.23549	0.00225
6995.30681	0.00225
6993.37813	0.00225
6991.44946	0.00226
6989.52078	0.00227
6987.59211	0.00227
6985.66343	0.00229
6983.73476	0.00231
6981.80608	0.00232
6979.87740	0.00232
6977.94873	0.00230
6976.02005	0.00229
6974.09138	0.00228
6972.16270	0.00229
6970.23403	0.00231
6968.30535	0.00233
6966.37667	0.00233
6964.44800	0.00231
6962.51932	0.00231
6960.59065	0.00232
6958.66197	0.00232
6956.73330	0.00233
6954.80462	0.00233
6952.87594	0.00233
6950.94727	0.00233
6949.01859	0.00235
6947.08992	0.00237
6945.16124	0.00238
6943.23257	0.00239
6941.30389	0.00240
6939.37521	0.00240
6937.44654	0.00240
6935.51786	0.00240
6933.58919	0.00240
6931.66051	0.00240
6929.73184	0.00240
6927.80316	0.00241
6925.87448	0.00242
6923.94581	0.00242
6922.01713	0.00243
6920.08846	0.00245
6918.15978	0.00246
6916.23111	0.00246
6914.30243	0.00246
6912.37375	0.00248
6910.44508	0.00250
6908.51640	0.00250
6906.58773	0.00249
6904.65905	0.00248
6902.73038	0.00249
6900.80170	0.00249
6898.87302	0.00250
6896.94435	0.00251
6895.01567	0.00252
6893.08700	0.00252
6891.15832	0.00253
6889.22965	0.00254
6887.30097	0.00255
6885.37229	0.00255
6883.44362	0.00256
6881.51494	0.00257
6879.58627	0.00258
6877.65759	0.00258
6875.72892	0.00258
6873.80024	0.00258
6871.87156	0.00259
6869.94289	0.00261
6868.01421	0.00262
6866.08554	0.00262
6864.15686	0.00262
6862.22819	0.00263
6860.29951	0.00265
6858.37083	0.00265
6856.44216	0.00264
6854.51348	0.00262
6852.58481	0.00261
6850.65613	0.00261
6848.72746	0.00264
6846.79878	0.00267
6844.87010	0.00269
6842.94143	0.00269
6841.01275	0.00269
6839.08408	0.00269
6837.15540	0.00269
6835.22673	0.00269
6833.29805	0.00270
6831.36937	0.00270
6829.44070	0.00271
6827.51202	0.00272
6825.58335	0.00272
6823.65467	0.00272
6821.72600	0.00272
6819.79732	0.00273
6817.86864	0.00274
6815.93997	0.00276
6814.01129	0.00278
6812.08262	0.00278
6810.15394	0.00277
6808.22527	0.00277
6806.29659	0.00277
6804.36791	0.00279
6802.43924	0.00281
6800.51056	0.00282
6798.58189	0.00281
6796.65321	0.00282
6794.72454	0.00284
6792.79586	0.00284
6790.86718	0.00284
6788.93851	0.00285
6787.00983	0.00286
6785.08116	0.00286
6783.15248	0.00287
6781.22381	0.00288
6779.29513	0.00288
6777.36645	0.00288
6775.43778	0.00289
6773.50910	0.00291
6771.58043	0.00291
6769.65175	0.00290
6767.72308	0.00291
6765.79440	0.00292
6763.86572	0.00292
6761.93705	0.00292
6760.00837	0.00293
6758.07970	0.00295
6756.15102	0.00295
6754.22235	0.00295
6752.29367	0.00295
6750.36499	0.00295
6748.43632	0.00297
6746.50764	0.00299
6744.57897	0.00300
6742.65029	0.00300
6740.72162	0.00301
6738.79294	0.00301
6736.86426	0.00300
6734.93559	0.00302
6733.00691	0.00304
6731.07824	0.00305
6729.14956	0.00305
6727.22089	0.00306
6725.29221	0.00307
6723.36353	0.00306
6721.43486	0.00306
6719.50618	0.00307
6717.57751	0.00309
6715.64883	0.00310
6713.72016	0.00311
6711.79148	0.00311
6709.86280	0.00311
6707.93413	0.00310
6706.00545	0.00311
6704.07678	0.00313
6702.14810	0.00315
6700.21943	0.00315
6698.29075	0.00314
6696.36207	0.00314
6694.43340	0.00314
6692.50472	0.00314
6690.57605	0.00315
6688.64737	0.00317
6686.71870	0.00318
6684.79002	0.00319
6682.86134	0.00320
6680.93267	0.00322
6679.00399	0.00323
6677.07532	0.00323
6675.14664	0.00323
6673.21797	0.00323
6671.28929	0.00325
6669.36061	0.00326
6667.43194	0.00327
6665.50326	0.00328
6663.57459	0.00329
6661.64591	0.00329
6659.71724	0.00329
6657.78856	0.00330
6655.85988	0.00331
6653.93121	0.00332
6652.00253	0.00333
6650.07386	0.00333
6648.14518	0.00334
6646.21651	0.00335
6644.28783	0.00336
6642.35915	0.00337
6640.43048	0.00337
6638.50180	0.00338
6636.57313	0.00339
6634.64445	0.00340
6632.71578	0.00341
6630.78710	0.00341
6628.85842	0.00341
6626.92975	0.00340
6625.00107	0.00340
6623.07240	0.00341
6621.14372	0.00342
6619.21505	0.00342
6617.28637	0.00344
6615.35769	0.00346
6613.42902	0.00347
6611.50034	0.00348
6609.57167	0.00350
6607.64299	0.00352
6605.71432	0.00353
6603.78564	0.00354
6601.85696	0.00355
6599.92829	0.00354
6597.99961	0.00353
6596.07094	0.00354
6594.14226	0.00356
6592.21359	0.00359
6590.28491	0.00360
6588.35623	0.00359
6586.42756	0.00356
6584.49888	0.00356
6582.57021	0.00358
6580.64153	0.00361
6578.71286	0.00362
6576.78418	0.00363
6574.85550	0.00362
6572.92683	0.00362
6570.99815	0.00362
6569.06948	0.00363
6567.14080	0.00364
6565.21213	0.00365
6563.28345	0.00367
6561.35477	0.00367
6559.42610	0.00365
6557.49742	0.00367
6555.56875	0.00370
6553.64007	0.00371
6551.71140	0.00372
6549.78272	0.00375
6547.85404	0.00377
6545.92537	0.00377
6543.99669	0.00378
6542.06802	0.00378
6540.13934	0.00378
6538.21067	0.00378
6536.28199	0.00378
6534.35331	0.00379
6532.42464	0.00381
6530.49596	0.00382
6528.56729	0.00383
6526.63861	0.00384
6524.70994	0.00385
6522.78126	0.00386
6520.85258	0.00387
6518.92391	0.00388
6516.99523	0.00388
6515.06656	0.00387
6513.13788	0.00388
6511.20921	0.00390
6509.28053	0.00392
6507.35185	0.00392
6505.42318	0.00393
6503.49450	0.00394
6501.56583	0.00396
6499.63715	0.00398
6497.70848	0.00398
6495.77980	0.00398
6493.85112	0.00397
6491.92245	0.00397
6489.99377	0.00398
6488.06510	0.00401
6486.13642	0.00403
6484.20775	0.00405
6482.27907	0.00405
6480.35039	0.00404
6478.42172	0.00404
6476.49304	0.00404
6474.56437	0.00406
6472.63569	0.00409
6470.70702	0.00412
6468.77834	0.00413
6466.84966	0.00414
6464.92099	0.00414
6462.99231	0.00413
6461.06364	0.00413
6459.13496	0.00413
6457.20629	0.00414
6455.27761	0.00417
6453.34893	0.00417
6451.42026	0.00417
6449.49158	0.00417
6447.56291	0.00419
6445.63423	0.00420
6443.70556	0.00423
6441.77688	0.00424
6439.84820	0.00424
6437.91953	0.00424
6435.99085	0.00424
6434.06218	0.00425
6432.13350	0.00427
6430.20483	0.00427
6428.27615	0.00428
6426.34747	0.00429
6424.41880	0.00431
6422.49012	0.00431
6420.56145	0.00432
6418.63277	0.00435
6416.70410	0.00438
6414.77542	0.00438
6412.84674	0.00437
6410.91807	0.00437
6408.98939	0.00439
6407.06072	0.00440
6405.13204	0.00440
6403.20337	0.00440
6401.27469	0.00441
6399.34601	0.00442
6397.41734	0.00444
6395.48866	0.00446
6393.55999	0.00447
6391.63131	0.00449
6389.70264	0.00451
6387.77396	0.00452
6385.84528	0.00453
6383.91661	0.00454
6381.98793	0.00454
6380.05926	0.00453
6378.13058	0.00452
6376.20191	0.00454
6374.27323	0.00457
6372.34455	0.00460
6370.41588	0.00463
6368.48720	0.00465
6366.55853	0.00464
6364.62985	0.00462
6362.70118	0.00462
6360.77250	0.00464
6358.84382	0.00465
6356.91515	0.00465
6354.98647	0.00468
6353.05780	0.00470
6351.12912	0.00470
6349.20045	0.00469
6347.27177	0.00471
6345.34309	0.00474
6343.41442	0.00474
6341.48574	0.00474
6339.55707	0.00474
6337.62839	0.00475
6335.69972	0.00478
6333.77104	0.00480
6331.84236	0.00480
6329.91369	0.00481
6327.98501	0.00483
6326.05634	0.00484
6324.12766	0.00486
6322.19899	0.00486
6320.27031	0.00486
6318.34163	0.00486
6316.41296	0.00487
6314.48428	0.00488
6312.55561	0.00490
6310.62693	0.00491
6308.69826	0.00493
6306.76958	0.00497
6304.84090	0.00499
6302.91223	0.00499
6300.98355	0.00498
6299.05488	0.00498
6297.12620	0.00498
6295.19753	0.00499
6293.26885	0.00500
6291.34017	0.00502
6289.41150	0.00503
6287.48282	0.00505
6285.55415	0.00506
6283.62547	0.00508
6281.69680	0.00510
6279.76812	0.00511
6277.83944	0.00511
6275.91077	0.00513
6273.98209	0.00515
6272.05342	0.00516
6270.12474	0.00516
6268.19607	0.00518
6266.26739	0.00520
6264.33871	0.00522
6262.41004	0.00523
6260.48136	0.00523
6258.55269	0.00524
6256.62401	0.00524
6254.69534	0.00526
6252.76666	0.00528
6250.83798	0.00530
6248.90931	0.00531
6246.98063	0.00531
6245.05196	0.00532
6243.12328	0.00535
6241.19461	0.00537
6239.26593	0.00537
6237.33725	0.00536
6235.40858	0.00535
6233.47990	0.00537
6231.55123	0.00540
6229.62255	0.00543
6227.69388	0.00544
6225.76520	0.00546
6223.83652	0.00547
6221.90785	0.00547
6219.97917	0.00547
6218.05050	0.00548
6216.12182	0.00548
6214.19315	0.00548
6212.26447	0.00550
6210.33579	0.00553
6208.40712	0.00555
6206.47844	0.00556
6204.54977	0.00556
6202.62109	0.00557
6200.69242	0.00558
6198.76374	0.00561
6196.83506	0.00564
6194.90639	0.00565
6192.97771	0.00566
6191.04904	0.00566
6189.12036	0.00567
6187.19169	0.00570
6185.26301	0.00571
6183.33433	0.00571
6181.40566	0.00572
6179.47698	0.00573
6177.54831	0.00575
6175.61963	0.00577
6173.69096	0.00580
6171.76228	0.00582
6169.83360	0.00582
6167.90493	0.00581
6165.97625	0.00582
6164.04758	0.00583
6162.11890	0.00586
6160.19023	0.00589
6158.26155	0.00591
6156.33287	0.00590
6154.40420	0.00589
6152.47552	0.00590
6150.54685	0.00591
6148.61817	0.00592
6146.68950	0.00593
6144.76082	0.00595
6142.83214	0.00597
6140.90347	0.00598
6138.97479	0.00600
6137.04612	0.00603
6135.11744	0.00605
6133.18877	0.00605
6131.26009	0.00605
6129.33141	0.00607
6127.40274	0.00609
6125.47406	0.00611
6123.54539	0.00611
6121.61671	0.00612
6119.68804	0.00614
6117.75936	0.00616
6115.83068	0.00618
6113.90201	0.00620
6111.97333	0.00621
6110.04466	0.00622
6108.11598	0.00624
6106.18731	0.00626
6104.25863	0.00627
6102.32995	0.00628
6100.40128	0.00630
6098.47260	0.00632
6096.54393	0.00633
6094.61525	0.00634
6092.68658	0.00634
6090.75790	0.00635
6088.82922	0.00636
6086.90055	0.00638
6084.97187	0.00639
6083.04320	0.00641
6081.11452	0.00644
6079.18585	0.00647
6077.25717	0.00649
6075.32849	0.00650
6073.39982	0.00651
6071.47114	0.00653
6069.54247	0.00655
6067.61379	0.00656
6065.68512	0.00657
6063.75644	0.00658
6061.82776	0.00658
6059.89909	0.00659
6057.97041	0.00661
6056.04174	0.00664
6054.11306	0.00664
6052.18439	0.00664
6050.25571	0.00665
6048.32703	0.00666
6046.39836	0.00667
6044.46968	0.00668
6042.54101	0.00670
6040.61233	0.00672
6038.68366	0.00674
6036.75498	0.00675
6034.82630	0.00678
6032.89763	0.00680
6030.96895	0.00681
6029.04028	0.00683
6027.11160	0.00685
6025.18293	0.00686
6023.25425	0.00686
6021.32557	0.00687
6019.39690	0.00690
6017.46822	0.00693
6015.53955	0.00694
6013.61087	0.00693
6011.68220	0.00694
6009.75352	0.00696
6007.82484	0.00698
6005.89617	0.00699
6003.96749	0.00700
6002.03882	0.00702
6000.11014	0.00704
5998.18147	0.00706
5996.25279	0.00708
5994.32411	0.00710
5992.39544	0.00711
5990.46676	0.00713
5988.53809	0.00715
5986.60941	0.00717
5984.68074	0.00717
5982.75206	0.00717
5980.82338	0.00718
5978.89471	0.00722
5976.96603	0.00724
5975.03736	0.00726
5973.10868	0.00728
5971.18001	0.00730
5969.25133	0.00733
5967.32265	0.00734
5965.39398	0.00735
5963.46530	0.00736
5961.53663	0.00739
5959.60795	0.00740
5957.67928	0.00741
5955.75060	0.00744
5953.82192	0.00746
5951.89325	0.00747
5949.96457	0.00748
5948.03590	0.00750
5946.10722	0.00752
5944.17855	0.00754
5942.24987	0.00755
5940.32119	0.00757
5938.39252	0.00760
5936.46384	0.00763
5934.53517	0.00765
5932.60649	0.00766
5930.67782	0.00766
5928.74914	0.00765
5926.82046	0.00766
5924.89179	0.00766
5922.96311	0.00768
5921.03444	0.00770
5919.10576	0.00774
5917.17709	0.00777
5915.24841	0.00778
5913.31973	0.00778
5911.39106	0.00778
5909.46238	0.00781
5907.53371	0.00783
5905.60503	0.00786
5903.67636	0.00788
5901.74768	0.00789
5899.81900	0.00791
5897.89033	0.00792
5895.96165	0.00794
5894.03298	0.00796
5892.10430	0.00799
5890.17563	0.00802
5888.24695	0.00804
5886.31827	0.00806
5884.38960	0.00807
5882.46092	0.00810
5880.53225	0.00813
5878.60357	0.00815
5876.67490	0.00814
5874.74622	0.00813
5872.81755	0.00813
5870.88887	0.00815
5868.96019	0.00818
5867.03152	0.00821
5865.10284	0.00824
5863.17417	0.00828
5861.24549	0.00829
5859.31682	0.00828
5857.38814	0.00828
5855.45946	0.00830
5853.53079	0.00832
5851.60211	0.00835
5849.67344	0.00838
5847.74476	0.00839
5845.81609	0.00841
5843.88741	0.00843
5841.95873	0.00845
5840.03006	0.00847
5838.10138	0.00848
5836.17271	0.00850
5834.24403	0.00854
5832.31536	0.00856
5830.38668	0.00857
5828.45800	0.00858
5826.52933	0.00860
5824.60065	0.00862
5822.67198	0.00865
5820.74330	0.00866
5818.81463	0.00869
5816.88595	0.00873
5814.95727	0.00875
5813.02860	0.00876
5811.09992	0.00878
5809.17125	0.00878
5807.24257	0.00879
5805.31390	0.00880
5803.38522	0.00884
5801.45654	0.00887
5799.52787	0.00888
5797.59919	0.00890
5795.67052	0.00894
5793.74184	0.00897
5791.81317	0.00898
5789.88449	0.00899
5787.95581	0.00901
5786.02714	0.00902
5784.09846	0.00904
5782.16979	0.00906
5780.24111	0.00907
5778.31244	0.00909
5776.38376	0.00911
5774.45508	0.00914
5772.52641	0.00915
5770.59773	0.00916
5768.66906	0.00917
5766.74038	0.00920
5764.81171	0.00923
5762.88303	0.00926
5760.95435	0.00928
5759.02568	0.00928
5757.09700	0.00929
5755.16833	0.00932
5753.23965	0.00934
5751.31098	0.00937
5749.38230	0.00938
5747.45362	0.00939
5745.52495	0.00943
5743.59627	0.00947
5741.66760	0.00949
5739.73892	0.00949
5737.81025	0.00950
5735.88157	0.00953
5733.95289	0.00955
5732.02422	0.00956
5730.09554	0.00958
5728.16687	0.00962
5726.23819	0.00965
5724.30952	0.00967
5722.38084	0.00970
5720.45216	0.00972
5718.52349	0.00974
5716.59481	0.00974
5714.66614	0.00975
5712.73746	0.00978
5710.80879	0.00981
5708.88011	0.00985
5706.95143	0.00986
5705.02276	0.00987
5703.09408	0.00989
5701.16541	0.00992
5699.23673	0.00995
5697.30806	0.00997
5695.37938	0.00999
5693.45070	0.01000
5691.52203	0.01003
5689.59335	0.01007
5687.66468	0.01009
5685.73600	0.01010
5683.80733	0.01012
5681.87865	0.01015
5679.94997	0.01018
5678.02130	0.01020
5676.09262	0.01023
5674.16395	0.01025
5672.23527	0.01026
5670.30660	0.01027
5668.37792	0.01029
5666.44924	0.01032
5664.52057	0.01036
5662.59189	0.01038
5660.66322	0.01039
5658.73454	0.01039
5656.80587	0.01039
5654.87719	0.01042
5652.94851	0.01046
5651.01984	0.01049
5649.09116	0.01051
5647.16249	0.01053
5645.23381	0.01055
5643.30514	0.01058
5641.37646	0.01061
5639.44778	0.01063
5637.51911	0.01064
5635.59043	0.01064
5633.66176	0.01066
5631.73308	0.01069
5629.80441	0.01072
5627.87573	0.01075
5625.94705	0.01078
5624.01838	0.01081
5622.08970	0.01085
5620.16103	0.01087
5618.23235	0.01089
5616.30368	0.01091
5614.37500	0.01093
5612.44632	0.01095
5610.51765	0.01096
5608.58897	0.01097
5606.66030	0.01100
5604.73162	0.01104
5602.80295	0.01106
5600.87427	0.01107
5598.94559	0.01108
5597.01692	0.01111
5595.08824	0.01114
5593.15957	0.01117
5591.23089	0.01119
5589.30222	0.01121
5587.37354	0.01123
5585.44486	0.01126
5583.51619	0.01129
5581.58751	0.01132
5579.65884	0.01134
5577.73016	0.01137
5575.80149	0.01140
5573.87281	0.01142
5571.94413	0.01144
5570.01546	0.01145
5568.08678	0.01146
5566.15811	0.01148
5564.22943	0.01152
5562.30076	0.01155
5560.37208	0.01156
5558.44340	0.01158
5556.51473	0.01161
5554.58605	0.01164
5552.65738	0.01166
5550.72870	0.01167
5548.80003	0.01169
5546.87135	0.01172
5544.94267	0.01175
5543.01400	0.01178
5541.08532	0.01182
5539.15665	0.01188
5537.22797	0.01192
5535.29930	0.01193
5533.37062	0.01192
5531.44194	0.01193
5529.51327	0.01196
5527.58459	0.01200
5525.65592	0.01202
5523.72724	0.01202
5521.79857	0.01205
5519.86989	0.01209
5517.94121	0.01211
5516.01254	0.01213
5514.08386	0.01216
5512.15519	0.01219
5510.22651	0.01221
5508.29784	0.01223
5506.36916	0.01226
5504.44048	0.01228
5502.51181	0.01232
5500.58313	0.01235
5498.65446	0.01237
5496.72578	0.01240
5494.79711	0.01241
5492.86843	0.01244
5490.93975	0.01247
5489.01108	0.01249
5487.08240	0.01251
5485.15373	0.01254
5483.22505	0.01256
5481.29638	0.01257
5479.36770	0.01259
5477.43902	0.01262
5475.51035	0.01266
5473.58167	0.01269
5471.65300	0.01272
5469.72432	0.01275
5467.79565	0.01276
5465.86697	0.01279
5463.93829	0.01281
5462.00962	0.01283
5460.08094	0.01286
5458.15227	0.01287
5456.22359	0.01289
5454.29492	0.01293
5452.36624	0.01297
5450.43756	0.01301
5448.50889	0.01303
5446.58021	0.01304
5444.65154	0.01306
5442.72286	0.01310
5440.79419	0.01312
5438.86551	0.01314
5436.93683	0.01316
5435.00816	0.01319
5433.07948	0.01323
5431.15081	0.01328
5429.22213	0.01333
5427.29346	0.01336
5425.36478	0.01339
5423.43610	0.01341
5421.50743	0.01343
5419.57875	0.01346
5417.65008	0.01350
5415.72140	0.01351
5413.79273	0.01351
5411.86405	0.01351
5409.93537	0.01354
5408.00670	0.01359
5406.07802	0.01365
5404.14935	0.01368
5402.22067	0.01368
5400.29200	0.01369
5398.36332	0.01371
5396.43464	0.01375
5394.50597	0.01377
5392.57729	0.01380
5390.64862	0.01385
5388.71994	0.01389
5386.79127	0.01391
5384.86259	0.01394
5382.93391	0.01396
5381.00524	0.01398
5379.07656	0.01400
5377.14789	0.01403
5375.21921	0.01407
5373.29054	0.01410
5371.36186	0.01411
5369.43318	0.01413
5367.50451	0.01417
5365.57583	0.01421
5363.64716	0.01422
5361.71848	0.01424
5359.78981	0.01426
5357.86113	0.01428
5355.93245	0.01429
5354.00378	0.01432
5352.07510	0.01436
5350.14643	0.01441
5348.21775	0.01444
5346.28908	0.01446
5344.36040	0.01448
5342.43172	0.01452
5340.50305	0.01455
5338.57437	0.01459
5336.64570	0.01463
5334.71702	0.01465
5332.78835	0.01466
5330.85967	0.01467
5328.93099	0.01470
5327.00232	0.01474
5325.07364	0.01479
5323.14497	0.01483
5321.21629	0.01486
5319.28762	0.01489
5317.35894	0.01492
5315.43026	0.01497
5313.50159	0.01501
5311.57291	0.01504
5309.64424	0.01506
5307.71556	0.01506
5305.78689	0.01508
5303.85821	0.01512
5301.92953	0.01516
5300.00086	0.01517
5298.07218	0.01519
5296.14351	0.01522
5294.21483	0.01525
5292.28616	0.01527
5290.35748	0.01529
5288.42880	0.01533
5286.50013	0.01536
5284.57145	0.01539
5282.64278	0.01542
5280.71410	0.01545
5278.78543	0.01549
5276.85675	0.01553
5274.92807	0.01558
5272.99940	0.01561
5271.07072	0.01564
5269.14205	0.01565
5267.21337	0.01568
5265.28470	0.01570
5263.35602	0.01572
5261.42734	0.01574
5259.49867	0.01578
5257.56999	0.01581
5255.64132	0.01582
5253.71264	0.01585
5251.78397	0.01590
5249.85529	0.01594
5247.92661	0.01598
5245.99794	0.01600
5244.06926	0.01603
5242.14059	0.01606
5240.21191	0.01609
5238.28324	0.01610
5236.35456	0.01614
5234.42588	0.01617
5232.49721	0.01619
5230.56853	0.01622
5228.63986	0.01626
5226.71118	0.01630
5224.78251	0.01634
5222.85383	0.01638
5220.92515	0.01641
5218.99648	0.01644
5217.06780	0.01648
5215.13913	0.01651
5213.21045	0.01654
5211.28178	0.01654
5209.35310	0.01654
5207.42442	0.01656
5205.49575	0.01661
5203.56707	0.01666
5201.63840	0.01670
5199.70972	0.01674
5197.78105	0.01678
5195.85237	0.01681
5193.92369	0.01682
5191.99502	0.01683
5190.06634	0.01688
5188.13767	0.01691
5186.20899	0.01694
5184.28032	0.01697
5182.35164	0.01701
5180.42296	0.01702
5178.49429	0.01702
5176.56561	0.01704
5174.63694	0.01710
5172.70826	0.01717
5170.77959	0.01723
5168.85091	0.01728
5166.92223	0.01731
5164.99356	0.01734
5163.06488	0.01737
5161.13621	0.01740
5159.20753	0.01742
5157.27886	0.01744
5155.35018	0.01747
5153.42150	0.01750
5151.49283	0.01752
5149.56415	0.01753
5147.63548	0.01757
5145.70680	0.01762
5143.77813	0.01767
5141.84945	0.01770
5139.92077	0.01772
5137.99210	0.01774
5136.06342	0.01778
5134.13475	0.01782
5132.20607	0.01786
5130.27740	0.01789
5128.34872	0.01792
5126.42004	0.01797
5124.49137	0.01802
5122.56269	0.01804
5120.63402	0.01803
5118.70534	0.01802
5116.77667	0.01804
5114.84799	0.01810
5112.91931	0.01816
5110.99064	0.01820
5109.06196	0.01824
5107.13329	0.01826
5105.20461	0.01828
5103.27594	0.01831
5101.34726	0.01834
5099.41858	0.01838
5097.48991	0.01842
5095.56123	0.01846
5093.63256	0.01849
5091.70388	0.01851
5089.77521	0.01853
5087.84653	0.01856
5085.91785	0.01860
5083.98918	0.01865
5082.06050	0.01868
5080.13183	0.01871
5078.20315	0.01875
5076.27448	0.01879
5074.34580	0.01883
5072.41712	0.01885
5070.48845	0.01890
5068.55977	0.01895
5066.63110	0.01900
5064.70242	0.01903
5062.77375	0.01906
5060.84507	0.01909
5058.91639	0.01911
5056.98772	0.01913
5055.05904	0.01916
5053.13037	0.01920
5051.20169	0.01923
5049.27302	0.01927
5047.34434	0.01930
5045.41566	0.01934
5043.48699	0.01939
5041.55831	0.01942
5039.62964	0.01945
5037.70096	0.01947
5035.77229	0.01952
5033.84361	0.01957
5031.91493	0.01960
5029.98626	0.01962
5028.05758	0.01966
5026.12891	0.01969
5024.20023	0.01971
5022.27156	0.01973
5020.34288	0.01976
5018.41420	0.01979
5016.48553	0.01982
5014.55685	0.01987
5012.62818	0.01993
5010.69950	0.01996
5008.77083	0.01998
5006.84215	0.02001
5004.91347	0.02005
5002.98480	0.02008
5001.05612	0.02011
4999.12745	0.02016
4997.19877	0.02020
4995.27010	0.02023
4993.34142	0.02027
4991.41274	0.02031
4989.48407	0.02034
4987.55539	0.02039
4985.62672	0.02042
4983.69804	0.02043
4981.76937	0.02044
4979.84069	0.02047
4977.91201	0.02053
4975.98334	0.02058
4974.05466	0.02062
4972.12599	0.02064
4970.19731	0.02066
4968.26864	0.02070
4966.33996	0.02074
4964.41128	0.02078
4962.48261	0.02082
4960.55393	0.02087
4958.62526	0.02093
4956.69658	0.02097
4954.76791	0.02100
4952.83923	0.02102
4950.91055	0.02105
4948.98188	0.02110
4947.05320	0.02112
4945.12453	0.02115
4943.19585	0.02121
4941.26718	0.02126
4939.33850	0.02129
4937.40982	0.02132
4935.48115	0.02135
4933.55247	0.02136
4931.62380	0.02139
4929.69512	0.02143
4927.76645	0.02146
4925.83777	0.02150
4923.90909	0.02156
4921.98042	0.02159
4920.05174	0.02161
4918.12307	0.02164
4916.19439	0.02169
4914.26572	0.02175
4912.33704	0.02180
4910.40836	0.02184
4908.47969	0.02188
4906.55101	0.02190
4904.62234	0.02192
4902.69366	0.02194
4900.76499	0.02198
4898.83631	0.02204
4896.90763	0.02209
4894.97896	0.02212
4893.05028	0.02216
4891.12161	0.02222
4889.19293	0.02227
4887.26426	0.02230
4885.33558	0.02232
4883.40690	0.02233
4881.47823	0.02236
4879.54955	0.02238
4877.62088	0.02241
4875.69220	0.02247
4873.76353	0.02254
4871.83485	0.02261
4869.90617	0.02264
4867.97750	0.02265
4866.04882	0.02268
4864.12015	0.02272
4862.19147	0.02276
4860.26280	0.02281
4858.33412	0.02287
4856.40544	0.02290
4854.47677	0.02293
4852.54809	0.02297
4850.61942	0.02300
4848.69074	0.02303
4846.76207	0.02306
4844.83339	0.02308
4842.90471	0.02309
4840.97604	0.02311
4839.04736	0.02317
4837.11869	0.02324
4835.19001	0.02330
4833.26134	0.02333
4831.33266	0.02334
4829.40398	0.02338
4827.47531	0.02345
4825.54663	0.02351
4823.61796	0.02355
4821.68928	0.02357
4819.76061	0.02360
4817.83193	0.02364
4815.90325	0.02366
4813.97458	0.02370
4812.04590	0.02376
4810.11723	0.02384
4808.18855	0.02391
4806.25988	0.02393
4804.33120	0.02392
4802.40252	0.02393
4800.47385	0.02399
4798.54517	0.02407
4796.61650	0.02414
4794.68782	0.02419
4792.75915	0.02424
4790.83047	0.02425
4788.90179	0.02426
4786.97312	0.02429
4785.04444	0.02432
4783.11577	0.02436
4781.18709	0.02441
4779.25842	0.02446
4777.32974	0.02450
4775.40106	0.02453
4773.47239	0.02455
4771.54371	0.02459
4769.61504	0.02462
4767.68636	0.02467
4765.75769	0.02472
4763.82901	0.02478
4761.90033	0.02484
4759.97166	0.02488
4758.04298	0.02492
4756.11431	0.02497
4754.18563	0.02502
4752.25696	0.02506
4750.32828	0.02509
4748.39960	0.02512
4746.47093	0.02516
4744.54225	0.02520
4742.61358	0.02525
4740.68490	0.02531
4738.75623	0.02535
4736.82755	0.02539
4734.89887	0.02542
4732.97020	0.02545
4731.04152	0.02549
4729.11285	0.02554
4727.18417	0.02559
4725.25550	0.02564
4723.32682	0.02571
4721.39814	0.02576
4719.46947	0.02579
4717.54079	0.02583
4715.61212	0.02587
4713.68344	0.02589
4711.75477	0.02592
4709.82609	0.02600
4707.89741	0.02608
4705.96874	0.02612
4704.04006	0.02613
4702.11139	0.02613
4700.18271	0.02616
4698.25404	0.02621
4696.32536	0.02627
4694.39668	0.02631
4692.46801	0.02636
4690.53933	0.02640
4688.61066	0.02645
4686.68198	0.02650
4684.75331	0.02657
4682.82463	0.02663
4680.89595	0.02668
4678.96728	0.02670
4677.03860	0.02672
4675.10993	0.02676
4673.18125	0.02680
4671.25258	0.02684
4669.32390	0.02689
4667.39522	0.02694
4665.46655	0.02698
4663.53787	0.02702
4661.60920	0.02708
4659.68052	0.02715
4657.75185	0.02720
4655.82317	0.02723
4653.89449	0.02727
4651.96582	0.02732
4650.03714	0.02737
4648.10847	0.02741
4646.17979	0.02745
4644.25112	0.02748
4642.32244	0.02750
4640.39376	0.02754
4638.46509	0.02762
4636.53641	0.02769
4634.60774	0.02774
4632.67906	0.02778
4630.75039	0.02783
4628.82171	0.02788
4626.89303	0.02793
4624.96436	0.02798
4623.03568	0.02804
4621.10701	0.02809
4619.17833	0.02814
4617.24966	0.02819
4615.32098	0.02824
4613.39230	0.02829
4611.46363	0.02833
4609.53495	0.02836
4607.60628	0.02839
4605.67760	0.02844
4603.74893	0.02851
4601.82025	0.02857
4599.89157	0.02861
4597.96290	0.02865
4596.03422	0.02869
4594.10555	0.02873
4592.17687	0.02878
4590.24820	0.02882
4588.31952	0.02885
4586.39084	0.02889
4584.46217	0.02895
4582.53349	0.02903
4580.60482	0.02910
4578.67614	0.02915
4576.74747	0.02919
4574.81879	0.02924
4572.89011	0.02929
4570.96144	0.02934
4569.03276	0.02939
4567.10409	0.02942
4565.17541	0.02945
4563.24674	0.02950
4561.31806	0.02956
4559.38938	0.02962
4557.46071	0.02966
4555.53203	0.02970
4553.60336	0.02976
4551.67468	0.02983
4549.74601	0.02991
4547.81733	0.02996
4545.88865	0.03001
4543.95998	0.03006
4542.03130	0.03011
4540.10263	0.03016
4538.17395	0.03020
4536.24528	0.03023
4534.31660	0.03028
4532.38792	0.03032
4530.45925	0.03037
4528.53057	0.03043
4526.60190	0.03050
4524.67322	0.03056
4522.74455	0.03061
4520.81587	0.03067
4518.88719	0.03072
4516.95852	0.03075
4515.02984	0.03077
4513.10117	0.03080
4511.17249	0.03086
4509.24382	0.03094
4507.31514	0.03100
4505.38646	0.03105
4503.45779	0.03110
4501.52911	0.03116
4499.60044	0.03122
4497.67176	0.03128
4495.74309	0.03133
4493.81441	0.03139
4491.88573	0.03145
4489.95706	0.03152
4488.02838	0.03158
4486.09971	0.03163
4484.17103	0.03168
4482.24236	0.03174
4480.31368	0.03179
4478.38500	0.03185
4476.45633	0.03191
4474.52765	0.03198
4472.59898	0.03203
4470.67030	0.03209
4468.74163	0.03215
4466.81295	0.03220
4464.88427	0.03224
4462.95560	0.03229
4461.02692	0.03234
4459.09825	0.03241
4457.16957	0.03248
4455.24090	0.03255
4453.31222	0.03260
4451.38354	0.03263
4449.45487	0.03268
4447.52619	0.03275
4445.59752	0.03279
4443.66884	0.03282
4441.74017	0.03287
4439.81149	0.03296
4437.88281	0.03305
4435.95414	0.03312
4434.02546	0.03318
4432.09679	0.03322
4430.16811	0.03327
4428.23944	0.03332
4426.31076	0.03338
4424.38208	0.03343
4422.45341	0.03349
4420.52473	0.03357
4418.59606	0.03365
4416.66738	0.03370
4414.73871	0.03375
4412.81003	0.03381
4410.88135	0.03388
4408.95268	0.03396
4407.02400	0.03402
4405.09533	0.03407
4403.16665	0.03412
4401.23798	0.03418
4399.30930	0.03424
4397.38062	0.03430
4395.45195	0.03435
4393.52327	0.03441
4391.59460	0.03447
4389.66592	0.03455
4387.73725	0.03463
4385.80857	0.03467
4383.87989	0.03470
4381.95122	0.03475
4380.02254	0.03483
4378.09387	0.03492
4376.16519	0.03498
4374.23652	0.03503
4372.30784	0.03510
4370.37916	0.03520
4368.45049	0.03528
4366.52181	0.03532
4364.59314	0.03536
4362.66446	0.03541
4360.73579	0.03546
4358.80711	0.03552
4356.87843	0.03559
4354.94976	0.03566
4353.02108	0.03573
4351.09241	0.03581
4349.16373	0.03589
4347.23506	0.03597
4345.30638	0.03603
4343.37770	0.03609
4341.44903	0.03616
4339.52035	0.03622
4337.59168	0.03628
4335.66300	0.03635
4333.73433	0.03641
4331.80565	0.03648
4329.87697	0.03655
4327.94830	0.03660
4326.01962	0.03665
4324.09095	0.03672
4322.16227	0.03681
4320.23360	0.03690
4318.30492	0.03697
4316.37624	0.03703
4314.44757	0.03709
4312.51889	0.03715
4310.59022	0.03722
4308.66154	0.03729
4306.73287	0.03734
4304.80419	0.03740
4302.87551	0.03747
4300.94684	0.03755
4299.01816	0.03764
4297.08949	0.03773
4295.16081	0.03780
4293.23214	0.03785
4291.30346	0.03791
4289.37478	0.03797
4287.44611	0.03804
4285.51743	0.03813
4283.58876	0.03822
4281.66008	0.03829
4279.73141	0.03836
4277.80273	0.03842
4275.87405	0.03848
4273.94538	0.03854
4272.01670	0.03861
4270.08803	0.03869
4268.15935	0.03877
4266.23068	0.03884
4264.30200	0.03891
4262.37332	0.03899
4260.44465	0.03907
4258.51597	0.03914
4256.58730	0.03919
4254.65862	0.03925
4252.72995	0.03932
4250.80127	0.03939
4248.87259	0.03944
4246.94392	0.03950
4245.01524	0.03957
4243.08657	0.03968
4241.15789	0.03977
4239.22922	0.03984
4237.30054	0.03990
4235.37186	0.03997
4233.44319	0.04006
4231.51451	0.04014
4229.58584	0.04020
4227.65716	0.04026
4225.72849	0.04034
4223.79981	0.04044
4221.87113	0.04055
4219.94246	0.04063
4218.01378	0.04067
4216.08511	0.04071
4214.15643	0.04078
4212.22776	0.04089
4210.29908	0.04099
4208.37040	0.04106
4206.44173	0.04112
4204.51305	0.04120
4202.58438	0.04128
4200.65570	0.04135
4198.72703	0.04141
4196.79835	0.04145
4194.86968	0.04151
4192.94100	0.04161
4191.01232	0.04172
4189.08365	0.04179
4187.15497	0.04185
4185.22630	0.04193
4183.29762	0.04203
4181.36895	0.04210
4179.44027	0.04217
4177.51159	0.04226
4175.58292	0.04234
4173.65424	0.04240
4171.72557	0.04247
4169.79689	0.04256
4167.86822	0.04265
4165.93954	0.04272
4164.01086	0.04277
4162.08219	0.04284
4160.15351	0.04295
4158.22484	0.04307
4156.29616	0.04316
4154.36749	0.04324
4152.43881	0.04332
4150.51013	0.04340
4148.58146	0.04348
4146.65278	0.04356
4144.72411	0.04364
4142.79543	0.04371
4140.86676	0.04378
4138.93808	0.04386
4137.00940	0.04395
4135.08073	0.04403
4133.15205	0.04410
4131.22338	0.04419
4129.29470	0.04428
4127.36603	0.04438
4125.43735	0.04447
4123.50867	0.04453
4121.58000	0.04460
4119.65132	0.04469
4117.72265	0.04477
4115.79397	0.04484
4113.86530	0.04491
4111.93662	0.04500
4110.00794	0.04512
4108.07927	0.04522
4106.15059	0.04531
4104.22192	0.04538
4102.29324	0.04546
4100.36457	0.04553
4098.43589	0.04562
4096.50721	0.04571
4094.57854	0.04581
4092.64986	0.04591
4090.72119	0.04599
4088.79251	0.04606
4086.86384	0.04615
4084.93516	0.04625
4083.00648	0.04635
4081.07781	0.04645
4079.14913	0.04654
4077.22046	0.04661
4075.29178	0.04668
4073.36311	0.04676
4071.43443	0.04685
4069.50575	0.04695
4067.57708	0.04703
4065.64840	0.04710
4063.71973	0.04718
4061.79105	0.04728
4059.86238	0.04740
4057.93370	0.04750
4056.00502	0.04758
4054.07635	0.04763
4052.14767	0.04771
4050.21900	0.04782
4048.29032	0.04793
4046.36165	0.04801
4044.43297	0.04808
4042.50429	0.04814
4040.57562	0.04823
4038.64694	0.04834
4036.71827	0.04845
4034.78959	0.04854
4032.86092	0.04864
4030.93224	0.04873
4029.00356	0.04880
4027.07489	0.04888
4025.14621	0.04897
4023.21754	0.04906
4021.28886	0.04914
4019.36019	0.04922
4017.43151	0.04930
4015.50283	0.04938
4013.57416	0.04946
4011.64548	0.04955
4009.71681	0.04967
4007.78813	0.04979
4005.85946	0.04990
4003.93078	0.04999
4002.00210	0.05009
4000.07343	0.05020
3998.14475	0.05031
3996.21608	0.05038
3994.28740	0.05044
3992.35873	0.05052
3990.43005	0.05063
3988.50137	0.05075
3986.57270	0.05086
3984.64402	0.05094
3982.71535	0.05103
3980.78667	0.05112
3978.85800	0.05121
3976.92932	0.05130
3975.00064	0.05139
3973.07197	0.05146
3971.14329	0.05154
3969.21462	0.05164
3967.28594	0.05175
3965.35727	0.05184
3963.42859	0.05191
3961.49991	0.05200
3959.57124	0.05213
3957.64256	0.05226
3955.71389	0.05237
3953.78521	0.05244
3951.85654	0.05251
3949.92786	0.05256
3947.99918	0.05263
3946.07051	0.05273
3944.14183	0.05284
3942.21316	0.05296
3940.28448	0.05309
3938.35581	0.05320
3936.42713	0.05326
3934.49845	0.05330
3932.56978	0.05336
3930.64110	0.05349
3928.71243	0.05364
3926.78375	0.05374
3924.85508	0.05381
3922.92640	0.05390
3920.99772	0.05398
3919.06905	0.05405
3917.14037	0.05416
3915.21170	0.05432
3913.28302	0.05448
3911.35435	0.05459
3909.42567	0.05464
3907.49699	0.05464
3905.56832	0.05461
3903.63964	0.05462
3901.71097	0.05471
3899.78229	0.05488
3897.85362	0.05511
3895.92494	0.05532
3893.99626	0.05540
3892.06759	0.05543
3890.13891	0.05553
3888.21024	0.05559
3886.28156	0.05559
3884.35289	0.05567
3882.42421	0.05582
3880.49553	0.05595
3878.56686	0.05612
3876.63818	0.05626
3874.70951	0.05632
3872.78083	0.05634
3870.85216	0.05636
3868.92348	0.05647
3866.99480	0.05664
3865.06613	0.05675
3863.13745	0.05688
3861.20878	0.05706
3859.28010	0.05718
3857.35143	0.05709
3855.42275	0.05684
3853.49407	0.05680
3851.56540	0.05716
3849.63672	0.05761
3847.70805	0.05787
3845.77937	0.05797
3843.85070	0.05801
3841.92202	0.05804
3839.99334	0.05807
3838.06467	0.05813
3836.13599	0.05825
3834.20732	0.05840
3832.27864	0.05855
3830.34997	0.05874
3828.42129	0.05889
3826.49261	0.05897
3824.56394	0.05899
3822.63526	0.05894
3820.70659	0.05899
3818.77791	0.05918
3816.84924	0.05933
3814.92056	0.05949
3812.99188	0.05973
3811.06321	0.05988
3809.13453	0.05990
3807.20586	0.05992
3805.27718	0.06003
3803.34851	0.06010
3801.41983	0.06018
3799.49115	0.06036
3797.56248	0.06055
3795.63380	0.06070
3793.70513	0.06086
3791.77645	0.06100
3789.84778	0.06111
3787.91910	0.06120
3785.99042	0.06128
3784.06175	0.06138
3782.13307	0.06147
3780.20440	0.06153
3778.27572	0.06164
3776.34705	0.06178
3774.41837	0.06189
3772.48969	0.06192
3770.56102	0.06194
3768.63234	0.06201
3766.70367	0.06215
3764.77499	0.06231
3762.84632	0.06245
3760.91764	0.06252
3758.98896	0.06259
3757.06029	0.06269
3755.13161	0.06271
3753.20294	0.06260
3751.27426	0.06252
3749.34559	0.06263
3747.41691	0.06273
3745.48823	0.06272
3743.55956	0.06291
3741.63088	0.06331
3739.70221	0.06349
3737.77353	0.06340
3735.84486	0.06335
3733.91618	0.06351
3731.98750	0.06381
3730.05883	0.06408
3728.13015	0.06422
3726.20148	0.06426
3724.27280	0.06433
3722.34413	0.06444
3720.41545	0.06457
3718.48677	0.06470
3716.55810	0.06478
3714.62942	0.06475
3712.70075	0.06468
3710.77207	0.06472
3708.84340	0.06488
3706.91472	0.06504
3704.98604	0.06506
3703.05737	0.06498
3701.12869	0.06497
3699.20002	0.06506
3697.27134	0.06517
3695.34267	0.06521
3693.41399	0.06516
3691.48531	0.06503
3689.55664	0.06498
3687.62796	0.06509
3685.69929	0.06527
3683.77061	0.06538
3681.84194	0.06537
3679.91326	0.06530
3677.98458	0.06514
3676.05591	0.06499
3674.12723	0.06502
3672.19856	0.06510
3670.26988	0.06514
3668.34121	0.06531
3666.41253	0.06552
3664.48385	0.06563
3662.55518	0.06567
3660.62650	0.06571
3658.69783	0.06569
3656.76915	0.06566
3654.84048	0.06567
3652.91180	0.06560
3650.98312	0.06541
3649.05445	0.06532
3647.12577	0.06550
3645.19710	0.06583
3643.26842	0.06610
3641.33975	0.06628
3639.41107	0.06643
3637.48239	0.06654
3635.55372	0.06659
3633.62504	0.06657
3631.69637	0.06646
3629.76769	0.06636
3627.83902	0.06651
3625.91034	0.06685
3623.98166	0.06707
3622.05299	0.06706
3620.12431	0.06701
3618.19564	0.06708
3616.26696	0.06721
3614.33829	0.06730
3612.40961	0.06737
3610.48093	0.06744
3608.55226	0.06752
3606.62358	0.06768
3604.69491	0.06784
3602.76623	0.06793
3600.83756	0.06799
3598.90888	0.06808
3596.98020	0.06817
3595.05153	0.06824
3593.12285	0.06832
3591.19418	0.06834
3589.26550	0.06830
3587.33683	0.06837
3585.40815	0.06861
3583.47947	0.06885
3581.55080	0.06900
3579.62212	0.06911
3577.69345	0.06918
3575.76477	0.06925
3573.83610	0.06933
3571.90742	0.06942
3569.97874	0.06941
3568.05007	0.06936
3566.12139	0.06944
3564.19272	0.06967
3562.26404	0.06987
3560.33537	0.06999
3558.40669	0.07008
3556.47801	0.07017
3554.54934	0.07023
3552.62066	0.07029
3550.69199	0.07039
3548.76331	0.07048
3546.83464	0.07052
3544.90596	0.07057
3542.97728	0.07066
3541.04861	0.07076
3539.11993	0.07085
3537.19126	0.07092
3535.26258	0.07098
3533.33391	0.07105
3531.40523	0.07108
3529.47655	0.07110
3527.54788	0.07113
3525.61920	0.07117
3523.69053	0.07122
3521.76185	0.07129
3519.83318	0.07136
3517.90450	0.07143
3515.97582	0.07148
3514.04715	0.07150
3512.11847	0.07150
3510.18980	0.07151
3508.26112	0.07155
3506.33245	0.07161
3504.40377	0.07166
3502.47509	0.07169
3500.54642	0.07172
3498.61774	0.07175
3496.68907	0.07180
3494.76039	0.07186
3492.83172	0.07189
3490.90304	0.07189
3488.97436	0.07188
3487.04569	0.07190
3485.11701	0.07195
3483.18834	0.07200
3481.25966	0.07206
3479.33099	0.07213
3477.40231	0.07221
3475.47363	0.07229
3473.54496	0.07237
3471.61628	0.07247
3469.68761	0.07258
3467.75893	0.07270
3465.83026	0.07281
3463.90158	0.07292
3461.97290	0.07303
3460.04423	0.07313
3458.11555	0.07324
3456.18688	0.07336
3454.25820	0.07351
3452.32953	0.07363
3450.40085	0.07371
3448.47217	0.07380
3446.54350	0.07389
3444.61482	0.07400
3442.68615	0.07413
3440.75747	0.07428
3438.82880	0.07443
3436.90012	0.07462
3434.97144	0.07485
3433.04277	0.07508
3431.11409	0.07532
3429.18542	0.07557
3427.25674	0.07580
3425.32807	0.07600
3423.39939	0.07619
3421.47071	0.07641
3419.54204	0.07665
3417.61336	0.07686
3415.68469	0.07704
3413.75601	0.07723
3411.82734	0.07742
3409.89866	0.07760
3407.96998	0.07777
3406.04131	0.07791
3404.11263	0.07804
3402.18396	0.07819
3400.25528	0.07834
3398.32661	0.07851
3396.39793	0.07870
3394.46925	0.07887
3392.54058	0.07903
3390.61190	0.07919
3388.68323	0.07937
3386.75455	0.07953
3384.82588	0.07967
3382.89720	0.07980
3380.96852	0.07993
3379.03985	0.08008
3377.11117	0.08026
3375.18250	0.08044
3373.25382	0.08061
3371.32515	0.08075
3369.39647	0.08088
3367.46779	0.08103
3365.53912	0.08119
3363.61044	0.08139
3361.68177	0.08157
3359.75309	0.08170
3357.82442	0.08180
3355.89574	0.08191
3353.96706	0.08207
3352.03839	0.08224
3350.10971	0.08239
3348.18104	0.08254
3346.25236	0.08273
3344.32369	0.08293
3342.39501	0.08309
3340.46633	0.08323
3338.53766	0.08336
3336.60898	0.08351
3334.68031	0.08365
3332.75163	0.08379
3330.82296	0.08395
3328.89428	0.08413
3326.96560	0.08431
3325.03693	0.08447
3323.10825	0.08463
3321.17958	0.08480
3319.25090	0.08497
3317.32223	0.08513
3315.39355	0.08526
3313.46487	0.08540
3311.53620	0.08557
3309.60752	0.08575
3307.67885	0.08591
3305.75017	0.08605
3303.82150	0.08620
3301.89282	0.08636
3299.96414	0.08652
3298.03547	0.08667
3296.10679	0.08683
3294.17812	0.08700
3292.24944	0.08717
3290.32077	0.08732
3288.39209	0.08749
3286.46341	0.08767
3284.53474	0.08785
3282.60606	0.08802
3280.67739	0.08818
3278.74871	0.08832
3276.82004	0.08849
3274.89136	0.08866
3272.96268	0.08881
3271.03401	0.08896
3269.10533	0.08914
3267.17666	0.08933
3265.24798	0.08950
3263.31931	0.08965
3261.39063	0.08983
3259.46195	0.09003
3257.53328	0.09023
3255.60460	0.09040
3253.67593	0.09056
3251.74725	0.09071
3249.81858	0.09086
3247.88990	0.09105
3245.96122	0.09124
3244.03255	0.09140
3242.10387	0.09156
3240.17520	0.09171
3238.24652	0.09187
3236.31785	0.09203
3234.38917	0.09222
3232.46049	0.09240
3230.53182	0.09256
3228.60314	0.09271
3226.67447	0.09287
3224.74579	0.09305
3222.81712	0.09324
3220.88844	0.09344
3218.95976	0.09363
3217.03109	0.09380
3215.10241	0.09396
3213.17374	0.09412
3211.24506	0.09429
3209.31639	0.09445
3207.38771	0.09462
3205.45903	0.09481
3203.53036	0.09498
3201.60168	0.09514
3199.67301	0.09530
3197.74433	0.09548
3195.81566	0.09570
3193.88698	0.09592
3191.95830	0.09610
3190.02963	0.09627
3188.10095	0.09645
3186.17228	0.09664
3184.24360	0.09682
3182.31493	0.09699
3180.38625	0.09713
3178.45757	0.09730
3176.52890	0.09748
3174.60022	0.09765
3172.67155	0.09782
3170.74287	0.09800
3168.81420	0.09818
3166.88552	0.09835
3164.95684	0.09850
3163.02817	0.09866
3161.09949	0.09884
3159.17082	0.09903
3157.24214	0.09922
3155.31347	0.09943
3153.38479	0.09965
3151.45611	0.09981
3149.52744	0.09991
3147.59876	0.10004
3145.67009	0.10019
3143.74141	0.10035
3141.81274	0.10052
3139.88406	0.10073
3137.95538	0.10094
3136.02671	0.10112
3134.09803	0.10128
3132.16936	0.10144
3130.24068	0.10161
3128.31201	0.10175
3126.38333	0.10188
3124.45465	0.10203
3122.52598	0.10222
3120.59730	0.10243
3118.66863	0.10262
3116.73995	0.10276
3114.81128	0.10290
3112.88260	0.10308
3110.95392	0.10329
3109.02525	0.10346
3107.09657	0.10362
3105.16790	0.10379
3103.23922	0.10396
3101.31055	0.10414
3099.38187	0.10430
3097.45319	0.10444
3095.52452	0.10458
3093.59584	0.10474
3091.66717	0.10489
3089.73849	0.10507
3087.80982	0.10525
3085.88114	0.10544
3083.95246	0.10562
3082.02379	0.10580
3080.09511	0.10599
3078.16644	0.10616
3076.23776	0.10632
3074.30909	0.10647
3072.38041	0.10662
3070.45173	0.10675
3068.52306	0.10689
3066.59438	0.10707
3064.66571	0.10727
3062.73703	0.10745
3060.80836	0.10761
3058.87968	0.10778
3056.95100	0.10793
3055.02233	0.10808
3053.09365	0.10825
3051.16498	0.10842
3049.23630	0.10859
3047.30763	0.10875
3045.37895	0.10892
3043.45027	0.10910
3041.52160	0.10927
3039.59292	0.10942
3037.66425	0.10956
3035.73557	0.10970
3033.80690	0.10984
3031.87822	0.10997
3029.94954	0.11011
3028.02087	0.11029
3026.09219	0.11050
3024.16352	0.11070
3022.23484	0.11089
3020.30617	0.11104
3018.37749	0.11116
3016.44881	0.11130
3014.52014	0.11145
3012.59146	0.11160
3010.66279	0.11175
3008.73411	0.11192
3006.80544	0.11208
3004.87676	0.11225
3002.94808	0.11242
3001.01941	0.11258
2999.09073	0.11272
2997.16206	0.11287
2995.23338	0.11303
2993.30471	0.11319
2991.37603	0.11333
2989.44735	0.11346
2987.51868	0.11359
2985.59000	0.11370
2983.66133	0.11380
2981.73265	0.11388
2979.80398	0.11395
2977.87530	0.11402
2975.94662	0.11405
2974.01795	0.11405
2972.08927	0.11402
2970.16060	0.11399
2968.23192	0.11396
2966.30325	0.11392
2964.37457	0.11393
2962.44589	0.11402
2960.51722	0.11418
2958.58854	0.11439
2956.65987	0.11459
2954.73119	0.11480
2952.80252	0.11503
2950.87384	0.11528
2948.94516	0.11548
2947.01649	0.11562
2945.08781	0.11571
2943.15914	0.11574
2941.23046	0.11575
2939.30179	0.11574
2937.37311	0.11573
2935.44443	0.11570
2933.51576	0.11568
2931.58708	0.11565
2929.65841	0.11560
2927.72973	0.11556
2925.80106	0.11551
2923.87238	0.11549
2921.94370	0.11550
2920.01503	0.11558
2918.08635	0.11576
2916.15768	0.11610
2914.22900	0.11660
2912.30033	0.11718
2910.37165	0.11771
2908.44297	0.11813
2906.51430	0.11842
2904.58562	0.11867
2902.65695	0.11895
2900.72827	0.11922
2898.79960	0.11947
2896.87092	0.11974
2894.94224	0.11998
2893.01357	0.12019
2891.08489	0.12039
2889.15622	0.12057
2887.22754	0.12075
2885.29887	0.12094
2883.37019	0.12114
2881.44151	0.12133
2879.51284	0.12149
2877.58416	0.12161
2875.65549	0.12174
2873.72681	0.12188
2871.79814	0.12204
2869.86946	0.12219
2867.94078	0.12231
2866.01211	0.12241
2864.08343	0.12250
2862.15476	0.12257
2860.22608	0.12262
2858.29741	0.12264
2856.36873	0.12261
2854.44005	0.12257
2852.51138	0.12254
2850.58270	0.12263
2848.65403	0.12295
2846.72535	0.12348
2844.79668	0.12405
2842.86800	0.12453
2840.93932	0.12490
2839.01065	0.12520
2837.08197	0.12546
2835.15330	0.12570
2833.22462	0.12592
2831.29595	0.12616
2829.36727	0.12639
2827.43859	0.12657
2825.50992	0.12674
2823.58124	0.12691
2821.65257	0.12708
2819.72389	0.12727
2817.79522	0.12746
2815.86654	0.12763
2813.93786	0.12779
2812.00919	0.12796
2810.08051	0.12813
2808.15184	0.12830
2806.22316	0.12847
2804.29449	0.12864
2802.36581	0.12880
2800.43713	0.12898
2798.50846	0.12916
2796.57978	0.12933
2794.65111	0.12948
2792.72243	0.12965
2790.79376	0.12982
2788.86508	0.12997
2786.93640	0.13011
2785.00773	0.13026
2783.07905	0.13043
2781.15038	0.13060
2779.22170	0.13078
2777.29303	0.13096
2775.36435	0.13114
2773.43567	0.13128
2771.50700	0.13141
2769.57832	0.13158
2767.64965	0.13177
2765.72097	0.13192
2763.79230	0.13205
2761.86362	0.13219
2759.93494	0.13236
2758.00627	0.13253
2756.07759	0.13267
2754.14892	0.13280
2752.22024	0.13296
2750.29157	0.13312
2748.36289	0.13324
2746.43421	0.13337
2744.50554	0.13355
2742.57686	0.13375
2740.64819	0.13392
2738.71951	0.13405
2736.79084	0.13421
2734.86216	0.13438
2732.93348	0.13452
2731.00481	0.13464
2729.07613	0.13478
2727.14746	0.13493
2725.21878	0.13510
2723.29011	0.13527
2721.36143	0.13540
2719.43275	0.13553
2717.50408	0.13569
2715.57540	0.13587
2713.64673	0.13604
2711.71805	0.13619
2709.78938	0.13632
2707.86070	0.13645
2705.93202	0.13659
2704.00335	0.13674
2702.07467	0.13688
2700.14600	0.13702
2698.21732	0.13719
2696.28865	0.13735
2694.35997	0.13749
2692.43129	0.13761
2690.50262	0.13775
2688.57394	0.13791
2686.64527	0.13805
2684.71659	0.13816
2682.78792	0.13828
2680.85924	0.13843
2678.93056	0.13862
2677.00189	0.13878
2675.07321	0.13891
2673.14454	0.13904
2671.21586	0.13919
2669.28719	0.13934
2667.35851	0.13949
2665.42983	0.13964
2663.50116	0.13979
2661.57248	0.13994
2659.64381	0.14010
2657.71513	0.14030
2655.78646	0.14051
2653.85778	0.14067
2651.92910	0.14077
2650.00043	0.14087
2648.07175	0.14102
2646.14308	0.14120
2644.21440	0.14137
2642.28573	0.14150
2640.35705	0.14164
2638.42837	0.14182
2636.49970	0.14200
2634.57102	0.14216
2632.64235	0.14233
2630.71367	0.14249
2628.78500	0.14265
2626.85632	0.14280
2624.92764	0.14294
2622.99897	0.14310
2621.07029	0.14326
2619.14162	0.14343
2617.21294	0.14359
2615.28427	0.14377
2613.35559	0.14395
2611.42691	0.14409
2609.49824	0.14421
2607.56956	0.14433
2605.64089	0.14447
2603.71221	0.14463
2601.78354	0.14478
2599.85486	0.14493
2597.92618	0.14512
2595.99751	0.14532
2594.06883	0.14547
2592.14016	0.14562
2590.21148	0.14580
2588.28281	0.14597
2586.35413	0.14612
2584.42545	0.14627
2582.49678	0.14640
2580.56810	0.14650
2578.63943	0.14663
2576.71075	0.14679
2574.78208	0.14699
2572.85340	0.14716
2570.92472	0.14730
2568.99605	0.14741
2567.06737	0.14754
2565.13870	0.14766
2563.21002	0.14779
2561.28135	0.14795
2559.35267	0.14816
2557.42399	0.14833
2555.49532	0.14845
2553.56664	0.14856
2551.63797	0.14870
2549.70929	0.14885
2547.78062	0.14898
2545.85194	0.14912
2543.92326	0.14929
2541.99459	0.14945
2540.06591	0.14960
2538.13724	0.14974
2536.20856	0.14987
2534.27989	0.15001
2532.35121	0.15016
2530.42253	0.15031
2528.49386	0.15046
2526.56518	0.15063
2524.63651	0.15081
2522.70783	0.15097
2520.77916	0.15111
2518.85048	0.15124
2516.92181	0.15138
2514.99313	0.15153
2513.06445	0.15168
2511.13578	0.15182
2509.20710	0.15198
2507.27843	0.15216
2505.34975	0.15235
2503.42108	0.15251
2501.49240	0.15265
2499.56372	0.15278
2497.63505	0.15293
2495.70637	0.15310
2493.77770	0.15328
2491.84902	0.15346
2489.92035	0.15363
2487.99167	0.15380
2486.06299	0.15396
2484.13432	0.15410
2482.20564	0.15424
2480.27697	0.15439
2478.34829	0.15455
2476.41962	0.15470
2474.49094	0.15485
2472.56226	0.15501
2470.63359	0.15517
2468.70491	0.15532
2466.77624	0.15545
2464.84756	0.15558
2462.91889	0.15571
2460.99021	0.15585
2459.06153	0.15601
2457.13286	0.15617
2455.20418	0.15631
2453.27551	0.15647
2451.34683	0.15663
2449.41816	0.15677
2447.48948	0.15691
2445.56080	0.15705
2443.63213	0.15720
2441.70345	0.15738
2439.77478	0.15755
2437.84610	0.15767
2435.91743	0.15781
2433.98875	0.15797
2432.06007	0.15813
2430.13140	0.15828
2428.20272	0.15840
2426.27405	0.15850
2424.34537	0.15863
2422.41670	0.15879
2420.48802	0.15896
2418.55934	0.15911
2416.63067	0.15924
2414.70199	0.15939
2412.77332	0.15954
2410.84464	0.15968
2408.91597	0.15981
2406.98729	0.15994
2405.05861	0.16007
2403.12994	0.16018
2401.20126	0.16028
2399.27259	0.16038
2397.34391	0.16049
2395.41524	0.16063
2393.48656	0.16076
2391.55788	0.16088
2389.62921	0.16100
2387.70053	0.16111
2385.77186	0.16118
2383.84318	0.16121
2381.91451	0.16124
2379.98583	0.16128
2378.05715	0.16129
2376.12848	0.16127
2374.19980	0.16119
2372.27113	0.16108
2370.34245	0.16096
2368.41378	0.16086
2366.48510	0.16077
2364.55642	0.16067
2362.62775	0.16055
2360.69907	0.16038
2358.77040	0.16013
2356.84172	0.15966
2354.91305	0.15881
2352.98437	0.15741
2351.05569	0.15529
2349.12702	0.15225
2347.19834	0.14839
2345.26967	0.14442
2343.34099	0.14150
2341.41232	0.14127
2339.48364	0.14501
2337.55496	0.15175
2335.62629	0.15823
2333.69761	0.16208
2331.76894	0.16369
2329.84026	0.16441
2327.91159	0.16494
2325.98291	0.16544
2324.05423	0.16593
2322.12556	0.16635
2320.19688	0.16667
2318.26821	0.16694
2316.33953	0.16721
2314.41086	0.16746
2312.48218	0.16765
2310.55350	0.16779
2308.62483	0.16795
2306.69615	0.16813
2304.76748	0.16829
2302.83880	0.16846
2300.91013	0.16864
2298.98145	0.16883
2297.05277	0.16900
2295.12410	0.16914
2293.19542	0.16926
2291.26675	0.16941
2289.33807	0.16959
2287.40940	0.16975
2285.48072	0.16986
2283.55204	0.16997
2281.62337	0.17010
2279.69469	0.17021
2277.76602	0.17028
2275.83734	0.17042
2273.90867	0.17067
2271.97999	0.17093
2270.05131	0.17115
2268.12264	0.17134
2266.19396	0.17150
2264.26529	0.17167
2262.33661	0.17183
2260.40794	0.17196
2258.47926	0.17209
2256.55058	0.17227
2254.62191	0.17246
2252.69323	0.17263
2250.76456	0.17277
2248.83588	0.17292
2246.90721	0.17308
2244.97853	0.17320
2243.04985	0.17330
2241.12118	0.17346
2239.19250	0.17362
2237.26383	0.17375
2235.33515	0.17389
2233.40648	0.17405
2231.47780	0.17417
2229.54912	0.17427
2227.62045	0.17440
2225.69177	0.17456
2223.76310	0.17471
2221.83442	0.17485
2219.90575	0.17499
2217.97707	0.17516
2216.04839	0.17532
2214.11972	0.17548
2212.19104	0.17562
2210.26237	0.17577
2208.33369	0.17593
2206.40502	0.17609
2204.47634	0.17623
2202.54766	0.17634
2200.61899	0.17645
2198.69031	0.17658
2196.76164	0.17670
2194.83296	0.17682
2192.90429	0.17696
2190.97561	0.17710
2189.04693	0.17723
2187.11826	0.17736
2185.18958	0.17749
2183.26091	0.17761
2181.33223	0.17773
2179.40356	0.17787
2177.47488	0.17802
2175.54620	0.17815
2173.61753	0.17829
2171.68885	0.17844
2169.76018	0.17861
2167.83150	0.17876
2165.90283	0.17891
2163.97415	0.17907
2162.04547	0.17925
2160.11680	0.17940
2158.18812	0.17953
2156.25945	0.17965
2154.33077	0.17978
2152.40210	0.17992
2150.47342	0.18004
2148.54474	0.18016
2146.61607	0.18031
2144.68739	0.18049
2142.75872	0.18064
2140.83004	0.18076
2138.90137	0.18089
2136.97269	0.18104
2135.04401	0.18119
2133.11534	0.18134
2131.18666	0.18147
2129.25799	0.18161
2127.32931	0.18176
2125.40064	0.18192
2123.47196	0.18208
2121.54328	0.18224
2119.61461	0.18238
2117.68593	0.18249
2115.75726	0.18262
2113.82858	0.18275
2111.89991	0.18289
2109.97123	0.18304
2108.04255	0.18318
2106.11388	0.18332
2104.18520	0.18350
2102.25653	0.18367
2100.32785	0.18379
2098.39918	0.18389
2096.47050	0.18401
2094.54182	0.18413
2092.61315	0.18425
2090.68447	0.18442
2088.75580	0.18460
2086.82712	0.18474
2084.89845	0.18483
2082.96977	0.18491
2081.04109	0.18501
2079.11242	0.18515
2077.18374	0.18530
2075.25507	0.18545
2073.32639	0.18562
2071.39772	0.18579
2069.46904	0.18593
2067.54036	0.18602
2065.61169	0.18609
2063.68301	0.18624
2061.75434	0.18643
2059.82566	0.18658
2057.89699	0.18669
2055.96831	0.18680
2054.03963	0.18693
2052.11096	0.18705
2050.18228	0.18716
2048.25361	0.18729
2046.32493	0.18743
2044.39626	0.18755
2042.46758	0.18766
2040.53890	0.18780
2038.61023	0.18797
2036.68155	0.18812
2034.75288	0.18825
2032.82420	0.18835
2030.89553	0.18845
2028.96685	0.18856
2027.03817	0.18870
2025.10950	0.18885
2023.18082	0.18902
2021.25215	0.18914
2019.32347	0.18920
2017.39480	0.18931
2015.46612	0.18949
2013.53744	0.18967
2011.60877	0.18979
2009.68009	0.18990
2007.75142	0.19005
2005.82274	0.19020
2003.89407	0.19034
2001.96539	0.19046
2000.03671	0.19056
1998.10804	0.19063
1996.17936	0.19071
1994.25069	0.19080
1992.32201	0.19093
1990.39334	0.19109
1988.46466	0.19124
1986.53598	0.19137
1984.60731	0.19149
1982.67863	0.19156
1980.74996	0.19168
1978.82128	0.19184
1976.89261	0.19199
1974.96393	0.19212
1973.03525	0.19224
1971.10658	0.19231
1969.17790	0.19233
1967.24923	0.19237
1965.32055	0.19250
1963.39188	0.19265
1961.46320	0.19280
1959.53452	0.19296
1957.60585	0.19313
1955.67717	0.19329
1953.74850	0.19342
1951.81982	0.19353
1949.89115	0.19365
1947.96247	0.19377
1946.03379	0.19383
1944.10512	0.19383
1942.17644	0.19391
1940.24777	0.19413
1938.31909	0.19434
1936.39042	0.19450
1934.46174	0.19467
1932.53306	0.19484
1930.60439	0.19495
1928.67571	0.19503
1926.74704	0.19512
1924.81836	0.19518
1922.88969	0.19526
1920.96101	0.19536
1919.03233	0.19543
1917.10366	0.19560
1915.17498	0.19588
1913.24631	0.19605
1911.31763	0.19608
1909.38896	0.19613
1907.46028	0.19627
1905.53160	0.19646
1903.60293	0.19662
1901.67425	0.19676
1899.74558	0.19689
1897.81690	0.19700
1895.88823	0.19713
1893.95955	0.19726
1892.03087	0.19732
1890.10220	0.19732
1888.17352	0.19743
1886.24485	0.19760
1884.31617	0.19773
1882.38750	0.19788
1880.45882	0.19801
1878.53014	0.19811
1876.60147	0.19820
1874.67279	0.19829
1872.74412	0.19830
1870.81544	0.19820
1868.88677	0.19817
1866.95809	0.19842
1865.02941	0.19878
1863.10074	0.19904
1861.17206	0.19920
1859.24339	0.19934
1857.31471	0.19951
1855.38604	0.19969
1853.45736	0.19984
1851.52868	0.19994
1849.60001	0.19998
1847.67133	0.19994
1845.74266	0.19982
1843.81398	0.19988
1841.88531	0.20026
1839.95663	0.20066
1838.02795	0.20089
1836.09928	0.20105
1834.17060	0.20115
1832.24193	0.20111
1830.31325	0.20104
1828.38458	0.20117
1826.45590	0.20139
1824.52722	0.20161
1822.59855	0.20186
1820.66987	0.20209
1818.74120	0.20226
1816.81252	0.20242
1814.88385	0.20256
1812.95517	0.20261
1811.02649	0.20266
1809.09782	0.20281
1807.16914	0.20301
1805.24047	0.20311
1803.31179	0.20304
1801.38312	0.20296
1799.45444	0.20307
1797.52576	0.20329
1795.59709	0.20334
1793.66841	0.20319
1791.73974	0.20322
1789.81106	0.20357
1787.88239	0.20385
1785.95371	0.20389
1784.02503	0.20391
1782.09636	0.20398
1780.16768	0.20410
1778.23901	0.20427
1776.31033	0.20431
1774.38166	0.20410
1772.45298	0.20390
1770.52430	0.20396
1768.59563	0.20422
1766.66695	0.20455
1764.73828	0.20474
1762.80960	0.20468
1760.88093	0.20465
1758.95225	0.20472
1757.02357	0.20476
1755.09490	0.20473
1753.16622	0.20445
1751.23755	0.20406
1749.30887	0.20397
1747.38020	0.20413
1745.45152	0.20428
1743.52284	0.20431
1741.59417	0.20424
1739.66549	0.20418
1737.73682	0.20403
1735.80814	0.20362
1733.87947	0.20341
1731.95079	0.20381
1730.02211	0.20435
1728.09344	0.20471
1726.16476	0.20491
1724.23609	0.20498
1722.30741	0.20497
1720.37874	0.20474
1718.45006	0.20441
1716.52138	0.20445
1714.59271	0.20492
1712.66403	0.20542
1710.73536	0.20567
1708.80668	0.20563
1706.87801	0.20544
1704.94933	0.20525
1703.02065	0.20492
1701.09198	0.20452
1699.16330	0.20453
1697.23463	0.20483
1695.30595	0.20516
1693.37728	0.20557
1691.44860	0.20578
1689.51992	0.20567
1687.59125	0.20535
1685.66257	0.20488
1683.73390	0.20473
1681.80522	0.20509
1679.87655	0.20544
1677.94787	0.20539
1676.01919	0.20520
1674.09052	0.20518
1672.16184	0.20516
1670.23317	0.20506
1668.30449	0.20522
1666.37582	0.20553
1664.44714	0.20557
1662.51846	0.20556
1660.58979	0.20575
1658.66111	0.20586
1656.73244	0.20544
1654.80376	0.20457
1652.87509	0.20422
1650.94641	0.20469
1649.01773	0.20498
1647.08906	0.20495
1645.16038	0.20525
1643.23171	0.20570
1641.30303	0.20586
1639.37436	0.20561
1637.44568	0.20512
1635.51700	0.20496
1633.58833	0.20537
1631.65965	0.20579
1629.73098	0.20580
1627.80230	0.20564
1625.87363	0.20541
1623.94495	0.20501
1622.01627	0.20464
1620.08760	0.20449
1618.15892	0.20462
1616.23025	0.20521
1614.30157	0.20605
1612.37290	0.20667
1610.44422	0.20698
1608.51554	0.20726
1606.58687	0.20756
1604.65819	0.20780
1602.72952	0.20799
1600.80084	0.20818
1598.87217	0.20836
1596.94349	0.20852
1595.01481	0.20867
1593.08614	0.20885
1591.15746	0.20904
1589.22879	0.20918
1587.30011	0.20929
1585.37144	0.20941
1583.44276	0.20957
1581.51408	0.20974
1579.58541	0.20974
1577.65673	0.20952
1575.72806	0.20950
1573.79938	0.20978
1571.87071	0.20985
1569.94203	0.20976
1568.01335	0.20994
1566.08468	0.21022
1564.15600	0.21028
1562.22733	0.20989
1560.29865	0.20916
1558.36998	0.20898
1556.44130	0.20963
1554.51262	0.21035
1552.58395	0.21070
1550.65527	0.21086
1548.72660	0.21101
1546.79792	0.21100
1544.86925	0.21064
1542.94057	0.21014
1541.01189	0.20987
1539.08322	0.21019
1537.15454	0.21079
1535.22587	0.21102
1533.29719	0.21105
1531.36852	0.21126
1529.43984	0.21137
1527.51116	0.21118
1525.58249	0.21092
1523.65381	0.21054
1521.72514	0.21020
1519.79646	0.21026
1517.86779	0.21056
1515.93911	0.21085
1514.01043	0.21108
1512.08176	0.21108
1510.15308	0.21074
1508.22441	0.21031
1506.29573	0.21036
1504.36706	0.21102
1502.43838	0.21149
1500.50970	0.21135
1498.58103	0.21105
1496.65235	0.21104
1494.72368	0.21122
1492.79500	0.21111
1490.86633	0.21069
1488.93765	0.21046
1487.00897	0.21057
1485.08030	0.21071
1483.15162	0.21067
1481.22295	0.21049
1479.29427	0.21016
1477.36560	0.20959
1475.43692	0.20889
1473.50824	0.20828
1471.57957	0.20800
1469.65089	0.20795
1467.72222	0.20768
1465.79354	0.20721
1463.86487	0.20700
1461.93619	0.20688
1460.00751	0.20630
1458.07884	0.20547
1456.15016	0.20530
1454.22149	0.20579
1452.29281	0.20615
1450.36414	0.20616
1448.43546	0.20610
1446.50678	0.20614
1444.57811	0.20627
1442.64943	0.20640
1440.72076	0.20636
1438.79208	0.20604
1436.86341	0.20583
1434.93473	0.20617
1433.00605	0.20662
1431.07738	0.20677
1429.14870	0.20683
1427.22003	0.20691
1425.29135	0.20687
1423.36268	0.20672
1421.43400	0.20641
1419.50532	0.20610
1417.57665	0.20620
1415.64797	0.20654
1413.71930	0.20666
1411.79062	0.20660
1409.86195	0.20654
1407.93327	0.20645
1406.00459	0.20629
1404.07592	0.20620
1402.14724	0.20609
1400.21857	0.20577
1398.28989	0.20544
1396.36122	0.20523
1394.43254	0.20518
1392.50386	0.20526
1390.57519	0.20512
1388.64651	0.20461
1386.71784	0.20409
1384.78916	0.20388
1382.86049	0.20389
1380.93181	0.20394
1379.00313	0.20396
1377.07446	0.20388
1375.14578	0.20370
1373.21711	0.20359
1371.28843	0.20360
1369.35976	0.20355
1367.43108	0.20342
1365.50240	0.20323
1363.57373	0.20299
1361.64505	0.20283
1359.71638	0.20285
1357.78770	0.20291
1355.85903	0.20288
1353.93035	0.20283
1352.00167	0.20284
1350.07300	0.20285
1348.14432	0.20284
1346.21565	0.20284
1344.28697	0.20279
1342.35830	0.20258
1340.42962	0.20223
1338.50094	0.20196
1336.57227	0.20188
1334.64359	0.20180
1332.71492	0.20161
1330.78624	0.20134
1328.85757	0.20106
1326.92889	0.20076
1325.00021	0.20045
1323.07154	0.20011
1321.14286	0.19970
1319.21419	0.19928
1317.28551	0.19895
1315.35684	0.19869
1313.42816	0.19839
1311.49948	0.19802
1309.57081	0.19763
1307.64213	0.19723
1305.71346	0.19684
1303.78478	0.19642
1301.85611	0.19597
1299.92743	0.19554
1297.99875	0.19516
1296.07008	0.19479
1294.14140	0.19439
1292.21273	0.19396
1290.28405	0.19349
1288.35538	0.19303
1286.42670	0.19261
1284.49802	0.19217
1282.56935	0.19166
1280.64067	0.19111
1278.71200	0.19053
1276.78332	0.18989
1274.85465	0.18913
1272.92597	0.18820
1270.99729	0.18711
1269.06862	0.18586
1267.13994	0.18446
1265.21127	0.18311
1263.28259	0.18202
1261.35392	0.18121
1259.42524	0.18062
1257.49656	0.18011
1255.56789	0.17955
1253.63921	0.17882
1251.71054	0.17799
1249.78186	0.17706
1247.85319	0.17601
1245.92451	0.17489
1243.99583	0.17371
1242.06716	0.17246
1240.13848	0.17119
1238.20981	0.16996
1236.28113	0.16874
1234.35246	0.16746
1232.42378	0.16614
1230.49510	0.16485
1228.56643	0.16365
1226.63775	0.16248
1224.70908	0.16132
1222.78040	0.16018
1220.85173	0.15903
1218.92305	0.15786
1216.99437	0.15672
1215.06570	0.15561
1213.13702	0.15447
1211.20835	0.15330
1209.27967	0.15217
1207.35100	0.15112
1205.42232	0.15002
1203.49364	0.14891
1201.56497	0.14788
1199.63629	0.14685
1197.70762	0.14573
1195.77894	0.14461
1193.85027	0.14357
1191.92159	0.14253
1189.99291	0.14139
1188.06424	0.14026
1186.13556	0.13913
1184.20689	0.13794
1182.27821	0.13670
1180.34954	0.13546
1178.42086	0.13426
1176.49218	0.13311
1174.56351	0.13197
1172.63483	0.13077
1170.70616	0.12953
1168.77748	0.12831
1166.84881	0.12716
1164.92013	0.12605
1162.99145	0.12492
1161.06278	0.12382
1159.13410	0.12275
1157.20543	0.12167
1155.27675	0.12059
1153.34808	0.11953
1151.41940	0.11851
1149.49072	0.11749
1147.56205	0.11640
1145.63337	0.11529
1143.70470	0.11418
1141.77602	0.11303
1139.84735	0.11184
1137.91867	0.11058
1135.98999	0.10922
1134.06132	0.10773
1132.13264	0.10612
1130.20397	0.10433
1128.27529	0.10234
1126.34662	0.10019
1124.41794	0.09790
1122.48926	0.09553
1120.56059	0.09308
1118.63191	0.09056
1116.70324	0.08802
1114.77456	0.08549
1112.84589	0.08298
1110.91721	0.08045
1108.98853	0.07787
1107.05986	0.07522
1105.13118	0.07249
1103.20251	0.06971
1101.27383	0.06699
1099.34516	0.06445
1097.41648	0.06212
1095.48780	0.05998
1093.55913	0.05799
1091.63045	0.05613
1089.70178	0.05442
1087.77310	0.05293
1085.84443	0.05167
1083.91575	0.05063
1081.98707	0.04975
1080.05840	0.04899
1078.12972	0.04836
1076.20105	0.04789
1074.27237	0.04758
1072.34370	0.04746
1070.41502	0.04745
1068.48634	0.04750
1066.55767	0.04771
1064.62899	0.04811
1062.70032	0.04862
1060.77164	0.04921
1058.84297	0.04985
1056.91429	0.05056
1054.98561	0.05138
1053.05694	0.05229
1051.12826	0.05327
1049.19959	0.05435
1047.27091	0.05552
1045.34224	0.05679
1043.41356	0.05816
1041.48488	0.05963
1039.55621	0.06123
1037.62753	0.06300
1035.69886	0.06488
1033.77018	0.06680
1031.84151	0.06883
1029.91283	0.07103
1027.98415	0.07337
1026.05548	0.07583
1024.12680	0.07848
1022.19813	0.08136
1020.26945	0.08438
1018.34078	0.08745
1016.41210	0.09065
1014.48342	0.09404
1012.55475	0.09754
1010.62607	0.10111
1008.69740	0.10473
1006.76872	0.10834
1004.84005	0.11182
1002.91137	0.11508
1000.98269	0.11811
999.05402	0.12102
997.12534	0.12378
995.19667	0.12631
993.26799	0.12860
991.33932	0.13061
989.41064	0.13237
987.48196	0.13390
985.55329	0.13523
983.62461	0.13635
981.69594	0.13726
979.76726	0.13795
977.83859	0.13845
975.90991	0.13881
973.98123	0.13908
972.05256	0.13929
970.12388	0.13945
968.19521	0.13952
966.26653	0.13946
964.33786	0.13937
962.40918	0.13934
960.48050	0.13937
958.55183	0.13938
956.62315	0.13932
954.69448	0.13917
952.76580	0.13896
950.83713	0.13881
948.90845	0.13873
946.97977	0.13854
945.05110	0.13821
943.12242	0.13782
941.19375	0.13743
939.26507	0.13703
937.33640	0.13666
935.40772	0.13628
933.47904	0.13583
931.55037	0.13532
929.62169	0.13479
927.69302	0.13426
925.76434	0.13378
923.83567	0.13337
921.90699	0.13293
919.97831	0.13234
918.04964	0.13169
916.12096	0.13107
914.19229	0.13044
912.26361	0.12972
910.33494	0.12895
908.40626	0.12826
906.47758	0.12779
904.54891	0.12750
902.62023	0.12715
900.69156	0.12662
898.76288	0.12609
896.83421	0.12568
894.90553	0.12531
892.97685	0.12491
891.04818	0.12455
889.11950	0.12425
887.19083	0.12395
885.26215	0.12367
883.33348	0.12336
881.40480	0.12304
879.47612	0.12276
877.54745	0.12254
875.61877	0.12237
873.69010	0.12213
871.76142	0.12178
869.83275	0.12142
867.90407	0.12107
865.97539	0.12073
864.04672	0.12041
862.11804	0.12006
860.18937	0.11965
858.26069	0.11919
856.33202	0.11866
854.40334	0.11809
852.47466	0.11747
850.54599	0.11676
848.61731	0.11599
846.68864	0.11523
844.75996	0.11448
842.83129	0.11370
840.90261	0.11290
838.97394	0.11206
837.04526	0.11121
835.11658	0.11026
833.18791	0.10916
831.25923	0.10793
829.33056	0.10662
827.40188	0.10529
825.47321	0.10400
823.54453	0.10284
821.61585	0.10192
819.68718	0.10118
817.75850	0.10051
815.82983	0.09991
813.90115	0.09941
811.97248	0.09899
810.04380	0.09864
808.11512	0.09841
806.18645	0.09836
804.25777	0.09840
802.32910	0.09843
800.40042	0.09838
798.47175	0.09825
796.54307	0.09808
794.61439	0.09789
792.68572	0.09775
790.75704	0.09777
788.82837	0.09792
786.89969	0.09810
784.97102	0.09829
783.04234	0.09850
781.11366	0.09873
779.18499	0.09900
777.25631	0.09922
775.32764	0.09940
773.39896	0.09959
771.47029	0.09971
769.54161	0.09965
767.61293	0.09950
765.68426	0.09935
763.75558	0.09914
761.82691	0.09884
759.89823	0.09851
757.96956	0.09813
756.04088	0.09766
754.11220	0.09715
752.18353	0.09665
750.25485	0.09610
748.32618	0.09547
746.39750	0.09476
744.46883	0.09395
742.54015	0.09303
740.61147	0.09228
738.68280	0.09188
736.75412	0.09172
734.82545	0.09166
732.89677	0.09173
730.96810	0.09188
729.03942	0.09196
727.11074	0.09194
725.18207	0.09199
723.25339	0.09218
721.32472	0.09242
719.39604	0.09258
717.46737	0.09277
715.53869	0.09319
713.61001	0.09373
711.68134	0.09407
709.75266	0.09417
707.82399	0.09417
705.89531	0.09416
703.96664	0.09408
702.03796	0.09387
700.10928	0.09352
698.18061	0.09309
696.25193	0.09257
694.32326	0.09191
692.39458	0.09118
690.46591	0.09050
688.53723	0.09000
686.60855	0.08964
684.67988	0.08922
682.75120	0.08866
680.82253	0.08804
678.89385	0.08744
676.96518	0.08685
675.03650	0.08621
673.10782	0.08549
671.17915	0.08462
669.25047	0.08362
667.32180	0.08275
665.39312	0.08206
663.46445	0.08116
661.53577	0.07992
659.60709	0.07863
657.67842	0.07756
655.74974	0.07678
653.82107	0.07621
651.89239	0.07565
649.96372	0.07494
648.03504	0.07417
646.10636	0.07337
644.17769	0.07247
642.24901	0.07151
640.32034	0.07064
638.39166	0.06981
636.46299	0.06881
634.53431	0.06764
632.60563	0.06618
630.67696	0.06395
628.74828	0.06053
626.81961	0.05622
624.89093	0.05199
622.96226	0.04859
621.03358	0.04643
619.10490	0.04530
617.17623	0.04457
615.24755	0.04377
613.31888	0.04268
611.39020	0.04153
609.46153	0.04091
607.53285	0.04096
605.60417	0.04129
603.67550	0.04177
601.74682	0.04257
599.81815	0.04359
597.88947	0.04441
595.96080	0.04492
594.03212	0.04531
592.10344	0.04566
590.17477	0.04581
588.24609	0.04570
586.31742	0.04549
584.38874	0.04529
582.46007	0.04508
580.53139	0.04475
578.60271	0.04426
576.67404	0.04374
574.74536	0.04328
572.81669	0.04281
570.88801	0.04219
568.95934	0.04144
567.03066	0.04077
565.10198	0.04031
563.17331	0.04008
561.24463	0.03996
559.31596	0.03977
557.38728	0.03947
555.45861	0.03918
553.52993	0.03900
551.60125	0.03887
549.67258	0.03867
547.74390	0.03845
545.81523	0.03829
543.88655	0.03820
541.95788	0.03819
540.02920	0.03810
538.10052	0.03783
536.17185	0.03750
534.24317	0.03721
532.31450	0.03702
530.38582	0.03683
528.45715	0.03654
526.52847	0.03621
524.59979	0.03590
522.67112	0.03554
520.74244	0.03504
518.81377	0.03440
516.88509	0.03373
514.95642	0.03309
513.02774	0.03258
511.09906	0.03222
509.17039	0.03194
507.24171	0.03170
505.31304	0.03140
503.38436	0.03090
501.45569	0.03030
499.52701	0.02974
497.59833	0.02911
495.66966	0.02838
493.74098	0.02762
491.81231	0.02688
489.88363	0.02621
487.95496	0.02557
486.02628	0.02484
484.09760	0.02399
482.16893	0.02317
480.24025	0.02246
478.31158	0.02177
476.38290	0.02099
474.45423	0.02016
472.52555	0.01933
470.59687	0.01866
468.66820	0.01809
466.73952	0.01757
464.81085	0.01719
462.88217	0.01695
460.95350	0.01671
459.02482	0.01641
457.09614	0.01615
455.16747	0.01605
453.23879	0.01608
451.31012	0.01609
449.38144	0.01604
447.45277	0.01594
445.52409	0.01583
443.59541	0.01577
441.66674	0.01577
439.73806	0.01577
437.80939	0.01562
435.88071	0.01525
433.95204	0.01481
432.02336	0.01443
430.09468	0.01413
428.16601	0.01400
426.23733	0.01393
424.30866	0.01367
422.37998	0.01318
420.45131	0.01263
418.52263	0.01214
416.59395	0.01175
414.66528	0.01145
412.73660	0.01109
410.80793	0.01063
408.87925	0.01018
406.95058	0.00969
405.02190	0.00909
403.09322	0.00853
401.16455	0.00817
399.23587	0.00792
397.30720	0.00756
395.37852	0.00708
393.44985	0.00660
391.52117	0.00611
389.59249	0.00563
387.66382	0.00528
385.73514	0.00505
383.80647	0.00485
381.87779	0.00457
379.94912	0.00416
378.02044	0.00379
376.09176	0.00354
374.16309	0.00326
372.23441	0.00295
370.30574	0.00265
368.37706	0.00246
