7496.76250	0.00119
7494.83382	0.00120
7492.90514	0.00120
7490.97647	0.00120
7489.04779	0.00120
7487.11912	0.00120
7485.19044	0.00120
7483.26177	0.00121
7481.33309	0.00123
7479.40441	0.00125
7477.47574	0.00125
7475.54706	0.00123
7473.61839	0.00122
7471.68971	0.00123
7469.76104	0.00123
7467.83236	0.00123
7465.90368	0.00124
7463.97501	0.00126
7462.04633	0.00126
7460.11766	0.00125
7458.18898	0.00124
7456.26031	0.00124
7454.33163	0.00124
7452.40295	0.00125
7450.47428	0.00127
7448.54560	0.00128
7446.61693	0.00129
7444.68825	0.00129
7442.75958	0.00131
7440.83090	0.00132
7438.90222	0.00133
7436.97355	0.00132
7435.04487	0.00132
7433.11620	0.00131
7431.18752	0.00132
7429.25885	0.00131
7427.33017	0.00131
7425.40149	0.00131
7423.47282	0.00132
7421.54414	0.00132
7419.61547	0.00133
7417.68679	0.00134
7415.75812	0.00133
7413.82944	0.00133
7411.90076	0.00131
7409.97209	0.00129
7408.04341	0.00130
7406.11474	0.00133
7404.18606	0.00135
7402.25739	0.00137
7400.32871	0.00138
7398.40003	0.00137
7396.47136	0.00136
7394.54268	0.00135
7392.61401	0.00136
7390.68533	0.00137
7388.75666	0.00140
7386.82798	0.00140
7384.89930	0.00141
7382.97063	0.00142
7381.04195	0.00142
7379.11328	0.00140
7377.18460	0.00139
7375.25593	0.00139
7373.32725	0.00140
7371.39857	0.00141
7369.46990	0.00142
7367.54122	0.00143
7365.61255	0.00143
7363.68387	0.00143
7361.75520	0.00143
7359.82652	0.00142
7357.89784	0.00143
7355.96917	0.00145
7354.04049	0.00147
7352.11182	0.00147
7350.18314	0.00146
7348.25447	0.00145
7346.32579	0.00146
7344.39711	0.00147
7342.46844	0.00145
7340.53976	0.00144
7338.61109	0.00146
7336.68241	0.00148
7334.75374	0.00148
7332.82506	0.00147
7330.89638	0.00148
7328.96771	0.00149
7327.03903	0.00150
7325.11036	0.00149
7323.18168	0.00149
7321.25301	0.00150
7319.32433	0.00150
7317.39565	0.00149
7315.46698	0.00150
7313.53830	0.00151
7311.60963	0.00151
7309.68095	0.00152
7307.75228	0.00152
7305.82360	0.00153
7303.89492	0.00155
7301.96625	0.00155
7300.03757	0.00155
7298.10890	0.00155
7296.18022	0.00155
7294.25155	0.00156
7292.32287	0.00156
7290.39419	0.00157
7288.46552	0.00158
7286.53684	0.00159
7284.60817	0.00159
7282.67949	0.00158
7280.75082	0.00158
7278.82214	0.00158
7276.89346	0.00159
7274.96479	0.00160
7273.03611	0.00161
7271.10744	0.00161
7269.17876	0.00162
7267.25009	0.00162
7265.32141	0.00162
7263.39273	0.00163
7261.46406	0.00162
7259.53538	0.00162
7257.60671	0.00164
7255.67803	0.00165
7253.74936	0.00165
7251.82068	0.00163
7249.89200	0.00163
7247.96333	0.00165
7246.03465	0.00166
7244.10598	0.00165
7242.17730	0.00164
7240.24863	0.00165
7238.31995	0.00166
7236.39127	0.00166
7234.46260	0.00167
7232.53392	0.00169
7230.60525	0.00170
7228.67657	0.00171
7226.74790	0.00172
7224.81922	0.00172
7222.89054	0.00171
7220.96187	0.00171
7219.03319	0.00172
7217.10452	0.00171
7215.17584	0.00170
7213.24717	0.00170
7211.31849	0.00172
7209.38981	0.00173
7207.46114	0.00173
7205.53246	0.00173
7203.60379	0.00172
7201.67511	0.00172
7199.74644	0.00173
7197.81776	0.00175
7195.88908	0.00177
7193.96041	0.00178
7192.03173	0.00178
7190.10306	0.00178
7188.17438	0.00179
7186.24571	0.00179
7184.31703	0.00178
7182.38835	0.00177
7180.45968	0.00178
7178.53100	0.00178
7176.60233	0.00178
7174.67365	0.00179
7172.74498	0.00180
7170.81630	0.00181
7168.88762	0.00182
7166.95895	0.00184
7165.03027	0.00184
7163.10160	0.00184
7161.17292	0.00183
7159.24425	0.00183
7157.31557	0.00182
7155.38689	0.00183
7153.45822	0.00183
7151.52954	0.00183
7149.60087	0.00185
7147.67219	0.00186
7145.74352	0.00185
7143.81484	0.00185
7141.88616	0.00185
7139.95749	0.00185
7138.02881	0.00186
7136.10014	0.00187
7134.17146	0.00188
7132.24279	0.00189
7130.31411	0.00189
7128.38543	0.00188
7126.45676	0.00189
7124.52808	0.00191
7122.59941	0.00193
7120.67073	0.00193
7118.74206	0.00194
7116.81338	0.00194
7114.88470	0.00194
7112.95603	0.00194
7111.02735	0.00194
7109.09868	0.00194
7107.17000	0.00194
7105.24133	0.00195
7103.31265	0.00196
7101.38397	0.00196
7099.45530	0.00196
7097.52662	0.00196
7095.59795	0.00196
7093.66927	0.00196
7091.74060	0.00196
7089.81192	0.00197
7087.88324	0.00198
7085.95457	0.00200
7084.02589	0.00202
7082.09722	0.00203
7080.16854	0.00203
7078.23987	0.00203
7076.31119	0.00205
7074.38251	0.00206
7072.45384	0.00206
7070.52516	0.00205
7068.59649	0.00204
7066.66781	0.00206
7064.73914	0.00207
7062.81046	0.00207
7060.88178	0.00207
7058.95311	0.00207
7057.02443	0.00207
7055.09576	0.00207
7053.16708	0.00208
7051.23841	0.00209
7049.30973	0.00210
7047.38105	0.00210
7045.45238	0.00209
7043.52370	0.00209
7041.59503	0.00209
7039.66635	0.00211
7037.73768	0.00212
7035.80900	0.00214
7033.88032	0.00214
7031.95165	0.00214
7030.02297	0.00214
7028.09430	0.00214
7026.16562	0.00214
7024.23695	0.00214
7022.30827	0.00215
7020.37959	0.00217
7018.45092	0.00217
7016.52224	0.00216
7014.59357	0.00216
7012.66489	0.00218
7010.73622	0.00219
7008.80754	0.00218
7006.87886	0.00216
7004.95019	0.00216
7003.02151	0.00217
7001.09284	0.00219
6999.16416	0.00220
6997.23549	0.00221
6995.30681	0.00221
6993.37813	0.00222
6991.44946	0.00223
6989.52078	0.00224
6987.59211	0.00224
6985.66343	0.00225
6983.73476	0.00225
6981.80608	0.00226
6979.87740	0.00226
6977.94873	0.00225
6976.02005	0.00225
6974.09138	0.00227
6972.16270	0.00228
6970.23403	0.00229
6968.30535	0.00230
6966.37667	0.00230
6964.44800	0.00230
6962.51932	0.00231
6960.59065	0.00232
6958.66197	0.00233
6956.73330	0.00234
6954.80462	0.00233
6952.87594	0.00233
6950.94727	0.00233
6949.01859	0.00233
6947.08992	0.00234
6945.16124	0.00235
6943.23257	0.00235
6941.30389	0.00235
6939.37521	0.00236
6937.44654	0.00238
6935.51786	0.00239
6933.58919	0.00239
6931.66051	0.00238
6929.73184	0.00238
6927.80316	0.00240
6925.87448	0.00241
6923.94581	0.00242
6922.01713	0.00243
6920.08846	0.00243
6918.15978	0.00245
6916.23111	0.00246
6914.30243	0.00248
6912.37375	0.00248
6910.44508	0.00248
6908.51640	0.00248
6906.58773	0.00249
6904.65905	0.00249
6902.73038	0.00248
6900.80170	0.00248
6898.87302	0.00249
6896.94435	0.00251
6895.01567	0.00252
6893.08700	0.00251
6891.15832	0.00251
6889.22965	0.00250
6887.30097	0.00250
6885.37229	0.00252
6883.44362	0.00253
6881.51494	0.00254
6879.58627	0.00254
6877.65759	0.00255
6875.72892	0.00255
6873.80024	0.00255
6871.87156	0.00256
6869.94289	0.00257
6868.01421	0.00258
6866.08554	0.00259
6864.15686	0.00259
6862.22819	0.00259
6860.29951	0.00261
6858.37083	0.00263
6856.44216	0.00262
6854.51348	0.00261
6852.58481	0.00262
6850.65613	0.00262
6848.72746	0.00262
6846.79878	0.00261
6844.87010	0.00262
6842.94143	0.00264
6841.01275	0.00267
6839.08408	0.00270
6837.15540	0.00271
6835.22673	0.00271
6833.29805	0.00271
6831.36937	0.00271
6829.44070	0.00271
6827.51202	0.00270
6825.58335	0.00270
6823.65467	0.00272
6821.72600	0.00274
6819.79732	0.00275
6817.86864	0.00275
6815.93997	0.00275
6814.01129	0.00276
6812.08262	0.00276
6810.15394	0.00275
6808.22527	0.00275
6806.29659	0.00276
6804.36791	0.00276
6802.43924	0.00276
6800.51056	0.00277
6798.58189	0.00279
6796.65321	0.00279
6794.72454	0.00280
6792.79586	0.00283
6790.86718	0.00285
6788.93851	0.00283
6787.00983	0.00281
6785.08116	0.00280
6783.15248	0.00282
6781.22381	0.00284
6779.29513	0.00286
6777.36645	0.00288
6775.43778	0.00287
6773.50910	0.00288
6771.58043	0.00288
6769.65175	0.00288
6767.72308	0.00289
6765.79440	0.00290
6763.86572	0.00290
6761.93705	0.00290
6760.00837	0.00291
6758.07970	0.00292
6756.15102	0.00292
6754.22235	0.00292
6752.29367	0.00292
6750.36499	0.00293
6748.43632	0.00294
6746.50764	0.00296
6744.57897	0.00297
6742.65029	0.00296
6740.72162	0.00295
6738.79294	0.00295
6736.86426	0.00295
6734.93559	0.00297
6733.00691	0.00299
6731.07824	0.00302
6729.14956	0.00304
6727.22089	0.00305
6725.29221	0.00305
6723.36353	0.00305
6721.43486	0.00305
6719.50618	0.00306
6717.57751	0.00306
6715.64883	0.00306
6713.72016	0.00307
6711.79148	0.00309
6709.86280	0.00311
6707.93413	0.00311
6706.00545	0.00312
6704.07678	0.00313
6702.14810	0.00312
6700.21943	0.00312
6698.29075	0.00314
6696.36207	0.00315
6694.43340	0.00315
6692.50472	0.00315
6690.57605	0.00316
6688.64737	0.00317
6686.71870	0.00318
6684.79002	0.00319
6682.86134	0.00319
6680.93267	0.00320
6679.00399	0.00319
6677.07532	0.00319
6675.14664	0.00319
6673.21797	0.00322
6671.28929	0.00323
6669.36061	0.00323
6667.43194	0.00324
6665.50326	0.00326
6663.57459	0.00326
6661.64591	0.00326
6659.71724	0.00327
6657.78856	0.00329
6655.85988	0.00330
6653.93121	0.00331
6652.00253	0.00332
6650.07386	0.00333
6648.14518	0.00333
6646.21651	0.00332
6644.28783	0.00334
6642.35915	0.00335
6640.43048	0.00336
6638.50180	0.00336
6636.57313	0.00336
6634.64445	0.00337
6632.71578	0.00337
6630.78710	0.00337
6628.85842	0.00337
6626.92975	0.00337
6625.00107	0.00338
6623.07240	0.00340
6621.14372	0.00343
6619.21505	0.00344
6617.28637	0.00344
6615.35769	0.00345
6613.42902	0.00346
6611.50034	0.00347
6609.57167	0.00348
6607.64299	0.00349
6605.71432	0.00348
6603.78564	0.00347
6601.85696	0.00349
6599.92829	0.00351
6597.99961	0.00352
6596.07094	0.00351
6594.14226	0.00350
6592.21359	0.00350
6590.28491	0.00351
6588.35623	0.00352
6586.42756	0.00355
6584.49888	0.00357
6582.57021	0.00359
6580.64153	0.00359
6578.71286	0.00358
6576.78418	0.00358
6574.85550	0.00359
6572.92683	0.00362
6570.99815	0.00366
6569.06948	0.00368
6567.14080	0.00367
6565.21213	0.00365
6563.28345	0.00366
6561.35477	0.00366
6559.42610	0.00367
6557.49742	0.00368
6555.56875	0.00370
6553.64007	0.00370
6551.71140	0.00369
6549.78272	0.00371
6547.85404	0.00370
6545.92537	0.00369
6543.99669	0.00372
6542.06802	0.00375
6540.13934	0.00376
6538.21067	0.00377
6536.28199	0.00377
6534.35331	0.00378
6532.42464	0.00379
6530.49596	0.00379
6528.56729	0.00379
6526.63861	0.00381
6524.70994	0.00382
6522.78126	0.00383
6520.85258	0.00383
6518.92391	0.00386
6516.99523	0.00388
6515.06656	0.00390
6513.13788	0.00390
6511.20921	0.00390
6509.28053	0.00389
6507.35185	0.00388
6505.42318	0.00387
6503.49450	0.00388
6501.56583	0.00390
6499.63715	0.00392
6497.70848	0.00393
6495.77980	0.00394
6493.85112	0.00396
6491.92245	0.00397
6489.99377	0.00398
6488.06510	0.00399
6486.13642	0.00400
6484.20775	0.00400
6482.27907	0.00400
6480.35039	0.00400
6478.42172	0.00402
6476.49304	0.00404
6474.56437	0.00406
6472.63569	0.00408
6470.70702	0.00409
6468.77834	0.00409
6466.84966	0.00409
6464.92099	0.00409
6462.99231	0.00409
6461.06364	0.00409
6459.13496	0.00410
6457.20629	0.00411
6455.27761	0.00411
6453.34893	0.00410
6451.42026	0.00411
6449.49158	0.00413
6447.56291	0.00416
6445.63423	0.00418
6443.70556	0.00419
6441.77688	0.00419
6439.84820	0.00419
6437.91953	0.00420
6435.99085	0.00421
6434.06218	0.00423
6432.13350	0.00425
6430.20483	0.00427
6428.27615	0.00428
6426.34747	0.00429
6424.41880	0.00430
6422.49012	0.00430
6420.56145	0.00431
6418.63277	0.00432
6416.70410	0.00433
6414.77542	0.00434
6412.84674	0.00436
6410.91807	0.00436
6408.98939	0.00437
6407.06072	0.00438
6405.13204	0.00437
6403.20337	0.00437
6401.27469	0.00437
6399.34601	0.00439
6397.41734	0.00441
6395.48866	0.00443
6393.55999	0.00444
6391.63131	0.00446
6389.70264	0.00448
6387.77396	0.00450
6385.84528	0.00450
6383.91661	0.00450
6381.98793	0.00451
6380.05926	0.00452
6378.13058	0.00454
6376.20191	0.00455
6374.27323	0.00456
6372.34455	0.00456
6370.41588	0.00456
6368.48720	0.00458
6366.55853	0.00458
6364.62985	0.00459
6362.70118	0.00459
6360.77250	0.00459
6358.84382	0.00460
6356.91515	0.00461
6354.98647	0.00462
6353.05780	0.00463
6351.12912	0.00464
6349.20045	0.00466
6347.27177	0.00467
6345.34309	0.00469
6343.41442	0.00470
6341.48574	0.00472
6339.55707	0.00473
6337.62839	0.00474
6335.69972	0.00475
6333.77104	0.00475
6331.84236	0.00476
6329.91369	0.00477
6327.98501	0.00477
6326.05634	0.00479
6324.12766	0.00480
6322.19899	0.00480
6320.27031	0.00481
6318.34163	0.00483
6316.41296	0.00486
6314.48428	0.00489
6312.55561	0.00489
6310.62693	0.00489
6308.69826	0.00488
6306.76958	0.00489
6304.84090	0.00491
6302.91223	0.00493
6300.98355	0.00495
6299.05488	0.00496
6297.12620	0.00497
6295.19753	0.00498
6293.26885	0.00499
6291.34017	0.00501
6289.41150	0.00502
6287.48282	0.00502
6285.55415	0.00503
6283.62547	0.00503
6281.69680	0.00504
6279.76812	0.00505
6277.83944	0.00506
6275.91077	0.00507
6273.98209	0.00507
6272.05342	0.00508
6270.12474	0.00510
6268.19607	0.00513
6266.26739	0.00516
6264.33871	0.00518
6262.41004	0.00518
6260.48136	0.00517
6258.55269	0.00517
6256.62401	0.00519
6254.69534	0.00520
6252.76666	0.00524
6250.83798	0.00527
6248.90931	0.00529
6246.98063	0.00530
6245.05196	0.00530
6243.12328	0.00530
6241.19461	0.00531
6239.26593	0.00531
6237.33725	0.00530
6235.40858	0.00531
6233.47990	0.00534
6231.55123	0.00537
6229.62255	0.00537
6227.69388	0.00537
6225.76520	0.00536
6223.83652	0.00538
6221.90785	0.00540
6219.97917	0.00541
6218.05050	0.00541
6216.12182	0.00542
6214.19315	0.00545
6212.26447	0.00548
6210.33579	0.00550
6208.40712	0.00551
6206.47844	0.00552
6204.54977	0.00553
6202.62109	0.00555
6200.69242	0.00556
6198.76374	0.00558
6196.83506	0.00560
6194.90639	0.00561
6192.97771	0.00561
6191.04904	0.00561
6189.12036	0.00563
6187.19169	0.00564
6185.26301	0.00565
6183.33433	0.00564
6181.40566	0.00565
6179.47698	0.00567
6177.54831	0.00570
6175.61963	0.00571
6173.69096	0.00571
6171.76228	0.00572
6169.83360	0.00573
6167.90493	0.00575
6165.97625	0.00578
6164.04758	0.00579
6162.11890	0.00579
6160.19023	0.00581
6158.26155	0.00584
6156.33287	0.00586
6154.40420	0.00587
6152.47552	0.00589
6150.54685	0.00590
6148.61817	0.00590
6146.68950	0.00592
6144.76082	0.00594
6142.83214	0.00596
6140.90347	0.00596
6138.97479	0.00596
6137.04612	0.00597
6135.11744	0.00599
6133.18877	0.00600
6131.26009	0.00601
6129.33141	0.00603
6127.40274	0.00606
6125.47406	0.00609
6123.54539	0.00609
6121.61671	0.00609
6119.68804	0.00610
6117.75936	0.00611
6115.83068	0.00613
6113.90201	0.00615
6111.97333	0.00616
6110.04466	0.00616
6108.11598	0.00617
6106.18731	0.00619
6104.25863	0.00621
6102.32995	0.00624
6100.40128	0.00625
6098.47260	0.00626
6096.54393	0.00625
6094.61525	0.00625
6092.68658	0.00628
6090.75790	0.00631
6088.82922	0.00632
6086.90055	0.00633
6084.97187	0.00634
6083.04320	0.00636
6081.11452	0.00637
6079.18585	0.00639
6077.25717	0.00642
6075.32849	0.00644
6073.39982	0.00645
6071.47114	0.00645
6069.54247	0.00646
6067.61379	0.00648
6065.68512	0.00649
6063.75644	0.00648
6061.82776	0.00648
6059.89909	0.00651
6057.97041	0.00654
6056.04174	0.00657
6054.11306	0.00659
6052.18439	0.00660
6050.25571	0.00660
6048.32703	0.00659
6046.39836	0.00660
6044.46968	0.00661
6042.54101	0.00663
6040.61233	0.00665
6038.68366	0.00668
6036.75498	0.00673
6034.82630	0.00677
6032.89763	0.00678
6030.96895	0.00678
6029.04028	0.00680
6027.11160	0.00681
6025.18293	0.00682
6023.25425	0.00683
6021.32557	0.00684
6019.39690	0.00686
6017.46822	0.00687
6015.53955	0.00688
6013.61087	0.00690
6011.68220	0.00693
6009.75352	0.00694
6007.82484	0.00695
6005.89617	0.00696
6003.96749	0.00697
6002.03882	0.00698
6000.11014	0.00699
5998.18147	0.00701
5996.25279	0.00703
5994.32411	0.00706
5992.39544	0.00707
5990.46676	0.00708
5988.53809	0.00710
5986.60941	0.00712
5984.68074	0.00713
5982.75206	0.00715
5980.82338	0.00718
5978.89471	0.00721
5976.96603	0.00721
5975.03736	0.00721
5973.10868	0.00721
5971.18001	0.00722
5969.25133	0.00726
5967.32265	0.00729
5965.39398	0.00731
5963.46530	0.00734
5961.53663	0.00735
5959.60795	0.00736
5957.67928	0.00736
5955.75060	0.00736
5953.82192	0.00737
5951.89325	0.00739
5949.96457	0.00741
5948.03590	0.00744
5946.10722	0.00746
5944.17855	0.00748
5942.24987	0.00751
5940.32119	0.00752
5938.39252	0.00752
5936.46384	0.00752
5934.53517	0.00755
5932.60649	0.00759
5930.67782	0.00762
5928.74914	0.00763
5926.82046	0.00761
5924.89179	0.00761
5922.96311	0.00763
5921.03444	0.00765
5919.10576	0.00766
5917.17709	0.00769
5915.24841	0.00773
5913.31973	0.00775
5911.39106	0.00776
5909.46238	0.00777
5907.53371	0.00778
5905.60503	0.00780
5903.67636	0.00783
5901.74768	0.00784
5899.81900	0.00783
5897.89033	0.00783
5895.96165	0.00786
5894.03298	0.00791
5892.10430	0.00795
5890.17563	0.00797
5888.24695	0.00799
5886.31827	0.00801
5884.38960	0.00803
5882.46092	0.00804
5880.53225	0.00803
5878.60357	0.00804
5876.67490	0.00808
5874.74622	0.00810
5872.81755	0.00812
5870.88887	0.00813
5868.96019	0.00816
5867.03152	0.00818
5865.10284	0.00821
5863.17417	0.00821
5861.24549	0.00821
5859.31682	0.00823
5857.38814	0.00827
5855.45946	0.00830
5853.53079	0.00833
5851.60211	0.00833
5849.67344	0.00833
5847.74476	0.00832
5845.81609	0.00834
5843.88741	0.00836
5841.95873	0.00837
5840.03006	0.00840
5838.10138	0.00843
5836.17271	0.00845
5834.24403	0.00848
5832.31536	0.00850
5830.38668	0.00852
5828.45800	0.00853
5826.52933	0.00855
5824.60065	0.00857
5822.67198	0.00860
5820.74330	0.00863
5818.81463	0.00865
5816.88595	0.00867
5814.95727	0.00867
5813.02860	0.00866
5811.09992	0.00867
5809.17125	0.00868
5807.24257	0.00871
5805.31390	0.00874
5803.38522	0.00877
5801.45654	0.00879
5799.52787	0.00882
5797.59919	0.00885
5795.67052	0.00888
5793.74184	0.00890
5791.81317	0.00891
5789.88449	0.00892
5787.95581	0.00893
5786.02714	0.00896
5784.09846	0.00899
5782.16979	0.00901
5780.24111	0.00903
5778.31244	0.00904
5776.38376	0.00905
5774.45508	0.00907
5772.52641	0.00909
5770.59773	0.00911
5768.66906	0.00911
5766.74038	0.00913
5764.81171	0.00915
5762.88303	0.00918
5760.95435	0.00920
5759.02568	0.00922
5757.09700	0.00924
5755.16833	0.00926
5753.23965	0.00927
5751.31098	0.00929
5749.38230	0.00930
5747.45362	0.00933
5745.52495	0.00935
5743.59627	0.00937
5741.66760	0.00939
5739.73892	0.00941
5737.81025	0.00942
5735.88157	0.00944
5733.95289	0.00947
5732.02422	0.00952
5730.09554	0.00956
5728.16687	0.00959
5726.23819	0.00959
5724.30952	0.00959
5722.38084	0.00960
5720.45216	0.00964
5718.52349	0.00968
5716.59481	0.00969
5714.66614	0.00969
5712.73746	0.00971
5710.80879	0.00974
5708.88011	0.00977
5706.95143	0.00979
5705.02276	0.00981
5703.09408	0.00982
5701.16541	0.00984
5699.23673	0.00987
5697.30806	0.00990
5695.37938	0.00992
5693.45070	0.00995
5691.52203	0.00998
5689.59335	0.01000
5687.66468	0.01001
5685.73600	0.01003
5683.80733	0.01005
5681.87865	0.01007
5679.94997	0.01008
5678.02130	0.01011
5676.09262	0.01014
5674.16395	0.01015
5672.23527	0.01016
5670.30660	0.01018
5668.37792	0.01021
5666.44924	0.01023
5664.52057	0.01027
5662.59189	0.01030
5660.66322	0.01033
5658.73454	0.01034
5656.80587	0.01035
5654.87719	0.01036
5652.94851	0.01038
5651.01984	0.01041
5649.09116	0.01043
5647.16249	0.01045
5645.23381	0.01047
5643.30514	0.01048
5641.37646	0.01049
5639.44778	0.01051
5637.51911	0.01054
5635.59043	0.01056
5633.66176	0.01059
5631.73308	0.01063
5629.80441	0.01066
5627.87573	0.01068
5625.94705	0.01070
5624.01838	0.01071
5622.08970	0.01074
5620.16103	0.01076
5618.23235	0.01079
5616.30368	0.01081
5614.37500	0.01084
5612.44632	0.01086
5610.51765	0.01089
5608.58897	0.01093
5606.66030	0.01096
5604.73162	0.01098
5602.80295	0.01099
5600.87427	0.01100
5598.94559	0.01102
5597.01692	0.01107
5595.08824	0.01111
5593.15957	0.01112
5591.23089	0.01114
5589.30222	0.01116
5587.37354	0.01118
5585.44486	0.01120
5583.51619	0.01120
5581.58751	0.01121
5579.65884	0.01122
5577.73016	0.01124
5575.80149	0.01128
5573.87281	0.01134
5571.94413	0.01140
5570.01546	0.01144
5568.08678	0.01144
5566.15811	0.01144
5564.22943	0.01145
5562.30076	0.01145
5560.37208	0.01146
5558.44340	0.01149
5556.51473	0.01153
5554.58605	0.01156
5552.65738	0.01158
5550.72870	0.01161
5548.80003	0.01164
5546.87135	0.01166
5544.94267	0.01169
5543.01400	0.01171
5541.08532	0.01173
5539.15665	0.01175
5537.22797	0.01177
5535.29930	0.01180
5533.37062	0.01184
5531.44194	0.01187
5529.51327	0.01190
5527.58459	0.01195
5525.65592	0.01199
5523.72724	0.01200
5521.79857	0.01200
5519.86989	0.01201
5517.94121	0.01204
5516.01254	0.01205
5514.08386	0.01206
5512.15519	0.01209
5510.22651	0.01213
5508.29784	0.01216
5506.36916	0.01216
5504.44048	0.01219
5502.51181	0.01222
5500.58313	0.01225
5498.65446	0.01228
5496.72578	0.01231
5494.79711	0.01233
5492.86843	0.01236
5490.93975	0.01238
5489.01108	0.01239
5487.08240	0.01241
5485.15373	0.01244
5483.22505	0.01247
5481.29638	0.01253
5479.36770	0.01257
5477.43902	0.01259
5475.51035	0.01260
5473.58167	0.01263
5471.65300	0.01266
5469.72432	0.01269
5467.79565	0.01272
5465.86697	0.01273
5463.93829	0.01274
5462.00962	0.01276
5460.08094	0.01279
5458.15227	0.01284
5456.22359	0.01288
5454.29492	0.01289
5452.36624	0.01290
5450.43756	0.01292
5448.50889	0.01293
5446.58021	0.01293
5444.65154	0.01296
5442.72286	0.01301
5440.79419	0.01304
5438.86551	0.01307
5436.93683	0.01311
5435.00816	0.01313
5433.07948	0.01315
5431.15081	0.01316
5429.22213	0.01316
5427.29346	0.01320
5425.36478	0.01326
5423.43610	0.01332
5421.50743	0.01335
5419.57875	0.01335
5417.65008	0.01335
5415.72140	0.01337
5413.79273	0.01340
5411.86405	0.01345
5409.93537	0.01348
5408.00670	0.01351
5406.07802	0.01356
5404.14935	0.01360
5402.22067	0.01362
5400.29200	0.01363
5398.36332	0.01365
5396.43464	0.01367
5394.50597	0.01370
5392.57729	0.01372
5390.64862	0.01376
5388.71994	0.01378
5386.79127	0.01379
5384.86259	0.01381
5382.93391	0.01385
5381.00524	0.01388
5379.07656	0.01391
5377.14789	0.01395
5375.21921	0.01398
5373.29054	0.01400
5371.36186	0.01400
5369.43318	0.01403
5367.50451	0.01407
5365.57583	0.01411
5363.64716	0.01414
5361.71848	0.01418
5359.78981	0.01419
5357.86113	0.01418
5355.93245	0.01419
5354.00378	0.01423
5352.07510	0.01427
5350.14643	0.01432
5348.21775	0.01437
5346.28908	0.01439
5344.36040	0.01440
5342.43172	0.01442
5340.50305	0.01445
5338.57437	0.01448
5336.64570	0.01451
5334.71702	0.01453
5332.78835	0.01457
5330.85967	0.01462
5328.93099	0.01464
5327.00232	0.01466
5325.07364	0.01469
5323.14497	0.01473
5321.21629	0.01476
5319.28762	0.01478
5317.35894	0.01481
5315.43026	0.01483
5313.50159	0.01486
5311.57291	0.01489
5309.64424	0.01492
5307.71556	0.01494
5305.78689	0.01498
5303.85821	0.01504
5301.92953	0.01509
5300.00086	0.01513
5298.07218	0.01517
5296.14351	0.01519
5294.21483	0.01519
5292.28616	0.01518
5290.35748	0.01521
5288.42880	0.01526
5286.50013	0.01530
5284.57145	0.01532
5282.64278	0.01534
5280.71410	0.01537
5278.78543	0.01542
5276.85675	0.01544
5274.92807	0.01545
5272.99940	0.01548
5271.07072	0.01552
5269.14205	0.01556
5267.21337	0.01557
5265.28470	0.01558
5263.35602	0.01560
5261.42734	0.01564
5259.49867	0.01568
5257.56999	0.01569
5255.64132	0.01571
5253.71264	0.01575
5251.78397	0.01579
5249.85529	0.01583
5247.92661	0.01586
5245.99794	0.01590
5244.06926	0.01594
5242.14059	0.01596
5240.21191	0.01598
5238.28324	0.01600
5236.35456	0.01604
5234.42588	0.01608
5232.49721	0.01612
5230.56853	0.01613
5228.63986	0.01616
5226.71118	0.01618
5224.78251	0.01620
5222.85383	0.01625
5220.92515	0.01629
5218.99648	0.01631
5217.06780	0.01632
5215.13913	0.01637
5213.21045	0.01642
5211.28178	0.01645
5209.35310	0.01645
5207.42442	0.01645
5205.49575	0.01649
5203.56707	0.01655
5201.63840	0.01661
5199.70972	0.01664
5197.78105	0.01667
5195.85237	0.01670
5193.92369	0.01673
5191.99502	0.01676
5190.06634	0.01680
5188.13767	0.01684
5186.20899	0.01687
5184.28032	0.01690
5182.35164	0.01693
5180.42296	0.01694
5178.49429	0.01694
5176.56561	0.01697
5174.63694	0.01702
5172.70826	0.01704
5170.77959	0.01707
5168.85091	0.01712
5166.92223	0.01717
5164.99356	0.01720
5163.06488	0.01722
5161.13621	0.01725
5159.20753	0.01727
5157.27886	0.01731
5155.35018	0.01734
5153.42150	0.01736
5151.49283	0.01737
5149.56415	0.01740
5147.63548	0.01744
5145.70680	0.01747
5143.77813	0.01751
5141.84945	0.01756
5139.92077	0.01760
5137.99210	0.01763
5136.06342	0.01764
5134.13475	0.01766
5132.20607	0.01770
5130.27740	0.01774
5128.34872	0.01778
5126.42004	0.01781
5124.49137	0.01784
5122.56269	0.01787
5120.63402	0.01791
5118.70534	0.01794
5116.77667	0.01797
5114.84799	0.01801
5112.91931	0.01805
5110.99064	0.01809
5109.06196	0.01811
5107.13329	0.01812
5105.20461	0.01814
5103.27594	0.01817
5101.34726	0.01822
5099.41858	0.01827
5097.48991	0.01832
5095.56123	0.01838
5093.63256	0.01842
5091.70388	0.01843
5089.77521	0.01843
5087.84653	0.01844
5085.91785	0.01847
5083.98918	0.01851
5082.06050	0.01856
5080.13183	0.01862
5078.20315	0.01867
5076.27448	0.01871
5074.34580	0.01871
5072.41712	0.01871
5070.48845	0.01874
5068.55977	0.01879
5066.63110	0.01883
5064.70242	0.01886
5062.77375	0.01889
5060.84507	0.01892
5058.91639	0.01895
5056.98772	0.01898
5055.05904	0.01902
5053.13037	0.01907
5051.20169	0.01910
5049.27302	0.01913
5047.34434	0.01916
5045.41566	0.01919
5043.48699	0.01924
5041.55831	0.01927
5039.62964	0.01930
5037.70096	0.01933
5035.77229	0.01937
5033.84361	0.01940
5031.91493	0.01942
5029.98626	0.01946
5028.05758	0.01952
5026.12891	0.01958
5024.20023	0.01963
5022.27156	0.01965
5020.34288	0.01965
5018.41420	0.01965
5016.48553	0.01967
5014.55685	0.01972
5012.62818	0.01978
5010.69950	0.01983
5008.77083	0.01987
5006.84215	0.01990
5004.91347	0.01992
5002.98480	0.01997
5001.05612	0.02001
4999.12745	0.02005
4997.19877	0.02007
4995.27010	0.02011
4993.34142	0.02016
4991.41274	0.02019
4989.48407	0.02021
4987.55539	0.02025
4985.62672	0.02030
4983.69804	0.02033
4981.76937	0.02035
4979.84069	0.02037
4977.91201	0.02038
4975.98334	0.02041
4974.05466	0.02046
4972.12599	0.02051
4970.19731	0.02055
4968.26864	0.02057
4966.33996	0.02060
4964.41128	0.02063
4962.48261	0.02067
4960.55393	0.02073
4958.62526	0.02078
4956.69658	0.02081
4954.76791	0.02084
4952.83923	0.02088
4950.91055	0.02093
4948.98188	0.02096
4947.05320	0.02099
4945.12453	0.02102
4943.19585	0.02107
4941.26718	0.02112
4939.33850	0.02116
4937.40982	0.02120
4935.48115	0.02121
4933.55247	0.02123
4931.62380	0.02126
4929.69512	0.02131
4927.76645	0.02134
4925.83777	0.02136
4923.90909	0.02139
4921.98042	0.02143
4920.05174	0.02148
4918.12307	0.02154
4916.19439	0.02159
4914.26572	0.02162
4912.33704	0.02165
4910.40836	0.02168
4908.47969	0.02172
4906.55101	0.02176
4904.62234	0.02179
4902.69366	0.02181
4900.76499	0.02184
4898.83631	0.02189
4896.90763	0.02194
4894.97896	0.02199
4893.05028	0.02203
4891.12161	0.02209
4889.19293	0.02213
4887.26426	0.02215
4885.33558	0.02217
4883.40690	0.02220
4881.47823	0.02223
4879.54955	0.02226
4877.62088	0.02231
4875.69220	0.02235
4873.76353	0.02237
4871.83485	0.02239
4869.90617	0.02243
4867.97750	0.02248
4866.04882	0.02252
4864.12015	0.02257
4862.19147	0.02262
4860.26280	0.02267
4858.33412	0.02270
4856.40544	0.02272
4854.47677	0.02276
4852.54809	0.02280
4850.61942	0.02284
4848.69074	0.02287
4846.76207	0.02290
4844.83339	0.02294
4842.90471	0.02298
4840.97604	0.02304
4839.04736	0.02309
4837.11869	0.02313
4835.19001	0.02315
4833.26134	0.02318
4831.33266	0.02320
4829.40398	0.02323
4827.47531	0.02329
4825.54663	0.02337
4823.61796	0.02343
4821.68928	0.02346
4819.76061	0.02347
4817.83193	0.02350
4815.90325	0.02355
4813.97458	0.02358
4812.04590	0.02361
4810.11723	0.02366
4808.18855	0.02372
4806.25988	0.02376
4804.33120	0.02379
4802.40252	0.02381
4800.47385	0.02387
4798.54517	0.02392
4796.61650	0.02396
4794.68782	0.02399
4792.75915	0.02404
4790.83047	0.02408
4788.90179	0.02412
4786.97312	0.02415
4785.04444	0.02420
4783.11577	0.02425
4781.18709	0.02430
4779.25842	0.02433
4777.32974	0.02435
4775.40106	0.02437
4773.47239	0.02441
4771.54371	0.02447
4769.61504	0.02452
4767.68636	0.02455
4765.75769	0.02458
4763.82901	0.02463
4761.90033	0.02469
4759.97166	0.02474
4758.04298	0.02478
4756.11431	0.02481
4754.18563	0.02484
4752.25696	0.02490
4750.32828	0.02495
4748.39960	0.02498
4746.47093	0.02501
4744.54225	0.02505
4742.61358	0.02509
4740.68490	0.02513
4738.75623	0.02519
4736.82755	0.02524
4734.89887	0.02526
4732.97020	0.02528
4731.04152	0.02533
4729.11285	0.02538
4727.18417	0.02543
4725.25550	0.02547
4723.32682	0.02552
4721.39814	0.02557
4719.46947	0.02562
4717.54079	0.02567
4715.61212	0.02572
4713.68344	0.02577
4711.75477	0.02581
4709.82609	0.02584
4707.89741	0.02585
4705.96874	0.02588
4704.04006	0.02594
4702.11139	0.02600
4700.18271	0.02602
4698.25404	0.02605
4696.32536	0.02609
4694.39668	0.02614
4692.46801	0.02620
4690.53933	0.02625
4688.61066	0.02627
4686.68198	0.02627
4684.75331	0.02630
4682.82463	0.02636
4680.89595	0.02645
4678.96728	0.02652
4677.03860	0.02656
4675.10993	0.02660
4673.18125	0.02664
4671.25258	0.02669
4669.32390	0.02674
4667.39522	0.02677
4665.46655	0.02680
4663.53787	0.02683
4661.60920	0.02687
4659.68052	0.02691
4657.75185	0.02697
4655.82317	0.02703
4653.89449	0.02708
4651.96582	0.02714
4650.03714	0.02721
4648.10847	0.02728
4646.17979	0.02731
4644.25112	0.02733
4642.32244	0.02737
4640.39376	0.02743
4638.46509	0.02747
4636.53641	0.02748
4634.60774	0.02752
4632.67906	0.02757
4630.75039	0.02764
4628.82171	0.02771
4626.89303	0.02776
4624.96436	0.02781
4623.03568	0.02787
4621.10701	0.02793
4619.17833	0.02798
4617.24966	0.02802
4615.32098	0.02805
4613.39230	0.02807
4611.46363	0.02812
4609.53495	0.02817
4607.60628	0.02821
4605.67760	0.02823
4603.74893	0.02826
4601.82025	0.02831
4599.89157	0.02837
4597.96290	0.02844
4596.03422	0.02850
4594.10555	0.02855
4592.17687	0.02860
4590.24820	0.02864
4588.31952	0.02870
4586.39084	0.02875
4584.46217	0.02880
4582.53349	0.02883
4580.60482	0.02887
4578.67614	0.02892
4576.74747	0.02899
4574.81879	0.02906
4572.89011	0.02911
4570.96144	0.02916
4569.03276	0.02920
4567.10409	0.02925
4565.17541	0.02930
4563.24674	0.02935
4561.31806	0.02939
4559.38938	0.02942
4557.46071	0.02947
4555.53203	0.02953
4553.60336	0.02958
4551.67468	0.02963
4549.74601	0.02967
4547.81733	0.02973
4545.88865	0.02980
4543.95998	0.02984
4542.03130	0.02988
4540.10263	0.02993
4538.17395	0.02998
4536.24528	0.03004
4534.31660	0.03011
4532.38792	0.03019
4530.45925	0.03023
4528.53057	0.03026
4526.60190	0.03029
4524.67322	0.03033
4522.74455	0.03038
4520.81587	0.03045
4518.88719	0.03052
4516.95852	0.03059
4515.02984	0.03063
4513.10117	0.03066
4511.17249	0.03068
4509.24382	0.03072
4507.31514	0.03079
4505.38646	0.03086
4503.45779	0.03093
4501.52911	0.03100
4499.60044	0.03106
4497.67176	0.03110
4495.74309	0.03117
4493.81441	0.03123
4491.88573	0.03127
4489.95706	0.03131
4488.02838	0.03137
4486.09971	0.03144
4484.17103	0.03149
4482.24236	0.03152
4480.31368	0.03157
4478.38500	0.03163
4476.45633	0.03168
4474.52765	0.03174
4472.59898	0.03181
4470.67030	0.03187
4468.74163	0.03193
4466.81295	0.03199
4464.88427	0.03205
4462.95560	0.03210
4461.02692	0.03215
4459.09825	0.03219
4457.16957	0.03223
4455.24090	0.03228
4453.31222	0.03235
4451.38354	0.03243
4449.45487	0.03249
4447.52619	0.03255
4445.59752	0.03261
4443.66884	0.03268
4441.74017	0.03273
4439.81149	0.03277
4437.88281	0.03284
4435.95414	0.03290
4434.02546	0.03295
4432.09679	0.03301
4430.16811	0.03308
4428.23944	0.03313
4426.31076	0.03318
4424.38208	0.03323
4422.45341	0.03328
4420.52473	0.03333
4418.59606	0.03341
4416.66738	0.03349
4414.73871	0.03356
4412.81003	0.03362
4410.88135	0.03366
4408.95268	0.03372
4407.02400	0.03378
4405.09533	0.03384
4403.16665	0.03390
4401.23798	0.03395
4399.30930	0.03400
4397.38062	0.03405
4395.45195	0.03414
4393.52327	0.03424
4391.59460	0.03430
4389.66592	0.03435
4387.73725	0.03442
4385.80857	0.03448
4383.87989	0.03452
4381.95122	0.03456
4380.02254	0.03461
4378.09387	0.03468
4376.16519	0.03475
4374.23652	0.03481
4372.30784	0.03488
4370.37916	0.03495
4368.45049	0.03500
4366.52181	0.03506
4364.59314	0.03512
4362.66446	0.03519
4360.73579	0.03526
4358.80711	0.03532
4356.87843	0.03539
4354.94976	0.03546
4353.02108	0.03553
4351.09241	0.03559
4349.16373	0.03566
4347.23506	0.03572
4345.30638	0.03576
4343.37770	0.03582
4341.44903	0.03590
4339.52035	0.03596
4337.59168	0.03603
4335.66300	0.03611
4333.73433	0.03619
4331.80565	0.03625
4329.87697	0.03629
4327.94830	0.03633
4326.01962	0.03639
4324.09095	0.03645
4322.16227	0.03653
4320.23360	0.03662
4318.30492	0.03668
4316.37624	0.03673
4314.44757	0.03680
4312.51889	0.03688
4310.59022	0.03695
4308.66154	0.03703
4306.73287	0.03710
4304.80419	0.03718
4302.87551	0.03726
4300.94684	0.03735
4299.01816	0.03742
4297.08949	0.03748
4295.16081	0.03755
4293.23214	0.03763
4291.30346	0.03769
4289.37478	0.03775
4287.44611	0.03782
4285.51743	0.03789
4283.58876	0.03796
4281.66008	0.03803
4279.73141	0.03811
4277.80273	0.03818
4275.87405	0.03824
4273.94538	0.03831
4272.01670	0.03838
4270.08803	0.03845
4268.15935	0.03851
4266.23068	0.03858
4264.30200	0.03865
4262.37332	0.03872
4260.44465	0.03879
4258.51597	0.03887
4256.58730	0.03894
4254.65862	0.03901
4252.72995	0.03907
4250.80127	0.03914
4248.87259	0.03920
4246.94392	0.03927
4245.01524	0.03933
4243.08657	0.03941
4241.15789	0.03950
4239.22922	0.03958
4237.30054	0.03966
4235.37186	0.03973
4233.44319	0.03980
4231.51451	0.03986
4229.58584	0.03992
4227.65716	0.03998
4225.72849	0.04009
4223.79981	0.04018
4221.87113	0.04024
4219.94246	0.04030
4218.01378	0.04039
4216.08511	0.04048
4214.15643	0.04056
4212.22776	0.04062
4210.29908	0.04070
4208.37040	0.04078
4206.44173	0.04085
4204.51305	0.04091
4202.58438	0.04098
4200.65570	0.04106
4198.72703	0.04113
4196.79835	0.04120
4194.86968	0.04129
4192.94100	0.04139
4191.01232	0.04147
4189.08365	0.04155
4187.15497	0.04161
4185.22630	0.04168
4183.29762	0.04175
4181.36895	0.04182
4179.44027	0.04190
4177.51159	0.04198
4175.58292	0.04205
4173.65424	0.04213
4171.72557	0.04223
4169.79689	0.04232
4167.86822	0.04240
4165.93954	0.04246
4164.01086	0.04253
4162.08219	0.04260
4160.15351	0.04270
4158.22484	0.04279
4156.29616	0.04287
4154.36749	0.04293
4152.43881	0.04301
4150.51013	0.04311
4148.58146	0.04322
4146.65278	0.04331
4144.72411	0.04340
4142.79543	0.04348
4140.86676	0.04353
4138.93808	0.04360
4137.00940	0.04368
4135.08073	0.04377
4133.15205	0.04384
4131.22338	0.04390
4129.29470	0.04397
4127.36603	0.04406
4125.43735	0.04416
4123.50867	0.04424
4121.58000	0.04433
4119.65132	0.04442
4117.72265	0.04448
4115.79397	0.04454
4113.86530	0.04462
4111.93662	0.04472
4110.00794	0.04482
4108.07927	0.04491
4106.15059	0.04500
4104.22192	0.04509
4102.29324	0.04519
4100.36457	0.04528
4098.43589	0.04535
4096.50721	0.04542
4094.57854	0.04548
4092.64986	0.04555
4090.72119	0.04563
4088.79251	0.04571
4086.86384	0.04580
4084.93516	0.04589
4083.00648	0.04598
4081.07781	0.04608
4079.14913	0.04616
4077.22046	0.04625
4075.29178	0.04634
4073.36311	0.04643
4071.43443	0.04652
4069.50575	0.04661
4067.57708	0.04670
4065.64840	0.04680
4063.71973	0.04687
4061.79105	0.04693
4059.86238	0.04701
4057.93370	0.04712
4056.00502	0.04723
4054.07635	0.04732
4052.14767	0.04739
4050.21900	0.04747
4048.29032	0.04753
4046.36165	0.04760
4044.43297	0.04769
4042.50429	0.04779
4040.57562	0.04788
4038.64694	0.04796
4036.71827	0.04805
4034.78959	0.04817
4032.86092	0.04829
4030.93224	0.04839
4029.00356	0.04846
4027.07489	0.04852
4025.14621	0.04860
4023.21754	0.04869
4021.28886	0.04879
4019.36019	0.04888
4017.43151	0.04898
4015.50283	0.04907
4013.57416	0.04914
4011.64548	0.04922
4009.71681	0.04933
4007.78813	0.04944
4005.85946	0.04953
4003.93078	0.04960
4002.00210	0.04968
4000.07343	0.04977
3998.14475	0.04987
3996.21608	0.04998
3994.28740	0.05011
3992.35873	0.05023
3990.43005	0.05033
3988.50137	0.05040
3986.57270	0.05047
3984.64402	0.05055
3982.71535	0.05066
3980.78667	0.05077
3978.85800	0.05085
3976.92932	0.05091
3975.00064	0.05098
3973.07197	0.05109
3971.14329	0.05120
3969.21462	0.05128
3967.28594	0.05136
3965.35727	0.05143
3963.42859	0.05151
3961.49991	0.05161
3959.57124	0.05174
3957.64256	0.05187
3955.71389	0.05197
3953.78521	0.05205
3951.85654	0.05210
3949.92786	0.05215
3947.99918	0.05224
3946.07051	0.05235
3944.14183	0.05245
3942.21316	0.05256
3940.28448	0.05269
3938.35581	0.05281
3936.42713	0.05287
3934.49845	0.05290
3932.56978	0.05296
3930.64110	0.05308
3928.71243	0.05323
3926.78375	0.05334
3924.85508	0.05342
3922.92640	0.05349
3920.99772	0.05354
3919.06905	0.05360
3917.14037	0.05372
3915.21170	0.05388
3913.28302	0.05403
3911.35435	0.05414
3909.42567	0.05422
3907.49699	0.05424
3905.56832	0.05418
3903.63964	0.05417
3901.71097	0.05428
3899.78229	0.05448
3897.85362	0.05471
3895.92494	0.05490
3893.99626	0.05497
3892.06759	0.05502
3890.13891	0.05515
3888.21024	0.05523
3886.28156	0.05524
3884.35289	0.05532
3882.42421	0.05542
3880.49553	0.05552
3878.56686	0.05570
3876.63818	0.05585
3874.70951	0.05589
3872.78083	0.05589
3870.85216	0.05592
3868.92348	0.05606
3866.99480	0.05622
3865.06613	0.05630
3863.13745	0.05642
3861.20878	0.05661
3859.28010	0.05676
3857.35143	0.05670
3855.42275	0.05645
3853.49407	0.05639
3851.56540	0.05676
3849.63672	0.05724
3847.70805	0.05749
3845.77937	0.05754
3843.85070	0.05754
3841.92202	0.05755
3839.99334	0.05755
3838.06467	0.05762
3836.13599	0.05779
3834.20732	0.05797
3832.27864	0.05813
3830.34997	0.05831
3828.42129	0.05846
3826.49261	0.05853
3824.56394	0.05855
3822.63526	0.05851
3820.70659	0.05858
3818.77791	0.05875
3816.84924	0.05889
3814.92056	0.05908
3812.99188	0.05933
3811.06321	0.05947
3809.13453	0.05946
3807.20586	0.05945
3805.27718	0.05954
3803.34851	0.05960
3801.41983	0.05968
3799.49115	0.05985
3797.56248	0.06002
3795.63380	0.06018
3793.70513	0.06037
3791.77645	0.06052
3789.84778	0.06062
3787.91910	0.06070
3785.99042	0.06079
3784.06175	0.06092
3782.13307	0.06102
3780.20440	0.06110
3778.27572	0.06121
3776.34705	0.06135
3774.41837	0.06145
3772.48969	0.06148
3770.56102	0.06149
3768.63234	0.06157
3766.70367	0.06170
3764.77499	0.06187
3762.84632	0.06201
3760.91764	0.06207
3758.98896	0.06214
3757.06029	0.06227
3755.13161	0.06230
3753.20294	0.06215
3751.27426	0.06206
3749.34559	0.06217
3747.41691	0.06224
3745.48823	0.06219
3743.55956	0.06238
3741.63088	0.06281
3739.70221	0.06300
3737.77353	0.06288
3735.84486	0.06281
3733.91618	0.06298
3731.98750	0.06330
3730.05883	0.06357
3728.13015	0.06369
3726.20148	0.06372
3724.27280	0.06379
3722.34413	0.06394
3720.41545	0.06412
3718.48677	0.06428
3716.55810	0.06436
3714.62942	0.06427
3712.70075	0.06413
3710.77207	0.06415
3708.84340	0.06434
3706.91472	0.06452
3704.98604	0.06456
3703.05737	0.06449
3701.12869	0.06450
3699.20002	0.06465
3697.27134	0.06480
3695.34267	0.06484
3693.41399	0.06475
3691.48531	0.06457
3689.55664	0.06448
3687.62796	0.06462
3685.69929	0.06486
3683.77061	0.06499
3681.84194	0.06497
3679.91326	0.06486
3677.98458	0.06465
3676.05591	0.06448
3674.12723	0.06452
3672.19856	0.06463
3670.26988	0.06468
3668.34121	0.06483
3666.41253	0.06506
3664.48385	0.06520
3662.55518	0.06526
3660.62650	0.06527
3658.69783	0.06522
3656.76915	0.06517
3654.84048	0.06521
3652.91180	0.06516
3650.98312	0.06493
3649.05445	0.06476
3647.12577	0.06489
3645.19710	0.06523
3643.26842	0.06554
3641.33975	0.06574
3639.41107	0.06586
3637.48239	0.06596
3635.55372	0.06603
3633.62504	0.06605
3631.69637	0.06596
3629.76769	0.06585
3627.83902	0.06602
3625.91034	0.06639
3623.98166	0.06660
3622.05299	0.06657
3620.12431	0.06649
3618.19564	0.06653
3616.26696	0.06667
3614.33829	0.06677
3612.40961	0.06681
3610.48093	0.06683
3608.55226	0.06692
3606.62358	0.06713
3604.69491	0.06734
3602.76623	0.06747
3600.83756	0.06754
3598.90888	0.06763
3596.98020	0.06769
3595.05153	0.06775
3593.12285	0.06784
3591.19418	0.06785
3589.26550	0.06779
3587.33683	0.06784
3585.40815	0.06807
3583.47947	0.06828
3581.55080	0.06840
3579.62212	0.06849
3577.69345	0.06860
3575.76477	0.06871
3573.83610	0.06883
3571.90742	0.06890
3569.97874	0.06886
3568.05007	0.06879
3566.12139	0.06889
3564.19272	0.06913
3562.26404	0.06932
3560.33537	0.06945
3558.40669	0.06957
3556.47801	0.06969
3554.54934	0.06976
3552.62066	0.06980
3550.69199	0.06984
3548.76331	0.06987
3546.83464	0.06990
3544.90596	0.06999
3542.97728	0.07014
3541.04861	0.07027
3539.11993	0.07038
3537.19126	0.07044
3535.26258	0.07048
3533.33391	0.07052
3531.40523	0.07056
3529.47655	0.07060
3527.54788	0.07065
3525.61920	0.07071
3523.69053	0.07077
3521.76185	0.07081
3519.83318	0.07082
3517.90450	0.07085
3515.97582	0.07092
3514.04715	0.07098
3512.11847	0.07100
3510.18980	0.07102
3508.26112	0.07107
3506.33245	0.07112
3504.40377	0.07112
3502.47509	0.07112
3500.54642	0.07117
3498.61774	0.07124
3496.68907	0.07128
3494.76039	0.07131
3492.83172	0.07134
3490.90304	0.07138
3488.97436	0.07140
3487.04569	0.07144
3485.11701	0.07148
3483.18834	0.07150
3481.25966	0.07153
3479.33099	0.07160
3477.40231	0.07167
3475.47363	0.07173
3473.54496	0.07182
3471.61628	0.07194
3469.68761	0.07205
3467.75893	0.07215
3465.83026	0.07225
3463.90158	0.07236
3461.97290	0.07247
3460.04423	0.07261
3458.11555	0.07276
3456.18688	0.07290
3454.25820	0.07301
3452.32953	0.07313
3450.40085	0.07325
3448.47217	0.07332
3446.54350	0.07340
3444.61482	0.07353
3442.68615	0.07369
3440.75747	0.07385
3438.82880	0.07400
3436.90012	0.07418
3434.97144	0.07435
3433.04277	0.07454
3431.11409	0.07476
3429.18542	0.07500
3427.25674	0.07523
3425.32807	0.07544
3423.39939	0.07565
3421.47071	0.07585
3419.54204	0.07605
3417.61336	0.07626
3415.68469	0.07647
3413.75601	0.07665
3411.82734	0.07683
3409.89866	0.07702
3407.96998	0.07720
3406.04131	0.07735
3404.11263	0.07747
3402.18396	0.07762
3400.25528	0.07778
3398.32661	0.07794
3396.39793	0.07810
3394.46925	0.07827
3392.54058	0.07844
3390.61190	0.07863
3388.68323	0.07881
3386.75455	0.07896
3384.82588	0.07910
3382.89720	0.07927
3380.96852	0.07943
3379.03985	0.07957
3377.11117	0.07973
3375.18250	0.07988
3373.25382	0.08004
3371.32515	0.08019
3369.39647	0.08035
3367.46779	0.08050
3365.53912	0.08064
3363.61044	0.08080
3361.68177	0.08096
3359.75309	0.08111
3357.82442	0.08124
3355.89574	0.08137
3353.96706	0.08155
3352.03839	0.08174
3350.10971	0.08188
3348.18104	0.08198
3346.25236	0.08209
3344.32369	0.08225
3342.39501	0.08244
3340.46633	0.08263
3338.53766	0.08279
3336.60898	0.08292
3334.68031	0.08306
3332.75163	0.08320
3330.82296	0.08336
3328.89428	0.08353
3326.96560	0.08370
3325.03693	0.08385
3323.10825	0.08399
3321.17958	0.08415
3319.25090	0.08432
3317.32223	0.08449
3315.39355	0.08464
3313.46487	0.08479
3311.53620	0.08494
3309.60752	0.08511
3307.67885	0.08526
3305.75017	0.08541
3303.82150	0.08558
3301.89282	0.08574
3299.96414	0.08591
3298.03547	0.08607
3296.10679	0.08620
3294.17812	0.08633
3292.24944	0.08652
3290.32077	0.08673
3288.39209	0.08692
3286.46341	0.08706
3284.53474	0.08722
3282.60606	0.08739
3280.67739	0.08756
3278.74871	0.08772
3276.82004	0.08789
3274.89136	0.08805
3272.96268	0.08822
3271.03401	0.08837
3269.10533	0.08853
3267.17666	0.08870
3265.24798	0.08888
3263.31931	0.08908
3261.39063	0.08929
3259.46195	0.08947
3257.53328	0.08963
3255.60460	0.08977
3253.67593	0.08990
3251.74725	0.09005
3249.81858	0.09022
3247.88990	0.09043
3245.96122	0.09065
3244.03255	0.09083
3242.10387	0.09097
3240.17520	0.09109
3238.24652	0.09122
3236.31785	0.09138
3234.38917	0.09157
3232.46049	0.09176
3230.53182	0.09190
3228.60314	0.09205
3226.67447	0.09224
3224.74579	0.09243
3222.81712	0.09259
3220.88844	0.09274
3218.95976	0.09291
3217.03109	0.09308
3215.10241	0.09325
3213.17374	0.09343
3211.24506	0.09360
3209.31639	0.09376
3207.38771	0.09391
3205.45903	0.09406
3203.53036	0.09425
3201.60168	0.09444
3199.67301	0.09463
3197.74433	0.09481
3195.81566	0.09498
3193.88698	0.09515
3191.95830	0.09532
3190.02963	0.09551
3188.10095	0.09569
3186.17228	0.09586
3184.24360	0.09605
3182.31493	0.09625
3180.38625	0.09645
3178.45757	0.09662
3176.52890	0.09677
3174.60022	0.09693
3172.67155	0.09710
3170.74287	0.09728
3168.81420	0.09746
3166.88552	0.09764
3164.95684	0.09781
3163.02817	0.09797
3161.09949	0.09815
3159.17082	0.09835
3157.24214	0.09852
3155.31347	0.09866
3153.38479	0.09881
3151.45611	0.09897
3149.52744	0.09915
3147.59876	0.09933
3145.67009	0.09948
3143.74141	0.09965
3141.81274	0.09981
3139.88406	0.09998
3137.95538	0.10017
3136.02671	0.10036
3134.09803	0.10051
3132.16936	0.10065
3130.24068	0.10081
3128.31201	0.10099
3126.38333	0.10117
3124.45465	0.10135
3122.52598	0.10152
3120.59730	0.10166
3118.66863	0.10178
3116.73995	0.10192
3114.81128	0.10210
3112.88260	0.10231
3110.95392	0.10250
3109.02525	0.10268
3107.09657	0.10287
3105.16790	0.10302
3103.23922	0.10316
3101.31055	0.10335
3099.38187	0.10354
3097.45319	0.10370
3095.52452	0.10385
3093.59584	0.10403
3091.66717	0.10422
3089.73849	0.10439
3087.80982	0.10453
3085.88114	0.10469
3083.95246	0.10484
3082.02379	0.10497
3080.09511	0.10513
3078.16644	0.10530
3076.23776	0.10546
3074.30909	0.10563
3072.38041	0.10583
3070.45173	0.10603
3068.52306	0.10619
3066.59438	0.10632
3064.66571	0.10647
3062.73703	0.10664
3060.80836	0.10683
3058.87968	0.10699
3056.95100	0.10713
3055.02233	0.10727
3053.09365	0.10742
3051.16498	0.10757
3049.23630	0.10772
3047.30763	0.10786
3045.37895	0.10801
3043.45027	0.10818
3041.52160	0.10838
3039.59292	0.10858
3037.66425	0.10874
3035.73557	0.10885
3033.80690	0.10898
3031.87822	0.10917
3029.94954	0.10937
3028.02087	0.10955
3026.09219	0.10972
3024.16352	0.10987
3022.23484	0.11002
3020.30617	0.11016
3018.37749	0.11032
3016.44881	0.11047
3014.52014	0.11061
3012.59146	0.11076
3010.66279	0.11093
3008.73411	0.11111
3006.80544	0.11126
3004.87676	0.11142
3002.94808	0.11159
3001.01941	0.11175
2999.09073	0.11187
2997.16206	0.11198
2995.23338	0.11214
2993.30471	0.11232
2991.37603	0.11248
2989.44735	0.11261
2987.51868	0.11274
2985.59000	0.11286
2983.66133	0.11294
2981.73265	0.11300
2979.80398	0.11304
2977.87530	0.11308
2975.94662	0.11313
2974.01795	0.11314
2972.08927	0.11311
2970.16060	0.11305
2968.23192	0.11300
2966.30325	0.11301
2964.37457	0.11309
2962.44589	0.11320
2960.51722	0.11334
2958.58854	0.11352
2956.65987	0.11373
2954.73119	0.11395
2952.80252	0.11414
2950.87384	0.11433
2948.94516	0.11451
2947.01649	0.11466
2945.08781	0.11476
2943.15914	0.11480
2941.23046	0.11482
2939.30179	0.11484
2937.37311	0.11485
2935.44443	0.11485
2933.51576	0.11481
2931.58708	0.11474
2929.65841	0.11469
2927.72973	0.11465
2925.80106	0.11461
2923.87238	0.11457
2921.94370	0.11455
2920.01503	0.11462
2918.08635	0.11483
2916.15768	0.11520
2914.22900	0.11571
2912.30033	0.11624
2910.37165	0.11675
2908.44297	0.11720
2906.51430	0.11755
2904.58562	0.11783
2902.65695	0.11811
2900.72827	0.11835
2898.79960	0.11857
2896.87092	0.11878
2894.94224	0.11899
2893.01357	0.11922
2891.08489	0.11944
2889.15622	0.11965
2887.22754	0.11984
2885.29887	0.12003
2883.37019	0.12023
2881.44151	0.12043
2879.51284	0.12060
2877.58416	0.12071
2875.65549	0.12080
2873.72681	0.12092
2871.79814	0.12107
2869.86946	0.12122
2867.94078	0.12135
2866.01211	0.12149
2864.08343	0.12160
2862.15476	0.12166
2860.22608	0.12171
2858.29741	0.12175
2856.36873	0.12172
2854.44005	0.12165
2852.51138	0.12159
2850.58270	0.12165
2848.65403	0.12194
2846.72535	0.12246
2844.79668	0.12303
2842.86800	0.12350
2840.93932	0.12387
2839.01065	0.12419
2837.08197	0.12445
2835.15330	0.12469
2833.22462	0.12495
2831.29595	0.12519
2829.36727	0.12541
2827.43859	0.12560
2825.50992	0.12577
2823.58124	0.12595
2821.65257	0.12614
2819.72389	0.12629
2817.79522	0.12644
2815.86654	0.12662
2813.93786	0.12680
2812.00919	0.12699
2810.08051	0.12718
2808.15184	0.12735
2806.22316	0.12748
2804.29449	0.12763
2802.36581	0.12781
2800.43713	0.12798
2798.50846	0.12814
2796.57978	0.12831
2794.65111	0.12848
2792.72243	0.12863
2790.79376	0.12878
2788.86508	0.12895
2786.93640	0.12914
2785.00773	0.12931
2783.07905	0.12946
2781.15038	0.12962
2779.22170	0.12979
2777.29303	0.12995
2775.36435	0.13010
2773.43567	0.13026
2771.50700	0.13040
2769.57832	0.13053
2767.64965	0.13069
2765.72097	0.13087
2763.79230	0.13104
2761.86362	0.13119
2759.93494	0.13135
2758.00627	0.13153
2756.07759	0.13171
2754.14892	0.13189
2752.22024	0.13205
2750.29157	0.13217
2748.36289	0.13229
2746.43421	0.13243
2744.50554	0.13258
2742.57686	0.13272
2740.64819	0.13287
2738.71951	0.13302
2736.79084	0.13318
2734.86216	0.13336
2732.93348	0.13355
2731.00481	0.13367
2729.07613	0.13376
2727.14746	0.13389
2725.21878	0.13407
2723.29011	0.13424
2721.36143	0.13438
2719.43275	0.13453
2717.50408	0.13470
2715.57540	0.13484
2713.64673	0.13496
2711.71805	0.13510
2709.78938	0.13526
2707.86070	0.13542
2705.93202	0.13559
2704.00335	0.13575
2702.07467	0.13590
2700.14600	0.13605
2698.21732	0.13622
2696.28865	0.13636
2694.35997	0.13647
2692.43129	0.13659
2690.50262	0.13673
2688.57394	0.13690
2686.64527	0.13706
2684.71659	0.13720
2682.78792	0.13734
2680.85924	0.13749
2678.93056	0.13766
2677.00189	0.13782
2675.07321	0.13797
2673.14454	0.13808
2671.21586	0.13818
2669.28719	0.13830
2667.35851	0.13845
2665.42983	0.13859
2663.50116	0.13871
2661.57248	0.13884
2659.64381	0.13899
2657.71513	0.13918
2655.78646	0.13936
2653.85778	0.13951
2651.92910	0.13964
2650.00043	0.13978
2648.07175	0.13994
2646.14308	0.14010
2644.21440	0.14026
2642.28573	0.14043
2640.35705	0.14060
2638.42837	0.14074
2636.49970	0.14087
2634.57102	0.14101
2632.64235	0.14120
2630.71367	0.14141
2628.78500	0.14160
2626.85632	0.14175
2624.92764	0.14188
2622.99897	0.14203
2621.07029	0.14218
2619.14162	0.14232
2617.21294	0.14247
2615.28427	0.14264
2613.35559	0.14281
2611.42691	0.14297
2609.49824	0.14312
2607.56956	0.14330
2605.64089	0.14348
2603.71221	0.14365
2601.78354	0.14379
2599.85486	0.14391
2597.92618	0.14405
2595.99751	0.14420
2594.06883	0.14435
2592.14016	0.14451
2590.21148	0.14468
2588.28281	0.14481
2586.35413	0.14495
2584.42545	0.14512
2582.49678	0.14529
2580.56810	0.14544
2578.63943	0.14558
2576.71075	0.14572
2574.78208	0.14587
2572.85340	0.14604
2570.92472	0.14618
2568.99605	0.14632
2567.06737	0.14648
2565.13870	0.14663
2563.21002	0.14675
2561.28135	0.14687
2559.35267	0.14702
2557.42399	0.14718
2555.49532	0.14732
2553.56664	0.14745
2551.63797	0.14761
2549.70929	0.14776
2547.78062	0.14786
2545.85194	0.14796
2543.92326	0.14812
2541.99459	0.14831
2540.06591	0.14848
2538.13724	0.14865
2536.20856	0.14879
2534.27989	0.14893
2532.35121	0.14908
2530.42253	0.14921
2528.49386	0.14931
2526.56518	0.14944
2524.63651	0.14961
2522.70783	0.14981
2520.77916	0.14998
2518.85048	0.15013
2516.92181	0.15031
2514.99313	0.15048
2513.06445	0.15062
2511.13578	0.15074
2509.20710	0.15090
2507.27843	0.15108
2505.34975	0.15122
2503.42108	0.15133
2501.49240	0.15146
2499.56372	0.15160
2497.63505	0.15177
2495.70637	0.15201
2493.77770	0.15226
2491.84902	0.15245
2489.92035	0.15258
2487.99167	0.15269
2486.06299	0.15283
2484.13432	0.15299
2482.20564	0.15316
2480.27697	0.15333
2478.34829	0.15349
2476.41962	0.15366
2474.49094	0.15381
2472.56226	0.15395
2470.63359	0.15407
2468.70491	0.15421
2466.77624	0.15435
2464.84756	0.15449
2462.91889	0.15465
2460.99021	0.15483
2459.06153	0.15499
2457.13286	0.15513
2455.20418	0.15526
2453.27551	0.15538
2451.34683	0.15552
2449.41816	0.15566
2447.48948	0.15581
2445.56080	0.15597
2443.63213	0.15615
2441.70345	0.15630
2439.77478	0.15642
2437.84610	0.15656
2435.91743	0.15671
2433.98875	0.15686
2432.06007	0.15700
2430.13140	0.15714
2428.20272	0.15729
2426.27405	0.15745
2424.34537	0.15760
2422.41670	0.15774
2420.48802	0.15788
2418.55934	0.15803
2416.63067	0.15816
2414.70199	0.15828
2412.77332	0.15840
2410.84464	0.15853
2408.91597	0.15864
2406.98729	0.15875
2405.05861	0.15887
2403.12994	0.15901
2401.20126	0.15911
2399.27259	0.15921
2397.34391	0.15934
2395.41524	0.15947
2393.48656	0.15959
2391.55788	0.15970
2389.62921	0.15982
2387.70053	0.15994
2385.77186	0.16005
2383.84318	0.16015
2381.91451	0.16021
2379.98583	0.16021
2378.05715	0.16016
2376.12848	0.16006
2374.19980	0.15994
2372.27113	0.15983
2370.34245	0.15974
2368.41378	0.15967
2366.48510	0.15959
2364.55642	0.15948
2362.62775	0.15933
2360.69907	0.15918
2358.77040	0.15895
2356.84172	0.15848
2354.91305	0.15762
2352.98437	0.15624
2351.05569	0.15414
2349.12702	0.15114
2347.19834	0.14735
2345.26967	0.14342
2343.34099	0.14053
2341.41232	0.14032
2339.48364	0.14407
2337.55496	0.15075
2335.62629	0.15716
2333.69761	0.16099
2331.76894	0.16253
2329.84026	0.16313
2327.91159	0.16360
2325.98291	0.16413
2324.05423	0.16466
2322.12556	0.16512
2320.19688	0.16549
2318.26821	0.16579
2316.33953	0.16605
2314.41086	0.16627
2312.48218	0.16645
2310.55350	0.16660
2308.62483	0.16676
2306.69615	0.16695
2304.76748	0.16714
2302.83880	0.16730
2300.91013	0.16746
2298.98145	0.16764
2297.05277	0.16782
2295.12410	0.16794
2293.19542	0.16805
2291.26675	0.16820
2289.33807	0.16839
2287.40940	0.16854
2285.48072	0.16862
2283.55204	0.16869
2281.62337	0.16881
2279.69469	0.16893
2277.76602	0.16905
2275.83734	0.16922
2273.90867	0.16943
2271.97999	0.16968
2270.05131	0.16991
2268.12264	0.17010
2266.19396	0.17024
2264.26529	0.17036
2262.33661	0.17049
2260.40794	0.17068
2258.47926	0.17090
2256.55058	0.17109
2254.62191	0.17127
2252.69323	0.17143
2250.76456	0.17158
2248.83588	0.17173
2246.90721	0.17188
2244.97853	0.17202
2243.04985	0.17213
2241.12118	0.17224
2239.19250	0.17234
2237.26383	0.17246
2235.33515	0.17261
2233.40648	0.17278
2231.47780	0.17295
2229.54912	0.17311
2227.62045	0.17323
2225.69177	0.17338
2223.76310	0.17355
2221.83442	0.17369
2219.90575	0.17382
2217.97707	0.17393
2216.04839	0.17405
2214.11972	0.17419
2212.19104	0.17431
2210.26237	0.17442
2208.33369	0.17456
2206.40502	0.17476
2204.47634	0.17493
2202.54766	0.17503
2200.61899	0.17511
2198.69031	0.17522
2196.76164	0.17537
2194.83296	0.17555
2192.90429	0.17569
2190.97561	0.17579
2189.04693	0.17591
2187.11826	0.17610
2185.18958	0.17628
2183.26091	0.17640
2181.33223	0.17651
2179.40356	0.17668
2177.47488	0.17685
2175.54620	0.17698
2173.61753	0.17706
2171.68885	0.17717
2169.76018	0.17732
2167.83150	0.17749
2165.90283	0.17763
2163.97415	0.17775
2162.04547	0.17789
2160.11680	0.17807
2158.18812	0.17823
2156.25945	0.17837
2154.33077	0.17851
2152.40210	0.17866
2150.47342	0.17883
2148.54474	0.17897
2146.61607	0.17909
2144.68739	0.17920
2142.75872	0.17929
2140.83004	0.17941
2138.90137	0.17959
2136.97269	0.17980
2135.04401	0.17998
2133.11534	0.18009
2131.18666	0.18019
2129.25799	0.18032
2127.32931	0.18044
2125.40064	0.18055
2123.47196	0.18068
2121.54328	0.18083
2119.61461	0.18099
2117.68593	0.18115
2115.75726	0.18134
2113.82858	0.18152
2111.89991	0.18165
2109.97123	0.18175
2108.04255	0.18187
2106.11388	0.18201
2104.18520	0.18213
2102.25653	0.18223
2100.32785	0.18237
2098.39918	0.18256
2096.47050	0.18273
2094.54182	0.18284
2092.61315	0.18291
2090.68447	0.18299
2088.75580	0.18316
2086.82712	0.18338
2084.89845	0.18354
2082.96977	0.18362
2081.04109	0.18371
2079.11242	0.18385
2077.18374	0.18401
2075.25507	0.18416
2073.32639	0.18433
2071.39772	0.18450
2069.46904	0.18460
2067.54036	0.18468
2065.61169	0.18480
2063.68301	0.18497
2061.75434	0.18511
2059.82566	0.18522
2057.89699	0.18534
2055.96831	0.18547
2054.03963	0.18559
2052.11096	0.18572
2050.18228	0.18586
2048.25361	0.18599
2046.32493	0.18611
2044.39626	0.18623
2042.46758	0.18635
2040.53890	0.18647
2038.61023	0.18658
2036.68155	0.18669
2034.75288	0.18683
2032.82420	0.18699
2030.89553	0.18715
2028.96685	0.18728
2027.03817	0.18736
2025.10950	0.18743
2023.18082	0.18757
2021.25215	0.18776
2019.32347	0.18791
2017.39480	0.18802
2015.46612	0.18815
2013.53744	0.18831
2011.60877	0.18847
2009.68009	0.18862
2007.75142	0.18876
2005.82274	0.18887
2003.89407	0.18893
2001.96539	0.18902
2000.03671	0.18916
1998.10804	0.18930
1996.17936	0.18944
1994.25069	0.18953
1992.32201	0.18961
1990.39334	0.18974
1988.46466	0.18989
1986.53598	0.19002
1984.60731	0.19019
1982.67863	0.19036
1980.74996	0.19046
1978.82128	0.19051
1976.89261	0.19058
1974.96393	0.19068
1973.03525	0.19077
1971.10658	0.19086
1969.17790	0.19097
1967.24923	0.19109
1965.32055	0.19124
1963.39188	0.19138
1961.46320	0.19151
1959.53452	0.19164
1957.60585	0.19177
1955.67717	0.19189
1953.74850	0.19201
1951.81982	0.19211
1949.89115	0.19223
1947.96247	0.19238
1946.03379	0.19251
1944.10512	0.19257
1942.17644	0.19267
1940.24777	0.19289
1938.31909	0.19311
1936.39042	0.19325
1934.46174	0.19335
1932.53306	0.19346
1930.60439	0.19358
1928.67571	0.19370
1926.74704	0.19380
1924.81836	0.19387
1922.88969	0.19394
1920.96101	0.19403
1919.03233	0.19406
1917.10366	0.19420
1915.17498	0.19446
1913.24631	0.19461
1911.31763	0.19466
1909.38896	0.19478
1907.46028	0.19500
1905.53160	0.19524
1903.60293	0.19540
1901.67425	0.19547
1899.74558	0.19552
1897.81690	0.19557
1895.88823	0.19562
1893.95955	0.19570
1892.03087	0.19575
1890.10220	0.19580
1888.17352	0.19598
1886.24485	0.19621
1884.31617	0.19636
1882.38750	0.19648
1880.45882	0.19662
1878.53014	0.19678
1876.60147	0.19695
1874.67279	0.19710
1872.74412	0.19711
1870.81544	0.19696
1868.88677	0.19687
1866.95809	0.19708
1865.02941	0.19741
1863.10074	0.19762
1861.17206	0.19776
1859.24339	0.19792
1857.31471	0.19813
1855.38604	0.19834
1853.45736	0.19851
1851.52868	0.19859
1849.60001	0.19864
1847.67133	0.19861
1845.74266	0.19851
1843.81398	0.19862
1841.88531	0.19904
1839.95663	0.19943
1838.02795	0.19962
1836.09928	0.19974
1834.17060	0.19980
1832.24193	0.19972
1830.31325	0.19967
1828.38458	0.19983
1826.45590	0.20002
1824.52722	0.20022
1822.59855	0.20055
1820.66987	0.20082
1818.74120	0.20094
1816.81252	0.20107
1814.88385	0.20121
1812.95517	0.20128
1811.02649	0.20130
1809.09782	0.20139
1807.16914	0.20157
1805.24047	0.20170
1803.31179	0.20166
1801.38312	0.20159
1799.45444	0.20170
1797.52576	0.20190
1795.59709	0.20194
1793.66841	0.20180
1791.73974	0.20183
1789.81106	0.20217
1787.88239	0.20243
1785.95371	0.20240
1784.02503	0.20238
1782.09636	0.20248
1780.16768	0.20264
1778.23901	0.20282
1776.31033	0.20283
1774.38166	0.20265
1772.45298	0.20255
1770.52430	0.20265
1768.59563	0.20286
1766.66695	0.20318
1764.73828	0.20338
1762.80960	0.20332
1760.88093	0.20331
1758.95225	0.20342
1757.02357	0.20347
1755.09490	0.20347
1753.16622	0.20322
1751.23755	0.20279
1749.30887	0.20264
1747.38020	0.20280
1745.45152	0.20296
1743.52284	0.20299
1741.59417	0.20293
1739.66549	0.20290
1737.73682	0.20274
1735.80814	0.20224
1733.87947	0.20198
1731.95079	0.20240
1730.02211	0.20297
1728.09344	0.20333
1726.16476	0.20356
1724.23609	0.20367
1722.30741	0.20364
1720.37874	0.20329
1718.45006	0.20289
1716.52138	0.20293
1714.59271	0.20340
1712.66403	0.20392
1710.73536	0.20425
1708.80668	0.20428
1706.87801	0.20410
1704.94933	0.20392
1703.02065	0.20355
1701.09198	0.20304
1699.16330	0.20298
1697.23463	0.20329
1695.30595	0.20369
1693.37728	0.20420
1691.44860	0.20443
1689.51992	0.20429
1687.59125	0.20397
1685.66257	0.20348
1683.73390	0.20331
1681.80522	0.20371
1679.87655	0.20411
1677.94787	0.20412
1676.01919	0.20392
1674.09052	0.20386
1672.16184	0.20381
1670.23317	0.20367
1668.30449	0.20387
1666.37582	0.20425
1664.44714	0.20428
1662.51846	0.20419
1660.58979	0.20435
1658.66111	0.20444
1656.73244	0.20393
1654.80376	0.20298
1652.87509	0.20262
1650.94641	0.20315
1649.01773	0.20348
1647.08906	0.20344
1645.16038	0.20375
1643.23171	0.20428
1641.30303	0.20450
1639.37436	0.20430
1637.44568	0.20379
1635.51700	0.20357
1633.58833	0.20395
1631.65965	0.20437
1629.73098	0.20436
1627.80230	0.20415
1625.87363	0.20389
1623.94495	0.20351
1622.01627	0.20324
1620.08760	0.20319
1618.15892	0.20331
1616.23025	0.20384
1614.30157	0.20466
1612.37290	0.20526
1610.44422	0.20555
1608.51554	0.20580
1606.58687	0.20612
1604.65819	0.20641
1602.72952	0.20664
1600.80084	0.20685
1598.87217	0.20698
1596.94349	0.20706
1595.01481	0.20718
1593.08614	0.20736
1591.15746	0.20750
1589.22879	0.20763
1587.30011	0.20779
1585.37144	0.20795
1583.44276	0.20809
1581.51408	0.20822
1579.58541	0.20822
1577.65673	0.20810
1575.72806	0.20818
1573.79938	0.20848
1571.87071	0.20849
1569.94203	0.20835
1568.01335	0.20853
1566.08468	0.20886
1564.15600	0.20898
1562.22733	0.20859
1560.29865	0.20781
1558.36998	0.20762
1556.44130	0.20830
1554.51262	0.20904
1552.58395	0.20938
1550.65527	0.20950
1548.72660	0.20963
1546.79792	0.20959
1544.86925	0.20918
1542.94057	0.20862
1541.01189	0.20833
1539.08322	0.20867
1537.15454	0.20932
1535.22587	0.20956
1533.29719	0.20954
1531.36852	0.20970
1529.43984	0.20976
1527.51116	0.20960
1525.58249	0.20947
1523.65381	0.20920
1521.72514	0.20882
1519.79646	0.20881
1517.86779	0.20910
1515.93911	0.20945
1514.01043	0.20973
1512.08176	0.20968
1510.15308	0.20924
1508.22441	0.20876
1506.29573	0.20884
1504.36706	0.20955
1502.43838	0.21009
1500.50970	0.21003
1498.58103	0.20977
1496.65235	0.20974
1494.72368	0.20981
1492.79500	0.20959
1490.86633	0.20913
1488.93765	0.20892
1487.00897	0.20908
1485.08030	0.20930
1483.15162	0.20929
1481.22295	0.20910
1479.29427	0.20876
1477.36560	0.20821
1475.43692	0.20753
1473.50824	0.20693
1471.57957	0.20665
1469.65089	0.20662
1467.72222	0.20641
1465.79354	0.20602
1463.86487	0.20582
1461.93619	0.20562
1460.00751	0.20496
1458.07884	0.20410
1456.15016	0.20391
1454.22149	0.20441
1452.29281	0.20483
1450.36414	0.20486
1448.43546	0.20477
1446.50678	0.20480
1444.57811	0.20496
1442.64943	0.20508
1440.72076	0.20502
1438.79208	0.20464
1436.86341	0.20436
1434.93473	0.20469
1433.00605	0.20517
1431.07738	0.20532
1429.14870	0.20537
1427.22003	0.20546
1425.29135	0.20548
1423.36268	0.20541
1421.43400	0.20512
1419.50532	0.20469
1417.57665	0.20465
1415.64797	0.20495
1413.71930	0.20512
1411.79062	0.20511
1409.86195	0.20505
1407.93327	0.20496
1406.00459	0.20482
1404.07592	0.20473
1402.14724	0.20461
1400.21857	0.20435
1398.28989	0.20405
1396.36122	0.20384
1394.43254	0.20379
1392.50386	0.20393
1390.57519	0.20387
1388.64651	0.20344
1386.71784	0.20304
1384.78916	0.20291
1382.86049	0.20288
1380.93181	0.20283
1379.00313	0.20275
1377.07446	0.20255
1375.14578	0.20231
1373.21711	0.20221
1371.28843	0.20225
1369.35976	0.20223
1367.43108	0.20216
1365.50240	0.20198
1363.57373	0.20167
1361.64505	0.20148
1359.71638	0.20155
1357.78770	0.20166
1355.85903	0.20163
1353.93035	0.20154
1352.00167	0.20151
1350.07300	0.20152
1348.14432	0.20154
1346.21565	0.20157
1344.28697	0.20152
1342.35830	0.20130
1340.42962	0.20098
1338.50094	0.20079
1336.57227	0.20072
1334.64359	0.20058
1332.71492	0.20037
1330.78624	0.20013
1328.85757	0.19985
1326.92889	0.19955
1325.00021	0.19927
1323.07154	0.19894
1321.14286	0.19852
1319.21419	0.19812
1317.28551	0.19782
1315.35684	0.19753
1313.42816	0.19721
1311.49948	0.19687
1309.57081	0.19648
1307.64213	0.19604
1305.71346	0.19561
1303.78478	0.19523
1301.85611	0.19487
1299.92743	0.19447
1297.99875	0.19403
1296.07008	0.19356
1294.14140	0.19307
1292.21273	0.19264
1290.28405	0.19226
1288.35538	0.19189
1286.42670	0.19148
1284.49802	0.19101
1282.56935	0.19049
1280.64067	0.18997
1278.71200	0.18938
1276.78332	0.18868
1274.85465	0.18788
1272.92597	0.18698
1270.99729	0.18595
1269.06862	0.18476
1267.13994	0.18343
1265.21127	0.18213
1263.28259	0.18103
1261.35392	0.18014
1259.42524	0.17949
1257.49656	0.17904
1255.56789	0.17857
1253.63921	0.17787
1251.71054	0.17699
1249.78186	0.17608
1247.85319	0.17507
1245.92451	0.17391
1243.99583	0.17264
1242.06716	0.17136
1240.13848	0.17013
1238.20981	0.16896
1236.28113	0.16779
1234.35246	0.16661
1232.42378	0.16540
1230.49510	0.16412
1228.56643	0.16284
1226.63775	0.16162
1224.70908	0.16049
1222.78040	0.15943
1220.85173	0.15834
1218.92305	0.15717
1216.99437	0.15600
1215.06570	0.15485
1213.13702	0.15372
1211.20835	0.15262
1209.27967	0.15153
1207.35100	0.15043
1205.42232	0.14933
1203.49364	0.14822
1201.56497	0.14714
1199.63629	0.14612
1197.70762	0.14509
1195.77894	0.14402
1193.85027	0.14294
1191.92159	0.14184
1189.99291	0.14068
1188.06424	0.13953
1186.13556	0.13842
1184.20689	0.13730
1182.27821	0.13612
1180.34954	0.13491
1178.42086	0.13370
1176.49218	0.13250
1174.56351	0.13136
1172.63483	0.13026
1170.70616	0.12912
1168.77748	0.12792
1166.84881	0.12673
1164.92013	0.12559
1162.99145	0.12448
1161.06278	0.12339
1159.13410	0.12232
1157.20543	0.12126
1155.27675	0.12023
1153.34808	0.11920
1151.41940	0.11814
1149.49072	0.11707
1147.56205	0.11601
1145.63337	0.11493
1143.70470	0.11379
1141.77602	0.11265
1139.84735	0.11151
1137.91867	0.11031
1135.98999	0.10900
1134.06132	0.10755
1132.13264	0.10592
1130.20397	0.10408
1128.27529	0.10204
1126.34662	0.09988
1124.41794	0.09761
1122.48926	0.09520
1120.56059	0.09269
1118.63191	0.09019
1116.70324	0.08776
1114.77456	0.08535
1112.84589	0.08283
1110.91721	0.08022
1108.98853	0.07761
1107.05986	0.07500
1105.13118	0.07228
1103.20251	0.06947
1101.27383	0.06676
1099.34516	0.06423
1097.41648	0.06187
1095.48780	0.05968
1093.55913	0.05774
1091.63045	0.05597
1089.70178	0.05431
1087.77310	0.05282
1085.84443	0.05159
1083.91575	0.05053
1081.98707	0.04963
1080.05840	0.04890
1078.12972	0.04832
1076.20105	0.04786
1074.27237	0.04760
1072.34370	0.04751
1070.41502	0.04750
1068.48634	0.04760
1066.55767	0.04782
1064.62899	0.04812
1062.70032	0.04851
1060.77164	0.04903
1058.84297	0.04970
1056.91429	0.05048
1054.98561	0.05130
1053.05694	0.05217
1051.12826	0.05314
1049.19959	0.05422
1047.27091	0.05543
1045.34224	0.05678
1043.41356	0.05817
1041.48488	0.05957
1039.55621	0.06111
1037.62753	0.06285
1035.69886	0.06474
1033.77018	0.06672
1031.84151	0.06877
1029.91283	0.07088
1027.98415	0.07318
1026.05548	0.07574
1024.12680	0.07844
1022.19813	0.08117
1020.26945	0.08402
1018.34078	0.08705
1016.41210	0.09020
1014.48342	0.09346
1012.55475	0.09686
1010.62607	0.10046
1008.69740	0.10420
1006.76872	0.10789
1004.84005	0.11134
1002.91137	0.11452
1000.98269	0.11757
999.05402	0.12052
997.12534	0.12327
995.19667	0.12571
993.26799	0.12786
991.33932	0.12984
989.41064	0.13167
987.48196	0.13326
985.55329	0.13460
983.62461	0.13568
981.69594	0.13651
979.76726	0.13712
977.83859	0.13761
975.90991	0.13806
973.98123	0.13842
972.05256	0.13864
970.12388	0.13874
968.19521	0.13877
966.26653	0.13878
964.33786	0.13878
962.40918	0.13870
960.48050	0.13857
958.55183	0.13849
956.62315	0.13845
954.69448	0.13838
952.76580	0.13827
950.83713	0.13813
948.90845	0.13798
946.97977	0.13780
945.05110	0.13757
943.12242	0.13723
941.19375	0.13682
939.26507	0.13643
937.33640	0.13602
935.40772	0.13553
933.47904	0.13500
931.55037	0.13450
929.62169	0.13404
927.69302	0.13360
925.76434	0.13314
923.83567	0.13263
921.90699	0.13212
919.97831	0.13160
918.04964	0.13105
916.12096	0.13050
914.19229	0.12989
912.26361	0.12922
910.33494	0.12854
908.40626	0.12789
906.47758	0.12729
904.54891	0.12676
902.62023	0.12629
900.69156	0.12585
898.76288	0.12547
896.83421	0.12513
894.90553	0.12479
892.97685	0.12442
891.04818	0.12403
889.11950	0.12368
887.19083	0.12341
885.26215	0.12317
883.33348	0.12288
881.40480	0.12256
879.47612	0.12222
877.54745	0.12197
875.61877	0.12176
873.69010	0.12148
871.76142	0.12113
869.83275	0.12079
867.90407	0.12049
865.97539	0.12018
864.04672	0.11980
862.11804	0.11940
860.18937	0.11908
858.26069	0.11875
856.33202	0.11823
854.40334	0.11754
852.47466	0.11687
850.54599	0.11620
848.61731	0.11541
846.68864	0.11457
844.75996	0.11382
842.83129	0.11319
840.90261	0.11256
838.97394	0.11179
837.04526	0.11085
835.11658	0.10982
833.18791	0.10867
831.25923	0.10742
829.33056	0.10613
827.40188	0.10483
825.47321	0.10355
823.54453	0.10240
821.61585	0.10144
819.68718	0.10063
817.75850	0.09994
815.82983	0.09936
813.90115	0.09890
811.97248	0.09855
810.04380	0.09827
808.11512	0.09808
806.18645	0.09799
804.25777	0.09800
802.32910	0.09804
800.40042	0.09803
798.47175	0.09787
796.54307	0.09758
794.61439	0.09731
792.68572	0.09723
790.75704	0.09733
788.82837	0.09749
786.89969	0.09771
784.97102	0.09796
783.04234	0.09819
781.11366	0.09838
779.18499	0.09856
777.25631	0.09876
775.32764	0.09893
773.39896	0.09904
771.47029	0.09911
769.54161	0.09915
767.61293	0.09914
765.68426	0.09902
763.75558	0.09878
761.82691	0.09847
759.89823	0.09811
757.96956	0.09766
756.04088	0.09715
754.11220	0.09665
752.18353	0.09623
750.25485	0.09575
748.32618	0.09507
746.39750	0.09431
744.46883	0.09355
742.54015	0.09270
740.61147	0.09184
738.68280	0.09128
736.75412	0.09110
734.82545	0.09110
732.89677	0.09111
730.96810	0.09119
729.03942	0.09137
727.11074	0.09159
725.18207	0.09179
723.25339	0.09197
721.32472	0.09208
719.39604	0.09214
717.46737	0.09229
715.53869	0.09257
713.61001	0.09294
711.68134	0.09334
709.75266	0.09365
707.82399	0.09372
705.89531	0.09360
703.96664	0.09347
702.03796	0.09327
700.10928	0.09287
698.18061	0.09233
696.25193	0.09169
694.32326	0.09108
692.39458	0.09056
690.46591	0.09009
688.53723	0.08963
686.60855	0.08916
684.67988	0.08866
682.75120	0.08812
680.82253	0.08753
678.89385	0.08686
676.96518	0.08618
675.03650	0.08556
673.10782	0.08493
671.17915	0.08421
669.25047	0.08335
667.32180	0.08243
665.39312	0.08154
663.46445	0.08047
661.53577	0.07922
659.60709	0.07807
657.67842	0.07715
655.74974	0.07638
653.82107	0.07567
651.89239	0.07501
649.96372	0.07438
648.03504	0.07377
646.10636	0.07310
644.17769	0.07233
642.24901	0.07143
640.32034	0.07044
638.39166	0.06945
636.46299	0.06840
634.53431	0.06719
632.60563	0.06566
630.67696	0.06344
628.74828	0.06017
626.81961	0.05600
624.89093	0.05182
622.96226	0.04851
621.03358	0.04639
619.10490	0.04522
617.17623	0.04436
615.24755	0.04349
613.31888	0.04249
611.39020	0.04149
609.46153	0.04097
607.53285	0.04110
605.60417	0.04151
603.67550	0.04189
601.74682	0.04246
599.81815	0.04332
597.88947	0.04411
595.96080	0.04465
594.03212	0.04502
592.10344	0.04529
590.17477	0.04549
588.24609	0.04559
586.31742	0.04547
584.38874	0.04517
582.46007	0.04481
580.53139	0.04445
578.60271	0.04404
576.67404	0.04356
574.74536	0.04305
572.81669	0.04248
570.88801	0.04176
568.95934	0.04102
567.03066	0.04051
565.10198	0.04029
563.17331	0.04015
561.24463	0.03992
559.31596	0.03959
557.38728	0.03930
555.45861	0.03910
553.52993	0.03891
551.60125	0.03866
549.67258	0.03841
547.74390	0.03825
545.81523	0.03818
543.88655	0.03808
541.95788	0.03789
540.02920	0.03769
538.10052	0.03753
536.17185	0.03733
534.24317	0.03705
532.31450	0.03676
530.38582	0.03648
528.45715	0.03623
526.52847	0.03594
524.59979	0.03563
522.67112	0.03526
520.74244	0.03478
518.81377	0.03422
516.88509	0.03354
514.95642	0.03283
513.02774	0.03237
511.09906	0.03210
509.17039	0.03179
507.24171	0.03141
505.31304	0.03104
503.38436	0.03063
501.45569	0.03011
499.52701	0.02952
497.59833	0.02894
495.66966	0.02837
493.74098	0.02775
491.81231	0.02697
489.88363	0.02612
487.95496	0.02539
486.02628	0.02474
484.09760	0.02402
482.16893	0.02320
480.24025	0.02234
478.31158	0.02150
476.38290	0.02065
474.45423	0.01984
472.52555	0.01917
470.59687	0.01874
468.66820	0.01838
466.73952	0.01785
464.81085	0.01717
462.88217	0.01665
460.95350	0.01636
459.02482	0.01621
457.09614	0.01613
455.16747	0.01611
453.23879	0.01612
451.31012	0.01606
449.38144	0.01591
447.45277	0.01582
445.52409	0.01582
443.59541	0.01574
441.66674	0.01560
439.73806	0.01542
437.80939	0.01516
435.88071	0.01487
433.95204	0.01468
432.02336	0.01450
430.09468	0.01427
428.16601	0.01400
426.23733	0.01370
424.30866	0.01335
422.37998	0.01295
420.45131	0.01245
418.52263	0.01190
416.59395	0.01145
414.66528	0.01116
412.73660	0.01083
410.80793	0.01036
408.87925	0.00985
406.95058	0.00934
405.02190	0.00878
403.09322	0.00831
401.16455	0.00797
399.23587	0.00764
397.30720	0.00724
395.37852	0.00675
393.44985	0.00627
391.52117	0.00593
389.59249	0.00572
387.66382	0.00545
385.73514	0.00512
383.80647	0.00479
381.87779	0.00447
379.94912	0.00413
378.02044	0.00373
376.09176	0.00339
374.16309	0.00316
372.23441	0.00293
370.30574	0.00263
368.37706	0.00234
