7496.76250	0.00117
7494.83382	0.00117
7492.90514	0.00117
7490.97647	0.00118
7489.04779	0.00118
7487.11912	0.00119
7485.19044	0.00119
7483.26177	0.00120
7481.33309	0.00121
7479.40441	0.00122
7477.47574	0.00124
7475.54706	0.00124
7473.61839	0.00123
7471.68971	0.00123
7469.76104	0.00123
7467.83236	0.00123
7465.90368	0.00123
7463.97501	0.00122
7462.04633	0.00122
7460.11766	0.00123
7458.18898	0.00124
7456.26031	0.00124
7454.33163	0.00125
7452.40295	0.00126
7450.47428	0.00126
7448.54560	0.00126
7446.61693	0.00126
7444.68825	0.00127
7442.75958	0.00127
7440.83090	0.00127
7438.90222	0.00127
7436.97355	0.00128
7435.04487	0.00127
7433.11620	0.00127
7431.18752	0.00127
7429.25885	0.00128
7427.33017	0.00129
7425.40149	0.00128
7423.47282	0.00129
7421.54414	0.00130
7419.61547	0.00131
7417.68679	0.00130
7415.75812	0.00130
7413.82944	0.00131
7411.90076	0.00132
7409.97209	0.00132
7408.04341	0.00133
7406.11474	0.00133
7404.18606	0.00133
7402.25739	0.00133
7400.32871	0.00135
7398.40003	0.00137
7396.47136	0.00138
7394.54268	0.00138
7392.61401	0.00137
7390.68533	0.00137
7388.75666	0.00137
7386.82798	0.00137
7384.89930	0.00137
7382.97063	0.00136
7381.04195	0.00135
7379.11328	0.00137
7377.18460	0.00140
7375.25593	0.00141
7373.32725	0.00140
7371.39857	0.00139
7369.46990	0.00140
7367.54122	0.00140
7365.61255	0.00138
7363.68387	0.00137
7361.75520	0.00139
7359.82652	0.00142
7357.89784	0.00144
7355.96917	0.00143
7354.04049	0.00143
7352.11182	0.00143
7350.18314	0.00144
7348.25447	0.00146
7346.32579	0.00146
7344.39711	0.00146
7342.46844	0.00145
7340.53976	0.00144
7338.61109	0.00145
7336.68241	0.00147
7334.75374	0.00148
7332.82506	0.00149
7330.89638	0.00148
7328.96771	0.00148
7327.03903	0.00149
7325.11036	0.00149
7323.18168	0.00148
7321.25301	0.00147
7319.32433	0.00148
7317.39565	0.00149
7315.46698	0.00150
7313.53830	0.00151
7311.60963	0.00151
7309.68095	0.00151
7307.75228	0.00151
7305.82360	0.00153
7303.89492	0.00154
7301.96625	0.00155
7300.03757	0.00155
7298.10890	0.00155
7296.18022	0.00156
7294.25155	0.00158
7292.32287	0.00158
7290.39419	0.00158
7288.46552	0.00156
7286.53684	0.00155
7284.60817	0.00155
7282.67949	0.00156
7280.75082	0.00157
7278.82214	0.00158
7276.89346	0.00159
7274.96479	0.00159
7273.03611	0.00159
7271.10744	0.00159
7269.17876	0.00160
7267.25009	0.00161
7265.32141	0.00161
7263.39273	0.00162
7261.46406	0.00162
7259.53538	0.00163
7257.60671	0.00162
7255.67803	0.00162
7253.74936	0.00162
7251.82068	0.00163
7249.89200	0.00164
7247.96333	0.00163
7246.03465	0.00162
7244.10598	0.00161
7242.17730	0.00162
7240.24863	0.00163
7238.31995	0.00165
7236.39127	0.00166
7234.46260	0.00167
7232.53392	0.00168
7230.60525	0.00168
7228.67657	0.00168
7226.74790	0.00168
7224.81922	0.00169
7222.89054	0.00169
7220.96187	0.00169
7219.03319	0.00170
7217.10452	0.00171
7215.17584	0.00172
7213.24717	0.00172
7211.31849	0.00172
7209.38981	0.00172
7207.46114	0.00173
7205.53246	0.00173
7203.60379	0.00173
7201.67511	0.00173
7199.74644	0.00174
7197.81776	0.00175
7195.88908	0.00175
7193.96041	0.00174
7192.03173	0.00174
7190.10306	0.00176
7188.17438	0.00177
7186.24571	0.00177
7184.31703	0.00177
7182.38835	0.00177
7180.45968	0.00178
7178.53100	0.00179
7176.60233	0.00180
7174.67365	0.00180
7172.74498	0.00180
7170.81630	0.00179
7168.88762	0.00179
7166.95895	0.00181
7165.03027	0.00183
7163.10160	0.00184
7161.17292	0.00183
7159.24425	0.00184
7157.31557	0.00186
7155.38689	0.00187
7153.45822	0.00186
7151.52954	0.00185
7149.60087	0.00185
7147.67219	0.00186
7145.74352	0.00186
7143.81484	0.00186
7141.88616	0.00186
7139.95749	0.00187
7138.02881	0.00187
7136.10014	0.00188
7134.17146	0.00188
7132.24279	0.00189
7130.31411	0.00190
7128.38543	0.00190
7126.45676	0.00190
7124.52808	0.00190
7122.59941	0.00191
7120.67073	0.00192
7118.74206	0.00191
7116.81338	0.00191
7114.88470	0.00191
7112.95603	0.00192
7111.02735	0.00194
7109.09868	0.00195
7107.17000	0.00195
7105.24133	0.00196
7103.31265	0.00197
7101.38397	0.00197
7099.45530	0.00196
7097.52662	0.00196
7095.59795	0.00197
7093.66927	0.00198
7091.74060	0.00198
7089.81192	0.00198
7087.88324	0.00198
7085.95457	0.00199
7084.02589	0.00199
7082.09722	0.00200
7080.16854	0.00200
7078.23987	0.00202
7076.31119	0.00203
7074.38251	0.00204
7072.45384	0.00202
7070.52516	0.00200
7068.59649	0.00199
7066.66781	0.00201
7064.73914	0.00203
7062.81046	0.00206
7060.88178	0.00206
7058.95311	0.00207
7057.02443	0.00208
7055.09576	0.00207
7053.16708	0.00207
7051.23841	0.00208
7049.30973	0.00209
7047.38105	0.00210
7045.45238	0.00211
7043.52370	0.00210
7041.59503	0.00209
7039.66635	0.00209
7037.73768	0.00210
7035.80900	0.00209
7033.88032	0.00209
7031.95165	0.00210
7030.02297	0.00212
7028.09430	0.00213
7026.16562	0.00212
7024.23695	0.00212
7022.30827	0.00214
7020.37959	0.00214
7018.45092	0.00215
7016.52224	0.00217
7014.59357	0.00220
7012.66489	0.00220
7010.73622	0.00219
7008.80754	0.00220
7006.87886	0.00220
7004.95019	0.00221
7003.02151	0.00222
7001.09284	0.00222
6999.16416	0.00223
6997.23549	0.00224
6995.30681	0.00224
6993.37813	0.00224
6991.44946	0.00223
6989.52078	0.00224
6987.59211	0.00223
6985.66343	0.00223
6983.73476	0.00224
6981.80608	0.00223
6979.87740	0.00223
6977.94873	0.00225
6976.02005	0.00227
6974.09138	0.00228
6972.16270	0.00228
6970.23403	0.00227
6968.30535	0.00227
6966.37667	0.00228
6964.44800	0.00229
6962.51932	0.00229
6960.59065	0.00228
6958.66197	0.00229
6956.73330	0.00231
6954.80462	0.00234
6952.87594	0.00235
6950.94727	0.00234
6949.01859	0.00234
6947.08992	0.00233
6945.16124	0.00233
6943.23257	0.00234
6941.30389	0.00235
6939.37521	0.00236
6937.44654	0.00237
6935.51786	0.00239
6933.58919	0.00240
6931.66051	0.00240
6929.73184	0.00240
6927.80316	0.00239
6925.87448	0.00238
6923.94581	0.00237
6922.01713	0.00238
6920.08846	0.00239
6918.15978	0.00241
6916.23111	0.00244
6914.30243	0.00245
6912.37375	0.00246
6910.44508	0.00245
6908.51640	0.00245
6906.58773	0.00247
6904.65905	0.00248
6902.73038	0.00249
6900.80170	0.00249
6898.87302	0.00248
6896.94435	0.00248
6895.01567	0.00248
6893.08700	0.00247
6891.15832	0.00247
6889.22965	0.00248
6887.30097	0.00249
6885.37229	0.00250
6883.44362	0.00251
6881.51494	0.00253
6879.58627	0.00254
6877.65759	0.00254
6875.72892	0.00255
6873.80024	0.00257
6871.87156	0.00257
6869.94289	0.00256
6868.01421	0.00257
6866.08554	0.00259
6864.15686	0.00261
6862.22819	0.00261
6860.29951	0.00260
6858.37083	0.00262
6856.44216	0.00262
6854.51348	0.00261
6852.58481	0.00260
6850.65613	0.00261
6848.72746	0.00262
6846.79878	0.00262
6844.87010	0.00263
6842.94143	0.00263
6841.01275	0.00263
6839.08408	0.00263
6837.15540	0.00264
6835.22673	0.00265
6833.29805	0.00266
6831.36937	0.00267
6829.44070	0.00268
6827.51202	0.00269
6825.58335	0.00269
6823.65467	0.00269
6821.72600	0.00270
6819.79732	0.00271
6817.86864	0.00274
6815.93997	0.00275
6814.01129	0.00274
6812.08262	0.00273
6810.15394	0.00273
6808.22527	0.00274
6806.29659	0.00274
6804.36791	0.00276
6802.43924	0.00278
6800.51056	0.00279
6798.58189	0.00279
6796.65321	0.00278
6794.72454	0.00278
6792.79586	0.00279
6790.86718	0.00281
6788.93851	0.00282
6787.00983	0.00281
6785.08116	0.00280
6783.15248	0.00281
6781.22381	0.00283
6779.29513	0.00284
6777.36645	0.00285
6775.43778	0.00285
6773.50910	0.00286
6771.58043	0.00286
6769.65175	0.00287
6767.72308	0.00288
6765.79440	0.00288
6763.86572	0.00288
6761.93705	0.00287
6760.00837	0.00287
6758.07970	0.00288
6756.15102	0.00289
6754.22235	0.00291
6752.29367	0.00293
6750.36499	0.00295
6748.43632	0.00294
6746.50764	0.00293
6744.57897	0.00294
6742.65029	0.00295
6740.72162	0.00296
6738.79294	0.00297
6736.86426	0.00297
6734.93559	0.00297
6733.00691	0.00298
6731.07824	0.00299
6729.14956	0.00300
6727.22089	0.00300
6725.29221	0.00301
6723.36353	0.00302
6721.43486	0.00303
6719.50618	0.00303
6717.57751	0.00305
6715.64883	0.00307
6713.72016	0.00307
6711.79148	0.00306
6709.86280	0.00307
6707.93413	0.00308
6706.00545	0.00310
6704.07678	0.00310
6702.14810	0.00311
6700.21943	0.00311
6698.29075	0.00312
6696.36207	0.00313
6694.43340	0.00313
6692.50472	0.00313
6690.57605	0.00314
6688.64737	0.00315
6686.71870	0.00317
6684.79002	0.00319
6682.86134	0.00321
6680.93267	0.00320
6679.00399	0.00320
6677.07532	0.00320
6675.14664	0.00321
6673.21797	0.00322
6671.28929	0.00322
6669.36061	0.00323
6667.43194	0.00324
6665.50326	0.00326
6663.57459	0.00326
6661.64591	0.00325
6659.71724	0.00324
6657.78856	0.00325
6655.85988	0.00327
6653.93121	0.00328
6652.00253	0.00330
6650.07386	0.00330
6648.14518	0.00331
6646.21651	0.00332
6644.28783	0.00333
6642.35915	0.00334
6640.43048	0.00334
6638.50180	0.00334
6636.57313	0.00336
6634.64445	0.00337
6632.71578	0.00337
6630.78710	0.00336
6628.85842	0.00336
6626.92975	0.00337
6625.00107	0.00338
6623.07240	0.00339
6621.14372	0.00341
6619.21505	0.00344
6617.28637	0.00345
6615.35769	0.00343
6613.42902	0.00341
6611.50034	0.00342
6609.57167	0.00344
6607.64299	0.00345
6605.71432	0.00344
6603.78564	0.00344
6601.85696	0.00345
6599.92829	0.00347
6597.99961	0.00349
6596.07094	0.00351
6594.14226	0.00352
6592.21359	0.00352
6590.28491	0.00353
6588.35623	0.00354
6586.42756	0.00354
6584.49888	0.00354
6582.57021	0.00354
6580.64153	0.00354
6578.71286	0.00355
6576.78418	0.00357
6574.85550	0.00360
6572.92683	0.00361
6570.99815	0.00360
6569.06948	0.00360
6567.14080	0.00361
6565.21213	0.00363
6563.28345	0.00364
6561.35477	0.00363
6559.42610	0.00363
6557.49742	0.00365
6555.56875	0.00369
6553.64007	0.00369
6551.71140	0.00368
6549.78272	0.00368
6547.85404	0.00368
6545.92537	0.00368
6543.99669	0.00370
6542.06802	0.00373
6540.13934	0.00375
6538.21067	0.00376
6536.28199	0.00377
6534.35331	0.00377
6532.42464	0.00377
6530.49596	0.00378
6528.56729	0.00379
6526.63861	0.00380
6524.70994	0.00380
6522.78126	0.00381
6520.85258	0.00381
6518.92391	0.00381
6516.99523	0.00384
6515.06656	0.00387
6513.13788	0.00387
6511.20921	0.00386
6509.28053	0.00386
6507.35185	0.00387
6505.42318	0.00388
6503.49450	0.00389
6501.56583	0.00391
6499.63715	0.00392
6497.70848	0.00393
6495.77980	0.00392
6493.85112	0.00392
6491.92245	0.00393
6489.99377	0.00394
6488.06510	0.00395
6486.13642	0.00395
6484.20775	0.00395
6482.27907	0.00397
6480.35039	0.00399
6478.42172	0.00401
6476.49304	0.00402
6474.56437	0.00402
6472.63569	0.00401
6470.70702	0.00402
6468.77834	0.00404
6466.84966	0.00406
6464.92099	0.00407
6462.99231	0.00407
6461.06364	0.00409
6459.13496	0.00411
6457.20629	0.00412
6455.27761	0.00411
6453.34893	0.00411
6451.42026	0.00413
6449.49158	0.00414
6447.56291	0.00415
6445.63423	0.00416
6443.70556	0.00419
6441.77688	0.00420
6439.84820	0.00421
6437.91953	0.00421
6435.99085	0.00421
6434.06218	0.00421
6432.13350	0.00423
6430.20483	0.00424
6428.27615	0.00425
6426.34747	0.00425
6424.41880	0.00427
6422.49012	0.00430
6420.56145	0.00431
6418.63277	0.00431
6416.70410	0.00430
6414.77542	0.00429
6412.84674	0.00430
6410.91807	0.00431
6408.98939	0.00432
6407.06072	0.00433
6405.13204	0.00434
6403.20337	0.00437
6401.27469	0.00440
6399.34601	0.00441
6397.41734	0.00442
6395.48866	0.00442
6393.55999	0.00444
6391.63131	0.00446
6389.70264	0.00446
6387.77396	0.00445
6385.84528	0.00446
6383.91661	0.00447
6381.98793	0.00448
6380.05926	0.00448
6378.13058	0.00449
6376.20191	0.00450
6374.27323	0.00451
6372.34455	0.00453
6370.41588	0.00455
6368.48720	0.00457
6366.55853	0.00458
6364.62985	0.00458
6362.70118	0.00459
6360.77250	0.00460
6358.84382	0.00462
6356.91515	0.00462
6354.98647	0.00462
6353.05780	0.00464
6351.12912	0.00466
6349.20045	0.00468
6347.27177	0.00470
6345.34309	0.00471
6343.41442	0.00472
6341.48574	0.00472
6339.55707	0.00472
6337.62839	0.00472
6335.69972	0.00471
6333.77104	0.00470
6331.84236	0.00472
6329.91369	0.00475
6327.98501	0.00477
6326.05634	0.00477
6324.12766	0.00478
6322.19899	0.00479
6320.27031	0.00480
6318.34163	0.00481
6316.41296	0.00482
6314.48428	0.00484
6312.55561	0.00486
6310.62693	0.00487
6308.69826	0.00488
6306.76958	0.00489
6304.84090	0.00491
6302.91223	0.00493
6300.98355	0.00494
6299.05488	0.00494
6297.12620	0.00495
6295.19753	0.00495
6293.26885	0.00497
6291.34017	0.00498
6289.41150	0.00499
6287.48282	0.00499
6285.55415	0.00499
6283.62547	0.00500
6281.69680	0.00503
6279.76812	0.00506
6277.83944	0.00508
6275.91077	0.00509
6273.98209	0.00510
6272.05342	0.00510
6270.12474	0.00510
6268.19607	0.00509
6266.26739	0.00509
6264.33871	0.00511
6262.41004	0.00511
6260.48136	0.00513
6258.55269	0.00515
6256.62401	0.00518
6254.69534	0.00519
6252.76666	0.00521
6250.83798	0.00523
6248.90931	0.00524
6246.98063	0.00524
6245.05196	0.00524
6243.12328	0.00526
6241.19461	0.00529
6239.26593	0.00532
6237.33725	0.00533
6235.40858	0.00533
6233.47990	0.00533
6231.55123	0.00533
6229.62255	0.00535
6227.69388	0.00538
6225.76520	0.00539
6223.83652	0.00540
6221.90785	0.00541
6219.97917	0.00541
6218.05050	0.00542
6216.12182	0.00544
6214.19315	0.00545
6212.26447	0.00546
6210.33579	0.00547
6208.40712	0.00548
6206.47844	0.00548
6204.54977	0.00551
6202.62109	0.00553
6200.69242	0.00553
6198.76374	0.00553
6196.83506	0.00553
6194.90639	0.00555
6192.97771	0.00557
6191.04904	0.00558
6189.12036	0.00560
6187.19169	0.00562
6185.26301	0.00562
6183.33433	0.00561
6181.40566	0.00561
6179.47698	0.00564
6177.54831	0.00567
6175.61963	0.00570
6173.69096	0.00572
6171.76228	0.00574
6169.83360	0.00576
6167.90493	0.00577
6165.97625	0.00577
6164.04758	0.00577
6162.11890	0.00579
6160.19023	0.00582
6158.26155	0.00585
6156.33287	0.00585
6154.40420	0.00585
6152.47552	0.00585
6150.54685	0.00586
6148.61817	0.00588
6146.68950	0.00590
6144.76082	0.00591
6142.83214	0.00591
6140.90347	0.00592
6138.97479	0.00593
6137.04612	0.00594
6135.11744	0.00595
6133.18877	0.00597
6131.26009	0.00597
6129.33141	0.00599
6127.40274	0.00601
6125.47406	0.00604
6123.54539	0.00606
6121.61671	0.00607
6119.68804	0.00608
6117.75936	0.00609
6115.83068	0.00611
6113.90201	0.00614
6111.97333	0.00616
6110.04466	0.00617
6108.11598	0.00617
6106.18731	0.00617
6104.25863	0.00617
6102.32995	0.00619
6100.40128	0.00622
6098.47260	0.00624
6096.54393	0.00624
6094.61525	0.00623
6092.68658	0.00624
6090.75790	0.00628
6088.82922	0.00632
6086.90055	0.00634
6084.97187	0.00635
6083.04320	0.00635
6081.11452	0.00636
6079.18585	0.00638
6077.25717	0.00639
6075.32849	0.00640
6073.39982	0.00641
6071.47114	0.00644
6069.54247	0.00647
6067.61379	0.00647
6065.68512	0.00646
6063.75644	0.00647
6061.82776	0.00650
6059.89909	0.00652
6057.97041	0.00653
6056.04174	0.00653
6054.11306	0.00653
6052.18439	0.00655
6050.25571	0.00656
6048.32703	0.00658
6046.39836	0.00659
6044.46968	0.00661
6042.54101	0.00664
6040.61233	0.00666
6038.68366	0.00667
6036.75498	0.00667
6034.82630	0.00668
6032.89763	0.00670
6030.96895	0.00671
6029.04028	0.00673
6027.11160	0.00675
6025.18293	0.00676
6023.25425	0.00679
6021.32557	0.00681
6019.39690	0.00683
6017.46822	0.00684
6015.53955	0.00685
6013.61087	0.00689
6011.68220	0.00690
6009.75352	0.00690
6007.82484	0.00692
6005.89617	0.00695
6003.96749	0.00697
6002.03882	0.00699
6000.11014	0.00699
5998.18147	0.00698
5996.25279	0.00700
5994.32411	0.00702
5992.39544	0.00705
5990.46676	0.00708
5988.53809	0.00709
5986.60941	0.00709
5984.68074	0.00707
5982.75206	0.00707
5980.82338	0.00711
5978.89471	0.00715
5976.96603	0.00717
5975.03736	0.00717
5973.10868	0.00718
5971.18001	0.00720
5969.25133	0.00724
5967.32265	0.00726
5965.39398	0.00726
5963.46530	0.00726
5961.53663	0.00729
5959.60795	0.00732
5957.67928	0.00733
5955.75060	0.00733
5953.82192	0.00734
5951.89325	0.00736
5949.96457	0.00737
5948.03590	0.00739
5946.10722	0.00741
5944.17855	0.00743
5942.24987	0.00746
5940.32119	0.00750
5938.39252	0.00752
5936.46384	0.00753
5934.53517	0.00756
5932.60649	0.00758
5930.67782	0.00759
5928.74914	0.00758
5926.82046	0.00759
5924.89179	0.00761
5922.96311	0.00763
5921.03444	0.00765
5919.10576	0.00769
5917.17709	0.00771
5915.24841	0.00771
5913.31973	0.00771
5911.39106	0.00771
5909.46238	0.00771
5907.53371	0.00775
5905.60503	0.00780
5903.67636	0.00784
5901.74768	0.00785
5899.81900	0.00785
5897.89033	0.00786
5895.96165	0.00788
5894.03298	0.00789
5892.10430	0.00789
5890.17563	0.00789
5888.24695	0.00792
5886.31827	0.00796
5884.38960	0.00798
5882.46092	0.00799
5880.53225	0.00801
5878.60357	0.00804
5876.67490	0.00807
5874.74622	0.00808
5872.81755	0.00808
5870.88887	0.00809
5868.96019	0.00810
5867.03152	0.00812
5865.10284	0.00814
5863.17417	0.00816
5861.24549	0.00819
5859.31682	0.00822
5857.38814	0.00823
5855.45946	0.00824
5853.53079	0.00826
5851.60211	0.00828
5849.67344	0.00831
5847.74476	0.00834
5845.81609	0.00835
5843.88741	0.00835
5841.95873	0.00836
5840.03006	0.00837
5838.10138	0.00839
5836.17271	0.00841
5834.24403	0.00845
5832.31536	0.00848
5830.38668	0.00851
5828.45800	0.00852
5826.52933	0.00853
5824.60065	0.00857
5822.67198	0.00860
5820.74330	0.00859
5818.81463	0.00859
5816.88595	0.00861
5814.95727	0.00865
5813.02860	0.00868
5811.09992	0.00868
5809.17125	0.00869
5807.24257	0.00872
5805.31390	0.00874
5803.38522	0.00876
5801.45654	0.00878
5799.52787	0.00882
5797.59919	0.00885
5795.67052	0.00884
5793.74184	0.00882
5791.81317	0.00883
5789.88449	0.00887
5787.95581	0.00891
5786.02714	0.00893
5784.09846	0.00895
5782.16979	0.00897
5780.24111	0.00899
5778.31244	0.00902
5776.38376	0.00904
5774.45508	0.00905
5772.52641	0.00907
5770.59773	0.00908
5768.66906	0.00911
5766.74038	0.00915
5764.81171	0.00919
5762.88303	0.00920
5760.95435	0.00922
5759.02568	0.00923
5757.09700	0.00924
5755.16833	0.00925
5753.23965	0.00926
5751.31098	0.00928
5749.38230	0.00930
5747.45362	0.00932
5745.52495	0.00933
5743.59627	0.00935
5741.66760	0.00939
5739.73892	0.00942
5737.81025	0.00943
5735.88157	0.00943
5733.95289	0.00946
5732.02422	0.00949
5730.09554	0.00950
5728.16687	0.00951
5726.23819	0.00954
5724.30952	0.00957
5722.38084	0.00959
5720.45216	0.00962
5718.52349	0.00963
5716.59481	0.00964
5714.66614	0.00965
5712.73746	0.00967
5710.80879	0.00970
5708.88011	0.00972
5706.95143	0.00975
5705.02276	0.00979
5703.09408	0.00981
5701.16541	0.00982
5699.23673	0.00982
5697.30806	0.00984
5695.37938	0.00988
5693.45070	0.00990
5691.52203	0.00991
5689.59335	0.00993
5687.66468	0.00996
5685.73600	0.00999
5683.80733	0.01001
5681.87865	0.01003
5679.94997	0.01005
5678.02130	0.01008
5676.09262	0.01009
5674.16395	0.01011
5672.23527	0.01014
5670.30660	0.01018
5668.37792	0.01021
5666.44924	0.01023
5664.52057	0.01024
5662.59189	0.01025
5660.66322	0.01027
5658.73454	0.01031
5656.80587	0.01033
5654.87719	0.01034
5652.94851	0.01036
5651.01984	0.01040
5649.09116	0.01043
5647.16249	0.01046
5645.23381	0.01049
5643.30514	0.01051
5641.37646	0.01053
5639.44778	0.01053
5637.51911	0.01054
5635.59043	0.01055
5633.66176	0.01057
5631.73308	0.01060
5629.80441	0.01062
5627.87573	0.01065
5625.94705	0.01068
5624.01838	0.01070
5622.08970	0.01071
5620.16103	0.01072
5618.23235	0.01073
5616.30368	0.01076
5614.37500	0.01081
5612.44632	0.01084
5610.51765	0.01086
5608.58897	0.01086
5606.66030	0.01087
5604.73162	0.01091
5602.80295	0.01094
5600.87427	0.01096
5598.94559	0.01097
5597.01692	0.01099
5595.08824	0.01101
5593.15957	0.01104
5591.23089	0.01107
5589.30222	0.01110
5587.37354	0.01114
5585.44486	0.01117
5583.51619	0.01118
5581.58751	0.01120
5579.65884	0.01123
5577.73016	0.01126
5575.80149	0.01129
5573.87281	0.01130
5571.94413	0.01131
5570.01546	0.01133
5568.08678	0.01136
5566.15811	0.01140
5564.22943	0.01142
5562.30076	0.01143
5560.37208	0.01145
5558.44340	0.01146
5556.51473	0.01148
5554.58605	0.01151
5552.65738	0.01157
5550.72870	0.01160
5548.80003	0.01161
5546.87135	0.01161
5544.94267	0.01163
5543.01400	0.01165
5541.08532	0.01169
5539.15665	0.01172
5537.22797	0.01174
5535.29930	0.01176
5533.37062	0.01178
5531.44194	0.01181
5529.51327	0.01185
5527.58459	0.01189
5525.65592	0.01189
5523.72724	0.01188
5521.79857	0.01190
5519.86989	0.01196
5517.94121	0.01201
5516.01254	0.01203
5514.08386	0.01204
5512.15519	0.01206
5510.22651	0.01210
5508.29784	0.01213
5506.36916	0.01214
5504.44048	0.01214
5502.51181	0.01218
5500.58313	0.01221
5498.65446	0.01223
5496.72578	0.01225
5494.79711	0.01227
5492.86843	0.01230
5490.93975	0.01233
5489.01108	0.01235
5487.08240	0.01238
5485.15373	0.01242
5483.22505	0.01245
5481.29638	0.01246
5479.36770	0.01246
5477.43902	0.01248
5475.51035	0.01253
5473.58167	0.01258
5471.65300	0.01260
5469.72432	0.01261
5467.79565	0.01262
5465.86697	0.01266
5463.93829	0.01269
5462.00962	0.01270
5460.08094	0.01270
5458.15227	0.01273
5456.22359	0.01277
5454.29492	0.01282
5452.36624	0.01286
5450.43756	0.01288
5448.50889	0.01290
5446.58021	0.01290
5444.65154	0.01291
5442.72286	0.01295
5440.79419	0.01299
5438.86551	0.01303
5436.93683	0.01305
5435.00816	0.01308
5433.07948	0.01310
5431.15081	0.01311
5429.22213	0.01311
5427.29346	0.01313
5425.36478	0.01317
5423.43610	0.01321
5421.50743	0.01323
5419.57875	0.01325
5417.65008	0.01327
5415.72140	0.01331
5413.79273	0.01335
5411.86405	0.01339
5409.93537	0.01343
5408.00670	0.01346
5406.07802	0.01348
5404.14935	0.01351
5402.22067	0.01353
5400.29200	0.01355
5398.36332	0.01357
5396.43464	0.01360
5394.50597	0.01362
5392.57729	0.01365
5390.64862	0.01368
5388.71994	0.01371
5386.79127	0.01373
5384.86259	0.01375
5382.93391	0.01377
5381.00524	0.01381
5379.07656	0.01384
5377.14789	0.01387
5375.21921	0.01393
5373.29054	0.01398
5371.36186	0.01400
5369.43318	0.01401
5367.50451	0.01403
5365.57583	0.01406
5363.64716	0.01408
5361.71848	0.01411
5359.78981	0.01415
5357.86113	0.01418
5355.93245	0.01419
5354.00378	0.01420
5352.07510	0.01422
5350.14643	0.01426
5348.21775	0.01429
5346.28908	0.01431
5344.36040	0.01433
5342.43172	0.01436
5340.50305	0.01436
5338.57437	0.01436
5336.64570	0.01440
5334.71702	0.01446
5332.78835	0.01451
5330.85967	0.01453
5328.93099	0.01455
5327.00232	0.01457
5325.07364	0.01462
5323.14497	0.01466
5321.21629	0.01468
5319.28762	0.01471
5317.35894	0.01474
5315.43026	0.01477
5313.50159	0.01479
5311.57291	0.01482
5309.64424	0.01485
5307.71556	0.01488
5305.78689	0.01490
5303.85821	0.01493
5301.92953	0.01496
5300.00086	0.01500
5298.07218	0.01503
5296.14351	0.01505
5294.21483	0.01507
5292.28616	0.01509
5290.35748	0.01513
5288.42880	0.01517
5286.50013	0.01518
5284.57145	0.01519
5282.64278	0.01523
5280.71410	0.01528
5278.78543	0.01534
5276.85675	0.01539
5274.92807	0.01542
5272.99940	0.01544
5271.07072	0.01545
5269.14205	0.01547
5267.21337	0.01551
5265.28470	0.01554
5263.35602	0.01556
5261.42734	0.01558
5259.49867	0.01562
5257.56999	0.01567
5255.64132	0.01572
5253.71264	0.01574
5251.78397	0.01575
5249.85529	0.01575
5247.92661	0.01576
5245.99794	0.01579
5244.06926	0.01583
5242.14059	0.01586
5240.21191	0.01590
5238.28324	0.01596
5236.35456	0.01600
5234.42588	0.01603
5232.49721	0.01607
5230.56853	0.01610
5228.63986	0.01613
5226.71118	0.01613
5224.78251	0.01615
5222.85383	0.01617
5220.92515	0.01620
5218.99648	0.01623
5217.06780	0.01628
5215.13913	0.01634
5213.21045	0.01637
5211.28178	0.01638
5209.35310	0.01640
5207.42442	0.01641
5205.49575	0.01643
5203.56707	0.01647
5201.63840	0.01650
5199.70972	0.01653
5197.78105	0.01656
5195.85237	0.01659
5193.92369	0.01662
5191.99502	0.01665
5190.06634	0.01667
5188.13767	0.01670
5186.20899	0.01675
5184.28032	0.01679
5182.35164	0.01683
5180.42296	0.01687
5178.49429	0.01690
5176.56561	0.01692
5174.63694	0.01695
5172.70826	0.01699
5170.77959	0.01702
5168.85091	0.01703
5166.92223	0.01705
5164.99356	0.01707
5163.06488	0.01709
5161.13621	0.01713
5159.20753	0.01718
5157.27886	0.01724
5155.35018	0.01727
5153.42150	0.01729
5151.49283	0.01732
5149.56415	0.01737
5147.63548	0.01741
5145.70680	0.01743
5143.77813	0.01746
5141.84945	0.01749
5139.92077	0.01752
5137.99210	0.01755
5136.06342	0.01758
5134.13475	0.01761
5132.20607	0.01764
5130.27740	0.01768
5128.34872	0.01772
5126.42004	0.01774
5124.49137	0.01774
5122.56269	0.01776
5120.63402	0.01780
5118.70534	0.01785
5116.77667	0.01789
5114.84799	0.01792
5112.91931	0.01795
5110.99064	0.01798
5109.06196	0.01801
5107.13329	0.01807
5105.20461	0.01810
5103.27594	0.01812
5101.34726	0.01813
5099.41858	0.01814
5097.48991	0.01816
5095.56123	0.01820
5093.63256	0.01823
5091.70388	0.01826
5089.77521	0.01831
5087.84653	0.01838
5085.91785	0.01841
5083.98918	0.01843
5082.06050	0.01845
5080.13183	0.01849
5078.20315	0.01853
5076.27448	0.01857
5074.34580	0.01861
5072.41712	0.01865
5070.48845	0.01868
5068.55977	0.01871
5066.63110	0.01873
5064.70242	0.01875
5062.77375	0.01880
5060.84507	0.01885
5058.91639	0.01886
5056.98772	0.01888
5055.05904	0.01891
5053.13037	0.01894
5051.20169	0.01898
5049.27302	0.01901
5047.34434	0.01904
5045.41566	0.01907
5043.48699	0.01912
5041.55831	0.01916
5039.62964	0.01921
5037.70096	0.01924
5035.77229	0.01925
5033.84361	0.01929
5031.91493	0.01934
5029.98626	0.01938
5028.05758	0.01943
5026.12891	0.01947
5024.20023	0.01950
5022.27156	0.01953
5020.34288	0.01957
5018.41420	0.01961
5016.48553	0.01964
5014.55685	0.01967
5012.62818	0.01970
5010.69950	0.01972
5008.77083	0.01975
5006.84215	0.01978
5004.91347	0.01982
5002.98480	0.01986
5001.05612	0.01990
4999.12745	0.01994
4997.19877	0.01999
4995.27010	0.02003
4993.34142	0.02005
4991.41274	0.02008
4989.48407	0.02011
4987.55539	0.02015
4985.62672	0.02019
4983.69804	0.02023
4981.76937	0.02026
4979.84069	0.02030
4977.91201	0.02035
4975.98334	0.02038
4974.05466	0.02040
4972.12599	0.02044
4970.19731	0.02048
4968.26864	0.02050
4966.33996	0.02052
4964.41128	0.02054
4962.48261	0.02056
4960.55393	0.02060
4958.62526	0.02063
4956.69658	0.02066
4954.76791	0.02069
4952.83923	0.02073
4950.91055	0.02076
4948.98188	0.02080
4947.05320	0.02085
4945.12453	0.02090
4943.19585	0.02093
4941.26718	0.02096
4939.33850	0.02100
4937.40982	0.02103
4935.48115	0.02109
4933.55247	0.02114
4931.62380	0.02116
4929.69512	0.02119
4927.76645	0.02122
4925.83777	0.02126
4923.90909	0.02130
4921.98042	0.02134
4920.05174	0.02138
4918.12307	0.02144
4916.19439	0.02149
4914.26572	0.02151
4912.33704	0.02152
4910.40836	0.02154
4908.47969	0.02157
4906.55101	0.02163
4904.62234	0.02168
4902.69366	0.02173
4900.76499	0.02175
4898.83631	0.02177
4896.90763	0.02179
4894.97896	0.02183
4893.05028	0.02187
4891.12161	0.02190
4889.19293	0.02194
4887.26426	0.02198
4885.33558	0.02202
4883.40690	0.02208
4881.47823	0.02212
4879.54955	0.02214
4877.62088	0.02215
4875.69220	0.02219
4873.76353	0.02225
4871.83485	0.02231
4869.90617	0.02235
4867.97750	0.02237
4866.04882	0.02239
4864.12015	0.02243
4862.19147	0.02247
4860.26280	0.02252
4858.33412	0.02257
4856.40544	0.02261
4854.47677	0.02263
4852.54809	0.02265
4850.61942	0.02271
4848.69074	0.02276
4846.76207	0.02281
4844.83339	0.02283
4842.90471	0.02287
4840.97604	0.02293
4839.04736	0.02296
4837.11869	0.02298
4835.19001	0.02301
4833.26134	0.02304
4831.33266	0.02308
4829.40398	0.02314
4827.47531	0.02319
4825.54663	0.02322
4823.61796	0.02325
4821.68928	0.02328
4819.76061	0.02331
4817.83193	0.02335
4815.90325	0.02340
4813.97458	0.02345
4812.04590	0.02348
4810.11723	0.02350
4808.18855	0.02352
4806.25988	0.02356
4804.33120	0.02361
4802.40252	0.02366
4800.47385	0.02370
4798.54517	0.02374
4796.61650	0.02380
4794.68782	0.02386
4792.75915	0.02390
4790.83047	0.02393
4788.90179	0.02395
4786.97312	0.02398
4785.04444	0.02403
4783.11577	0.02408
4781.18709	0.02412
4779.25842	0.02415
4777.32974	0.02418
4775.40106	0.02425
4773.47239	0.02432
4771.54371	0.02437
4769.61504	0.02440
4767.68636	0.02443
4765.75769	0.02447
4763.82901	0.02451
4761.90033	0.02456
4759.97166	0.02460
4758.04298	0.02465
4756.11431	0.02467
4754.18563	0.02469
4752.25696	0.02472
4750.32828	0.02477
4748.39960	0.02481
4746.47093	0.02487
4744.54225	0.02492
4742.61358	0.02497
4740.68490	0.02498
4738.75623	0.02500
4736.82755	0.02505
4734.89887	0.02513
4732.97020	0.02520
4731.04152	0.02524
4729.11285	0.02525
4727.18417	0.02526
4725.25550	0.02530
4723.32682	0.02533
4721.39814	0.02536
4719.46947	0.02541
4717.54079	0.02547
4715.61212	0.02550
4713.68344	0.02553
4711.75477	0.02556
4709.82609	0.02561
4707.89741	0.02567
4705.96874	0.02574
4704.04006	0.02581
4702.11139	0.02587
4700.18271	0.02592
4698.25404	0.02594
4696.32536	0.02596
4694.39668	0.02599
4692.46801	0.02605
4690.53933	0.02610
4688.61066	0.02613
4686.68198	0.02616
4684.75331	0.02621
4682.82463	0.02626
4680.89595	0.02631
4678.96728	0.02638
4677.03860	0.02643
4675.10993	0.02646
4673.18125	0.02649
4671.25258	0.02651
4669.32390	0.02654
4667.39522	0.02658
4665.46655	0.02664
4663.53787	0.02670
4661.60920	0.02675
4659.68052	0.02680
4657.75185	0.02685
4655.82317	0.02691
4653.89449	0.02695
4651.96582	0.02698
4650.03714	0.02702
4648.10847	0.02707
4646.17979	0.02711
4644.25112	0.02716
4642.32244	0.02721
4640.39376	0.02726
4638.46509	0.02730
4636.53641	0.02734
4634.60774	0.02737
4632.67906	0.02742
4630.75039	0.02747
4628.82171	0.02752
4626.89303	0.02756
4624.96436	0.02761
4623.03568	0.02765
4621.10701	0.02769
4619.17833	0.02773
4617.24966	0.02778
4615.32098	0.02784
4613.39230	0.02789
4611.46363	0.02794
4609.53495	0.02799
4607.60628	0.02803
4605.67760	0.02806
4603.74893	0.02812
4601.82025	0.02819
4599.89157	0.02824
4597.96290	0.02828
4596.03422	0.02831
4594.10555	0.02835
4592.17687	0.02840
4590.24820	0.02846
4588.31952	0.02852
4586.39084	0.02856
4584.46217	0.02859
4582.53349	0.02862
4580.60482	0.02868
4578.67614	0.02874
4576.74747	0.02878
4574.81879	0.02882
4572.89011	0.02887
4570.96144	0.02893
4569.03276	0.02899
4567.10409	0.02903
4565.17541	0.02909
4563.24674	0.02915
4561.31806	0.02921
4559.38938	0.02927
4557.46071	0.02931
4555.53203	0.02934
4553.60336	0.02938
4551.67468	0.02942
4549.74601	0.02946
4547.81733	0.02952
4545.88865	0.02958
4543.95998	0.02963
4542.03130	0.02967
4540.10263	0.02972
4538.17395	0.02978
4536.24528	0.02983
4534.31660	0.02988
4532.38792	0.02993
4530.45925	0.02997
4528.53057	0.03002
4526.60190	0.03006
4524.67322	0.03012
4522.74455	0.03019
4520.81587	0.03026
4518.88719	0.03034
4516.95852	0.03039
4515.02984	0.03042
4513.10117	0.03047
4511.17249	0.03054
4509.24382	0.03059
4507.31514	0.03063
4505.38646	0.03066
4503.45779	0.03071
4501.52911	0.03078
4499.60044	0.03084
4497.67176	0.03090
4495.74309	0.03094
4493.81441	0.03099
4491.88573	0.03103
4489.95706	0.03107
4488.02838	0.03113
4486.09971	0.03122
4484.17103	0.03130
4482.24236	0.03135
4480.31368	0.03139
4478.38500	0.03144
4476.45633	0.03149
4474.52765	0.03154
4472.59898	0.03159
4470.67030	0.03164
4468.74163	0.03169
4466.81295	0.03175
4464.88427	0.03182
4462.95560	0.03190
4461.02692	0.03197
4459.09825	0.03201
4457.16957	0.03204
4455.24090	0.03207
4453.31222	0.03210
4451.38354	0.03214
4449.45487	0.03222
4447.52619	0.03231
4445.59752	0.03238
4443.66884	0.03243
4441.74017	0.03249
4439.81149	0.03255
4437.88281	0.03261
4435.95414	0.03268
4434.02546	0.03273
4432.09679	0.03277
4430.16811	0.03282
4428.23944	0.03288
4426.31076	0.03294
4424.38208	0.03300
4422.45341	0.03306
4420.52473	0.03313
4418.59606	0.03320
4416.66738	0.03325
4414.73871	0.03329
4412.81003	0.03335
4410.88135	0.03342
4408.95268	0.03349
4407.02400	0.03354
4405.09533	0.03359
4403.16665	0.03366
4401.23798	0.03374
4399.30930	0.03379
4397.38062	0.03382
4395.45195	0.03387
4393.52327	0.03395
4391.59460	0.03405
4389.66592	0.03413
4387.73725	0.03419
4385.80857	0.03423
4383.87989	0.03426
4381.95122	0.03431
4380.02254	0.03438
4378.09387	0.03444
4376.16519	0.03450
4374.23652	0.03454
4372.30784	0.03460
4370.37916	0.03467
4368.45049	0.03475
4366.52181	0.03481
4364.59314	0.03486
4362.66446	0.03490
4360.73579	0.03496
4358.80711	0.03504
4356.87843	0.03512
4354.94976	0.03519
4353.02108	0.03524
4351.09241	0.03527
4349.16373	0.03532
4347.23506	0.03540
4345.30638	0.03548
4343.37770	0.03557
4341.44903	0.03565
4339.52035	0.03571
4337.59168	0.03575
4335.66300	0.03581
4333.73433	0.03588
4331.80565	0.03595
4329.87697	0.03600
4327.94830	0.03607
4326.01962	0.03615
4324.09095	0.03623
4322.16227	0.03630
4320.23360	0.03637
4318.30492	0.03643
4316.37624	0.03648
4314.44757	0.03654
4312.51889	0.03661
4310.59022	0.03668
4308.66154	0.03675
4306.73287	0.03680
4304.80419	0.03686
4302.87551	0.03692
4300.94684	0.03699
4299.01816	0.03705
4297.08949	0.03711
4295.16081	0.03717
4293.23214	0.03725
4291.30346	0.03734
4289.37478	0.03741
4287.44611	0.03748
4285.51743	0.03756
4283.58876	0.03764
4281.66008	0.03773
4279.73141	0.03782
4277.80273	0.03790
4275.87405	0.03796
4273.94538	0.03802
4272.01670	0.03808
4270.08803	0.03813
4268.15935	0.03818
4266.23068	0.03825
4264.30200	0.03833
4262.37332	0.03840
4260.44465	0.03846
4258.51597	0.03851
4256.58730	0.03857
4254.65862	0.03864
4252.72995	0.03874
4250.80127	0.03884
4248.87259	0.03892
4246.94392	0.03898
4245.01524	0.03902
4243.08657	0.03908
4241.15789	0.03917
4239.22922	0.03928
4237.30054	0.03938
4235.37186	0.03944
4233.44319	0.03947
4231.51451	0.03953
4229.58584	0.03960
4227.65716	0.03967
4225.72849	0.03976
4223.79981	0.03987
4221.87113	0.03996
4219.94246	0.04002
4218.01378	0.04008
4216.08511	0.04013
4214.15643	0.04019
4212.22776	0.04028
4210.29908	0.04036
4208.37040	0.04042
4206.44173	0.04046
4204.51305	0.04052
4202.58438	0.04060
4200.65570	0.04067
4198.72703	0.04073
4196.79835	0.04082
4194.86968	0.04093
4192.94100	0.04103
4191.01232	0.04113
4189.08365	0.04120
4187.15497	0.04125
4185.22630	0.04131
4183.29762	0.04139
4181.36895	0.04147
4179.44027	0.04154
4177.51159	0.04161
4175.58292	0.04168
4173.65424	0.04175
4171.72557	0.04184
4169.79689	0.04193
4167.86822	0.04201
4165.93954	0.04209
4164.01086	0.04217
4162.08219	0.04225
4160.15351	0.04234
4158.22484	0.04244
4156.29616	0.04251
4154.36749	0.04256
4152.43881	0.04263
4150.51013	0.04272
4148.58146	0.04283
4146.65278	0.04293
4144.72411	0.04301
4142.79543	0.04309
4140.86676	0.04316
4138.93808	0.04322
4137.00940	0.04328
4135.08073	0.04335
4133.15205	0.04343
4131.22338	0.04349
4129.29470	0.04357
4127.36603	0.04367
4125.43735	0.04378
4123.50867	0.04386
4121.58000	0.04393
4119.65132	0.04398
4117.72265	0.04406
4115.79397	0.04415
4113.86530	0.04422
4111.93662	0.04429
4110.00794	0.04438
4108.07927	0.04447
4106.15059	0.04455
4104.22192	0.04463
4102.29324	0.04472
4100.36457	0.04482
4098.43589	0.04491
4096.50721	0.04500
4094.57854	0.04508
4092.64986	0.04515
4090.72119	0.04521
4088.79251	0.04529
4086.86384	0.04538
4084.93516	0.04549
4083.00648	0.04557
4081.07781	0.04564
4079.14913	0.04574
4077.22046	0.04584
4075.29178	0.04593
4073.36311	0.04598
4071.43443	0.04604
4069.50575	0.04614
4067.57708	0.04626
4065.64840	0.04636
4063.71973	0.04644
4061.79105	0.04652
4059.86238	0.04662
4057.93370	0.04672
4056.00502	0.04680
4054.07635	0.04688
4052.14767	0.04696
4050.21900	0.04703
4048.29032	0.04712
4046.36165	0.04722
4044.43297	0.04730
4042.50429	0.04738
4040.57562	0.04747
4038.64694	0.04756
4036.71827	0.04765
4034.78959	0.04774
4032.86092	0.04782
4030.93224	0.04791
4029.00356	0.04800
4027.07489	0.04808
4025.14621	0.04817
4023.21754	0.04828
4021.28886	0.04837
4019.36019	0.04845
4017.43151	0.04855
4015.50283	0.04863
4013.57416	0.04870
4011.64548	0.04878
4009.71681	0.04887
4007.78813	0.04895
4005.85946	0.04904
4003.93078	0.04914
4002.00210	0.04925
4000.07343	0.04934
3998.14475	0.04943
3996.21608	0.04952
3994.28740	0.04962
3992.35873	0.04972
3990.43005	0.04981
3988.50137	0.04991
3986.57270	0.05002
3984.64402	0.05012
3982.71535	0.05020
3980.78667	0.05028
3978.85800	0.05035
3976.92932	0.05042
3975.00064	0.05051
3973.07197	0.05061
3971.14329	0.05072
3969.21462	0.05083
3967.28594	0.05093
3965.35727	0.05101
3963.42859	0.05107
3961.49991	0.05114
3959.57124	0.05122
3957.64256	0.05133
3955.71389	0.05147
3953.78521	0.05160
3951.85654	0.05168
3949.92786	0.05171
3947.99918	0.05174
3946.07051	0.05180
3944.14183	0.05188
3942.21316	0.05202
3940.28448	0.05219
3938.35581	0.05233
3936.42713	0.05240
3934.49845	0.05244
3932.56978	0.05250
3930.64110	0.05260
3928.71243	0.05270
3926.78375	0.05279
3924.85508	0.05288
3922.92640	0.05298
3920.99772	0.05304
3919.06905	0.05306
3917.14037	0.05313
3915.21170	0.05330
3913.28302	0.05349
3911.35435	0.05363
3909.42567	0.05371
3907.49699	0.05372
3905.56832	0.05367
3903.63964	0.05366
3901.71097	0.05372
3899.78229	0.05388
3897.85362	0.05412
3895.92494	0.05433
3893.99626	0.05441
3892.06759	0.05442
3890.13891	0.05451
3888.21024	0.05459
3886.28156	0.05462
3884.35289	0.05472
3882.42421	0.05483
3880.49553	0.05493
3878.56686	0.05511
3876.63818	0.05525
3874.70951	0.05530
3872.78083	0.05531
3870.85216	0.05536
3868.92348	0.05549
3866.99480	0.05566
3865.06613	0.05576
3863.13745	0.05589
3861.20878	0.05606
3859.28010	0.05616
3857.35143	0.05607
3855.42275	0.05581
3853.49407	0.05576
3851.56540	0.05613
3849.63672	0.05660
3847.70805	0.05686
3845.77937	0.05694
3843.85070	0.05695
3841.92202	0.05695
3839.99334	0.05698
3838.06467	0.05705
3836.13599	0.05719
3834.20732	0.05738
3832.27864	0.05755
3830.34997	0.05772
3828.42129	0.05786
3826.49261	0.05796
3824.56394	0.05797
3822.63526	0.05789
3820.70659	0.05791
3818.77791	0.05808
3816.84924	0.05827
3814.92056	0.05848
3812.99188	0.05873
3811.06321	0.05887
3809.13453	0.05887
3807.20586	0.05888
3805.27718	0.05897
3803.34851	0.05901
3801.41983	0.05904
3799.49115	0.05920
3797.56248	0.05938
3795.63380	0.05957
3793.70513	0.05976
3791.77645	0.05991
3789.84778	0.06002
3787.91910	0.06012
3785.99042	0.06020
3784.06175	0.06029
3782.13307	0.06036
3780.20440	0.06043
3778.27572	0.06056
3776.34705	0.06072
3774.41837	0.06082
3772.48969	0.06084
3770.56102	0.06083
3768.63234	0.06091
3766.70367	0.06107
3764.77499	0.06122
3762.84632	0.06135
3760.91764	0.06140
3758.98896	0.06144
3757.06029	0.06155
3755.13161	0.06158
3753.20294	0.06145
3751.27426	0.06137
3749.34559	0.06149
3747.41691	0.06157
3745.48823	0.06149
3743.55956	0.06166
3741.63088	0.06211
3739.70221	0.06233
3737.77353	0.06222
3735.84486	0.06216
3733.91618	0.06233
3731.98750	0.06262
3730.05883	0.06288
3728.13015	0.06301
3726.20148	0.06305
3724.27280	0.06312
3722.34413	0.06323
3720.41545	0.06338
3718.48677	0.06355
3716.55810	0.06364
3714.62942	0.06357
3712.70075	0.06343
3710.77207	0.06344
3708.84340	0.06364
3706.91472	0.06387
3704.98604	0.06395
3703.05737	0.06386
3701.12869	0.06383
3699.20002	0.06394
3697.27134	0.06406
3695.34267	0.06409
3693.41399	0.06402
3691.48531	0.06387
3689.55664	0.06380
3687.62796	0.06391
3685.69929	0.06411
3683.77061	0.06423
3681.84194	0.06422
3679.91326	0.06411
3677.98458	0.06392
3676.05591	0.06377
3674.12723	0.06383
3672.19856	0.06394
3670.26988	0.06397
3668.34121	0.06413
3666.41253	0.06438
3664.48385	0.06453
3662.55518	0.06457
3660.62650	0.06455
3658.69783	0.06450
3656.76915	0.06448
3654.84048	0.06454
3652.91180	0.06448
3650.98312	0.06422
3649.05445	0.06407
3647.12577	0.06423
3645.19710	0.06458
3643.26842	0.06487
3641.33975	0.06506
3639.41107	0.06519
3637.48239	0.06529
3635.55372	0.06536
3633.62504	0.06538
3631.69637	0.06526
3629.76769	0.06513
3627.83902	0.06529
3625.91034	0.06563
3623.98166	0.06583
3622.05299	0.06584
3620.12431	0.06581
3618.19564	0.06588
3616.26696	0.06601
3614.33829	0.06610
3612.40961	0.06614
3610.48093	0.06618
3608.55226	0.06626
3606.62358	0.06645
3604.69491	0.06666
3602.76623	0.06677
3600.83756	0.06681
3598.90888	0.06686
3596.98020	0.06693
3595.05153	0.06702
3593.12285	0.06714
3591.19418	0.06718
3589.26550	0.06710
3587.33683	0.06714
3585.40815	0.06739
3583.47947	0.06763
3581.55080	0.06774
3579.62212	0.06781
3577.69345	0.06793
3575.76477	0.06805
3573.83610	0.06813
3571.90742	0.06816
3569.97874	0.06811
3568.05007	0.06806
3566.12139	0.06819
3564.19272	0.06842
3562.26404	0.06859
3560.33537	0.06870
3558.40669	0.06883
3556.47801	0.06895
3554.54934	0.06900
3552.62066	0.06904
3550.69199	0.06912
3548.76331	0.06916
3546.83464	0.06918
3544.90596	0.06925
3542.97728	0.06938
3541.04861	0.06953
3539.11993	0.06961
3537.19126	0.06965
3535.26258	0.06969
3533.33391	0.06972
3531.40523	0.06976
3529.47655	0.06979
3527.54788	0.06984
3525.61920	0.06991
3523.69053	0.06996
3521.76185	0.07002
3519.83318	0.07006
3517.90450	0.07009
3515.97582	0.07013
3514.04715	0.07018
3512.11847	0.07022
3510.18980	0.07025
3508.26112	0.07029
3506.33245	0.07032
3504.40377	0.07032
3502.47509	0.07035
3500.54642	0.07042
3498.61774	0.07047
3496.68907	0.07051
3494.76039	0.07056
3492.83172	0.07060
3490.90304	0.07062
3488.97436	0.07063
3487.04569	0.07065
3485.11701	0.07067
3483.18834	0.07067
3481.25966	0.07071
3479.33099	0.07080
3477.40231	0.07090
3475.47363	0.07100
3473.54496	0.07108
3471.61628	0.07115
3469.68761	0.07124
3467.75893	0.07136
3465.83026	0.07148
3463.90158	0.07158
3461.97290	0.07170
3460.04423	0.07183
3458.11555	0.07194
3456.18688	0.07205
3454.25820	0.07217
3452.32953	0.07227
3450.40085	0.07234
3448.47217	0.07242
3446.54350	0.07253
3444.61482	0.07263
3442.68615	0.07274
3440.75747	0.07290
3438.82880	0.07310
3436.90012	0.07330
3434.97144	0.07349
3433.04277	0.07370
3431.11409	0.07395
3429.18542	0.07421
3427.25674	0.07443
3425.32807	0.07462
3423.39939	0.07482
3421.47071	0.07503
3419.54204	0.07524
3417.61336	0.07544
3415.68469	0.07563
3413.75601	0.07583
3411.82734	0.07598
3409.89866	0.07612
3407.96998	0.07628
3406.04131	0.07643
3404.11263	0.07659
3402.18396	0.07677
3400.25528	0.07693
3398.32661	0.07707
3396.39793	0.07725
3394.46925	0.07744
3392.54058	0.07762
3390.61190	0.07776
3388.68323	0.07790
3386.75455	0.07803
3384.82588	0.07818
3382.89720	0.07835
3380.96852	0.07851
3379.03985	0.07866
3377.11117	0.07881
3375.18250	0.07897
3373.25382	0.07912
3371.32515	0.07927
3369.39647	0.07942
3367.46779	0.07956
3365.53912	0.07972
3363.61044	0.07989
3361.68177	0.08005
3359.75309	0.08023
3357.82442	0.08037
3355.89574	0.08048
3353.96706	0.08060
3352.03839	0.08076
3350.10971	0.08093
3348.18104	0.08109
3346.25236	0.08125
3344.32369	0.08139
3342.39501	0.08152
3340.46633	0.08165
3338.53766	0.08180
3336.60898	0.08196
3334.68031	0.08213
3332.75163	0.08231
3330.82296	0.08247
3328.89428	0.08260
3326.96560	0.08273
3325.03693	0.08288
3323.10825	0.08304
3321.17958	0.08320
3319.25090	0.08335
3317.32223	0.08349
3315.39355	0.08364
3313.46487	0.08380
3311.53620	0.08397
3309.60752	0.08413
3307.67885	0.08428
3305.75017	0.08444
3303.82150	0.08460
3301.89282	0.08476
3299.96414	0.08493
3298.03547	0.08510
3296.10679	0.08528
3294.17812	0.08546
3292.24944	0.08561
3290.32077	0.08575
3288.39209	0.08591
3286.46341	0.08608
3284.53474	0.08625
3282.60606	0.08641
3280.67739	0.08656
3278.74871	0.08672
3276.82004	0.08689
3274.89136	0.08705
3272.96268	0.08721
3271.03401	0.08737
3269.10533	0.08752
3267.17666	0.08766
3265.24798	0.08781
3263.31931	0.08796
3261.39063	0.08814
3259.46195	0.08834
3257.53328	0.08852
3255.60460	0.08867
3253.67593	0.08882
3251.74725	0.08898
3249.81858	0.08916
3247.88990	0.08934
3245.96122	0.08950
3244.03255	0.08966
3242.10387	0.08982
3240.17520	0.09000
3238.24652	0.09018
3236.31785	0.09036
3234.38917	0.09052
3232.46049	0.09066
3230.53182	0.09080
3228.60314	0.09094
3226.67447	0.09111
3224.74579	0.09127
3222.81712	0.09144
3220.88844	0.09162
3218.95976	0.09179
3217.03109	0.09194
3215.10241	0.09210
3213.17374	0.09227
3211.24506	0.09245
3209.31639	0.09263
3207.38771	0.09279
3205.45903	0.09296
3203.53036	0.09314
3201.60168	0.09334
3199.67301	0.09354
3197.74433	0.09371
3195.81566	0.09386
3193.88698	0.09401
3191.95830	0.09419
3190.02963	0.09437
3188.10095	0.09455
3186.17228	0.09474
3184.24360	0.09494
3182.31493	0.09513
3180.38625	0.09530
3178.45757	0.09542
3176.52890	0.09555
3174.60022	0.09574
3172.67155	0.09595
3170.74287	0.09613
3168.81420	0.09629
3166.88552	0.09648
3164.95684	0.09666
3163.02817	0.09682
3161.09949	0.09698
3159.17082	0.09714
3157.24214	0.09729
3155.31347	0.09742
3153.38479	0.09756
3151.45611	0.09773
3149.52744	0.09791
3147.59876	0.09809
3145.67009	0.09827
3143.74141	0.09846
3141.81274	0.09863
3139.88406	0.09879
3137.95538	0.09894
3136.02671	0.09909
3134.09803	0.09925
3132.16936	0.09942
3130.24068	0.09961
3128.31201	0.09980
3126.38333	0.09997
3124.45465	0.10011
3122.52598	0.10026
3120.59730	0.10044
3118.66863	0.10059
3116.73995	0.10073
3114.81128	0.10087
3112.88260	0.10104
3110.95392	0.10123
3109.02525	0.10140
3107.09657	0.10158
3105.16790	0.10176
3103.23922	0.10193
3101.31055	0.10208
3099.38187	0.10223
3097.45319	0.10238
3095.52452	0.10253
3093.59584	0.10270
3091.66717	0.10286
3089.73849	0.10299
3087.80982	0.10315
3085.88114	0.10333
3083.95246	0.10353
3082.02379	0.10371
3080.09511	0.10388
3078.16644	0.10403
3076.23776	0.10418
3074.30909	0.10433
3072.38041	0.10449
3070.45173	0.10467
3068.52306	0.10487
3066.59438	0.10504
3064.66571	0.10520
3062.73703	0.10537
3060.80836	0.10552
3058.87968	0.10564
3056.95100	0.10576
3055.02233	0.10594
3053.09365	0.10613
3051.16498	0.10628
3049.23630	0.10641
3047.30763	0.10656
3045.37895	0.10673
3043.45027	0.10688
3041.52160	0.10703
3039.59292	0.10718
3037.66425	0.10733
3035.73557	0.10747
3033.80690	0.10761
3031.87822	0.10778
3029.94954	0.10798
3028.02087	0.10817
3026.09219	0.10832
3024.16352	0.10845
3022.23484	0.10862
3020.30617	0.10881
3018.37749	0.10896
3016.44881	0.10910
3014.52014	0.10924
3012.59146	0.10937
3010.66279	0.10952
3008.73411	0.10968
3006.80544	0.10984
3004.87676	0.11000
3002.94808	0.11016
3001.01941	0.11032
2999.09073	0.11048
2997.16206	0.11062
2995.23338	0.11076
2993.30471	0.11091
2991.37603	0.11105
2989.44735	0.11118
2987.51868	0.11129
2985.59000	0.11139
2983.66133	0.11148
2981.73265	0.11158
2979.80398	0.11167
2977.87530	0.11171
2975.94662	0.11172
2974.01795	0.11171
2972.08927	0.11169
2970.16060	0.11166
2968.23192	0.11163
2966.30325	0.11163
2964.37457	0.11170
2962.44589	0.11181
2960.51722	0.11196
2958.58854	0.11212
2956.65987	0.11232
2954.73119	0.11255
2952.80252	0.11277
2950.87384	0.11294
2948.94516	0.11309
2947.01649	0.11323
2945.08781	0.11334
2943.15914	0.11341
2941.23046	0.11344
2939.30179	0.11344
2937.37311	0.11343
2935.44443	0.11339
2933.51576	0.11332
2931.58708	0.11327
2929.65841	0.11325
2927.72973	0.11325
2925.80106	0.11323
2923.87238	0.11321
2921.94370	0.11323
2920.01503	0.11330
2918.08635	0.11347
2916.15768	0.11379
2914.22900	0.11429
2912.30033	0.11486
2910.37165	0.11537
2908.44297	0.11575
2906.51430	0.11605
2904.58562	0.11632
2902.65695	0.11660
2900.72827	0.11688
2898.79960	0.11712
2896.87092	0.11733
2894.94224	0.11755
2893.01357	0.11778
2891.08489	0.11800
2889.15622	0.11820
2887.22754	0.11839
2885.29887	0.11854
2883.37019	0.11868
2881.44151	0.11884
2879.51284	0.11903
2877.58416	0.11920
2875.65549	0.11935
2873.72681	0.11947
2871.79814	0.11958
2869.86946	0.11974
2867.94078	0.11990
2866.01211	0.12002
2864.08343	0.12009
2862.15476	0.12014
2860.22608	0.12015
2858.29741	0.12015
2856.36873	0.12015
2854.44005	0.12012
2852.51138	0.12010
2850.58270	0.12020
2848.65403	0.12053
2846.72535	0.12105
2844.79668	0.12160
2842.86800	0.12209
2840.93932	0.12249
2839.01065	0.12280
2837.08197	0.12304
2835.15330	0.12324
2833.22462	0.12341
2831.29595	0.12359
2829.36727	0.12380
2827.43859	0.12400
2825.50992	0.12419
2823.58124	0.12438
2821.65257	0.12455
2819.72389	0.12471
2817.79522	0.12486
2815.86654	0.12503
2813.93786	0.12522
2812.00919	0.12543
2810.08051	0.12560
2808.15184	0.12574
2806.22316	0.12589
2804.29449	0.12607
2802.36581	0.12625
2800.43713	0.12641
2798.50846	0.12656
2796.57978	0.12672
2794.65111	0.12687
2792.72243	0.12704
2790.79376	0.12722
2788.86508	0.12737
2786.93640	0.12750
2785.00773	0.12766
2783.07905	0.12783
2781.15038	0.12801
2779.22170	0.12816
2777.29303	0.12831
2775.36435	0.12849
2773.43567	0.12865
2771.50700	0.12878
2769.57832	0.12892
2767.64965	0.12909
2765.72097	0.12925
2763.79230	0.12938
2761.86362	0.12953
2759.93494	0.12970
2758.00627	0.12987
2756.07759	0.13000
2754.14892	0.13013
2752.22024	0.13030
2750.29157	0.13049
2748.36289	0.13065
2746.43421	0.13079
2744.50554	0.13093
2742.57686	0.13106
2740.64819	0.13121
2738.71951	0.13137
2736.79084	0.13152
2734.86216	0.13168
2732.93348	0.13184
2731.00481	0.13198
2729.07613	0.13209
2727.14746	0.13219
2725.21878	0.13232
2723.29011	0.13248
2721.36143	0.13264
2719.43275	0.13279
2717.50408	0.13294
2715.57540	0.13308
2713.64673	0.13321
2711.71805	0.13336
2709.78938	0.13354
2707.86070	0.13368
2705.93202	0.13380
2704.00335	0.13393
2702.07467	0.13406
2700.14600	0.13420
2698.21732	0.13437
2696.28865	0.13456
2694.35997	0.13474
2692.43129	0.13491
2690.50262	0.13503
2688.57394	0.13512
2686.64527	0.13524
2684.71659	0.13537
2682.78792	0.13550
2680.85924	0.13564
2678.93056	0.13580
2677.00189	0.13596
2675.07321	0.13612
2673.14454	0.13625
2671.21586	0.13637
2669.28719	0.13650
2667.35851	0.13667
2665.42983	0.13684
2663.50116	0.13701
2661.57248	0.13718
2659.64381	0.13733
2657.71513	0.13746
2655.78646	0.13758
2653.85778	0.13771
2651.92910	0.13785
2650.00043	0.13802
2648.07175	0.13819
2646.14308	0.13835
2644.21440	0.13850
2642.28573	0.13865
2640.35705	0.13878
2638.42837	0.13891
2636.49970	0.13906
2634.57102	0.13926
2632.64235	0.13944
2630.71367	0.13961
2628.78500	0.13977
2626.85632	0.13993
2624.92764	0.14007
2622.99897	0.14024
2621.07029	0.14043
2619.14162	0.14058
2617.21294	0.14070
2615.28427	0.14081
2613.35559	0.14093
2611.42691	0.14109
2609.49824	0.14127
2607.56956	0.14143
2605.64089	0.14159
2603.71221	0.14176
2601.78354	0.14194
2599.85486	0.14211
2597.92618	0.14225
2595.99751	0.14237
2594.06883	0.14251
2592.14016	0.14264
2590.21148	0.14279
2588.28281	0.14295
2586.35413	0.14311
2584.42545	0.14325
2582.49678	0.14338
2580.56810	0.14351
2578.63943	0.14367
2576.71075	0.14383
2574.78208	0.14398
2572.85340	0.14412
2570.92472	0.14426
2568.99605	0.14440
2567.06737	0.14454
2565.13870	0.14470
2563.21002	0.14484
2561.28135	0.14498
2559.35267	0.14513
2557.42399	0.14529
2555.49532	0.14545
2553.56664	0.14558
2551.63797	0.14570
2549.70929	0.14582
2547.78062	0.14595
2545.85194	0.14609
2543.92326	0.14627
2541.99459	0.14643
2540.06591	0.14657
2538.13724	0.14670
2536.20856	0.14685
2534.27989	0.14703
2532.35121	0.14720
2530.42253	0.14731
2528.49386	0.14741
2526.56518	0.14753
2524.63651	0.14768
2522.70783	0.14782
2520.77916	0.14798
2518.85048	0.14817
2516.92181	0.14837
2514.99313	0.14855
2513.06445	0.14871
2511.13578	0.14887
2509.20710	0.14904
2507.27843	0.14921
2505.34975	0.14935
2503.42108	0.14946
2501.49240	0.14959
2499.56372	0.14972
2497.63505	0.14985
2495.70637	0.15001
2493.77770	0.15019
2491.84902	0.15037
2489.92035	0.15054
2487.99167	0.15069
2486.06299	0.15086
2484.13432	0.15102
2482.20564	0.15114
2480.27697	0.15125
2478.34829	0.15141
2476.41962	0.15160
2474.49094	0.15178
2472.56226	0.15194
2470.63359	0.15207
2468.70491	0.15218
2466.77624	0.15231
2464.84756	0.15246
2462.91889	0.15262
2460.99021	0.15277
2459.06153	0.15291
2457.13286	0.15303
2455.20418	0.15318
2453.27551	0.15335
2451.34683	0.15353
2449.41816	0.15369
2447.48948	0.15384
2445.56080	0.15395
2443.63213	0.15407
2441.70345	0.15423
2439.77478	0.15439
2437.84610	0.15452
2435.91743	0.15467
2433.98875	0.15482
2432.06007	0.15497
2430.13140	0.15511
2428.20272	0.15526
2426.27405	0.15541
2424.34537	0.15555
2422.41670	0.15567
2420.48802	0.15580
2418.55934	0.15593
2416.63067	0.15605
2414.70199	0.15618
2412.77332	0.15630
2410.84464	0.15641
2408.91597	0.15653
2406.98729	0.15668
2405.05861	0.15684
2403.12994	0.15698
2401.20126	0.15709
2399.27259	0.15720
2397.34391	0.15731
2395.41524	0.15743
2393.48656	0.15755
2391.55788	0.15768
2389.62921	0.15781
2387.70053	0.15789
2385.77186	0.15795
2383.84318	0.15802
2381.91451	0.15808
2379.98583	0.15806
2378.05715	0.15798
2376.12848	0.15788
2374.19980	0.15778
2372.27113	0.15769
2370.34245	0.15763
2368.41378	0.15756
2366.48510	0.15747
2364.55642	0.15739
2362.62775	0.15730
2360.69907	0.15714
2358.77040	0.15685
2356.84172	0.15637
2354.91305	0.15553
2352.98437	0.15422
2351.05569	0.15221
2349.12702	0.14930
2347.19834	0.14561
2345.26967	0.14180
2343.34099	0.13902
2341.41232	0.13885
2339.48364	0.14250
2337.55496	0.14899
2335.62629	0.15521
2333.69761	0.15890
2331.76894	0.16041
2329.84026	0.16105
2327.91159	0.16152
2325.98291	0.16201
2324.05423	0.16251
2322.12556	0.16296
2320.19688	0.16330
2318.26821	0.16354
2316.33953	0.16376
2314.41086	0.16398
2312.48218	0.16419
2310.55350	0.16439
2308.62483	0.16459
2306.69615	0.16477
2304.76748	0.16491
2302.83880	0.16505
2300.91013	0.16524
2298.98145	0.16540
2297.05277	0.16553
2295.12410	0.16570
2293.19542	0.16590
2291.26675	0.16607
2289.33807	0.16621
2287.40940	0.16635
2285.48072	0.16648
2283.55204	0.16659
2281.62337	0.16669
2279.69469	0.16677
2277.76602	0.16688
2275.83734	0.16703
2273.90867	0.16723
2271.97999	0.16745
2270.05131	0.16766
2268.12264	0.16786
2266.19396	0.16805
2264.26529	0.16821
2262.33661	0.16832
2260.40794	0.16841
2258.47926	0.16852
2256.55058	0.16869
2254.62191	0.16890
2252.69323	0.16911
2250.76456	0.16925
2248.83588	0.16934
2246.90721	0.16946
2244.97853	0.16961
2243.04985	0.16975
2241.12118	0.16994
2239.19250	0.17013
2237.26383	0.17028
2235.33515	0.17040
2233.40648	0.17051
2231.47780	0.17060
2229.54912	0.17066
2227.62045	0.17077
2225.69177	0.17093
2223.76310	0.17111
2221.83442	0.17130
2219.90575	0.17152
2217.97707	0.17172
2216.04839	0.17184
2214.11972	0.17191
2212.19104	0.17200
2210.26237	0.17213
2208.33369	0.17229
2206.40502	0.17242
2204.47634	0.17253
2202.54766	0.17266
2200.61899	0.17283
2198.69031	0.17296
2196.76164	0.17307
2194.83296	0.17320
2192.90429	0.17333
2190.97561	0.17344
2189.04693	0.17355
2187.11826	0.17369
2185.18958	0.17385
2183.26091	0.17400
2181.33223	0.17416
2179.40356	0.17432
2177.47488	0.17444
2175.54620	0.17454
2173.61753	0.17466
2171.68885	0.17481
2169.76018	0.17500
2167.83150	0.17516
2165.90283	0.17526
2163.97415	0.17537
2162.04547	0.17551
2160.11680	0.17565
2158.18812	0.17581
2156.25945	0.17598
2154.33077	0.17616
2152.40210	0.17632
2150.47342	0.17646
2148.54474	0.17659
2146.61607	0.17670
2144.68739	0.17683
2142.75872	0.17698
2140.83004	0.17714
2138.90137	0.17727
2136.97269	0.17737
2135.04401	0.17751
2133.11534	0.17767
2131.18666	0.17781
2129.25799	0.17792
2127.32931	0.17806
2125.40064	0.17823
2123.47196	0.17838
2121.54328	0.17853
2119.61461	0.17866
2117.68593	0.17877
2115.75726	0.17889
2113.82858	0.17902
2111.89991	0.17915
2109.97123	0.17928
2108.04255	0.17941
2106.11388	0.17955
2104.18520	0.17969
2102.25653	0.17984
2100.32785	0.18000
2098.39918	0.18014
2096.47050	0.18025
2094.54182	0.18037
2092.61315	0.18049
2090.68447	0.18061
2088.75580	0.18075
2086.82712	0.18093
2084.89845	0.18110
2082.96977	0.18121
2081.04109	0.18130
2079.11242	0.18141
2077.18374	0.18154
2075.25507	0.18170
2073.32639	0.18186
2071.39772	0.18197
2069.46904	0.18205
2067.54036	0.18215
2065.61169	0.18226
2063.68301	0.18243
2061.75434	0.18264
2059.82566	0.18279
2057.89699	0.18288
2055.96831	0.18299
2054.03963	0.18314
2052.11096	0.18327
2050.18228	0.18341
2048.25361	0.18356
2046.32493	0.18368
2044.39626	0.18375
2042.46758	0.18385
2040.53890	0.18401
2038.61023	0.18418
2036.68155	0.18430
2034.75288	0.18441
2032.82420	0.18454
2030.89553	0.18470
2028.96685	0.18484
2027.03817	0.18494
2025.10950	0.18504
2023.18082	0.18517
2021.25215	0.18531
2019.32347	0.18543
2017.39480	0.18556
2015.46612	0.18574
2013.53744	0.18594
2011.60877	0.18608
2009.68009	0.18618
2007.75142	0.18625
2005.82274	0.18635
2003.89407	0.18650
2001.96539	0.18664
2000.03671	0.18674
1998.10804	0.18684
1996.17936	0.18692
1994.25069	0.18695
1992.32201	0.18699
1990.39334	0.18716
1988.46466	0.18737
1986.53598	0.18754
1984.60731	0.18767
1982.67863	0.18778
1980.74996	0.18788
1978.82128	0.18799
1976.89261	0.18809
1974.96393	0.18820
1973.03525	0.18829
1971.10658	0.18836
1969.17790	0.18839
1967.24923	0.18846
1965.32055	0.18861
1963.39188	0.18876
1961.46320	0.18889
1959.53452	0.18904
1957.60585	0.18919
1955.67717	0.18935
1953.74850	0.18951
1951.81982	0.18965
1949.89115	0.18975
1947.96247	0.18985
1946.03379	0.18993
1944.10512	0.18996
1942.17644	0.19005
1940.24777	0.19028
1938.31909	0.19051
1936.39042	0.19068
1934.46174	0.19083
1932.53306	0.19097
1930.60439	0.19107
1928.67571	0.19115
1926.74704	0.19123
1924.81836	0.19129
1922.88969	0.19136
1920.96101	0.19143
1919.03233	0.19146
1917.10366	0.19161
1915.17498	0.19192
1913.24631	0.19212
1911.31763	0.19218
1909.38896	0.19226
1907.46028	0.19240
1905.53160	0.19256
1903.60293	0.19267
1901.67425	0.19281
1899.74558	0.19299
1897.81690	0.19307
1895.88823	0.19308
1893.95955	0.19315
1892.03087	0.19324
1890.10220	0.19330
1888.17352	0.19342
1886.24485	0.19358
1884.31617	0.19373
1882.38750	0.19391
1880.45882	0.19407
1878.53014	0.19418
1876.60147	0.19426
1874.67279	0.19436
1872.74412	0.19439
1870.81544	0.19423
1868.88677	0.19412
1866.95809	0.19435
1865.02941	0.19475
1863.10074	0.19505
1861.17206	0.19520
1859.24339	0.19532
1857.31471	0.19547
1855.38604	0.19567
1853.45736	0.19586
1851.52868	0.19600
1849.60001	0.19605
1847.67133	0.19599
1845.74266	0.19583
1843.81398	0.19588
1841.88531	0.19627
1839.95663	0.19666
1838.02795	0.19689
1836.09928	0.19707
1834.17060	0.19721
1832.24193	0.19719
1830.31325	0.19716
1828.38458	0.19730
1826.45590	0.19747
1824.52722	0.19763
1822.59855	0.19788
1820.66987	0.19813
1818.74120	0.19830
1816.81252	0.19843
1814.88385	0.19853
1812.95517	0.19855
1811.02649	0.19859
1809.09782	0.19871
1807.16914	0.19887
1805.24047	0.19897
1803.31179	0.19892
1801.38312	0.19884
1799.45444	0.19894
1797.52576	0.19918
1795.59709	0.19927
1793.66841	0.19913
1791.73974	0.19914
1789.81106	0.19945
1787.88239	0.19972
1785.95371	0.19976
1784.02503	0.19979
1782.09636	0.19986
1780.16768	0.19996
1778.23901	0.20013
1776.31033	0.20016
1774.38166	0.19994
1772.45298	0.19973
1770.52430	0.19983
1768.59563	0.20011
1766.66695	0.20043
1764.73828	0.20058
1762.80960	0.20049
1760.88093	0.20045
1758.95225	0.20053
1757.02357	0.20062
1755.09490	0.20063
1753.16622	0.20035
1751.23755	0.19993
1749.30887	0.19983
1747.38020	0.19998
1745.45152	0.20006
1743.52284	0.20001
1741.59417	0.19993
1739.66549	0.19992
1737.73682	0.19986
1735.80814	0.19949
1733.87947	0.19927
1731.95079	0.19966
1730.02211	0.20025
1728.09344	0.20066
1726.16476	0.20085
1724.23609	0.20091
1722.30741	0.20089
1720.37874	0.20061
1718.45006	0.20023
1716.52138	0.20026
1714.59271	0.20071
1712.66403	0.20119
1710.73536	0.20148
1708.80668	0.20149
1706.87801	0.20133
1704.94933	0.20121
1703.02065	0.20089
1701.09198	0.20041
1699.16330	0.20037
1697.23463	0.20067
1695.30595	0.20100
1693.37728	0.20143
1691.44860	0.20162
1689.51992	0.20147
1687.59125	0.20116
1685.66257	0.20072
1683.73390	0.20058
1681.80522	0.20098
1679.87655	0.20142
1677.94787	0.20141
1676.01919	0.20113
1674.09052	0.20102
1672.16184	0.20097
1670.23317	0.20085
1668.30449	0.20105
1666.37582	0.20140
1664.44714	0.20143
1662.51846	0.20136
1660.58979	0.20154
1658.66111	0.20166
1656.73244	0.20123
1654.80376	0.20034
1652.87509	0.19999
1650.94641	0.20049
1649.01773	0.20083
1647.08906	0.20083
1645.16038	0.20112
1643.23171	0.20155
1641.30303	0.20170
1639.37436	0.20149
1637.44568	0.20105
1635.51700	0.20091
1633.58833	0.20133
1631.65965	0.20173
1629.73098	0.20170
1627.80230	0.20146
1625.87363	0.20115
1623.94495	0.20075
1622.01627	0.20044
1620.08760	0.20033
1618.15892	0.20041
1616.23025	0.20094
1614.30157	0.20182
1612.37290	0.20243
1610.44422	0.20269
1608.51554	0.20292
1606.58687	0.20326
1604.65819	0.20356
1602.72952	0.20377
1600.80084	0.20399
1598.87217	0.20420
1596.94349	0.20434
1595.01481	0.20442
1593.08614	0.20456
1591.15746	0.20474
1589.22879	0.20491
1587.30011	0.20507
1585.37144	0.20521
1583.44276	0.20534
1581.51408	0.20544
1579.58541	0.20537
1577.65673	0.20513
1575.72806	0.20514
1573.79938	0.20551
1571.87071	0.20565
1569.94203	0.20556
1568.01335	0.20568
1566.08468	0.20589
1564.15600	0.20593
1562.22733	0.20558
1560.29865	0.20489
1558.36998	0.20471
1556.44130	0.20539
1554.51262	0.20617
1552.58395	0.20655
1550.65527	0.20665
1548.72660	0.20668
1546.79792	0.20659
1544.86925	0.20625
1542.94057	0.20581
1541.01189	0.20556
1539.08322	0.20591
1537.15454	0.20653
1535.22587	0.20668
1533.29719	0.20659
1531.36852	0.20682
1529.43984	0.20702
1527.51116	0.20689
1525.58249	0.20664
1523.65381	0.20625
1521.72514	0.20588
1519.79646	0.20595
1517.86779	0.20629
1515.93911	0.20660
1514.01043	0.20686
1512.08176	0.20687
1510.15308	0.20645
1508.22441	0.20591
1506.29573	0.20594
1504.36706	0.20667
1502.43838	0.20720
1500.50970	0.20706
1498.58103	0.20676
1496.65235	0.20675
1494.72368	0.20693
1492.79500	0.20682
1490.86633	0.20639
1488.93765	0.20612
1487.00897	0.20621
1485.08030	0.20639
1483.15162	0.20636
1481.22295	0.20614
1479.29427	0.20581
1477.36560	0.20528
1475.43692	0.20463
1473.50824	0.20407
1471.57957	0.20382
1469.65089	0.20378
1467.72222	0.20353
1465.79354	0.20309
1463.86487	0.20290
1461.93619	0.20280
1460.00751	0.20218
1458.07884	0.20125
1456.15016	0.20103
1454.22149	0.20162
1452.29281	0.20208
1450.36414	0.20211
1448.43546	0.20207
1446.50678	0.20214
1444.57811	0.20227
1442.64943	0.20233
1440.72076	0.20224
1438.79208	0.20190
1436.86341	0.20164
1434.93473	0.20189
1433.00605	0.20229
1431.07738	0.20245
1429.14870	0.20258
1427.22003	0.20272
1425.29135	0.20271
1423.36268	0.20259
1421.43400	0.20222
1419.50532	0.20176
1417.57665	0.20177
1415.64797	0.20220
1413.71930	0.20243
1411.79062	0.20239
1409.86195	0.20233
1407.93327	0.20226
1406.00459	0.20207
1404.07592	0.20191
1402.14724	0.20180
1400.21857	0.20160
1398.28989	0.20136
1396.36122	0.20113
1394.43254	0.20103
1392.50386	0.20110
1390.57519	0.20095
1388.64651	0.20043
1386.71784	0.19999
1384.78916	0.19990
1382.86049	0.19997
1380.93181	0.19999
1379.00313	0.19986
1377.07446	0.19965
1375.14578	0.19946
1373.21711	0.19942
1371.28843	0.19944
1369.35976	0.19939
1367.43108	0.19931
1365.50240	0.19917
1363.57373	0.19892
1361.64505	0.19879
1359.71638	0.19889
1357.78770	0.19900
1355.85903	0.19904
1353.93035	0.19902
1352.00167	0.19893
1350.07300	0.19884
1348.14432	0.19881
1346.21565	0.19878
1344.28697	0.19870
1342.35830	0.19850
1340.42962	0.19821
1338.50094	0.19798
1336.57227	0.19790
1334.64359	0.19782
1332.71492	0.19766
1330.78624	0.19742
1328.85757	0.19714
1326.92889	0.19686
1325.00021	0.19661
1323.07154	0.19632
1321.14286	0.19596
1319.21419	0.19557
1317.28551	0.19519
1315.35684	0.19482
1313.42816	0.19446
1311.49948	0.19410
1309.57081	0.19374
1307.64213	0.19338
1305.71346	0.19302
1303.78478	0.19264
1301.85611	0.19221
1299.92743	0.19176
1297.99875	0.19135
1296.07008	0.19096
1294.14140	0.19055
1292.21273	0.19017
1290.28405	0.18980
1288.35538	0.18943
1286.42670	0.18900
1284.49802	0.18848
1282.56935	0.18791
1280.64067	0.18739
1278.71200	0.18688
1276.78332	0.18621
1274.85465	0.18539
1272.92597	0.18451
1270.99729	0.18354
1269.06862	0.18237
1267.13994	0.18106
1265.21127	0.17978
1263.28259	0.17870
1261.35392	0.17792
1259.42524	0.17733
1257.49656	0.17677
1255.56789	0.17621
1253.63921	0.17558
1251.71054	0.17476
1249.78186	0.17377
1247.85319	0.17267
1245.92451	0.17151
1243.99583	0.17035
1242.06716	0.16921
1240.13848	0.16808
1238.20981	0.16693
1236.28113	0.16574
1234.35246	0.16455
1232.42378	0.16336
1230.49510	0.16216
1228.56643	0.16095
1226.63775	0.15975
1224.70908	0.15861
1222.78040	0.15752
1220.85173	0.15638
1218.92305	0.15521
1216.99437	0.15412
1215.06570	0.15306
1213.13702	0.15195
1211.20835	0.15083
1209.27967	0.14975
1207.35100	0.14870
1205.42232	0.14764
1203.49364	0.14655
1201.56497	0.14548
1199.63629	0.14445
1197.70762	0.14344
1195.77894	0.14241
1193.85027	0.14136
1191.92159	0.14031
1189.99291	0.13925
1188.06424	0.13811
1186.13556	0.13688
1184.20689	0.13569
1182.27821	0.13459
1180.34954	0.13351
1178.42086	0.13236
1176.49218	0.13118
1174.56351	0.13004
1172.63483	0.12891
1170.70616	0.12777
1168.77748	0.12663
1166.84881	0.12551
1164.92013	0.12438
1162.99145	0.12323
1161.06278	0.12209
1159.13410	0.12105
1157.20543	0.12009
1155.27675	0.11911
1153.34808	0.11807
1151.41940	0.11702
1149.49072	0.11597
1147.56205	0.11492
1145.63337	0.11385
1143.70470	0.11275
1141.77602	0.11162
1139.84735	0.11046
1137.91867	0.10928
1135.98999	0.10805
1134.06132	0.10665
1132.13264	0.10503
1130.20397	0.10320
1128.27529	0.10116
1126.34662	0.09898
1124.41794	0.09670
1122.48926	0.09432
1120.56059	0.09191
1118.63191	0.08953
1116.70324	0.08714
1114.77456	0.08466
1112.84589	0.08211
1110.91721	0.07957
1108.98853	0.07703
1107.05986	0.07440
1105.13118	0.07171
1103.20251	0.06905
1101.27383	0.06645
1099.34516	0.06395
1097.41648	0.06165
1095.48780	0.05951
1093.55913	0.05749
1091.63045	0.05565
1089.70178	0.05404
1087.77310	0.05263
1085.84443	0.05144
1083.91575	0.05043
1081.98707	0.04953
1080.05840	0.04874
1078.12972	0.04811
1076.20105	0.04769
1074.27237	0.04746
1072.34370	0.04737
1070.41502	0.04738
1068.48634	0.04750
1066.55767	0.04775
1064.62899	0.04811
1062.70032	0.04850
1060.77164	0.04894
1058.84297	0.04951
1056.91429	0.05021
1054.98561	0.05102
1053.05694	0.05193
1051.12826	0.05295
1049.19959	0.05403
1047.27091	0.05517
1045.34224	0.05643
1043.41356	0.05784
1041.48488	0.05935
1039.55621	0.06095
1037.62753	0.06264
1035.69886	0.06446
1033.77018	0.06644
1031.84151	0.06850
1029.91283	0.07057
1027.98415	0.07272
1026.05548	0.07510
1024.12680	0.07771
1022.19813	0.08046
1020.26945	0.08338
1018.34078	0.08650
1016.41210	0.08973
1014.48342	0.09303
1012.55475	0.09640
1010.62607	0.09982
1008.69740	0.10329
1006.76872	0.10681
1004.84005	0.11026
1002.91137	0.11349
1000.98269	0.11647
999.05402	0.11928
997.12534	0.12192
995.19667	0.12433
993.26799	0.12652
991.33932	0.12847
989.41064	0.13017
987.48196	0.13164
985.55329	0.13291
983.62461	0.13398
981.69594	0.13487
979.76726	0.13556
977.83859	0.13603
975.90991	0.13632
973.98123	0.13654
972.05256	0.13671
970.12388	0.13686
968.19521	0.13698
966.26653	0.13698
964.33786	0.13692
962.40918	0.13686
960.48050	0.13684
958.55183	0.13681
956.62315	0.13671
954.69448	0.13649
952.76580	0.13626
950.83713	0.13614
948.90845	0.13605
946.97977	0.13585
945.05110	0.13557
943.12242	0.13523
941.19375	0.13482
939.26507	0.13444
937.33640	0.13415
935.40772	0.13386
933.47904	0.13345
931.55037	0.13292
929.62169	0.13237
927.69302	0.13183
925.76434	0.13132
923.83567	0.13081
921.90699	0.13028
919.97831	0.12974
918.04964	0.12918
916.12096	0.12856
914.19229	0.12791
912.26361	0.12725
910.33494	0.12662
908.40626	0.12609
906.47758	0.12566
904.54891	0.12522
902.62023	0.12472
900.69156	0.12422
898.76288	0.12379
896.83421	0.12340
894.90553	0.12301
892.97685	0.12261
891.04818	0.12222
889.11950	0.12186
887.19083	0.12154
885.26215	0.12130
883.33348	0.12111
881.40480	0.12088
879.47612	0.12063
877.54745	0.12037
875.61877	0.12005
873.69010	0.11970
871.76142	0.11936
869.83275	0.11904
867.90407	0.11876
865.97539	0.11848
864.04672	0.11812
862.11804	0.11772
860.18937	0.11736
858.26069	0.11700
856.33202	0.11656
854.40334	0.11600
852.47466	0.11534
850.54599	0.11467
848.61731	0.11398
846.68864	0.11322
844.75996	0.11243
842.83129	0.11163
840.90261	0.11081
838.97394	0.10999
837.04526	0.10915
835.11658	0.10820
833.18791	0.10710
831.25923	0.10591
829.33056	0.10471
827.40188	0.10345
825.47321	0.10213
823.54453	0.10096
821.61585	0.10006
819.68718	0.09934
817.75850	0.09877
815.82983	0.09831
813.90115	0.09784
811.97248	0.09734
810.04380	0.09695
808.11512	0.09674
806.18645	0.09672
804.25777	0.09685
802.32910	0.09696
800.40042	0.09686
798.47175	0.09658
796.54307	0.09622
794.61439	0.09592
792.68572	0.09582
790.75704	0.09600
788.82837	0.09631
786.89969	0.09657
784.97102	0.09672
783.04234	0.09687
781.11366	0.09705
779.18499	0.09728
777.25631	0.09750
775.32764	0.09768
773.39896	0.09781
771.47029	0.09788
769.54161	0.09783
767.61293	0.09775
765.68426	0.09765
763.75558	0.09746
761.82691	0.09716
759.89823	0.09678
757.96956	0.09635
756.04088	0.09591
754.11220	0.09543
752.18353	0.09488
750.25485	0.09428
748.32618	0.09369
746.39750	0.09301
744.46883	0.09217
742.54015	0.09125
740.61147	0.09050
738.68280	0.09010
736.75412	0.08995
734.82545	0.08992
732.89677	0.08994
730.96810	0.08999
729.03942	0.09008
727.11074	0.09025
725.18207	0.09044
723.25339	0.09056
721.32472	0.09062
719.39604	0.09076
717.46737	0.09107
715.53869	0.09146
713.61001	0.09186
711.68134	0.09223
709.75266	0.09242
707.82399	0.09241
705.89531	0.09232
703.96664	0.09224
702.03796	0.09211
700.10928	0.09176
698.18061	0.09120
696.25193	0.09060
694.32326	0.09004
692.39458	0.08953
690.46591	0.08899
688.53723	0.08844
686.60855	0.08798
684.67988	0.08757
682.75120	0.08705
680.82253	0.08638
678.89385	0.08567
676.96518	0.08505
675.03650	0.08450
673.10782	0.08385
671.17915	0.08299
669.25047	0.08199
667.32180	0.08109
665.39312	0.08035
663.46445	0.07953
661.53577	0.07844
659.60709	0.07722
657.67842	0.07613
655.74974	0.07533
653.82107	0.07473
651.89239	0.07415
649.96372	0.07351
648.03504	0.07282
646.10636	0.07208
644.17769	0.07125
642.24901	0.07036
640.32034	0.06947
638.39166	0.06852
636.46299	0.06747
634.53431	0.06632
632.60563	0.06486
630.67696	0.06265
628.74828	0.05938
626.81961	0.05525
624.89093	0.05107
622.96226	0.04770
621.03358	0.04556
619.10490	0.04443
617.17623	0.04366
615.24755	0.04285
613.31888	0.04188
611.39020	0.04090
609.46153	0.04037
607.53285	0.04043
605.60417	0.04078
603.67550	0.04123
601.74682	0.04187
599.81815	0.04271
597.88947	0.04349
595.96080	0.04407
594.03212	0.04450
592.10344	0.04479
590.17477	0.04497
588.24609	0.04499
586.31742	0.04486
584.38874	0.04461
582.46007	0.04429
580.53139	0.04390
578.60271	0.04342
576.67404	0.04285
574.74536	0.04225
572.81669	0.04165
570.88801	0.04098
568.95934	0.04026
567.03066	0.03969
565.10198	0.03943
563.17331	0.03939
561.24463	0.03928
559.31596	0.03899
557.38728	0.03865
555.45861	0.03842
553.52993	0.03831
551.60125	0.03817
549.67258	0.03797
547.74390	0.03774
545.81523	0.03755
543.88655	0.03740
541.95788	0.03728
540.02920	0.03711
538.10052	0.03690
536.17185	0.03672
534.24317	0.03655
532.31450	0.03629
530.38582	0.03597
528.45715	0.03572
526.52847	0.03543
524.59979	0.03501
522.67112	0.03454
520.74244	0.03408
518.81377	0.03363
516.88509	0.03312
514.95642	0.03257
513.02774	0.03208
511.09906	0.03171
509.17039	0.03141
507.24171	0.03110
505.31304	0.03075
503.38436	0.03029
501.45569	0.02975
499.52701	0.02917
497.59833	0.02859
495.66966	0.02797
493.74098	0.02732
491.81231	0.02662
489.88363	0.02584
487.95496	0.02501
486.02628	0.02424
484.09760	0.02356
482.16893	0.02288
480.24025	0.02213
478.31158	0.02132
476.38290	0.02051
474.45423	0.01973
472.52555	0.01908
470.59687	0.01856
468.66820	0.01798
466.73952	0.01738
464.81085	0.01696
462.88217	0.01666
460.95350	0.01637
459.02482	0.01610
457.09614	0.01589
455.16747	0.01575
453.23879	0.01572
451.31012	0.01579
449.38144	0.01591
447.45277	0.01596
445.52409	0.01581
443.59541	0.01557
441.66674	0.01546
439.73806	0.01541
437.80939	0.01525
435.88071	0.01495
433.95204	0.01459
432.02336	0.01427
430.09468	0.01407
428.16601	0.01391
426.23733	0.01359
424.30866	0.01313
422.37998	0.01277
420.45131	0.01249
418.52263	0.01209
416.59395	0.01148
414.66528	0.01080
412.73660	0.01031
410.80793	0.01005
408.87925	0.00980
406.95058	0.00940
405.02190	0.00893
403.09322	0.00856
401.16455	0.00825
399.23587	0.00783
397.30720	0.00732
395.37852	0.00686
393.44985	0.00648
391.52117	0.00616
389.59249	0.00580
387.66382	0.00534
385.73514	0.00490
383.80647	0.00459
381.87779	0.00434
379.94912	0.00402
378.02044	0.00368
376.09176	0.00344
374.16309	0.00321
372.23441	0.00286
370.30574	0.00253
368.37706	0.00229
