7496.76250	0.00117
7494.83382	0.00117
7492.90514	0.00118
7490.97647	0.00117
7489.04779	0.00117
7487.11912	0.00117
7485.19044	0.00118
7483.26177	0.00119
7481.33309	0.00119
7479.40441	0.00120
7477.47574	0.00121
7475.54706	0.00121
7473.61839	0.00121
7471.68971	0.00121
7469.76104	0.00122
7467.83236	0.00124
7465.90368	0.00126
7463.97501	0.00126
7462.04633	0.00124
7460.11766	0.00123
7458.18898	0.00123
7456.26031	0.00124
7454.33163	0.00125
7452.40295	0.00125
7450.47428	0.00125
7448.54560	0.00126
7446.61693	0.00127
7444.68825	0.00128
7442.75958	0.00130
7440.83090	0.00131
7438.90222	0.00131
7436.97355	0.00131
7435.04487	0.00131
7433.11620	0.00131
7431.18752	0.00132
7429.25885	0.00132
7427.33017	0.00130
7425.40149	0.00129
7423.47282	0.00130
7421.54414	0.00130
7419.61547	0.00130
7417.68679	0.00130
7415.75812	0.00132
7413.82944	0.00135
7411.90076	0.00136
7409.97209	0.00135
7408.04341	0.00135
7406.11474	0.00135
7404.18606	0.00134
7402.25739	0.00134
7400.32871	0.00135
7398.40003	0.00136
7396.47136	0.00136
7394.54268	0.00137
7392.61401	0.00136
7390.68533	0.00136
7388.75666	0.00137
7386.82798	0.00137
7384.89930	0.00137
7382.97063	0.00136
7381.04195	0.00136
7379.11328	0.00136
7377.18460	0.00136
7375.25593	0.00136
7373.32725	0.00138
7371.39857	0.00139
7369.46990	0.00140
7367.54122	0.00140
7365.61255	0.00140
7363.68387	0.00141
7361.75520	0.00143
7359.82652	0.00144
7357.89784	0.00144
7355.96917	0.00142
7354.04049	0.00141
7352.11182	0.00142
7350.18314	0.00143
7348.25447	0.00144
7346.32579	0.00145
7344.39711	0.00146
7342.46844	0.00148
7340.53976	0.00148
7338.61109	0.00147
7336.68241	0.00146
7334.75374	0.00145
7332.82506	0.00145
7330.89638	0.00147
7328.96771	0.00148
7327.03903	0.00148
7325.11036	0.00150
7323.18168	0.00151
7321.25301	0.00152
7319.32433	0.00152
7317.39565	0.00152
7315.46698	0.00152
7313.53830	0.00152
7311.60963	0.00152
7309.68095	0.00152
7307.75228	0.00152
7305.82360	0.00153
7303.89492	0.00154
7301.96625	0.00154
7300.03757	0.00154
7298.10890	0.00155
7296.18022	0.00154
7294.25155	0.00152
7292.32287	0.00152
7290.39419	0.00154
7288.46552	0.00158
7286.53684	0.00160
7284.60817	0.00160
7282.67949	0.00159
7280.75082	0.00158
7278.82214	0.00158
7276.89346	0.00158
7274.96479	0.00158
7273.03611	0.00160
7271.10744	0.00161
7269.17876	0.00162
7267.25009	0.00162
7265.32141	0.00163
7263.39273	0.00163
7261.46406	0.00162
7259.53538	0.00161
7257.60671	0.00161
7255.67803	0.00162
7253.74936	0.00163
7251.82068	0.00164
7249.89200	0.00164
7247.96333	0.00164
7246.03465	0.00165
7244.10598	0.00166
7242.17730	0.00166
7240.24863	0.00166
7238.31995	0.00165
7236.39127	0.00165
7234.46260	0.00166
7232.53392	0.00168
7230.60525	0.00170
7228.67657	0.00171
7226.74790	0.00170
7224.81922	0.00170
7222.89054	0.00170
7220.96187	0.00169
7219.03319	0.00170
7217.10452	0.00170
7215.17584	0.00171
7213.24717	0.00172
7211.31849	0.00175
7209.38981	0.00176
7207.46114	0.00175
7205.53246	0.00173
7203.60379	0.00173
7201.67511	0.00175
7199.74644	0.00177
7197.81776	0.00176
7195.88908	0.00176
7193.96041	0.00175
7192.03173	0.00175
7190.10306	0.00177
7188.17438	0.00179
7186.24571	0.00180
7184.31703	0.00178
7182.38835	0.00178
7180.45968	0.00177
7178.53100	0.00176
7176.60233	0.00176
7174.67365	0.00178
7172.74498	0.00180
7170.81630	0.00180
7168.88762	0.00180
7166.95895	0.00180
7165.03027	0.00182
7163.10160	0.00183
7161.17292	0.00183
7159.24425	0.00183
7157.31557	0.00185
7155.38689	0.00186
7153.45822	0.00185
7151.52954	0.00184
7149.60087	0.00184
7147.67219	0.00183
7145.74352	0.00183
7143.81484	0.00183
7141.88616	0.00184
7139.95749	0.00186
7138.02881	0.00187
7136.10014	0.00189
7134.17146	0.00190
7132.24279	0.00191
7130.31411	0.00192
7128.38543	0.00191
7126.45676	0.00190
7124.52808	0.00189
7122.59941	0.00190
7120.67073	0.00193
7118.74206	0.00194
7116.81338	0.00194
7114.88470	0.00193
7112.95603	0.00194
7111.02735	0.00195
7109.09868	0.00196
7107.17000	0.00195
7105.24133	0.00195
7103.31265	0.00196
7101.38397	0.00197
7099.45530	0.00197
7097.52662	0.00198
7095.59795	0.00199
7093.66927	0.00198
7091.74060	0.00198
7089.81192	0.00200
7087.88324	0.00202
7085.95457	0.00202
7084.02589	0.00201
7082.09722	0.00200
7080.16854	0.00201
7078.23987	0.00202
7076.31119	0.00203
7074.38251	0.00204
7072.45384	0.00204
7070.52516	0.00204
7068.59649	0.00204
7066.66781	0.00204
7064.73914	0.00204
7062.81046	0.00206
7060.88178	0.00207
7058.95311	0.00207
7057.02443	0.00208
7055.09576	0.00210
7053.16708	0.00211
7051.23841	0.00211
7049.30973	0.00209
7047.38105	0.00207
7045.45238	0.00207
7043.52370	0.00208
7041.59503	0.00209
7039.66635	0.00210
7037.73768	0.00211
7035.80900	0.00211
7033.88032	0.00210
7031.95165	0.00211
7030.02297	0.00213
7028.09430	0.00214
7026.16562	0.00215
7024.23695	0.00214
7022.30827	0.00212
7020.37959	0.00212
7018.45092	0.00215
7016.52224	0.00217
7014.59357	0.00218
7012.66489	0.00218
7010.73622	0.00217
7008.80754	0.00217
7006.87886	0.00218
7004.95019	0.00219
7003.02151	0.00220
7001.09284	0.00220
6999.16416	0.00220
6997.23549	0.00220
6995.30681	0.00220
6993.37813	0.00221
6991.44946	0.00222
6989.52078	0.00223
6987.59211	0.00225
6985.66343	0.00226
6983.73476	0.00228
6981.80608	0.00227
6979.87740	0.00226
6977.94873	0.00226
6976.02005	0.00227
6974.09138	0.00227
6972.16270	0.00226
6970.23403	0.00226
6968.30535	0.00227
6966.37667	0.00229
6964.44800	0.00230
6962.51932	0.00232
6960.59065	0.00234
6958.66197	0.00234
6956.73330	0.00233
6954.80462	0.00233
6952.87594	0.00233
6950.94727	0.00232
6949.01859	0.00232
6947.08992	0.00234
6945.16124	0.00234
6943.23257	0.00236
6941.30389	0.00239
6939.37521	0.00242
6937.44654	0.00241
6935.51786	0.00239
6933.58919	0.00239
6931.66051	0.00239
6929.73184	0.00239
6927.80316	0.00240
6925.87448	0.00240
6923.94581	0.00240
6922.01713	0.00240
6920.08846	0.00241
6918.15978	0.00244
6916.23111	0.00246
6914.30243	0.00246
6912.37375	0.00245
6910.44508	0.00244
6908.51640	0.00244
6906.58773	0.00245
6904.65905	0.00246
6902.73038	0.00247
6900.80170	0.00249
6898.87302	0.00249
6896.94435	0.00249
6895.01567	0.00248
6893.08700	0.00248
6891.15832	0.00250
6889.22965	0.00252
6887.30097	0.00254
6885.37229	0.00253
6883.44362	0.00253
6881.51494	0.00253
6879.58627	0.00254
6877.65759	0.00255
6875.72892	0.00256
6873.80024	0.00257
6871.87156	0.00257
6869.94289	0.00256
6868.01421	0.00256
6866.08554	0.00257
6864.15686	0.00258
6862.22819	0.00259
6860.29951	0.00261
6858.37083	0.00263
6856.44216	0.00263
6854.51348	0.00262
6852.58481	0.00262
6850.65613	0.00262
6848.72746	0.00263
6846.79878	0.00264
6844.87010	0.00263
6842.94143	0.00262
6841.01275	0.00263
6839.08408	0.00265
6837.15540	0.00268
6835.22673	0.00270
6833.29805	0.00270
6831.36937	0.00270
6829.44070	0.00269
6827.51202	0.00269
6825.58335	0.00270
6823.65467	0.00269
6821.72600	0.00269
6819.79732	0.00269
6817.86864	0.00270
6815.93997	0.00272
6814.01129	0.00273
6812.08262	0.00274
6810.15394	0.00274
6808.22527	0.00274
6806.29659	0.00276
6804.36791	0.00277
6802.43924	0.00277
6800.51056	0.00277
6798.58189	0.00278
6796.65321	0.00279
6794.72454	0.00279
6792.79586	0.00279
6790.86718	0.00280
6788.93851	0.00281
6787.00983	0.00282
6785.08116	0.00283
6783.15248	0.00284
6781.22381	0.00285
6779.29513	0.00286
6777.36645	0.00286
6775.43778	0.00286
6773.50910	0.00285
6771.58043	0.00284
6769.65175	0.00285
6767.72308	0.00287
6765.79440	0.00290
6763.86572	0.00292
6761.93705	0.00293
6760.00837	0.00293
6758.07970	0.00292
6756.15102	0.00292
6754.22235	0.00293
6752.29367	0.00295
6750.36499	0.00296
6748.43632	0.00296
6746.50764	0.00296
6744.57897	0.00297
6742.65029	0.00297
6740.72162	0.00298
6738.79294	0.00299
6736.86426	0.00300
6734.93559	0.00300
6733.00691	0.00300
6731.07824	0.00300
6729.14956	0.00301
6727.22089	0.00303
6725.29221	0.00304
6723.36353	0.00303
6721.43486	0.00302
6719.50618	0.00302
6717.57751	0.00303
6715.64883	0.00305
6713.72016	0.00307
6711.79148	0.00308
6709.86280	0.00310
6707.93413	0.00310
6706.00545	0.00310
6704.07678	0.00310
6702.14810	0.00310
6700.21943	0.00309
6698.29075	0.00310
6696.36207	0.00311
6694.43340	0.00313
6692.50472	0.00314
6690.57605	0.00315
6688.64737	0.00316
6686.71870	0.00316
6684.79002	0.00316
6682.86134	0.00316
6680.93267	0.00317
6679.00399	0.00318
6677.07532	0.00319
6675.14664	0.00322
6673.21797	0.00324
6671.28929	0.00324
6669.36061	0.00324
6667.43194	0.00324
6665.50326	0.00323
6663.57459	0.00323
6661.64591	0.00325
6659.71724	0.00327
6657.78856	0.00328
6655.85988	0.00328
6653.93121	0.00328
6652.00253	0.00329
6650.07386	0.00331
6648.14518	0.00332
6646.21651	0.00333
6644.28783	0.00333
6642.35915	0.00333
6640.43048	0.00333
6638.50180	0.00333
6636.57313	0.00333
6634.64445	0.00334
6632.71578	0.00335
6630.78710	0.00337
6628.85842	0.00338
6626.92975	0.00339
6625.00107	0.00340
6623.07240	0.00341
6621.14372	0.00341
6619.21505	0.00340
6617.28637	0.00340
6615.35769	0.00342
6613.42902	0.00344
6611.50034	0.00344
6609.57167	0.00345
6607.64299	0.00347
6605.71432	0.00349
6603.78564	0.00350
6601.85696	0.00351
6599.92829	0.00352
6597.99961	0.00353
6596.07094	0.00354
6594.14226	0.00356
6592.21359	0.00356
6590.28491	0.00356
6588.35623	0.00355
6586.42756	0.00356
6584.49888	0.00357
6582.57021	0.00357
6580.64153	0.00357
6578.71286	0.00358
6576.78418	0.00358
6574.85550	0.00358
6572.92683	0.00360
6570.99815	0.00362
6569.06948	0.00362
6567.14080	0.00362
6565.21213	0.00362
6563.28345	0.00364
6561.35477	0.00367
6559.42610	0.00369
6557.49742	0.00369
6555.56875	0.00369
6553.64007	0.00369
6551.71140	0.00370
6549.78272	0.00372
6547.85404	0.00374
6545.92537	0.00374
6543.99669	0.00374
6542.06802	0.00374
6540.13934	0.00376
6538.21067	0.00377
6536.28199	0.00378
6534.35331	0.00379
6532.42464	0.00379
6530.49596	0.00378
6528.56729	0.00379
6526.63861	0.00380
6524.70994	0.00381
6522.78126	0.00381
6520.85258	0.00383
6518.92391	0.00385
6516.99523	0.00387
6515.06656	0.00389
6513.13788	0.00389
6511.20921	0.00388
6509.28053	0.00388
6507.35185	0.00390
6505.42318	0.00391
6503.49450	0.00391
6501.56583	0.00390
6499.63715	0.00390
6497.70848	0.00393
6495.77980	0.00395
6493.85112	0.00396
6491.92245	0.00396
6489.99377	0.00397
6488.06510	0.00398
6486.13642	0.00397
6484.20775	0.00396
6482.27907	0.00396
6480.35039	0.00398
6478.42172	0.00401
6476.49304	0.00404
6474.56437	0.00405
6472.63569	0.00404
6470.70702	0.00405
6468.77834	0.00407
6466.84966	0.00407
6464.92099	0.00408
6462.99231	0.00409
6461.06364	0.00410
6459.13496	0.00409
6457.20629	0.00409
6455.27761	0.00411
6453.34893	0.00413
6451.42026	0.00412
6449.49158	0.00412
6447.56291	0.00414
6445.63423	0.00415
6443.70556	0.00417
6441.77688	0.00419
6439.84820	0.00421
6437.91953	0.00422
6435.99085	0.00423
6434.06218	0.00424
6432.13350	0.00424
6430.20483	0.00425
6428.27615	0.00426
6426.34747	0.00428
6424.41880	0.00429
6422.49012	0.00429
6420.56145	0.00429
6418.63277	0.00429
6416.70410	0.00430
6414.77542	0.00431
6412.84674	0.00432
6410.91807	0.00434
6408.98939	0.00436
6407.06072	0.00436
6405.13204	0.00436
6403.20337	0.00437
6401.27469	0.00440
6399.34601	0.00442
6397.41734	0.00443
6395.48866	0.00443
6393.55999	0.00444
6391.63131	0.00444
6389.70264	0.00446
6387.77396	0.00449
6385.84528	0.00449
6383.91661	0.00449
6381.98793	0.00449
6380.05926	0.00450
6378.13058	0.00451
6376.20191	0.00452
6374.27323	0.00454
6372.34455	0.00456
6370.41588	0.00456
6368.48720	0.00455
6366.55853	0.00457
6364.62985	0.00460
6362.70118	0.00462
6360.77250	0.00463
6358.84382	0.00463
6356.91515	0.00463
6354.98647	0.00464
6353.05780	0.00466
6351.12912	0.00467
6349.20045	0.00467
6347.27177	0.00467
6345.34309	0.00469
6343.41442	0.00471
6341.48574	0.00471
6339.55707	0.00471
6337.62839	0.00471
6335.69972	0.00473
6333.77104	0.00474
6331.84236	0.00476
6329.91369	0.00478
6327.98501	0.00477
6326.05634	0.00476
6324.12766	0.00476
6322.19899	0.00480
6320.27031	0.00484
6318.34163	0.00485
6316.41296	0.00485
6314.48428	0.00486
6312.55561	0.00487
6310.62693	0.00488
6308.69826	0.00490
6306.76958	0.00491
6304.84090	0.00491
6302.91223	0.00491
6300.98355	0.00493
6299.05488	0.00494
6297.12620	0.00495
6295.19753	0.00496
6293.26885	0.00498
6291.34017	0.00499
6289.41150	0.00500
6287.48282	0.00502
6285.55415	0.00503
6283.62547	0.00504
6281.69680	0.00506
6279.76812	0.00507
6277.83944	0.00507
6275.91077	0.00509
6273.98209	0.00511
6272.05342	0.00513
6270.12474	0.00515
6268.19607	0.00515
6266.26739	0.00515
6264.33871	0.00517
6262.41004	0.00518
6260.48136	0.00517
6258.55269	0.00518
6256.62401	0.00520
6254.69534	0.00523
6252.76666	0.00523
6250.83798	0.00524
6248.90931	0.00526
6246.98063	0.00528
6245.05196	0.00527
6243.12328	0.00527
6241.19461	0.00527
6239.26593	0.00528
6237.33725	0.00531
6235.40858	0.00533
6233.47990	0.00534
6231.55123	0.00534
6229.62255	0.00535
6227.69388	0.00537
6225.76520	0.00539
6223.83652	0.00540
6221.90785	0.00540
6219.97917	0.00539
6218.05050	0.00539
6216.12182	0.00541
6214.19315	0.00543
6212.26447	0.00545
6210.33579	0.00546
6208.40712	0.00547
6206.47844	0.00549
6204.54977	0.00551
6202.62109	0.00554
6200.69242	0.00555
6198.76374	0.00556
6196.83506	0.00557
6194.90639	0.00557
6192.97771	0.00559
6191.04904	0.00561
6189.12036	0.00562
6187.19169	0.00562
6185.26301	0.00563
6183.33433	0.00565
6181.40566	0.00567
6179.47698	0.00570
6177.54831	0.00571
6175.61963	0.00570
6173.69096	0.00571
6171.76228	0.00574
6169.83360	0.00578
6167.90493	0.00580
6165.97625	0.00579
6164.04758	0.00578
6162.11890	0.00578
6160.19023	0.00579
6158.26155	0.00581
6156.33287	0.00583
6154.40420	0.00585
6152.47552	0.00586
6150.54685	0.00587
6148.61817	0.00589
6146.68950	0.00590
6144.76082	0.00593
6142.83214	0.00596
6140.90347	0.00598
6138.97479	0.00598
6137.04612	0.00597
6135.11744	0.00597
6133.18877	0.00599
6131.26009	0.00602
6129.33141	0.00604
6127.40274	0.00604
6125.47406	0.00605
6123.54539	0.00607
6121.61671	0.00612
6119.68804	0.00614
6117.75936	0.00612
6115.83068	0.00610
6113.90201	0.00611
6111.97333	0.00614
6110.04466	0.00615
6108.11598	0.00617
6106.18731	0.00619
6104.25863	0.00621
6102.32995	0.00622
6100.40128	0.00623
6098.47260	0.00624
6096.54393	0.00625
6094.61525	0.00626
6092.68658	0.00627
6090.75790	0.00628
6088.82922	0.00629
6086.90055	0.00630
6084.97187	0.00632
6083.04320	0.00635
6081.11452	0.00639
6079.18585	0.00641
6077.25717	0.00642
6075.32849	0.00644
6073.39982	0.00646
6071.47114	0.00648
6069.54247	0.00648
6067.61379	0.00647
6065.68512	0.00648
6063.75644	0.00651
6061.82776	0.00653
6059.89909	0.00655
6057.97041	0.00656
6056.04174	0.00656
6054.11306	0.00657
6052.18439	0.00659
6050.25571	0.00661
6048.32703	0.00663
6046.39836	0.00665
6044.46968	0.00667
6042.54101	0.00669
6040.61233	0.00670
6038.68366	0.00672
6036.75498	0.00673
6034.82630	0.00674
6032.89763	0.00675
6030.96895	0.00677
6029.04028	0.00679
6027.11160	0.00679
6025.18293	0.00679
6023.25425	0.00680
6021.32557	0.00682
6019.39690	0.00683
6017.46822	0.00684
6015.53955	0.00686
6013.61087	0.00688
6011.68220	0.00690
6009.75352	0.00692
6007.82484	0.00693
6005.89617	0.00693
6003.96749	0.00694
6002.03882	0.00696
6000.11014	0.00699
5998.18147	0.00701
5996.25279	0.00702
5994.32411	0.00703
5992.39544	0.00704
5990.46676	0.00706
5988.53809	0.00709
5986.60941	0.00711
5984.68074	0.00713
5982.75206	0.00714
5980.82338	0.00715
5978.89471	0.00716
5976.96603	0.00718
5975.03736	0.00720
5973.10868	0.00722
5971.18001	0.00725
5969.25133	0.00727
5967.32265	0.00728
5965.39398	0.00728
5963.46530	0.00729
5961.53663	0.00730
5959.60795	0.00733
5957.67928	0.00736
5955.75060	0.00738
5953.82192	0.00738
5951.89325	0.00739
5949.96457	0.00742
5948.03590	0.00745
5946.10722	0.00746
5944.17855	0.00746
5942.24987	0.00747
5940.32119	0.00749
5938.39252	0.00751
5936.46384	0.00753
5934.53517	0.00755
5932.60649	0.00757
5930.67782	0.00759
5928.74914	0.00762
5926.82046	0.00763
5924.89179	0.00765
5922.96311	0.00766
5921.03444	0.00767
5919.10576	0.00769
5917.17709	0.00771
5915.24841	0.00773
5913.31973	0.00774
5911.39106	0.00776
5909.46238	0.00777
5907.53371	0.00779
5905.60503	0.00780
5903.67636	0.00783
5901.74768	0.00787
5899.81900	0.00789
5897.89033	0.00790
5895.96165	0.00791
5894.03298	0.00792
5892.10430	0.00792
5890.17563	0.00793
5888.24695	0.00795
5886.31827	0.00797
5884.38960	0.00799
5882.46092	0.00801
5880.53225	0.00802
5878.60357	0.00803
5876.67490	0.00804
5874.74622	0.00806
5872.81755	0.00810
5870.88887	0.00813
5868.96019	0.00815
5867.03152	0.00815
5865.10284	0.00816
5863.17417	0.00817
5861.24549	0.00819
5859.31682	0.00821
5857.38814	0.00823
5855.45946	0.00824
5853.53079	0.00827
5851.60211	0.00829
5849.67344	0.00831
5847.74476	0.00833
5845.81609	0.00835
5843.88741	0.00838
5841.95873	0.00841
5840.03006	0.00843
5838.10138	0.00844
5836.17271	0.00845
5834.24403	0.00847
5832.31536	0.00847
5830.38668	0.00849
5828.45800	0.00851
5826.52933	0.00853
5824.60065	0.00854
5822.67198	0.00857
5820.74330	0.00861
5818.81463	0.00863
5816.88595	0.00864
5814.95727	0.00865
5813.02860	0.00868
5811.09992	0.00870
5809.17125	0.00872
5807.24257	0.00873
5805.31390	0.00875
5803.38522	0.00877
5801.45654	0.00879
5799.52787	0.00881
5797.59919	0.00883
5795.67052	0.00884
5793.74184	0.00886
5791.81317	0.00888
5789.88449	0.00891
5787.95581	0.00893
5786.02714	0.00896
5784.09846	0.00900
5782.16979	0.00902
5780.24111	0.00902
5778.31244	0.00902
5776.38376	0.00904
5774.45508	0.00906
5772.52641	0.00907
5770.59773	0.00909
5768.66906	0.00911
5766.74038	0.00913
5764.81171	0.00915
5762.88303	0.00917
5760.95435	0.00920
5759.02568	0.00923
5757.09700	0.00925
5755.16833	0.00926
5753.23965	0.00926
5751.31098	0.00926
5749.38230	0.00928
5747.45362	0.00930
5745.52495	0.00934
5743.59627	0.00938
5741.66760	0.00940
5739.73892	0.00942
5737.81025	0.00944
5735.88157	0.00947
5733.95289	0.00949
5732.02422	0.00952
5730.09554	0.00955
5728.16687	0.00958
5726.23819	0.00959
5724.30952	0.00959
5722.38084	0.00962
5720.45216	0.00964
5718.52349	0.00965
5716.59481	0.00967
5714.66614	0.00970
5712.73746	0.00973
5710.80879	0.00975
5708.88011	0.00978
5706.95143	0.00980
5705.02276	0.00982
5703.09408	0.00982
5701.16541	0.00983
5699.23673	0.00985
5697.30806	0.00988
5695.37938	0.00991
5693.45070	0.00994
5691.52203	0.00996
5689.59335	0.00998
5687.66468	0.00999
5685.73600	0.01000
5683.80733	0.01003
5681.87865	0.01007
5679.94997	0.01010
5678.02130	0.01012
5676.09262	0.01013
5674.16395	0.01015
5672.23527	0.01017
5670.30660	0.01020
5668.37792	0.01022
5666.44924	0.01025
5664.52057	0.01027
5662.59189	0.01028
5660.66322	0.01030
5658.73454	0.01034
5656.80587	0.01035
5654.87719	0.01036
5652.94851	0.01038
5651.01984	0.01042
5649.09116	0.01045
5647.16249	0.01047
5645.23381	0.01047
5643.30514	0.01047
5641.37646	0.01051
5639.44778	0.01055
5637.51911	0.01059
5635.59043	0.01060
5633.66176	0.01061
5631.73308	0.01061
5629.80441	0.01062
5627.87573	0.01064
5625.94705	0.01067
5624.01838	0.01070
5622.08970	0.01071
5620.16103	0.01073
5618.23235	0.01077
5616.30368	0.01080
5614.37500	0.01083
5612.44632	0.01086
5610.51765	0.01090
5608.58897	0.01092
5606.66030	0.01095
5604.73162	0.01096
5602.80295	0.01097
5600.87427	0.01098
5598.94559	0.01100
5597.01692	0.01102
5595.08824	0.01104
5593.15957	0.01108
5591.23089	0.01113
5589.30222	0.01115
5587.37354	0.01117
5585.44486	0.01119
5583.51619	0.01121
5581.58751	0.01124
5579.65884	0.01126
5577.73016	0.01126
5575.80149	0.01127
5573.87281	0.01130
5571.94413	0.01133
5570.01546	0.01134
5568.08678	0.01135
5566.15811	0.01138
5564.22943	0.01142
5562.30076	0.01146
5560.37208	0.01148
5558.44340	0.01151
5556.51473	0.01153
5554.58605	0.01155
5552.65738	0.01157
5550.72870	0.01159
5548.80003	0.01161
5546.87135	0.01163
5544.94267	0.01168
5543.01400	0.01171
5541.08532	0.01173
5539.15665	0.01176
5537.22797	0.01178
5535.29930	0.01179
5533.37062	0.01181
5531.44194	0.01184
5529.51327	0.01188
5527.58459	0.01191
5525.65592	0.01194
5523.72724	0.01196
5521.79857	0.01199
5519.86989	0.01201
5517.94121	0.01204
5516.01254	0.01205
5514.08386	0.01205
5512.15519	0.01206
5510.22651	0.01210
5508.29784	0.01214
5506.36916	0.01217
5504.44048	0.01219
5502.51181	0.01222
5500.58313	0.01225
5498.65446	0.01228
5496.72578	0.01231
5494.79711	0.01232
5492.86843	0.01232
5490.93975	0.01234
5489.01108	0.01238
5487.08240	0.01242
5485.15373	0.01246
5483.22505	0.01249
5481.29638	0.01251
5479.36770	0.01253
5477.43902	0.01255
5475.51035	0.01257
5473.58167	0.01259
5471.65300	0.01262
5469.72432	0.01267
5467.79565	0.01271
5465.86697	0.01271
5463.93829	0.01270
5462.00962	0.01272
5460.08094	0.01277
5458.15227	0.01282
5456.22359	0.01284
5454.29492	0.01285
5452.36624	0.01287
5450.43756	0.01289
5448.50889	0.01290
5446.58021	0.01294
5444.65154	0.01298
5442.72286	0.01301
5440.79419	0.01302
5438.86551	0.01304
5436.93683	0.01308
5435.00816	0.01311
5433.07948	0.01313
5431.15081	0.01313
5429.22213	0.01314
5427.29346	0.01316
5425.36478	0.01321
5423.43610	0.01325
5421.50743	0.01328
5419.57875	0.01331
5417.65008	0.01333
5415.72140	0.01334
5413.79273	0.01336
5411.86405	0.01340
5409.93537	0.01346
5408.00670	0.01350
5406.07802	0.01352
5404.14935	0.01354
5402.22067	0.01357
5400.29200	0.01359
5398.36332	0.01361
5396.43464	0.01362
5394.50597	0.01364
5392.57729	0.01367
5390.64862	0.01372
5388.71994	0.01376
5386.79127	0.01378
5384.86259	0.01381
5382.93391	0.01384
5381.00524	0.01385
5379.07656	0.01386
5377.14789	0.01388
5375.21921	0.01393
5373.29054	0.01398
5371.36186	0.01402
5369.43318	0.01405
5367.50451	0.01406
5365.57583	0.01408
5363.64716	0.01411
5361.71848	0.01415
5359.78981	0.01418
5357.86113	0.01421
5355.93245	0.01423
5354.00378	0.01425
5352.07510	0.01427
5350.14643	0.01431
5348.21775	0.01434
5346.28908	0.01435
5344.36040	0.01437
5342.43172	0.01440
5340.50305	0.01444
5338.57437	0.01447
5336.64570	0.01449
5334.71702	0.01451
5332.78835	0.01454
5330.85967	0.01459
5328.93099	0.01463
5327.00232	0.01465
5325.07364	0.01469
5323.14497	0.01473
5321.21629	0.01475
5319.28762	0.01476
5317.35894	0.01478
5315.43026	0.01482
5313.50159	0.01486
5311.57291	0.01488
5309.64424	0.01490
5307.71556	0.01493
5305.78689	0.01497
5303.85821	0.01500
5301.92953	0.01501
5300.00086	0.01504
5298.07218	0.01510
5296.14351	0.01514
5294.21483	0.01516
5292.28616	0.01517
5290.35748	0.01521
5288.42880	0.01525
5286.50013	0.01528
5284.57145	0.01528
5282.64278	0.01530
5280.71410	0.01533
5278.78543	0.01536
5276.85675	0.01539
5274.92807	0.01543
5272.99940	0.01548
5271.07072	0.01551
5269.14205	0.01553
5267.21337	0.01553
5265.28470	0.01554
5263.35602	0.01555
5261.42734	0.01559
5259.49867	0.01564
5257.56999	0.01568
5255.64132	0.01570
5253.71264	0.01574
5251.78397	0.01578
5249.85529	0.01581
5247.92661	0.01584
5245.99794	0.01587
5244.06926	0.01589
5242.14059	0.01590
5240.21191	0.01594
5238.28324	0.01598
5236.35456	0.01600
5234.42588	0.01601
5232.49721	0.01604
5230.56853	0.01608
5228.63986	0.01613
5226.71118	0.01615
5224.78251	0.01617
5222.85383	0.01620
5220.92515	0.01623
5218.99648	0.01628
5217.06780	0.01632
5215.13913	0.01634
5213.21045	0.01636
5211.28178	0.01639
5209.35310	0.01641
5207.42442	0.01644
5205.49575	0.01650
5203.56707	0.01655
5201.63840	0.01656
5199.70972	0.01656
5197.78105	0.01659
5195.85237	0.01662
5193.92369	0.01666
5191.99502	0.01671
5190.06634	0.01676
5188.13767	0.01680
5186.20899	0.01682
5184.28032	0.01683
5182.35164	0.01685
5180.42296	0.01689
5178.49429	0.01693
5176.56561	0.01695
5174.63694	0.01696
5172.70826	0.01700
5170.77959	0.01704
5168.85091	0.01708
5166.92223	0.01712
5164.99356	0.01716
5163.06488	0.01719
5161.13621	0.01723
5159.20753	0.01726
5157.27886	0.01728
5155.35018	0.01731
5153.42150	0.01734
5151.49283	0.01737
5149.56415	0.01741
5147.63548	0.01744
5145.70680	0.01746
5143.77813	0.01747
5141.84945	0.01749
5139.92077	0.01754
5137.99210	0.01759
5136.06342	0.01763
5134.13475	0.01765
5132.20607	0.01768
5130.27740	0.01773
5128.34872	0.01777
5126.42004	0.01780
5124.49137	0.01782
5122.56269	0.01784
5120.63402	0.01788
5118.70534	0.01792
5116.77667	0.01795
5114.84799	0.01797
5112.91931	0.01798
5110.99064	0.01800
5109.06196	0.01804
5107.13329	0.01809
5105.20461	0.01813
5103.27594	0.01817
5101.34726	0.01819
5099.41858	0.01822
5097.48991	0.01827
5095.56123	0.01830
5093.63256	0.01832
5091.70388	0.01835
5089.77521	0.01840
5087.84653	0.01844
5085.91785	0.01845
5083.98918	0.01847
5082.06050	0.01852
5080.13183	0.01856
5078.20315	0.01861
5076.27448	0.01867
5074.34580	0.01870
5072.41712	0.01870
5070.48845	0.01872
5068.55977	0.01876
5066.63110	0.01880
5064.70242	0.01882
5062.77375	0.01885
5060.84507	0.01889
5058.91639	0.01893
5056.98772	0.01896
5055.05904	0.01899
5053.13037	0.01903
5051.20169	0.01906
5049.27302	0.01907
5047.34434	0.01911
5045.41566	0.01915
5043.48699	0.01919
5041.55831	0.01922
5039.62964	0.01925
5037.70096	0.01928
5035.77229	0.01932
5033.84361	0.01938
5031.91493	0.01942
5029.98626	0.01944
5028.05758	0.01947
5026.12891	0.01949
5024.20023	0.01952
5022.27156	0.01955
5020.34288	0.01960
5018.41420	0.01965
5016.48553	0.01967
5014.55685	0.01968
5012.62818	0.01971
5010.69950	0.01976
5008.77083	0.01981
5006.84215	0.01986
5004.91347	0.01991
5002.98480	0.01995
5001.05612	0.01996
4999.12745	0.01996
4997.19877	0.01998
4995.27010	0.02003
4993.34142	0.02009
4991.41274	0.02012
4989.48407	0.02015
4987.55539	0.02018
4985.62672	0.02022
4983.69804	0.02026
4981.76937	0.02029
4979.84069	0.02031
4977.91201	0.02034
4975.98334	0.02038
4974.05466	0.02043
4972.12599	0.02047
4970.19731	0.02050
4968.26864	0.02055
4966.33996	0.02060
4964.41128	0.02063
4962.48261	0.02065
4960.55393	0.02067
4958.62526	0.02070
4956.69658	0.02074
4954.76791	0.02078
4952.83923	0.02082
4950.91055	0.02087
4948.98188	0.02091
4947.05320	0.02095
4945.12453	0.02099
4943.19585	0.02101
4941.26718	0.02102
4939.33850	0.02105
4937.40982	0.02109
4935.48115	0.02114
4933.55247	0.02118
4931.62380	0.02122
4929.69512	0.02125
4927.76645	0.02126
4925.83777	0.02128
4923.90909	0.02133
4921.98042	0.02139
4920.05174	0.02143
4918.12307	0.02147
4916.19439	0.02150
4914.26572	0.02154
4912.33704	0.02158
4910.40836	0.02161
4908.47969	0.02165
4906.55101	0.02168
4904.62234	0.02172
4902.69366	0.02176
4900.76499	0.02180
4898.83631	0.02182
4896.90763	0.02186
4894.97896	0.02191
4893.05028	0.02196
4891.12161	0.02199
4889.19293	0.02202
4887.26426	0.02207
4885.33558	0.02211
4883.40690	0.02214
4881.47823	0.02216
4879.54955	0.02220
4877.62088	0.02225
4875.69220	0.02230
4873.76353	0.02233
4871.83485	0.02237
4869.90617	0.02242
4867.97750	0.02245
4866.04882	0.02247
4864.12015	0.02250
4862.19147	0.02253
4860.26280	0.02255
4858.33412	0.02258
4856.40544	0.02263
4854.47677	0.02269
4852.54809	0.02274
4850.61942	0.02279
4848.69074	0.02284
4846.76207	0.02287
4844.83339	0.02290
4842.90471	0.02294
4840.97604	0.02297
4839.04736	0.02299
4837.11869	0.02303
4835.19001	0.02307
4833.26134	0.02311
4831.33266	0.02315
4829.40398	0.02320
4827.47531	0.02323
4825.54663	0.02327
4823.61796	0.02332
4821.68928	0.02337
4819.76061	0.02341
4817.83193	0.02345
4815.90325	0.02349
4813.97458	0.02354
4812.04590	0.02358
4810.11723	0.02359
4808.18855	0.02361
4806.25988	0.02366
4804.33120	0.02372
4802.40252	0.02376
4800.47385	0.02379
4798.54517	0.02382
4796.61650	0.02388
4794.68782	0.02393
4792.75915	0.02395
4790.83047	0.02397
4788.90179	0.02401
4786.97312	0.02406
4785.04444	0.02411
4783.11577	0.02415
4781.18709	0.02418
4779.25842	0.02421
4777.32974	0.02426
4775.40106	0.02432
4773.47239	0.02438
4771.54371	0.02442
4769.61504	0.02444
4767.68636	0.02446
4765.75769	0.02450
4763.82901	0.02454
4761.90033	0.02458
4759.97166	0.02462
4758.04298	0.02465
4756.11431	0.02468
4754.18563	0.02474
4752.25696	0.02480
4750.32828	0.02484
4748.39960	0.02488
4746.47093	0.02491
4744.54225	0.02494
4742.61358	0.02497
4740.68490	0.02501
4738.75623	0.02505
4736.82755	0.02508
4734.89887	0.02513
4732.97020	0.02520
4731.04152	0.02528
4729.11285	0.02532
4727.18417	0.02535
4725.25550	0.02538
4723.32682	0.02541
4721.39814	0.02546
4719.46947	0.02551
4717.54079	0.02556
4715.61212	0.02560
4713.68344	0.02563
4711.75477	0.02567
4709.82609	0.02572
4707.89741	0.02579
4705.96874	0.02584
4704.04006	0.02587
4702.11139	0.02590
4700.18271	0.02592
4698.25404	0.02595
4696.32536	0.02600
4694.39668	0.02606
4692.46801	0.02611
4690.53933	0.02615
4688.61066	0.02619
4686.68198	0.02622
4684.75331	0.02624
4682.82463	0.02629
4680.89595	0.02636
4678.96728	0.02642
4677.03860	0.02648
4675.10993	0.02652
4673.18125	0.02656
4671.25258	0.02660
4669.32390	0.02664
4667.39522	0.02668
4665.46655	0.02673
4663.53787	0.02676
4661.60920	0.02678
4659.68052	0.02682
4657.75185	0.02687
4655.82317	0.02692
4653.89449	0.02700
4651.96582	0.02709
4650.03714	0.02715
4648.10847	0.02718
4646.17979	0.02720
4644.25112	0.02723
4642.32244	0.02727
4640.39376	0.02732
4638.46509	0.02738
4636.53641	0.02744
4634.60774	0.02748
4632.67906	0.02754
4630.75039	0.02760
4628.82171	0.02765
4626.89303	0.02768
4624.96436	0.02771
4623.03568	0.02775
4621.10701	0.02779
4619.17833	0.02783
4617.24966	0.02788
4615.32098	0.02793
4613.39230	0.02796
4611.46363	0.02801
4609.53495	0.02808
4607.60628	0.02813
4605.67760	0.02815
4603.74893	0.02819
4601.82025	0.02824
4599.89157	0.02829
4597.96290	0.02834
4596.03422	0.02840
4594.10555	0.02847
4592.17687	0.02851
4590.24820	0.02854
4588.31952	0.02857
4586.39084	0.02863
4584.46217	0.02869
4582.53349	0.02873
4580.60482	0.02879
4578.67614	0.02887
4576.74747	0.02891
4574.81879	0.02894
4572.89011	0.02897
4570.96144	0.02901
4569.03276	0.02906
4567.10409	0.02912
4565.17541	0.02917
4563.24674	0.02921
4561.31806	0.02927
4559.38938	0.02934
4557.46071	0.02939
4555.53203	0.02944
4553.60336	0.02948
4551.67468	0.02952
4549.74601	0.02956
4547.81733	0.02961
4545.88865	0.02965
4543.95998	0.02970
4542.03130	0.02976
4540.10263	0.02981
4538.17395	0.02988
4536.24528	0.02995
4534.31660	0.03002
4532.38792	0.03007
4530.45925	0.03012
4528.53057	0.03016
4526.60190	0.03021
4524.67322	0.03024
4522.74455	0.03028
4520.81587	0.03032
4518.88719	0.03038
4516.95852	0.03044
4515.02984	0.03049
4513.10117	0.03053
4511.17249	0.03056
4509.24382	0.03063
4507.31514	0.03069
4505.38646	0.03074
4503.45779	0.03079
4501.52911	0.03084
4499.60044	0.03087
4497.67176	0.03092
4495.74309	0.03099
4493.81441	0.03106
4491.88573	0.03113
4489.95706	0.03119
4488.02838	0.03123
4486.09971	0.03128
4484.17103	0.03133
4482.24236	0.03140
4480.31368	0.03144
4478.38500	0.03147
4476.45633	0.03152
4474.52765	0.03159
4472.59898	0.03166
4470.67030	0.03172
4468.74163	0.03180
4466.81295	0.03186
4464.88427	0.03191
4462.95560	0.03194
4461.02692	0.03198
4459.09825	0.03204
4457.16957	0.03212
4455.24090	0.03219
4453.31222	0.03225
4451.38354	0.03230
4449.45487	0.03236
4447.52619	0.03242
4445.59752	0.03246
4443.66884	0.03250
4441.74017	0.03259
4439.81149	0.03268
4437.88281	0.03273
4435.95414	0.03275
4434.02546	0.03280
4432.09679	0.03287
4430.16811	0.03292
4428.23944	0.03296
4426.31076	0.03302
4424.38208	0.03310
4422.45341	0.03319
4420.52473	0.03326
4418.59606	0.03332
4416.66738	0.03336
4414.73871	0.03341
4412.81003	0.03346
4410.88135	0.03352
4408.95268	0.03358
4407.02400	0.03363
4405.09533	0.03369
4403.16665	0.03376
4401.23798	0.03383
4399.30930	0.03388
4397.38062	0.03393
4395.45195	0.03398
4393.52327	0.03405
4391.59460	0.03412
4389.66592	0.03419
4387.73725	0.03425
4385.80857	0.03430
4383.87989	0.03435
4381.95122	0.03441
4380.02254	0.03446
4378.09387	0.03452
4376.16519	0.03459
4374.23652	0.03465
4372.30784	0.03473
4370.37916	0.03480
4368.45049	0.03485
4366.52181	0.03489
4364.59314	0.03495
4362.66446	0.03503
4360.73579	0.03512
4358.80711	0.03519
4356.87843	0.03526
4354.94976	0.03529
4353.02108	0.03533
4351.09241	0.03540
4349.16373	0.03548
4347.23506	0.03555
4345.30638	0.03561
4343.37770	0.03570
4341.44903	0.03579
4339.52035	0.03584
4337.59168	0.03587
4335.66300	0.03593
4333.73433	0.03601
4331.80565	0.03609
4329.87697	0.03616
4327.94830	0.03621
4326.01962	0.03625
4324.09095	0.03631
4322.16227	0.03639
4320.23360	0.03646
4318.30492	0.03653
4316.37624	0.03661
4314.44757	0.03668
4312.51889	0.03673
4310.59022	0.03678
4308.66154	0.03683
4306.73287	0.03690
4304.80419	0.03697
4302.87551	0.03702
4300.94684	0.03709
4299.01816	0.03718
4297.08949	0.03727
4295.16081	0.03735
4293.23214	0.03741
4291.30346	0.03748
4289.37478	0.03756
4287.44611	0.03763
4285.51743	0.03768
4283.58876	0.03773
4281.66008	0.03781
4279.73141	0.03789
4277.80273	0.03798
4275.87405	0.03806
4273.94538	0.03813
4272.01670	0.03819
4270.08803	0.03825
4268.15935	0.03831
4266.23068	0.03838
4264.30200	0.03845
4262.37332	0.03853
4260.44465	0.03860
4258.51597	0.03867
4256.58730	0.03871
4254.65862	0.03877
4252.72995	0.03886
4250.80127	0.03896
4248.87259	0.03904
4246.94392	0.03910
4245.01524	0.03915
4243.08657	0.03920
4241.15789	0.03926
4239.22922	0.03935
4237.30054	0.03943
4235.37186	0.03949
4233.44319	0.03957
4231.51451	0.03966
4229.58584	0.03974
4227.65716	0.03982
4225.72849	0.03990
4223.79981	0.03996
4221.87113	0.04003
4219.94246	0.04010
4218.01378	0.04018
4216.08511	0.04026
4214.15643	0.04034
4212.22776	0.04041
4210.29908	0.04047
4208.37040	0.04056
4206.44173	0.04066
4204.51305	0.04073
4202.58438	0.04078
4200.65570	0.04083
4198.72703	0.04091
4196.79835	0.04099
4194.86968	0.04107
4192.94100	0.04113
4191.01232	0.04121
4189.08365	0.04130
4187.15497	0.04136
4185.22630	0.04141
4183.29762	0.04148
4181.36895	0.04158
4179.44027	0.04168
4177.51159	0.04176
4175.58292	0.04180
4173.65424	0.04186
4171.72557	0.04195
4169.79689	0.04207
4167.86822	0.04216
4165.93954	0.04224
4164.01086	0.04232
4162.08219	0.04239
4160.15351	0.04245
4158.22484	0.04254
4156.29616	0.04264
4154.36749	0.04272
4152.43881	0.04280
4150.51013	0.04287
4148.58146	0.04294
4146.65278	0.04300
4144.72411	0.04305
4142.79543	0.04313
4140.86676	0.04321
4138.93808	0.04330
4137.00940	0.04339
4135.08073	0.04348
4133.15205	0.04358
4131.22338	0.04368
4129.29470	0.04376
4127.36603	0.04382
4125.43735	0.04389
4123.50867	0.04398
4121.58000	0.04408
4119.65132	0.04417
4117.72265	0.04426
4115.79397	0.04434
4113.86530	0.04444
4111.93662	0.04452
4110.00794	0.04459
4108.07927	0.04466
4106.15059	0.04472
4104.22192	0.04479
4102.29324	0.04486
4100.36457	0.04494
4098.43589	0.04502
4096.50721	0.04511
4094.57854	0.04521
4092.64986	0.04529
4090.72119	0.04538
4088.79251	0.04547
4086.86384	0.04555
4084.93516	0.04564
4083.00648	0.04571
4081.07781	0.04580
4079.14913	0.04591
4077.22046	0.04602
4075.29178	0.04610
4073.36311	0.04617
4071.43443	0.04625
4069.50575	0.04634
4067.57708	0.04642
4065.64840	0.04650
4063.71973	0.04659
4061.79105	0.04668
4059.86238	0.04676
4057.93370	0.04684
4056.00502	0.04691
4054.07635	0.04698
4052.14767	0.04709
4050.21900	0.04722
4048.29032	0.04732
4046.36165	0.04740
4044.43297	0.04748
4042.50429	0.04755
4040.57562	0.04762
4038.64694	0.04770
4036.71827	0.04781
4034.78959	0.04792
4032.86092	0.04802
4030.93224	0.04811
4029.00356	0.04821
4027.07489	0.04830
4025.14621	0.04839
4023.21754	0.04848
4021.28886	0.04855
4019.36019	0.04861
4017.43151	0.04869
4015.50283	0.04879
4013.57416	0.04886
4011.64548	0.04893
4009.71681	0.04903
4007.78813	0.04914
4005.85946	0.04923
4003.93078	0.04931
4002.00210	0.04941
4000.07343	0.04951
3998.14475	0.04961
3996.21608	0.04970
3994.28740	0.04978
3992.35873	0.04987
3990.43005	0.04996
3988.50137	0.05004
3986.57270	0.05014
3984.64402	0.05027
3982.71535	0.05038
3980.78667	0.05047
3978.85800	0.05053
3976.92932	0.05058
3975.00064	0.05065
3973.07197	0.05075
3971.14329	0.05087
3969.21462	0.05097
3967.28594	0.05109
3965.35727	0.05120
3963.42859	0.05129
3961.49991	0.05137
3959.57124	0.05147
3957.64256	0.05156
3955.71389	0.05165
3953.78521	0.05174
3951.85654	0.05182
3949.92786	0.05189
3947.99918	0.05197
3946.07051	0.05207
3944.14183	0.05215
3942.21316	0.05225
3940.28448	0.05238
3938.35581	0.05251
3936.42713	0.05258
3934.49845	0.05262
3932.56978	0.05267
3930.64110	0.05277
3928.71243	0.05290
3926.78375	0.05300
3924.85508	0.05308
3922.92640	0.05316
3920.99772	0.05324
3919.06905	0.05330
3917.14037	0.05338
3915.21170	0.05354
3913.28302	0.05372
3911.35435	0.05387
3909.42567	0.05397
3907.49699	0.05397
3905.56832	0.05386
3903.63964	0.05378
3901.71097	0.05386
3899.78229	0.05406
3897.85362	0.05433
3895.92494	0.05456
3893.99626	0.05465
3892.06759	0.05469
3890.13891	0.05481
3888.21024	0.05490
3886.28156	0.05492
3884.35289	0.05500
3882.42421	0.05512
3880.49553	0.05522
3878.56686	0.05539
3876.63818	0.05553
3874.70951	0.05558
3872.78083	0.05559
3870.85216	0.05561
3868.92348	0.05572
3866.99480	0.05587
3865.06613	0.05597
3863.13745	0.05612
3861.20878	0.05633
3859.28010	0.05646
3857.35143	0.05637
3855.42275	0.05613
3853.49407	0.05612
3851.56540	0.05650
3849.63672	0.05691
3847.70805	0.05711
3845.77937	0.05716
3843.85070	0.05715
3841.92202	0.05716
3839.99334	0.05719
3838.06467	0.05727
3836.13599	0.05744
3834.20732	0.05762
3832.27864	0.05777
3830.34997	0.05792
3828.42129	0.05806
3826.49261	0.05816
3824.56394	0.05822
3822.63526	0.05819
3820.70659	0.05824
3818.77791	0.05838
3816.84924	0.05852
3814.92056	0.05871
3812.99188	0.05895
3811.06321	0.05908
3809.13453	0.05910
3807.20586	0.05912
3805.27718	0.05918
3803.34851	0.05921
3801.41983	0.05929
3799.49115	0.05949
3797.56248	0.05968
3795.63380	0.05984
3793.70513	0.06003
3791.77645	0.06018
3789.84778	0.06029
3787.91910	0.06037
3785.99042	0.06046
3784.06175	0.06055
3782.13307	0.06062
3780.20440	0.06068
3778.27572	0.06080
3776.34705	0.06097
3774.41837	0.06111
3772.48969	0.06115
3770.56102	0.06116
3768.63234	0.06124
3766.70367	0.06138
3764.77499	0.06153
3762.84632	0.06163
3760.91764	0.06165
3758.98896	0.06169
3757.06029	0.06179
3755.13161	0.06183
3753.20294	0.06174
3751.27426	0.06169
3749.34559	0.06179
3747.41691	0.06186
3745.48823	0.06181
3743.55956	0.06197
3741.63088	0.06236
3739.70221	0.06256
3737.77353	0.06250
3735.84486	0.06247
3733.91618	0.06264
3731.98750	0.06294
3730.05883	0.06319
3728.13015	0.06329
3726.20148	0.06331
3724.27280	0.06341
3722.34413	0.06355
3720.41545	0.06369
3718.48677	0.06385
3716.55810	0.06393
3714.62942	0.06389
3712.70075	0.06380
3710.77207	0.06382
3708.84340	0.06396
3706.91472	0.06413
3704.98604	0.06419
3703.05737	0.06414
3701.12869	0.06414
3699.20002	0.06423
3697.27134	0.06430
3695.34267	0.06431
3693.41399	0.06425
3691.48531	0.06414
3689.55664	0.06410
3687.62796	0.06423
3685.69929	0.06441
3683.77061	0.06450
3681.84194	0.06448
3679.91326	0.06439
3677.98458	0.06422
3676.05591	0.06408
3674.12723	0.06415
3672.19856	0.06426
3670.26988	0.06430
3668.34121	0.06445
3666.41253	0.06467
3664.48385	0.06480
3662.55518	0.06485
3660.62650	0.06487
3658.69783	0.06483
3656.76915	0.06478
3654.84048	0.06481
3652.91180	0.06478
3650.98312	0.06458
3649.05445	0.06444
3647.12577	0.06455
3645.19710	0.06488
3643.26842	0.06520
3641.33975	0.06540
3639.41107	0.06549
3637.48239	0.06557
3635.55372	0.06567
3633.62504	0.06570
3631.69637	0.06559
3629.76769	0.06548
3627.83902	0.06564
3625.91034	0.06597
3623.98166	0.06618
3622.05299	0.06617
3620.12431	0.06609
3618.19564	0.06613
3616.26696	0.06628
3614.33829	0.06640
3612.40961	0.06646
3610.48093	0.06652
3608.55226	0.06662
3606.62358	0.06680
3604.69491	0.06697
3602.76623	0.06704
3600.83756	0.06709
3598.90888	0.06717
3596.98020	0.06726
3595.05153	0.06733
3593.12285	0.06740
3591.19418	0.06744
3589.26550	0.06741
3587.33683	0.06748
3585.40815	0.06771
3583.47947	0.06796
3581.55080	0.06811
3579.62212	0.06819
3577.69345	0.06826
3575.76477	0.06834
3573.83610	0.06843
3571.90742	0.06850
3569.97874	0.06849
3568.05007	0.06847
3566.12139	0.06858
3564.19272	0.06879
3562.26404	0.06896
3560.33537	0.06909
3558.40669	0.06920
3556.47801	0.06927
3554.54934	0.06929
3552.62066	0.06934
3550.69199	0.06942
3548.76331	0.06949
3546.83464	0.06952
3544.90596	0.06960
3542.97728	0.06974
3541.04861	0.06988
3539.11993	0.06996
3537.19126	0.07001
3535.26258	0.07007
3533.33391	0.07015
3531.40523	0.07019
3529.47655	0.07022
3527.54788	0.07025
3525.61920	0.07026
3523.69053	0.07026
3521.76185	0.07031
3519.83318	0.07039
3517.90450	0.07047
3515.97582	0.07053
3514.04715	0.07057
3512.11847	0.07057
3510.18980	0.07057
3508.26112	0.07059
3506.33245	0.07064
3504.40377	0.07070
3502.47509	0.07075
3500.54642	0.07079
3498.61774	0.07082
3496.68907	0.07085
3494.76039	0.07088
3492.83172	0.07091
3490.90304	0.07095
3488.97436	0.07100
3487.04569	0.07104
3485.11701	0.07107
3483.18834	0.07108
3481.25966	0.07111
3479.33099	0.07118
3477.40231	0.07126
3475.47363	0.07134
3473.54496	0.07144
3471.61628	0.07156
3469.68761	0.07165
3467.75893	0.07173
3465.83026	0.07182
3463.90158	0.07192
3461.97290	0.07204
3460.04423	0.07217
3458.11555	0.07230
3456.18688	0.07244
3454.25820	0.07256
3452.32953	0.07264
3450.40085	0.07269
3448.47217	0.07276
3446.54350	0.07287
3444.61482	0.07299
3442.68615	0.07312
3440.75747	0.07328
3438.82880	0.07345
3436.90012	0.07360
3434.97144	0.07379
3433.04277	0.07404
3431.11409	0.07430
3429.18542	0.07452
3427.25674	0.07474
3425.32807	0.07498
3423.39939	0.07522
3421.47071	0.07542
3419.54204	0.07563
3417.61336	0.07584
3415.68469	0.07605
3413.75601	0.07622
3411.82734	0.07638
3409.89866	0.07652
3407.96998	0.07666
3406.04131	0.07682
3404.11263	0.07699
3402.18396	0.07716
3400.25528	0.07731
3398.32661	0.07747
3396.39793	0.07762
3394.46925	0.07776
3392.54058	0.07792
3390.61190	0.07811
3388.68323	0.07830
3386.75455	0.07846
3384.82588	0.07861
3382.89720	0.07877
3380.96852	0.07893
3379.03985	0.07909
3377.11117	0.07924
3375.18250	0.07938
3373.25382	0.07952
3371.32515	0.07966
3369.39647	0.07983
3367.46779	0.07998
3365.53912	0.08008
3363.61044	0.08019
3361.68177	0.08033
3359.75309	0.08051
3357.82442	0.08070
3355.89574	0.08089
3353.96706	0.08104
3352.03839	0.08118
3350.10971	0.08132
3348.18104	0.08147
3346.25236	0.08160
3344.32369	0.08172
3342.39501	0.08188
3340.46633	0.08207
3338.53766	0.08226
3336.60898	0.08241
3334.68031	0.08255
3332.75163	0.08270
3330.82296	0.08284
3328.89428	0.08298
3326.96560	0.08311
3325.03693	0.08324
3323.10825	0.08339
3321.17958	0.08356
3319.25090	0.08373
3317.32223	0.08388
3315.39355	0.08405
3313.46487	0.08423
3311.53620	0.08441
3309.60752	0.08456
3307.67885	0.08470
3305.75017	0.08487
3303.82150	0.08503
3301.89282	0.08517
3299.96414	0.08533
3298.03547	0.08552
3296.10679	0.08572
3294.17812	0.08590
3292.24944	0.08604
3290.32077	0.08616
3288.39209	0.08631
3286.46341	0.08647
3284.53474	0.08664
3282.60606	0.08680
3280.67739	0.08697
3278.74871	0.08710
3276.82004	0.08724
3274.89136	0.08741
3272.96268	0.08761
3271.03401	0.08780
3269.10533	0.08796
3267.17666	0.08813
3265.24798	0.08831
3263.31931	0.08847
3261.39063	0.08864
3259.46195	0.08881
3257.53328	0.08896
3255.60460	0.08911
3253.67593	0.08929
3251.74725	0.08950
3249.81858	0.08969
3247.88990	0.08986
3245.96122	0.09000
3244.03255	0.09014
3242.10387	0.09030
3240.17520	0.09044
3238.24652	0.09059
3236.31785	0.09077
3234.38917	0.09097
3232.46049	0.09115
3230.53182	0.09130
3228.60314	0.09146
3226.67447	0.09163
3224.74579	0.09180
3222.81712	0.09195
3220.88844	0.09210
3218.95976	0.09223
3217.03109	0.09237
3215.10241	0.09254
3213.17374	0.09272
3211.24506	0.09291
3209.31639	0.09307
3207.38771	0.09321
3205.45903	0.09337
3203.53036	0.09357
3201.60168	0.09377
3199.67301	0.09393
3197.74433	0.09409
3195.81566	0.09428
3193.88698	0.09449
3191.95830	0.09469
3190.02963	0.09485
3188.10095	0.09500
3186.17228	0.09518
3184.24360	0.09538
3182.31493	0.09557
3180.38625	0.09575
3178.45757	0.09593
3176.52890	0.09608
3174.60022	0.09625
3172.67155	0.09641
3170.74287	0.09658
3168.81420	0.09675
3166.88552	0.09695
3164.95684	0.09712
3163.02817	0.09726
3161.09949	0.09742
3159.17082	0.09759
3157.24214	0.09774
3155.31347	0.09790
3153.38479	0.09807
3151.45611	0.09825
3149.52744	0.09844
3147.59876	0.09860
3145.67009	0.09874
3143.74141	0.09890
3141.81274	0.09908
3139.88406	0.09928
3137.95538	0.09946
3136.02671	0.09961
3134.09803	0.09975
3132.16936	0.09989
3130.24068	0.10004
3128.31201	0.10019
3126.38333	0.10034
3124.45465	0.10051
3122.52598	0.10070
3120.59730	0.10089
3118.66863	0.10108
3116.73995	0.10128
3114.81128	0.10148
3112.88260	0.10168
3110.95392	0.10184
3109.02525	0.10198
3107.09657	0.10211
3105.16790	0.10223
3103.23922	0.10237
3101.31055	0.10253
3099.38187	0.10271
3097.45319	0.10290
3095.52452	0.10310
3093.59584	0.10328
3091.66717	0.10345
3089.73849	0.10361
3087.80982	0.10375
3085.88114	0.10390
3083.95246	0.10404
3082.02379	0.10419
3080.09511	0.10437
3078.16644	0.10454
3076.23776	0.10471
3074.30909	0.10488
3072.38041	0.10504
3070.45173	0.10521
3068.52306	0.10536
3066.59438	0.10553
3064.66571	0.10571
3062.73703	0.10587
3060.80836	0.10599
3058.87968	0.10611
3056.95100	0.10625
3055.02233	0.10641
3053.09365	0.10659
3051.16498	0.10677
3049.23630	0.10694
3047.30763	0.10711
3045.37895	0.10726
3043.45027	0.10739
3041.52160	0.10754
3039.59292	0.10772
3037.66425	0.10787
3035.73557	0.10800
3033.80690	0.10816
3031.87822	0.10835
3029.94954	0.10855
3028.02087	0.10871
3026.09219	0.10882
3024.16352	0.10896
3022.23484	0.10916
3020.30617	0.10935
3018.37749	0.10947
3016.44881	0.10960
3014.52014	0.10978
3012.59146	0.10994
3010.66279	0.11007
3008.73411	0.11021
3006.80544	0.11038
3004.87676	0.11054
3002.94808	0.11070
3001.01941	0.11084
2999.09073	0.11097
2997.16206	0.11112
2995.23338	0.11129
2993.30471	0.11146
2991.37603	0.11164
2989.44735	0.11180
2987.51868	0.11192
2985.59000	0.11201
2983.66133	0.11211
2981.73265	0.11219
2979.80398	0.11223
2977.87530	0.11227
2975.94662	0.11231
2974.01795	0.11234
2972.08927	0.11232
2970.16060	0.11227
2968.23192	0.11223
2966.30325	0.11222
2964.37457	0.11224
2962.44589	0.11232
2960.51722	0.11247
2958.58854	0.11266
2956.65987	0.11287
2954.73119	0.11310
2952.80252	0.11335
2950.87384	0.11356
2948.94516	0.11371
2947.01649	0.11382
2945.08781	0.11391
2943.15914	0.11397
2941.23046	0.11400
2939.30179	0.11402
2937.37311	0.11401
2935.44443	0.11395
2933.51576	0.11386
2931.58708	0.11378
2929.65841	0.11372
2927.72973	0.11369
2925.80106	0.11368
2923.87238	0.11367
2921.94370	0.11370
2920.01503	0.11378
2918.08635	0.11395
2916.15768	0.11428
2914.22900	0.11480
2912.30033	0.11541
2910.37165	0.11594
2908.44297	0.11635
2906.51430	0.11666
2904.58562	0.11693
2902.65695	0.11720
2900.72827	0.11745
2898.79960	0.11768
2896.87092	0.11791
2894.94224	0.11815
2893.01357	0.11836
2891.08489	0.11852
2889.15622	0.11873
2887.22754	0.11897
2885.29887	0.11916
2883.37019	0.11929
2881.44151	0.11942
2879.51284	0.11958
2877.58416	0.11977
2875.65549	0.11994
2873.72681	0.12006
2871.79814	0.12018
2869.86946	0.12032
2867.94078	0.12044
2866.01211	0.12056
2864.08343	0.12068
2862.15476	0.12075
2860.22608	0.12078
2858.29741	0.12078
2856.36873	0.12073
2854.44005	0.12066
2852.51138	0.12063
2850.58270	0.12073
2848.65403	0.12102
2846.72535	0.12149
2844.79668	0.12202
2842.86800	0.12251
2840.93932	0.12292
2839.01065	0.12327
2837.08197	0.12358
2835.15330	0.12383
2833.22462	0.12403
2831.29595	0.12424
2829.36727	0.12448
2827.43859	0.12471
2825.50992	0.12486
2823.58124	0.12497
2821.65257	0.12512
2819.72389	0.12530
2817.79522	0.12549
2815.86654	0.12568
2813.93786	0.12587
2812.00919	0.12604
2810.08051	0.12621
2808.15184	0.12639
2806.22316	0.12654
2804.29449	0.12666
2802.36581	0.12680
2800.43713	0.12696
2798.50846	0.12715
2796.57978	0.12734
2794.65111	0.12753
2792.72243	0.12768
2790.79376	0.12783
2788.86508	0.12801
2786.93640	0.12819
2785.00773	0.12831
2783.07905	0.12842
2781.15038	0.12855
2779.22170	0.12870
2777.29303	0.12887
2775.36435	0.12910
2773.43567	0.12929
2771.50700	0.12942
2769.57832	0.12955
2767.64965	0.12972
2765.72097	0.12989
2763.79230	0.13004
2761.86362	0.13020
2759.93494	0.13035
2758.00627	0.13048
2756.07759	0.13065
2754.14892	0.13084
2752.22024	0.13098
2750.29157	0.13111
2748.36289	0.13129
2746.43421	0.13145
2744.50554	0.13158
2742.57686	0.13169
2740.64819	0.13183
2738.71951	0.13198
2736.79084	0.13210
2734.86216	0.13223
2732.93348	0.13239
2731.00481	0.13257
2729.07613	0.13273
2727.14746	0.13288
2725.21878	0.13303
2723.29011	0.13316
2721.36143	0.13329
2719.43275	0.13344
2717.50408	0.13359
2715.57540	0.13375
2713.64673	0.13389
2711.71805	0.13402
2709.78938	0.13416
2707.86070	0.13431
2705.93202	0.13447
2704.00335	0.13462
2702.07467	0.13478
2700.14600	0.13492
2698.21732	0.13505
2696.28865	0.13517
2694.35997	0.13532
2692.43129	0.13548
2690.50262	0.13565
2688.57394	0.13581
2686.64527	0.13595
2684.71659	0.13609
2682.78792	0.13623
2680.85924	0.13637
2678.93056	0.13650
2677.00189	0.13663
2675.07321	0.13675
2673.14454	0.13689
2671.21586	0.13704
2669.28719	0.13722
2667.35851	0.13738
2665.42983	0.13752
2663.50116	0.13766
2661.57248	0.13781
2659.64381	0.13795
2657.71513	0.13809
2655.78646	0.13825
2653.85778	0.13844
2651.92910	0.13862
2650.00043	0.13876
2648.07175	0.13887
2646.14308	0.13900
2644.21440	0.13919
2642.28573	0.13939
2640.35705	0.13955
2638.42837	0.13970
2636.49970	0.13982
2634.57102	0.13995
2632.64235	0.14012
2630.71367	0.14029
2628.78500	0.14044
2626.85632	0.14059
2624.92764	0.14073
2622.99897	0.14085
2621.07029	0.14099
2619.14162	0.14116
2617.21294	0.14134
2615.28427	0.14151
2613.35559	0.14165
2611.42691	0.14181
2609.49824	0.14199
2607.56956	0.14214
2605.64089	0.14227
2603.71221	0.14242
2601.78354	0.14258
2599.85486	0.14273
2597.92618	0.14290
2595.99751	0.14308
2594.06883	0.14327
2592.14016	0.14342
2590.21148	0.14353
2588.28281	0.14364
2586.35413	0.14378
2584.42545	0.14396
2582.49678	0.14415
2580.56810	0.14429
2578.63943	0.14440
2576.71075	0.14455
2574.78208	0.14474
2572.85340	0.14491
2570.92472	0.14506
2568.99605	0.14522
2567.06737	0.14536
2565.13870	0.14547
2563.21002	0.14561
2561.28135	0.14577
2559.35267	0.14592
2557.42399	0.14608
2555.49532	0.14621
2553.56664	0.14630
2551.63797	0.14640
2549.70929	0.14654
2547.78062	0.14669
2545.85194	0.14686
2543.92326	0.14702
2541.99459	0.14716
2540.06591	0.14729
2538.13724	0.14743
2536.20856	0.14760
2534.27989	0.14779
2532.35121	0.14798
2530.42253	0.14814
2528.49386	0.14828
2526.56518	0.14840
2524.63651	0.14850
2522.70783	0.14860
2520.77916	0.14875
2518.85048	0.14893
2516.92181	0.14910
2514.99313	0.14928
2513.06445	0.14944
2511.13578	0.14957
2509.20710	0.14972
2507.27843	0.14990
2505.34975	0.15008
2503.42108	0.15025
2501.49240	0.15040
2499.56372	0.15056
2497.63505	0.15072
2495.70637	0.15083
2493.77770	0.15096
2491.84902	0.15114
2489.92035	0.15133
2487.99167	0.15149
2486.06299	0.15165
2484.13432	0.15182
2482.20564	0.15196
2480.27697	0.15211
2478.34829	0.15229
2476.41962	0.15247
2474.49094	0.15263
2472.56226	0.15278
2470.63359	0.15294
2468.70491	0.15309
2466.77624	0.15321
2464.84756	0.15331
2462.91889	0.15345
2460.99021	0.15361
2459.06153	0.15377
2457.13286	0.15389
2455.20418	0.15398
2453.27551	0.15410
2451.34683	0.15428
2449.41816	0.15447
2447.48948	0.15464
2445.56080	0.15479
2443.63213	0.15493
2441.70345	0.15506
2439.77478	0.15518
2437.84610	0.15530
2435.91743	0.15543
2433.98875	0.15556
2432.06007	0.15570
2430.13140	0.15587
2428.20272	0.15608
2426.27405	0.15626
2424.34537	0.15639
2422.41670	0.15651
2420.48802	0.15664
2418.55934	0.15677
2416.63067	0.15691
2414.70199	0.15703
2412.77332	0.15711
2410.84464	0.15720
2408.91597	0.15734
2406.98729	0.15748
2405.05861	0.15765
2403.12994	0.15784
2401.20126	0.15797
2399.27259	0.15805
2397.34391	0.15812
2395.41524	0.15822
2393.48656	0.15835
2391.55788	0.15848
2389.62921	0.15862
2387.70053	0.15875
2385.77186	0.15885
2383.84318	0.15891
2381.91451	0.15891
2379.98583	0.15888
2378.05715	0.15885
2376.12848	0.15880
2374.19980	0.15871
2372.27113	0.15861
2370.34245	0.15851
2368.41378	0.15844
2366.48510	0.15838
2364.55642	0.15830
2362.62775	0.15819
2360.69907	0.15803
2358.77040	0.15773
2356.84172	0.15721
2354.91305	0.15639
2352.98437	0.15510
2351.05569	0.15308
2349.12702	0.15015
2347.19834	0.14644
2345.26967	0.14256
2343.34099	0.13970
2341.41232	0.13951
2339.48364	0.14323
2337.55496	0.14980
2335.62629	0.15601
2333.69761	0.15966
2331.76894	0.16115
2329.84026	0.16178
2327.91159	0.16229
2325.98291	0.16285
2324.05423	0.16341
2322.12556	0.16389
2320.19688	0.16425
2318.26821	0.16451
2316.33953	0.16473
2314.41086	0.16493
2312.48218	0.16512
2310.55350	0.16530
2308.62483	0.16549
2306.69615	0.16570
2304.76748	0.16589
2302.83880	0.16603
2300.91013	0.16616
2298.98145	0.16630
2297.05277	0.16646
2295.12410	0.16663
2293.19542	0.16677
2291.26675	0.16689
2289.33807	0.16702
2287.40940	0.16716
2285.48072	0.16731
2283.55204	0.16747
2281.62337	0.16760
2279.69469	0.16769
2277.76602	0.16777
2275.83734	0.16795
2273.90867	0.16820
2271.97999	0.16844
2270.05131	0.16861
2268.12264	0.16876
2266.19396	0.16892
2264.26529	0.16911
2262.33661	0.16927
2260.40794	0.16942
2258.47926	0.16957
2256.55058	0.16972
2254.62191	0.16987
2252.69323	0.17005
2250.76456	0.17022
2248.83588	0.17033
2246.90721	0.17042
2244.97853	0.17056
2243.04985	0.17074
2241.12118	0.17092
2239.19250	0.17106
2237.26383	0.17115
2235.33515	0.17127
2233.40648	0.17141
2231.47780	0.17158
2229.54912	0.17174
2227.62045	0.17190
2225.69177	0.17206
2223.76310	0.17219
2221.83442	0.17231
2219.90575	0.17243
2217.97707	0.17256
2216.04839	0.17269
2214.11972	0.17282
2212.19104	0.17296
2210.26237	0.17312
2208.33369	0.17326
2206.40502	0.17338
2204.47634	0.17351
2202.54766	0.17365
2200.61899	0.17377
2198.69031	0.17391
2196.76164	0.17406
2194.83296	0.17420
2192.90429	0.17432
2190.97561	0.17444
2189.04693	0.17461
2187.11826	0.17480
2185.18958	0.17496
2183.26091	0.17508
2181.33223	0.17521
2179.40356	0.17532
2177.47488	0.17541
2175.54620	0.17553
2173.61753	0.17567
2171.68885	0.17582
2169.76018	0.17594
2167.83150	0.17608
2165.90283	0.17627
2163.97415	0.17644
2162.04547	0.17658
2160.11680	0.17670
2158.18812	0.17684
2156.25945	0.17698
2154.33077	0.17712
2152.40210	0.17727
2150.47342	0.17741
2148.54474	0.17756
2146.61607	0.17773
2144.68739	0.17791
2142.75872	0.17805
2140.83004	0.17816
2138.90137	0.17828
2136.97269	0.17839
2135.04401	0.17851
2133.11534	0.17862
2131.18666	0.17875
2129.25799	0.17891
2127.32931	0.17907
2125.40064	0.17920
2123.47196	0.17930
2121.54328	0.17940
2119.61461	0.17951
2117.68593	0.17966
2115.75726	0.17986
2113.82858	0.18005
2111.89991	0.18019
2109.97123	0.18034
2108.04255	0.18049
2106.11388	0.18062
2104.18520	0.18078
2102.25653	0.18094
2100.32785	0.18107
2098.39918	0.18119
2096.47050	0.18134
2094.54182	0.18146
2092.61315	0.18152
2090.68447	0.18162
2088.75580	0.18179
2086.82712	0.18196
2084.89845	0.18211
2082.96977	0.18226
2081.04109	0.18241
2079.11242	0.18253
2077.18374	0.18263
2075.25507	0.18271
2073.32639	0.18281
2071.39772	0.18293
2069.46904	0.18306
2067.54036	0.18320
2065.61169	0.18334
2063.68301	0.18348
2061.75434	0.18362
2059.82566	0.18376
2057.89699	0.18391
2055.96831	0.18404
2054.03963	0.18417
2052.11096	0.18430
2050.18228	0.18443
2048.25361	0.18458
2046.32493	0.18472
2044.39626	0.18485
2042.46758	0.18497
2040.53890	0.18506
2038.61023	0.18514
2036.68155	0.18528
2034.75288	0.18545
2032.82420	0.18559
2030.89553	0.18572
2028.96685	0.18588
2027.03817	0.18606
2025.10950	0.18620
2023.18082	0.18631
2021.25215	0.18642
2019.32347	0.18650
2017.39480	0.18658
2015.46612	0.18669
2013.53744	0.18685
2011.60877	0.18703
2009.68009	0.18719
2007.75142	0.18729
2005.82274	0.18740
2003.89407	0.18751
2001.96539	0.18764
2000.03671	0.18778
1998.10804	0.18789
1996.17936	0.18795
1994.25069	0.18799
1992.32201	0.18809
1990.39334	0.18827
1988.46466	0.18848
1986.53598	0.18862
1984.60731	0.18872
1982.67863	0.18880
1980.74996	0.18887
1978.82128	0.18898
1976.89261	0.18916
1974.96393	0.18932
1973.03525	0.18939
1971.10658	0.18941
1969.17790	0.18942
1967.24923	0.18953
1965.32055	0.18973
1963.39188	0.18989
1961.46320	0.18999
1959.53452	0.19010
1957.60585	0.19020
1955.67717	0.19032
1953.74850	0.19050
1951.81982	0.19068
1949.89115	0.19081
1947.96247	0.19092
1946.03379	0.19101
1944.10512	0.19104
1942.17644	0.19112
1940.24777	0.19135
1938.31909	0.19160
1936.39042	0.19174
1934.46174	0.19186
1932.53306	0.19200
1930.60439	0.19211
1928.67571	0.19220
1926.74704	0.19229
1924.81836	0.19236
1922.88969	0.19243
1920.96101	0.19250
1919.03233	0.19255
1917.10366	0.19270
1915.17498	0.19298
1913.24631	0.19321
1911.31763	0.19331
1909.38896	0.19340
1907.46028	0.19354
1905.53160	0.19369
1903.60293	0.19380
1901.67425	0.19392
1899.74558	0.19400
1897.81690	0.19403
1895.88823	0.19408
1893.95955	0.19421
1892.03087	0.19432
1890.10220	0.19438
1888.17352	0.19451
1886.24485	0.19470
1884.31617	0.19487
1882.38750	0.19501
1880.45882	0.19512
1878.53014	0.19522
1876.60147	0.19538
1874.67279	0.19551
1872.74412	0.19549
1870.81544	0.19535
1868.88677	0.19534
1866.95809	0.19559
1865.02941	0.19592
1863.10074	0.19614
1861.17206	0.19632
1859.24339	0.19649
1857.31471	0.19663
1855.38604	0.19678
1853.45736	0.19697
1851.52868	0.19717
1849.60001	0.19728
1847.67133	0.19721
1845.74266	0.19704
1843.81398	0.19712
1841.88531	0.19756
1839.95663	0.19794
1838.02795	0.19809
1836.09928	0.19823
1834.17060	0.19838
1832.24193	0.19840
1830.31325	0.19838
1828.38458	0.19847
1826.45590	0.19861
1824.52722	0.19881
1822.59855	0.19913
1820.66987	0.19936
1818.74120	0.19941
1816.81252	0.19943
1814.88385	0.19951
1812.95517	0.19961
1811.02649	0.19974
1809.09782	0.19994
1807.16914	0.20014
1805.24047	0.20022
1803.31179	0.20017
1801.38312	0.20012
1799.45444	0.20023
1797.52576	0.20043
1795.59709	0.20049
1793.66841	0.20039
1791.73974	0.20042
1789.81106	0.20073
1787.88239	0.20099
1785.95371	0.20103
1784.02503	0.20104
1782.09636	0.20112
1780.16768	0.20124
1778.23901	0.20136
1776.31033	0.20137
1774.38166	0.20120
1772.45298	0.20104
1770.52430	0.20110
1768.59563	0.20131
1766.66695	0.20160
1764.73828	0.20177
1762.80960	0.20174
1760.88093	0.20178
1758.95225	0.20189
1757.02357	0.20196
1755.09490	0.20197
1753.16622	0.20173
1751.23755	0.20136
1749.30887	0.20128
1747.38020	0.20144
1745.45152	0.20155
1743.52284	0.20152
1741.59417	0.20144
1739.66549	0.20141
1737.73682	0.20129
1735.80814	0.20086
1733.87947	0.20061
1731.95079	0.20100
1730.02211	0.20153
1728.09344	0.20188
1726.16476	0.20211
1724.23609	0.20221
1722.30741	0.20217
1720.37874	0.20186
1718.45006	0.20148
1716.52138	0.20151
1714.59271	0.20198
1712.66403	0.20250
1710.73536	0.20280
1708.80668	0.20279
1706.87801	0.20260
1704.94933	0.20247
1703.02065	0.20219
1701.09198	0.20174
1699.16330	0.20166
1697.23463	0.20186
1695.30595	0.20213
1693.37728	0.20260
1691.44860	0.20288
1689.51992	0.20282
1687.59125	0.20253
1685.66257	0.20205
1683.73390	0.20189
1681.80522	0.20230
1679.87655	0.20275
1677.94787	0.20280
1676.01919	0.20258
1674.09052	0.20248
1672.16184	0.20239
1670.23317	0.20224
1668.30449	0.20239
1666.37582	0.20275
1664.44714	0.20286
1662.51846	0.20286
1660.58979	0.20301
1658.66111	0.20308
1656.73244	0.20264
1654.80376	0.20176
1652.87509	0.20141
1650.94641	0.20188
1649.01773	0.20221
1647.08906	0.20216
1645.16038	0.20243
1643.23171	0.20290
1641.30303	0.20309
1639.37436	0.20291
1637.44568	0.20247
1635.51700	0.20225
1633.58833	0.20259
1631.65965	0.20299
1629.73098	0.20301
1627.80230	0.20283
1625.87363	0.20256
1623.94495	0.20216
1622.01627	0.20185
1620.08760	0.20177
1618.15892	0.20192
1616.23025	0.20250
1614.30157	0.20337
1612.37290	0.20403
1610.44422	0.20433
1608.51554	0.20455
1606.58687	0.20482
1604.65819	0.20508
1602.72952	0.20529
1600.80084	0.20549
1598.87217	0.20569
1596.94349	0.20585
1595.01481	0.20596
1593.08614	0.20607
1591.15746	0.20620
1589.22879	0.20635
1587.30011	0.20648
1585.37144	0.20662
1583.44276	0.20675
1581.51408	0.20685
1579.58541	0.20680
1577.65673	0.20661
1575.72806	0.20661
1573.79938	0.20689
1571.87071	0.20700
1569.94203	0.20696
1568.01335	0.20717
1566.08468	0.20745
1564.15600	0.20752
1562.22733	0.20718
1560.29865	0.20648
1558.36998	0.20622
1556.44130	0.20676
1554.51262	0.20746
1552.58395	0.20784
1550.65527	0.20801
1548.72660	0.20816
1546.79792	0.20814
1544.86925	0.20780
1542.94057	0.20737
1541.01189	0.20720
1539.08322	0.20752
1537.15454	0.20808
1535.22587	0.20827
1533.29719	0.20826
1531.36852	0.20846
1529.43984	0.20858
1527.51116	0.20840
1525.58249	0.20815
1523.65381	0.20782
1521.72514	0.20753
1519.79646	0.20760
1517.86779	0.20789
1515.93911	0.20820
1514.01043	0.20846
1512.08176	0.20845
1510.15308	0.20808
1508.22441	0.20762
1506.29573	0.20767
1504.36706	0.20833
1502.43838	0.20882
1500.50970	0.20872
1498.58103	0.20838
1496.65235	0.20826
1494.72368	0.20838
1492.79500	0.20829
1490.86633	0.20791
1488.93765	0.20768
1487.00897	0.20777
1485.08030	0.20790
1483.15162	0.20787
1481.22295	0.20767
1479.29427	0.20732
1477.36560	0.20683
1475.43692	0.20619
1473.50824	0.20560
1471.57957	0.20536
1469.65089	0.20537
1467.72222	0.20518
1465.79354	0.20475
1463.86487	0.20449
1461.93619	0.20431
1460.00751	0.20370
1458.07884	0.20286
1456.15016	0.20264
1454.22149	0.20309
1452.29281	0.20346
1450.36414	0.20348
1448.43546	0.20345
1446.50678	0.20357
1444.57811	0.20374
1442.64943	0.20381
1440.72076	0.20372
1438.79208	0.20341
1436.86341	0.20317
1434.93473	0.20340
1433.00605	0.20378
1431.07738	0.20395
1429.14870	0.20407
1427.22003	0.20419
1425.29135	0.20417
1423.36268	0.20403
1421.43400	0.20371
1419.50532	0.20336
1417.57665	0.20343
1415.64797	0.20381
1413.71930	0.20400
1411.79062	0.20399
1409.86195	0.20391
1407.93327	0.20375
1406.00459	0.20357
1404.07592	0.20350
1402.14724	0.20343
1400.21857	0.20321
1398.28989	0.20294
1396.36122	0.20273
1394.43254	0.20267
1392.50386	0.20273
1390.57519	0.20257
1388.64651	0.20205
1386.71784	0.20159
1384.78916	0.20147
1382.86049	0.20148
1380.93181	0.20144
1379.00313	0.20132
1377.07446	0.20116
1375.14578	0.20101
1373.21711	0.20096
1371.28843	0.20094
1369.35976	0.20086
1367.43108	0.20077
1365.50240	0.20058
1363.57373	0.20030
1361.64505	0.20022
1359.71638	0.20034
1357.78770	0.20046
1355.85903	0.20047
1353.93035	0.20042
1352.00167	0.20031
1350.07300	0.20019
1348.14432	0.20015
1346.21565	0.20016
1344.28697	0.20015
1342.35830	0.20002
1340.42962	0.19973
1338.50094	0.19943
1336.57227	0.19930
1334.64359	0.19925
1332.71492	0.19911
1330.78624	0.19883
1328.85757	0.19851
1326.92889	0.19821
1325.00021	0.19793
1323.07154	0.19763
1321.14286	0.19730
1319.21419	0.19697
1317.28551	0.19665
1315.35684	0.19631
1313.42816	0.19592
1311.49948	0.19554
1309.57081	0.19518
1307.64213	0.19480
1305.71346	0.19442
1303.78478	0.19404
1301.85611	0.19367
1299.92743	0.19325
1297.99875	0.19282
1296.07008	0.19241
1294.14140	0.19196
1292.21273	0.19146
1290.28405	0.19100
1288.35538	0.19063
1286.42670	0.19026
1284.49802	0.18980
1282.56935	0.18925
1280.64067	0.18866
1278.71200	0.18809
1276.78332	0.18753
1274.85465	0.18685
1272.92597	0.18596
1270.99729	0.18489
1269.06862	0.18369
1267.13994	0.18236
1265.21127	0.18104
1263.28259	0.17992
1261.35392	0.17907
1259.42524	0.17851
1257.49656	0.17808
1255.56789	0.17757
1253.63921	0.17688
1251.71054	0.17604
1249.78186	0.17506
1247.85319	0.17394
1245.92451	0.17279
1243.99583	0.17168
1242.06716	0.17057
1240.13848	0.16939
1238.20981	0.16818
1236.28113	0.16696
1234.35246	0.16572
1232.42378	0.16446
1230.49510	0.16318
1228.56643	0.16194
1226.63775	0.16083
1224.70908	0.15975
1222.78040	0.15861
1220.85173	0.15748
1218.92305	0.15642
1216.99437	0.15535
1215.06570	0.15418
1213.13702	0.15298
1211.20835	0.15186
1209.27967	0.15082
1207.35100	0.14977
1205.42232	0.14869
1203.49364	0.14761
1201.56497	0.14655
1199.63629	0.14549
1197.70762	0.14442
1195.77894	0.14337
1193.85027	0.14234
1191.92159	0.14126
1189.99291	0.14012
1188.06424	0.13894
1186.13556	0.13778
1184.20689	0.13667
1182.27821	0.13558
1180.34954	0.13447
1178.42086	0.13336
1176.49218	0.13223
1174.56351	0.13102
1172.63483	0.12976
1170.70616	0.12853
1168.77748	0.12742
1166.84881	0.12638
1164.92013	0.12529
1162.99145	0.12413
1161.06278	0.12296
1159.13410	0.12185
1157.20543	0.12085
1155.27675	0.11989
1153.34808	0.11888
1151.41940	0.11777
1149.49072	0.11666
1147.56205	0.11557
1145.63337	0.11450
1143.70470	0.11342
1141.77602	0.11235
1139.84735	0.11123
1137.91867	0.11003
1135.98999	0.10873
1134.06132	0.10727
1132.13264	0.10557
1130.20397	0.10368
1128.27529	0.10168
1126.34662	0.09956
1124.41794	0.09730
1122.48926	0.09496
1120.56059	0.09253
1118.63191	0.09004
1116.70324	0.08756
1114.77456	0.08508
1112.84589	0.08258
1110.91721	0.08007
1108.98853	0.07752
1107.05986	0.07491
1105.13118	0.07226
1103.20251	0.06960
1101.27383	0.06700
1099.34516	0.06451
1097.41648	0.06214
1095.48780	0.05994
1093.55913	0.05796
1091.63045	0.05618
1089.70178	0.05453
1087.77310	0.05301
1085.84443	0.05168
1083.91575	0.05059
1081.98707	0.04974
1080.05840	0.04905
1078.12972	0.04844
1076.20105	0.04798
1074.27237	0.04766
1072.34370	0.04749
1070.41502	0.04747
1068.48634	0.04758
1066.55767	0.04781
1064.62899	0.04813
1062.70032	0.04855
1060.77164	0.04910
1058.84297	0.04978
1056.91429	0.05056
1054.98561	0.05138
1053.05694	0.05225
1051.12826	0.05320
1049.19959	0.05426
1047.27091	0.05549
1045.34224	0.05686
1043.41356	0.05828
1041.48488	0.05974
1039.55621	0.06128
1037.62753	0.06291
1035.69886	0.06469
1033.77018	0.06665
1031.84151	0.06872
1029.91283	0.07084
1027.98415	0.07307
1026.05548	0.07555
1024.12680	0.07820
1022.19813	0.08094
1020.26945	0.08383
1018.34078	0.08691
1016.41210	0.09016
1014.48342	0.09355
1012.55475	0.09700
1010.62607	0.10048
1008.69740	0.10402
1006.76872	0.10754
1004.84005	0.11093
1002.91137	0.11420
1000.98269	0.11728
999.05402	0.12014
997.12534	0.12282
995.19667	0.12527
993.26799	0.12744
991.33932	0.12936
989.41064	0.13107
987.48196	0.13255
985.55329	0.13385
983.62461	0.13498
981.69594	0.13586
979.76726	0.13648
977.83859	0.13693
975.90991	0.13728
973.98123	0.13753
972.05256	0.13773
970.12388	0.13793
968.19521	0.13811
966.26653	0.13819
964.33786	0.13814
962.40918	0.13804
960.48050	0.13793
958.55183	0.13783
956.62315	0.13774
954.69448	0.13762
952.76580	0.13749
950.83713	0.13736
948.90845	0.13714
946.97977	0.13688
945.05110	0.13664
943.12242	0.13634
941.19375	0.13595
939.26507	0.13553
937.33640	0.13512
935.40772	0.13468
933.47904	0.13421
931.55037	0.13373
929.62169	0.13332
927.69302	0.13288
925.76434	0.13234
923.83567	0.13185
921.90699	0.13145
919.97831	0.13100
918.04964	0.13043
916.12096	0.12980
914.19229	0.12917
912.26361	0.12854
910.33494	0.12793
908.40626	0.12733
906.47758	0.12676
904.54891	0.12627
902.62023	0.12582
900.69156	0.12540
898.76288	0.12494
896.83421	0.12449
894.90553	0.12409
892.97685	0.12370
891.04818	0.12334
889.11950	0.12307
887.19083	0.12279
885.26215	0.12250
883.33348	0.12224
881.40480	0.12197
879.47612	0.12165
877.54745	0.12134
875.61877	0.12108
873.69010	0.12091
871.76142	0.12075
869.83275	0.12050
867.90407	0.12013
865.97539	0.11967
864.04672	0.11926
862.11804	0.11894
860.18937	0.11857
858.26069	0.11811
856.33202	0.11758
854.40334	0.11696
852.47466	0.11630
850.54599	0.11564
848.61731	0.11498
846.68864	0.11425
844.75996	0.11352
842.83129	0.11284
840.90261	0.11213
838.97394	0.11131
837.04526	0.11039
835.11658	0.10937
833.18791	0.10828
831.25923	0.10707
829.33056	0.10578
827.40188	0.10452
825.47321	0.10334
823.54453	0.10224
821.61585	0.10120
819.68718	0.10032
817.75850	0.09963
815.82983	0.09908
813.90115	0.09862
811.97248	0.09825
810.04380	0.09798
808.11512	0.09771
806.18645	0.09750
804.25777	0.09746
802.32910	0.09753
800.40042	0.09754
798.47175	0.09734
796.54307	0.09701
794.61439	0.09677
792.68572	0.09677
790.75704	0.09694
788.82837	0.09720
786.89969	0.09742
784.97102	0.09752
783.04234	0.09761
781.11366	0.09785
779.18499	0.09816
777.25631	0.09839
775.32764	0.09857
773.39896	0.09872
771.47029	0.09879
769.54161	0.09876
767.61293	0.09866
765.68426	0.09853
763.75558	0.09840
761.82691	0.09816
759.89823	0.09776
757.96956	0.09725
756.04088	0.09675
754.11220	0.09625
752.18353	0.09572
750.25485	0.09511
748.32618	0.09445
746.39750	0.09377
744.46883	0.09304
742.54015	0.09221
740.61147	0.09140
738.68280	0.09084
736.75412	0.09060
734.82545	0.09065
732.89677	0.09085
730.96810	0.09099
729.03942	0.09104
727.11074	0.09111
725.18207	0.09128
723.25339	0.09145
721.32472	0.09154
719.39604	0.09157
717.46737	0.09172
715.53869	0.09213
713.61001	0.09262
711.68134	0.09295
709.75266	0.09310
707.82399	0.09317
705.89531	0.09317
703.96664	0.09303
702.03796	0.09274
700.10928	0.09231
698.18061	0.09181
696.25193	0.09132
694.32326	0.09079
692.39458	0.09024
690.46591	0.08973
688.53723	0.08924
686.60855	0.08872
684.67988	0.08821
682.75120	0.08775
680.82253	0.08728
678.89385	0.08674
676.96518	0.08611
675.03650	0.08537
673.10782	0.08458
671.17915	0.08370
669.25047	0.08270
667.32180	0.08177
665.39312	0.08102
663.46445	0.08024
661.53577	0.07923
659.60709	0.07808
657.67842	0.07700
655.74974	0.07612
653.82107	0.07536
651.89239	0.07468
649.96372	0.07404
648.03504	0.07340
646.10636	0.07273
644.17769	0.07195
642.24901	0.07099
640.32034	0.07000
638.39166	0.06908
636.46299	0.06811
634.53431	0.06697
632.60563	0.06549
630.67696	0.06323
628.74828	0.05982
626.81961	0.05561
624.89093	0.05144
622.96226	0.04807
621.03358	0.04591
619.10490	0.04474
617.17623	0.04394
615.24755	0.04309
613.31888	0.04206
611.39020	0.04114
609.46153	0.04067
607.53285	0.04070
605.60417	0.04105
603.67550	0.04162
601.74682	0.04247
599.81815	0.04344
597.88947	0.04420
595.96080	0.04473
594.03212	0.04521
592.10344	0.04550
590.17477	0.04540
588.24609	0.04508
586.31742	0.04488
584.38874	0.04479
582.46007	0.04457
580.53139	0.04421
578.60271	0.04383
576.67404	0.04340
574.74536	0.04286
572.81669	0.04227
570.88801	0.04168
568.95934	0.04107
567.03066	0.04048
565.10198	0.04003
563.17331	0.03976
561.24463	0.03955
559.31596	0.03933
557.38728	0.03909
555.45861	0.03888
553.52993	0.03874
551.60125	0.03867
549.67258	0.03851
547.74390	0.03824
545.81523	0.03803
543.88655	0.03792
541.95788	0.03783
540.02920	0.03771
538.10052	0.03758
536.17185	0.03738
534.24317	0.03709
532.31450	0.03672
530.38582	0.03633
528.45715	0.03600
526.52847	0.03579
524.59979	0.03556
522.67112	0.03516
520.74244	0.03460
518.81377	0.03402
516.88509	0.03337
514.95642	0.03266
513.02774	0.03218
511.09906	0.03200
509.17039	0.03183
507.24171	0.03145
505.31304	0.03094
503.38436	0.03040
501.45569	0.02988
499.52701	0.02931
497.59833	0.02868
495.66966	0.02802
493.74098	0.02735
491.81231	0.02668
489.88363	0.02603
487.95496	0.02531
486.02628	0.02452
484.09760	0.02376
482.16893	0.02309
480.24025	0.02244
478.31158	0.02170
476.38290	0.02090
474.45423	0.02012
472.52555	0.01939
470.59687	0.01877
468.66820	0.01821
466.73952	0.01762
464.81085	0.01709
462.88217	0.01671
460.95350	0.01640
459.02482	0.01616
457.09614	0.01608
455.16747	0.01608
453.23879	0.01601
451.31012	0.01587
449.38144	0.01578
447.45277	0.01576
445.52409	0.01573
443.59541	0.01564
441.66674	0.01553
439.73806	0.01540
437.80939	0.01526
435.88071	0.01509
433.95204	0.01478
432.02336	0.01443
430.09468	0.01419
428.16601	0.01396
426.23733	0.01363
424.30866	0.01323
422.37998	0.01283
420.45131	0.01244
418.52263	0.01205
416.59395	0.01160
414.66528	0.01111
412.73660	0.01070
410.80793	0.01039
408.87925	0.00996
406.95058	0.00939
405.02190	0.00893
403.09322	0.00865
401.16455	0.00836
399.23587	0.00793
397.30720	0.00746
395.37852	0.00710
393.44985	0.00676
391.52117	0.00640
389.59249	0.00600
387.66382	0.00551
385.73514	0.00495
383.80647	0.00452
381.87779	0.00429
379.94912	0.00411
378.02044	0.00380
376.09176	0.00340
374.16309	0.00305
372.23441	0.00277
370.30574	0.00249
368.37706	0.00223
