7496.76250	0.00224
7494.83382	0.00226
7492.90514	0.00227
7490.97647	0.00227
7489.04779	0.00228
7487.11912	0.00229
7485.19044	0.00230
7483.26177	0.00229
7481.33309	0.00229
7479.40441	0.00230
7477.47574	0.00232
7475.54706	0.00233
7473.61839	0.00234
7471.68971	0.00234
7469.76104	0.00234
7467.83236	0.00234
7465.90368	0.00235
7463.97501	0.00236
7462.04633	0.00236
7460.11766	0.00237
7458.18898	0.00237
7456.26031	0.00237
7454.33163	0.00235
7452.40295	0.00235
7450.47428	0.00238
7448.54560	0.00241
7446.61693	0.00242
7444.68825	0.00242
7442.75958	0.00241
7440.83090	0.00241
7438.90222	0.00241
7436.97355	0.00241
7435.04487	0.00243
7433.11620	0.00245
7431.18752	0.00246
7429.25885	0.00245
7427.33017	0.00246
7425.40149	0.00247
7423.47282	0.00248
7421.54414	0.00249
7419.61547	0.00249
7417.68679	0.00249
7415.75812	0.00250
7413.82944	0.00251
7411.90076	0.00252
7409.97209	0.00252
7408.04341	0.00253
7406.11474	0.00253
7404.18606	0.00254
7402.25739	0.00254
7400.32871	0.00253
7398.40003	0.00254
7396.47136	0.00256
7394.54268	0.00257
7392.61401	0.00258
7390.68533	0.00260
7388.75666	0.00261
7386.82798	0.00261
7384.89930	0.00260
7382.97063	0.00260
7381.04195	0.00261
7379.11328	0.00262
7377.18460	0.00263
7375.25593	0.00265
7373.32725	0.00265
7371.39857	0.00266
7369.46990	0.00267
7367.54122	0.00267
7365.61255	0.00268
7363.68387	0.00267
7361.75520	0.00267
7359.82652	0.00267
7357.89784	0.00268
7355.96917	0.00270
7354.04049	0.00272
7352.11182	0.00273
7350.18314	0.00272
7348.25447	0.00270
7346.32579	0.00270
7344.39711	0.00272
7342.46844	0.00274
7340.53976	0.00276
7338.61109	0.00278
7336.68241	0.00278
7334.75374	0.00279
7332.82506	0.00279
7330.89638	0.00279
7328.96771	0.00280
7327.03903	0.00279
7325.11036	0.00279
7323.18168	0.00280
7321.25301	0.00282
7319.32433	0.00283
7317.39565	0.00285
7315.46698	0.00287
7313.53830	0.00287
7311.60963	0.00286
7309.68095	0.00284
7307.75228	0.00284
7305.82360	0.00286
7303.89492	0.00289
7301.96625	0.00290
7300.03757	0.00290
7298.10890	0.00290
7296.18022	0.00291
7294.25155	0.00291
7292.32287	0.00291
7290.39419	0.00293
7288.46552	0.00294
7286.53684	0.00295
7284.60817	0.00295
7282.67949	0.00295
7280.75082	0.00296
7278.82214	0.00296
7276.89346	0.00296
7274.96479	0.00296
7273.03611	0.00296
7271.10744	0.00296
7269.17876	0.00296
7267.25009	0.00298
7265.32141	0.00301
7263.39273	0.00304
7261.46406	0.00304
7259.53538	0.00304
7257.60671	0.00305
7255.67803	0.00305
7253.74936	0.00306
7251.82068	0.00307
7249.89200	0.00308
7247.96333	0.00309
7246.03465	0.00311
7244.10598	0.00311
7242.17730	0.00311
7240.24863	0.00312
7238.31995	0.00312
7236.39127	0.00313
7234.46260	0.00313
7232.53392	0.00314
7230.60525	0.00314
7228.67657	0.00313
7226.74790	0.00313
7224.81922	0.00315
7222.89054	0.00317
7220.96187	0.00320
7219.03319	0.00321
7217.10452	0.00320
7215.17584	0.00321
7213.24717	0.00322
7211.31849	0.00322
7209.38981	0.00322
7207.46114	0.00321
7205.53246	0.00322
7203.60379	0.00324
7201.67511	0.00326
7199.74644	0.00327
7197.81776	0.00327
7195.88908	0.00327
7193.96041	0.00327
7192.03173	0.00330
7190.10306	0.00333
7188.17438	0.00334
7186.24571	0.00335
7184.31703	0.00335
7182.38835	0.00336
7180.45968	0.00336
7178.53100	0.00337
7176.60233	0.00337
7174.67365	0.00336
7172.74498	0.00335
7170.81630	0.00335
7168.88762	0.00335
7166.95895	0.00336
7165.03027	0.00339
7163.10160	0.00341
7161.17292	0.00341
7159.24425	0.00342
7157.31557	0.00343
7155.38689	0.00344
7153.45822	0.00345
7151.52954	0.00346
7149.60087	0.00347
7147.67219	0.00346
7145.74352	0.00345
7143.81484	0.00345
7141.88616	0.00346
7139.95749	0.00348
7138.02881	0.00349
7136.10014	0.00349
7134.17146	0.00350
7132.24279	0.00351
7130.31411	0.00352
7128.38543	0.00354
7126.45676	0.00354
7124.52808	0.00355
7122.59941	0.00355
7120.67073	0.00355
7118.74206	0.00356
7116.81338	0.00358
7114.88470	0.00361
7112.95603	0.00362
7111.02735	0.00362
7109.09868	0.00361
7107.17000	0.00361
7105.24133	0.00362
7103.31265	0.00363
7101.38397	0.00364
7099.45530	0.00365
7097.52662	0.00367
7095.59795	0.00368
7093.66927	0.00369
7091.74060	0.00369
7089.81192	0.00370
7087.88324	0.00372
7085.95457	0.00372
7084.02589	0.00373
7082.09722	0.00373
7080.16854	0.00373
7078.23987	0.00373
7076.31119	0.00375
7074.38251	0.00377
7072.45384	0.00378
7070.52516	0.00379
7068.59649	0.00379
7066.66781	0.00380
7064.73914	0.00380
7062.81046	0.00381
7060.88178	0.00382
7058.95311	0.00384
7057.02443	0.00385
7055.09576	0.00386
7053.16708	0.00386
7051.23841	0.00386
7049.30973	0.00385
7047.38105	0.00386
7045.45238	0.00388
7043.52370	0.00389
7041.59503	0.00389
7039.66635	0.00391
7037.73768	0.00393
7035.80900	0.00396
7033.88032	0.00396
7031.95165	0.00395
7030.02297	0.00396
7028.09430	0.00398
7026.16562	0.00397
7024.23695	0.00396
7022.30827	0.00397
7020.37959	0.00400
7018.45092	0.00402
7016.52224	0.00403
7014.59357	0.00404
7012.66489	0.00406
7010.73622	0.00406
7008.80754	0.00405
7006.87886	0.00405
7004.95019	0.00405
7003.02151	0.00407
7001.09284	0.00409
6999.16416	0.00408
6997.23549	0.00408
6995.30681	0.00408
6993.37813	0.00409
6991.44946	0.00411
6989.52078	0.00411
6987.59211	0.00411
6985.66343	0.00412
6983.73476	0.00414
6981.80608	0.00416
6979.87740	0.00418
6977.94873	0.00419
6976.02005	0.00420
6974.09138	0.00420
6972.16270	0.00420
6970.23403	0.00421
6968.30535	0.00423
6966.37667	0.00425
6964.44800	0.00425
6962.51932	0.00424
6960.59065	0.00423
6958.66197	0.00424
6956.73330	0.00427
6954.80462	0.00430
6952.87594	0.00433
6950.94727	0.00433
6949.01859	0.00434
6947.08992	0.00434
6945.16124	0.00435
6943.23257	0.00434
6941.30389	0.00434
6939.37521	0.00434
6937.44654	0.00435
6935.51786	0.00437
6933.58919	0.00439
6931.66051	0.00440
6929.73184	0.00441
6927.80316	0.00442
6925.87448	0.00442
6923.94581	0.00443
6922.01713	0.00444
6920.08846	0.00447
6918.15978	0.00449
6916.23111	0.00451
6914.30243	0.00452
6912.37375	0.00451
6910.44508	0.00451
6908.51640	0.00451
6906.58773	0.00450
6904.65905	0.00451
6902.73038	0.00454
6900.80170	0.00457
6898.87302	0.00457
6896.94435	0.00458
6895.01567	0.00458
6893.08700	0.00458
6891.15832	0.00458
6889.22965	0.00458
6887.30097	0.00461
6885.37229	0.00463
6883.44362	0.00464
6881.51494	0.00464
6879.58627	0.00465
6877.65759	0.00465
6875.72892	0.00467
6873.80024	0.00469
6871.87156	0.00470
6869.94289	0.00470
6868.01421	0.00471
6866.08554	0.00472
6864.15686	0.00473
6862.22819	0.00473
6860.29951	0.00474
6858.37083	0.00476
6856.44216	0.00478
6854.51348	0.00478
6852.58481	0.00478
6850.65613	0.00479
6848.72746	0.00480
6846.79878	0.00481
6844.87010	0.00482
6842.94143	0.00483
6841.01275	0.00483
6839.08408	0.00485
6837.15540	0.00487
6835.22673	0.00488
6833.29805	0.00487
6831.36937	0.00487
6829.44070	0.00488
6827.51202	0.00490
6825.58335	0.00493
6823.65467	0.00495
6821.72600	0.00496
6819.79732	0.00495
6817.86864	0.00495
6815.93997	0.00496
6814.01129	0.00497
6812.08262	0.00498
6810.15394	0.00499
6808.22527	0.00502
6806.29659	0.00503
6804.36791	0.00504
6802.43924	0.00505
6800.51056	0.00505
6798.58189	0.00508
6796.65321	0.00510
6794.72454	0.00511
6792.79586	0.00512
6790.86718	0.00512
6788.93851	0.00513
6787.00983	0.00513
6785.08116	0.00514
6783.15248	0.00518
6781.22381	0.00520
6779.29513	0.00520
6777.36645	0.00520
6775.43778	0.00523
6773.50910	0.00524
6771.58043	0.00523
6769.65175	0.00523
6767.72308	0.00524
6765.79440	0.00526
6763.86572	0.00528
6761.93705	0.00529
6760.00837	0.00530
6758.07970	0.00530
6756.15102	0.00531
6754.22235	0.00532
6752.29367	0.00534
6750.36499	0.00536
6748.43632	0.00537
6746.50764	0.00537
6744.57897	0.00539
6742.65029	0.00540
6740.72162	0.00542
6738.79294	0.00543
6736.86426	0.00543
6734.93559	0.00543
6733.00691	0.00543
6731.07824	0.00544
6729.14956	0.00546
6727.22089	0.00548
6725.29221	0.00550
6723.36353	0.00550
6721.43486	0.00551
6719.50618	0.00552
6717.57751	0.00553
6715.64883	0.00555
6713.72016	0.00556
6711.79148	0.00556
6709.86280	0.00556
6707.93413	0.00558
6706.00545	0.00560
6704.07678	0.00559
6702.14810	0.00559
6700.21943	0.00562
6698.29075	0.00565
6696.36207	0.00565
6694.43340	0.00565
6692.50472	0.00566
6690.57605	0.00569
6688.64737	0.00571
6686.71870	0.00572
6684.79002	0.00574
6682.86134	0.00577
6680.93267	0.00578
6679.00399	0.00578
6677.07532	0.00577
6675.14664	0.00578
6673.21797	0.00581
6671.28929	0.00582
6669.36061	0.00582
6667.43194	0.00582
6665.50326	0.00582
6663.57459	0.00584
6661.64591	0.00587
6659.71724	0.00591
6657.78856	0.00594
6655.85988	0.00596
6653.93121	0.00597
6652.00253	0.00597
6650.07386	0.00597
6648.14518	0.00599
6646.21651	0.00601
6644.28783	0.00602
6642.35915	0.00602
6640.43048	0.00603
6638.50180	0.00604
6636.57313	0.00605
6634.64445	0.00605
6632.71578	0.00607
6630.78710	0.00608
6628.85842	0.00608
6626.92975	0.00607
6625.00107	0.00607
6623.07240	0.00610
6621.14372	0.00613
6619.21505	0.00614
6617.28637	0.00615
6615.35769	0.00616
6613.42902	0.00618
6611.50034	0.00620
6609.57167	0.00622
6607.64299	0.00623
6605.71432	0.00624
6603.78564	0.00625
6601.85696	0.00625
6599.92829	0.00625
6597.99961	0.00627
6596.07094	0.00629
6594.14226	0.00630
6592.21359	0.00630
6590.28491	0.00631
6588.35623	0.00633
6586.42756	0.00635
6584.49888	0.00637
6582.57021	0.00638
6580.64153	0.00641
6578.71286	0.00642
6576.78418	0.00643
6574.85550	0.00643
6572.92683	0.00644
6570.99815	0.00645
6569.06948	0.00647
6567.14080	0.00650
6565.21213	0.00652
6563.28345	0.00655
6561.35477	0.00658
6559.42610	0.00658
6557.49742	0.00657
6555.56875	0.00657
6553.64007	0.00657
6551.71140	0.00658
6549.78272	0.00660
6547.85404	0.00662
6545.92537	0.00664
6543.99669	0.00666
6542.06802	0.00668
6540.13934	0.00669
6538.21067	0.00669
6536.28199	0.00670
6534.35331	0.00671
6532.42464	0.00672
6530.49596	0.00673
6528.56729	0.00676
6526.63861	0.00679
6524.70994	0.00681
6522.78126	0.00681
6520.85258	0.00682
6518.92391	0.00684
6516.99523	0.00686
6515.06656	0.00688
6513.13788	0.00689
6511.20921	0.00691
6509.28053	0.00693
6507.35185	0.00693
6505.42318	0.00692
6503.49450	0.00692
6501.56583	0.00695
6499.63715	0.00698
6497.70848	0.00700
6495.77980	0.00702
6493.85112	0.00705
6491.92245	0.00706
6489.99377	0.00706
6488.06510	0.00707
6486.13642	0.00709
6484.20775	0.00709
6482.27907	0.00710
6480.35039	0.00711
6478.42172	0.00713
6476.49304	0.00713
6474.56437	0.00714
6472.63569	0.00716
6470.70702	0.00718
6468.77834	0.00720
6466.84966	0.00723
6464.92099	0.00725
6462.99231	0.00726
6461.06364	0.00729
6459.13496	0.00731
6457.20629	0.00732
6455.27761	0.00733
6453.34893	0.00735
6451.42026	0.00737
6449.49158	0.00738
6447.56291	0.00739
6445.63423	0.00741
6443.70556	0.00743
6441.77688	0.00744
6439.84820	0.00745
6437.91953	0.00746
6435.99085	0.00748
6434.06218	0.00750
6432.13350	0.00752
6430.20483	0.00753
6428.27615	0.00755
6426.34747	0.00757
6424.41880	0.00759
6422.49012	0.00760
6420.56145	0.00761
6418.63277	0.00762
6416.70410	0.00763
6414.77542	0.00764
6412.84674	0.00765
6410.91807	0.00767
6408.98939	0.00770
6407.06072	0.00773
6405.13204	0.00775
6403.20337	0.00775
6401.27469	0.00775
6399.34601	0.00776
6397.41734	0.00778
6395.48866	0.00782
6393.55999	0.00784
6391.63131	0.00783
6389.70264	0.00784
6387.77396	0.00787
6385.84528	0.00790
6383.91661	0.00792
6381.98793	0.00792
6380.05926	0.00792
6378.13058	0.00794
6376.20191	0.00795
6374.27323	0.00796
6372.34455	0.00798
6370.41588	0.00800
6368.48720	0.00802
6366.55853	0.00806
6364.62985	0.00809
6362.70118	0.00810
6360.77250	0.00811
6358.84382	0.00813
6356.91515	0.00815
6354.98647	0.00816
6353.05780	0.00817
6351.12912	0.00819
6349.20045	0.00820
6347.27177	0.00822
6345.34309	0.00824
6343.41442	0.00825
6341.48574	0.00827
6339.55707	0.00830
6337.62839	0.00832
6335.69972	0.00832
6333.77104	0.00833
6331.84236	0.00837
6329.91369	0.00840
6327.98501	0.00841
6326.05634	0.00843
6324.12766	0.00845
6322.19899	0.00847
6320.27031	0.00849
6318.34163	0.00850
6316.41296	0.00849
6314.48428	0.00850
6312.55561	0.00853
6310.62693	0.00855
6308.69826	0.00854
6306.76958	0.00852
6304.84090	0.00853
6302.91223	0.00857
6300.98355	0.00861
6299.05488	0.00865
6297.12620	0.00866
6295.19753	0.00868
6293.26885	0.00870
6291.34017	0.00872
6289.41150	0.00873
6287.48282	0.00875
6285.55415	0.00877
6283.62547	0.00878
6281.69680	0.00878
6279.76812	0.00881
6277.83944	0.00885
6275.91077	0.00886
6273.98209	0.00885
6272.05342	0.00885
6270.12474	0.00888
6268.19607	0.00892
6266.26739	0.00894
6264.33871	0.00895
6262.41004	0.00897
6260.48136	0.00900
6258.55269	0.00903
6256.62401	0.00905
6254.69534	0.00908
6252.76666	0.00909
6250.83798	0.00910
6248.90931	0.00910
6246.98063	0.00913
6245.05196	0.00916
6243.12328	0.00918
6241.19461	0.00920
6239.26593	0.00923
6237.33725	0.00926
6235.40858	0.00929
6233.47990	0.00931
6231.55123	0.00931
6229.62255	0.00932
6227.69388	0.00933
6225.76520	0.00934
6223.83652	0.00936
6221.90785	0.00938
6219.97917	0.00940
6218.05050	0.00942
6216.12182	0.00946
6214.19315	0.00949
6212.26447	0.00952
6210.33579	0.00953
6208.40712	0.00954
6206.47844	0.00957
6204.54977	0.00959
6202.62109	0.00961
6200.69242	0.00963
6198.76374	0.00965
6196.83506	0.00966
6194.90639	0.00968
6192.97771	0.00971
6191.04904	0.00972
6189.12036	0.00972
6187.19169	0.00974
6185.26301	0.00976
6183.33433	0.00978
6181.40566	0.00981
6179.47698	0.00983
6177.54831	0.00985
6175.61963	0.00986
6173.69096	0.00987
6171.76228	0.00989
6169.83360	0.00991
6167.90493	0.00993
6165.97625	0.00996
6164.04758	0.00999
6162.11890	0.01002
6160.19023	0.01006
6158.26155	0.01009
6156.33287	0.01009
6154.40420	0.01008
6152.47552	0.01009
6150.54685	0.01011
6148.61817	0.01014
6146.68950	0.01018
6144.76082	0.01020
6142.83214	0.01022
6140.90347	0.01024
6138.97479	0.01027
6137.04612	0.01028
6135.11744	0.01029
6133.18877	0.01032
6131.26009	0.01035
6129.33141	0.01037
6127.40274	0.01038
6125.47406	0.01042
6123.54539	0.01045
6121.61671	0.01047
6119.68804	0.01049
6117.75936	0.01051
6115.83068	0.01053
6113.90201	0.01055
6111.97333	0.01058
6110.04466	0.01062
6108.11598	0.01065
6106.18731	0.01066
6104.25863	0.01068
6102.32995	0.01071
6100.40128	0.01073
6098.47260	0.01072
6096.54393	0.01073
6094.61525	0.01076
6092.68658	0.01080
6090.75790	0.01081
6088.82922	0.01083
6086.90055	0.01086
6084.97187	0.01089
6083.04320	0.01092
6081.11452	0.01094
6079.18585	0.01096
6077.25717	0.01097
6075.32849	0.01099
6073.39982	0.01102
6071.47114	0.01104
6069.54247	0.01106
6067.61379	0.01108
6065.68512	0.01110
6063.75644	0.01112
6061.82776	0.01114
6059.89909	0.01117
6057.97041	0.01120
6056.04174	0.01123
6054.11306	0.01127
6052.18439	0.01130
6050.25571	0.01131
6048.32703	0.01130
6046.39836	0.01132
6044.46968	0.01136
6042.54101	0.01141
6040.61233	0.01144
6038.68366	0.01146
6036.75498	0.01147
6034.82630	0.01149
6032.89763	0.01152
6030.96895	0.01155
6029.04028	0.01156
6027.11160	0.01156
6025.18293	0.01157
6023.25425	0.01161
6021.32557	0.01165
6019.39690	0.01168
6017.46822	0.01170
6015.53955	0.01173
6013.61087	0.01175
6011.68220	0.01176
6009.75352	0.01178
6007.82484	0.01182
6005.89617	0.01186
6003.96749	0.01188
6002.03882	0.01190
6000.11014	0.01191
5998.18147	0.01194
5996.25279	0.01197
5994.32411	0.01200
5992.39544	0.01202
5990.46676	0.01204
5988.53809	0.01206
5986.60941	0.01208
5984.68074	0.01211
5982.75206	0.01214
5980.82338	0.01216
5978.89471	0.01217
5976.96603	0.01219
5975.03736	0.01223
5973.10868	0.01226
5971.18001	0.01229
5969.25133	0.01232
5967.32265	0.01234
5965.39398	0.01236
5963.46530	0.01238
5961.53663	0.01240
5959.60795	0.01241
5957.67928	0.01242
5955.75060	0.01245
5953.82192	0.01250
5951.89325	0.01254
5949.96457	0.01258
5948.03590	0.01261
5946.10722	0.01262
5944.17855	0.01265
5942.24987	0.01268
5940.32119	0.01271
5938.39252	0.01274
5936.46384	0.01276
5934.53517	0.01277
5932.60649	0.01279
5930.67782	0.01280
5928.74914	0.01282
5926.82046	0.01286
5924.89179	0.01290
5922.96311	0.01293
5921.03444	0.01295
5919.10576	0.01298
5917.17709	0.01301
5915.24841	0.01304
5913.31973	0.01307
5911.39106	0.01309
5909.46238	0.01311
5907.53371	0.01314
5905.60503	0.01317
5903.67636	0.01320
5901.74768	0.01323
5899.81900	0.01326
5897.89033	0.01326
5895.96165	0.01328
5894.03298	0.01333
5892.10430	0.01338
5890.17563	0.01341
5888.24695	0.01344
5886.31827	0.01347
5884.38960	0.01349
5882.46092	0.01352
5880.53225	0.01354
5878.60357	0.01357
5876.67490	0.01359
5874.74622	0.01361
5872.81755	0.01364
5870.88887	0.01368
5868.96019	0.01371
5867.03152	0.01372
5865.10284	0.01373
5863.17417	0.01376
5861.24549	0.01378
5859.31682	0.01380
5857.38814	0.01384
5855.45946	0.01389
5853.53079	0.01394
5851.60211	0.01398
5849.67344	0.01401
5847.74476	0.01402
5845.81609	0.01403
5843.88741	0.01405
5841.95873	0.01406
5840.03006	0.01409
5838.10138	0.01412
5836.17271	0.01416
5834.24403	0.01420
5832.31536	0.01425
5830.38668	0.01429
5828.45800	0.01431
5826.52933	0.01431
5824.60065	0.01433
5822.67198	0.01438
5820.74330	0.01442
5818.81463	0.01444
5816.88595	0.01445
5814.95727	0.01447
5813.02860	0.01450
5811.09992	0.01454
5809.17125	0.01458
5807.24257	0.01460
5805.31390	0.01463
5803.38522	0.01467
5801.45654	0.01471
5799.52787	0.01474
5797.59919	0.01476
5795.67052	0.01479
5793.74184	0.01482
5791.81317	0.01486
5789.88449	0.01489
5787.95581	0.01491
5786.02714	0.01494
5784.09846	0.01497
5782.16979	0.01501
5780.24111	0.01503
5778.31244	0.01503
5776.38376	0.01505
5774.45508	0.01510
5772.52641	0.01516
5770.59773	0.01520
5768.66906	0.01523
5766.74038	0.01525
5764.81171	0.01527
5762.88303	0.01530
5760.95435	0.01534
5759.02568	0.01538
5757.09700	0.01541
5755.16833	0.01543
5753.23965	0.01545
5751.31098	0.01547
5749.38230	0.01550
5747.45362	0.01553
5745.52495	0.01557
5743.59627	0.01561
5741.66760	0.01564
5739.73892	0.01566
5737.81025	0.01570
5735.88157	0.01574
5733.95289	0.01576
5732.02422	0.01580
5730.09554	0.01583
5728.16687	0.01586
5726.23819	0.01590
5724.30952	0.01594
5722.38084	0.01597
5720.45216	0.01599
5718.52349	0.01603
5716.59481	0.01607
5714.66614	0.01609
5712.73746	0.01611
5710.80879	0.01613
5708.88011	0.01618
5706.95143	0.01621
5705.02276	0.01624
5703.09408	0.01626
5701.16541	0.01631
5699.23673	0.01635
5697.30806	0.01638
5695.37938	0.01642
5693.45070	0.01644
5691.52203	0.01646
5689.59335	0.01650
5687.66468	0.01656
5685.73600	0.01661
5683.80733	0.01664
5681.87865	0.01665
5679.94997	0.01667
5678.02130	0.01670
5676.09262	0.01674
5674.16395	0.01677
5672.23527	0.01681
5670.30660	0.01685
5668.37792	0.01687
5666.44924	0.01689
5664.52057	0.01693
5662.59189	0.01697
5660.66322	0.01700
5658.73454	0.01702
5656.80587	0.01705
5654.87719	0.01710
5652.94851	0.01715
5651.01984	0.01718
5649.09116	0.01721
5647.16249	0.01724
5645.23381	0.01726
5643.30514	0.01729
5641.37646	0.01732
5639.44778	0.01736
5637.51911	0.01741
5635.59043	0.01745
5633.66176	0.01749
5631.73308	0.01751
5629.80441	0.01753
5627.87573	0.01757
5625.94705	0.01762
5624.01838	0.01766
5622.08970	0.01768
5620.16103	0.01769
5618.23235	0.01772
5616.30368	0.01775
5614.37500	0.01779
5612.44632	0.01783
5610.51765	0.01788
5608.58897	0.01792
5606.66030	0.01797
5604.73162	0.01801
5602.80295	0.01805
5600.87427	0.01808
5598.94559	0.01811
5597.01692	0.01815
5595.08824	0.01817
5593.15957	0.01818
5591.23089	0.01821
5589.30222	0.01827
5587.37354	0.01832
5585.44486	0.01834
5583.51619	0.01835
5581.58751	0.01839
5579.65884	0.01842
5577.73016	0.01846
5575.80149	0.01852
5573.87281	0.01858
5571.94413	0.01863
5570.01546	0.01867
5568.08678	0.01869
5566.15811	0.01871
5564.22943	0.01874
5562.30076	0.01877
5560.37208	0.01879
5558.44340	0.01882
5556.51473	0.01886
5554.58605	0.01890
5552.65738	0.01893
5550.72870	0.01899
5548.80003	0.01905
5546.87135	0.01910
5544.94267	0.01912
5543.01400	0.01913
5541.08532	0.01915
5539.15665	0.01916
5537.22797	0.01919
5535.29930	0.01924
5533.37062	0.01930
5531.44194	0.01935
5529.51327	0.01938
5527.58459	0.01940
5525.65592	0.01944
5523.72724	0.01949
5521.79857	0.01953
5519.86989	0.01958
5517.94121	0.01962
5516.01254	0.01965
5514.08386	0.01969
5512.15519	0.01973
5510.22651	0.01976
5508.29784	0.01979
5506.36916	0.01983
5504.44048	0.01988
5502.51181	0.01990
5500.58313	0.01992
5498.65446	0.01996
5496.72578	0.02002
5494.79711	0.02007
5492.86843	0.02011
5490.93975	0.02014
5489.01108	0.02018
5487.08240	0.02021
5485.15373	0.02024
5483.22505	0.02027
5481.29638	0.02031
5479.36770	0.02036
5477.43902	0.02039
5475.51035	0.02041
5473.58167	0.02044
5471.65300	0.02047
5469.72432	0.02050
5467.79565	0.02054
5465.86697	0.02058
5463.93829	0.02061
5462.00962	0.02065
5460.08094	0.02070
5458.15227	0.02075
5456.22359	0.02080
5454.29492	0.02085
5452.36624	0.02089
5450.43756	0.02093
5448.50889	0.02097
5446.58021	0.02100
5444.65154	0.02103
5442.72286	0.02107
5440.79419	0.02111
5438.86551	0.02116
5436.93683	0.02120
5435.00816	0.02122
5433.07948	0.02124
5431.15081	0.02126
5429.22213	0.02130
5427.29346	0.02138
5425.36478	0.02145
5423.43610	0.02149
5421.50743	0.02150
5419.57875	0.02153
5417.65008	0.02156
5415.72140	0.02160
5413.79273	0.02163
5411.86405	0.02168
5409.93537	0.02173
5408.00670	0.02178
5406.07802	0.02184
5404.14935	0.02188
5402.22067	0.02190
5400.29200	0.02193
5398.36332	0.02198
5396.43464	0.02204
5394.50597	0.02208
5392.57729	0.02213
5390.64862	0.02217
5388.71994	0.02221
5386.79127	0.02223
5384.86259	0.02228
5382.93391	0.02233
5381.00524	0.02236
5379.07656	0.02238
5377.14789	0.02241
5375.21921	0.02245
5373.29054	0.02249
5371.36186	0.02254
5369.43318	0.02260
5367.50451	0.02265
5365.57583	0.02268
5363.64716	0.02271
5361.71848	0.02277
5359.78981	0.02284
5357.86113	0.02289
5355.93245	0.02291
5354.00378	0.02292
5352.07510	0.02294
5350.14643	0.02299
5348.21775	0.02304
5346.28908	0.02307
5344.36040	0.02310
5342.43172	0.02317
5340.50305	0.02322
5338.57437	0.02324
5336.64570	0.02328
5334.71702	0.02334
5332.78835	0.02339
5330.85967	0.02343
5328.93099	0.02347
5327.00232	0.02352
5325.07364	0.02357
5323.14497	0.02361
5321.21629	0.02365
5319.28762	0.02369
5317.35894	0.02373
5315.43026	0.02376
5313.50159	0.02379
5311.57291	0.02383
5309.64424	0.02388
5307.71556	0.02394
5305.78689	0.02401
5303.85821	0.02407
5301.92953	0.02410
5300.00086	0.02412
5298.07218	0.02415
5296.14351	0.02418
5294.21483	0.02421
5292.28616	0.02424
5290.35748	0.02429
5288.42880	0.02437
5286.50013	0.02442
5284.57145	0.02446
5282.64278	0.02450
5280.71410	0.02454
5278.78543	0.02460
5276.85675	0.02466
5274.92807	0.02469
5272.99940	0.02472
5271.07072	0.02476
5269.14205	0.02480
5267.21337	0.02484
5265.28470	0.02486
5263.35602	0.02488
5261.42734	0.02494
5259.49867	0.02501
5257.56999	0.02507
5255.64132	0.02510
5253.71264	0.02511
5251.78397	0.02515
5249.85529	0.02518
5247.92661	0.02520
5245.99794	0.02524
5244.06926	0.02532
5242.14059	0.02540
5240.21191	0.02546
5238.28324	0.02549
5236.35456	0.02552
5234.42588	0.02558
5232.49721	0.02564
5230.56853	0.02569
5228.63986	0.02574
5226.71118	0.02576
5224.78251	0.02578
5222.85383	0.02582
5220.92515	0.02587
5218.99648	0.02592
5217.06780	0.02598
5215.13913	0.02604
5213.21045	0.02606
5211.28178	0.02608
5209.35310	0.02610
5207.42442	0.02615
5205.49575	0.02621
5203.56707	0.02628
5201.63840	0.02632
5199.70972	0.02636
5197.78105	0.02641
5195.85237	0.02645
5193.92369	0.02650
5191.99502	0.02655
5190.06634	0.02660
5188.13767	0.02665
5186.20899	0.02669
5184.28032	0.02672
5182.35164	0.02678
5180.42296	0.02684
5178.49429	0.02689
5176.56561	0.02693
5174.63694	0.02699
5172.70826	0.02704
5170.77959	0.02709
5168.85091	0.02714
5166.92223	0.02718
5164.99356	0.02722
5163.06488	0.02726
5161.13621	0.02729
5159.20753	0.02732
5157.27886	0.02736
5155.35018	0.02741
5153.42150	0.02747
5151.49283	0.02751
5149.56415	0.02757
5147.63548	0.02763
5145.70680	0.02768
5143.77813	0.02771
5141.84945	0.02775
5139.92077	0.02781
5137.99210	0.02786
5136.06342	0.02790
5134.13475	0.02792
5132.20607	0.02796
5130.27740	0.02801
5128.34872	0.02807
5126.42004	0.02812
5124.49137	0.02817
5122.56269	0.02822
5120.63402	0.02827
5118.70534	0.02832
5116.77667	0.02838
5114.84799	0.02843
5112.91931	0.02846
5110.99064	0.02848
5109.06196	0.02852
5107.13329	0.02858
5105.20461	0.02864
5103.27594	0.02869
5101.34726	0.02875
5099.41858	0.02881
5097.48991	0.02886
5095.56123	0.02889
5093.63256	0.02892
5091.70388	0.02897
5089.77521	0.02904
5087.84653	0.02911
5085.91785	0.02916
5083.98918	0.02920
5082.06050	0.02924
5080.13183	0.02926
5078.20315	0.02930
5076.27448	0.02936
5074.34580	0.02941
5072.41712	0.02945
5070.48845	0.02948
5068.55977	0.02954
5066.63110	0.02961
5064.70242	0.02964
5062.77375	0.02966
5060.84507	0.02969
5058.91639	0.02975
5056.98772	0.02981
5055.05904	0.02987
5053.13037	0.02992
5051.20169	0.02997
5049.27302	0.03002
5047.34434	0.03007
5045.41566	0.03011
5043.48699	0.03015
5041.55831	0.03020
5039.62964	0.03027
5037.70096	0.03033
5035.77229	0.03036
5033.84361	0.03039
5031.91493	0.03045
5029.98626	0.03052
5028.05758	0.03059
5026.12891	0.03063
5024.20023	0.03068
5022.27156	0.03074
5020.34288	0.03080
5018.41420	0.03084
5016.48553	0.03088
5014.55685	0.03095
5012.62818	0.03101
5010.69950	0.03105
5008.77083	0.03108
5006.84215	0.03111
5004.91347	0.03115
5002.98480	0.03121
5001.05612	0.03128
4999.12745	0.03135
4997.19877	0.03139
4995.27010	0.03142
4993.34142	0.03146
4991.41274	0.03152
4989.48407	0.03158
4987.55539	0.03165
4985.62672	0.03172
4983.69804	0.03177
4981.76937	0.03182
4979.84069	0.03187
4977.91201	0.03191
4975.98334	0.03194
4974.05466	0.03198
4972.12599	0.03204
4970.19731	0.03210
4968.26864	0.03215
4966.33996	0.03221
4964.41128	0.03226
4962.48261	0.03230
4960.55393	0.03234
4958.62526	0.03238
4956.69658	0.03244
4954.76791	0.03251
4952.83923	0.03256
4950.91055	0.03259
4948.98188	0.03263
4947.05320	0.03270
4945.12453	0.03277
4943.19585	0.03284
4941.26718	0.03290
4939.33850	0.03296
4937.40982	0.03302
4935.48115	0.03307
4933.55247	0.03311
4931.62380	0.03315
4929.69512	0.03319
4927.76645	0.03324
4925.83777	0.03329
4923.90909	0.03334
4921.98042	0.03340
4920.05174	0.03344
4918.12307	0.03348
4916.19439	0.03353
4914.26572	0.03358
4912.33704	0.03364
4910.40836	0.03371
4908.47969	0.03377
4906.55101	0.03382
4904.62234	0.03388
4902.69366	0.03394
4900.76499	0.03399
4898.83631	0.03403
4896.90763	0.03407
4894.97896	0.03411
4893.05028	0.03417
4891.12161	0.03424
4889.19293	0.03429
4887.26426	0.03432
4885.33558	0.03435
4883.40690	0.03442
4881.47823	0.03449
4879.54955	0.03455
4877.62088	0.03461
4875.69220	0.03467
4873.76353	0.03472
4871.83485	0.03475
4869.90617	0.03479
4867.97750	0.03485
4866.04882	0.03492
4864.12015	0.03499
4862.19147	0.03507
4860.26280	0.03514
4858.33412	0.03520
4856.40544	0.03524
4854.47677	0.03528
4852.54809	0.03531
4850.61942	0.03536
4848.69074	0.03543
4846.76207	0.03550
4844.83339	0.03556
4842.90471	0.03562
4840.97604	0.03566
4839.04736	0.03569
4837.11869	0.03573
4835.19001	0.03582
4833.26134	0.03590
4831.33266	0.03595
4829.40398	0.03601
4827.47531	0.03606
4825.54663	0.03612
4823.61796	0.03617
4821.68928	0.03624
4819.76061	0.03630
4817.83193	0.03635
4815.90325	0.03639
4813.97458	0.03645
4812.04590	0.03651
4810.11723	0.03659
4808.18855	0.03666
4806.25988	0.03673
4804.33120	0.03676
4802.40252	0.03678
4800.47385	0.03682
4798.54517	0.03690
4796.61650	0.03699
4794.68782	0.03707
4792.75915	0.03713
4790.83047	0.03718
4788.90179	0.03722
4786.97312	0.03727
4785.04444	0.03732
4783.11577	0.03739
4781.18709	0.03745
4779.25842	0.03753
4777.32974	0.03760
4775.40106	0.03764
4773.47239	0.03767
4771.54371	0.03771
4769.61504	0.03778
4767.68636	0.03786
4765.75769	0.03794
4763.82901	0.03798
4761.90033	0.03801
4759.97166	0.03807
4758.04298	0.03816
4756.11431	0.03823
4754.18563	0.03829
4752.25696	0.03833
4750.32828	0.03841
4748.39960	0.03850
4746.47093	0.03856
4744.54225	0.03859
4742.61358	0.03865
4740.68490	0.03872
4738.75623	0.03878
4736.82755	0.03884
4734.89887	0.03890
4732.97020	0.03899
4731.04152	0.03905
4729.11285	0.03908
4727.18417	0.03912
4725.25550	0.03918
4723.32682	0.03925
4721.39814	0.03932
4719.46947	0.03939
4717.54079	0.03946
4715.61212	0.03954
4713.68344	0.03963
4711.75477	0.03969
4709.82609	0.03973
4707.89741	0.03978
4705.96874	0.03983
4704.04006	0.03991
4702.11139	0.03998
4700.18271	0.04005
4698.25404	0.04010
4696.32536	0.04015
4694.39668	0.04021
4692.46801	0.04027
4690.53933	0.04033
4688.61066	0.04038
4686.68198	0.04044
4684.75331	0.04050
4682.82463	0.04056
4680.89595	0.04062
4678.96728	0.04069
4677.03860	0.04076
4675.10993	0.04084
4673.18125	0.04092
4671.25258	0.04099
4669.32390	0.04106
4667.39522	0.04111
4665.46655	0.04116
4663.53787	0.04122
4661.60920	0.04131
4659.68052	0.04140
4657.75185	0.04147
4655.82317	0.04152
4653.89449	0.04156
4651.96582	0.04161
4650.03714	0.04167
4648.10847	0.04175
4646.17979	0.04182
4644.25112	0.04189
4642.32244	0.04196
4640.39376	0.04204
4638.46509	0.04212
4636.53641	0.04219
4634.60774	0.04225
4632.67906	0.04231
4630.75039	0.04237
4628.82171	0.04244
4626.89303	0.04250
4624.96436	0.04255
4623.03568	0.04262
4621.10701	0.04271
4619.17833	0.04278
4617.24966	0.04285
4615.32098	0.04292
4613.39230	0.04300
4611.46363	0.04306
4609.53495	0.04312
4607.60628	0.04321
4605.67760	0.04331
4603.74893	0.04340
4601.82025	0.04346
4599.89157	0.04350
4597.96290	0.04355
4596.03422	0.04361
4594.10555	0.04368
4592.17687	0.04375
4590.24820	0.04382
4588.31952	0.04390
4586.39084	0.04398
4584.46217	0.04406
4582.53349	0.04413
4580.60482	0.04419
4578.67614	0.04427
4576.74747	0.04436
4574.81879	0.04444
4572.89011	0.04452
4570.96144	0.04459
4569.03276	0.04466
4567.10409	0.04473
4565.17541	0.04480
4563.24674	0.04487
4561.31806	0.04495
4559.38938	0.04502
4557.46071	0.04509
4555.53203	0.04516
4553.60336	0.04524
4551.67468	0.04531
4549.74601	0.04538
4547.81733	0.04544
4545.88865	0.04551
4543.95998	0.04560
4542.03130	0.04567
4540.10263	0.04573
4538.17395	0.04581
4536.24528	0.04590
4534.31660	0.04597
4532.38792	0.04604
4530.45925	0.04611
4528.53057	0.04620
4526.60190	0.04630
4524.67322	0.04639
4522.74455	0.04646
4520.81587	0.04652
4518.88719	0.04661
4516.95852	0.04669
4515.02984	0.04674
4513.10117	0.04682
4511.17249	0.04692
4509.24382	0.04700
4507.31514	0.04708
4505.38646	0.04714
4503.45779	0.04721
4501.52911	0.04728
4499.60044	0.04736
4497.67176	0.04746
4495.74309	0.04754
4493.81441	0.04761
4491.88573	0.04769
4489.95706	0.04778
4488.02838	0.04786
4486.09971	0.04793
4484.17103	0.04799
4482.24236	0.04806
4480.31368	0.04814
4478.38500	0.04821
4476.45633	0.04828
4474.52765	0.04836
4472.59898	0.04844
4470.67030	0.04853
4468.74163	0.04861
4466.81295	0.04870
4464.88427	0.04881
4462.95560	0.04893
4461.02692	0.04902
4459.09825	0.04910
4457.16957	0.04917
4455.24090	0.04926
4453.31222	0.04934
4451.38354	0.04941
4449.45487	0.04949
4447.52619	0.04957
4445.59752	0.04965
4443.66884	0.04973
4441.74017	0.04983
4439.81149	0.04991
4437.88281	0.04997
4435.95414	0.05003
4434.02546	0.05010
4432.09679	0.05019
4430.16811	0.05029
4428.23944	0.05038
4426.31076	0.05048
4424.38208	0.05061
4422.45341	0.05072
4420.52473	0.05078
4418.59606	0.05083
4416.66738	0.05089
4414.73871	0.05098
4412.81003	0.05107
4410.88135	0.05116
4408.95268	0.05126
4407.02400	0.05137
4405.09533	0.05148
4403.16665	0.05157
4401.23798	0.05166
4399.30930	0.05175
4397.38062	0.05185
4395.45195	0.05194
4393.52327	0.05203
4391.59460	0.05208
4389.66592	0.05215
4387.73725	0.05226
4385.80857	0.05237
4383.87989	0.05247
4381.95122	0.05258
4380.02254	0.05267
4378.09387	0.05276
4376.16519	0.05285
4374.23652	0.05294
4372.30784	0.05302
4370.37916	0.05312
4368.45049	0.05322
4366.52181	0.05331
4364.59314	0.05340
4362.66446	0.05351
4360.73579	0.05361
4358.80711	0.05369
4356.87843	0.05377
4354.94976	0.05387
4353.02108	0.05396
4351.09241	0.05405
4349.16373	0.05413
4347.23506	0.05423
4345.30638	0.05433
4343.37770	0.05442
4341.44903	0.05451
4339.52035	0.05460
4337.59168	0.05470
4335.66300	0.05481
4333.73433	0.05493
4331.80565	0.05504
4329.87697	0.05512
4327.94830	0.05521
4326.01962	0.05531
4324.09095	0.05542
4322.16227	0.05551
4320.23360	0.05561
4318.30492	0.05571
4316.37624	0.05581
4314.44757	0.05592
4312.51889	0.05604
4310.59022	0.05615
4308.66154	0.05623
4306.73287	0.05630
4304.80419	0.05639
4302.87551	0.05650
4300.94684	0.05662
4299.01816	0.05674
4297.08949	0.05685
4295.16081	0.05695
4293.23214	0.05705
4291.30346	0.05714
4289.37478	0.05721
4287.44611	0.05731
4285.51743	0.05744
4283.58876	0.05756
4281.66008	0.05765
4279.73141	0.05775
4277.80273	0.05787
4275.87405	0.05797
4273.94538	0.05807
4272.01670	0.05817
4270.08803	0.05827
4268.15935	0.05837
4266.23068	0.05845
4264.30200	0.05857
4262.37332	0.05871
4260.44465	0.05883
4258.51597	0.05893
4256.58730	0.05903
4254.65862	0.05916
4252.72995	0.05929
4250.80127	0.05938
4248.87259	0.05945
4246.94392	0.05953
4245.01524	0.05965
4243.08657	0.05977
4241.15789	0.05986
4239.22922	0.05994
4237.30054	0.06006
4235.37186	0.06018
4233.44319	0.06030
4231.51451	0.06043
4229.58584	0.06055
4227.65716	0.06064
4225.72849	0.06072
4223.79981	0.06082
4221.87113	0.06094
4219.94246	0.06107
4218.01378	0.06119
4216.08511	0.06130
4214.15643	0.06141
4212.22776	0.06152
4210.29908	0.06162
4208.37040	0.06172
4206.44173	0.06183
4204.51305	0.06197
4202.58438	0.06209
4200.65570	0.06221
4198.72703	0.06232
4196.79835	0.06244
4194.86968	0.06255
4192.94100	0.06264
4191.01232	0.06276
4189.08365	0.06291
4187.15497	0.06305
4185.22630	0.06317
4183.29762	0.06326
4181.36895	0.06337
4179.44027	0.06350
4177.51159	0.06362
4175.58292	0.06375
4173.65424	0.06386
4171.72557	0.06396
4169.79689	0.06406
4167.86822	0.06417
4165.93954	0.06429
4164.01086	0.06442
4162.08219	0.06455
4160.15351	0.06467
4158.22484	0.06478
4156.29616	0.06488
4154.36749	0.06501
4152.43881	0.06513
4150.51013	0.06525
4148.58146	0.06537
4146.65278	0.06551
4144.72411	0.06564
4142.79543	0.06577
4140.86676	0.06590
4138.93808	0.06604
4137.00940	0.06615
4135.08073	0.06626
4133.15205	0.06636
4131.22338	0.06649
4129.29470	0.06662
4127.36603	0.06673
4125.43735	0.06684
4123.50867	0.06697
4121.58000	0.06710
4119.65132	0.06722
4117.72265	0.06734
4115.79397	0.06747
4113.86530	0.06762
4111.93662	0.06776
4110.00794	0.06788
4108.07927	0.06798
4106.15059	0.06809
4104.22192	0.06823
4102.29324	0.06838
4100.36457	0.06853
4098.43589	0.06868
4096.50721	0.06881
4094.57854	0.06894
4092.64986	0.06907
4090.72119	0.06918
4088.79251	0.06928
4086.86384	0.06940
4084.93516	0.06952
4083.00648	0.06964
4081.07781	0.06975
4079.14913	0.06987
4077.22046	0.07002
4075.29178	0.07016
4073.36311	0.07029
4071.43443	0.07043
4069.50575	0.07059
4067.57708	0.07073
4065.64840	0.07085
4063.71973	0.07097
4061.79105	0.07109
4059.86238	0.07122
4057.93370	0.07138
4056.00502	0.07154
4054.07635	0.07169
4052.14767	0.07183
4050.21900	0.07197
4048.29032	0.07209
4046.36165	0.07222
4044.43297	0.07236
4042.50429	0.07249
4040.57562	0.07261
4038.64694	0.07273
4036.71827	0.07287
4034.78959	0.07301
4032.86092	0.07314
4030.93224	0.07327
4029.00356	0.07340
4027.07489	0.07351
4025.14621	0.07364
4023.21754	0.07378
4021.28886	0.07392
4019.36019	0.07407
4017.43151	0.07422
4015.50283	0.07437
4013.57416	0.07450
4011.64548	0.07467
4009.71681	0.07484
4007.78813	0.07499
4005.85946	0.07512
4003.93078	0.07525
4002.00210	0.07536
4000.07343	0.07548
3998.14475	0.07561
3996.21608	0.07574
3994.28740	0.07586
3992.35873	0.07599
3990.43005	0.07615
3988.50137	0.07632
3986.57270	0.07647
3984.64402	0.07660
3982.71535	0.07674
3980.78667	0.07689
3978.85800	0.07704
3976.92932	0.07718
3975.00064	0.07732
3973.07197	0.07745
3971.14329	0.07760
3969.21462	0.07777
3967.28594	0.07793
3965.35727	0.07808
3963.42859	0.07822
3961.49991	0.07837
3959.57124	0.07853
3957.64256	0.07867
3955.71389	0.07881
3953.78521	0.07893
3951.85654	0.07902
3949.92786	0.07911
3947.99918	0.07923
3946.07051	0.07938
3944.14183	0.07951
3942.21316	0.07969
3940.28448	0.07993
3938.35581	0.08014
3936.42713	0.08027
3934.49845	0.08030
3932.56978	0.08036
3930.64110	0.08054
3928.71243	0.08075
3926.78375	0.08090
3924.85508	0.08102
3922.92640	0.08116
3920.99772	0.08128
3919.06905	0.08136
3917.14037	0.08154
3915.21170	0.08181
3913.28302	0.08208
3911.35435	0.08227
3909.42567	0.08238
3907.49699	0.08235
3905.56832	0.08224
3903.63964	0.08223
3901.71097	0.08238
3899.78229	0.08263
3897.85362	0.08299
3895.92494	0.08332
3893.99626	0.08345
3892.06759	0.08350
3890.13891	0.08366
3888.21024	0.08376
3886.28156	0.08378
3884.35289	0.08392
3882.42421	0.08411
3880.49553	0.08428
3878.56686	0.08458
3876.63818	0.08485
3874.70951	0.08492
3872.78083	0.08493
3870.85216	0.08494
3868.92348	0.08509
3866.99480	0.08532
3865.06613	0.08550
3863.13745	0.08572
3861.20878	0.08604
3859.28010	0.08627
3857.35143	0.08615
3855.42275	0.08575
3853.49407	0.08568
3851.56540	0.08627
3849.63672	0.08698
3847.70805	0.08736
3845.77937	0.08745
3843.85070	0.08745
3841.92202	0.08745
3839.99334	0.08747
3838.06467	0.08757
3836.13599	0.08781
3834.20732	0.08810
3832.27864	0.08836
3830.34997	0.08861
3828.42129	0.08882
3826.49261	0.08897
3824.56394	0.08904
3822.63526	0.08898
3820.70659	0.08905
3818.77791	0.08934
3816.84924	0.08960
3814.92056	0.08989
3812.99188	0.09028
3811.06321	0.09051
3809.13453	0.09050
3807.20586	0.09051
3805.27718	0.09065
3803.34851	0.09074
3801.41983	0.09083
3799.49115	0.09112
3797.56248	0.09143
3795.63380	0.09169
3793.70513	0.09199
3791.77645	0.09223
3789.84778	0.09238
3787.91910	0.09250
3785.99042	0.09261
3784.06175	0.09274
3782.13307	0.09288
3780.20440	0.09299
3778.27572	0.09322
3776.34705	0.09355
3774.41837	0.09378
3772.48969	0.09382
3770.56102	0.09381
3768.63234	0.09393
3766.70367	0.09415
3764.77499	0.09440
3762.84632	0.09462
3760.91764	0.09471
3758.98896	0.09479
3757.06029	0.09497
3755.13161	0.09502
3753.20294	0.09484
3751.27426	0.09471
3749.34559	0.09488
3747.41691	0.09502
3745.48823	0.09493
3743.55956	0.09521
3741.63088	0.09591
3739.70221	0.09626
3737.77353	0.09611
3735.84486	0.09600
3733.91618	0.09628
3731.98750	0.09681
3730.05883	0.09728
3728.13015	0.09751
3726.20148	0.09759
3724.27280	0.09774
3722.34413	0.09798
3720.41545	0.09824
3718.48677	0.09852
3716.55810	0.09870
3714.62942	0.09870
3712.70075	0.09860
3710.77207	0.09871
3708.84340	0.09911
3706.91472	0.09953
3704.98604	0.09975
3703.05737	0.09981
3701.12869	0.10000
3699.20002	0.10034
3697.27134	0.10060
3695.34267	0.10069
3693.41399	0.10063
3691.48531	0.10051
3689.55664	0.10056
3687.62796	0.10092
3685.69929	0.10140
3683.77061	0.10172
3681.84194	0.10184
3679.91326	0.10182
3677.98458	0.10167
3676.05591	0.10156
3674.12723	0.10178
3672.19856	0.10210
3670.26988	0.10230
3668.34121	0.10266
3666.41253	0.10313
3664.48385	0.10347
3662.55518	0.10367
3660.62650	0.10378
3658.69783	0.10377
3656.76915	0.10376
3654.84048	0.10386
3652.91180	0.10379
3650.98312	0.10340
3649.05445	0.10319
3647.12577	0.10351
3645.19710	0.10416
3643.26842	0.10473
3641.33975	0.10511
3639.41107	0.10536
3637.48239	0.10552
3635.55372	0.10562
3633.62504	0.10561
3631.69637	0.10540
3629.76769	0.10519
3627.83902	0.10546
3625.91034	0.10606
3623.98166	0.10642
3622.05299	0.10639
3620.12431	0.10625
3618.19564	0.10629
3616.26696	0.10649
3614.33829	0.10665
3612.40961	0.10675
3610.48093	0.10681
3608.55226	0.10694
3606.62358	0.10725
3604.69491	0.10758
3602.76623	0.10776
3600.83756	0.10787
3598.90888	0.10799
3596.98020	0.10808
3595.05153	0.10818
3593.12285	0.10835
3591.19418	0.10841
3589.26550	0.10829
3587.33683	0.10833
3585.40815	0.10869
3583.47947	0.10908
3581.55080	0.10932
3579.62212	0.10949
3577.69345	0.10965
3575.76477	0.10980
3573.83610	0.10995
3571.90742	0.11002
3569.97874	0.10990
3568.05007	0.10972
3566.12139	0.10986
3564.19272	0.11026
3562.26404	0.11061
3560.33537	0.11084
3558.40669	0.11102
3556.47801	0.11117
3554.54934	0.11126
3552.62066	0.11132
3550.69199	0.11140
3548.76331	0.11148
3546.83464	0.11157
3544.90596	0.11173
3542.97728	0.11197
3541.04861	0.11218
3539.11993	0.11229
3537.19126	0.11238
3535.26258	0.11251
3533.33391	0.11263
3531.40523	0.11266
3529.47655	0.11265
3527.54788	0.11270
3525.61920	0.11279
3523.69053	0.11292
3521.76185	0.11305
3519.83318	0.11316
3517.90450	0.11326
3515.97582	0.11334
3514.04715	0.11341
3512.11847	0.11345
3510.18980	0.11348
3508.26112	0.11356
3506.33245	0.11362
3504.40377	0.11363
3502.47509	0.11368
3500.54642	0.11378
3498.61774	0.11388
3496.68907	0.11395
3494.76039	0.11401
3492.83172	0.11407
3490.90304	0.11412
3488.97436	0.11415
3487.04569	0.11418
3485.11701	0.11422
3483.18834	0.11428
3481.25966	0.11438
3479.33099	0.11453
3477.40231	0.11469
3475.47363	0.11480
3473.54496	0.11490
3471.61628	0.11503
3469.68761	0.11518
3467.75893	0.11538
3465.83026	0.11558
3463.90158	0.11577
3461.97290	0.11596
3460.04423	0.11616
3458.11555	0.11636
3456.18688	0.11655
3454.25820	0.11672
3452.32953	0.11689
3450.40085	0.11703
3448.47217	0.11714
3446.54350	0.11730
3444.61482	0.11754
3442.68615	0.11778
3440.75747	0.11802
3438.82880	0.11831
3436.90012	0.11862
3434.97144	0.11895
3433.04277	0.11929
3431.11409	0.11964
3429.18542	0.12002
3427.25674	0.12042
3425.32807	0.12080
3423.39939	0.12114
3421.47071	0.12148
3419.54204	0.12185
3417.61336	0.12220
3415.68469	0.12250
3413.75601	0.12276
3411.82734	0.12301
3409.89866	0.12325
3407.96998	0.12349
3406.04131	0.12374
3404.11263	0.12402
3402.18396	0.12430
3400.25528	0.12457
3398.32661	0.12480
3396.39793	0.12503
3394.46925	0.12529
3392.54058	0.12556
3390.61190	0.12583
3388.68323	0.12613
3386.75455	0.12641
3384.82588	0.12664
3382.89720	0.12684
3380.96852	0.12706
3379.03985	0.12729
3377.11117	0.12752
3375.18250	0.12776
3373.25382	0.12802
3371.32515	0.12828
3369.39647	0.12852
3367.46779	0.12873
3365.53912	0.12893
3363.61044	0.12915
3361.68177	0.12938
3359.75309	0.12963
3357.82442	0.12991
3355.89574	0.13018
3353.96706	0.13041
3352.03839	0.13062
3350.10971	0.13086
3348.18104	0.13111
3346.25236	0.13135
3344.32369	0.13157
3342.39501	0.13178
3340.46633	0.13200
3338.53766	0.13225
3336.60898	0.13249
3334.68031	0.13270
3332.75163	0.13293
3330.82296	0.13318
3328.89428	0.13342
3326.96560	0.13366
3325.03693	0.13389
3323.10825	0.13411
3321.17958	0.13435
3319.25090	0.13459
3317.32223	0.13483
3315.39355	0.13506
3313.46487	0.13527
3311.53620	0.13549
3309.60752	0.13573
3307.67885	0.13598
3305.75017	0.13625
3303.82150	0.13654
3301.89282	0.13680
3299.96414	0.13704
3298.03547	0.13730
3296.10679	0.13757
3294.17812	0.13783
3292.24944	0.13806
3290.32077	0.13829
3288.39209	0.13853
3286.46341	0.13880
3284.53474	0.13906
3282.60606	0.13930
3280.67739	0.13954
3278.74871	0.13980
3276.82004	0.14006
3274.89136	0.14029
3272.96268	0.14054
3271.03401	0.14079
3269.10533	0.14105
3267.17666	0.14131
3265.24798	0.14157
3263.31931	0.14181
3261.39063	0.14205
3259.46195	0.14232
3257.53328	0.14260
3255.60460	0.14285
3253.67593	0.14309
3251.74725	0.14333
3249.81858	0.14356
3247.88990	0.14381
3245.96122	0.14409
3244.03255	0.14436
3242.10387	0.14463
3240.17520	0.14492
3238.24652	0.14519
3236.31785	0.14544
3234.38917	0.14568
3232.46049	0.14592
3230.53182	0.14616
3228.60314	0.14642
3226.67447	0.14668
3224.74579	0.14692
3222.81712	0.14718
3220.88844	0.14743
3218.95976	0.14767
3217.03109	0.14790
3215.10241	0.14815
3213.17374	0.14841
3211.24506	0.14865
3209.31639	0.14887
3207.38771	0.14915
3205.45903	0.14945
3203.53036	0.14972
3201.60168	0.14997
3199.67301	0.15026
3197.74433	0.15055
3195.81566	0.15080
3193.88698	0.15105
3191.95830	0.15132
3190.02963	0.15161
3188.10095	0.15189
3186.17228	0.15217
3184.24360	0.15244
3182.31493	0.15272
3180.38625	0.15299
3178.45757	0.15324
3176.52890	0.15352
3174.60022	0.15382
3172.67155	0.15411
3170.74287	0.15436
3168.81420	0.15458
3166.88552	0.15484
3164.95684	0.15513
3163.02817	0.15544
3161.09949	0.15570
3159.17082	0.15594
3157.24214	0.15618
3155.31347	0.15646
3153.38479	0.15675
3151.45611	0.15703
3149.52744	0.15728
3147.59876	0.15752
3145.67009	0.15776
3143.74141	0.15803
3141.81274	0.15832
3139.88406	0.15861
3137.95538	0.15886
3136.02671	0.15909
3134.09803	0.15932
3132.16936	0.15958
3130.24068	0.15989
3128.31201	0.16019
3126.38333	0.16045
3124.45465	0.16068
3122.52598	0.16090
3120.59730	0.16115
3118.66863	0.16142
3116.73995	0.16169
3114.81128	0.16198
3112.88260	0.16225
3110.95392	0.16252
3109.02525	0.16279
3107.09657	0.16307
3105.16790	0.16332
3103.23922	0.16359
3101.31055	0.16387
3099.38187	0.16412
3097.45319	0.16436
3095.52452	0.16462
3093.59584	0.16490
3091.66717	0.16519
3089.73849	0.16545
3087.80982	0.16570
3085.88114	0.16597
3083.95246	0.16624
3082.02379	0.16648
3080.09511	0.16672
3078.16644	0.16699
3076.23776	0.16726
3074.30909	0.16752
3072.38041	0.16776
3070.45173	0.16800
3068.52306	0.16827
3066.59438	0.16856
3064.66571	0.16882
3062.73703	0.16906
3060.80836	0.16934
3058.87968	0.16963
3056.95100	0.16990
3055.02233	0.17017
3053.09365	0.17043
3051.16498	0.17071
3049.23630	0.17100
3047.30763	0.17127
3045.37895	0.17151
3043.45027	0.17172
3041.52160	0.17195
3039.59292	0.17221
3037.66425	0.17250
3035.73557	0.17278
3033.80690	0.17302
3031.87822	0.17324
3029.94954	0.17350
3028.02087	0.17379
3026.09219	0.17408
3024.16352	0.17436
3022.23484	0.17464
3020.30617	0.17490
3018.37749	0.17514
3016.44881	0.17537
3014.52014	0.17562
3012.59146	0.17586
3010.66279	0.17610
3008.73411	0.17637
3006.80544	0.17666
3004.87676	0.17694
3002.94808	0.17721
3001.01941	0.17751
2999.09073	0.17776
2997.16206	0.17798
2995.23338	0.17820
2993.30471	0.17844
2991.37603	0.17869
2989.44735	0.17893
2987.51868	0.17913
2985.59000	0.17931
2983.66133	0.17948
2981.73265	0.17962
2979.80398	0.17971
2977.87530	0.17979
2975.94662	0.17988
2974.01795	0.17994
2972.08927	0.17995
2970.16060	0.17993
2968.23192	0.17991
2966.30325	0.17989
2964.37457	0.17996
2962.44589	0.18012
2960.51722	0.18037
2958.58854	0.18067
2956.65987	0.18099
2954.73119	0.18134
2952.80252	0.18171
2950.87384	0.18206
2948.94516	0.18235
2947.01649	0.18258
2945.08781	0.18275
2943.15914	0.18287
2941.23046	0.18298
2939.30179	0.18304
2937.37311	0.18303
2935.44443	0.18295
2933.51576	0.18288
2931.58708	0.18285
2929.65841	0.18281
2927.72973	0.18275
2925.80106	0.18270
2923.87238	0.18270
2921.94370	0.18278
2920.01503	0.18293
2918.08635	0.18323
2916.15768	0.18376
2914.22900	0.18455
2912.30033	0.18546
2910.37165	0.18630
2908.44297	0.18699
2906.51430	0.18755
2904.58562	0.18802
2902.65695	0.18845
2900.72827	0.18886
2898.79960	0.18927
2896.87092	0.18969
2894.94224	0.19009
2893.01357	0.19043
2891.08489	0.19074
2889.15622	0.19106
2887.22754	0.19141
2885.29887	0.19177
2883.37019	0.19206
2881.44151	0.19233
2879.51284	0.19260
2877.58416	0.19287
2875.65549	0.19309
2873.72681	0.19330
2871.79814	0.19355
2869.86946	0.19382
2867.94078	0.19408
2866.01211	0.19430
2864.08343	0.19447
2862.15476	0.19459
2860.22608	0.19467
2858.29741	0.19470
2856.36873	0.19468
2854.44005	0.19463
2852.51138	0.19459
2850.58270	0.19473
2848.65403	0.19524
2846.72535	0.19612
2844.79668	0.19709
2842.86800	0.19788
2840.93932	0.19848
2839.01065	0.19898
2837.08197	0.19944
2835.15330	0.19984
2833.22462	0.20020
2831.29595	0.20054
2829.36727	0.20089
2827.43859	0.20124
2825.50992	0.20156
2823.58124	0.20186
2821.65257	0.20216
2819.72389	0.20244
2817.79522	0.20276
2815.86654	0.20309
2813.93786	0.20342
2812.00919	0.20374
2810.08051	0.20403
2808.15184	0.20428
2806.22316	0.20456
2804.29449	0.20488
2802.36581	0.20521
2800.43713	0.20552
2798.50846	0.20578
2796.57978	0.20604
2794.65111	0.20632
2792.72243	0.20662
2790.79376	0.20691
2788.86508	0.20721
2786.93640	0.20751
2785.00773	0.20782
2783.07905	0.20812
2781.15038	0.20842
2779.22170	0.20871
2777.29303	0.20898
2775.36435	0.20923
2773.43567	0.20950
2771.50700	0.20977
2769.57832	0.21005
2767.64965	0.21034
2765.72097	0.21063
2763.79230	0.21090
2761.86362	0.21119
2759.93494	0.21150
2758.00627	0.21179
2756.07759	0.21204
2754.14892	0.21229
2752.22024	0.21257
2750.29157	0.21288
2748.36289	0.21317
2746.43421	0.21343
2744.50554	0.21369
2742.57686	0.21398
2740.64819	0.21429
2738.71951	0.21457
2736.79084	0.21481
2734.86216	0.21504
2732.93348	0.21530
2731.00481	0.21560
2729.07613	0.21590
2727.14746	0.21618
2725.21878	0.21645
2723.29011	0.21672
2721.36143	0.21697
2719.43275	0.21722
2717.50408	0.21749
2715.57540	0.21778
2713.64673	0.21808
2711.71805	0.21836
2709.78938	0.21863
2707.86070	0.21891
2705.93202	0.21918
2704.00335	0.21944
2702.07467	0.21971
2700.14600	0.21999
2698.21732	0.22023
2696.28865	0.22048
2694.35997	0.22077
2692.43129	0.22108
2690.50262	0.22137
2688.57394	0.22165
2686.64527	0.22192
2684.71659	0.22219
2682.78792	0.22246
2680.85924	0.22272
2678.93056	0.22300
2677.00189	0.22330
2675.07321	0.22362
2673.14454	0.22392
2671.21586	0.22415
2669.28719	0.22435
2667.35851	0.22456
2665.42983	0.22480
2663.50116	0.22507
2661.57248	0.22536
2659.64381	0.22566
2657.71513	0.22597
2655.78646	0.22629
2653.85778	0.22662
2651.92910	0.22690
2650.00043	0.22716
2648.07175	0.22743
2646.14308	0.22771
2644.21440	0.22800
2642.28573	0.22827
2640.35705	0.22858
2638.42837	0.22891
2636.49970	0.22923
2634.57102	0.22952
2632.64235	0.22982
2630.71367	0.23011
2628.78500	0.23038
2626.85632	0.23067
2624.92764	0.23095
2622.99897	0.23120
2621.07029	0.23144
2619.14162	0.23174
2617.21294	0.23207
2615.28427	0.23242
2613.35559	0.23276
2611.42691	0.23310
2609.49824	0.23339
2607.56956	0.23365
2605.64089	0.23390
2603.71221	0.23418
2601.78354	0.23448
2599.85486	0.23477
2597.92618	0.23509
2595.99751	0.23541
2594.06883	0.23570
2592.14016	0.23595
2590.21148	0.23622
2588.28281	0.23653
2586.35413	0.23684
2584.42545	0.23715
2582.49678	0.23744
2580.56810	0.23770
2578.63943	0.23798
2576.71075	0.23828
2574.78208	0.23856
2572.85340	0.23884
2570.92472	0.23913
2568.99605	0.23940
2567.06737	0.23966
2565.13870	0.23991
2563.21002	0.24016
2561.28135	0.24044
2559.35267	0.24074
2557.42399	0.24103
2555.49532	0.24134
2553.56664	0.24168
2551.63797	0.24199
2549.70929	0.24224
2547.78062	0.24247
2545.85194	0.24274
2543.92326	0.24301
2541.99459	0.24328
2540.06591	0.24355
2538.13724	0.24383
2536.20856	0.24412
2534.27989	0.24441
2532.35121	0.24473
2530.42253	0.24504
2528.49386	0.24533
2526.56518	0.24561
2524.63651	0.24589
2522.70783	0.24618
2520.77916	0.24647
2518.85048	0.24675
2516.92181	0.24704
2514.99313	0.24737
2513.06445	0.24770
2511.13578	0.24802
2509.20710	0.24831
2507.27843	0.24860
2505.34975	0.24892
2503.42108	0.24925
2501.49240	0.24959
2499.56372	0.24992
2497.63505	0.25025
2495.70637	0.25053
2493.77770	0.25080
2491.84902	0.25110
2489.92035	0.25146
2487.99167	0.25181
2486.06299	0.25213
2484.13432	0.25241
2482.20564	0.25270
2480.27697	0.25304
2478.34829	0.25340
2476.41962	0.25370
2474.49094	0.25399
2472.56226	0.25431
2470.63359	0.25464
2468.70491	0.25495
2466.77624	0.25523
2464.84756	0.25552
2462.91889	0.25582
2460.99021	0.25608
2459.06153	0.25636
2457.13286	0.25670
2455.20418	0.25704
2453.27551	0.25735
2451.34683	0.25767
2449.41816	0.25800
2447.48948	0.25831
2445.56080	0.25860
2443.63213	0.25889
2441.70345	0.25919
2439.77478	0.25949
2437.84610	0.25978
2435.91743	0.26007
2433.98875	0.26034
2432.06007	0.26060
2430.13140	0.26088
2428.20272	0.26119
2426.27405	0.26153
2424.34537	0.26187
2422.41670	0.26219
2420.48802	0.26246
2418.55934	0.26275
2416.63067	0.26308
2414.70199	0.26342
2412.77332	0.26372
2410.84464	0.26399
2408.91597	0.26425
2406.98729	0.26454
2405.05861	0.26484
2403.12994	0.26515
2401.20126	0.26547
2399.27259	0.26579
2397.34391	0.26609
2395.41524	0.26639
2393.48656	0.26670
2391.55788	0.26697
2389.62921	0.26722
2387.70053	0.26748
2385.77186	0.26777
2383.84318	0.26803
2381.91451	0.26824
2379.98583	0.26839
2378.05715	0.26852
2376.12848	0.26860
2374.19980	0.26861
2372.27113	0.26860
2370.34245	0.26864
2368.41378	0.26874
2366.48510	0.26888
2364.55642	0.26907
2362.62775	0.26932
2360.69907	0.26962
2358.77040	0.26995
2356.84172	0.27041
2354.91305	0.27097
2352.98437	0.27157
2351.05569	0.27215
2349.12702	0.27259
2347.19834	0.27279
2345.26967	0.27283
2343.34099	0.27289
2341.41232	0.27307
2339.48364	0.27335
2337.55496	0.27366
2335.62629	0.27395
2333.69761	0.27422
2331.76894	0.27455
2329.84026	0.27493
2327.91159	0.27532
2325.98291	0.27572
2324.05423	0.27614
2322.12556	0.27654
2320.19688	0.27693
2318.26821	0.27731
2316.33953	0.27771
2314.41086	0.27813
2312.48218	0.27855
2310.55350	0.27897
2308.62483	0.27936
2306.69615	0.27974
2304.76748	0.28011
2302.83880	0.28043
2300.91013	0.28074
2298.98145	0.28108
2297.05277	0.28141
2295.12410	0.28173
2293.19542	0.28206
2291.26675	0.28244
2289.33807	0.28280
2287.40940	0.28312
2285.48072	0.28344
2283.55204	0.28376
2281.62337	0.28408
2279.69469	0.28439
2277.76602	0.28469
2275.83734	0.28496
2273.90867	0.28524
2271.97999	0.28553
2270.05131	0.28582
2268.12264	0.28613
2266.19396	0.28645
2264.26529	0.28677
2262.33661	0.28707
2260.40794	0.28732
2258.47926	0.28759
2256.55058	0.28793
2254.62191	0.28827
2252.69323	0.28856
2250.76456	0.28882
2248.83588	0.28910
2246.90721	0.28942
2244.97853	0.28974
2243.04985	0.29003
2241.12118	0.29030
2239.19250	0.29059
2237.26383	0.29092
2235.33515	0.29124
2233.40648	0.29154
2231.47780	0.29182
2229.54912	0.29208
2227.62045	0.29235
2225.69177	0.29267
2223.76310	0.29300
2221.83442	0.29331
2219.90575	0.29360
2217.97707	0.29387
2216.04839	0.29418
2214.11972	0.29453
2212.19104	0.29484
2210.26237	0.29511
2208.33369	0.29540
2206.40502	0.29568
2204.47634	0.29594
2202.54766	0.29621
2200.61899	0.29647
2198.69031	0.29677
2196.76164	0.29708
2194.83296	0.29738
2192.90429	0.29768
2190.97561	0.29798
2189.04693	0.29827
2187.11826	0.29858
2185.18958	0.29888
2183.26091	0.29917
2181.33223	0.29946
2179.40356	0.29976
2177.47488	0.30006
2175.54620	0.30036
2173.61753	0.30066
2171.68885	0.30097
2169.76018	0.30131
2167.83150	0.30166
2165.90283	0.30199
2163.97415	0.30228
2162.04547	0.30259
2160.11680	0.30291
2158.18812	0.30323
2156.25945	0.30354
2154.33077	0.30382
2152.40210	0.30410
2150.47342	0.30439
2148.54474	0.30471
2146.61607	0.30501
2144.68739	0.30530
2142.75872	0.30560
2140.83004	0.30592
2138.90137	0.30623
2136.97269	0.30652
2135.04401	0.30684
2133.11534	0.30718
2131.18666	0.30752
2129.25799	0.30782
2127.32931	0.30808
2125.40064	0.30835
2123.47196	0.30866
2121.54328	0.30898
2119.61461	0.30927
2117.68593	0.30955
2115.75726	0.30989
2113.82858	0.31023
2111.89991	0.31052
2109.97123	0.31079
2108.04255	0.31107
2106.11388	0.31137
2104.18520	0.31171
2102.25653	0.31206
2100.32785	0.31237
2098.39918	0.31267
2096.47050	0.31297
2094.54182	0.31324
2092.61315	0.31352
2090.68447	0.31385
2088.75580	0.31419
2086.82712	0.31450
2084.89845	0.31478
2082.96977	0.31507
2081.04109	0.31542
2079.11242	0.31578
2077.18374	0.31610
2075.25507	0.31638
2073.32639	0.31666
2071.39772	0.31697
2069.46904	0.31727
2067.54036	0.31756
2065.61169	0.31784
2063.68301	0.31813
2061.75434	0.31844
2059.82566	0.31878
2057.89699	0.31910
2055.96831	0.31937
2054.03963	0.31961
2052.11096	0.31990
2050.18228	0.32021
2048.25361	0.32050
2046.32493	0.32082
2044.39626	0.32115
2042.46758	0.32148
2040.53890	0.32183
2038.61023	0.32220
2036.68155	0.32254
2034.75288	0.32284
2032.82420	0.32308
2030.89553	0.32331
2028.96685	0.32362
2027.03817	0.32399
2025.10950	0.32435
2023.18082	0.32472
2021.25215	0.32505
2019.32347	0.32528
2017.39480	0.32547
2015.46612	0.32576
2013.53744	0.32613
2011.60877	0.32647
2009.68009	0.32675
2007.75142	0.32701
2005.82274	0.32733
2003.89407	0.32765
2001.96539	0.32794
2000.03671	0.32824
1998.10804	0.32857
1996.17936	0.32886
1994.25069	0.32903
1992.32201	0.32920
1990.39334	0.32955
1988.46466	0.32994
1986.53598	0.33025
1984.60731	0.33051
1982.67863	0.33079
1980.74996	0.33110
1978.82128	0.33137
1976.89261	0.33159
1974.96393	0.33183
1973.03525	0.33214
1971.10658	0.33241
1969.17790	0.33256
1967.24923	0.33271
1965.32055	0.33300
1963.39188	0.33337
1961.46320	0.33373
1959.53452	0.33405
1957.60585	0.33431
1955.67717	0.33458
1953.74850	0.33492
1951.81982	0.33529
1949.89115	0.33560
1947.96247	0.33583
1946.03379	0.33597
1944.10512	0.33610
1942.17644	0.33639
1940.24777	0.33687
1938.31909	0.33734
1936.39042	0.33770
1934.46174	0.33801
1932.53306	0.33827
1930.60439	0.33849
1928.67571	0.33875
1926.74704	0.33905
1924.81836	0.33924
1922.88969	0.33941
1920.96101	0.33961
1919.03233	0.33977
1917.10366	0.34014
1915.17498	0.34076
1913.24631	0.34123
1911.31763	0.34144
1909.38896	0.34163
1907.46028	0.34197
1905.53160	0.34237
1903.60293	0.34271
1901.67425	0.34298
1899.74558	0.34323
1897.81690	0.34346
1895.88823	0.34368
1893.95955	0.34395
1892.03087	0.34418
1890.10220	0.34436
1888.17352	0.34471
1886.24485	0.34514
1884.31617	0.34549
1882.38750	0.34586
1880.45882	0.34622
1878.53014	0.34650
1876.60147	0.34675
1874.67279	0.34700
1872.74412	0.34707
1870.81544	0.34685
1868.88677	0.34680
1866.95809	0.34734
1865.02941	0.34816
1863.10074	0.34875
1861.17206	0.34912
1859.24339	0.34946
1857.31471	0.34981
1855.38604	0.35013
1853.45736	0.35042
1851.52868	0.35066
1849.60001	0.35080
1847.67133	0.35072
1845.74266	0.35044
1843.81398	0.35062
1841.88531	0.35153
1839.95663	0.35238
1838.02795	0.35280
1836.09928	0.35311
1834.17060	0.35336
1832.24193	0.35335
1830.31325	0.35327
1828.38458	0.35351
1826.45590	0.35387
1824.52722	0.35430
1822.59855	0.35492
1820.66987	0.35542
1818.74120	0.35569
1816.81252	0.35594
1814.88385	0.35618
1812.95517	0.35627
1811.02649	0.35637
1809.09782	0.35676
1807.16914	0.35724
1805.24047	0.35747
1803.31179	0.35736
1801.38312	0.35730
1799.45444	0.35764
1797.52576	0.35811
1795.59709	0.35826
1793.66841	0.35810
1791.73974	0.35823
1789.81106	0.35891
1787.88239	0.35950
1785.95371	0.35966
1784.02503	0.35974
1782.09636	0.35990
1780.16768	0.36014
1778.23901	0.36051
1776.31033	0.36066
1774.38166	0.36036
1772.45298	0.36010
1770.52430	0.36032
1768.59563	0.36085
1766.66695	0.36153
1764.73828	0.36200
1762.80960	0.36201
1760.88093	0.36205
1758.95225	0.36227
1757.02357	0.36247
1755.09490	0.36257
1753.16622	0.36216
1751.23755	0.36145
1749.30887	0.36132
1747.38020	0.36178
1745.45152	0.36224
1743.52284	0.36245
1741.59417	0.36247
1739.66549	0.36253
1737.73682	0.36245
1735.80814	0.36186
1733.87947	0.36157
1731.95079	0.36238
1730.02211	0.36356
1728.09344	0.36449
1726.16476	0.36506
1724.23609	0.36529
1722.30741	0.36532
1720.37874	0.36488
1718.45006	0.36424
1716.52138	0.36434
1714.59271	0.36525
1712.66403	0.36626
1710.73536	0.36678
1708.80668	0.36667
1706.87801	0.36630
1704.94933	0.36612
1703.02065	0.36563
1701.09198	0.36482
1699.16330	0.36475
1697.23463	0.36530
1695.30595	0.36601
1693.37728	0.36695
1691.44860	0.36741
1689.51992	0.36724
1687.59125	0.36675
1685.66257	0.36593
1683.73390	0.36567
1681.80522	0.36650
1679.87655	0.36741
1677.94787	0.36756
1676.01919	0.36726
1674.09052	0.36719
1672.16184	0.36713
1670.23317	0.36698
1668.30449	0.36749
1666.37582	0.36837
1664.44714	0.36862
1662.51846	0.36858
1660.58979	0.36893
1658.66111	0.36920
1656.73244	0.36844
1654.80376	0.36679
1652.87509	0.36616
1650.94641	0.36719
1649.01773	0.36792
1647.08906	0.36795
1645.16038	0.36858
1643.23171	0.36954
1641.30303	0.36993
1639.37436	0.36961
1637.44568	0.36889
1635.51700	0.36873
1633.58833	0.36959
1631.65965	0.37042
1629.73098	0.37044
1627.80230	0.37014
1625.87363	0.36969
1623.94495	0.36898
1622.01627	0.36850
1620.08760	0.36847
1618.15892	0.36872
1616.23025	0.36969
1614.30157	0.37130
1612.37290	0.37254
1610.44422	0.37311
1608.51554	0.37355
1606.58687	0.37411
1604.65819	0.37460
1602.72952	0.37495
1600.80084	0.37531
1598.87217	0.37571
1596.94349	0.37603
1595.01481	0.37630
1593.08614	0.37664
1591.15746	0.37702
1589.22879	0.37741
1587.30011	0.37778
1585.37144	0.37808
1583.44276	0.37832
1581.51408	0.37855
1579.58541	0.37852
1577.65673	0.37816
1575.72806	0.37824
1573.79938	0.37893
1571.87071	0.37922
1569.94203	0.37907
1568.01335	0.37938
1566.08468	0.38000
1564.15600	0.38029
1562.22733	0.37967
1560.29865	0.37826
1558.36998	0.37781
1556.44130	0.37909
1554.51262	0.38066
1552.58395	0.38152
1550.65527	0.38185
1548.72660	0.38210
1546.79792	0.38210
1544.86925	0.38154
1542.94057	0.38075
1541.01189	0.38036
1539.08322	0.38101
1537.15454	0.38227
1535.22587	0.38284
1533.29719	0.38296
1531.36852	0.38345
1529.43984	0.38375
1527.51116	0.38352
1525.58249	0.38323
1523.65381	0.38275
1521.72514	0.38228
1519.79646	0.38252
1517.86779	0.38319
1515.93911	0.38384
1514.01043	0.38440
1512.08176	0.38445
1510.15308	0.38377
1508.22441	0.38301
1506.29573	0.38342
1504.36706	0.38504
1502.43838	0.38622
1500.50970	0.38616
1498.58103	0.38575
1496.65235	0.38592
1494.72368	0.38657
1492.79500	0.38672
1490.86633	0.38617
1488.93765	0.38597
1487.00897	0.38657
1485.08030	0.38730
1483.15162	0.38762
1481.22295	0.38763
1479.29427	0.38740
1477.36560	0.38681
1475.43692	0.38601
1473.50824	0.38544
1471.57957	0.38551
1469.65089	0.38602
1467.72222	0.38610
1465.79354	0.38579
1463.86487	0.38580
1461.93619	0.38587
1460.00751	0.38505
1458.07884	0.38388
1456.15016	0.38405
1454.22149	0.38548
1452.29281	0.38660
1450.36414	0.38690
1448.43546	0.38698
1446.50678	0.38733
1444.57811	0.38782
1442.64943	0.38808
1440.72076	0.38789
1438.79208	0.38709
1436.86341	0.38648
1434.93473	0.38695
1433.00605	0.38771
1431.07738	0.38791
1429.14870	0.38796
1427.22003	0.38804
1425.29135	0.38785
1423.36268	0.38743
1421.43400	0.38671
1419.50532	0.38597
1417.57665	0.38615
1415.64797	0.38698
1413.71930	0.38748
1411.79062	0.38758
1409.86195	0.38758
1407.93327	0.38743
1406.00459	0.38715
1404.07592	0.38706
1402.14724	0.38704
1400.21857	0.38672
1398.28989	0.38627
1396.36122	0.38597
1394.43254	0.38604
1392.50386	0.38646
1390.57519	0.38649
1388.64651	0.38577
1386.71784	0.38508
1384.78916	0.38499
1382.86049	0.38522
1380.93181	0.38542
1379.00313	0.38546
1377.07446	0.38524
1375.14578	0.38493
1373.21711	0.38492
1371.28843	0.38515
1369.35976	0.38523
1367.43108	0.38512
1365.50240	0.38480
1363.57373	0.38432
1361.64505	0.38424
1359.71638	0.38464
1357.78770	0.38497
1355.85903	0.38505
1353.93035	0.38509
1352.00167	0.38520
1350.07300	0.38537
1348.14432	0.38553
1346.21565	0.38568
1344.28697	0.38577
1342.35830	0.38558
1340.42962	0.38521
1338.50094	0.38512
1336.57227	0.38539
1334.64359	0.38567
1332.71492	0.38575
1330.78624	0.38569
1328.85757	0.38556
1326.92889	0.38542
1325.00021	0.38530
1323.07154	0.38517
1321.14286	0.38493
1319.21419	0.38469
1317.28551	0.38458
1315.35684	0.38450
1313.42816	0.38434
1311.49948	0.38417
1309.57081	0.38391
1307.64213	0.38355
1305.71346	0.38316
1303.78478	0.38276
1301.85611	0.38237
1299.92743	0.38201
1297.99875	0.38164
1296.07008	0.38127
1294.14140	0.38090
1292.21273	0.38054
1290.28405	0.38011
1288.35538	0.37957
1286.42670	0.37899
1284.49802	0.37848
1282.56935	0.37798
1280.64067	0.37741
1278.71200	0.37671
1276.78332	0.37588
1274.85465	0.37494
1272.92597	0.37380
1270.99729	0.37236
1269.06862	0.37063
1267.13994	0.36873
1265.21127	0.36697
1263.28259	0.36573
1261.35392	0.36512
1259.42524	0.36510
1257.49656	0.36539
1255.56789	0.36562
1253.63921	0.36560
1251.71054	0.36527
1249.78186	0.36469
1247.85319	0.36402
1245.92451	0.36331
1243.99583	0.36253
1242.06716	0.36171
1240.13848	0.36080
1238.20981	0.35981
1236.28113	0.35880
1234.35246	0.35777
1232.42378	0.35670
1230.49510	0.35561
1228.56643	0.35457
1226.63775	0.35361
1224.70908	0.35271
1222.78040	0.35180
1220.85173	0.35084
1218.92305	0.34987
1216.99437	0.34891
1215.06570	0.34796
1213.13702	0.34700
1211.20835	0.34604
1209.27967	0.34511
1207.35100	0.34417
1205.42232	0.34320
1203.49364	0.34222
1201.56497	0.34128
1199.63629	0.34038
1197.70762	0.33955
1195.77894	0.33875
1193.85027	0.33783
1191.92159	0.33681
1189.99291	0.33575
1188.06424	0.33464
1186.13556	0.33341
1184.20689	0.33205
1182.27821	0.33066
1180.34954	0.32929
1178.42086	0.32792
1176.49218	0.32652
1174.56351	0.32512
1172.63483	0.32370
1170.70616	0.32226
1168.77748	0.32082
1166.84881	0.31933
1164.92013	0.31780
1162.99145	0.31634
1161.06278	0.31502
1159.13410	0.31375
1157.20543	0.31244
1155.27675	0.31114
1153.34808	0.30992
1151.41940	0.30872
1149.49072	0.30755
1147.56205	0.30640
1145.63337	0.30525
1143.70470	0.30407
1141.77602	0.30289
1139.84735	0.30171
1137.91867	0.30051
1135.98999	0.29927
1134.06132	0.29798
1132.13264	0.29661
1130.20397	0.29524
1128.27529	0.29389
1126.34662	0.29251
1124.41794	0.29105
1122.48926	0.28955
1120.56059	0.28806
1118.63191	0.28656
1116.70324	0.28502
1114.77456	0.28347
1112.84589	0.28190
1110.91721	0.28028
1108.98853	0.27872
1107.05986	0.27721
1105.13118	0.27573
1103.20251	0.27427
1101.27383	0.27285
1099.34516	0.27147
1097.41648	0.27019
1095.48780	0.26899
1093.55913	0.26780
1091.63045	0.26662
1089.70178	0.26545
1087.77310	0.26431
1085.84443	0.26325
1083.91575	0.26223
1081.98707	0.26121
1080.05840	0.26022
1078.12972	0.25931
1076.20105	0.25851
1074.27237	0.25788
1072.34370	0.25734
1070.41502	0.25685
1068.48634	0.25649
1066.55767	0.25629
1064.62899	0.25623
1062.70032	0.25629
1060.77164	0.25644
1058.84297	0.25668
1056.91429	0.25700
1054.98561	0.25736
1053.05694	0.25775
1051.12826	0.25824
1049.19959	0.25881
1047.27091	0.25935
1045.34224	0.25992
1043.41356	0.26062
1041.48488	0.26142
1039.55621	0.26224
1037.62753	0.26306
1035.69886	0.26386
1033.77018	0.26464
1031.84151	0.26544
1029.91283	0.26628
1027.98415	0.26709
1026.05548	0.26784
1024.12680	0.26861
1022.19813	0.26946
1020.26945	0.27040
1018.34078	0.27144
1016.41210	0.27258
1014.48342	0.27385
1012.55475	0.27522
1010.62607	0.27662
1008.69740	0.27808
1006.76872	0.27955
1004.84005	0.28087
1002.91137	0.28197
1000.98269	0.28295
999.05402	0.28388
997.12534	0.28474
995.19667	0.28545
993.26799	0.28610
991.33932	0.28680
989.41064	0.28754
987.48196	0.28819
985.55329	0.28874
983.62461	0.28925
981.69594	0.28967
979.76726	0.28996
977.83859	0.29014
975.90991	0.29022
973.98123	0.29022
972.05256	0.29020
970.12388	0.29020
968.19521	0.29013
966.26653	0.28993
964.33786	0.28964
962.40918	0.28932
960.48050	0.28901
958.55183	0.28873
956.62315	0.28843
954.69448	0.28803
952.76580	0.28759
950.83713	0.28709
948.90845	0.28654
946.97977	0.28602
945.05110	0.28552
943.12242	0.28492
941.19375	0.28425
939.26507	0.28358
937.33640	0.28288
935.40772	0.28216
933.47904	0.28151
931.55037	0.28088
929.62169	0.28020
927.69302	0.27950
925.76434	0.27881
923.83567	0.27813
921.90699	0.27743
919.97831	0.27669
918.04964	0.27594
916.12096	0.27518
914.19229	0.27438
912.26361	0.27352
910.33494	0.27269
908.40626	0.27187
906.47758	0.27096
904.54891	0.27004
902.62023	0.26919
900.69156	0.26830
898.76288	0.26739
896.83421	0.26649
894.90553	0.26558
892.97685	0.26461
891.04818	0.26368
889.11950	0.26282
887.19083	0.26197
885.26215	0.26111
883.33348	0.26023
881.40480	0.25934
879.47612	0.25849
877.54745	0.25769
875.61877	0.25692
873.69010	0.25616
871.76142	0.25545
869.83275	0.25477
867.90407	0.25402
865.97539	0.25313
864.04672	0.25222
862.11804	0.25134
860.18937	0.25046
858.26069	0.24962
856.33202	0.24878
854.40334	0.24786
852.47466	0.24689
850.54599	0.24592
848.61731	0.24494
846.68864	0.24397
844.75996	0.24304
842.83129	0.24216
840.90261	0.24134
838.97394	0.24052
837.04526	0.23965
835.11658	0.23869
833.18791	0.23771
831.25923	0.23674
829.33056	0.23571
827.40188	0.23458
825.47321	0.23339
823.54453	0.23222
821.61585	0.23115
819.68718	0.23016
817.75850	0.22918
815.82983	0.22812
813.90115	0.22705
811.97248	0.22601
810.04380	0.22505
808.11512	0.22415
806.18645	0.22329
804.25777	0.22248
802.32910	0.22176
800.40042	0.22115
798.47175	0.22060
796.54307	0.22014
794.61439	0.21979
792.68572	0.21948
790.75704	0.21920
788.82837	0.21895
786.89969	0.21864
784.97102	0.21825
783.04234	0.21781
781.11366	0.21731
779.18499	0.21678
777.25631	0.21629
775.32764	0.21584
773.39896	0.21537
771.47029	0.21485
769.54161	0.21430
767.61293	0.21371
765.68426	0.21308
763.75558	0.21240
761.82691	0.21162
759.89823	0.21079
757.96956	0.20998
756.04088	0.20917
754.11220	0.20828
752.18353	0.20732
750.25485	0.20641
748.32618	0.20555
746.39750	0.20461
744.46883	0.20365
742.54015	0.20279
740.61147	0.20204
738.68280	0.20129
736.75412	0.20050
734.82545	0.19971
732.89677	0.19895
730.96810	0.19826
729.03942	0.19762
727.11074	0.19693
725.18207	0.19616
723.25339	0.19542
721.32472	0.19469
719.39604	0.19395
717.46737	0.19319
715.53869	0.19239
713.61001	0.19154
711.68134	0.19067
709.75266	0.18981
707.82399	0.18903
705.89531	0.18837
703.96664	0.18769
702.03796	0.18691
700.10928	0.18607
698.18061	0.18524
696.25193	0.18443
694.32326	0.18356
692.39458	0.18261
690.46591	0.18167
688.53723	0.18079
686.60855	0.17994
684.67988	0.17903
682.75120	0.17806
680.82253	0.17701
678.89385	0.17588
676.96518	0.17472
675.03650	0.17351
673.10782	0.17219
671.17915	0.17065
669.25047	0.16888
667.32180	0.16729
665.39312	0.16605
663.46445	0.16471
661.53577	0.16319
659.60709	0.16169
657.67842	0.16021
655.74974	0.15876
653.82107	0.15735
651.89239	0.15590
649.96372	0.15435
648.03504	0.15273
646.10636	0.15106
644.17769	0.14933
642.24901	0.14758
640.32034	0.14587
638.39166	0.14410
636.46299	0.14226
634.53431	0.14046
632.60563	0.13872
630.67696	0.13694
628.74828	0.13513
626.81961	0.13332
624.89093	0.13159
622.96226	0.12991
621.03358	0.12825
619.10490	0.12652
617.17623	0.12470
615.24755	0.12292
613.31888	0.12119
611.39020	0.11944
609.46153	0.11775
607.53285	0.11612
605.60417	0.11445
603.67550	0.11279
601.74682	0.11121
599.81815	0.10974
597.88947	0.10844
595.96080	0.10729
594.03212	0.10618
592.10344	0.10505
590.17477	0.10388
588.24609	0.10267
586.31742	0.10144
584.38874	0.10022
582.46007	0.09909
580.53139	0.09806
578.60271	0.09705
576.67404	0.09598
574.74536	0.09488
572.81669	0.09374
570.88801	0.09268
568.95934	0.09184
567.03066	0.09116
565.10198	0.09041
563.17331	0.08955
561.24463	0.08872
559.31596	0.08797
557.38728	0.08723
555.45861	0.08655
553.52993	0.08596
551.60125	0.08537
549.67258	0.08476
547.74390	0.08418
545.81523	0.08362
543.88655	0.08312
541.95788	0.08270
540.02920	0.08229
538.10052	0.08184
536.17185	0.08127
534.24317	0.08057
532.31450	0.07990
530.38582	0.07931
528.45715	0.07866
526.52847	0.07796
524.59979	0.07724
522.67112	0.07643
520.74244	0.07558
518.81377	0.07477
516.88509	0.07401
514.95642	0.07333
513.02774	0.07263
511.09906	0.07176
509.17039	0.07078
507.24171	0.06986
505.31304	0.06901
503.38436	0.06814
501.45569	0.06722
499.52701	0.06615
497.59833	0.06487
495.66966	0.06356
493.74098	0.06231
491.81231	0.06110
489.88363	0.05988
487.95496	0.05864
486.02628	0.05740
484.09760	0.05619
482.16893	0.05506
480.24025	0.05393
478.31158	0.05269
476.38290	0.05134
474.45423	0.05005
472.52555	0.04894
470.59687	0.04795
468.66820	0.04703
466.73952	0.04621
464.81085	0.04555
462.88217	0.04505
460.95350	0.04462
459.02482	0.04427
457.09614	0.04412
455.16747	0.04418
453.23879	0.04422
451.31012	0.04408
449.38144	0.04388
447.45277	0.04380
445.52409	0.04373
443.59541	0.04329
441.66674	0.04248
439.73806	0.04160
437.80939	0.04087
435.88071	0.04015
433.95204	0.03924
432.02336	0.03811
430.09468	0.03686
428.16601	0.03555
426.23733	0.03417
424.30866	0.03278
422.37998	0.03144
420.45131	0.03014
418.52263	0.02892
416.59395	0.02777
414.66528	0.02660
412.73660	0.02533
410.80793	0.02401
408.87925	0.02271
406.95058	0.02146
405.02190	0.02031
403.09322	0.01927
401.16455	0.01824
399.23587	0.01715
397.30720	0.01605
395.37852	0.01504
393.44985	0.01411
391.52117	0.01319
389.59249	0.01229
387.66382	0.01155
385.73514	0.01090
383.80647	0.01015
381.87779	0.00927
379.94912	0.00845
378.02044	0.00774
376.09176	0.00707
374.16309	0.00645
372.23441	0.00595
370.30574	0.00544
368.37706	0.00484
