PE UV                   SPECTRUM    ASCII       PEDS        1.60        
  -1
S19_08.SP
12/04/05
07:33:11.00
12/04/05
07:34:20.00


190.000000
1









4444

SCAN
1
1


0.0
1920.0
2.00
MANUAL



UV/VIS




































#HDR
-1
-1
#GR
NM
%R
0.00002384185791015625
0.0
1000.000000
1.000000
811
8
113.700000
24.876000
#DATA
1000.000000	57.862000  
999.000000	 57.633999  
998.000000	 57.319000  
997.000000	 57.116000  
996.000000	 57.091000  
995.000000	 57.201000  
994.000000	 57.333000  
993.000000	 56.897000  
992.000000	 56.830000  
991.000000	 57.164000  
990.000000	 56.572000  
989.000000	 56.828999  
988.000000	 57.070000  
987.000000	 57.194999  
986.000000	 56.776000  
985.000000	 56.227000  
984.000000	 56.405000  
983.000000	 56.938999  
982.000000	 56.712000  
981.000000	 56.186000  
980.000000	 56.565000  
979.000000	 56.459000  
978.000000	 56.200000  
977.000000	 56.103000  
976.000000	 55.923999  
975.000000	 55.878000  
974.000000	 55.648000  
973.000000	 55.725000  
972.000000	 55.547999  
971.000000	 55.700000  
970.000000	 55.549000  
969.000000	 55.776000  
968.000000	 55.718999  
967.000000	 54.934000  
966.000000	 55.044000  
965.000000	 55.007000  
964.000000	 54.988000  
963.000000	 55.230000  
962.000000	 55.159000  
961.000000	 54.711000  
960.000000	 54.845000  
959.000000	 54.656000  
958.000000	 54.569999  
957.000000	 54.435999  
956.000000	 54.545999  
955.000000	 54.226000  
954.000000	 54.465000  
953.000000	 54.639000  
952.000000	 54.295000  
951.000000	 54.093999  
950.000000	 53.940000  
949.000000	 54.029000  
948.000000	 53.945000  
947.000000	 53.468000  
946.000000	 53.572000  
945.000000	 53.628000  
944.000000	 53.510000  
943.000000	 53.588000  
942.000000	 53.564000  
941.000000	 53.142999  
940.000000	 53.159000  
939.000000	 53.225000  
938.000000	 53.237000  
937.000000	 53.055000  
936.000000	 52.954000  
935.000000	 52.940000  
934.000000	 52.822000  
933.000000	 52.708000  
932.000000	 52.654000  
931.000000	 52.730000  
930.000000	 52.414000  
929.000000	 52.317000  
928.000000	 52.227000  
927.000000	 52.133000  
926.000000	 52.233000  
925.000000	 52.136000  
924.000000	 52.086000  
923.000000	 51.977000  
922.000000	 51.880000  
921.000000	 51.839000  
920.000000	 51.540000  
919.000000	 51.654999  
918.000000	 51.560000  
917.000000	 51.547000  
916.000000	 51.314000  
915.000000	 51.225000  
914.000000	 51.059000  
913.000000	 50.899000  
912.000000	 50.666999  
911.000000	 51.028000  
910.000000	 50.968000  
909.000000	 50.703000  
908.000000	 50.726000  
907.000000	 50.707000  
906.000000	 50.630000  
905.000000	 50.258000  
904.000000	 50.114999  
903.000000	 50.454000  
902.000000	 50.114000  
901.000000	 50.059000  
900.000000	 50.159000  
899.000000	 50.048000  
898.000000	 49.760000  
897.000000	 49.711000  
896.000000	 49.556000  
895.000000	 49.285000  
894.000000	 49.042000  
893.000000	 49.112000  
892.000000	 49.553000  
891.000000	 49.318000  
890.000000	 49.137000  
889.000000	 49.048000  
888.000000	 48.776000  
887.000000	 48.641000  
886.000000	 48.574000  
885.000000	 48.489000  
884.000000	 48.514000  
883.000000	 48.492000  
882.000000	 48.591000  
881.000000	 48.391000  
880.000000	 48.607000  
879.000000	 48.336000  
878.000000	 47.865000  
877.000000	 47.285000  
876.000000	 47.430000  
875.000000	 47.893000  
874.000000	 48.024000  
873.000000	 47.915000  
872.000000	 47.136000  
871.000000	 47.499000  
870.000000	 46.859000  
869.000000	 47.246000  
868.000000	 47.893000  
867.000000	 47.346000  
866.000000	 47.090000  
865.000000	 47.084000  
864.000000	 46.636000  
863.000000	 46.820000  
862.000000	 46.806000  
861.000000	 46.455000  
860.000000	 46.644000  
859.000000	 46.556000  
858.000000	 46.517000  
857.000000	 46.323000  
856.000000	 46.012000  
855.000000	 46.230000  
854.000000	 46.232000  
853.000000	 45.993000  
852.000000	 45.556000  
851.000000	 45.580000  
850.000000	 45.468000  
849.000000	 45.032000  
848.000000	 45.168000  
847.000000	 45.241000  
846.000000	 45.008000  
845.000000	 44.958000  
844.000000	 45.236000  
843.000000	 44.782000  
842.000000	 44.485000  
841.000000	 44.721000  
840.000000	 45.018000  
839.000000	 44.604000  
838.000000	 44.297000  
837.000000	 44.575000  
836.000000	 44.753000  
835.000000	 44.033000  
834.000000	 44.136000  
833.000000	 44.150000  
832.000000	 43.249000  
831.000000	 43.618000  
830.000000	 43.897000  
829.000000	 43.442000  
828.000000	 43.330000  
827.000000	 43.507000  
826.000000	 43.778000  
825.000000	 43.355000  
824.000000	 42.777000  
823.000000	 42.849000  
822.000000	 42.747000  
821.000000	 42.803999  
820.000000	 42.866000  
819.000000	 42.848000  
818.000000	 42.438000  
817.000000	 42.209000  
816.000000	 42.453000  
815.000000	 42.331000  
814.000000	 41.984000  
813.000000	 41.849000  
812.000000	 42.017000  
811.000000	 41.954000  
810.000000	 41.665000  
809.000000	 41.608000  
808.000000	 41.616000  
807.000000	 41.343999  
806.000000	 41.038000  
805.000000	 41.273000  
804.000000	 41.331000  
803.000000	 40.882000  
802.000000	 40.928000  
801.000000	 40.543000  
800.000000	 40.107000  
799.000000	 40.572000  
798.000000	 40.598000  
797.000000	 40.527000  
796.000000	 40.584000  
795.000000	 40.181000  
794.000000	 40.250000  
793.000000	 39.902000  
792.000000	 39.615000  
791.000000	 39.627000  
790.000000	 39.737000  
789.000000	 39.336000  
788.000000	 39.319000  
787.000000	 39.477000  
786.000000	 39.399000  
785.000000	 39.293000  
784.000000	 39.326000  
783.000000	 38.979000  
782.000000	 38.711000  
781.000000	 38.780000  
780.000000	 38.777000  
779.000000	 38.700000  
778.000000	 38.746000  
777.000000	 38.648000  
776.000000	 38.740000  
775.000000	 38.463000  
774.000000	 38.066000  
773.000000	 37.992000  
772.000000	 37.937000  
771.000000	 37.776000  
770.000000	 37.685000  
769.000000	 37.612000  
768.000000	 37.852000  
767.000000	 37.909000  
766.000000	 37.645000  
765.000000	 37.297999  
764.000000	 37.242000  
763.000000	 37.214000  
762.000000	 36.966000  
761.000000	 36.919999  
760.000000	 36.901000  
759.000000	 36.835000  
758.000000	 36.746000  
757.000000	 36.631000  
756.000000	 36.585000  
755.000000	 36.146000  
754.000000	 36.031000  
753.000000	 36.266000  
752.000000	 36.270000  
751.000000	 35.968000  
750.000000	 35.888000  
749.000000	 35.628000  
748.000000	 35.465000  
747.000000	 35.539000  
746.000000	 35.473000  
745.000000	 35.390000  
744.000000	 35.400000  
743.000000	 35.173000  
742.000000	 35.096000  
741.000000	 35.028000  
740.000000	 34.842000  
739.000000	 34.768000  
738.000000	 34.521000  
737.000000	 34.408000  
736.000000	 34.637000  
735.000000	 34.597000  
734.000000	 34.325000  
733.000000	 34.185000  
732.000000	 34.113000  
731.000000	 34.052000  
730.000000	 33.938000  
729.000000	 33.845000  
728.000000	 33.715000  
727.000000	 33.752000  
726.000000	 33.818000  
725.000000	 33.688000  
724.000000	 33.696000  
723.000000	 33.666000  
722.000000	 33.403000  
721.000000	 33.250000  
720.000000	 33.162000  
719.000000	 33.058000  
718.000000	 33.047000  
717.000000	 32.910000  
716.000000	 32.845000  
715.000000	 32.669000  
714.000000	 32.547000  
713.000000	 32.433000  
712.000000	 32.346000  
711.000000	 32.220000  
710.000000	 32.094000  
709.000000	 32.231000  
708.000000	 32.118000  
707.000000	 31.848000  
706.000000	 31.711000  
705.000000	 31.756000  
704.000000	 31.653000  
703.000000	 31.488000  
702.000000	 31.423000  
701.000000	 31.342000  
700.000000	 31.291000  
699.000000	 31.156000  
698.000000	 31.062000  
697.000000	 31.045000  
696.000000	 30.652000  
695.000000	 30.735000  
694.000000	 30.730000  
693.000000	 30.552000  
692.000000	 30.671000  
691.000000	 30.429000  
690.000000	 30.349000  
689.000000	 30.288000  
688.000000	 30.196000  
687.000000	 30.089000  
686.000000	 29.982000  
685.000000	 29.855000  
684.000000	 29.732000  
683.000000	 29.717000  
682.000000	 29.615000  
681.000000	 29.496000  
680.000000	 29.442000  
679.000000	 29.257000  
678.000000	 29.176000  
677.000000	 29.195000  
676.000000	 29.176000  
675.000000	 29.177000  
674.000000	 29.123000  
673.000000	 28.990000  
672.000000	 28.814000  
671.000000	 28.681000  
670.000000	 28.670000  
669.000000	 28.650000  
668.000000	 28.605000  
667.000000	 28.389000  
666.000000	 28.212000  
665.000000	 28.238000  
664.000000	 28.123000  
663.000000	 28.059000  
662.000000	 27.960000  
661.000000	 28.196000  
660.000000	 28.078000  
659.000000	 27.908000  
658.000000	 27.811000  
657.000000	 27.678000  
656.000000	 27.687000  
655.000000	 27.523000  
654.000000	 27.459000  
653.000000	 27.455000  
652.000000	 27.263000  
651.000000	 27.312000  
650.000000	 27.266000  
649.000000	 27.185000  
648.000000	 27.093000  
647.000000	 27.026000  
646.000000	 26.930000  
645.000000	 26.819000  
644.000000	 26.772000  
643.000000	 26.788000  
642.000000	 26.855000  
641.000000	 26.796000  
640.000000	 26.493000  
639.000000	 26.425000  
638.000000	 26.455000  
637.000000	 26.349000  
636.000000	 26.335000  
635.000000	 26.308000  
634.000000	 26.351000  
633.000000	 26.325000  
632.000000	 26.092000  
631.000000	 26.003000  
630.000000	 26.037000  
629.000000	 25.988000  
628.000000	 25.900000  
627.000000	 25.835000  
626.000000	 25.848000  
625.000000	 25.794000  
624.000000	 25.715000  
623.000000	 25.669000  
622.000000	 25.531000  
621.000000	 25.515000  
620.000000	 25.469000  
619.000000	 25.334000  
618.000000	 25.464000  
617.000000	 25.554000  
616.000000	 25.496000  
615.000000	 25.457000  
614.000000	 25.467000  
613.000000	 25.368000  
612.000000	 25.163000  
611.000000	 25.249000  
610.000000	 25.124000  
609.000000	 25.228000  
608.000000	 25.209000  
607.000000	 25.221000  
606.000000	 25.210000  
605.000000	 25.082000  
604.000000	 25.057000  
603.000000	 25.040000  
602.000000	 24.990000  
601.000000	 25.000000  
600.000000	 25.028000  
599.000000	 25.066000  
598.000000	 25.091000  
597.000000	 25.042000  
596.000000	 25.015000  
595.000000	 24.983000  
594.000000	 24.983000  
593.000000	 24.913000  
592.000000	 24.878000  
591.000000	 24.881000  
590.000000	 24.943000  
589.000000	 24.962000  
588.000000	 24.972000  
587.000000	 24.955000  
586.000000	 24.954000  
585.000000	 24.876000  
584.000000	 24.918000  
583.000000	 25.003000  
582.000000	 25.069000  
581.000000	 25.076000  
580.000000	 25.084000  
579.000000	 25.207000  
578.000000	 25.120000  
577.000000	 25.064000  
576.000000	 25.175000  
575.000000	 25.173000  
574.000000	 25.204000  
573.000000	 25.233000  
572.000000	 25.366000  
571.000000	 25.420000  
570.000000	 25.397000  
569.000000	 25.370000  
568.000000	 25.381000  
567.000000	 25.425000  
566.000000	 25.482000  
565.000000	 25.578000  
564.000000	 25.589000  
563.000000	 25.638000  
562.000000	 25.693000  
561.000000	 25.708000  
560.000000	 25.728000  
559.000000	 25.805000  
558.000000	 25.858000  
557.000000	 25.941000  
556.000000	 25.961000  
555.000000	 26.069000  
554.000000	 26.119000  
553.000000	 26.133000  
552.000000	 26.193000  
551.000000	 26.303000  
550.000000	 26.339000  
549.000000	 26.407000  
548.000000	 26.498000  
547.000000	 26.684000  
546.000000	 26.773000  
545.000000	 26.850000  
544.000000	 26.958000  
543.000000	 27.023000  
542.000000	 27.078000  
541.000000	 27.235000  
540.000000	 27.324000  
539.000000	 27.490000  
538.000000	 27.614000  
537.000000	 27.768000  
536.000000	 27.964000  
535.000000	 27.884000  
534.000000	 27.938000  
533.000000	 28.065000  
532.000000	 28.175000  
531.000000	 28.321000  
530.000000	 28.568000  
529.000000	 28.655000  
528.000000	 28.871000  
527.000000	 28.868000  
526.000000	 29.044000  
525.000000	 29.171000  
524.000000	 29.351000  
523.000000	 29.538000  
522.000000	 29.679000  
521.000000	 29.779000  
520.000000	 30.064000  
519.000000	 30.253000  
518.000000	 30.364000  
517.000000	 30.586000  
516.000000	 30.644000  
515.000000	 30.743000  
514.000000	 30.922000  
513.000000	 31.143000  
512.000000	 31.450000  
511.000000	 31.641000  
510.000000	 31.832000  
509.000000	 31.922000  
508.000000	 32.165000  
507.000000	 32.327000  
506.000000	 32.450000  
505.000000	 32.693000  
504.000000	 32.977000  
503.000000	 33.204000  
502.000000	 33.453000  
501.000000	 33.649000  
500.000000	 33.856000  
499.000000	 34.071000  
498.000000	 34.294999  
497.000000	 34.508000  
496.000000	 34.825000  
495.000000	 34.988000  
494.000000	 35.090000  
493.000000	 35.359000  
492.000000	 35.750000  
491.000000	 35.940000  
490.000000	 36.111000  
489.000000	 36.444000  
488.000000	 36.623000  
487.000000	 36.931000  
486.000000	 37.175999  
485.000000	 37.492000  
484.000000	 37.858000  
483.000000	 38.003000  
482.000000	 38.250000  
481.000000	 38.605000  
480.000000	 38.849000  
479.000000	 39.033000  
478.000000	 39.444000  
477.000000	 39.797000  
476.000000	 40.111000  
475.000000	 40.293000  
474.000000	 40.665000  
473.000000	 40.870000  
472.000000	 41.054000  
471.000000	 41.269000  
470.000000	 41.779000  
469.000000	 42.191000  
468.000000	 42.474000  
467.000000	 42.829000  
466.000000	 43.126000  
465.000000	 43.368000  
464.000000	 43.872000  
463.000000	 44.229000  
462.000000	 44.618000  
461.000000	 44.968000  
460.000000	 45.299000  
459.000000	 45.632000  
458.000000	 45.987000  
457.000000	 46.299000  
456.000000	 46.626000  
455.000000	 46.945000  
454.000000	 47.445000  
453.000000	 48.039000  
452.000000	 48.353000  
451.000000	 48.616000  
450.000000	 48.944000  
449.000000	 49.282000  
448.000000	 49.742999  
447.000000	 50.137000  
446.000000	 50.583000  
445.000000	 50.971000  
444.000000	 51.344000  
443.000000	 51.847000  
442.000000	 52.291000  
441.000000	 52.788999  
440.000000	 53.005000  
439.000000	 53.273000  
438.000000	 53.863000  
437.000000	 54.254000  
436.000000	 54.653000  
435.000000	 55.286000  
434.000000	 55.596000  
433.000000	 56.184000  
432.000000	 57.111000  
431.000000	 57.206000  
430.000000	 57.456000  
429.000000	 57.739000  
428.000000	 58.250000  
427.000000	 58.550999  
426.000000	 59.200000  
425.000000	 59.823000  
424.000000	 60.457000  
423.000000	 60.874000  
422.000000	 61.541000  
421.000000	 61.853000  
420.000000	 61.955000  
419.000000	 62.417000  
418.000000	 63.071000  
417.000000	 63.444999  
416.000000	 63.867000  
415.000000	 64.440000  
414.000000	 64.854999  
413.000000	 65.312000  
412.000000	 65.734000  
411.000000	 66.166000  
410.000000	 66.785000  
409.000000	 67.725000  
408.000000	 68.005000  
407.000000	 68.723999  
406.000000	 69.225000  
405.000000	 69.671000  
404.000000	 70.377000  
403.000000	 70.957000  
402.000000	 71.131999  
401.000000	 71.599999  
400.000000	 71.806000  
399.000000	 72.804999  
398.000000	 73.148000  
397.000000	 73.681000  
396.000000	 74.416000  
395.000000	 74.599999  
394.000000	 75.286000  
393.000000	 75.124000  
392.000000	 75.529000  
391.000000	 76.861000  
390.000000	 77.468000  
389.000000	 78.063999  
388.000000	 78.383000  
387.000000	 79.191000  
386.000000	 79.205000  
385.000000	 79.806000  
384.000000	 80.709000  
383.000000	 81.461000  
382.000000	 82.252000  
381.000000	 83.035000  
380.000000	 83.791000  
379.000000	 84.411999  
378.000000	 84.503000  
377.000000	 85.096000  
376.000000	 85.060000  
375.000000	 86.079000  
374.000000	 87.029000  
373.000000	 87.916000  
372.000000	 88.490000  
371.000000	 89.083000  
370.000000	 89.242000  
369.000000	 88.775000  
368.000000	 88.888000  
367.000000	 89.361999  
366.000000	 90.393000  
365.000000	 91.203000  
364.000000	 92.018999  
363.000000	 91.805000  
362.000000	 91.279000  
361.000000	 91.700999  
360.000000	 92.486999  
359.000000	 92.462000  
358.000000	 93.235999  
357.000000	 93.477000  
356.000000	 92.888000  
355.000000	 94.783000  
354.000000	 94.962000  
353.000000	 94.194000  
352.000000	 94.450000  
351.000000	 95.516000  
350.000000	 94.899000  
349.000000	 94.291000  
348.000000	 95.518000  
347.000000	 95.550000  
346.000000	 95.447000  
345.000000	 95.705000  
344.000000	 97.619000  
343.000000	 97.646000  
342.000000	 97.770000  
341.000000	 97.779000  
340.000000	 97.028000  
339.000000	 97.922000  
338.000000	 97.642000  
337.000000	 97.650000  
336.000000	 98.327000  
335.000000	 97.896000  
334.000000	 98.327000  
333.000000	 98.358000  
332.000000	 99.395000  
331.000000	 100.197000 
330.000000	 100.809000 
329.000000	 99.562000  
328.000000	 99.295999  
327.000000	 99.834999  
326.000000	 99.863000  
325.000000	 100.091000 
324.000000	 100.014000 
323.000000	 100.047000 
322.000000	 100.776000 
321.000000	 100.601000 
320.000000	 100.734000 
319.000000	 101.335000 
318.000000	 100.741000 
317.000000	 100.827000 
316.000000	 101.126000 
315.000000	 100.437000 
314.000000	 100.715000 
313.000000	 100.652000 
312.000000	 101.180000 
311.000000	 101.272000 
310.000000	 101.313000 
309.000000	 101.727000 
308.000000	 101.518000 
307.000000	 101.042000 
306.000000	 101.069000 
305.000000	 100.872000 
304.000000	 101.405000 
303.000000	 101.337000 
302.000000	 101.054000 
301.000000	 101.224000 
300.000000	 101.301000 
299.000000	 100.942000 
298.000000	 100.667000 
297.000000	 100.191000 
296.000000	 100.474000 
295.000000	 100.657000 
294.000000	 100.610000 
293.000000	 100.441000 
292.000000	 100.418000 
291.000000	 99.807999  
290.000000	 99.792999  
289.000000	 99.727000  
288.000000	 99.651000  
287.000000	 99.512000  
286.000000	 99.422000  
285.000000	 98.953999  
284.000000	 99.170000  
283.000000	 99.575000  
282.000000	 99.326000  
281.000000	 99.059000  
280.000000	 98.870000  
279.000000	 98.631999  
278.000000	 98.587999  
277.000000	 98.843000  
276.000000	 98.509999  
275.000000	 98.044000  
274.000000	 97.796000  
273.000000	 97.823000  
272.000000	 97.343000  
271.000000	 97.066000  
270.000000	 96.898000  
269.000000	 96.847000  
268.000000	 96.130000  
267.000000	 95.530000  
266.000000	 95.068000  
265.000000	 94.596999  
264.000000	 94.780000  
263.000000	 93.858000  
262.000000	 93.940000  
261.000000	 93.384000  
260.000000	 91.679999  
259.000000	 92.059000  
258.000000	 91.583000  
257.000000	 90.723000  
256.000000	 89.794000  
255.000000	 89.081999  
254.000000	 88.721000  
253.000000	 87.885000  
252.000000	 86.964000  
251.000000	 85.770000  
250.000000	 84.729000  
249.000000	 83.530000  
248.000000	 82.764000  
247.000000	 81.920000  
246.000000	 81.247000  
245.000000	 80.217000  
244.000000	 79.501000  
243.000000	 78.574000  
242.000000	 76.751000  
241.000000	 75.834000  
240.000000	 75.227999  
239.000000	 74.038000  
238.000000	 72.611000  
237.000000	 71.752000  
236.000000	 70.923000  
235.000000	 70.408000  
234.000000	 69.747000  
233.000000	 68.737000  
232.000000	 68.254000  
231.000000	 68.408999  
230.000000	 67.660000  
229.000000	 66.861999  
228.000000	 66.627000  
227.000000	 65.671000  
226.000000	 65.321000  
225.000000	 64.936000  
224.000000	 64.678000  
223.000000	 65.163000  
222.000000	 64.471999  
221.000000	 64.318000  
220.000000	 63.941000  
219.000000	 63.593999  
218.000000	 64.878000  
217.000000	 64.821000  
216.000000	 64.874000  
215.000000	 65.156000  
214.000000	 64.825000  
213.000000	 63.650000  
212.000000	 66.334999  
211.000000	 68.718999  
210.000000	 68.883000  
209.000000	 70.506999  
208.000000	 72.194999  
207.000000	 74.423000  
206.000000	 75.793000  
205.000000	 76.105000  
204.000000	 80.595000  
203.000000	 81.079000  
202.000000	 81.128000  
201.000000	 83.265999  
200.000000	 86.232000  
199.000000	 84.021999  
198.000000	 83.977000  
197.000000	 87.272000  
196.000000	 87.670999  
195.000000	 90.286000  
194.000000	 108.434000 
193.000000	 89.718000  
192.000000	 82.348000  
191.000000	 98.060999  
190.000000	 113.700000 

