7496.76250	0.000078
7494.83382	0.000099
7492.90514	0.000094
7490.97647	0.000068
7489.04779	0.000039
7487.11912	0.000021
7485.19044	0.000008
7483.26177	0.000003
7481.33309	0.000018
7479.40441	0.000032
7477.47574	0.000031
7475.54706	0.000038
7473.61839	0.000061
7471.68971	0.000080
7469.76104	0.000075
7467.83236	0.000059
7465.90368	0.000045
7463.97501	0.000043
7462.04633	0.000049
7460.11766	0.000054
7458.18898	0.000052
7456.26031	0.000054
7454.33163	0.000065
7452.40295	0.000066
7450.47428	0.000052
7448.54560	0.000040
7446.61693	0.000045
7444.68825	0.000059
7442.75958	0.000059
7440.83090	0.000055
7438.90222	0.000053
7436.97355	0.000053
7435.04487	0.000056
7433.11620	0.000062
7431.18752	0.000062
7429.25885	0.000060
7427.33017	0.000064
7425.40149	0.000064
7423.47282	0.000058
7421.54414	0.000056
7419.61547	0.000049
7417.68679	0.000032
7415.75812	0.000027
7413.82944	0.000037
7411.90076	0.000043
7409.97209	0.000041
7408.04341	0.000034
7406.11474	0.000034
7404.18606	0.000047
7402.25739	0.000053
7400.32871	0.000037
7398.40003	0.000012
7396.47136	0.000008
7394.54268	0.000021
7392.61401	0.000025
7390.68533	0.000031
7388.75666	0.000046
7386.82798	0.000042
7384.89930	0.000023
7382.97063	0.000018
7381.04195	0.000026
7379.11328	0.000030
7377.18460	0.000021
7375.25593	0.000007
7373.32725	0.000006
7371.39857	0.000024
7369.46990	0.000053
7367.54122	0.000071
7365.61255	0.000063
7363.68387	0.000052
7361.75520	0.000060
7359.82652	0.000070
7357.89784	0.000067
7355.96917	0.000050
7354.04049	0.000029
7352.11182	0.000024
7350.18314	0.000036
7348.25447	0.000051
7346.32579	0.000061
7344.39711	0.000057
7342.46844	0.000039
7340.53976	0.000030
7338.61109	0.000041
7336.68241	0.000051
7334.75374	0.000049
7332.82506	0.000049
7330.89638	0.000054
7328.96771	0.000062
7327.03903	0.000072
7325.11036	0.000076
7323.18168	0.000064
7321.25301	0.000044
7319.32433	0.000039
7317.39565	0.000053
7315.46698	0.000059
7313.53830	0.000050
7311.60963	0.000056
7309.68095	0.000069
7307.75228	0.000060
7305.82360	0.000045
7303.89492	0.000038
7301.96625	0.000023
7300.03757	0.000018
7298.10890	0.000041
7296.18022	0.000059
7294.25155	0.000060
7292.32287	0.000060
7290.39419	0.000053
7288.46552	0.000035
7286.53684	0.000024
7284.60817	0.000027
7282.67949	0.000034
7280.75082	0.000038
7278.82214	0.000035
7276.89346	0.000028
7274.96479	0.000028
7273.03611	0.000038
7271.10744	0.000052
7269.17876	0.000070
7267.25009	0.000074
7265.32141	0.000061
7263.39273	0.000052
7261.46406	0.000051
7259.53538	0.000048
7257.60671	0.000044
7255.67803	0.000049
7253.74936	0.000066
7251.82068	0.000079
7249.89200	0.000072
7247.96333	0.000061
7246.03465	0.000049
7244.10598	0.000030
7242.17730	0.000018
7240.24863	0.000026
7238.31995	0.000042
7236.39127	0.000043
7234.46260	0.000037
7232.53392	0.000048
7230.60525	0.000070
7228.67657	0.000074
7226.74790	0.000060
7224.81922	0.000050
7222.89054	0.000045
7220.96187	0.000039
7219.03319	0.000051
7217.10452	0.000089
7215.17584	0.000113
7213.24717	0.000102
7211.31849	0.000079
7209.38981	0.000060
7207.46114	0.000061
7205.53246	0.000072
7203.60379	0.000058
7201.67511	0.000031
7199.74644	0.000024
7197.81776	0.000026
7195.88908	0.000019
7193.96041	0.000013
7192.03173	0.000017
7190.10306	0.000021
7188.17438	0.000021
7186.24571	0.000017
7184.31703	0.000032
7182.38835	0.000077
7180.45968	0.000105
7178.53100	0.000092
7176.60233	0.000072
7174.67365	0.000062
7172.74498	0.000059
7170.81630	0.000065
7168.88762	0.000080
7166.95895	0.000086
7165.03027	0.000075
7163.10160	0.000059
7161.17292	0.000048
7159.24425	0.000045
7157.31557	0.000056
7155.38689	0.000072
7153.45822	0.000069
7151.52954	0.000053
7149.60087	0.000047
7147.67219	0.000044
7145.74352	0.000028
7143.81484	0.000023
7141.88616	0.000045
7139.95749	0.000062
7138.02881	0.000047
7136.10014	0.000029
7134.17146	0.000041
7132.24279	0.000068
7130.31411	0.000069
7128.38543	0.000050
7126.45676	0.000045
7124.52808	0.000057
7122.59941	0.000062
7120.67073	0.000058
7118.74206	0.000059
7116.81338	0.000071
7114.88470	0.000078
7112.95603	0.000070
7111.02735	0.000062
7109.09868	0.000052
7107.17000	0.000024
7105.24133	-0.000003
7103.31265	0.000002
7101.38397	0.000027
7099.45530	0.000049
7097.52662	0.000073
7095.59795	0.000091
7093.66927	0.000087
7091.74060	0.000064
7089.81192	0.000042
7087.88324	0.000037
7085.95457	0.000042
7084.02589	0.000036
7082.09722	0.000022
7080.16854	0.000017
7078.23987	0.000015
7076.31119	0.000010
7074.38251	0.000023
7072.45384	0.000056
7070.52516	0.000085
7068.59649	0.000089
7066.66781	0.000068
7064.73914	0.000041
7062.81046	0.000029
7060.88178	0.000033
7058.95311	0.000045
7057.02443	0.000053
7055.09576	0.000050
7053.16708	0.000052
7051.23841	0.000075
7049.30973	0.000092
7047.38105	0.000088
7045.45238	0.000081
7043.52370	0.000079
7041.59503	0.000068
7039.66635	0.000056
7037.73768	0.000051
7035.80900	0.000047
7033.88032	0.000039
7031.95165	0.000036
7030.02297	0.000048
7028.09430	0.000048
7026.16562	0.000036
7024.23695	0.000045
7022.30827	0.000067
7020.37959	0.000065
7018.45092	0.000046
7016.52224	0.000043
7014.59357	0.000061
7012.66489	0.000073
7010.73622	0.000072
7008.80754	0.000074
7006.87886	0.000067
7004.95019	0.000049
7003.02151	0.000041
7001.09284	0.000043
6999.16416	0.000043
6997.23549	0.000046
6995.30681	0.000045
6993.37813	0.000029
6991.44946	0.000019
6989.52078	0.000032
6987.59211	0.000050
6985.66343	0.000062
6983.73476	0.000067
6981.80608	0.000072
6979.87740	0.000076
6977.94873	0.000081
6976.02005	0.000090
6974.09138	0.000103
6972.16270	0.000111
6970.23403	0.000112
6968.30535	0.000101
6966.37667	0.000080
6964.44800	0.000061
6962.51932	0.000050
6960.59065	0.000056
6958.66197	0.000075
6956.73330	0.000089
6954.80462	0.000089
6952.87594	0.000084
6950.94727	0.000073
6949.01859	0.000053
6947.08992	0.000040
6945.16124	0.000049
6943.23257	0.000067
6941.30389	0.000064
6939.37521	0.000056
6937.44654	0.000066
6935.51786	0.000068
6933.58919	0.000053
6931.66051	0.000052
6929.73184	0.000067
6927.80316	0.000071
6925.87448	0.000073
6923.94581	0.000080
6922.01713	0.000086
6920.08846	0.000092
6918.15978	0.000098
6916.23111	0.000084
6914.30243	0.000045
6912.37375	0.000024
6910.44508	0.000042
6908.51640	0.000070
6906.58773	0.000086
6904.65905	0.000092
6902.73038	0.000091
6900.80170	0.000088
6898.87302	0.000084
6896.94435	0.000069
6895.01567	0.000051
6893.08700	0.000046
6891.15832	0.000067
6889.22965	0.000103
6887.30097	0.000126
6885.37229	0.000129
6883.44362	0.000119
6881.51494	0.000100
6879.58627	0.000090
6877.65759	0.000099
6875.72892	0.000105
6873.80024	0.000087
6871.87156	0.000062
6869.94289	0.000052
6868.01421	0.000063
6866.08554	0.000073
6864.15686	0.000070
6862.22819	0.000065
6860.29951	0.000065
6858.37083	0.000067
6856.44216	0.000073
6854.51348	0.000078
6852.58481	0.000068
6850.65613	0.000047
6848.72746	0.000047
6846.79878	0.000077
6844.87010	0.000102
6842.94143	0.000103
6841.01275	0.000097
6839.08408	0.000093
6837.15540	0.000090
6835.22673	0.000092
6833.29805	0.000089
6831.36937	0.000077
6829.44070	0.000064
6827.51202	0.000057
6825.58335	0.000058
6823.65467	0.000072
6821.72600	0.000089
6819.79732	0.000094
6817.86864	0.000095
6815.93997	0.000102
6814.01129	0.000108
6812.08262	0.000111
6810.15394	0.000117
6808.22527	0.000114
6806.29659	0.000091
6804.36791	0.000077
6802.43924	0.000081
6800.51056	0.000086
6798.58189	0.000093
6796.65321	0.000100
6794.72454	0.000100
6792.79586	0.000102
6790.86718	0.000109
6788.93851	0.000104
6787.00983	0.000084
6785.08116	0.000067
6783.15248	0.000053
6781.22381	0.000038
6779.29513	0.000035
6777.36645	0.000045
6775.43778	0.000053
6773.50910	0.000061
6771.58043	0.000073
6769.65175	0.000095
6767.72308	0.000115
6765.79440	0.000125
6763.86572	0.000115
6761.93705	0.000090
6760.00837	0.000075
6758.07970	0.000089
6756.15102	0.000104
6754.22235	0.000100
6752.29367	0.000087
6750.36499	0.000081
6748.43632	0.000081
6746.50764	0.000088
6744.57897	0.000101
6742.65029	0.000108
6740.72162	0.000097
6738.79294	0.000080
6736.86426	0.000084
6734.93559	0.000107
6733.00691	0.000117
6731.07824	0.000114
6729.14956	0.000110
6727.22089	0.000097
6725.29221	0.000085
6723.36353	0.000091
6721.43486	0.000101
6719.50618	0.000096
6717.57751	0.000091
6715.64883	0.000095
6713.72016	0.000097
6711.79148	0.000091
6709.86280	0.000081
6707.93413	0.000077
6706.00545	0.000087
6704.07678	0.000090
6702.14810	0.000070
6700.21943	0.000054
6698.29075	0.000052
6696.36207	0.000059
6694.43340	0.000073
6692.50472	0.000080
6690.57605	0.000088
6688.64737	0.000112
6686.71870	0.000128
6684.79002	0.000121
6682.86134	0.000105
6680.93267	0.000096
6679.00399	0.000095
6677.07532	0.000101
6675.14664	0.000106
6673.21797	0.000106
6671.28929	0.000098
6669.36061	0.000089
6667.43194	0.000070
6665.50326	0.000047
6663.57459	0.000043
6661.64591	0.000062
6659.71724	0.000089
6657.78856	0.000106
6655.85988	0.000110
6653.93121	0.000114
6652.00253	0.000119
6650.07386	0.000116
6648.14518	0.000102
6646.21651	0.000084
6644.28783	0.000083
6642.35915	0.000103
6640.43048	0.000129
6638.50180	0.000147
6636.57313	0.000140
6634.64445	0.000109
6632.71578	0.000096
6630.78710	0.000113
6628.85842	0.000120
6626.92975	0.000104
6625.00107	0.000084
6623.07240	0.000089
6621.14372	0.000105
6619.21505	0.000102
6617.28637	0.000085
6615.35769	0.000073
6613.42902	0.000073
6611.50034	0.000076
6609.57167	0.000075
6607.64299	0.000085
6605.71432	0.000116
6603.78564	0.000140
6601.85696	0.000128
6599.92829	0.000102
6597.99961	0.000090
6596.07094	0.000081
6594.14226	0.000072
6592.21359	0.000084
6590.28491	0.000107
6588.35623	0.000108
6586.42756	0.000097
6584.49888	0.000094
6582.57021	0.000096
6580.64153	0.000105
6578.71286	0.000123
6576.78418	0.000135
6574.85550	0.000124
6572.92683	0.000103
6570.99815	0.000086
6569.06948	0.000069
6567.14080	0.000052
6565.21213	0.000043
6563.28345	0.000050
6561.35477	0.000068
6559.42610	0.000082
6557.49742	0.000092
6555.56875	0.000105
6553.64007	0.000121
6551.71140	0.000131
6549.78272	0.000137
6547.85404	0.000138
6545.92537	0.000115
6543.99669	0.000093
6542.06802	0.000102
6540.13934	0.000123
6538.21067	0.000130
6536.28199	0.000127
6534.35331	0.000124
6532.42464	0.000110
6530.49596	0.000087
6528.56729	0.000074
6526.63861	0.000075
6524.70994	0.000080
6522.78126	0.000090
6520.85258	0.000109
6518.92391	0.000127
6516.99523	0.000120
6515.06656	0.000104
6513.13788	0.000104
6511.20921	0.000112
6509.28053	0.000115
6507.35185	0.000112
6505.42318	0.000116
6503.49450	0.000127
6501.56583	0.000120
6499.63715	0.000104
6497.70848	0.000101
6495.77980	0.000101
6493.85112	0.000095
6491.92245	0.000085
6489.99377	0.000069
6488.06510	0.000060
6486.13642	0.000069
6484.20775	0.000083
6482.27907	0.000087
6480.35039	0.000086
6478.42172	0.000097
6476.49304	0.000109
6474.56437	0.000111
6472.63569	0.000101
6470.70702	0.000084
6468.77834	0.000078
6466.84966	0.000085
6464.92099	0.000092
6462.99231	0.000093
6461.06364	0.000096
6459.13496	0.000101
6457.20629	0.000103
6455.27761	0.000091
6453.34893	0.000081
6451.42026	0.000080
6449.49158	0.000077
6447.56291	0.000080
6445.63423	0.000091
6443.70556	0.000108
6441.77688	0.000133
6439.84820	0.000138
6437.91953	0.000108
6435.99085	0.000072
6434.06218	0.000053
6432.13350	0.000053
6430.20483	0.000067
6428.27615	0.000087
6426.34747	0.000096
6424.41880	0.000086
6422.49012	0.000071
6420.56145	0.000069
6418.63277	0.000091
6416.70410	0.000116
6414.77542	0.000116
6412.84674	0.000105
6410.91807	0.000102
6408.98939	0.000104
6407.06072	0.000114
6405.13204	0.000127
6403.20337	0.000133
6401.27469	0.000127
6399.34601	0.000117
6397.41734	0.000120
6395.48866	0.000121
6393.55999	0.000106
6391.63131	0.000092
6389.70264	0.000093
6387.77396	0.000101
6385.84528	0.000102
6383.91661	0.000099
6381.98793	0.000094
6380.05926	0.000091
6378.13058	0.000093
6376.20191	0.000111
6374.27323	0.000130
6372.34455	0.000140
6370.41588	0.000154
6368.48720	0.000168
6366.55853	0.000164
6364.62985	0.000141
6362.70118	0.000116
6360.77250	0.000102
6358.84382	0.000099
6356.91515	0.000106
6354.98647	0.000117
6353.05780	0.000112
6351.12912	0.000100
6349.20045	0.000105
6347.27177	0.000116
6345.34309	0.000112
6343.41442	0.000101
6341.48574	0.000100
6339.55707	0.000105
6337.62839	0.000110
6335.69972	0.000116
6333.77104	0.000128
6331.84236	0.000138
6329.91369	0.000148
6327.98501	0.000160
6326.05634	0.000165
6324.12766	0.000165
6322.19899	0.000167
6320.27031	0.000154
6318.34163	0.000129
6316.41296	0.000122
6314.48428	0.000135
6312.55561	0.000143
6310.62693	0.000129
6308.69826	0.000106
6306.76958	0.000097
6304.84090	0.000109
6302.91223	0.000125
6300.98355	0.000130
6299.05488	0.000137
6297.12620	0.000139
6295.19753	0.000132
6293.26885	0.000127
6291.34017	0.000122
6289.41150	0.000114
6287.48282	0.000116
6285.55415	0.000127
6283.62547	0.000141
6281.69680	0.000147
6279.76812	0.000151
6277.83944	0.000163
6275.91077	0.000159
6273.98209	0.000127
6272.05342	0.000104
6270.12474	0.000115
6268.19607	0.000138
6266.26739	0.000145
6264.33871	0.000142
6262.41004	0.000131
6260.48136	0.000116
6258.55269	0.000106
6256.62401	0.000089
6254.69534	0.000078
6252.76666	0.000098
6250.83798	0.000128
6248.90931	0.000150
6246.98063	0.000153
6245.05196	0.000134
6243.12328	0.000115
6241.19461	0.000114
6239.26593	0.000125
6237.33725	0.000136
6235.40858	0.000133
6233.47990	0.000128
6231.55123	0.000145
6229.62255	0.000166
6227.69388	0.000169
6225.76520	0.000170
6223.83652	0.000175
6221.90785	0.000154
6219.97917	0.000112
6218.05050	0.000100
6216.12182	0.000130
6214.19315	0.000165
6212.26447	0.000178
6210.33579	0.000169
6208.40712	0.000156
6206.47844	0.000154
6204.54977	0.000153
6202.62109	0.000145
6200.69242	0.000147
6198.76374	0.000168
6196.83506	0.000185
6194.90639	0.000182
6192.97771	0.000179
6191.04904	0.000189
6189.12036	0.000183
6187.19169	0.000144
6185.26301	0.000111
6183.33433	0.000120
6181.40566	0.000147
6179.47698	0.000150
6177.54831	0.000139
6175.61963	0.000139
6173.69096	0.000145
6171.76228	0.000145
6169.83360	0.000142
6167.90493	0.000142
6165.97625	0.000146
6164.04758	0.000140
6162.11890	0.000127
6160.19023	0.000128
6158.26155	0.000144
6156.33287	0.000153
6154.40420	0.000148
6152.47552	0.000143
6150.54685	0.000140
6148.61817	0.000135
6146.68950	0.000129
6144.76082	0.000127
6142.83214	0.000137
6140.90347	0.000147
6138.97479	0.000140
6137.04612	0.000139
6135.11744	0.000163
6133.18877	0.000177
6131.26009	0.000152
6129.33141	0.000116
6127.40274	0.000112
6125.47406	0.000121
6123.54539	0.000123
6121.61671	0.000134
6119.68804	0.000149
6117.75936	0.000146
6115.83068	0.000131
6113.90201	0.000117
6111.97333	0.000106
6110.04466	0.000110
6108.11598	0.000123
6106.18731	0.000129
6104.25863	0.000137
6102.32995	0.000157
6100.40128	0.000173
6098.47260	0.000173
6096.54393	0.000155
6094.61525	0.000135
6092.68658	0.000136
6090.75790	0.000158
6088.82922	0.000170
6086.90055	0.000161
6084.97187	0.000146
6083.04320	0.000132
6081.11452	0.000123
6079.18585	0.000124
6077.25717	0.000144
6075.32849	0.000181
6073.39982	0.000210
6071.47114	0.000215
6069.54247	0.000194
6067.61379	0.000164
6065.68512	0.000146
6063.75644	0.000144
6061.82776	0.000150
6059.89909	0.000157
6057.97041	0.000158
6056.04174	0.000152
6054.11306	0.000151
6052.18439	0.000167
6050.25571	0.000181
6048.32703	0.000173
6046.39836	0.000160
6044.46968	0.000150
6042.54101	0.000137
6040.61233	0.000139
6038.68366	0.000176
6036.75498	0.000212
6034.82630	0.000219
6032.89763	0.000220
6030.96895	0.000205
6029.04028	0.000178
6027.11160	0.000168
6025.18293	0.000160
6023.25425	0.000143
6021.32557	0.000139
6019.39690	0.000141
6017.46822	0.000142
6015.53955	0.000155
6013.61087	0.000163
6011.68220	0.000151
6009.75352	0.000145
6007.82484	0.000149
6005.89617	0.000147
6003.96749	0.000150
6002.03882	0.000169
6000.11014	0.000199
5998.18147	0.000216
5996.25279	0.000213
5994.32411	0.000210
5992.39544	0.000210
5990.46676	0.000202
5988.53809	0.000194
5986.60941	0.000193
5984.68074	0.000191
5982.75206	0.000185
5980.82338	0.000180
5978.89471	0.000184
5976.96603	0.000184
5975.03736	0.000177
5973.10868	0.000176
5971.18001	0.000171
5969.25133	0.000159
5967.32265	0.000151
5965.39398	0.000146
5963.46530	0.000143
5961.53663	0.000153
5959.60795	0.000161
5957.67928	0.000151
5955.75060	0.000144
5953.82192	0.000163
5951.89325	0.000172
5949.96457	0.000172
5948.03590	0.000188
5946.10722	0.000200
5944.17855	0.000203
5942.24987	0.000219
5940.32119	0.000225
5938.39252	0.000207
5936.46384	0.000189
5934.53517	0.000176
5932.60649	0.000149
5930.67782	0.000133
5928.74914	0.000151
5926.82046	0.000165
5924.89179	0.000160
5922.96311	0.000167
5921.03444	0.000179
5919.10576	0.000169
5917.17709	0.000154
5915.24841	0.000154
5913.31973	0.000168
5911.39106	0.000186
5909.46238	0.000193
5907.53371	0.000185
5905.60503	0.000177
5903.67636	0.000185
5901.74768	0.000213
5899.81900	0.000226
5897.89033	0.000216
5895.96165	0.000210
5894.03298	0.000216
5892.10430	0.000220
5890.17563	0.000213
5888.24695	0.000193
5886.31827	0.000181
5884.38960	0.000175
5882.46092	0.000147
5880.53225	0.000121
5878.60357	0.000137
5876.67490	0.000195
5874.74622	0.000250
5872.81755	0.000254
5870.88887	0.000215
5868.96019	0.000189
5867.03152	0.000187
5865.10284	0.000184
5863.17417	0.000192
5861.24549	0.000220
5859.31682	0.000235
5857.38814	0.000222
5855.45946	0.000199
5853.53079	0.000201
5851.60211	0.000208
5849.67344	0.000185
5847.74476	0.000160
5845.81609	0.000166
5843.88741	0.000188
5841.95873	0.000189
5840.03006	0.000170
5838.10138	0.000161
5836.17271	0.000152
5834.24403	0.000141
5832.31536	0.000138
5830.38668	0.000136
5828.45800	0.000143
5826.52933	0.000166
5824.60065	0.000190
5822.67198	0.000197
5820.74330	0.000182
5818.81463	0.000165
5816.88595	0.000166
5814.95727	0.000178
5813.02860	0.000196
5811.09992	0.000226
5809.17125	0.000253
5807.24257	0.000259
5805.31390	0.000251
5803.38522	0.000235
5801.45654	0.000215
5799.52787	0.000206
5797.59919	0.000210
5795.67052	0.000215
5793.74184	0.000227
5791.81317	0.000236
5789.88449	0.000212
5787.95581	0.000174
5786.02714	0.000163
5784.09846	0.000183
5782.16979	0.000203
5780.24111	0.000215
5778.31244	0.000223
5776.38376	0.000218
5774.45508	0.000206
5772.52641	0.000208
5770.59773	0.000225
5768.66906	0.000236
5766.74038	0.000233
5764.81171	0.000234
5762.88303	0.000243
5760.95435	0.000225
5759.02568	0.000183
5757.09700	0.000161
5755.16833	0.000183
5753.23965	0.000218
5751.31098	0.000228
5749.38230	0.000219
5747.45362	0.000220
5745.52495	0.000235
5743.59627	0.000245
5741.66760	0.000261
5739.73892	0.000289
5737.81025	0.000286
5735.88157	0.000251
5733.95289	0.000232
5732.02422	0.000228
5730.09554	0.000225
5728.16687	0.000228
5726.23819	0.000228
5724.30952	0.000222
5722.38084	0.000218
5720.45216	0.000222
5718.52349	0.000233
5716.59481	0.000235
5714.66614	0.000214
5712.73746	0.000185
5710.80879	0.000175
5708.88011	0.000192
5706.95143	0.000215
5705.02276	0.000222
5703.09408	0.000221
5701.16541	0.000218
5699.23673	0.000210
5697.30806	0.000210
5695.37938	0.000226
5693.45070	0.000242
5691.52203	0.000245
5689.59335	0.000249
5687.66468	0.000244
5685.73600	0.000207
5683.80733	0.000171
5681.87865	0.000172
5679.94997	0.000198
5678.02130	0.000229
5676.09262	0.000243
5674.16395	0.000235
5672.23527	0.000223
5670.30660	0.000223
5668.37792	0.000233
5666.44924	0.000248
5664.52057	0.000261
5662.59189	0.000257
5660.66322	0.000245
5658.73454	0.000240
5656.80587	0.000244
5654.87719	0.000247
5652.94851	0.000233
5651.01984	0.000208
5649.09116	0.000205
5647.16249	0.000223
5645.23381	0.000234
5643.30514	0.000229
5641.37646	0.000218
5639.44778	0.000219
5637.51911	0.000222
5635.59043	0.000206
5633.66176	0.000195
5631.73308	0.000217
5629.80441	0.000247
5627.87573	0.000259
5625.94705	0.000263
5624.01838	0.000264
5622.08970	0.000256
5620.16103	0.000237
5618.23235	0.000227
5616.30368	0.000247
5614.37500	0.000270
5612.44632	0.000265
5610.51765	0.000256
5608.58897	0.000262
5606.66030	0.000273
5604.73162	0.000274
5602.80295	0.000261
5600.87427	0.000249
5598.94559	0.000260
5597.01692	0.000276
5595.08824	0.000269
5593.15957	0.000251
5591.23089	0.000256
5589.30222	0.000284
5587.37354	0.000293
5585.44486	0.000270
5583.51619	0.000247
5581.58751	0.000244
5579.65884	0.000249
5577.73016	0.000259
5575.80149	0.000265
5573.87281	0.000258
5571.94413	0.000246
5570.01546	0.000230
5568.08678	0.000213
5566.15811	0.000202
5564.22943	0.000192
5562.30076	0.000194
5560.37208	0.000218
5558.44340	0.000245
5556.51473	0.000258
5554.58605	0.000259
5552.65738	0.000259
5550.72870	0.000268
5548.80003	0.000271
5546.87135	0.000261
5544.94267	0.000261
5543.01400	0.000280
5541.08532	0.000290
5539.15665	0.000271
5537.22797	0.000261
5535.29930	0.000272
5533.37062	0.000272
5531.44194	0.000264
5529.51327	0.000263
5527.58459	0.000267
5525.65592	0.000275
5523.72724	0.000266
5521.79857	0.000237
5519.86989	0.000230
5517.94121	0.000249
5516.01254	0.000264
5514.08386	0.000273
5512.15519	0.000281
5510.22651	0.000285
5508.29784	0.000289
5506.36916	0.000295
5504.44048	0.000295
5502.51181	0.000284
5500.58313	0.000268
5498.65446	0.000256
5496.72578	0.000251
5494.79711	0.000265
5492.86843	0.000293
5490.93975	0.000292
5489.01108	0.000258
5487.08240	0.000248
5485.15373	0.000269
5483.22505	0.000278
5481.29638	0.000266
5479.36770	0.000259
5477.43902	0.000278
5475.51035	0.000307
5473.58167	0.000324
5471.65300	0.000316
5469.72432	0.000296
5467.79565	0.000292
5465.86697	0.000305
5463.93829	0.000322
5462.00962	0.000340
5460.08094	0.000347
5458.15227	0.000332
5456.22359	0.000312
5454.29492	0.000308
5452.36624	0.000308
5450.43756	0.000301
5448.50889	0.000299
5446.58021	0.000309
5444.65154	0.000320
5442.72286	0.000322
5440.79419	0.000314
5438.86551	0.000303
5436.93683	0.000299
5435.00816	0.000295
5433.07948	0.000285
5431.15081	0.000279
5429.22213	0.000296
5427.29346	0.000324
5425.36478	0.000334
5423.43610	0.000323
5421.50743	0.000291
5419.57875	0.000267
5417.65008	0.000276
5415.72140	0.000291
5413.79273	0.000296
5411.86405	0.000289
5409.93537	0.000270
5408.00670	0.000268
5406.07802	0.000295
5404.14935	0.000306
5402.22067	0.000286
5400.29200	0.000280
5398.36332	0.000291
5396.43464	0.000280
5394.50597	0.000249
5392.57729	0.000235
5390.64862	0.000262
5388.71994	0.000293
5386.79127	0.000286
5384.86259	0.000282
5382.93391	0.000313
5381.00524	0.000339
5379.07656	0.000326
5377.14789	0.000278
5375.21921	0.000240
5373.29054	0.000251
5371.36186	0.000286
5369.43318	0.000304
5367.50451	0.000304
5365.57583	0.000310
5363.64716	0.000331
5361.71848	0.000359
5359.78981	0.000376
5357.86113	0.000351
5355.93245	0.000298
5354.00378	0.000281
5352.07510	0.000313
5350.14643	0.000341
5348.21775	0.000336
5346.28908	0.000327
5344.36040	0.000331
5342.43172	0.000329
5340.50305	0.000322
5338.57437	0.000336
5336.64570	0.000363
5334.71702	0.000373
5332.78835	0.000369
5330.85967	0.000362
5328.93099	0.000349
5327.00232	0.000333
5325.07364	0.000321
5323.14497	0.000308
5321.21629	0.000297
5319.28762	0.000291
5317.35894	0.000285
5315.43026	0.000287
5313.50159	0.000296
5311.57291	0.000300
5309.64424	0.000311
5307.71556	0.000325
5305.78689	0.000322
5303.85821	0.000315
5301.92953	0.000313
5300.00086	0.000308
5298.07218	0.000318
5296.14351	0.000341
5294.21483	0.000331
5292.28616	0.000288
5290.35748	0.000261
5288.42880	0.000258
5286.50013	0.000262
5284.57145	0.000271
5282.64278	0.000295
5280.71410	0.000324
5278.78543	0.000339
5276.85675	0.000339
5274.92807	0.000324
5272.99940	0.000308
5271.07072	0.000312
5269.14205	0.000329
5267.21337	0.000345
5265.28470	0.000353
5263.35602	0.000356
5261.42734	0.000366
5259.49867	0.000382
5257.56999	0.000383
5255.64132	0.000358
5253.71264	0.000332
5251.78397	0.000323
5249.85529	0.000322
5247.92661	0.000329
5245.99794	0.000356
5244.06926	0.000379
5242.14059	0.000378
5240.21191	0.000374
5238.28324	0.000386
5236.35456	0.000402
5234.42588	0.000394
5232.49721	0.000358
5230.56853	0.000327
5228.63986	0.000328
5226.71118	0.000347
5224.78251	0.000362
5222.85383	0.000360
5220.92515	0.000346
5218.99648	0.000347
5217.06780	0.000361
5215.13913	0.000364
5213.21045	0.000363
5211.28178	0.000365
5209.35310	0.000359
5207.42442	0.000355
5205.49575	0.000361
5203.56707	0.000360
5201.63840	0.000358
5199.70972	0.000373
5197.78105	0.000391
5195.85237	0.000385
5193.92369	0.000364
5191.99502	0.000353
5190.06634	0.000353
5188.13767	0.000361
5186.20899	0.000371
5184.28032	0.000377
5182.35164	0.000367
5180.42296	0.000349
5178.49429	0.000339
5176.56561	0.000330
5174.63694	0.000309
5172.70826	0.000298
5170.77959	0.000317
5168.85091	0.000343
5166.92223	0.000359
5164.99356	0.000365
5163.06488	0.000360
5161.13621	0.000354
5159.20753	0.000354
5157.27886	0.000349
5155.35018	0.000330
5153.42150	0.000310
5151.49283	0.000321
5149.56415	0.000350
5147.63548	0.000363
5145.70680	0.000364
5143.77813	0.000357
5141.84945	0.000335
5139.92077	0.000328
5137.99210	0.000350
5136.06342	0.000372
5134.13475	0.000379
5132.20607	0.000386
5130.27740	0.000398
5128.34872	0.000405
5126.42004	0.000397
5124.49137	0.000372
5122.56269	0.000349
5120.63402	0.000350
5118.70534	0.000367
5116.77667	0.000380
5114.84799	0.000381
5112.91931	0.000373
5110.99064	0.000367
5109.06196	0.000372
5107.13329	0.000395
5105.20461	0.000409
5103.27594	0.000397
5101.34726	0.000379
5099.41858	0.000370
5097.48991	0.000381
5095.56123	0.000404
5093.63256	0.000409
5091.70388	0.000391
5089.77521	0.000382
5087.84653	0.000393
5085.91785	0.000398
5083.98918	0.000394
5082.06050	0.000397
5080.13183	0.000413
5078.20315	0.000425
5076.27448	0.000425
5074.34580	0.000412
5072.41712	0.000398
5070.48845	0.000396
5068.55977	0.000406
5066.63110	0.000414
5064.70242	0.000407
5062.77375	0.000384
5060.84507	0.000360
5058.91639	0.000359
5056.98772	0.000389
5055.05904	0.000420
5053.13037	0.000420
5051.20169	0.000400
5049.27302	0.000382
5047.34434	0.000364
5045.41566	0.000365
5043.48699	0.000388
5041.55831	0.000410
5039.62964	0.000433
5037.70096	0.000447
5035.77229	0.000436
5033.84361	0.000416
5031.91493	0.000405
5029.98626	0.000415
5028.05758	0.000444
5026.12891	0.000455
5024.20023	0.000435
5022.27156	0.000415
5020.34288	0.000398
5018.41420	0.000382
5016.48553	0.000391
5014.55685	0.000407
5012.62818	0.000404
5010.69950	0.000389
5008.77083	0.000381
5006.84215	0.000385
5004.91347	0.000390
5002.98480	0.000379
5001.05612	0.000360
4999.12745	0.000362
4997.19877	0.000381
4995.27010	0.000395
4993.34142	0.000396
4991.41274	0.000381
4989.48407	0.000375
4987.55539	0.000389
4985.62672	0.000402
4983.69804	0.000400
4981.76937	0.000388
4979.84069	0.000390
4977.91201	0.000410
4975.98334	0.000423
4974.05466	0.000412
4972.12599	0.000396
4970.19731	0.000408
4968.26864	0.000440
4966.33996	0.000449
4964.41128	0.000431
4962.48261	0.000405
4960.55393	0.000381
4958.62526	0.000375
4956.69658	0.000399
4954.76791	0.000439
4952.83923	0.000464
4950.91055	0.000452
4948.98188	0.000424
4947.05320	0.000411
4945.12453	0.000431
4943.19585	0.000472
4941.26718	0.000492
4939.33850	0.000479
4937.40982	0.000468
4935.48115	0.000473
4933.55247	0.000480
4931.62380	0.000491
4929.69512	0.000509
4927.76645	0.000503
4925.83777	0.000466
4923.90909	0.000432
4921.98042	0.000426
4920.05174	0.000436
4918.12307	0.000444
4916.19439	0.000456
4914.26572	0.000467
4912.33704	0.000458
4910.40836	0.000437
4908.47969	0.000425
4906.55101	0.000430
4904.62234	0.000439
4902.69366	0.000431
4900.76499	0.000413
4898.83631	0.000401
4896.90763	0.000409
4894.97896	0.000439
4893.05028	0.000461
4891.12161	0.000453
4889.19293	0.000441
4887.26426	0.000441
4885.33558	0.000437
4883.40690	0.000430
4881.47823	0.000415
4879.54955	0.000398
4877.62088	0.000413
4875.69220	0.000458
4873.76353	0.000476
4871.83485	0.000459
4869.90617	0.000446
4867.97750	0.000442
4866.04882	0.000442
4864.12015	0.000451
4862.19147	0.000460
4860.26280	0.000464
4858.33412	0.000467
4856.40544	0.000466
4854.47677	0.000448
4852.54809	0.000440
4850.61942	0.000469
4848.69074	0.000502
4846.76207	0.000505
4844.83339	0.000483
4842.90471	0.000447
4840.97604	0.000418
4839.04736	0.000427
4837.11869	0.000469
4835.19001	0.000507
4833.26134	0.000497
4831.33266	0.000466
4829.40398	0.000476
4827.47531	0.000513
4825.54663	0.000524
4823.61796	0.000510
4821.68928	0.000489
4819.76061	0.000466
4817.83193	0.000443
4815.90325	0.000426
4813.97458	0.000425
4812.04590	0.000433
4810.11723	0.000431
4808.18855	0.000430
4806.25988	0.000445
4804.33120	0.000464
4802.40252	0.000475
4800.47385	0.000469
4798.54517	0.000444
4796.61650	0.000421
4794.68782	0.000424
4792.75915	0.000449
4790.83047	0.000476
4788.90179	0.000478
4786.97312	0.000462
4785.04444	0.000478
4783.11577	0.000526
4781.18709	0.000563
4779.25842	0.000570
4777.32974	0.000546
4775.40106	0.000496
4773.47239	0.000455
4771.54371	0.000452
4769.61504	0.000464
4767.68636	0.000459
4765.75769	0.000450
4763.82901	0.000449
4761.90033	0.000447
4759.97166	0.000448
4758.04298	0.000458
4756.11431	0.000475
4754.18563	0.000501
4752.25696	0.000525
4750.32828	0.000540
4748.39960	0.000551
4746.47093	0.000549
4744.54225	0.000512
4742.61358	0.000461
4740.68490	0.000445
4738.75623	0.000480
4736.82755	0.000524
4734.89887	0.000532
4732.97020	0.000507
4731.04152	0.000485
4729.11285	0.000482
4727.18417	0.000503
4725.25550	0.000531
4723.32682	0.000545
4721.39814	0.000528
4719.46947	0.000497
4717.54079	0.000497
4715.61212	0.000517
4713.68344	0.000515
4711.75477	0.000499
4709.82609	0.000505
4707.89741	0.000527
4705.96874	0.000543
4704.04006	0.000548
4702.11139	0.000541
4700.18271	0.000531
4698.25404	0.000543
4696.32536	0.000554
4694.39668	0.000528
4692.46801	0.000477
4690.53933	0.000442
4688.61066	0.000453
4686.68198	0.000495
4684.75331	0.000522
4682.82463	0.000531
4680.89595	0.000558
4678.96728	0.000594
4677.03860	0.000599
4675.10993	0.000570
4673.18125	0.000532
4671.25258	0.000514
4669.32390	0.000528
4667.39522	0.000548
4665.46655	0.000541
4663.53787	0.000529
4661.60920	0.000536
4659.68052	0.000549
4657.75185	0.000548
4655.82317	0.000532
4653.89449	0.000530
4651.96582	0.000552
4650.03714	0.000563
4648.10847	0.000556
4646.17979	0.000553
4644.25112	0.000564
4642.32244	0.000574
4640.39376	0.000563
4638.46509	0.000539
4636.53641	0.000532
4634.60774	0.000554
4632.67906	0.000570
4630.75039	0.000552
4628.82171	0.000522
4626.89303	0.000514
4624.96436	0.000539
4623.03568	0.000582
4621.10701	0.000618
4619.17833	0.000638
4617.24966	0.000640
4615.32098	0.000627
4613.39230	0.000618
4611.46363	0.000609
4609.53495	0.000580
4607.60628	0.000558
4605.67760	0.000577
4603.74893	0.000606
4601.82025	0.000614
4599.89157	0.000601
4597.96290	0.000579
4596.03422	0.000578
4594.10555	0.000613
4592.17687	0.000637
4590.24820	0.000625
4588.31952	0.000608
4586.39084	0.000588
4584.46217	0.000563
4582.53349	0.000554
4580.60482	0.000560
4578.67614	0.000564
4576.74747	0.000574
4574.81879	0.000596
4572.89011	0.000605
4570.96144	0.000592
4569.03276	0.000573
4567.10409	0.000569
4565.17541	0.000585
4563.24674	0.000592
4561.31806	0.000563
4559.38938	0.000528
4557.46071	0.000526
4555.53203	0.000529
4553.60336	0.000515
4551.67468	0.000518
4549.74601	0.000564
4547.81733	0.000614
4545.88865	0.000624
4543.95998	0.000610
4542.03130	0.000598
4540.10263	0.000589
4538.17395	0.000582
4536.24528	0.000576
4534.31660	0.000566
4532.38792	0.000559
4530.45925	0.000562
4528.53057	0.000574
4526.60190	0.000588
4524.67322	0.000602
4522.74455	0.000623
4520.81587	0.000649
4518.88719	0.000654
4516.95852	0.000635
4515.02984	0.000608
4513.10117	0.000591
4511.17249	0.000588
4509.24382	0.000585
4507.31514	0.000594
4505.38646	0.000622
4503.45779	0.000640
4501.52911	0.000645
4499.60044	0.000649
4497.67176	0.000647
4495.74309	0.000628
4493.81441	0.000597
4491.88573	0.000589
4489.95706	0.000605
4488.02838	0.000609
4486.09971	0.000600
4484.17103	0.000603
4482.24236	0.000608
4480.31368	0.000609
4478.38500	0.000607
4476.45633	0.000594
4474.52765	0.000577
4472.59898	0.000585
4470.67030	0.000620
4468.74163	0.000642
4466.81295	0.000645
4464.88427	0.000659
4462.95560	0.000678
4461.02692	0.000674
4459.09825	0.000649
4457.16957	0.000627
4455.24090	0.000615
4453.31222	0.000609
4451.38354	0.000609
4449.45487	0.000605
4447.52619	0.000590
4445.59752	0.000596
4443.66884	0.000642
4441.74017	0.000686
4439.81149	0.000696
4437.88281	0.000690
4435.95414	0.000681
4434.02546	0.000668
4432.09679	0.000663
4430.16811	0.000675
4428.23944	0.000689
4426.31076	0.000683
4424.38208	0.000657
4422.45341	0.000633
4420.52473	0.000638
4418.59606	0.000672
4416.66738	0.000710
4414.73871	0.000732
4412.81003	0.000739
4410.88135	0.000733
4408.95268	0.000727
4407.02400	0.000741
4405.09533	0.000771
4403.16665	0.000788
4401.23798	0.000749
4399.30930	0.000671
4397.38062	0.000630
4395.45195	0.000637
4393.52327	0.000659
4391.59460	0.000694
4389.66592	0.000719
4387.73725	0.000706
4385.80857	0.000687
4383.87989	0.000701
4381.95122	0.000721
4380.02254	0.000728
4378.09387	0.000732
4376.16519	0.000732
4374.23652	0.000729
4372.30784	0.000727
4370.37916	0.000713
4368.45049	0.000698
4366.52181	0.000706
4364.59314	0.000709
4362.66446	0.000690
4360.73579	0.000679
4358.80711	0.000685
4356.87843	0.000700
4354.94976	0.000720
4353.02108	0.000733
4351.09241	0.000734
4349.16373	0.000743
4347.23506	0.000761
4345.30638	0.000764
4343.37770	0.000740
4341.44903	0.000707
4339.52035	0.000702
4337.59168	0.000737
4335.66300	0.000788
4333.73433	0.000800
4331.80565	0.000761
4329.87697	0.000731
4327.94830	0.000731
4326.01962	0.000729
4324.09095	0.000713
4322.16227	0.000705
4320.23360	0.000712
4318.30492	0.000724
4316.37624	0.000739
4314.44757	0.000763
4312.51889	0.000788
4310.59022	0.000779
4308.66154	0.000747
4306.73287	0.000743
4304.80419	0.000756
4302.87551	0.000753
4300.94684	0.000753
4299.01816	0.000767
4297.08949	0.000768
4295.16081	0.000758
4293.23214	0.000758
4291.30346	0.000760
4289.37478	0.000727
4287.44611	0.000682
4285.51743	0.000689
4283.58876	0.000747
4281.66008	0.000795
4279.73141	0.000793
4277.80273	0.000757
4275.87405	0.000734
4273.94538	0.000742
4272.01670	0.000761
4270.08803	0.000768
4268.15935	0.000751
4266.23068	0.000737
4264.30200	0.000766
4262.37332	0.000810
4260.44465	0.000820
4258.51597	0.000797
4256.58730	0.000779
4254.65862	0.000789
4252.72995	0.000795
4250.80127	0.000776
4248.87259	0.000757
4246.94392	0.000744
4245.01524	0.000748
4243.08657	0.000778
4241.15789	0.000805
4239.22922	0.000809
4237.30054	0.000793
4235.37186	0.000778
4233.44319	0.000788
4231.51451	0.000816
4229.58584	0.000838
4227.65716	0.000853
4225.72849	0.000850
4223.79981	0.000825
4221.87113	0.000815
4219.94246	0.000837
4218.01378	0.000858
4216.08511	0.000865
4214.15643	0.000876
4212.22776	0.000874
4210.29908	0.000832
4208.37040	0.000771
4206.44173	0.000733
4204.51305	0.000746
4202.58438	0.000783
4200.65570	0.000799
4198.72703	0.000792
4196.79835	0.000794
4194.86968	0.000823
4192.94100	0.000848
4191.01232	0.000844
4189.08365	0.000829
4187.15497	0.000829
4185.22630	0.000844
4183.29762	0.000850
4181.36895	0.000852
4179.44027	0.000870
4177.51159	0.000871
4175.58292	0.000849
4173.65424	0.000839
4171.72557	0.000838
4169.79689	0.000838
4167.86822	0.000838
4165.93954	0.000823
4164.01086	0.000807
4162.08219	0.000811
4160.15351	0.000815
4158.22484	0.000815
4156.29616	0.000842
4154.36749	0.000876
4152.43881	0.000864
4150.51013	0.000824
4148.58146	0.000808
4146.65278	0.000829
4144.72411	0.000866
4142.79543	0.000879
4140.86676	0.000842
4138.93808	0.000811
4137.00940	0.000828
4135.08073	0.000845
4133.15205	0.000849
4131.22338	0.000881
4129.29470	0.000912
4127.36603	0.000910
4125.43735	0.000911
4123.50867	0.000935
4121.58000	0.000949
4119.65132	0.000929
4117.72265	0.000899
4115.79397	0.000888
4113.86530	0.000883
4111.93662	0.000861
4110.00794	0.000843
4108.07927	0.000869
4106.15059	0.000914
4104.22192	0.000920
4102.29324	0.000897
4100.36457	0.000881
4098.43589	0.000868
4096.50721	0.000853
4094.57854	0.000872
4092.64986	0.000929
4090.72119	0.000957
4088.79251	0.000937
4086.86384	0.000928
4084.93516	0.000964
4083.00648	0.001018
4081.07781	0.001041
4079.14913	0.001009
4077.22046	0.000966
4075.29178	0.000960
4073.36311	0.000982
4071.43443	0.001005
4069.50575	0.001000
4067.57708	0.000962
4065.64840	0.000919
4063.71973	0.000910
4061.79105	0.000957
4059.86238	0.001024
4057.93370	0.001052
4056.00502	0.001041
4054.07635	0.001017
4052.14767	0.000985
4050.21900	0.000950
4048.29032	0.000933
4046.36165	0.000938
4044.43297	0.000943
4042.50429	0.000929
4040.57562	0.000914
4038.64694	0.000923
4036.71827	0.000952
4034.78959	0.000979
4032.86092	0.000977
4030.93224	0.000958
4029.00356	0.000962
4027.07489	0.000971
4025.14621	0.000959
4023.21754	0.000960
4021.28886	0.000983
4019.36019	0.001001
4017.43151	0.001015
4015.50283	0.001036
4013.57416	0.001041
4011.64548	0.001020
4009.71681	0.000999
4007.78813	0.000999
4005.85946	0.001017
4003.93078	0.001042
4002.00210	0.001059
4000.07343	0.001069
3998.14475	0.001069
3996.21608	0.001048
3994.28740	0.001026
3992.35873	0.001023
3990.43005	0.001030
3988.50137	0.001038
3986.57270	0.001046
3984.64402	0.001050
3982.71535	0.001069
3980.78667	0.001116
3978.85800	0.001154
3976.92932	0.001146
3975.00064	0.001102
3973.07197	0.001059
3971.14329	0.001037
3969.21462	0.001035
3967.28594	0.001042
3965.35727	0.001055
3963.42859	0.001066
3961.49991	0.001059
3959.57124	0.001026
3957.64256	0.000997
3955.71389	0.001010
3953.78521	0.001046
3951.85654	0.001046
3949.92786	0.000998
3947.99918	0.000960
3946.07051	0.000981
3944.14183	0.001038
3942.21316	0.001069
3940.28448	0.001063
3938.35581	0.001045
3936.42713	0.001030
3934.49845	0.001034
3932.56978	0.001057
3930.64110	0.001077
3928.71243	0.001085
3926.78375	0.001092
3924.85508	0.001113
3922.92640	0.001139
3920.99772	0.001140
3919.06905	0.001116
3917.14037	0.001087
3915.21170	0.001076
3913.28302	0.001084
3911.35435	0.001097
3909.42567	0.001121
3907.49699	0.001141
3905.56832	0.001131
3903.63964	0.001120
3901.71097	0.001118
3899.78229	0.001094
3897.85362	0.001063
3895.92494	0.001073
3893.99626	0.001118
3892.06759	0.001151
3890.13891	0.001166
3888.21024	0.001169
3886.28156	0.001133
3884.35289	0.001088
3882.42421	0.001091
3880.49553	0.001124
3878.56686	0.001137
3876.63818	0.001142
3874.70951	0.001161
3872.78083	0.001179
3870.85216	0.001190
3868.92348	0.001192
3866.99480	0.001165
3865.06613	0.001135
3863.13745	0.001134
3861.20878	0.001152
3859.28010	0.001166
3857.35143	0.001160
3855.42275	0.001139
3853.49407	0.001131
3851.56540	0.001138
3849.63672	0.001142
3847.70805	0.001127
3845.77937	0.001114
3843.85070	0.001144
3841.92202	0.001189
3839.99334	0.001186
3838.06467	0.001158
3836.13599	0.001165
3834.20732	0.001188
3832.27864	0.001199
3830.34997	0.001215
3828.42129	0.001220
3826.49261	0.001198
3824.56394	0.001193
3822.63526	0.001195
3820.70659	0.001161
3818.77791	0.001139
3816.84924	0.001168
3814.92056	0.001209
3812.99188	0.001231
3811.06321	0.001252
3809.13453	0.001266
3807.20586	0.001253
3805.27718	0.001250
3803.34851	0.001280
3801.41983	0.001296
3799.49115	0.001267
3797.56248	0.001225
3795.63380	0.001220
3793.70513	0.001261
3791.77645	0.001309
3789.84778	0.001327
3787.91910	0.001313
3785.99042	0.001311
3784.06175	0.001336
3782.13307	0.001342
3780.20440	0.001321
3778.27572	0.001301
3776.34705	0.001291
3774.41837	0.001289
3772.48969	0.001287
3770.56102	0.001276
3768.63234	0.001252
3766.70367	0.001239
3764.77499	0.001259
3762.84632	0.001286
3760.91764	0.001304
3758.98896	0.001328
3757.06029	0.001347
3755.13161	0.001344
3753.20294	0.001341
3751.27426	0.001345
3749.34559	0.001328
3747.41691	0.001292
3745.48823	0.001281
3743.55956	0.001297
3741.63088	0.001308
3739.70221	0.001315
3737.77353	0.001322
3735.84486	0.001312
3733.91618	0.001301
3731.98750	0.001312
3730.05883	0.001334
3728.13015	0.001358
3726.20148	0.001362
3724.27280	0.001322
3722.34413	0.001294
3720.41545	0.001325
3718.48677	0.001356
3716.55810	0.001360
3714.62942	0.001386
3712.70075	0.001419
3710.77207	0.001409
3708.84340	0.001373
3706.91472	0.001339
3704.98604	0.001324
3703.05737	0.001339
3701.12869	0.001362
3699.20002	0.001372
3697.27134	0.001368
3695.34267	0.001347
3693.41399	0.001333
3691.48531	0.001344
3689.55664	0.001353
3687.62796	0.001356
3685.69929	0.001365
3683.77061	0.001365
3681.84194	0.001362
3679.91326	0.001367
3677.98458	0.001372
3676.05591	0.001384
3674.12723	0.001413
3672.19856	0.001442
3670.26988	0.001448
3668.34121	0.001434
3666.41253	0.001419
3664.48385	0.001409
3662.55518	0.001403
3660.62650	0.001417
3658.69783	0.001446
3656.76915	0.001466
3654.84048	0.001477
3652.91180	0.001493
3650.98312	0.001497
3649.05445	0.001464
3647.12577	0.001424
3645.19710	0.001418
3643.26842	0.001434
3641.33975	0.001445
3639.41107	0.001456
3637.48239	0.001474
3635.55372	0.001494
3633.62504	0.001508
3631.69637	0.001493
3629.76769	0.001476
3627.83902	0.001495
3625.91034	0.001510
3623.98166	0.001473
3622.05299	0.001420
3620.12431	0.001396
3618.19564	0.001411
3616.26696	0.001458
3614.33829	0.001520
3612.40961	0.001554
3610.48093	0.001538
3608.55226	0.001506
3606.62358	0.001480
3604.69491	0.001449
3602.76623	0.001440
3600.83756	0.001473
3598.90888	0.001510
3596.98020	0.001510
3595.05153	0.001469
3593.12285	0.001424
3591.19418	0.001410
3589.26550	0.001408
3587.33683	0.001406
3585.40815	0.001417
3583.47947	0.001442
3581.55080	0.001455
3579.62212	0.001453
3577.69345	0.001472
3575.76477	0.001511
3573.83610	0.001538
3571.90742	0.001535
3569.97874	0.001509
3568.05007	0.001502
3566.12139	0.001532
3564.19272	0.001559
3562.26404	0.001554
3560.33537	0.001540
3558.40669	0.001530
3556.47801	0.001513
3554.54934	0.001504
3552.62066	0.001516
3550.69199	0.001525
3548.76331	0.001524
3546.83464	0.001530
3544.90596	0.001531
3542.97728	0.001525
3541.04861	0.001529
3539.11993	0.001535
3537.19126	0.001540
3535.26258	0.001557
3533.33391	0.001554
3531.40523	0.001514
3529.47655	0.001488
3527.54788	0.001480
3525.61920	0.001455
3523.69053	0.001450
3521.76185	0.001497
3519.83318	0.001546
3517.90450	0.001559
3515.97582	0.001554
3514.04715	0.001540
3512.11847	0.001517
3510.18980	0.001508
3508.26112	0.001535
3506.33245	0.001568
3504.40377	0.001567
3502.47509	0.001542
3500.54642	0.001520
3498.61774	0.001509
3496.68907	0.001510
3494.76039	0.001508
3492.83172	0.001511
3490.90304	0.001550
3488.97436	0.001599
3487.04569	0.001631
3485.11701	0.001650
3483.18834	0.001649
3481.25966	0.001630
3479.33099	0.001593
3477.40231	0.001541
3475.47363	0.001516
3473.54496	0.001533
3471.61628	0.001572
3469.68761	0.001614
3467.75893	0.001630
3465.83026	0.001614
3463.90158	0.001578
3461.97290	0.001547
3460.04423	0.001557
3458.11555	0.001585
3456.18688	0.001574
3454.25820	0.001546
3452.32953	0.001555
3450.40085	0.001584
3448.47217	0.001597
3446.54350	0.001601
3444.61482	0.001604
3442.68615	0.001591
3440.75747	0.001574
3438.82880	0.001583
3436.90012	0.001621
3434.97144	0.001659
3433.04277	0.001661
3431.11409	0.001639
3429.18542	0.001638
3427.25674	0.001644
3425.32807	0.001646
3423.39939	0.001687
3421.47071	0.001756
3419.54204	0.001787
3417.61336	0.001763
3415.68469	0.001718
3413.75601	0.001676
3411.82734	0.001662
3409.89866	0.001672
3407.96998	0.001685
3406.04131	0.001703
3404.11263	0.001737
3402.18396	0.001776
3400.25528	0.001786
3398.32661	0.001774
3396.39793	0.001781
3394.46925	0.001796
3392.54058	0.001787
3390.61190	0.001767
3388.68323	0.001764
3386.75455	0.001760
3384.82588	0.001731
3382.89720	0.001736
3380.96852	0.001780
3379.03985	0.001792
3377.11117	0.001767
3375.18250	0.001732
3373.25382	0.001704
3371.32515	0.001717
3369.39647	0.001778
3367.46779	0.001848
3365.53912	0.001889
3363.61044	0.001896
3361.68177	0.001877
3359.75309	0.001843
3357.82442	0.001816
3355.89574	0.001813
3353.96706	0.001826
3352.03839	0.001831
3350.10971	0.001814
3348.18104	0.001806
3346.25236	0.001827
3344.32369	0.001846
3342.39501	0.001846
3340.46633	0.001856
3338.53766	0.001892
3336.60898	0.001925
3334.68031	0.001934
3332.75163	0.001935
3330.82296	0.001938
3328.89428	0.001927
3326.96560	0.001898
3325.03693	0.001883
3323.10825	0.001892
3321.17958	0.001899
3319.25090	0.001924
3317.32223	0.001974
3315.39355	0.001972
3313.46487	0.001903
3311.53620	0.001869
3309.60752	0.001892
3307.67885	0.001904
3305.75017	0.001882
3303.82150	0.001853
3301.89282	0.001853
3299.96414	0.001891
3298.03547	0.001944
3296.10679	0.001997
3294.17812	0.002040
3292.24944	0.002051
3290.32077	0.002023
3288.39209	0.001984
3286.46341	0.001953
3284.53474	0.001953
3282.60606	0.001994
3280.67739	0.002052
3278.74871	0.002096
3276.82004	0.002103
3274.89136	0.002086
3272.96268	0.002085
3271.03401	0.002086
3269.10533	0.002060
3267.17666	0.002040
3265.24798	0.002055
3263.31931	0.002097
3261.39063	0.002145
3259.46195	0.002172
3257.53328	0.002178
3255.60460	0.002162
3253.67593	0.002119
3251.74725	0.002100
3249.81858	0.002123
3247.88990	0.002134
3245.96122	0.002130
3244.03255	0.002140
3242.10387	0.002136
3240.17520	0.002105
3238.24652	0.002089
3236.31785	0.002102
3234.38917	0.002112
3232.46049	0.002091
3230.53182	0.002076
3228.60314	0.002102
3226.67447	0.002149
3224.74579	0.002183
3222.81712	0.002210
3220.88844	0.002230
3218.95976	0.002217
3217.03109	0.002184
3215.10241	0.002181
3213.17374	0.002215
3211.24506	0.002247
3209.31639	0.002259
3207.38771	0.002273
3205.45903	0.002296
3203.53036	0.002307
3201.60168	0.002299
3199.67301	0.002290
3197.74433	0.002288
3195.81566	0.002293
3193.88698	0.002304
3191.95830	0.002317
3190.02963	0.002339
3188.10095	0.002374
3186.17228	0.002383
3184.24360	0.002347
3182.31493	0.002323
3180.38625	0.002339
3178.45757	0.002359
3176.52890	0.002363
3174.60022	0.002359
3172.67155	0.002353
3170.74287	0.002332
3168.81420	0.002300
3166.88552	0.002296
3164.95684	0.002337
3163.02817	0.002372
3161.09949	0.002382
3159.17082	0.002392
3157.24214	0.002397
3155.31347	0.002415
3153.38479	0.002451
3151.45611	0.002451
3149.52744	0.002412
3147.59876	0.002388
3145.67009	0.002409
3143.74141	0.002454
3141.81274	0.002467
3139.88406	0.002443
3137.95538	0.002448
3136.02671	0.002480
3134.09803	0.002477
3132.16936	0.002451
3130.24068	0.002462
3128.31201	0.002522
3126.38333	0.002562
3124.45465	0.002544
3122.52598	0.002527
3120.59730	0.002538
3118.66863	0.002557
3116.73995	0.002581
3114.81128	0.002584
3112.88260	0.002571
3110.95392	0.002603
3109.02525	0.002649
3107.09657	0.002624
3105.16790	0.002583
3103.23922	0.002609
3101.31055	0.002638
3099.38187	0.002620
3097.45319	0.002618
3095.52452	0.002652
3093.59584	0.002657
3091.66717	0.002627
3089.73849	0.002604
3087.80982	0.002611
3085.88114	0.002652
3083.95246	0.002690
3082.02379	0.002675
3080.09511	0.002652
3078.16644	0.002690
3076.23776	0.002746
3074.30909	0.002752
3072.38041	0.002718
3070.45173	0.002683
3068.52306	0.002671
3066.59438	0.002678
3064.66571	0.002688
3062.73703	0.002699
3060.80836	0.002715
3058.87968	0.002722
3056.95100	0.002740
3055.02233	0.002813
3053.09365	0.002916
3051.16498	0.002965
3049.23630	0.002947
3047.30763	0.002912
3045.37895	0.002876
3043.45027	0.002835
3041.52160	0.002821
3039.59292	0.002844
3037.66425	0.002877
3035.73557	0.002895
3033.80690	0.002875
3031.87822	0.002853
3029.94954	0.002884
3028.02087	0.002908
3026.09219	0.002899
3024.16352	0.002940
3022.23484	0.003007
3020.30617	0.002995
3018.37749	0.002918
3016.44881	0.002867
3014.52014	0.002876
3012.59146	0.002912
3010.66279	0.002933
3008.73411	0.002943
3006.80544	0.002949
3004.87676	0.002946
3002.94808	0.002949
3001.01941	0.002977
2999.09073	0.003003
2997.16206	0.003002
2995.23338	0.002989
2993.30471	0.002969
2991.37603	0.002966
2989.44735	0.003012
2987.51868	0.003066
2985.59000	0.003079
2983.66133	0.003095
2981.73265	0.003123
2979.80398	0.003105
2977.87530	0.003056
2975.94662	0.003057
2974.01795	0.003087
2972.08927	0.003064
2970.16060	0.003008
2968.23192	0.002978
2966.30325	0.002969
2964.37457	0.003001
2962.44589	0.003090
2960.51722	0.003158
2958.58854	0.003168
2956.65987	0.003161
2954.73119	0.003131
2952.80252	0.003086
2950.87384	0.003085
2948.94516	0.003103
2947.01649	0.003106
2945.08781	0.003127
2943.15914	0.003151
2941.23046	0.003131
2939.30179	0.003090
2937.37311	0.003071
2935.44443	0.003081
2933.51576	0.003096
2931.58708	0.003121
2929.65841	0.003153
2927.72973	0.003159
2925.80106	0.003161
2923.87238	0.003170
2921.94370	0.003163
2920.01503	0.003180
2918.08635	0.003243
2916.15768	0.003279
2914.22900	0.003262
2912.30033	0.003245
2910.37165	0.003249
2908.44297	0.003273
2906.51430	0.003293
2904.58562	0.003267
2902.65695	0.003217
2900.72827	0.003222
2898.79960	0.003293
2896.87092	0.003340
2894.94224	0.003316
2893.01357	0.003292
2891.08489	0.003314
2889.15622	0.003342
2887.22754	0.003358
2885.29887	0.003391
2883.37019	0.003417
2881.44151	0.003397
2879.51284	0.003361
2877.58416	0.003350
2875.65549	0.003380
2873.72681	0.003453
2871.79814	0.003516
2869.86946	0.003536
2867.94078	0.003550
2866.01211	0.003550
2864.08343	0.003506
2862.15476	0.003468
2860.22608	0.003469
2858.29741	0.003488
2856.36873	0.003509
2854.44005	0.003513
2852.51138	0.003526
2850.58270	0.003603
2848.65403	0.003708
2846.72535	0.003741
2844.79668	0.003710
2842.86800	0.003695
2840.93932	0.003716
2839.01065	0.003748
2837.08197	0.003765
2835.15330	0.003746
2833.22462	0.003719
2831.29595	0.003721
2829.36727	0.003757
2827.43859	0.003781
2825.50992	0.003754
2823.58124	0.003717
2821.65257	0.003719
2819.72389	0.003750
2817.79522	0.003796
2815.86654	0.003841
2813.93786	0.003884
2812.00919	0.003923
2810.08051	0.003933
2808.15184	0.003924
2806.22316	0.003925
2804.29449	0.003938
2802.36581	0.003955
2800.43713	0.003968
2798.50846	0.003980
2796.57978	0.004005
2794.65111	0.004031
2792.72243	0.004034
2790.79376	0.004015
2788.86508	0.004007
2786.93640	0.004031
2785.00773	0.004073
2783.07905	0.004112
2781.15038	0.004155
2779.22170	0.004201
2777.29303	0.004197
2775.36435	0.004139
2773.43567	0.004096
2771.50700	0.004077
2769.57832	0.004072
2767.64965	0.004105
2765.72097	0.004152
2763.79230	0.004194
2761.86362	0.004241
2759.93494	0.004279
2758.00627	0.004301
2756.07759	0.004292
2754.14892	0.004265
2752.22024	0.004276
2750.29157	0.004314
2748.36289	0.004339
2746.43421	0.004348
2744.50554	0.004328
2742.57686	0.004305
2740.64819	0.004337
2738.71951	0.004417
2736.79084	0.004487
2734.86216	0.004526
2732.93348	0.004544
2731.00481	0.004529
2729.07613	0.004497
2727.14746	0.004497
2725.21878	0.004489
2723.29011	0.004440
2721.36143	0.004401
2719.43275	0.004415
2717.50408	0.004471
2715.57540	0.004514
2713.64673	0.004510
2711.71805	0.004486
2709.78938	0.004488
2707.86070	0.004519
2705.93202	0.004546
2704.00335	0.004557
2702.07467	0.004563
2700.14600	0.004587
2698.21732	0.004632
2696.28865	0.004664
2694.35997	0.004680
2692.43129	0.004703
2690.50262	0.004702
2688.57394	0.004665
2686.64527	0.004652
2684.71659	0.004678
2682.78792	0.004732
2680.85924	0.004794
2678.93056	0.004788
2677.00189	0.004732
2675.07321	0.004727
2673.14454	0.004771
2671.21586	0.004813
2669.28719	0.004836
2667.35851	0.004845
2665.42983	0.004848
2663.50116	0.004874
2661.57248	0.004944
2659.64381	0.004999
2657.71513	0.004987
2655.78646	0.004972
2653.85778	0.004995
2651.92910	0.005014
2650.00043	0.005039
2648.07175	0.005078
2646.14308	0.005078
2644.21440	0.005033
2642.28573	0.005010
2640.35705	0.005026
2638.42837	0.005040
2636.49970	0.005038
2634.57102	0.005042
2632.64235	0.005071
2630.71367	0.005125
2628.78500	0.005159
2626.85632	0.005138
2624.92764	0.005126
2622.99897	0.005163
2621.07029	0.005202
2619.14162	0.005244
2617.21294	0.005322
2615.28427	0.005385
2613.35559	0.005387
2611.42691	0.005359
2609.49824	0.005347
2607.56956	0.005365
2605.64089	0.005383
2603.71221	0.005385
2601.78354	0.005389
2599.85486	0.005412
2597.92618	0.005446
2595.99751	0.005449
2594.06883	0.005443
2592.14016	0.005500
2590.21148	0.005585
2588.28281	0.005622
2586.35413	0.005625
2584.42545	0.005614
2582.49678	0.005612
2580.56810	0.005646
2578.63943	0.005673
2576.71075	0.005675
2574.78208	0.005712
2572.85340	0.005771
2570.92472	0.005777
2568.99605	0.005764
2567.06737	0.005801
2565.13870	0.005852
2563.21002	0.005878
2561.28135	0.005883
2559.35267	0.005867
2557.42399	0.005859
2555.49532	0.005886
2553.56664	0.005939
2551.63797	0.005980
2549.70929	0.005966
2547.78062	0.005936
2545.85194	0.005953
2543.92326	0.005991
2541.99459	0.006011
2540.06591	0.006012
2538.13724	0.006026
2536.20856	0.006054
2534.27989	0.006056
2532.35121	0.006034
2530.42253	0.006047
2528.49386	0.006101
2526.56518	0.006135
2524.63651	0.006121
2522.70783	0.006108
2520.77916	0.006162
2518.85048	0.006272
2516.92181	0.006351
2514.99313	0.006364
2513.06445	0.006368
2511.13578	0.006403
2509.20710	0.006448
2507.27843	0.006485
2505.34975	0.006508
2503.42108	0.006517
2501.49240	0.006533
2499.56372	0.006560
2497.63505	0.006587
2495.70637	0.006610
2493.77770	0.006614
2491.84902	0.006618
2489.92035	0.006669
2487.99167	0.006735
2486.06299	0.006738
2484.13432	0.006699
2482.20564	0.006709
2480.27697	0.006739
2478.34829	0.006709
2476.41962	0.006663
2474.49094	0.006669
2472.56226	0.006710
2470.63359	0.006743
2468.70491	0.006759
2466.77624	0.006781
2464.84756	0.006839
2462.91889	0.006929
2460.99021	0.006986
2459.06153	0.006997
2457.13286	0.007007
2455.20418	0.007029
2453.27551	0.007064
2451.34683	0.007094
2449.41816	0.007077
2447.48948	0.007014
2445.56080	0.006983
2443.63213	0.007044
2441.70345	0.007141
2439.77478	0.007174
2437.84610	0.007158
2435.91743	0.007192
2433.98875	0.007274
2432.06007	0.007341
2430.13140	0.007381
2428.20272	0.007404
2426.27405	0.007418
2424.34537	0.007425
2422.41670	0.007414
2420.48802	0.007421
2418.55934	0.007484
2416.63067	0.007546
2414.70199	0.007552
2412.77332	0.007564
2410.84464	0.007604
2408.91597	0.007633
2406.98729	0.007650
2405.05861	0.007660
2403.12994	0.007717
2401.20126	0.007831
2399.27259	0.007886
2397.34391	0.007837
2395.41524	0.007774
2393.48656	0.007746
2391.55788	0.007763
2389.62921	0.007836
2387.70053	0.007934
2385.77186	0.008017
2383.84318	0.008054
2381.91451	0.008056
2379.98583	0.008076
2378.05715	0.008087
2376.12848	0.008053
2374.19980	0.008034
2372.27113	0.008071
2370.34245	0.008134
2368.41378	0.008164
2366.48510	0.008138
2364.55642	0.008115
2362.62775	0.008144
2360.69907	0.008222
2358.77040	0.008311
2356.84172	0.008342
2354.91305	0.008315
2352.98437	0.008333
2351.05569	0.008396
2349.12702	0.008437
2347.19834	0.008467
2345.26967	0.008485
2343.34099	0.008495
2341.41232	0.008560
2339.48364	0.008642
2337.55496	0.008652
2335.62629	0.008629
2333.69761	0.008645
2331.76894	0.008716
2329.84026	0.008805
2327.91159	0.008844
2325.98291	0.008838
2324.05423	0.008861
2322.12556	0.008920
2320.19688	0.008976
2318.26821	0.009011
2316.33953	0.009027
2314.41086	0.009044
2312.48218	0.009067
2310.55350	0.009084
2308.62483	0.009105
2306.69615	0.009143
2304.76748	0.009201
2302.83880	0.009280
2300.91013	0.009375
2298.98145	0.009453
2297.05277	0.009506
2295.12410	0.009540
2293.19542	0.009555
2291.26675	0.009581
2289.33807	0.009607
2287.40940	0.009607
2285.48072	0.009617
2283.55204	0.009646
2281.62337	0.009682
2279.69469	0.009708
2277.76602	0.009714
2275.83734	0.009748
2273.90867	0.009845
2271.97999	0.009942
2270.05131	0.009989
2268.12264	0.010003
2266.19396	0.010001
2264.26529	0.010030
2262.33661	0.010114
2260.40794	0.010172
2258.47926	0.010175
2256.55058	0.010190
2254.62191	0.010231
2252.69323	0.010264
2250.76456	0.010290
2248.83588	0.010327
2246.90721	0.010352
2244.97853	0.010343
2243.04985	0.010336
2241.12118	0.010376
2239.19250	0.010442
2237.26383	0.010512
2235.33515	0.010610
2233.40648	0.010726
2231.47780	0.010811
2229.54912	0.010826
2227.62045	0.010791
2225.69177	0.010822
2223.76310	0.010957
2221.83442	0.011071
2219.90575	0.011086
2217.97707	0.011065
2216.04839	0.011060
2214.11972	0.011074
2212.19104	0.011106
2210.26237	0.011139
2208.33369	0.011151
2206.40502	0.011168
2204.47634	0.011237
2202.54766	0.011354
2200.61899	0.011436
2198.69031	0.011438
2196.76164	0.011421
2194.83296	0.011450
2192.90429	0.011515
2190.97561	0.011583
2189.04693	0.011639
2187.11826	0.011682
2185.18958	0.011697
2183.26091	0.011688
2181.33223	0.011716
2179.40356	0.011810
2177.47488	0.011910
2175.54620	0.011982
2173.61753	0.012045
2171.68885	0.012096
2169.76018	0.012122
2167.83150	0.012139
2165.90283	0.012165
2163.97415	0.012199
2162.04547	0.012255
2160.11680	0.012341
2158.18812	0.012415
2156.25945	0.012468
2154.33077	0.012519
2152.40210	0.012537
2150.47342	0.012529
2148.54474	0.012561
2146.61607	0.012636
2144.68739	0.012713
2142.75872	0.012796
2140.83004	0.012862
2138.90137	0.012873
2136.97269	0.012881
2135.04401	0.012946
2133.11534	0.013018
2131.18666	0.013049
2129.25799	0.013080
2127.32931	0.013126
2125.40064	0.013152
2123.47196	0.013177
2121.54328	0.013232
2119.61461	0.013318
2117.68593	0.013407
2115.75726	0.013470
2113.82858	0.013505
2111.89991	0.013538
2109.97123	0.013579
2108.04255	0.013615
2106.11388	0.013656
2104.18520	0.013699
2102.25653	0.013724
2100.32785	0.013778
2098.39918	0.013862
2096.47050	0.013935
2094.54182	0.014038
2092.61315	0.014175
2090.68447	0.014266
2088.75580	0.014274
2086.82712	0.014244
2084.89845	0.014257
2082.96977	0.014324
2081.04109	0.014387
2079.11242	0.014422
2077.18374	0.014452
2075.25507	0.014508
2073.32639	0.014579
2071.39772	0.014647
2069.46904	0.014772
2067.54036	0.014944
2065.61169	0.015025
2063.68301	0.015003
2061.75434	0.014988
2059.82566	0.015007
2057.89699	0.015043
2055.96831	0.015111
2054.03963	0.015210
2052.11096	0.015311
2050.18228	0.015360
2048.25361	0.015362
2046.32493	0.015414
2044.39626	0.015523
2042.46758	0.015600
2040.53890	0.015654
2038.61023	0.015715
2036.68155	0.015768
2034.75288	0.015832
2032.82420	0.015877
2030.89553	0.015893
2028.96685	0.015967
2027.03817	0.016087
2025.10950	0.016168
2023.18082	0.016209
2021.25215	0.016251
2019.32347	0.016315
2017.39480	0.016379
2015.46612	0.016386
2013.53744	0.016379
2011.60877	0.016443
2009.68009	0.016562
2007.75142	0.016687
2005.82274	0.016772
2003.89407	0.016824
2001.96539	0.016890
2000.03671	0.016934
1998.10804	0.016940
1996.17936	0.016973
1994.25069	0.017027
1992.32201	0.017098
1990.39334	0.017218
1988.46466	0.017305
1986.53598	0.017322
1984.60731	0.017352
1982.67863	0.017430
1980.74996	0.017555
1978.82128	0.017711
1976.89261	0.017845
1974.96393	0.017939
1973.03525	0.018002
1971.10658	0.018067
1969.17790	0.018138
1967.24923	0.018176
1965.32055	0.018226
1963.39188	0.018350
1961.46320	0.018463
1959.53452	0.018490
1957.60585	0.018484
1955.67717	0.018512
1953.74850	0.018617
1951.81982	0.018777
1949.89115	0.018874
1947.96247	0.018896
1946.03379	0.018950
1944.10512	0.019052
1942.17644	0.019158
1940.24777	0.019240
1938.31909	0.019304
1936.39042	0.019389
1934.46174	0.019497
1932.53306	0.019587
1930.60439	0.019649
1928.67571	0.019703
1926.74704	0.019772
1924.81836	0.019866
1922.88969	0.019967
1920.96101	0.020031
1919.03233	0.020049
1917.10366	0.020089
1915.17498	0.020210
1913.24631	0.020384
1911.31763	0.020493
1909.38896	0.020530
1907.46028	0.020640
1905.53160	0.020801
1903.60293	0.020883
1901.67425	0.020930
1899.74558	0.020994
1897.81690	0.021041
1895.88823	0.021075
1893.95955	0.021126
1892.03087	0.021188
1890.10220	0.021238
1888.17352	0.021310
1886.24485	0.021455
1884.31617	0.021630
1882.38750	0.021765
1880.45882	0.021870
1878.53014	0.021964
1876.60147	0.022048
1874.67279	0.022117
1872.74412	0.022146
1870.81544	0.022167
1868.88677	0.022259
1866.95809	0.022405
1865.02941	0.022555
1863.10074	0.022724
1861.17206	0.022877
1859.24339	0.022938
1857.31471	0.022981
1855.38604	0.023113
1853.45736	0.023263
1851.52868	0.023311
1849.60001	0.023294
1847.67133	0.023333
1845.74266	0.023447
1843.81398	0.023608
1841.88531	0.023797
1839.95663	0.023938
1838.02795	0.024025
1836.09928	0.024138
1834.17060	0.024252
1832.24193	0.024292
1830.31325	0.024349
1828.38458	0.024497
1826.45590	0.024625
1824.52722	0.024714
1822.59855	0.024861
1820.66987	0.025055
1818.74120	0.025191
1816.81252	0.025232
1814.88385	0.025245
1812.95517	0.025284
1811.02649	0.025381
1809.09782	0.025564
1807.16914	0.025779
1805.24047	0.025930
1803.31179	0.025988
1801.38312	0.026000
1799.45444	0.026068
1797.52576	0.026233
1795.59709	0.026401
1793.66841	0.026485
1791.73974	0.026565
1789.81106	0.026727
1787.88239	0.026913
1785.95371	0.027046
1784.02503	0.027143
1782.09636	0.027243
1780.16768	0.027362
1778.23901	0.027454
1776.31033	0.027442
1774.38166	0.027396
1772.45298	0.027485
1770.52430	0.027706
1768.59563	0.027911
1766.66695	0.028038
1764.73828	0.028112
1762.80960	0.028176
1760.88093	0.028249
1758.95225	0.028322
1757.02357	0.028418
1755.09490	0.028551
1753.16622	0.028663
1751.23755	0.028735
1749.30887	0.028825
1747.38020	0.028955
1745.45152	0.029096
1743.52284	0.029218
1741.59417	0.029300
1739.66549	0.029368
1737.73682	0.029447
1735.80814	0.029496
1733.87947	0.029561
1731.95079	0.029756
1730.02211	0.030021
1728.09344	0.030189
1726.16476	0.030258
1724.23609	0.030311
1722.30741	0.030347
1720.37874	0.030390
1718.45006	0.030535
1716.52138	0.030780
1714.59271	0.031036
1712.66403	0.031218
1710.73536	0.031287
1708.80668	0.031320
1706.87801	0.031422
1704.94933	0.031593
1703.02065	0.031737
1701.09198	0.031805
1699.16330	0.031883
1697.23463	0.032005
1695.30595	0.032124
1693.37728	0.032251
1691.44860	0.032388
1689.51992	0.032515
1687.59125	0.032618
1685.66257	0.032700
1683.73390	0.032827
1681.80522	0.033053
1679.87655	0.033276
1677.94787	0.033366
1676.01919	0.033409
1674.09052	0.033533
1672.16184	0.033674
1670.23317	0.033816
1668.30449	0.034014
1666.37582	0.034144
1664.44714	0.034172
1662.51846	0.034281
1660.58979	0.034497
1658.66111	0.034679
1656.73244	0.034714
1654.80376	0.034648
1652.87509	0.034708
1650.94641	0.034931
1649.01773	0.035109
1647.08906	0.035200
1645.16038	0.035338
1643.23171	0.035550
1641.30303	0.035789
1639.37436	0.035983
1637.44568	0.036077
1635.51700	0.036169
1633.58833	0.036358
1631.65965	0.036559
1629.73098	0.036675
1627.80230	0.036720
1625.87363	0.036754
1623.94495	0.036828
1622.01627	0.036948
1620.08760	0.037053
1618.15892	0.037168
1616.23025	0.037422
1614.30157	0.037780
1612.37290	0.038073
1610.44422	0.038284
1608.51554	0.038502
1606.58687	0.038739
1604.65819	0.038944
1602.72952	0.039112
1600.80084	0.039276
1598.87217	0.039422
1596.94349	0.039541
1595.01481	0.039662
1593.08614	0.039789
1591.15746	0.039912
1589.22879	0.040047
1587.30011	0.040269
1585.37144	0.040565
1583.44276	0.040787
1581.51408	0.040922
1579.58541	0.041062
1577.65673	0.041207
1575.72806	0.041392
1573.79938	0.041610
1571.87071	0.041728
1569.94203	0.041816
1568.01335	0.042047
1566.08468	0.042316
1564.15600	0.042480
1562.22733	0.042524
1560.29865	0.042529
1558.36998	0.042728
1556.44130	0.043128
1554.51262	0.043461
1552.58395	0.043637
1550.65527	0.043758
1548.72660	0.043898
1546.79792	0.044049
1544.86925	0.044191
1542.94057	0.044307
1541.01189	0.044438
1539.08322	0.044648
1537.15454	0.044874
1535.22587	0.045066
1533.29719	0.045295
1531.36852	0.045540
1529.43984	0.045715
1527.51116	0.045852
1525.58249	0.046018
1523.65381	0.046189
1521.72514	0.046354
1519.79646	0.046548
1517.86779	0.046734
1515.93911	0.046901
1514.01043	0.047146
1512.08176	0.047423
1510.15308	0.047544
1508.22441	0.047557
1506.29573	0.047710
1504.36706	0.048042
1502.43838	0.048347
1500.50970	0.048484
1498.58103	0.048563
1496.65235	0.048745
1494.72368	0.049001
1492.79500	0.049191
1490.86633	0.049275
1488.93765	0.049377
1487.00897	0.049610
1485.08030	0.049843
1483.15162	0.049936
1481.22295	0.050013
1479.29427	0.050124
1477.36560	0.050136
1475.43692	0.050077
1473.50824	0.050080
1471.57957	0.050216
1469.65089	0.050449
1467.72222	0.050607
1465.79354	0.050690
1463.86487	0.050856
1461.93619	0.051024
1460.00751	0.051043
1458.07884	0.051039
1456.15016	0.051179
1454.22149	0.051424
1452.29281	0.051709
1450.36414	0.051990
1448.43546	0.052214
1446.50678	0.052453
1444.57811	0.052741
1442.64943	0.052992
1440.72076	0.053212
1438.79208	0.053376
1436.86341	0.053523
1434.93473	0.053822
1433.00605	0.054168
1431.07738	0.054430
1429.14870	0.054694
1427.22003	0.054894
1425.29135	0.055009
1423.36268	0.055195
1421.43400	0.055385
1419.50532	0.055512
1417.57665	0.055726
1415.64797	0.056036
1413.71930	0.056308
1411.79062	0.056515
1409.86195	0.056727
1407.93327	0.056960
1406.00459	0.057162
1404.07592	0.057355
1402.14724	0.057593
1400.21857	0.057803
1398.28989	0.057908
1396.36122	0.057975
1394.43254	0.058152
1392.50386	0.058446
1390.57519	0.058694
1388.64651	0.058834
1386.71784	0.058926
1384.78916	0.059033
1382.86049	0.059249
1380.93181	0.059575
1379.00313	0.059863
1377.07446	0.060029
1375.14578	0.060141
1373.21711	0.060266
1371.28843	0.060442
1369.35976	0.060720
1367.43108	0.061032
1365.50240	0.061232
1363.57373	0.061385
1361.64505	0.061648
1359.71638	0.061957
1357.78770	0.062209
1355.85903	0.062421
1353.93035	0.062636
1352.00167	0.062875
1350.07300	0.063110
1348.14432	0.063354
1346.21565	0.063631
1344.28697	0.063862
1342.35830	0.064023
1340.42962	0.064188
1338.50094	0.064369
1336.57227	0.064544
1334.64359	0.064738
1332.71492	0.064955
1330.78624	0.065120
1328.85757	0.065201
1326.92889	0.065297
1325.00021	0.065488
1323.07154	0.065691
1321.14286	0.065813
1319.21419	0.065905
1317.28551	0.066025
1315.35684	0.066160
1313.42816	0.066280
1311.49948	0.066391
1309.57081	0.066551
1307.64213	0.066744
1305.71346	0.066870
1303.78478	0.066941
1301.85611	0.067004
1299.92743	0.066984
1297.99875	0.066912
1296.07008	0.066958
1294.14140	0.067129
1292.21273	0.067301
1290.28405	0.067426
1288.35538	0.067488
1286.42670	0.067457
1284.49802	0.067368
1282.56935	0.067302
1280.64067	0.067311
1278.71200	0.067339
1276.78332	0.067277
1274.85465	0.067107
1272.92597	0.066859
1270.99729	0.066560
1269.06862	0.066235
1267.13994	0.065880
1265.21127	0.065559
1263.28259	0.065423
1261.35392	0.065518
1259.42524	0.065748
1257.49656	0.066045
1255.56789	0.066383
1253.63921	0.066714
1251.71054	0.067047
1249.78186	0.067392
1247.85319	0.067695
1245.92451	0.067907
1243.99583	0.068045
1242.06716	0.068162
1240.13848	0.068276
1238.20981	0.068401
1236.28113	0.068528
1234.35246	0.068600
1232.42378	0.068625
1230.49510	0.068665
1228.56643	0.068707
1226.63775	0.068701
1224.70908	0.068692
1222.78040	0.068712
1220.85173	0.068698
1218.92305	0.068624
1216.99437	0.068535
1215.06570	0.068469
1213.13702	0.068425
1211.20835	0.068403
1209.27967	0.068451
1207.35100	0.068512
1205.42232	0.068464
1203.49364	0.068294
1201.56497	0.068079
1199.63629	0.067915
1197.70762	0.067856
1195.77894	0.067850
1193.85027	0.067872
1191.92159	0.067893
1189.99291	0.067816
1188.06424	0.067660
1186.13556	0.067483
1184.20689	0.067281
1182.27821	0.067117
1180.34954	0.066974
1178.42086	0.066742
1176.49218	0.066490
1174.56351	0.066320
1172.63483	0.066184
1170.70616	0.066042
1168.77748	0.065845
1166.84881	0.065552
1164.92013	0.065261
1162.99145	0.065102
1161.06278	0.065022
1159.13410	0.064849
1157.20543	0.064601
1155.27675	0.064412
1153.34808	0.064271
1151.41940	0.064126
1149.49072	0.063936
1147.56205	0.063679
1145.63337	0.063419
1143.70470	0.063181
1141.77602	0.062915
1139.84735	0.062639
1137.91867	0.062365
1135.98999	0.061970
1134.06132	0.061350
1132.13264	0.060560
1130.20397	0.059661
1128.27529	0.058575
1126.34662	0.057224
1124.41794	0.055671
1122.48926	0.053991
1120.56059	0.052207
1118.63191	0.050394
1116.70324	0.048586
1114.77456	0.046711
1112.84589	0.044774
1110.91721	0.042924
1108.98853	0.041218
1107.05986	0.039593
1105.13118	0.038109
1103.20251	0.036902
1101.27383	0.035965
1099.34516	0.035200
1097.41648	0.034522
1095.48780	0.033940
1093.55913	0.033562
1091.63045	0.033380
1089.70178	0.033236
1087.77310	0.033069
1085.84443	0.032905
1083.91575	0.032808
1081.98707	0.032818
1080.05840	0.032878
1078.12972	0.032946
1076.20105	0.033078
1074.27237	0.033331
1072.34370	0.033662
1070.41502	0.034012
1068.48634	0.034384
1066.55767	0.034811
1064.62899	0.035349
1062.70032	0.035974
1060.77164	0.036618
1058.84297	0.037312
1056.91429	0.038085
1054.98561	0.038901
1053.05694	0.039807
1051.12826	0.040860
1049.19959	0.041994
1047.27091	0.043115
1045.34224	0.044210
1043.41356	0.045378
1041.48488	0.046687
1039.55621	0.048066
1037.62753	0.049486
1035.69886	0.051007
1033.77018	0.052618
1031.84151	0.054261
1029.91283	0.055918
1027.98415	0.057587
1026.05548	0.059311
1024.12680	0.061071
1022.19813	0.062764
1020.26945	0.064442
1018.34078	0.066227
1016.41210	0.068082
1014.48342	0.069869
1012.55475	0.071528
1010.62607	0.073140
1008.69740	0.074718
1006.76872	0.076196
1004.84005	0.077557
1002.91137	0.078790
1000.98269	0.079939
999.05402	0.081058
997.12534	0.082091
995.19667	0.082960
993.26799	0.083637
991.33932	0.084152
989.41064	0.084645
987.48196	0.085202
985.55329	0.085749
983.62461	0.086285
981.69594	0.086794
979.76726	0.087151
977.83859	0.087344
975.90991	0.087490
973.98123	0.087749
972.05256	0.088171
970.12388	0.088606
968.19521	0.088914
966.26653	0.089095
964.33786	0.089230
962.40918	0.089414
960.48050	0.089679
958.55183	0.089920
956.62315	0.090049
954.69448	0.090174
952.76580	0.090389
950.83713	0.090573
948.90845	0.090654
946.97977	0.090768
945.05110	0.090959
943.12242	0.091112
941.19375	0.091198
939.26507	0.091236
937.33640	0.091185
935.40772	0.091023
933.47904	0.090790
931.55037	0.090555
929.62169	0.090355
927.69302	0.090169
925.76434	0.089995
923.83567	0.089828
921.90699	0.089625
919.97831	0.089405
918.04964	0.089232
916.12096	0.089044
914.19229	0.088705
912.26361	0.088234
910.33494	0.087814
908.40626	0.087566
906.47758	0.087424
904.54891	0.087218
902.62023	0.086922
900.69156	0.086657
898.76288	0.086440
896.83421	0.086195
894.90553	0.085931
892.97685	0.085724
891.04818	0.085636
889.11950	0.085646
887.19083	0.085680
885.26215	0.085686
883.33348	0.085593
881.40480	0.085421
879.47612	0.085311
877.54745	0.085261
875.61877	0.085220
873.69010	0.085247
871.76142	0.085296
869.83275	0.085292
867.90407	0.085276
865.97539	0.085281
864.04672	0.085325
862.11804	0.085470
860.18937	0.085618
858.26069	0.085586
856.33202	0.085452
854.40334	0.085354
852.47466	0.085254
850.54599	0.085177
848.61731	0.085161
846.68864	0.085090
844.75996	0.084945
842.83129	0.084857
840.90261	0.084806
838.97394	0.084701
837.04526	0.084541
835.11658	0.084282
833.18791	0.083845
831.25923	0.083245
829.33056	0.082548
827.40188	0.081821
825.47321	0.081166
823.54453	0.080671
821.61585	0.080322
819.68718	0.080051
817.75850	0.079831
815.82983	0.079613
813.90115	0.079421
811.97248	0.079446
810.04380	0.079661
808.11512	0.079842
806.18645	0.080003
804.25777	0.080290
802.32910	0.080659
800.40042	0.080846
798.47175	0.080745
796.54307	0.080606
794.61439	0.080549
792.68572	0.080468
790.75704	0.080457
788.82837	0.080729
786.89969	0.081282
784.97102	0.081884
783.04234	0.082316
781.11366	0.082549
779.18499	0.082670
777.25631	0.082837
775.32764	0.083186
773.39896	0.083614
771.47029	0.083932
769.54161	0.084113
767.61293	0.084186
765.68426	0.084178
763.75558	0.084131
761.82691	0.084067
759.89823	0.083919
757.96956	0.083659
756.04088	0.083391
754.11220	0.083136
752.18353	0.082808
750.25485	0.082397
748.32618	0.081988
746.39750	0.081604
744.46883	0.081113
742.54015	0.080492
740.61147	0.080031
738.68280	0.079953
736.75412	0.080129
734.82545	0.080394
732.89677	0.080691
730.96810	0.080989
729.03942	0.081375
727.11074	0.081903
725.18207	0.082411
723.25339	0.082818
721.32472	0.083268
719.39604	0.083867
717.46737	0.084581
715.53869	0.085348
713.61001	0.086130
711.68134	0.086832
709.75266	0.087346
707.82399	0.087759
705.89531	0.088149
703.96664	0.088351
702.03796	0.088308
700.10928	0.088141
698.18061	0.087873
696.25193	0.087566
694.32326	0.087375
692.39458	0.087269
690.46591	0.087073
688.53723	0.086801
686.60855	0.086612
684.67988	0.086541
682.75120	0.086457
680.82253	0.086177
678.89385	0.085720
676.96518	0.085396
675.03650	0.085329
673.10782	0.085193
671.17915	0.084627
669.25047	0.083764
667.32180	0.083120
665.39312	0.082789
663.46445	0.082400
661.53577	0.081765
659.60709	0.081019
657.67842	0.080464
655.74974	0.080110
653.82107	0.079657
651.89239	0.079079
649.96372	0.078497
648.03504	0.077906
646.10636	0.077297
644.17769	0.076603
642.24901	0.075759
640.32034	0.074850
638.39166	0.073941
636.46299	0.073011
634.53431	0.072033
632.60563	0.070647
630.67696	0.068056
628.74828	0.063835
626.81961	0.058564
624.89093	0.053373
622.96226	0.049310
621.03358	0.046892
619.10490	0.045716
617.17623	0.044992
615.24755	0.044237
613.31888	0.043264
611.39020	0.042297
609.46153	0.041813
607.53285	0.042005
605.60417	0.042698
603.67550	0.043603
601.74682	0.044662
599.81815	0.045937
597.88947	0.047258
595.96080	0.048406
594.03212	0.049315
592.10344	0.049979
590.17477	0.050392
588.24609	0.050571
586.31742	0.050557
584.38874	0.050419
582.46007	0.050292
580.53139	0.050239
578.60271	0.050057
576.67404	0.049605
574.74536	0.049003
572.81669	0.048306
570.88801	0.047480
568.95934	0.046661
567.03066	0.046095
565.10198	0.045755
563.17331	0.045436
561.24463	0.045204
559.31596	0.045128
557.38728	0.045064
555.45861	0.044901
553.52993	0.044604
551.60125	0.044328
549.67258	0.044292
547.74390	0.044435
545.81523	0.044558
543.88655	0.044521
541.95788	0.044341
540.02920	0.044201
538.10052	0.044153
536.17185	0.044018
534.24317	0.043719
532.31450	0.043346
530.38582	0.042946
528.45715	0.042595
526.52847	0.042339
524.59979	0.042071
522.67112	0.041657
520.74244	0.041080
518.81377	0.040403
516.88509	0.039642
514.95642	0.038939
513.02774	0.038546
511.09906	0.038429
509.17039	0.038341
507.24171	0.038173
505.31304	0.037926
503.38436	0.037565
501.45569	0.037074
499.52701	0.036523
497.59833	0.035972
495.66966	0.035308
493.74098	0.034491
491.81231	0.033804
489.88363	0.033310
487.95496	0.032715
486.02628	0.031907
484.09760	0.031011
482.16893	0.030136
480.24025	0.029235
478.31158	0.028191
476.38290	0.027054
474.45423	0.025978
472.52555	0.024963
470.59687	0.023938
468.66820	0.022989
466.73952	0.022298
464.81085	0.021912
462.88217	0.021680
460.95350	0.021523
459.02482	0.021464
457.09614	0.021393
455.16747	0.021309
453.23879	0.021386
451.31012	0.021634
449.38144	0.021945
447.45277	0.022217
445.52409	0.022378
443.59541	0.022456
441.66674	0.022522
439.73806	0.022527
437.80939	0.022442
435.88071	0.022342
433.95204	0.022106
432.02336	0.021616
430.09468	0.021111
428.16601	0.020761
426.23733	0.020439
424.30866	0.020009
422.37998	0.019433
420.45131	0.018808
418.52263	0.018138
416.59395	0.017323
414.66528	0.016568
412.73660	0.016019
410.80793	0.015381
408.87925	0.014535
406.95058	0.013759
405.02190	0.013159
403.09322	0.012554
401.16455	0.011860
399.23587	0.011241
397.30720	0.010796
395.37852	0.010341
393.44985	0.009663
391.52117	0.008835
389.59249	0.008181
387.66382	0.007826
385.73514	0.007419
383.80647	0.006768
381.87779	0.006135
379.94912	0.005671
378.02044	0.005310
376.09176	0.005025
374.16309	0.004750
372.23441	0.004300
370.30574	0.003707
368.37706	0.003218
