7496.76250	0.00117
7494.83382	0.00117
7492.90514	0.00115
7490.97647	0.00115
7489.04779	0.00117
7487.11912	0.00117
7485.19044	0.00116
7483.26177	0.00116
7481.33309	0.00117
7479.40441	0.00119
7477.47574	0.00120
7475.54706	0.00120
7473.61839	0.00120
7471.68971	0.00120
7469.76104	0.00121
7467.83236	0.00122
7465.90368	0.00121
7463.97501	0.00120
7462.04633	0.00121
7460.11766	0.00122
7458.18898	0.00123
7456.26031	0.00122
7454.33163	0.00121
7452.40295	0.00122
7450.47428	0.00122
7448.54560	0.00123
7446.61693	0.00124
7444.68825	0.00124
7442.75958	0.00124
7440.83090	0.00124
7438.90222	0.00124
7436.97355	0.00125
7435.04487	0.00126
7433.11620	0.00126
7431.18752	0.00126
7429.25885	0.00127
7427.33017	0.00128
7425.40149	0.00128
7423.47282	0.00129
7421.54414	0.00128
7419.61547	0.00129
7417.68679	0.00130
7415.75812	0.00131
7413.82944	0.00132
7411.90076	0.00132
7409.97209	0.00132
7408.04341	0.00132
7406.11474	0.00133
7404.18606	0.00134
7402.25739	0.00133
7400.32871	0.00132
7398.40003	0.00133
7396.47136	0.00134
7394.54268	0.00134
7392.61401	0.00133
7390.68533	0.00133
7388.75666	0.00132
7386.82798	0.00133
7384.89930	0.00134
7382.97063	0.00134
7381.04195	0.00133
7379.11328	0.00133
7377.18460	0.00135
7375.25593	0.00137
7373.32725	0.00138
7371.39857	0.00140
7369.46990	0.00140
7367.54122	0.00140
7365.61255	0.00138
7363.68387	0.00137
7361.75520	0.00136
7359.82652	0.00137
7357.89784	0.00139
7355.96917	0.00141
7354.04049	0.00142
7352.11182	0.00142
7350.18314	0.00142
7348.25447	0.00142
7346.32579	0.00143
7344.39711	0.00144
7342.46844	0.00143
7340.53976	0.00141
7338.61109	0.00141
7336.68241	0.00141
7334.75374	0.00143
7332.82506	0.00145
7330.89638	0.00147
7328.96771	0.00149
7327.03903	0.00149
7325.11036	0.00147
7323.18168	0.00147
7321.25301	0.00146
7319.32433	0.00146
7317.39565	0.00147
7315.46698	0.00148
7313.53830	0.00148
7311.60963	0.00148
7309.68095	0.00149
7307.75228	0.00149
7305.82360	0.00149
7303.89492	0.00149
7301.96625	0.00148
7300.03757	0.00148
7298.10890	0.00148
7296.18022	0.00149
7294.25155	0.00151
7292.32287	0.00152
7290.39419	0.00153
7288.46552	0.00153
7286.53684	0.00153
7284.60817	0.00152
7282.67949	0.00151
7280.75082	0.00151
7278.82214	0.00153
7276.89346	0.00154
7274.96479	0.00154
7273.03611	0.00154
7271.10744	0.00155
7269.17876	0.00155
7267.25009	0.00156
7265.32141	0.00157
7263.39273	0.00157
7261.46406	0.00158
7259.53538	0.00159
7257.60671	0.00160
7255.67803	0.00160
7253.74936	0.00158
7251.82068	0.00157
7249.89200	0.00158
7247.96333	0.00160
7246.03465	0.00162
7244.10598	0.00162
7242.17730	0.00161
7240.24863	0.00160
7238.31995	0.00160
7236.39127	0.00159
7234.46260	0.00159
7232.53392	0.00160
7230.60525	0.00161
7228.67657	0.00161
7226.74790	0.00161
7224.81922	0.00162
7222.89054	0.00164
7220.96187	0.00164
7219.03319	0.00163
7217.10452	0.00163
7215.17584	0.00165
7213.24717	0.00166
7211.31849	0.00167
7209.38981	0.00168
7207.46114	0.00169
7205.53246	0.00170
7203.60379	0.00170
7201.67511	0.00169
7199.74644	0.00169
7197.81776	0.00170
7195.88908	0.00169
7193.96041	0.00168
7192.03173	0.00169
7190.10306	0.00171
7188.17438	0.00172
7186.24571	0.00172
7184.31703	0.00171
7182.38835	0.00172
7180.45968	0.00173
7178.53100	0.00173
7176.60233	0.00173
7174.67365	0.00174
7172.74498	0.00175
7170.81630	0.00175
7168.88762	0.00175
7166.95895	0.00175
7165.03027	0.00174
7163.10160	0.00174
7161.17292	0.00174
7159.24425	0.00176
7157.31557	0.00178
7155.38689	0.00178
7153.45822	0.00179
7151.52954	0.00179
7149.60087	0.00178
7147.67219	0.00178
7145.74352	0.00179
7143.81484	0.00181
7141.88616	0.00181
7139.95749	0.00182
7138.02881	0.00182
7136.10014	0.00183
7134.17146	0.00183
7132.24279	0.00182
7130.31411	0.00182
7128.38543	0.00182
7126.45676	0.00182
7124.52808	0.00182
7122.59941	0.00184
7120.67073	0.00186
7118.74206	0.00187
7116.81338	0.00189
7114.88470	0.00189
7112.95603	0.00188
7111.02735	0.00187
7109.09868	0.00188
7107.17000	0.00190
7105.24133	0.00190
7103.31265	0.00190
7101.38397	0.00189
7099.45530	0.00189
7097.52662	0.00190
7095.59795	0.00191
7093.66927	0.00192
7091.74060	0.00192
7089.81192	0.00191
7087.88324	0.00192
7085.95457	0.00194
7084.02589	0.00195
7082.09722	0.00193
7080.16854	0.00192
7078.23987	0.00193
7076.31119	0.00195
7074.38251	0.00195
7072.45384	0.00195
7070.52516	0.00196
7068.59649	0.00197
7066.66781	0.00198
7064.73914	0.00198
7062.81046	0.00197
7060.88178	0.00198
7058.95311	0.00198
7057.02443	0.00198
7055.09576	0.00199
7053.16708	0.00200
7051.23841	0.00200
7049.30973	0.00201
7047.38105	0.00202
7045.45238	0.00202
7043.52370	0.00201
7041.59503	0.00201
7039.66635	0.00201
7037.73768	0.00201
7035.80900	0.00201
7033.88032	0.00203
7031.95165	0.00206
7030.02297	0.00207
7028.09430	0.00207
7026.16562	0.00206
7024.23695	0.00204
7022.30827	0.00203
7020.37959	0.00204
7018.45092	0.00205
7016.52224	0.00206
7014.59357	0.00207
7012.66489	0.00208
7010.73622	0.00208
7008.80754	0.00208
7006.87886	0.00209
7004.95019	0.00210
7003.02151	0.00210
7001.09284	0.00212
6999.16416	0.00213
6997.23549	0.00214
6995.30681	0.00214
6993.37813	0.00213
6991.44946	0.00214
6989.52078	0.00214
6987.59211	0.00214
6985.66343	0.00213
6983.73476	0.00213
6981.80608	0.00214
6979.87740	0.00216
6977.94873	0.00217
6976.02005	0.00216
6974.09138	0.00216
6972.16270	0.00217
6970.23403	0.00219
6968.30535	0.00220
6966.37667	0.00220
6964.44800	0.00220
6962.51932	0.00220
6960.59065	0.00220
6958.66197	0.00220
6956.73330	0.00221
6954.80462	0.00222
6952.87594	0.00223
6950.94727	0.00224
6949.01859	0.00225
6947.08992	0.00225
6945.16124	0.00225
6943.23257	0.00224
6941.30389	0.00223
6939.37521	0.00223
6937.44654	0.00225
6935.51786	0.00225
6933.58919	0.00225
6931.66051	0.00225
6929.73184	0.00227
6927.80316	0.00230
6925.87448	0.00231
6923.94581	0.00231
6922.01713	0.00230
6920.08846	0.00229
6918.15978	0.00231
6916.23111	0.00233
6914.30243	0.00233
6912.37375	0.00233
6910.44508	0.00233
6908.51640	0.00235
6906.58773	0.00236
6904.65905	0.00235
6902.73038	0.00235
6900.80170	0.00235
6898.87302	0.00236
6896.94435	0.00236
6895.01567	0.00235
6893.08700	0.00235
6891.15832	0.00236
6889.22965	0.00237
6887.30097	0.00237
6885.37229	0.00237
6883.44362	0.00238
6881.51494	0.00242
6879.58627	0.00244
6877.65759	0.00244
6875.72892	0.00243
6873.80024	0.00243
6871.87156	0.00244
6869.94289	0.00244
6868.01421	0.00244
6866.08554	0.00245
6864.15686	0.00246
6862.22819	0.00246
6860.29951	0.00245
6858.37083	0.00244
6856.44216	0.00245
6854.51348	0.00246
6852.58481	0.00248
6850.65613	0.00250
6848.72746	0.00250
6846.79878	0.00250
6844.87010	0.00251
6842.94143	0.00252
6841.01275	0.00251
6839.08408	0.00252
6837.15540	0.00253
6835.22673	0.00255
6833.29805	0.00255
6831.36937	0.00255
6829.44070	0.00256
6827.51202	0.00255
6825.58335	0.00255
6823.65467	0.00255
6821.72600	0.00257
6819.79732	0.00258
6817.86864	0.00258
6815.93997	0.00258
6814.01129	0.00260
6812.08262	0.00260
6810.15394	0.00260
6808.22527	0.00260
6806.29659	0.00261
6804.36791	0.00261
6802.43924	0.00260
6800.51056	0.00261
6798.58189	0.00263
6796.65321	0.00264
6794.72454	0.00263
6792.79586	0.00264
6790.86718	0.00265
6788.93851	0.00265
6787.00983	0.00265
6785.08116	0.00265
6783.15248	0.00267
6781.22381	0.00271
6779.29513	0.00273
6777.36645	0.00273
6775.43778	0.00271
6773.50910	0.00270
6771.58043	0.00270
6769.65175	0.00271
6767.72308	0.00272
6765.79440	0.00273
6763.86572	0.00274
6761.93705	0.00275
6760.00837	0.00275
6758.07970	0.00276
6756.15102	0.00277
6754.22235	0.00276
6752.29367	0.00275
6750.36499	0.00275
6748.43632	0.00276
6746.50764	0.00277
6744.57897	0.00280
6742.65029	0.00281
6740.72162	0.00282
6738.79294	0.00281
6736.86426	0.00281
6734.93559	0.00282
6733.00691	0.00283
6731.07824	0.00284
6729.14956	0.00285
6727.22089	0.00286
6725.29221	0.00285
6723.36353	0.00285
6721.43486	0.00285
6719.50618	0.00285
6717.57751	0.00286
6715.64883	0.00287
6713.72016	0.00288
6711.79148	0.00291
6709.86280	0.00293
6707.93413	0.00293
6706.00545	0.00293
6704.07678	0.00292
6702.14810	0.00292
6700.21943	0.00292
6698.29075	0.00294
6696.36207	0.00294
6694.43340	0.00294
6692.50472	0.00296
6690.57605	0.00298
6688.64737	0.00298
6686.71870	0.00296
6684.79002	0.00296
6682.86134	0.00297
6680.93267	0.00297
6679.00399	0.00297
6677.07532	0.00298
6675.14664	0.00299
6673.21797	0.00300
6671.28929	0.00300
6669.36061	0.00300
6667.43194	0.00301
6665.50326	0.00303
6663.57459	0.00305
6661.64591	0.00304
6659.71724	0.00304
6657.78856	0.00304
6655.85988	0.00304
6653.93121	0.00306
6652.00253	0.00308
6650.07386	0.00308
6648.14518	0.00308
6646.21651	0.00310
6644.28783	0.00312
6642.35915	0.00313
6640.43048	0.00313
6638.50180	0.00313
6636.57313	0.00314
6634.64445	0.00315
6632.71578	0.00316
6630.78710	0.00316
6628.85842	0.00317
6626.92975	0.00319
6625.00107	0.00322
6623.07240	0.00322
6621.14372	0.00322
6619.21505	0.00321
6617.28637	0.00321
6615.35769	0.00320
6613.42902	0.00320
6611.50034	0.00321
6609.57167	0.00322
6607.64299	0.00322
6605.71432	0.00323
6603.78564	0.00324
6601.85696	0.00324
6599.92829	0.00326
6597.99961	0.00328
6596.07094	0.00329
6594.14226	0.00329
6592.21359	0.00329
6590.28491	0.00330
6588.35623	0.00331
6586.42756	0.00330
6584.49888	0.00329
6582.57021	0.00331
6580.64153	0.00335
6578.71286	0.00335
6576.78418	0.00335
6574.85550	0.00336
6572.92683	0.00338
6570.99815	0.00338
6569.06948	0.00337
6567.14080	0.00336
6565.21213	0.00336
6563.28345	0.00336
6561.35477	0.00339
6559.42610	0.00343
6557.49742	0.00345
6555.56875	0.00344
6553.64007	0.00343
6551.71140	0.00344
6549.78272	0.00345
6547.85404	0.00347
6545.92537	0.00349
6543.99669	0.00348
6542.06802	0.00348
6540.13934	0.00348
6538.21067	0.00348
6536.28199	0.00348
6534.35331	0.00348
6532.42464	0.00348
6530.49596	0.00349
6528.56729	0.00351
6526.63861	0.00353
6524.70994	0.00355
6522.78126	0.00354
6520.85258	0.00355
6518.92391	0.00356
6516.99523	0.00358
6515.06656	0.00359
6513.13788	0.00359
6511.20921	0.00360
6509.28053	0.00361
6507.35185	0.00361
6505.42318	0.00361
6503.49450	0.00361
6501.56583	0.00361
6499.63715	0.00360
6497.70848	0.00361
6495.77980	0.00363
6493.85112	0.00365
6491.92245	0.00366
6489.99377	0.00366
6488.06510	0.00367
6486.13642	0.00368
6484.20775	0.00369
6482.27907	0.00370
6480.35039	0.00370
6478.42172	0.00370
6476.49304	0.00370
6474.56437	0.00370
6472.63569	0.00371
6470.70702	0.00374
6468.77834	0.00375
6466.84966	0.00376
6464.92099	0.00378
6462.99231	0.00379
6461.06364	0.00378
6459.13496	0.00378
6457.20629	0.00380
6455.27761	0.00382
6453.34893	0.00383
6451.42026	0.00382
6449.49158	0.00382
6447.56291	0.00384
6445.63423	0.00385
6443.70556	0.00385
6441.77688	0.00385
6439.84820	0.00386
6437.91953	0.00387
6435.99085	0.00389
6434.06218	0.00390
6432.13350	0.00390
6430.20483	0.00390
6428.27615	0.00391
6426.34747	0.00392
6424.41880	0.00393
6422.49012	0.00395
6420.56145	0.00397
6418.63277	0.00397
6416.70410	0.00396
6414.77542	0.00395
6412.84674	0.00394
6410.91807	0.00396
6408.98939	0.00398
6407.06072	0.00400
6405.13204	0.00402
6403.20337	0.00404
6401.27469	0.00404
6399.34601	0.00404
6397.41734	0.00405
6395.48866	0.00404
6393.55999	0.00403
6391.63131	0.00405
6389.70264	0.00408
6387.77396	0.00409
6385.84528	0.00409
6383.91661	0.00409
6381.98793	0.00410
6380.05926	0.00411
6378.13058	0.00412
6376.20191	0.00413
6374.27323	0.00414
6372.34455	0.00416
6370.41588	0.00417
6368.48720	0.00418
6366.55853	0.00419
6364.62985	0.00420
6362.70118	0.00420
6360.77250	0.00420
6358.84382	0.00420
6356.91515	0.00420
6354.98647	0.00421
6353.05780	0.00423
6351.12912	0.00423
6349.20045	0.00423
6347.27177	0.00423
6345.34309	0.00424
6343.41442	0.00426
6341.48574	0.00428
6339.55707	0.00430
6337.62839	0.00431
6335.69972	0.00432
6333.77104	0.00432
6331.84236	0.00432
6329.91369	0.00433
6327.98501	0.00435
6326.05634	0.00437
6324.12766	0.00438
6322.19899	0.00439
6320.27031	0.00439
6318.34163	0.00441
6316.41296	0.00442
6314.48428	0.00443
6312.55561	0.00445
6310.62693	0.00447
6308.69826	0.00447
6306.76958	0.00447
6304.84090	0.00447
6302.91223	0.00449
6300.98355	0.00451
6299.05488	0.00451
6297.12620	0.00450
6295.19753	0.00451
6293.26885	0.00454
6291.34017	0.00455
6289.41150	0.00456
6287.48282	0.00456
6285.55415	0.00456
6283.62547	0.00456
6281.69680	0.00458
6279.76812	0.00460
6277.83944	0.00461
6275.91077	0.00461
6273.98209	0.00462
6272.05342	0.00463
6270.12474	0.00463
6268.19607	0.00464
6266.26739	0.00465
6264.33871	0.00465
6262.41004	0.00466
6260.48136	0.00468
6258.55269	0.00470
6256.62401	0.00471
6254.69534	0.00474
6252.76666	0.00475
6250.83798	0.00475
6248.90931	0.00475
6246.98063	0.00477
6245.05196	0.00478
6243.12328	0.00478
6241.19461	0.00478
6239.26593	0.00479
6237.33725	0.00481
6235.40858	0.00482
6233.47990	0.00483
6231.55123	0.00484
6229.62255	0.00482
6227.69388	0.00481
6225.76520	0.00484
6223.83652	0.00488
6221.90785	0.00491
6219.97917	0.00492
6218.05050	0.00491
6216.12182	0.00490
6214.19315	0.00491
6212.26447	0.00493
6210.33579	0.00496
6208.40712	0.00496
6206.47844	0.00496
6204.54977	0.00496
6202.62109	0.00499
6200.69242	0.00503
6198.76374	0.00503
6196.83506	0.00503
6194.90639	0.00503
6192.97771	0.00504
6191.04904	0.00505
6189.12036	0.00505
6187.19169	0.00505
6185.26301	0.00506
6183.33433	0.00508
6181.40566	0.00510
6179.47698	0.00512
6177.54831	0.00512
6175.61963	0.00510
6173.69096	0.00510
6171.76228	0.00512
6169.83360	0.00514
6167.90493	0.00515
6165.97625	0.00518
6164.04758	0.00520
6162.11890	0.00521
6160.19023	0.00523
6158.26155	0.00525
6156.33287	0.00526
6154.40420	0.00527
6152.47552	0.00527
6150.54685	0.00527
6148.61817	0.00527
6146.68950	0.00528
6144.76082	0.00530
6142.83214	0.00533
6140.90347	0.00535
6138.97479	0.00536
6137.04612	0.00537
6135.11744	0.00539
6133.18877	0.00540
6131.26009	0.00541
6129.33141	0.00542
6127.40274	0.00542
6125.47406	0.00541
6123.54539	0.00541
6121.61671	0.00543
6119.68804	0.00545
6117.75936	0.00546
6115.83068	0.00548
6113.90201	0.00550
6111.97333	0.00552
6110.04466	0.00553
6108.11598	0.00554
6106.18731	0.00554
6104.25863	0.00555
6102.32995	0.00557
6100.40128	0.00558
6098.47260	0.00558
6096.54393	0.00559
6094.61525	0.00561
6092.68658	0.00563
6090.75790	0.00564
6088.82922	0.00564
6086.90055	0.00564
6084.97187	0.00564
6083.04320	0.00564
6081.11452	0.00566
6079.18585	0.00568
6077.25717	0.00569
6075.32849	0.00570
6073.39982	0.00571
6071.47114	0.00573
6069.54247	0.00574
6067.61379	0.00576
6065.68512	0.00579
6063.75644	0.00581
6061.82776	0.00582
6059.89909	0.00583
6057.97041	0.00583
6056.04174	0.00584
6054.11306	0.00586
6052.18439	0.00588
6050.25571	0.00590
6048.32703	0.00590
6046.39836	0.00592
6044.46968	0.00594
6042.54101	0.00596
6040.61233	0.00596
6038.68366	0.00596
6036.75498	0.00596
6034.82630	0.00597
6032.89763	0.00598
6030.96895	0.00601
6029.04028	0.00603
6027.11160	0.00603
6025.18293	0.00604
6023.25425	0.00606
6021.32557	0.00607
6019.39690	0.00607
6017.46822	0.00609
6015.53955	0.00611
6013.61087	0.00611
6011.68220	0.00612
6009.75352	0.00613
6007.82484	0.00615
6005.89617	0.00617
6003.96749	0.00618
6002.03882	0.00620
6000.11014	0.00622
5998.18147	0.00623
5996.25279	0.00625
5994.32411	0.00626
5992.39544	0.00626
5990.46676	0.00626
5988.53809	0.00628
5986.60941	0.00632
5984.68074	0.00635
5982.75206	0.00635
5980.82338	0.00633
5978.89471	0.00633
5976.96603	0.00635
5975.03736	0.00638
5973.10868	0.00640
5971.18001	0.00641
5969.25133	0.00642
5967.32265	0.00644
5965.39398	0.00646
5963.46530	0.00646
5961.53663	0.00646
5959.60795	0.00647
5957.67928	0.00648
5955.75060	0.00650
5953.82192	0.00652
5951.89325	0.00653
5949.96457	0.00654
5948.03590	0.00655
5946.10722	0.00657
5944.17855	0.00660
5942.24987	0.00664
5940.32119	0.00666
5938.39252	0.00666
5936.46384	0.00666
5934.53517	0.00665
5932.60649	0.00665
5930.67782	0.00667
5928.74914	0.00669
5926.82046	0.00671
5924.89179	0.00672
5922.96311	0.00674
5921.03444	0.00676
5919.10576	0.00679
5917.17709	0.00680
5915.24841	0.00680
5913.31973	0.00679
5911.39106	0.00680
5909.46238	0.00683
5907.53371	0.00687
5905.60503	0.00688
5903.67636	0.00686
5901.74768	0.00686
5899.81900	0.00689
5897.89033	0.00692
5895.96165	0.00695
5894.03298	0.00697
5892.10430	0.00697
5890.17563	0.00698
5888.24695	0.00699
5886.31827	0.00700
5884.38960	0.00703
5882.46092	0.00705
5880.53225	0.00706
5878.60357	0.00707
5876.67490	0.00708
5874.74622	0.00709
5872.81755	0.00711
5870.88887	0.00712
5868.96019	0.00712
5867.03152	0.00714
5865.10284	0.00717
5863.17417	0.00720
5861.24549	0.00720
5859.31682	0.00721
5857.38814	0.00720
5855.45946	0.00720
5853.53079	0.00722
5851.60211	0.00725
5849.67344	0.00728
5847.74476	0.00730
5845.81609	0.00732
5843.88741	0.00734
5841.95873	0.00733
5840.03006	0.00732
5838.10138	0.00733
5836.17271	0.00735
5834.24403	0.00738
5832.31536	0.00743
5830.38668	0.00747
5828.45800	0.00749
5826.52933	0.00749
5824.60065	0.00749
5822.67198	0.00749
5820.74330	0.00749
5818.81463	0.00751
5816.88595	0.00753
5814.95727	0.00755
5813.02860	0.00756
5811.09992	0.00757
5809.17125	0.00760
5807.24257	0.00762
5805.31390	0.00765
5803.38522	0.00765
5801.45654	0.00764
5799.52787	0.00764
5797.59919	0.00766
5795.67052	0.00768
5793.74184	0.00771
5791.81317	0.00773
5789.88449	0.00775
5787.95581	0.00777
5786.02714	0.00779
5784.09846	0.00779
5782.16979	0.00780
5780.24111	0.00781
5778.31244	0.00784
5776.38376	0.00787
5774.45508	0.00788
5772.52641	0.00789
5770.59773	0.00792
5768.66906	0.00793
5766.74038	0.00794
5764.81171	0.00796
5762.88303	0.00797
5760.95435	0.00799
5759.02568	0.00800
5757.09700	0.00799
5755.16833	0.00801
5753.23965	0.00806
5751.31098	0.00809
5749.38230	0.00811
5747.45362	0.00813
5745.52495	0.00814
5743.59627	0.00815
5741.66760	0.00817
5739.73892	0.00820
5737.81025	0.00821
5735.88157	0.00821
5733.95289	0.00822
5732.02422	0.00823
5730.09554	0.00824
5728.16687	0.00826
5726.23819	0.00828
5724.30952	0.00831
5722.38084	0.00832
5720.45216	0.00833
5718.52349	0.00835
5716.59481	0.00837
5714.66614	0.00839
5712.73746	0.00841
5710.80879	0.00843
5708.88011	0.00846
5706.95143	0.00848
5705.02276	0.00850
5703.09408	0.00850
5701.16541	0.00850
5699.23673	0.00851
5697.30806	0.00853
5695.37938	0.00853
5693.45070	0.00854
5691.52203	0.00856
5689.59335	0.00858
5687.66468	0.00860
5685.73600	0.00863
5683.80733	0.00865
5681.87865	0.00867
5679.94997	0.00870
5678.02130	0.00872
5676.09262	0.00873
5674.16395	0.00873
5672.23527	0.00874
5670.30660	0.00876
5668.37792	0.00880
5666.44924	0.00883
5664.52057	0.00884
5662.59189	0.00884
5660.66322	0.00884
5658.73454	0.00885
5656.80587	0.00887
5654.87719	0.00890
5652.94851	0.00892
5651.01984	0.00894
5649.09116	0.00896
5647.16249	0.00897
5645.23381	0.00898
5643.30514	0.00899
5641.37646	0.00902
5639.44778	0.00905
5637.51911	0.00908
5635.59043	0.00909
5633.66176	0.00911
5631.73308	0.00913
5629.80441	0.00916
5627.87573	0.00918
5625.94705	0.00920
5624.01838	0.00922
5622.08970	0.00923
5620.16103	0.00925
5618.23235	0.00927
5616.30368	0.00928
5614.37500	0.00929
5612.44632	0.00930
5610.51765	0.00932
5608.58897	0.00935
5606.66030	0.00938
5604.73162	0.00939
5602.80295	0.00940
5600.87427	0.00942
5598.94559	0.00944
5597.01692	0.00946
5595.08824	0.00948
5593.15957	0.00949
5591.23089	0.00951
5589.30222	0.00954
5587.37354	0.00956
5585.44486	0.00954
5583.51619	0.00955
5581.58751	0.00960
5579.65884	0.00964
5577.73016	0.00965
5575.80149	0.00965
5573.87281	0.00967
5571.94413	0.00972
5570.01546	0.00974
5568.08678	0.00974
5566.15811	0.00973
5564.22943	0.00974
5562.30076	0.00975
5560.37208	0.00978
5558.44340	0.00981
5556.51473	0.00983
5554.58605	0.00986
5552.65738	0.00988
5550.72870	0.00990
5548.80003	0.00993
5546.87135	0.00994
5544.94267	0.00995
5543.01400	0.00996
5541.08532	0.00997
5539.15665	0.01000
5537.22797	0.01002
5535.29930	0.01004
5533.37062	0.01006
5531.44194	0.01009
5529.51327	0.01010
5527.58459	0.01012
5525.65592	0.01016
5523.72724	0.01019
5521.79857	0.01020
5519.86989	0.01021
5517.94121	0.01023
5516.01254	0.01025
5514.08386	0.01027
5512.15519	0.01028
5510.22651	0.01030
5508.29784	0.01032
5506.36916	0.01035
5504.44048	0.01038
5502.51181	0.01039
5500.58313	0.01040
5498.65446	0.01042
5496.72578	0.01045
5494.79711	0.01047
5492.86843	0.01049
5490.93975	0.01050
5489.01108	0.01051
5487.08240	0.01055
5485.15373	0.01060
5483.22505	0.01061
5481.29638	0.01061
5479.36770	0.01062
5477.43902	0.01064
5475.51035	0.01066
5473.58167	0.01067
5471.65300	0.01068
5469.72432	0.01069
5467.79565	0.01071
5465.86697	0.01074
5463.93829	0.01078
5462.00962	0.01081
5460.08094	0.01084
5458.15227	0.01086
5456.22359	0.01086
5454.29492	0.01086
5452.36624	0.01090
5450.43756	0.01094
5448.50889	0.01097
5446.58021	0.01099
5444.65154	0.01101
5442.72286	0.01101
5440.79419	0.01103
5438.86551	0.01105
5436.93683	0.01107
5435.00816	0.01108
5433.07948	0.01111
5431.15081	0.01112
5429.22213	0.01113
5427.29346	0.01115
5425.36478	0.01118
5423.43610	0.01121
5421.50743	0.01124
5419.57875	0.01126
5417.65008	0.01128
5415.72140	0.01130
5413.79273	0.01132
5411.86405	0.01134
5409.93537	0.01136
5408.00670	0.01138
5406.07802	0.01140
5404.14935	0.01142
5402.22067	0.01145
5400.29200	0.01148
5398.36332	0.01150
5396.43464	0.01150
5394.50597	0.01150
5392.57729	0.01153
5390.64862	0.01157
5388.71994	0.01159
5386.79127	0.01160
5384.86259	0.01161
5382.93391	0.01165
5381.00524	0.01167
5379.07656	0.01166
5377.14789	0.01166
5375.21921	0.01170
5373.29054	0.01175
5371.36186	0.01179
5369.43318	0.01181
5367.50451	0.01183
5365.57583	0.01183
5363.64716	0.01183
5361.71848	0.01185
5359.78981	0.01189
5357.86113	0.01194
5355.93245	0.01198
5354.00378	0.01199
5352.07510	0.01199
5350.14643	0.01200
5348.21775	0.01203
5346.28908	0.01206
5344.36040	0.01209
5342.43172	0.01210
5340.50305	0.01211
5338.57437	0.01211
5336.64570	0.01214
5334.71702	0.01217
5332.78835	0.01221
5330.85967	0.01227
5328.93099	0.01231
5327.00232	0.01233
5325.07364	0.01232
5323.14497	0.01232
5321.21629	0.01233
5319.28762	0.01236
5317.35894	0.01238
5315.43026	0.01241
5313.50159	0.01244
5311.57291	0.01246
5309.64424	0.01247
5307.71556	0.01249
5305.78689	0.01251
5303.85821	0.01254
5301.92953	0.01257
5300.00086	0.01259
5298.07218	0.01261
5296.14351	0.01262
5294.21483	0.01265
5292.28616	0.01268
5290.35748	0.01270
5288.42880	0.01273
5286.50013	0.01275
5284.57145	0.01277
5282.64278	0.01279
5280.71410	0.01282
5278.78543	0.01285
5276.85675	0.01288
5274.92807	0.01290
5272.99940	0.01290
5271.07072	0.01292
5269.14205	0.01296
5267.21337	0.01299
5265.28470	0.01300
5263.35602	0.01301
5261.42734	0.01303
5259.49867	0.01306
5257.56999	0.01309
5255.64132	0.01311
5253.71264	0.01314
5251.78397	0.01317
5249.85529	0.01319
5247.92661	0.01320
5245.99794	0.01323
5244.06926	0.01327
5242.14059	0.01332
5240.21191	0.01335
5238.28324	0.01337
5236.35456	0.01338
5234.42588	0.01340
5232.49721	0.01342
5230.56853	0.01343
5228.63986	0.01343
5226.71118	0.01344
5224.78251	0.01346
5222.85383	0.01347
5220.92515	0.01348
5218.99648	0.01350
5217.06780	0.01356
5215.13913	0.01360
5213.21045	0.01362
5211.28178	0.01362
5209.35310	0.01365
5207.42442	0.01368
5205.49575	0.01372
5203.56707	0.01375
5201.63840	0.01377
5199.70972	0.01381
5197.78105	0.01383
5195.85237	0.01385
5193.92369	0.01387
5191.99502	0.01389
5190.06634	0.01392
5188.13767	0.01394
5186.20899	0.01396
5184.28032	0.01398
5182.35164	0.01400
5180.42296	0.01401
5178.49429	0.01401
5176.56561	0.01404
5174.63694	0.01408
5172.70826	0.01412
5170.77959	0.01415
5168.85091	0.01417
5166.92223	0.01419
5164.99356	0.01422
5163.06488	0.01426
5161.13621	0.01430
5159.20753	0.01431
5157.27886	0.01431
5155.35018	0.01433
5153.42150	0.01436
5151.49283	0.01439
5149.56415	0.01442
5147.63548	0.01445
5145.70680	0.01446
5143.77813	0.01448
5141.84945	0.01451
5139.92077	0.01456
5137.99210	0.01459
5136.06342	0.01460
5134.13475	0.01462
5132.20607	0.01464
5130.27740	0.01467
5128.34872	0.01469
5126.42004	0.01470
5124.49137	0.01472
5122.56269	0.01473
5120.63402	0.01475
5118.70534	0.01478
5116.77667	0.01481
5114.84799	0.01486
5112.91931	0.01489
5110.99064	0.01491
5109.06196	0.01491
5107.13329	0.01493
5105.20461	0.01497
5103.27594	0.01502
5101.34726	0.01506
5099.41858	0.01508
5097.48991	0.01508
5095.56123	0.01510
5093.63256	0.01514
5091.70388	0.01517
5089.77521	0.01520
5087.84653	0.01524
5085.91785	0.01525
5083.98918	0.01525
5082.06050	0.01526
5080.13183	0.01529
5078.20315	0.01533
5076.27448	0.01535
5074.34580	0.01537
5072.41712	0.01539
5070.48845	0.01542
5068.55977	0.01546
5066.63110	0.01549
5064.70242	0.01551
5062.77375	0.01554
5060.84507	0.01557
5058.91639	0.01560
5056.98772	0.01564
5055.05904	0.01566
5053.13037	0.01568
5051.20169	0.01569
5049.27302	0.01571
5047.34434	0.01575
5045.41566	0.01578
5043.48699	0.01580
5041.55831	0.01582
5039.62964	0.01585
5037.70096	0.01588
5035.77229	0.01590
5033.84361	0.01593
5031.91493	0.01596
5029.98626	0.01599
5028.05758	0.01600
5026.12891	0.01602
5024.20023	0.01604
5022.27156	0.01607
5020.34288	0.01611
5018.41420	0.01614
5016.48553	0.01616
5014.55685	0.01617
5012.62818	0.01620
5010.69950	0.01624
5008.77083	0.01627
5006.84215	0.01629
5004.91347	0.01633
5002.98480	0.01636
5001.05612	0.01639
4999.12745	0.01641
4997.19877	0.01642
4995.27010	0.01644
4993.34142	0.01645
4991.41274	0.01649
4989.48407	0.01654
4987.55539	0.01658
4985.62672	0.01660
4983.69804	0.01662
4981.76937	0.01664
4979.84069	0.01668
4977.91201	0.01671
4975.98334	0.01674
4974.05466	0.01676
4972.12599	0.01679
4970.19731	0.01684
4968.26864	0.01688
4966.33996	0.01690
4964.41128	0.01691
4962.48261	0.01693
4960.55393	0.01696
4958.62526	0.01698
4956.69658	0.01702
4954.76791	0.01704
4952.83923	0.01706
4950.91055	0.01707
4948.98188	0.01710
4947.05320	0.01715
4945.12453	0.01719
4943.19585	0.01721
4941.26718	0.01721
4939.33850	0.01722
4937.40982	0.01725
4935.48115	0.01729
4933.55247	0.01732
4931.62380	0.01736
4929.69512	0.01739
4927.76645	0.01742
4925.83777	0.01745
4923.90909	0.01748
4921.98042	0.01750
4920.05174	0.01752
4918.12307	0.01755
4916.19439	0.01758
4914.26572	0.01761
4912.33704	0.01764
4910.40836	0.01767
4908.47969	0.01770
4906.55101	0.01773
4904.62234	0.01775
4902.69366	0.01777
4900.76499	0.01778
4898.83631	0.01781
4896.90763	0.01786
4894.97896	0.01790
4893.05028	0.01792
4891.12161	0.01795
4889.19293	0.01798
4887.26426	0.01801
4885.33558	0.01803
4883.40690	0.01805
4881.47823	0.01808
4879.54955	0.01812
4877.62088	0.01816
4875.69220	0.01820
4873.76353	0.01823
4871.83485	0.01826
4869.90617	0.01828
4867.97750	0.01830
4866.04882	0.01832
4864.12015	0.01834
4862.19147	0.01835
4860.26280	0.01836
4858.33412	0.01839
4856.40544	0.01845
4854.47677	0.01850
4852.54809	0.01856
4850.61942	0.01861
4848.69074	0.01861
4846.76207	0.01859
4844.83339	0.01860
4842.90471	0.01865
4840.97604	0.01871
4839.04736	0.01874
4837.11869	0.01877
4835.19001	0.01881
4833.26134	0.01884
4831.33266	0.01885
4829.40398	0.01887
4827.47531	0.01893
4825.54663	0.01898
4823.61796	0.01900
4821.68928	0.01903
4819.76061	0.01904
4817.83193	0.01905
4815.90325	0.01907
4813.97458	0.01913
4812.04590	0.01918
4810.11723	0.01922
4808.18855	0.01926
4806.25988	0.01929
4804.33120	0.01930
4802.40252	0.01931
4800.47385	0.01933
4798.54517	0.01937
4796.61650	0.01941
4794.68782	0.01944
4792.75915	0.01946
4790.83047	0.01948
4788.90179	0.01951
4786.97312	0.01955
4785.04444	0.01958
4783.11577	0.01960
4781.18709	0.01963
4779.25842	0.01966
4777.32974	0.01970
4775.40106	0.01974
4773.47239	0.01978
4771.54371	0.01980
4769.61504	0.01983
4767.68636	0.01987
4765.75769	0.01989
4763.82901	0.01991
4761.90033	0.01992
4759.97166	0.01996
4758.04298	0.02000
4756.11431	0.02003
4754.18563	0.02006
4752.25696	0.02008
4750.32828	0.02010
4748.39960	0.02014
4746.47093	0.02020
4744.54225	0.02026
4742.61358	0.02030
4740.68490	0.02032
4738.75623	0.02033
4736.82755	0.02036
4734.89887	0.02040
4732.97020	0.02044
4731.04152	0.02048
4729.11285	0.02049
4727.18417	0.02050
4725.25550	0.02052
4723.32682	0.02057
4721.39814	0.02062
4719.46947	0.02065
4717.54079	0.02068
4715.61212	0.02072
4713.68344	0.02075
4711.75477	0.02079
4709.82609	0.02083
4707.89741	0.02087
4705.96874	0.02089
4704.04006	0.02093
4702.11139	0.02096
4700.18271	0.02099
4698.25404	0.02103
4696.32536	0.02107
4694.39668	0.02111
4692.46801	0.02114
4690.53933	0.02115
4688.61066	0.02117
4686.68198	0.02119
4684.75331	0.02122
4682.82463	0.02127
4680.89595	0.02134
4678.96728	0.02139
4677.03860	0.02142
4675.10993	0.02145
4673.18125	0.02149
4671.25258	0.02150
4669.32390	0.02152
4667.39522	0.02154
4665.46655	0.02157
4663.53787	0.02160
4661.60920	0.02164
4659.68052	0.02169
4657.75185	0.02175
4655.82317	0.02179
4653.89449	0.02183
4651.96582	0.02185
4650.03714	0.02187
4648.10847	0.02188
4646.17979	0.02192
4644.25112	0.02197
4642.32244	0.02202
4640.39376	0.02205
4638.46509	0.02208
4636.53641	0.02214
4634.60774	0.02219
4632.67906	0.02222
4630.75039	0.02225
4628.82171	0.02230
4626.89303	0.02235
4624.96436	0.02238
4623.03568	0.02240
4621.10701	0.02242
4619.17833	0.02246
4617.24966	0.02250
4615.32098	0.02255
4613.39230	0.02258
4611.46363	0.02262
4609.53495	0.02267
4607.60628	0.02271
4605.67760	0.02273
4603.74893	0.02277
4601.82025	0.02283
4599.89157	0.02286
4597.96290	0.02285
4596.03422	0.02287
4594.10555	0.02294
4592.17687	0.02301
4590.24820	0.02306
4588.31952	0.02308
4586.39084	0.02310
4584.46217	0.02314
4582.53349	0.02319
4580.60482	0.02323
4578.67614	0.02326
4576.74747	0.02329
4574.81879	0.02333
4572.89011	0.02337
4570.96144	0.02340
4569.03276	0.02342
4567.10409	0.02346
4565.17541	0.02350
4563.24674	0.02356
4561.31806	0.02361
4559.38938	0.02366
4557.46071	0.02368
4555.53203	0.02371
4553.60336	0.02375
4551.67468	0.02377
4549.74601	0.02379
4547.81733	0.02384
4545.88865	0.02390
4543.95998	0.02395
4542.03130	0.02398
4540.10263	0.02402
4538.17395	0.02407
4536.24528	0.02410
4534.31660	0.02414
4532.38792	0.02419
4530.45925	0.02421
4528.53057	0.02423
4526.60190	0.02427
4524.67322	0.02433
4522.74455	0.02438
4520.81587	0.02442
4518.88719	0.02447
4516.95852	0.02452
4515.02984	0.02455
4513.10117	0.02458
4511.17249	0.02462
4509.24382	0.02467
4507.31514	0.02470
4505.38646	0.02472
4503.45779	0.02478
4501.52911	0.02484
4499.60044	0.02488
4497.67176	0.02491
4495.74309	0.02495
4493.81441	0.02501
4491.88573	0.02508
4489.95706	0.02511
4488.02838	0.02512
4486.09971	0.02515
4484.17103	0.02521
4482.24236	0.02527
4480.31368	0.02531
4478.38500	0.02534
4476.45633	0.02536
4474.52765	0.02538
4472.59898	0.02541
4470.67030	0.02546
4468.74163	0.02551
4466.81295	0.02556
4464.88427	0.02561
4462.95560	0.02564
4461.02692	0.02568
4459.09825	0.02572
4457.16957	0.02577
4455.24090	0.02584
4453.31222	0.02590
4451.38354	0.02595
4449.45487	0.02598
4447.52619	0.02601
4445.59752	0.02606
4443.66884	0.02611
4441.74017	0.02615
4439.81149	0.02619
4437.88281	0.02624
4435.95414	0.02630
4434.02546	0.02636
4432.09679	0.02640
4430.16811	0.02642
4428.23944	0.02645
4426.31076	0.02651
4424.38208	0.02656
4422.45341	0.02660
4420.52473	0.02664
4418.59606	0.02669
4416.66738	0.02675
4414.73871	0.02679
4412.81003	0.02684
4410.88135	0.02689
4408.95268	0.02693
4407.02400	0.02696
4405.09533	0.02699
4403.16665	0.02707
4401.23798	0.02716
4399.30930	0.02720
4397.38062	0.02722
4395.45195	0.02726
4393.52327	0.02730
4391.59460	0.02734
4389.66592	0.02739
4387.73725	0.02745
4385.80857	0.02749
4383.87989	0.02755
4381.95122	0.02760
4380.02254	0.02763
4378.09387	0.02767
4376.16519	0.02773
4374.23652	0.02779
4372.30784	0.02783
4370.37916	0.02788
4368.45049	0.02793
4366.52181	0.02798
4364.59314	0.02803
4362.66446	0.02810
4360.73579	0.02816
4358.80711	0.02819
4356.87843	0.02823
4354.94976	0.02830
4353.02108	0.02836
4351.09241	0.02841
4349.16373	0.02846
4347.23506	0.02850
4345.30638	0.02851
4343.37770	0.02856
4341.44903	0.02864
4339.52035	0.02870
4337.59168	0.02873
4335.66300	0.02876
4333.73433	0.02880
4331.80565	0.02885
4329.87697	0.02893
4327.94830	0.02900
4326.01962	0.02906
4324.09095	0.02910
4322.16227	0.02914
4320.23360	0.02918
4318.30492	0.02923
4316.37624	0.02928
4314.44757	0.02933
4312.51889	0.02939
4310.59022	0.02944
4308.66154	0.02949
4306.73287	0.02953
4304.80419	0.02958
4302.87551	0.02965
4300.94684	0.02973
4299.01816	0.02980
4297.08949	0.02985
4295.16081	0.02988
4293.23214	0.02993
4291.30346	0.02999
4289.37478	0.03005
4287.44611	0.03010
4285.51743	0.03015
4283.58876	0.03020
4281.66008	0.03026
4279.73141	0.03033
4277.80273	0.03039
4275.87405	0.03044
4273.94538	0.03051
4272.01670	0.03058
4270.08803	0.03063
4268.15935	0.03063
4266.23068	0.03066
4264.30200	0.03073
4262.37332	0.03080
4260.44465	0.03085
4258.51597	0.03092
4256.58730	0.03100
4254.65862	0.03105
4252.72995	0.03109
4250.80127	0.03114
4248.87259	0.03120
4246.94392	0.03126
4245.01524	0.03131
4243.08657	0.03138
4241.15789	0.03145
4239.22922	0.03150
4237.30054	0.03154
4235.37186	0.03160
4233.44319	0.03166
4231.51451	0.03172
4229.58584	0.03178
4227.65716	0.03184
4225.72849	0.03189
4223.79981	0.03194
4221.87113	0.03199
4219.94246	0.03205
4218.01378	0.03211
4216.08511	0.03215
4214.15643	0.03221
4212.22776	0.03228
4210.29908	0.03235
4208.37040	0.03242
4206.44173	0.03249
4204.51305	0.03255
4202.58438	0.03262
4200.65570	0.03268
4198.72703	0.03275
4196.79835	0.03281
4194.86968	0.03284
4192.94100	0.03287
4191.01232	0.03294
4189.08365	0.03302
4187.15497	0.03308
4185.22630	0.03312
4183.29762	0.03317
4181.36895	0.03325
4179.44027	0.03331
4177.51159	0.03336
4175.58292	0.03342
4173.65424	0.03350
4171.72557	0.03357
4169.79689	0.03364
4167.86822	0.03371
4165.93954	0.03377
4164.01086	0.03383
4162.08219	0.03388
4160.15351	0.03392
4158.22484	0.03399
4156.29616	0.03408
4154.36749	0.03416
4152.43881	0.03420
4150.51013	0.03425
4148.58146	0.03432
4146.65278	0.03439
4144.72411	0.03445
4142.79543	0.03450
4140.86676	0.03454
4138.93808	0.03460
4137.00940	0.03467
4135.08073	0.03476
4133.15205	0.03483
4131.22338	0.03489
4129.29470	0.03494
4127.36603	0.03501
4125.43735	0.03508
4123.50867	0.03516
4121.58000	0.03524
4119.65132	0.03531
4117.72265	0.03536
4115.79397	0.03540
4113.86530	0.03545
4111.93662	0.03554
4110.00794	0.03564
4108.07927	0.03572
4106.15059	0.03576
4104.22192	0.03582
4102.29324	0.03589
4100.36457	0.03597
4098.43589	0.03604
4096.50721	0.03612
4094.57854	0.03620
4092.64986	0.03626
4090.72119	0.03632
4088.79251	0.03640
4086.86384	0.03647
4084.93516	0.03654
4083.00648	0.03658
4081.07781	0.03661
4079.14913	0.03666
4077.22046	0.03674
4075.29178	0.03681
4073.36311	0.03688
4071.43443	0.03695
4069.50575	0.03703
4067.57708	0.03711
4065.64840	0.03718
4063.71973	0.03723
4061.79105	0.03730
4059.86238	0.03739
4057.93370	0.03747
4056.00502	0.03752
4054.07635	0.03758
4052.14767	0.03765
4050.21900	0.03773
4048.29032	0.03781
4046.36165	0.03788
4044.43297	0.03795
4042.50429	0.03800
4040.57562	0.03808
4038.64694	0.03818
4036.71827	0.03826
4034.78959	0.03834
4032.86092	0.03841
4030.93224	0.03846
4029.00356	0.03852
4027.07489	0.03859
4025.14621	0.03868
4023.21754	0.03876
4021.28886	0.03884
4019.36019	0.03889
4017.43151	0.03894
4015.50283	0.03900
4013.57416	0.03907
4011.64548	0.03915
4009.71681	0.03923
4007.78813	0.03931
4005.85946	0.03940
4003.93078	0.03948
4002.00210	0.03956
4000.07343	0.03964
3998.14475	0.03972
3996.21608	0.03980
3994.28740	0.03987
3992.35873	0.03993
3990.43005	0.03999
3988.50137	0.04006
3986.57270	0.04011
3984.64402	0.04017
3982.71535	0.04026
3980.78667	0.04034
3978.85800	0.04040
3976.92932	0.04048
3975.00064	0.04058
3973.07197	0.04068
3971.14329	0.04076
3969.21462	0.04082
3967.28594	0.04089
3965.35727	0.04098
3963.42859	0.04106
3961.49991	0.04111
3959.57124	0.04117
3957.64256	0.04126
3955.71389	0.04134
3953.78521	0.04142
3951.85654	0.04148
3949.92786	0.04154
3947.99918	0.04164
3946.07051	0.04174
3944.14183	0.04182
3942.21316	0.04191
3940.28448	0.04199
3938.35581	0.04205
3936.42713	0.04209
3934.49845	0.04214
3932.56978	0.04220
3930.64110	0.04230
3928.71243	0.04240
3926.78375	0.04248
3924.85508	0.04255
3922.92640	0.04263
3920.99772	0.04267
3919.06905	0.04268
3917.14037	0.04274
3915.21170	0.04289
3913.28302	0.04305
3911.35435	0.04315
3909.42567	0.04322
3907.49699	0.04324
3905.56832	0.04321
3903.63964	0.04317
3901.71097	0.04321
3899.78229	0.04335
3897.85362	0.04354
3895.92494	0.04369
3893.99626	0.04375
3892.06759	0.04377
3890.13891	0.04386
3888.21024	0.04397
3886.28156	0.04403
3884.35289	0.04409
3882.42421	0.04416
3880.49553	0.04425
3878.56686	0.04443
3876.63818	0.04458
3874.70951	0.04464
3872.78083	0.04467
3870.85216	0.04471
3868.92348	0.04479
3866.99480	0.04485
3865.06613	0.04488
3863.13745	0.04498
3861.20878	0.04515
3859.28010	0.04527
3857.35143	0.04524
3855.42275	0.04505
3853.49407	0.04501
3851.56540	0.04529
3849.63672	0.04563
3847.70805	0.04583
3845.77937	0.04592
3843.85070	0.04597
3841.92202	0.04597
3839.99334	0.04594
3838.06467	0.04593
3836.13599	0.04604
3834.20732	0.04623
3832.27864	0.04642
3830.34997	0.04658
3828.42129	0.04667
3826.49261	0.04670
3824.56394	0.04673
3822.63526	0.04675
3820.70659	0.04681
3818.77791	0.04687
3816.84924	0.04690
3814.92056	0.04706
3812.99188	0.04735
3811.06321	0.04755
3809.13453	0.04762
3807.20586	0.04765
3805.27718	0.04768
3803.34851	0.04767
3801.41983	0.04768
3799.49115	0.04780
3797.56248	0.04794
3795.63380	0.04808
3793.70513	0.04825
3791.77645	0.04838
3789.84778	0.04847
3787.91910	0.04855
3785.99042	0.04864
3784.06175	0.04873
3782.13307	0.04881
3780.20440	0.04886
3778.27572	0.04895
3776.34705	0.04907
3774.41837	0.04917
3772.48969	0.04920
3770.56102	0.04921
3768.63234	0.04930
3766.70367	0.04946
3764.77499	0.04959
3762.84632	0.04965
3760.91764	0.04966
3758.98896	0.04970
3757.06029	0.04982
3755.13161	0.04984
3753.20294	0.04972
3751.27426	0.04970
3749.34559	0.04985
3747.41691	0.04985
3745.48823	0.04967
3743.55956	0.04980
3741.63088	0.05025
3739.70221	0.05047
3737.77353	0.05040
3735.84486	0.05043
3733.91618	0.05065
3731.98750	0.05090
3730.05883	0.05110
3728.13015	0.05121
3726.20148	0.05124
3724.27280	0.05129
3722.34413	0.05138
3720.41545	0.05153
3718.48677	0.05171
3716.55810	0.05183
3714.62942	0.05186
3712.70075	0.05185
3710.77207	0.05190
3708.84340	0.05204
3706.91472	0.05222
3704.98604	0.05233
3703.05737	0.05239
3701.12869	0.05248
3699.20002	0.05263
3697.27134	0.05278
3695.34267	0.05286
3693.41399	0.05283
3691.48531	0.05273
3689.55664	0.05272
3687.62796	0.05291
3685.69929	0.05319
3683.77061	0.05338
3681.84194	0.05345
3679.91326	0.05345
3677.98458	0.05338
3676.05591	0.05336
3674.12723	0.05352
3672.19856	0.05369
3670.26988	0.05376
3668.34121	0.05390
3666.41253	0.05412
3664.48385	0.05427
3662.55518	0.05438
3660.62650	0.05446
3658.69783	0.05450
3656.76915	0.05451
3654.84048	0.05454
3652.91180	0.05449
3650.98312	0.05433
3649.05445	0.05423
3647.12577	0.05434
3645.19710	0.05464
3643.26842	0.05494
3641.33975	0.05513
3639.41107	0.05525
3637.48239	0.05533
3635.55372	0.05539
3633.62504	0.05543
3631.69637	0.05541
3629.76769	0.05536
3627.83902	0.05545
3625.91034	0.05567
3623.98166	0.05582
3622.05299	0.05581
3620.12431	0.05576
3618.19564	0.05584
3616.26696	0.05596
3614.33829	0.05599
3612.40961	0.05595
3610.48093	0.05596
3608.55226	0.05609
3606.62358	0.05630
3604.69491	0.05645
3602.76623	0.05651
3600.83756	0.05654
3598.90888	0.05662
3596.98020	0.05672
3595.05153	0.05682
3593.12285	0.05691
3591.19418	0.05693
3589.26550	0.05687
3587.33683	0.05687
3585.40815	0.05704
3583.47947	0.05726
3581.55080	0.05739
3579.62212	0.05746
3577.69345	0.05753
3575.76477	0.05761
3573.83610	0.05772
3571.90742	0.05780
3569.97874	0.05776
3568.05007	0.05769
3566.12139	0.05776
3564.19272	0.05796
3562.26404	0.05811
3560.33537	0.05822
3558.40669	0.05833
3556.47801	0.05841
3554.54934	0.05842
3552.62066	0.05843
3550.69199	0.05848
3548.76331	0.05853
3546.83464	0.05856
3544.90596	0.05864
3542.97728	0.05879
3541.04861	0.05895
3539.11993	0.05904
3537.19126	0.05909
3535.26258	0.05913
3533.33391	0.05916
3531.40523	0.05918
3529.47655	0.05918
3527.54788	0.05918
3525.61920	0.05921
3523.69053	0.05926
3521.76185	0.05933
3519.83318	0.05940
3517.90450	0.05945
3515.97582	0.05949
3514.04715	0.05953
3512.11847	0.05958
3510.18980	0.05963
3508.26112	0.05967
3506.33245	0.05968
3504.40377	0.05965
3502.47509	0.05967
3500.54642	0.05974
3498.61774	0.05980
3496.68907	0.05984
3494.76039	0.05986
3492.83172	0.05987
3490.90304	0.05988
3488.97436	0.05989
3487.04569	0.05991
3485.11701	0.05994
3483.18834	0.05996
3481.25966	0.06000
3479.33099	0.06008
3477.40231	0.06019
3475.47363	0.06029
3473.54496	0.06035
3471.61628	0.06041
3469.68761	0.06049
3467.75893	0.06059
3465.83026	0.06069
3463.90158	0.06078
3461.97290	0.06086
3460.04423	0.06095
3458.11555	0.06104
3456.18688	0.06113
3454.25820	0.06123
3452.32953	0.06134
3450.40085	0.06143
3448.47217	0.06150
3446.54350	0.06160
3444.61482	0.06172
3442.68615	0.06182
3440.75747	0.06193
3438.82880	0.06208
3436.90012	0.06227
3434.97144	0.06246
3433.04277	0.06263
3431.11409	0.06281
3429.18542	0.06300
3427.25674	0.06323
3425.32807	0.06345
3423.39939	0.06363
3421.47071	0.06377
3419.54204	0.06393
3417.61336	0.06413
3415.68469	0.06429
3413.75601	0.06442
3411.82734	0.06456
3409.89866	0.06472
3407.96998	0.06487
3406.04131	0.06499
3404.11263	0.06511
3402.18396	0.06524
3400.25528	0.06537
3398.32661	0.06551
3396.39793	0.06564
3394.46925	0.06577
3392.54058	0.06591
3390.61190	0.06604
3388.68323	0.06616
3386.75455	0.06629
3384.82588	0.06643
3382.89720	0.06658
3380.96852	0.06673
3379.03985	0.06688
3377.11117	0.06699
3375.18250	0.06710
3373.25382	0.06723
3371.32515	0.06736
3369.39647	0.06748
3367.46779	0.06759
3365.53912	0.06770
3363.61044	0.06782
3361.68177	0.06794
3359.75309	0.06806
3357.82442	0.06817
3355.89574	0.06830
3353.96706	0.06842
3352.03839	0.06853
3350.10971	0.06864
3348.18104	0.06876
3346.25236	0.06889
3344.32369	0.06903
3342.39501	0.06915
3340.46633	0.06924
3338.53766	0.06935
3336.60898	0.06948
3334.68031	0.06964
3332.75163	0.06979
3330.82296	0.06991
3328.89428	0.07003
3326.96560	0.07016
3325.03693	0.07031
3323.10825	0.07043
3321.17958	0.07054
3319.25090	0.07065
3317.32223	0.07077
3315.39355	0.07089
3313.46487	0.07101
3311.53620	0.07113
3309.60752	0.07124
3307.67885	0.07135
3305.75017	0.07149
3303.82150	0.07165
3301.89282	0.07181
3299.96414	0.07193
3298.03547	0.07204
3296.10679	0.07217
3294.17812	0.07231
3292.24944	0.07243
3290.32077	0.07255
3288.39209	0.07268
3286.46341	0.07282
3284.53474	0.07294
3282.60606	0.07306
3280.67739	0.07320
3278.74871	0.07334
3276.82004	0.07347
3274.89136	0.07358
3272.96268	0.07370
3271.03401	0.07385
3269.10533	0.07396
3267.17666	0.07407
3265.24798	0.07422
3263.31931	0.07440
3261.39063	0.07457
3259.46195	0.07470
3257.53328	0.07482
3255.60460	0.07492
3253.67593	0.07503
3251.74725	0.07517
3249.81858	0.07533
3247.88990	0.07547
3245.96122	0.07560
3244.03255	0.07574
3242.10387	0.07586
3240.17520	0.07598
3238.24652	0.07610
3236.31785	0.07623
3234.38917	0.07638
3232.46049	0.07654
3230.53182	0.07671
3228.60314	0.07685
3226.67447	0.07697
3224.74579	0.07710
3222.81712	0.07725
3220.88844	0.07738
3218.95976	0.07750
3217.03109	0.07759
3215.10241	0.07767
3213.17374	0.07778
3211.24506	0.07792
3209.31639	0.07809
3207.38771	0.07825
3205.45903	0.07842
3203.53036	0.07857
3201.60168	0.07869
3199.67301	0.07879
3197.74433	0.07893
3195.81566	0.07912
3193.88698	0.07931
3191.95830	0.07943
3190.02963	0.07953
3188.10095	0.07967
3186.17228	0.07984
3184.24360	0.08001
3182.31493	0.08015
3180.38625	0.08027
3178.45757	0.08039
3176.52890	0.08052
3174.60022	0.08067
3172.67155	0.08081
3170.74287	0.08095
3168.81420	0.08108
3166.88552	0.08121
3164.95684	0.08136
3163.02817	0.08154
3161.09949	0.08170
3159.17082	0.08181
3157.24214	0.08193
3155.31347	0.08205
3153.38479	0.08217
3151.45611	0.08231
3149.52744	0.08245
3147.59876	0.08258
3145.67009	0.08270
3143.74141	0.08285
3141.81274	0.08302
3139.88406	0.08318
3137.95538	0.08331
3136.02671	0.08344
3134.09803	0.08357
3132.16936	0.08370
3130.24068	0.08384
3128.31201	0.08398
3126.38333	0.08410
3124.45465	0.08424
3122.52598	0.08440
3120.59730	0.08456
3118.66863	0.08471
3116.73995	0.08487
3114.81128	0.08502
3112.88260	0.08515
3110.95392	0.08526
3109.02525	0.08538
3107.09657	0.08550
3105.16790	0.08562
3103.23922	0.08574
3101.31055	0.08588
3099.38187	0.08603
3097.45319	0.08618
3095.52452	0.08634
3093.59584	0.08650
3091.66717	0.08662
3089.73849	0.08672
3087.80982	0.08684
3085.88114	0.08698
3083.95246	0.08712
3082.02379	0.08728
3080.09511	0.08744
3078.16644	0.08757
3076.23776	0.08768
3074.30909	0.08782
3072.38041	0.08800
3070.45173	0.08817
3068.52306	0.08831
3066.59438	0.08842
3064.66571	0.08854
3062.73703	0.08868
3060.80836	0.08881
3058.87968	0.08894
3056.95100	0.08908
3055.02233	0.08924
3053.09365	0.08938
3051.16498	0.08950
3049.23630	0.08964
3047.30763	0.08979
3045.37895	0.08994
3043.45027	0.09008
3041.52160	0.09018
3039.59292	0.09028
3037.66425	0.09041
3035.73557	0.09055
3033.80690	0.09068
3031.87822	0.09080
3029.94954	0.09093
3028.02087	0.09107
3026.09219	0.09122
3024.16352	0.09138
3022.23484	0.09154
3020.30617	0.09167
3018.37749	0.09179
3016.44881	0.09191
3014.52014	0.09206
3012.59146	0.09221
3010.66279	0.09237
3008.73411	0.09254
3006.80544	0.09267
3004.87676	0.09278
3002.94808	0.09289
3001.01941	0.09301
2999.09073	0.09315
2997.16206	0.09331
2995.23338	0.09346
2993.30471	0.09357
2991.37603	0.09366
2989.44735	0.09377
2987.51868	0.09388
2985.59000	0.09399
2983.66133	0.09408
2981.73265	0.09416
2979.80398	0.09421
2977.87530	0.09424
2975.94662	0.09427
2974.01795	0.09430
2972.08927	0.09432
2970.16060	0.09430
2968.23192	0.09426
2966.30325	0.09424
2964.37457	0.09427
2962.44589	0.09435
2960.51722	0.09447
2958.58854	0.09462
2956.65987	0.09482
2954.73119	0.09504
2952.80252	0.09524
2950.87384	0.09541
2948.94516	0.09556
2947.01649	0.09567
2945.08781	0.09573
2943.15914	0.09577
2941.23046	0.09583
2939.30179	0.09588
2937.37311	0.09589
2935.44443	0.09585
2933.51576	0.09580
2931.58708	0.09577
2929.65841	0.09576
2927.72973	0.09576
2925.80106	0.09574
2923.87238	0.09574
2921.94370	0.09577
2920.01503	0.09586
2918.08635	0.09601
2916.15768	0.09628
2914.22900	0.09669
2912.30033	0.09718
2910.37165	0.09762
2908.44297	0.09798
2906.51430	0.09829
2904.58562	0.09858
2902.65695	0.09882
2900.72827	0.09902
2898.79960	0.09921
2896.87092	0.09943
2894.94224	0.09966
2893.01357	0.09986
2891.08489	0.10001
2889.15622	0.10015
2887.22754	0.10030
2885.29887	0.10046
2883.37019	0.10063
2881.44151	0.10079
2879.51284	0.10097
2877.58416	0.10113
2875.65549	0.10126
2873.72681	0.10138
2871.79814	0.10149
2869.86946	0.10160
2867.94078	0.10171
2866.01211	0.10180
2864.08343	0.10187
2862.15476	0.10196
2860.22608	0.10203
2858.29741	0.10205
2856.36873	0.10203
2854.44005	0.10202
2852.51138	0.10201
2850.58270	0.10209
2848.65403	0.10238
2846.72535	0.10286
2844.79668	0.10335
2842.86800	0.10376
2840.93932	0.10407
2839.01065	0.10434
2837.08197	0.10458
2835.15330	0.10478
2833.22462	0.10495
2831.29595	0.10508
2829.36727	0.10523
2827.43859	0.10541
2825.50992	0.10562
2823.58124	0.10581
2821.65257	0.10599
2819.72389	0.10616
2817.79522	0.10632
2815.86654	0.10648
2813.93786	0.10662
2812.00919	0.10673
2810.08051	0.10687
2808.15184	0.10707
2806.22316	0.10726
2804.29449	0.10741
2802.36581	0.10756
2800.43713	0.10772
2798.50846	0.10786
2796.57978	0.10801
2794.65111	0.10816
2792.72243	0.10830
2790.79376	0.10842
2788.86508	0.10856
2786.93640	0.10874
2785.00773	0.10894
2783.07905	0.10910
2781.15038	0.10923
2779.22170	0.10936
2777.29303	0.10953
2775.36435	0.10974
2773.43567	0.10991
2771.50700	0.11003
2769.57832	0.11013
2767.64965	0.11027
2765.72097	0.11044
2763.79230	0.11060
2761.86362	0.11073
2759.93494	0.11088
2758.00627	0.11105
2756.07759	0.11121
2754.14892	0.11135
2752.22024	0.11149
2750.29157	0.11164
2748.36289	0.11178
2746.43421	0.11189
2744.50554	0.11202
2742.57686	0.11215
2740.64819	0.11228
2738.71951	0.11241
2736.79084	0.11257
2734.86216	0.11275
2732.93348	0.11292
2731.00481	0.11307
2729.07613	0.11319
2727.14746	0.11329
2725.21878	0.11341
2723.29011	0.11358
2721.36143	0.11376
2719.43275	0.11393
2717.50408	0.11407
2715.57540	0.11420
2713.64673	0.11433
2711.71805	0.11448
2709.78938	0.11462
2707.86070	0.11473
2705.93202	0.11483
2704.00335	0.11495
2702.07467	0.11512
2700.14600	0.11530
2698.21732	0.11544
2696.28865	0.11559
2694.35997	0.11576
2692.43129	0.11590
2690.50262	0.11600
2688.57394	0.11611
2686.64527	0.11629
2684.71659	0.11648
2682.78792	0.11661
2680.85924	0.11674
2678.93056	0.11690
2677.00189	0.11706
2675.07321	0.11719
2673.14454	0.11732
2671.21586	0.11748
2669.28719	0.11761
2667.35851	0.11772
2665.42983	0.11785
2663.50116	0.11800
2661.57248	0.11815
2659.64381	0.11830
2657.71513	0.11846
2655.78646	0.11862
2653.85778	0.11877
2651.92910	0.11890
2650.00043	0.11902
2648.07175	0.11915
2646.14308	0.11931
2644.21440	0.11948
2642.28573	0.11964
2640.35705	0.11980
2638.42837	0.11999
2636.49970	0.12019
2634.57102	0.12034
2632.64235	0.12047
2630.71367	0.12060
2628.78500	0.12074
2626.85632	0.12091
2624.92764	0.12108
2622.99897	0.12124
2621.07029	0.12138
2619.14162	0.12155
2617.21294	0.12173
2615.28427	0.12190
2613.35559	0.12205
2611.42691	0.12220
2609.49824	0.12235
2607.56956	0.12247
2605.64089	0.12258
2603.71221	0.12273
2601.78354	0.12292
2599.85486	0.12310
2597.92618	0.12325
2595.99751	0.12340
2594.06883	0.12354
2592.14016	0.12370
2590.21148	0.12387
2588.28281	0.12403
2586.35413	0.12418
2584.42545	0.12434
2582.49678	0.12450
2580.56810	0.12465
2578.63943	0.12477
2576.71075	0.12490
2574.78208	0.12506
2572.85340	0.12523
2570.92472	0.12538
2568.99605	0.12549
2567.06737	0.12562
2565.13870	0.12577
2563.21002	0.12592
2561.28135	0.12604
2559.35267	0.12618
2557.42399	0.12636
2555.49532	0.12655
2553.56664	0.12671
2551.63797	0.12688
2549.70929	0.12703
2547.78062	0.12716
2545.85194	0.12727
2543.92326	0.12739
2541.99459	0.12751
2540.06591	0.12763
2538.13724	0.12777
2536.20856	0.12793
2534.27989	0.12813
2532.35121	0.12832
2530.42253	0.12848
2528.49386	0.12864
2526.56518	0.12881
2524.63651	0.12895
2522.70783	0.12910
2520.77916	0.12926
2518.85048	0.12941
2516.92181	0.12954
2514.99313	0.12968
2513.06445	0.12985
2511.13578	0.13001
2509.20710	0.13016
2507.27843	0.13033
2505.34975	0.13051
2503.42108	0.13070
2501.49240	0.13086
2499.56372	0.13097
2497.63505	0.13111
2495.70637	0.13129
2493.77770	0.13148
2491.84902	0.13164
2489.92035	0.13181
2487.99167	0.13199
2486.06299	0.13217
2484.13432	0.13237
2482.20564	0.13256
2480.27697	0.13275
2478.34829	0.13289
2476.41962	0.13302
2474.49094	0.13315
2472.56226	0.13329
2470.63359	0.13346
2468.70491	0.13366
2466.77624	0.13383
2464.84756	0.13395
2462.91889	0.13411
2460.99021	0.13429
2459.06153	0.13446
2457.13286	0.13462
2455.20418	0.13480
2453.27551	0.13499
2451.34683	0.13513
2449.41816	0.13525
2447.48948	0.13540
2445.56080	0.13558
2443.63213	0.13575
2441.70345	0.13587
2439.77478	0.13600
2437.84610	0.13618
2435.91743	0.13634
2433.98875	0.13647
2432.06007	0.13663
2430.13140	0.13682
2428.20272	0.13697
2426.27405	0.13709
2424.34537	0.13721
2422.41670	0.13737
2420.48802	0.13755
2418.55934	0.13777
2416.63067	0.13795
2414.70199	0.13809
2412.77332	0.13825
2410.84464	0.13843
2408.91597	0.13859
2406.98729	0.13874
2405.05861	0.13891
2403.12994	0.13906
2401.20126	0.13920
2399.27259	0.13933
2397.34391	0.13948
2395.41524	0.13965
2393.48656	0.13979
2391.55788	0.13992
2389.62921	0.14006
2387.70053	0.14020
2385.77186	0.14034
2383.84318	0.14049
2381.91451	0.14064
2379.98583	0.14076
2378.05715	0.14084
2376.12848	0.14084
2374.19980	0.14079
2372.27113	0.14079
2370.34245	0.14083
2368.41378	0.14092
2366.48510	0.14104
2364.55642	0.14111
2362.62775	0.14118
2360.69907	0.14131
2358.77040	0.14154
2356.84172	0.14180
2354.91305	0.14208
2352.98437	0.14243
2351.05569	0.14277
2349.12702	0.14302
2347.19834	0.14310
2345.26967	0.14308
2343.34099	0.14306
2341.41232	0.14311
2339.48364	0.14325
2337.55496	0.14346
2335.62629	0.14369
2333.69761	0.14390
2331.76894	0.14408
2329.84026	0.14422
2327.91159	0.14435
2325.98291	0.14455
2324.05423	0.14483
2322.12556	0.14510
2320.19688	0.14531
2318.26821	0.14547
2316.33953	0.14566
2314.41086	0.14590
2312.48218	0.14612
2310.55350	0.14628
2308.62483	0.14643
2306.69615	0.14662
2304.76748	0.14683
2302.83880	0.14703
2300.91013	0.14723
2298.98145	0.14743
2297.05277	0.14761
2295.12410	0.14778
2293.19542	0.14794
2291.26675	0.14812
2289.33807	0.14828
2287.40940	0.14844
2285.48072	0.14857
2283.55204	0.14869
2281.62337	0.14883
2279.69469	0.14901
2277.76602	0.14919
2275.83734	0.14932
2273.90867	0.14944
2271.97999	0.14960
2270.05131	0.14977
2268.12264	0.14994
2266.19396	0.15010
2264.26529	0.15027
2262.33661	0.15044
2260.40794	0.15063
2258.47926	0.15081
2256.55058	0.15097
2254.62191	0.15110
2252.69323	0.15121
2250.76456	0.15136
2248.83588	0.15154
2246.90721	0.15174
2244.97853	0.15194
2243.04985	0.15208
2241.12118	0.15218
2239.19250	0.15232
2237.26383	0.15250
2235.33515	0.15265
2233.40648	0.15279
2231.47780	0.15296
2229.54912	0.15313
2227.62045	0.15329
2225.69177	0.15348
2223.76310	0.15365
2221.83442	0.15379
2219.90575	0.15392
2217.97707	0.15409
2216.04839	0.15426
2214.11972	0.15438
2212.19104	0.15448
2210.26237	0.15464
2208.33369	0.15484
2206.40502	0.15500
2204.47634	0.15514
2202.54766	0.15527
2200.61899	0.15542
2198.69031	0.15555
2196.76164	0.15568
2194.83296	0.15585
2192.90429	0.15604
2190.97561	0.15622
2189.04693	0.15637
2187.11826	0.15656
2185.18958	0.15676
2183.26091	0.15694
2181.33223	0.15708
2179.40356	0.15722
2177.47488	0.15736
2175.54620	0.15752
2173.61753	0.15767
2171.68885	0.15782
2169.76018	0.15796
2167.83150	0.15811
2165.90283	0.15825
2163.97415	0.15837
2162.04547	0.15849
2160.11680	0.15864
2158.18812	0.15883
2156.25945	0.15904
2154.33077	0.15922
2152.40210	0.15938
2150.47342	0.15954
2148.54474	0.15973
2146.61607	0.15992
2144.68739	0.16009
2142.75872	0.16023
2140.83004	0.16037
2138.90137	0.16052
2136.97269	0.16067
2135.04401	0.16079
2133.11534	0.16092
2131.18666	0.16107
2129.25799	0.16123
2127.32931	0.16139
2125.40064	0.16155
2123.47196	0.16170
2121.54328	0.16186
2119.61461	0.16205
2117.68593	0.16224
2115.75726	0.16243
2113.82858	0.16258
2111.89991	0.16271
2109.97123	0.16286
2108.04255	0.16305
2106.11388	0.16324
2104.18520	0.16340
2102.25653	0.16354
2100.32785	0.16369
2098.39918	0.16386
2096.47050	0.16402
2094.54182	0.16414
2092.61315	0.16428
2090.68447	0.16442
2088.75580	0.16454
2086.82712	0.16468
2084.89845	0.16482
2082.96977	0.16501
2081.04109	0.16525
2079.11242	0.16547
2077.18374	0.16562
2075.25507	0.16574
2073.32639	0.16590
2071.39772	0.16610
2069.46904	0.16626
2067.54036	0.16637
2065.61169	0.16653
2063.68301	0.16672
2061.75434	0.16687
2059.82566	0.16701
2057.89699	0.16717
2055.96831	0.16734
2054.03963	0.16751
2052.11096	0.16768
2050.18228	0.16784
2048.25361	0.16802
2046.32493	0.16819
2044.39626	0.16836
2042.46758	0.16852
2040.53890	0.16866
2038.61023	0.16879
2036.68155	0.16896
2034.75288	0.16915
2032.82420	0.16934
2030.89553	0.16954
2028.96685	0.16971
2027.03817	0.16985
2025.10950	0.16998
2023.18082	0.17011
2021.25215	0.17028
2019.32347	0.17047
2017.39480	0.17061
2015.46612	0.17076
2013.53744	0.17094
2011.60877	0.17112
2009.68009	0.17128
2007.75142	0.17146
2005.82274	0.17164
2003.89407	0.17180
2001.96539	0.17195
2000.03671	0.17212
1998.10804	0.17229
1996.17936	0.17242
1994.25069	0.17249
1992.32201	0.17254
1990.39334	0.17269
1988.46466	0.17291
1986.53598	0.17307
1984.60731	0.17319
1982.67863	0.17332
1980.74996	0.17350
1978.82128	0.17370
1976.89261	0.17385
1974.96393	0.17397
1973.03525	0.17409
1971.10658	0.17420
1969.17790	0.17427
1967.24923	0.17437
1965.32055	0.17456
1963.39188	0.17480
1961.46320	0.17498
1959.53452	0.17510
1957.60585	0.17522
1955.67717	0.17536
1953.74850	0.17553
1951.81982	0.17573
1949.89115	0.17589
1947.96247	0.17598
1946.03379	0.17603
1944.10512	0.17609
1942.17644	0.17626
1940.24777	0.17654
1938.31909	0.17681
1936.39042	0.17699
1934.46174	0.17713
1932.53306	0.17726
1930.60439	0.17738
1928.67571	0.17752
1926.74704	0.17767
1924.81836	0.17777
1922.88969	0.17782
1920.96101	0.17788
1919.03233	0.17796
1917.10366	0.17818
1915.17498	0.17852
1913.24631	0.17877
1911.31763	0.17893
1909.38896	0.17911
1907.46028	0.17932
1905.53160	0.17948
1903.60293	0.17958
1901.67425	0.17972
1899.74558	0.17987
1897.81690	0.17998
1895.88823	0.18007
1893.95955	0.18021
1892.03087	0.18036
1890.10220	0.18052
1888.17352	0.18071
1886.24485	0.18092
1884.31617	0.18109
1882.38750	0.18126
1880.45882	0.18142
1878.53014	0.18154
1876.60147	0.18168
1874.67279	0.18185
1872.74412	0.18193
1870.81544	0.18182
1868.88677	0.18181
1866.95809	0.18213
1865.02941	0.18255
1863.10074	0.18280
1861.17206	0.18295
1859.24339	0.18312
1857.31471	0.18335
1855.38604	0.18357
1853.45736	0.18372
1851.52868	0.18384
1849.60001	0.18395
1847.67133	0.18399
1845.74266	0.18399
1843.81398	0.18409
1841.88531	0.18437
1839.95663	0.18467
1838.02795	0.18490
1836.09928	0.18509
1834.17060	0.18521
1832.24193	0.18521
1830.31325	0.18521
1828.38458	0.18538
1826.45590	0.18562
1824.52722	0.18583
1822.59855	0.18608
1820.66987	0.18632
1818.74120	0.18647
1816.81252	0.18658
1814.88385	0.18666
1812.95517	0.18671
1811.02649	0.18680
1809.09782	0.18697
1807.16914	0.18716
1805.24047	0.18730
1803.31179	0.18734
1801.38312	0.18736
1799.45444	0.18751
1797.52576	0.18768
1795.59709	0.18759
1793.66841	0.18735
1791.73974	0.18748
1789.81106	0.18798
1787.88239	0.18830
1785.95371	0.18835
1784.02503	0.18845
1782.09636	0.18861
1780.16768	0.18874
1778.23901	0.18891
1776.31033	0.18902
1774.38166	0.18896
1772.45298	0.18893
1770.52430	0.18910
1768.59563	0.18933
1766.66695	0.18952
1764.73828	0.18959
1762.80960	0.18953
1760.88093	0.18962
1758.95225	0.18986
1757.02357	0.19000
1755.09490	0.18996
1753.16622	0.18958
1751.23755	0.18917
1749.30887	0.18923
1747.38020	0.18954
1745.45152	0.18968
1743.52284	0.18963
1741.59417	0.18953
1739.66549	0.18960
1737.73682	0.18974
1735.80814	0.18968
1733.87947	0.18966
1731.95079	0.18999
1730.02211	0.19039
1728.09344	0.19068
1726.16476	0.19090
1724.23609	0.19105
1722.30741	0.19113
1720.37874	0.19100
1718.45006	0.19073
1716.52138	0.19078
1714.59271	0.19123
1712.66403	0.19172
1710.73536	0.19204
1708.80668	0.19210
1706.87801	0.19196
1704.94933	0.19176
1703.02065	0.19141
1701.09198	0.19107
1699.16330	0.19127
1697.23463	0.19179
1695.30595	0.19221
1693.37728	0.19252
1691.44860	0.19256
1689.51992	0.19243
1687.59125	0.19231
1685.66257	0.19213
1683.73390	0.19209
1681.80522	0.19237
1679.87655	0.19266
1677.94787	0.19259
1676.01919	0.19230
1674.09052	0.19224
1672.16184	0.19241
1670.23317	0.19259
1668.30449	0.19285
1666.37582	0.19306
1664.44714	0.19296
1662.51846	0.19286
1660.58979	0.19308
1658.66111	0.19334
1656.73244	0.19317
1654.80376	0.19256
1652.87509	0.19220
1650.94641	0.19243
1649.01773	0.19266
1647.08906	0.19280
1645.16038	0.19325
1643.23171	0.19371
1641.30303	0.19384
1639.37436	0.19370
1637.44568	0.19344
1635.51700	0.19342
1633.58833	0.19379
1631.65965	0.19411
1629.73098	0.19411
1627.80230	0.19397
1625.87363	0.19381
1623.94495	0.19356
1622.01627	0.19326
1620.08760	0.19308
1618.15892	0.19313
1616.23025	0.19360
1614.30157	0.19442
1612.37290	0.19504
1610.44422	0.19534
1608.51554	0.19563
1606.58687	0.19599
1604.65819	0.19626
1602.72952	0.19643
1600.80084	0.19658
1598.87217	0.19676
1596.94349	0.19691
1595.01481	0.19703
1593.08614	0.19718
1591.15746	0.19741
1589.22879	0.19762
1587.30011	0.19778
1585.37144	0.19791
1583.44276	0.19807
1581.51408	0.19826
1579.58541	0.19829
1577.65673	0.19811
1575.72806	0.19812
1573.79938	0.19848
1571.87071	0.19872
1569.94203	0.19878
1568.01335	0.19893
1566.08468	0.19911
1564.15600	0.19908
1562.22733	0.19857
1560.29865	0.19793
1558.36998	0.19814
1556.44130	0.19903
1554.51262	0.19973
1552.58395	0.20003
1550.65527	0.20013
1548.72660	0.20014
1546.79792	0.19995
1544.86925	0.19964
1542.94057	0.19948
1541.01189	0.19956
1539.08322	0.19992
1537.15454	0.20029
1535.22587	0.20025
1533.29719	0.20019
1531.36852	0.20058
1529.43984	0.20090
1527.51116	0.20074
1525.58249	0.20040
1523.65381	0.20011
1521.72514	0.20002
1519.79646	0.20027
1517.86779	0.20065
1515.93911	0.20099
1514.01043	0.20125
1512.08176	0.20128
1510.15308	0.20090
1508.22441	0.20031
1506.29573	0.20034
1504.36706	0.20116
1502.43838	0.20170
1500.50970	0.20150
1498.58103	0.20124
1496.65235	0.20140
1494.72368	0.20166
1492.79500	0.20159
1490.86633	0.20127
1488.93765	0.20112
1487.00897	0.20130
1485.08030	0.20156
1483.15162	0.20164
1481.22295	0.20149
1479.29427	0.20107
1477.36560	0.20039
1475.43692	0.19973
1473.50824	0.19929
1471.57957	0.19917
1469.65089	0.19932
1467.72222	0.19921
1465.79354	0.19877
1463.86487	0.19859
1461.93619	0.19861
1460.00751	0.19804
1458.07884	0.19705
1456.15016	0.19686
1454.22149	0.19760
1452.29281	0.19818
1450.36414	0.19829
1448.43546	0.19827
1446.50678	0.19838
1444.57811	0.19860
1442.64943	0.19879
1440.72076	0.19885
1438.79208	0.19873
1436.86341	0.19864
1434.93473	0.19886
1433.00605	0.19912
1431.07738	0.19920
1429.14870	0.19936
1427.22003	0.19964
1425.29135	0.19978
1423.36268	0.19967
1421.43400	0.19927
1419.50532	0.19893
1417.57665	0.19918
1415.64797	0.19971
1413.71930	0.19998
1411.79062	0.20000
1409.86195	0.20003
1407.93327	0.20005
1406.00459	0.19998
1404.07592	0.19987
1402.14724	0.19975
1400.21857	0.19954
1398.28989	0.19937
1396.36122	0.19931
1394.43254	0.19937
1392.50386	0.19950
1390.57519	0.19948
1388.64651	0.19921
1386.71784	0.19891
1384.78916	0.19875
1382.86049	0.19878
1380.93181	0.19886
1379.00313	0.19885
1377.07446	0.19873
1375.14578	0.19859
1373.21711	0.19858
1371.28843	0.19866
1369.35976	0.19866
1367.43108	0.19865
1365.50240	0.19861
1363.57373	0.19848
1361.64505	0.19842
1359.71638	0.19855
1357.78770	0.19872
1355.85903	0.19885
1353.93035	0.19897
1352.00167	0.19905
1350.07300	0.19906
1348.14432	0.19912
1346.21565	0.19924
1344.28697	0.19930
1342.35830	0.19921
1340.42962	0.19904
1338.50094	0.19897
1336.57227	0.19902
1334.64359	0.19905
1332.71492	0.19902
1330.78624	0.19893
1328.85757	0.19876
1326.92889	0.19854
1325.00021	0.19837
1323.07154	0.19824
1321.14286	0.19804
1319.21419	0.19784
1317.28551	0.19770
1315.35684	0.19752
1313.42816	0.19728
1311.49948	0.19707
1309.57081	0.19693
1307.64213	0.19677
1305.71346	0.19656
1303.78478	0.19632
1301.85611	0.19607
1299.92743	0.19583
1297.99875	0.19565
1296.07008	0.19552
1294.14140	0.19534
1292.21273	0.19511
1290.28405	0.19491
1288.35538	0.19476
1286.42670	0.19456
1284.49802	0.19430
1282.56935	0.19407
1280.64067	0.19389
1278.71200	0.19369
1276.78332	0.19338
1274.85465	0.19296
1272.92597	0.19242
1270.99729	0.19174
1269.06862	0.19091
1267.13994	0.18998
1265.21127	0.18917
1263.28259	0.18864
1261.35392	0.18841
1259.42524	0.18842
1257.49656	0.18855
1255.56789	0.18871
1253.63921	0.18878
1251.71054	0.18871
1249.78186	0.18846
1247.85319	0.18808
1245.92451	0.18772
1243.99583	0.18740
1242.06716	0.18700
1240.13848	0.18647
1238.20981	0.18594
1236.28113	0.18549
1234.35246	0.18503
1232.42378	0.18453
1230.49510	0.18399
1228.56643	0.18343
1226.63775	0.18286
1224.70908	0.18235
1222.78040	0.18185
1220.85173	0.18136
1218.92305	0.18088
1216.99437	0.18038
1215.06570	0.17983
1213.13702	0.17925
1211.20835	0.17869
1209.27967	0.17816
1207.35100	0.17762
1205.42232	0.17702
1203.49364	0.17638
1201.56497	0.17578
1199.63629	0.17524
1197.70762	0.17469
1195.77894	0.17409
1193.85027	0.17346
1191.92159	0.17283
1189.99291	0.17220
1188.06424	0.17153
1186.13556	0.17082
1184.20689	0.17004
1182.27821	0.16917
1180.34954	0.16829
1178.42086	0.16747
1176.49218	0.16665
1174.56351	0.16580
1172.63483	0.16491
1170.70616	0.16401
1168.77748	0.16316
1166.84881	0.16237
1164.92013	0.16156
1162.99145	0.16073
1161.06278	0.15994
1159.13410	0.15920
1157.20543	0.15845
1155.27675	0.15762
1153.34808	0.15678
1151.41940	0.15600
1149.49072	0.15524
1147.56205	0.15445
1145.63337	0.15363
1143.70470	0.15281
1141.77602	0.15195
1139.84735	0.15098
1137.91867	0.14986
1135.98999	0.14860
1134.06132	0.14725
1132.13264	0.14579
1130.20397	0.14406
1128.27529	0.14205
1126.34662	0.13983
1124.41794	0.13749
1122.48926	0.13512
1120.56059	0.13276
1118.63191	0.13052
1116.70324	0.12848
1114.77456	0.12665
1112.84589	0.12508
1110.91721	0.12381
1108.98853	0.12280
1107.05986	0.12207
1105.13118	0.12166
1103.20251	0.12149
1101.27383	0.12158
1099.34516	0.12196
1097.41648	0.12258
1095.48780	0.12335
1093.55913	0.12415
1091.63045	0.12494
1089.70178	0.12572
1087.77310	0.12645
1085.84443	0.12710
1083.91575	0.12762
1081.98707	0.12803
1080.05840	0.12833
1078.12972	0.12855
1076.20105	0.12872
1074.27237	0.12885
1072.34370	0.12894
1070.41502	0.12904
1068.48634	0.12920
1066.55767	0.12939
1064.62899	0.12961
1062.70032	0.12985
1060.77164	0.13007
1058.84297	0.13030
1056.91429	0.13055
1054.98561	0.13084
1053.05694	0.13114
1051.12826	0.13143
1049.19959	0.13171
1047.27091	0.13203
1045.34224	0.13243
1043.41356	0.13284
1041.48488	0.13321
1039.55621	0.13363
1037.62753	0.13415
1035.69886	0.13463
1033.77018	0.13500
1031.84151	0.13529
1029.91283	0.13560
1027.98415	0.13594
1026.05548	0.13625
1024.12680	0.13653
1022.19813	0.13684
1020.26945	0.13721
1018.34078	0.13765
1016.41210	0.13816
1014.48342	0.13869
1012.55475	0.13920
1010.62607	0.13969
1008.69740	0.14020
1006.76872	0.14078
1004.84005	0.14136
1002.91137	0.14186
1000.98269	0.14218
999.05402	0.14239
997.12534	0.14264
995.19667	0.14291
993.26799	0.14307
991.33932	0.14314
989.41064	0.14317
987.48196	0.14317
985.55329	0.14315
983.62461	0.14314
981.69594	0.14310
979.76726	0.14301
977.83859	0.14287
975.90991	0.14269
973.98123	0.14250
972.05256	0.14232
970.12388	0.14217
968.19521	0.14209
966.26653	0.14197
964.33786	0.14173
962.40918	0.14145
960.48050	0.14127
958.55183	0.14116
956.62315	0.14103
954.69448	0.14085
952.76580	0.14066
950.83713	0.14050
948.90845	0.14033
946.97977	0.14012
945.05110	0.13988
943.12242	0.13962
941.19375	0.13929
939.26507	0.13883
937.33640	0.13830
935.40772	0.13779
933.47904	0.13733
931.55037	0.13690
929.62169	0.13645
927.69302	0.13597
925.76434	0.13544
923.83567	0.13485
921.90699	0.13422
919.97831	0.13361
918.04964	0.13300
916.12096	0.13235
914.19229	0.13162
912.26361	0.13082
910.33494	0.13009
908.40626	0.12943
906.47758	0.12874
904.54891	0.12805
902.62023	0.12746
900.69156	0.12698
898.76288	0.12650
896.83421	0.12597
894.90553	0.12541
892.97685	0.12490
891.04818	0.12446
889.11950	0.12406
887.19083	0.12361
885.26215	0.12315
883.33348	0.12272
881.40480	0.12238
879.47612	0.12213
877.54745	0.12192
875.61877	0.12170
873.69010	0.12148
871.76142	0.12122
869.83275	0.12097
867.90407	0.12074
865.97539	0.12050
864.04672	0.12027
862.11804	0.12010
860.18937	0.12005
858.26069	0.12008
856.33202	0.12002
854.40334	0.11980
852.47466	0.11946
850.54599	0.11908
848.61731	0.11879
846.68864	0.11857
844.75996	0.11832
842.83129	0.11805
840.90261	0.11780
838.97394	0.11750
837.04526	0.11706
835.11658	0.11647
833.18791	0.11572
831.25923	0.11482
829.33056	0.11383
827.40188	0.11280
825.47321	0.11183
823.54453	0.11092
821.61585	0.11007
819.68718	0.10934
817.75850	0.10878
815.82983	0.10836
813.90115	0.10807
811.97248	0.10788
810.04380	0.10767
808.11512	0.10742
806.18645	0.10722
804.25777	0.10713
802.32910	0.10711
800.40042	0.10698
798.47175	0.10650
796.54307	0.10580
794.61439	0.10520
792.68572	0.10485
790.75704	0.10469
788.82837	0.10454
786.89969	0.10432
784.97102	0.10405
783.04234	0.10376
781.11366	0.10340
779.18499	0.10302
777.25631	0.10269
775.32764	0.10245
773.39896	0.10224
771.47029	0.10198
769.54161	0.10167
767.61293	0.10132
765.68426	0.10093
763.75558	0.10049
761.82691	0.10005
759.89823	0.09958
757.96956	0.09902
756.04088	0.09847
754.11220	0.09796
752.18353	0.09737
750.25485	0.09665
748.32618	0.09586
746.39750	0.09507
744.46883	0.09420
742.54015	0.09326
740.61147	0.09247
738.68280	0.09196
736.75412	0.09174
734.82545	0.09165
732.89677	0.09163
730.96810	0.09168
729.03942	0.09177
727.11074	0.09197
725.18207	0.09221
723.25339	0.09232
721.32472	0.09235
719.39604	0.09252
717.46737	0.09284
715.53869	0.09323
713.61001	0.09366
711.68134	0.09403
709.75266	0.09424
707.82399	0.09430
705.89531	0.09431
703.96664	0.09424
702.03796	0.09402
700.10928	0.09364
698.18061	0.09311
696.25193	0.09247
694.32326	0.09183
692.39458	0.09122
690.46591	0.09063
688.53723	0.09009
686.60855	0.08969
684.67988	0.08936
682.75120	0.08897
680.82253	0.08841
678.89385	0.08778
676.96518	0.08719
675.03650	0.08662
673.10782	0.08597
671.17915	0.08517
669.25047	0.08427
667.32180	0.08337
665.39312	0.08258
663.46445	0.08180
661.53577	0.08095
659.60709	0.08012
657.67842	0.07935
655.74974	0.07862
653.82107	0.07787
651.89239	0.07704
649.96372	0.07620
648.03504	0.07537
646.10636	0.07452
644.17769	0.07366
642.24901	0.07285
640.32034	0.07195
638.39166	0.07089
636.46299	0.06975
634.53431	0.06857
632.60563	0.06710
630.67696	0.06481
628.74828	0.06136
626.81961	0.05701
624.89093	0.05257
622.96226	0.04907
621.03358	0.04690
619.10490	0.04572
617.17623	0.04492
615.24755	0.04401
613.31888	0.04292
611.39020	0.04194
609.46153	0.04146
607.53285	0.04158
605.60417	0.04198
603.67550	0.04250
601.74682	0.04329
599.81815	0.04431
597.88947	0.04526
595.96080	0.04588
594.03212	0.04619
592.10344	0.04636
590.17477	0.04647
588.24609	0.04650
586.31742	0.04639
584.38874	0.04615
582.46007	0.04583
580.53139	0.04542
578.60271	0.04496
576.67404	0.04450
574.74536	0.04409
572.81669	0.04364
570.88801	0.04297
568.95934	0.04219
567.03066	0.04164
565.10198	0.04140
563.17331	0.04121
561.24463	0.04094
559.31596	0.04064
557.38728	0.04041
555.45861	0.04025
553.52993	0.04003
551.60125	0.03976
549.67258	0.03952
547.74390	0.03932
545.81523	0.03918
543.88655	0.03906
541.95788	0.03895
540.02920	0.03878
538.10052	0.03852
536.17185	0.03828
534.24317	0.03815
532.31450	0.03798
530.38582	0.03768
528.45715	0.03736
526.52847	0.03707
524.59979	0.03669
522.67112	0.03631
520.74244	0.03596
518.81377	0.03544
516.88509	0.03474
514.95642	0.03410
513.02774	0.03369
511.09906	0.03348
509.17039	0.03328
507.24171	0.03304
505.31304	0.03280
503.38436	0.03251
501.45569	0.03214
499.52701	0.03171
497.59833	0.03128
495.66966	0.03082
493.74098	0.03028
491.81231	0.02972
489.88363	0.02916
487.95496	0.02851
486.02628	0.02787
484.09760	0.02733
482.16893	0.02683
480.24025	0.02631
478.31158	0.02574
476.38290	0.02518
474.45423	0.02471
472.52555	0.02429
470.59687	0.02385
468.66820	0.02342
466.73952	0.02301
464.81085	0.02269
462.88217	0.02251
460.95350	0.02240
459.02482	0.02224
457.09614	0.02209
455.16747	0.02205
453.23879	0.02212
451.31012	0.02226
449.38144	0.02237
447.45277	0.02229
445.52409	0.02200
443.59541	0.02170
441.66674	0.02149
439.73806	0.02123
437.80939	0.02078
435.88071	0.02024
433.95204	0.01971
432.02336	0.01917
430.09468	0.01862
428.16601	0.01810
426.23733	0.01754
424.30866	0.01687
422.37998	0.01613
420.45131	0.01536
418.52263	0.01462
416.59395	0.01397
414.66528	0.01336
412.73660	0.01275
410.80793	0.01223
408.87925	0.01175
406.95058	0.01122
405.02190	0.01059
403.09322	0.00992
401.16455	0.00928
399.23587	0.00868
397.30720	0.00812
395.37852	0.00762
393.44985	0.00712
391.52117	0.00661
389.59249	0.00609
387.66382	0.00563
385.73514	0.00529
383.80647	0.00499
381.87779	0.00470
379.94912	0.00440
378.02044	0.00409
376.09176	0.00375
374.16309	0.00342
372.23441	0.00309
370.30574	0.00270
368.37706	0.00231
