7496.76250	0.00119
7494.83382	0.00119
7492.90514	0.00118
7490.97647	0.00118
7489.04779	0.00119
7487.11912	0.00120
7485.19044	0.00121
7483.26177	0.00123
7481.33309	0.00123
7479.40441	0.00122
7477.47574	0.00122
7475.54706	0.00122
7473.61839	0.00123
7471.68971	0.00124
7469.76104	0.00124
7467.83236	0.00123
7465.90368	0.00124
7463.97501	0.00126
7462.04633	0.00126
7460.11766	0.00125
7458.18898	0.00125
7456.26031	0.00125
7454.33163	0.00126
7452.40295	0.00125
7450.47428	0.00125
7448.54560	0.00126
7446.61693	0.00128
7444.68825	0.00128
7442.75958	0.00128
7440.83090	0.00127
7438.90222	0.00128
7436.97355	0.00130
7435.04487	0.00130
7433.11620	0.00130
7431.18752	0.00129
7429.25885	0.00128
7427.33017	0.00128
7425.40149	0.00129
7423.47282	0.00129
7421.54414	0.00130
7419.61547	0.00131
7417.68679	0.00131
7415.75812	0.00130
7413.82944	0.00128
7411.90076	0.00129
7409.97209	0.00132
7408.04341	0.00133
7406.11474	0.00133
7404.18606	0.00133
7402.25739	0.00134
7400.32871	0.00134
7398.40003	0.00134
7396.47136	0.00133
7394.54268	0.00134
7392.61401	0.00135
7390.68533	0.00137
7388.75666	0.00138
7386.82798	0.00137
7384.89930	0.00136
7382.97063	0.00136
7381.04195	0.00136
7379.11328	0.00136
7377.18460	0.00138
7375.25593	0.00139
7373.32725	0.00139
7371.39857	0.00140
7369.46990	0.00141
7367.54122	0.00142
7365.61255	0.00143
7363.68387	0.00143
7361.75520	0.00141
7359.82652	0.00140
7357.89784	0.00141
7355.96917	0.00143
7354.04049	0.00144
7352.11182	0.00144
7350.18314	0.00144
7348.25447	0.00143
7346.32579	0.00143
7344.39711	0.00142
7342.46844	0.00142
7340.53976	0.00143
7338.61109	0.00144
7336.68241	0.00145
7334.75374	0.00145
7332.82506	0.00146
7330.89638	0.00146
7328.96771	0.00147
7327.03903	0.00148
7325.11036	0.00148
7323.18168	0.00149
7321.25301	0.00149
7319.32433	0.00151
7317.39565	0.00152
7315.46698	0.00152
7313.53830	0.00151
7311.60963	0.00150
7309.68095	0.00150
7307.75228	0.00150
7305.82360	0.00150
7303.89492	0.00150
7301.96625	0.00152
7300.03757	0.00154
7298.10890	0.00155
7296.18022	0.00154
7294.25155	0.00154
7292.32287	0.00155
7290.39419	0.00156
7288.46552	0.00156
7286.53684	0.00156
7284.60817	0.00157
7282.67949	0.00157
7280.75082	0.00156
7278.82214	0.00156
7276.89346	0.00156
7274.96479	0.00157
7273.03611	0.00157
7271.10744	0.00156
7269.17876	0.00156
7267.25009	0.00156
7265.32141	0.00157
7263.39273	0.00160
7261.46406	0.00162
7259.53538	0.00161
7257.60671	0.00159
7255.67803	0.00159
7253.74936	0.00160
7251.82068	0.00161
7249.89200	0.00163
7247.96333	0.00165
7246.03465	0.00166
7244.10598	0.00165
7242.17730	0.00165
7240.24863	0.00165
7238.31995	0.00164
7236.39127	0.00165
7234.46260	0.00167
7232.53392	0.00168
7230.60525	0.00167
7228.67657	0.00164
7226.74790	0.00162
7224.81922	0.00163
7222.89054	0.00164
7220.96187	0.00166
7219.03319	0.00170
7217.10452	0.00172
7215.17584	0.00172
7213.24717	0.00172
7211.31849	0.00173
7209.38981	0.00173
7207.46114	0.00173
7205.53246	0.00170
7203.60379	0.00170
7201.67511	0.00172
7199.74644	0.00173
7197.81776	0.00174
7195.88908	0.00173
7193.96041	0.00173
7192.03173	0.00172
7190.10306	0.00172
7188.17438	0.00172
7186.24571	0.00173
7184.31703	0.00175
7182.38835	0.00176
7180.45968	0.00176
7178.53100	0.00175
7176.60233	0.00174
7174.67365	0.00176
7172.74498	0.00178
7170.81630	0.00177
7168.88762	0.00177
7166.95895	0.00178
7165.03027	0.00180
7163.10160	0.00180
7161.17292	0.00179
7159.24425	0.00177
7157.31557	0.00177
7155.38689	0.00178
7153.45822	0.00181
7151.52954	0.00182
7149.60087	0.00181
7147.67219	0.00181
7145.74352	0.00181
7143.81484	0.00182
7141.88616	0.00183
7139.95749	0.00184
7138.02881	0.00184
7136.10014	0.00185
7134.17146	0.00186
7132.24279	0.00186
7130.31411	0.00186
7128.38543	0.00187
7126.45676	0.00188
7124.52808	0.00189
7122.59941	0.00189
7120.67073	0.00188
7118.74206	0.00187
7116.81338	0.00187
7114.88470	0.00188
7112.95603	0.00189
7111.02735	0.00190
7109.09868	0.00189
7107.17000	0.00188
7105.24133	0.00189
7103.31265	0.00190
7101.38397	0.00190
7099.45530	0.00191
7097.52662	0.00193
7095.59795	0.00194
7093.66927	0.00195
7091.74060	0.00194
7089.81192	0.00194
7087.88324	0.00194
7085.95457	0.00195
7084.02589	0.00197
7082.09722	0.00198
7080.16854	0.00199
7078.23987	0.00199
7076.31119	0.00200
7074.38251	0.00200
7072.45384	0.00199
7070.52516	0.00197
7068.59649	0.00197
7066.66781	0.00197
7064.73914	0.00198
7062.81046	0.00198
7060.88178	0.00199
7058.95311	0.00202
7057.02443	0.00204
7055.09576	0.00204
7053.16708	0.00203
7051.23841	0.00203
7049.30973	0.00203
7047.38105	0.00202
7045.45238	0.00203
7043.52370	0.00204
7041.59503	0.00206
7039.66635	0.00205
7037.73768	0.00204
7035.80900	0.00204
7033.88032	0.00205
7031.95165	0.00207
7030.02297	0.00209
7028.09430	0.00210
7026.16562	0.00210
7024.23695	0.00211
7022.30827	0.00210
7020.37959	0.00210
7018.45092	0.00210
7016.52224	0.00211
7014.59357	0.00211
7012.66489	0.00211
7010.73622	0.00211
7008.80754	0.00211
7006.87886	0.00211
7004.95019	0.00212
7003.02151	0.00213
7001.09284	0.00214
6999.16416	0.00215
6997.23549	0.00216
6995.30681	0.00216
6993.37813	0.00217
6991.44946	0.00218
6989.52078	0.00217
6987.59211	0.00216
6985.66343	0.00216
6983.73476	0.00217
6981.80608	0.00217
6979.87740	0.00217
6977.94873	0.00219
6976.02005	0.00220
6974.09138	0.00221
6972.16270	0.00222
6970.23403	0.00222
6968.30535	0.00223
6966.37667	0.00223
6964.44800	0.00222
6962.51932	0.00222
6960.59065	0.00223
6958.66197	0.00223
6956.73330	0.00223
6954.80462	0.00224
6952.87594	0.00225
6950.94727	0.00227
6949.01859	0.00229
6947.08992	0.00231
6945.16124	0.00230
6943.23257	0.00229
6941.30389	0.00229
6939.37521	0.00231
6937.44654	0.00231
6935.51786	0.00231
6933.58919	0.00231
6931.66051	0.00231
6929.73184	0.00230
6927.80316	0.00231
6925.87448	0.00232
6923.94581	0.00234
6922.01713	0.00236
6920.08846	0.00235
6918.15978	0.00234
6916.23111	0.00235
6914.30243	0.00237
6912.37375	0.00237
6910.44508	0.00236
6908.51640	0.00235
6906.58773	0.00237
6904.65905	0.00240
6902.73038	0.00241
6900.80170	0.00241
6898.87302	0.00240
6896.94435	0.00238
6895.01567	0.00238
6893.08700	0.00239
6891.15832	0.00240
6889.22965	0.00243
6887.30097	0.00244
6885.37229	0.00243
6883.44362	0.00242
6881.51494	0.00242
6879.58627	0.00244
6877.65759	0.00245
6875.72892	0.00245
6873.80024	0.00246
6871.87156	0.00249
6869.94289	0.00250
6868.01421	0.00249
6866.08554	0.00248
6864.15686	0.00248
6862.22819	0.00248
6860.29951	0.00248
6858.37083	0.00248
6856.44216	0.00250
6854.51348	0.00252
6852.58481	0.00253
6850.65613	0.00252
6848.72746	0.00252
6846.79878	0.00252
6844.87010	0.00253
6842.94143	0.00254
6841.01275	0.00254
6839.08408	0.00253
6837.15540	0.00253
6835.22673	0.00254
6833.29805	0.00256
6831.36937	0.00257
6829.44070	0.00257
6827.51202	0.00259
6825.58335	0.00261
6823.65467	0.00261
6821.72600	0.00260
6819.79732	0.00260
6817.86864	0.00260
6815.93997	0.00262
6814.01129	0.00264
6812.08262	0.00264
6810.15394	0.00264
6808.22527	0.00262
6806.29659	0.00262
6804.36791	0.00264
6802.43924	0.00266
6800.51056	0.00267
6798.58189	0.00266
6796.65321	0.00266
6794.72454	0.00266
6792.79586	0.00267
6790.86718	0.00268
6788.93851	0.00269
6787.00983	0.00270
6785.08116	0.00270
6783.15248	0.00270
6781.22381	0.00270
6779.29513	0.00272
6777.36645	0.00273
6775.43778	0.00274
6773.50910	0.00276
6771.58043	0.00277
6769.65175	0.00278
6767.72308	0.00277
6765.79440	0.00277
6763.86572	0.00277
6761.93705	0.00278
6760.00837	0.00279
6758.07970	0.00277
6756.15102	0.00276
6754.22235	0.00278
6752.29367	0.00281
6750.36499	0.00282
6748.43632	0.00282
6746.50764	0.00282
6744.57897	0.00283
6742.65029	0.00283
6740.72162	0.00283
6738.79294	0.00284
6736.86426	0.00286
6734.93559	0.00288
6733.00691	0.00287
6731.07824	0.00287
6729.14956	0.00288
6727.22089	0.00289
6725.29221	0.00288
6723.36353	0.00287
6721.43486	0.00288
6719.50618	0.00289
6717.57751	0.00289
6715.64883	0.00290
6713.72016	0.00292
6711.79148	0.00294
6709.86280	0.00294
6707.93413	0.00294
6706.00545	0.00295
6704.07678	0.00296
6702.14810	0.00297
6700.21943	0.00297
6698.29075	0.00297
6696.36207	0.00297
6694.43340	0.00296
6692.50472	0.00297
6690.57605	0.00299
6688.64737	0.00301
6686.71870	0.00302
6684.79002	0.00302
6682.86134	0.00302
6680.93267	0.00304
6679.00399	0.00305
6677.07532	0.00305
6675.14664	0.00306
6673.21797	0.00305
6671.28929	0.00304
6669.36061	0.00303
6667.43194	0.00305
6665.50326	0.00308
6663.57459	0.00309
6661.64591	0.00311
6659.71724	0.00312
6657.78856	0.00311
6655.85988	0.00309
6653.93121	0.00309
6652.00253	0.00311
6650.07386	0.00311
6648.14518	0.00311
6646.21651	0.00311
6644.28783	0.00314
6642.35915	0.00316
6640.43048	0.00317
6638.50180	0.00317
6636.57313	0.00317
6634.64445	0.00317
6632.71578	0.00316
6630.78710	0.00316
6628.85842	0.00316
6626.92975	0.00318
6625.00107	0.00319
6623.07240	0.00320
6621.14372	0.00320
6619.21505	0.00320
6617.28637	0.00321
6615.35769	0.00323
6613.42902	0.00325
6611.50034	0.00325
6609.57167	0.00325
6607.64299	0.00326
6605.71432	0.00327
6603.78564	0.00327
6601.85696	0.00327
6599.92829	0.00327
6597.99961	0.00329
6596.07094	0.00331
6594.14226	0.00332
6592.21359	0.00332
6590.28491	0.00332
6588.35623	0.00333
6586.42756	0.00335
6584.49888	0.00337
6582.57021	0.00338
6580.64153	0.00338
6578.71286	0.00339
6576.78418	0.00339
6574.85550	0.00340
6572.92683	0.00341
6570.99815	0.00342
6569.06948	0.00341
6567.14080	0.00340
6565.21213	0.00340
6563.28345	0.00341
6561.35477	0.00344
6559.42610	0.00345
6557.49742	0.00345
6555.56875	0.00344
6553.64007	0.00344
6551.71140	0.00347
6549.78272	0.00349
6547.85404	0.00349
6545.92537	0.00349
6543.99669	0.00351
6542.06802	0.00353
6540.13934	0.00354
6538.21067	0.00354
6536.28199	0.00355
6534.35331	0.00356
6532.42464	0.00356
6530.49596	0.00354
6528.56729	0.00353
6526.63861	0.00354
6524.70994	0.00357
6522.78126	0.00359
6520.85258	0.00361
6518.92391	0.00361
6516.99523	0.00360
6515.06656	0.00358
6513.13788	0.00358
6511.20921	0.00360
6509.28053	0.00363
6507.35185	0.00364
6505.42318	0.00363
6503.49450	0.00361
6501.56583	0.00361
6499.63715	0.00364
6497.70848	0.00366
6495.77980	0.00367
6493.85112	0.00368
6491.92245	0.00369
6489.99377	0.00369
6488.06510	0.00369
6486.13642	0.00370
6484.20775	0.00373
6482.27907	0.00375
6480.35039	0.00376
6478.42172	0.00377
6476.49304	0.00378
6474.56437	0.00378
6472.63569	0.00378
6470.70702	0.00378
6468.77834	0.00379
6466.84966	0.00380
6464.92099	0.00381
6462.99231	0.00382
6461.06364	0.00384
6459.13496	0.00386
6457.20629	0.00387
6455.27761	0.00387
6453.34893	0.00388
6451.42026	0.00387
6449.49158	0.00386
6447.56291	0.00387
6445.63423	0.00388
6443.70556	0.00388
6441.77688	0.00389
6439.84820	0.00391
6437.91953	0.00392
6435.99085	0.00393
6434.06218	0.00394
6432.13350	0.00396
6430.20483	0.00396
6428.27615	0.00395
6426.34747	0.00395
6424.41880	0.00395
6422.49012	0.00396
6420.56145	0.00397
6418.63277	0.00399
6416.70410	0.00401
6414.77542	0.00404
6412.84674	0.00405
6410.91807	0.00405
6408.98939	0.00406
6407.06072	0.00406
6405.13204	0.00407
6403.20337	0.00408
6401.27469	0.00409
6399.34601	0.00408
6397.41734	0.00408
6395.48866	0.00409
6393.55999	0.00411
6391.63131	0.00413
6389.70264	0.00415
6387.77396	0.00414
6385.84528	0.00414
6383.91661	0.00416
6381.98793	0.00417
6380.05926	0.00418
6378.13058	0.00418
6376.20191	0.00419
6374.27323	0.00420
6372.34455	0.00422
6370.41588	0.00424
6368.48720	0.00424
6366.55853	0.00424
6364.62985	0.00424
6362.70118	0.00424
6360.77250	0.00425
6358.84382	0.00427
6356.91515	0.00428
6354.98647	0.00428
6353.05780	0.00429
6351.12912	0.00432
6349.20045	0.00433
6347.27177	0.00433
6345.34309	0.00433
6343.41442	0.00433
6341.48574	0.00433
6339.55707	0.00435
6337.62839	0.00438
6335.69972	0.00440
6333.77104	0.00441
6331.84236	0.00442
6329.91369	0.00443
6327.98501	0.00444
6326.05634	0.00444
6324.12766	0.00443
6322.19899	0.00445
6320.27031	0.00447
6318.34163	0.00448
6316.41296	0.00448
6314.48428	0.00448
6312.55561	0.00448
6310.62693	0.00450
6308.69826	0.00452
6306.76958	0.00451
6304.84090	0.00450
6302.91223	0.00450
6300.98355	0.00451
6299.05488	0.00454
6297.12620	0.00457
6295.19753	0.00457
6293.26885	0.00458
6291.34017	0.00459
6289.41150	0.00460
6287.48282	0.00461
6285.55415	0.00462
6283.62547	0.00463
6281.69680	0.00463
6279.76812	0.00463
6277.83944	0.00463
6275.91077	0.00464
6273.98209	0.00468
6272.05342	0.00471
6270.12474	0.00472
6268.19607	0.00473
6266.26739	0.00473
6264.33871	0.00472
6262.41004	0.00472
6260.48136	0.00472
6258.55269	0.00474
6256.62401	0.00475
6254.69534	0.00476
6252.76666	0.00477
6250.83798	0.00479
6248.90931	0.00480
6246.98063	0.00481
6245.05196	0.00482
6243.12328	0.00484
6241.19461	0.00485
6239.26593	0.00485
6237.33725	0.00485
6235.40858	0.00486
6233.47990	0.00488
6231.55123	0.00489
6229.62255	0.00491
6227.69388	0.00493
6225.76520	0.00493
6223.83652	0.00494
6221.90785	0.00496
6219.97917	0.00497
6218.05050	0.00497
6216.12182	0.00497
6214.19315	0.00497
6212.26447	0.00498
6210.33579	0.00498
6208.40712	0.00499
6206.47844	0.00501
6204.54977	0.00503
6202.62109	0.00506
6200.69242	0.00507
6198.76374	0.00508
6196.83506	0.00508
6194.90639	0.00510
6192.97771	0.00511
6191.04904	0.00511
6189.12036	0.00511
6187.19169	0.00512
6185.26301	0.00514
6183.33433	0.00516
6181.40566	0.00517
6179.47698	0.00516
6177.54831	0.00515
6175.61963	0.00516
6173.69096	0.00519
6171.76228	0.00521
6169.83360	0.00523
6167.90493	0.00524
6165.97625	0.00523
6164.04758	0.00523
6162.11890	0.00526
6160.19023	0.00529
6158.26155	0.00530
6156.33287	0.00529
6154.40420	0.00529
6152.47552	0.00532
6150.54685	0.00534
6148.61817	0.00536
6146.68950	0.00537
6144.76082	0.00536
6142.83214	0.00537
6140.90347	0.00539
6138.97479	0.00542
6137.04612	0.00543
6135.11744	0.00543
6133.18877	0.00543
6131.26009	0.00544
6129.33141	0.00545
6127.40274	0.00547
6125.47406	0.00548
6123.54539	0.00549
6121.61671	0.00551
6119.68804	0.00552
6117.75936	0.00551
6115.83068	0.00552
6113.90201	0.00555
6111.97333	0.00558
6110.04466	0.00559
6108.11598	0.00559
6106.18731	0.00558
6104.25863	0.00558
6102.32995	0.00558
6100.40128	0.00559
6098.47260	0.00561
6096.54393	0.00562
6094.61525	0.00564
6092.68658	0.00567
6090.75790	0.00571
6088.82922	0.00573
6086.90055	0.00574
6084.97187	0.00574
6083.04320	0.00574
6081.11452	0.00576
6079.18585	0.00577
6077.25717	0.00579
6075.32849	0.00579
6073.39982	0.00579
6071.47114	0.00580
6069.54247	0.00580
6067.61379	0.00581
6065.68512	0.00583
6063.75644	0.00585
6061.82776	0.00586
6059.89909	0.00587
6057.97041	0.00589
6056.04174	0.00591
6054.11306	0.00591
6052.18439	0.00591
6050.25571	0.00593
6048.32703	0.00595
6046.39836	0.00596
6044.46968	0.00597
6042.54101	0.00596
6040.61233	0.00596
6038.68366	0.00596
6036.75498	0.00598
6034.82630	0.00600
6032.89763	0.00604
6030.96895	0.00607
6029.04028	0.00608
6027.11160	0.00609
6025.18293	0.00610
6023.25425	0.00610
6021.32557	0.00610
6019.39690	0.00612
6017.46822	0.00614
6015.53955	0.00617
6013.61087	0.00620
6011.68220	0.00622
6009.75352	0.00622
6007.82484	0.00623
6005.89617	0.00622
6003.96749	0.00621
6002.03882	0.00622
6000.11014	0.00624
5998.18147	0.00625
5996.25279	0.00627
5994.32411	0.00629
5992.39544	0.00631
5990.46676	0.00632
5988.53809	0.00632
5986.60941	0.00634
5984.68074	0.00636
5982.75206	0.00637
5980.82338	0.00638
5978.89471	0.00639
5976.96603	0.00639
5975.03736	0.00640
5973.10868	0.00642
5971.18001	0.00645
5969.25133	0.00649
5967.32265	0.00650
5965.39398	0.00650
5963.46530	0.00651
5961.53663	0.00651
5959.60795	0.00652
5957.67928	0.00654
5955.75060	0.00656
5953.82192	0.00657
5951.89325	0.00657
5949.96457	0.00657
5948.03590	0.00660
5946.10722	0.00664
5944.17855	0.00665
5942.24987	0.00667
5940.32119	0.00669
5938.39252	0.00671
5936.46384	0.00671
5934.53517	0.00672
5932.60649	0.00673
5930.67782	0.00674
5928.74914	0.00677
5926.82046	0.00679
5924.89179	0.00679
5922.96311	0.00677
5921.03444	0.00678
5919.10576	0.00681
5917.17709	0.00684
5915.24841	0.00686
5913.31973	0.00688
5911.39106	0.00689
5909.46238	0.00690
5907.53371	0.00690
5905.60503	0.00691
5903.67636	0.00694
5901.74768	0.00696
5899.81900	0.00697
5897.89033	0.00697
5895.96165	0.00698
5894.03298	0.00699
5892.10430	0.00700
5890.17563	0.00701
5888.24695	0.00703
5886.31827	0.00707
5884.38960	0.00709
5882.46092	0.00710
5880.53225	0.00712
5878.60357	0.00714
5876.67490	0.00716
5874.74622	0.00715
5872.81755	0.00715
5870.88887	0.00716
5868.96019	0.00717
5867.03152	0.00720
5865.10284	0.00722
5863.17417	0.00723
5861.24549	0.00723
5859.31682	0.00725
5857.38814	0.00726
5855.45946	0.00727
5853.53079	0.00729
5851.60211	0.00731
5849.67344	0.00734
5847.74476	0.00737
5845.81609	0.00738
5843.88741	0.00739
5841.95873	0.00741
5840.03006	0.00744
5838.10138	0.00745
5836.17271	0.00745
5834.24403	0.00746
5832.31536	0.00748
5830.38668	0.00749
5828.45800	0.00751
5826.52933	0.00752
5824.60065	0.00753
5822.67198	0.00752
5820.74330	0.00753
5818.81463	0.00754
5816.88595	0.00756
5814.95727	0.00758
5813.02860	0.00762
5811.09992	0.00765
5809.17125	0.00767
5807.24257	0.00769
5805.31390	0.00772
5803.38522	0.00774
5801.45654	0.00775
5799.52787	0.00776
5797.59919	0.00777
5795.67052	0.00778
5793.74184	0.00778
5791.81317	0.00779
5789.88449	0.00781
5787.95581	0.00782
5786.02714	0.00782
5784.09846	0.00783
5782.16979	0.00784
5780.24111	0.00788
5778.31244	0.00793
5776.38376	0.00795
5774.45508	0.00794
5772.52641	0.00791
5770.59773	0.00791
5768.66906	0.00793
5766.74038	0.00796
5764.81171	0.00800
5762.88303	0.00802
5760.95435	0.00803
5759.02568	0.00804
5757.09700	0.00806
5755.16833	0.00809
5753.23965	0.00810
5751.31098	0.00811
5749.38230	0.00812
5747.45362	0.00813
5745.52495	0.00815
5743.59627	0.00819
5741.66760	0.00823
5739.73892	0.00827
5737.81025	0.00828
5735.88157	0.00827
5733.95289	0.00827
5732.02422	0.00830
5730.09554	0.00832
5728.16687	0.00833
5726.23819	0.00833
5724.30952	0.00834
5722.38084	0.00836
5720.45216	0.00839
5718.52349	0.00842
5716.59481	0.00844
5714.66614	0.00847
5712.73746	0.00849
5710.80879	0.00850
5708.88011	0.00851
5706.95143	0.00852
5705.02276	0.00854
5703.09408	0.00855
5701.16541	0.00857
5699.23673	0.00858
5697.30806	0.00859
5695.37938	0.00862
5693.45070	0.00865
5691.52203	0.00867
5689.59335	0.00867
5687.66468	0.00867
5685.73600	0.00869
5683.80733	0.00873
5681.87865	0.00876
5679.94997	0.00877
5678.02130	0.00877
5676.09262	0.00878
5674.16395	0.00880
5672.23527	0.00883
5670.30660	0.00886
5668.37792	0.00888
5666.44924	0.00889
5664.52057	0.00891
5662.59189	0.00891
5660.66322	0.00892
5658.73454	0.00895
5656.80587	0.00897
5654.87719	0.00898
5652.94851	0.00900
5651.01984	0.00902
5649.09116	0.00902
5647.16249	0.00903
5645.23381	0.00905
5643.30514	0.00908
5641.37646	0.00912
5639.44778	0.00914
5637.51911	0.00916
5635.59043	0.00916
5633.66176	0.00916
5631.73308	0.00917
5629.80441	0.00920
5627.87573	0.00924
5625.94705	0.00927
5624.01838	0.00928
5622.08970	0.00929
5620.16103	0.00930
5618.23235	0.00933
5616.30368	0.00935
5614.37500	0.00938
5612.44632	0.00939
5610.51765	0.00940
5608.58897	0.00941
5606.66030	0.00943
5604.73162	0.00945
5602.80295	0.00947
5600.87427	0.00950
5598.94559	0.00951
5597.01692	0.00951
5595.08824	0.00952
5593.15957	0.00956
5591.23089	0.00959
5589.30222	0.00961
5587.37354	0.00961
5585.44486	0.00962
5583.51619	0.00964
5581.58751	0.00966
5579.65884	0.00966
5577.73016	0.00968
5575.80149	0.00972
5573.87281	0.00976
5571.94413	0.00979
5570.01546	0.00980
5568.08678	0.00981
5566.15811	0.00982
5564.22943	0.00984
5562.30076	0.00988
5560.37208	0.00991
5558.44340	0.00992
5556.51473	0.00994
5554.58605	0.00995
5552.65738	0.00996
5550.72870	0.00998
5548.80003	0.01001
5546.87135	0.01003
5544.94267	0.01003
5543.01400	0.01004
5541.08532	0.01006
5539.15665	0.01008
5537.22797	0.01010
5535.29930	0.01012
5533.37062	0.01013
5531.44194	0.01015
5529.51327	0.01018
5527.58459	0.01021
5525.65592	0.01023
5523.72724	0.01024
5521.79857	0.01024
5519.86989	0.01026
5517.94121	0.01029
5516.01254	0.01032
5514.08386	0.01036
5512.15519	0.01039
5510.22651	0.01041
5508.29784	0.01040
5506.36916	0.01040
5504.44048	0.01041
5502.51181	0.01044
5500.58313	0.01049
5498.65446	0.01051
5496.72578	0.01052
5494.79711	0.01053
5492.86843	0.01055
5490.93975	0.01056
5489.01108	0.01057
5487.08240	0.01059
5485.15373	0.01062
5483.22505	0.01064
5481.29638	0.01065
5479.36770	0.01065
5477.43902	0.01067
5475.51035	0.01071
5473.58167	0.01074
5471.65300	0.01078
5469.72432	0.01081
5467.79565	0.01082
5465.86697	0.01081
5463.93829	0.01083
5462.00962	0.01086
5460.08094	0.01088
5458.15227	0.01089
5456.22359	0.01091
5454.29492	0.01094
5452.36624	0.01097
5450.43756	0.01098
5448.50889	0.01098
5446.58021	0.01100
5444.65154	0.01103
5442.72286	0.01106
5440.79419	0.01108
5438.86551	0.01109
5436.93683	0.01111
5435.00816	0.01114
5433.07948	0.01115
5431.15081	0.01115
5429.22213	0.01115
5427.29346	0.01119
5425.36478	0.01125
5423.43610	0.01130
5421.50743	0.01132
5419.57875	0.01133
5417.65008	0.01135
5415.72140	0.01136
5413.79273	0.01136
5411.86405	0.01139
5409.93537	0.01142
5408.00670	0.01144
5406.07802	0.01145
5404.14935	0.01149
5402.22067	0.01153
5400.29200	0.01157
5398.36332	0.01158
5396.43464	0.01160
5394.50597	0.01162
5392.57729	0.01164
5390.64862	0.01164
5388.71994	0.01165
5386.79127	0.01166
5384.86259	0.01168
5382.93391	0.01172
5381.00524	0.01175
5379.07656	0.01176
5377.14789	0.01175
5375.21921	0.01176
5373.29054	0.01180
5371.36186	0.01184
5369.43318	0.01186
5367.50451	0.01187
5365.57583	0.01190
5363.64716	0.01194
5361.71848	0.01196
5359.78981	0.01197
5357.86113	0.01201
5355.93245	0.01205
5354.00378	0.01207
5352.07510	0.01208
5350.14643	0.01209
5348.21775	0.01209
5346.28908	0.01211
5344.36040	0.01213
5342.43172	0.01216
5340.50305	0.01218
5338.57437	0.01219
5336.64570	0.01220
5334.71702	0.01223
5332.78835	0.01228
5330.85967	0.01231
5328.93099	0.01232
5327.00232	0.01234
5325.07364	0.01238
5323.14497	0.01240
5321.21629	0.01241
5319.28762	0.01241
5317.35894	0.01241
5315.43026	0.01243
5313.50159	0.01245
5311.57291	0.01248
5309.64424	0.01251
5307.71556	0.01255
5305.78689	0.01260
5303.85821	0.01265
5301.92953	0.01268
5300.00086	0.01268
5298.07218	0.01269
5296.14351	0.01271
5294.21483	0.01274
5292.28616	0.01277
5290.35748	0.01280
5288.42880	0.01282
5286.50013	0.01282
5284.57145	0.01283
5282.64278	0.01285
5280.71410	0.01288
5278.78543	0.01291
5276.85675	0.01294
5274.92807	0.01297
5272.99940	0.01300
5271.07072	0.01302
5269.14205	0.01304
5267.21337	0.01305
5265.28470	0.01306
5263.35602	0.01308
5261.42734	0.01312
5259.49867	0.01314
5257.56999	0.01315
5255.64132	0.01315
5253.71264	0.01317
5251.78397	0.01320
5249.85529	0.01321
5247.92661	0.01323
5245.99794	0.01327
5244.06926	0.01332
5242.14059	0.01337
5240.21191	0.01339
5238.28324	0.01341
5236.35456	0.01343
5234.42588	0.01345
5232.49721	0.01348
5230.56853	0.01351
5228.63986	0.01352
5226.71118	0.01352
5224.78251	0.01354
5222.85383	0.01358
5220.92515	0.01361
5218.99648	0.01363
5217.06780	0.01365
5215.13913	0.01369
5213.21045	0.01372
5211.28178	0.01372
5209.35310	0.01372
5207.42442	0.01373
5205.49575	0.01377
5203.56707	0.01382
5201.63840	0.01385
5199.70972	0.01386
5197.78105	0.01386
5195.85237	0.01389
5193.92369	0.01392
5191.99502	0.01395
5190.06634	0.01397
5188.13767	0.01399
5186.20899	0.01402
5184.28032	0.01405
5182.35164	0.01407
5180.42296	0.01409
5178.49429	0.01413
5176.56561	0.01415
5174.63694	0.01417
5172.70826	0.01421
5170.77959	0.01424
5168.85091	0.01426
5166.92223	0.01428
5164.99356	0.01430
5163.06488	0.01432
5161.13621	0.01435
5159.20753	0.01437
5157.27886	0.01437
5155.35018	0.01440
5153.42150	0.01444
5151.49283	0.01448
5149.56415	0.01448
5147.63548	0.01449
5145.70680	0.01450
5143.77813	0.01455
5141.84945	0.01460
5139.92077	0.01464
5137.99210	0.01465
5136.06342	0.01467
5134.13475	0.01468
5132.20607	0.01469
5130.27740	0.01471
5128.34872	0.01475
5126.42004	0.01478
5124.49137	0.01481
5122.56269	0.01483
5120.63402	0.01486
5118.70534	0.01488
5116.77667	0.01492
5114.84799	0.01496
5112.91931	0.01500
5110.99064	0.01502
5109.06196	0.01503
5107.13329	0.01504
5105.20461	0.01508
5103.27594	0.01511
5101.34726	0.01513
5099.41858	0.01515
5097.48991	0.01517
5095.56123	0.01518
5093.63256	0.01519
5091.70388	0.01521
5089.77521	0.01523
5087.84653	0.01525
5085.91785	0.01528
5083.98918	0.01530
5082.06050	0.01533
5080.13183	0.01536
5078.20315	0.01538
5076.27448	0.01539
5074.34580	0.01542
5072.41712	0.01546
5070.48845	0.01550
5068.55977	0.01553
5066.63110	0.01555
5064.70242	0.01557
5062.77375	0.01558
5060.84507	0.01560
5058.91639	0.01565
5056.98772	0.01570
5055.05904	0.01573
5053.13037	0.01576
5051.20169	0.01579
5049.27302	0.01581
5047.34434	0.01582
5045.41566	0.01584
5043.48699	0.01588
5041.55831	0.01590
5039.62964	0.01591
5037.70096	0.01592
5035.77229	0.01593
5033.84361	0.01595
5031.91493	0.01599
5029.98626	0.01604
5028.05758	0.01608
5026.12891	0.01611
5024.20023	0.01612
5022.27156	0.01615
5020.34288	0.01618
5018.41420	0.01620
5016.48553	0.01622
5014.55685	0.01624
5012.62818	0.01626
5010.69950	0.01628
5008.77083	0.01631
5006.84215	0.01634
5004.91347	0.01637
5002.98480	0.01641
5001.05612	0.01645
4999.12745	0.01648
4997.19877	0.01650
4995.27010	0.01652
4993.34142	0.01653
4991.41274	0.01656
4989.48407	0.01661
4987.55539	0.01664
4985.62672	0.01668
4983.69804	0.01671
4981.76937	0.01672
4979.84069	0.01673
4977.91201	0.01676
4975.98334	0.01679
4974.05466	0.01682
4972.12599	0.01684
4970.19731	0.01688
4968.26864	0.01691
4966.33996	0.01691
4964.41128	0.01690
4962.48261	0.01693
4960.55393	0.01699
4958.62526	0.01702
4956.69658	0.01704
4954.76791	0.01707
4952.83923	0.01711
4950.91055	0.01715
4948.98188	0.01717
4947.05320	0.01719
4945.12453	0.01722
4943.19585	0.01726
4941.26718	0.01728
4939.33850	0.01729
4937.40982	0.01731
4935.48115	0.01736
4933.55247	0.01741
4931.62380	0.01744
4929.69512	0.01747
4927.76645	0.01750
4925.83777	0.01752
4923.90909	0.01754
4921.98042	0.01757
4920.05174	0.01759
4918.12307	0.01758
4916.19439	0.01759
4914.26572	0.01762
4912.33704	0.01766
4910.40836	0.01770
4908.47969	0.01774
4906.55101	0.01778
4904.62234	0.01780
4902.69366	0.01781
4900.76499	0.01784
4898.83631	0.01788
4896.90763	0.01790
4894.97896	0.01792
4893.05028	0.01796
4891.12161	0.01799
4889.19293	0.01800
4887.26426	0.01802
4885.33558	0.01807
4883.40690	0.01812
4881.47823	0.01816
4879.54955	0.01819
4877.62088	0.01821
4875.69220	0.01823
4873.76353	0.01826
4871.83485	0.01831
4869.90617	0.01836
4867.97750	0.01840
4866.04882	0.01842
4864.12015	0.01843
4862.19147	0.01845
4860.26280	0.01848
4858.33412	0.01850
4856.40544	0.01852
4854.47677	0.01853
4852.54809	0.01855
4850.61942	0.01857
4848.69074	0.01860
4846.76207	0.01864
4844.83339	0.01868
4842.90471	0.01870
4840.97604	0.01874
4839.04736	0.01878
4837.11869	0.01882
4835.19001	0.01885
4833.26134	0.01890
4831.33266	0.01893
4829.40398	0.01892
4827.47531	0.01892
4825.54663	0.01894
4823.61796	0.01899
4821.68928	0.01904
4819.76061	0.01908
4817.83193	0.01912
4815.90325	0.01916
4813.97458	0.01918
4812.04590	0.01919
4810.11723	0.01921
4808.18855	0.01925
4806.25988	0.01928
4804.33120	0.01931
4802.40252	0.01934
4800.47385	0.01938
4798.54517	0.01940
4796.61650	0.01942
4794.68782	0.01945
4792.75915	0.01948
4790.83047	0.01950
4788.90179	0.01953
4786.97312	0.01958
4785.04444	0.01963
4783.11577	0.01965
4781.18709	0.01966
4779.25842	0.01968
4777.32974	0.01974
4775.40106	0.01980
4773.47239	0.01984
4771.54371	0.01985
4769.61504	0.01987
4767.68636	0.01991
4765.75769	0.01997
4763.82901	0.02001
4761.90033	0.02004
4759.97166	0.02005
4758.04298	0.02006
4756.11431	0.02008
4754.18563	0.02012
4752.25696	0.02016
4750.32828	0.02019
4748.39960	0.02022
4746.47093	0.02026
4744.54225	0.02032
4742.61358	0.02037
4740.68490	0.02038
4738.75623	0.02038
4736.82755	0.02039
4734.89887	0.02043
4732.97020	0.02049
4731.04152	0.02054
4729.11285	0.02058
4727.18417	0.02059
4725.25550	0.02062
4723.32682	0.02065
4721.39814	0.02067
4719.46947	0.02069
4717.54079	0.02074
4715.61212	0.02079
4713.68344	0.02082
4711.75477	0.02085
4709.82609	0.02088
4707.89741	0.02090
4705.96874	0.02094
4704.04006	0.02098
4702.11139	0.02102
4700.18271	0.02107
4698.25404	0.02110
4696.32536	0.02111
4694.39668	0.02114
4692.46801	0.02118
4690.53933	0.02122
4688.61066	0.02124
4686.68198	0.02125
4684.75331	0.02127
4682.82463	0.02133
4680.89595	0.02139
4678.96728	0.02142
4677.03860	0.02144
4675.10993	0.02149
4673.18125	0.02153
4671.25258	0.02156
4669.32390	0.02158
4667.39522	0.02161
4665.46655	0.02164
4663.53787	0.02167
4661.60920	0.02171
4659.68052	0.02176
4657.75185	0.02181
4655.82317	0.02185
4653.89449	0.02187
4651.96582	0.02191
4650.03714	0.02196
4648.10847	0.02200
4646.17979	0.02201
4644.25112	0.02203
4642.32244	0.02205
4640.39376	0.02207
4638.46509	0.02210
4636.53641	0.02215
4634.60774	0.02220
4632.67906	0.02226
4630.75039	0.02231
4628.82171	0.02233
4626.89303	0.02236
4624.96436	0.02240
4623.03568	0.02243
4621.10701	0.02247
4619.17833	0.02252
4617.24966	0.02257
4615.32098	0.02260
4613.39230	0.02263
4611.46363	0.02267
4609.53495	0.02270
4607.60628	0.02272
4605.67760	0.02275
4603.74893	0.02279
4601.82025	0.02285
4599.89157	0.02290
4597.96290	0.02294
4596.03422	0.02296
4594.10555	0.02297
4592.17687	0.02298
4590.24820	0.02302
4588.31952	0.02306
4586.39084	0.02309
4584.46217	0.02314
4582.53349	0.02320
4580.60482	0.02325
4578.67614	0.02329
4576.74747	0.02332
4574.81879	0.02335
4572.89011	0.02339
4570.96144	0.02342
4569.03276	0.02345
4567.10409	0.02349
4565.17541	0.02353
4563.24674	0.02358
4561.31806	0.02362
4559.38938	0.02366
4557.46071	0.02371
4555.53203	0.02373
4553.60336	0.02374
4551.67468	0.02378
4549.74601	0.02383
4547.81733	0.02387
4545.88865	0.02390
4543.95998	0.02396
4542.03130	0.02402
4540.10263	0.02404
4538.17395	0.02405
4536.24528	0.02410
4534.31660	0.02416
4532.38792	0.02422
4530.45925	0.02426
4528.53057	0.02430
4526.60190	0.02436
4524.67322	0.02441
4522.74455	0.02446
4520.81587	0.02452
4518.88719	0.02457
4516.95852	0.02459
4515.02984	0.02460
4513.10117	0.02462
4511.17249	0.02466
4509.24382	0.02471
4507.31514	0.02474
4505.38646	0.02477
4503.45779	0.02480
4501.52911	0.02483
4499.60044	0.02488
4497.67176	0.02494
4495.74309	0.02498
4493.81441	0.02502
4491.88573	0.02508
4489.95706	0.02512
4488.02838	0.02516
4486.09971	0.02519
4484.17103	0.02524
4482.24236	0.02529
4480.31368	0.02533
4478.38500	0.02538
4476.45633	0.02542
4474.52765	0.02546
4472.59898	0.02550
4470.67030	0.02555
4468.74163	0.02560
4466.81295	0.02563
4464.88427	0.02567
4462.95560	0.02572
4461.02692	0.02577
4459.09825	0.02583
4457.16957	0.02588
4455.24090	0.02592
4453.31222	0.02596
4451.38354	0.02600
4449.45487	0.02604
4447.52619	0.02607
4445.59752	0.02612
4443.66884	0.02618
4441.74017	0.02623
4439.81149	0.02627
4437.88281	0.02630
4435.95414	0.02633
4434.02546	0.02636
4432.09679	0.02640
4430.16811	0.02646
4428.23944	0.02654
4426.31076	0.02660
4424.38208	0.02663
4422.45341	0.02665
4420.52473	0.02668
4418.59606	0.02674
4416.66738	0.02679
4414.73871	0.02686
4412.81003	0.02692
4410.88135	0.02697
4408.95268	0.02700
4407.02400	0.02702
4405.09533	0.02706
4403.16665	0.02711
4401.23798	0.02717
4399.30930	0.02722
4397.38062	0.02727
4395.45195	0.02732
4393.52327	0.02738
4391.59460	0.02745
4389.66592	0.02749
4387.73725	0.02751
4385.80857	0.02754
4383.87989	0.02759
4381.95122	0.02763
4380.02254	0.02767
4378.09387	0.02771
4376.16519	0.02775
4374.23652	0.02782
4372.30784	0.02790
4370.37916	0.02798
4368.45049	0.02807
4366.52181	0.02812
4364.59314	0.02813
4362.66446	0.02815
4360.73579	0.02818
4358.80711	0.02822
4356.87843	0.02827
4354.94976	0.02834
4353.02108	0.02843
4351.09241	0.02848
4349.16373	0.02851
4347.23506	0.02856
4345.30638	0.02863
4343.37770	0.02870
4341.44903	0.02874
4339.52035	0.02876
4337.59168	0.02879
4335.66300	0.02883
4333.73433	0.02889
4331.80565	0.02896
4329.87697	0.02900
4327.94830	0.02905
4326.01962	0.02910
4324.09095	0.02916
4322.16227	0.02923
4320.23360	0.02928
4318.30492	0.02932
4316.37624	0.02937
4314.44757	0.02943
4312.51889	0.02947
4310.59022	0.02950
4308.66154	0.02954
4306.73287	0.02961
4304.80419	0.02969
4302.87551	0.02976
4300.94684	0.02981
4299.01816	0.02984
4297.08949	0.02989
4295.16081	0.02995
4293.23214	0.03003
4291.30346	0.03008
4289.37478	0.03012
4287.44611	0.03018
4285.51743	0.03023
4283.58876	0.03027
4281.66008	0.03033
4279.73141	0.03039
4277.80273	0.03044
4275.87405	0.03052
4273.94538	0.03060
4272.01670	0.03065
4270.08803	0.03067
4268.15935	0.03070
4266.23068	0.03075
4264.30200	0.03081
4262.37332	0.03087
4260.44465	0.03093
4258.51597	0.03097
4256.58730	0.03103
4254.65862	0.03109
4252.72995	0.03117
4250.80127	0.03124
4248.87259	0.03129
4246.94392	0.03135
4245.01524	0.03141
4243.08657	0.03146
4241.15789	0.03151
4239.22922	0.03155
4237.30054	0.03160
4235.37186	0.03167
4233.44319	0.03174
4231.51451	0.03180
4229.58584	0.03184
4227.65716	0.03189
4225.72849	0.03195
4223.79981	0.03201
4221.87113	0.03207
4219.94246	0.03214
4218.01378	0.03222
4216.08511	0.03229
4214.15643	0.03234
4212.22776	0.03238
4210.29908	0.03244
4208.37040	0.03251
4206.44173	0.03256
4204.51305	0.03260
4202.58438	0.03264
4200.65570	0.03272
4198.72703	0.03281
4196.79835	0.03288
4194.86968	0.03292
4192.94100	0.03296
4191.01232	0.03301
4189.08365	0.03307
4187.15497	0.03316
4185.22630	0.03324
4183.29762	0.03332
4181.36895	0.03337
4179.44027	0.03344
4177.51159	0.03350
4175.58292	0.03355
4173.65424	0.03358
4171.72557	0.03364
4169.79689	0.03371
4167.86822	0.03379
4165.93954	0.03387
4164.01086	0.03393
4162.08219	0.03399
4160.15351	0.03404
4158.22484	0.03408
4156.29616	0.03414
4154.36749	0.03422
4152.43881	0.03432
4150.51013	0.03438
4148.58146	0.03443
4146.65278	0.03450
4144.72411	0.03459
4142.79543	0.03467
4140.86676	0.03471
4138.93808	0.03475
4137.00940	0.03480
4135.08073	0.03487
4133.15205	0.03494
4131.22338	0.03500
4129.29470	0.03505
4127.36603	0.03510
4125.43735	0.03517
4123.50867	0.03525
4121.58000	0.03534
4119.65132	0.03539
4117.72265	0.03542
4115.79397	0.03549
4113.86530	0.03559
4111.93662	0.03567
4110.00794	0.03574
4108.07927	0.03581
4106.15059	0.03588
4104.22192	0.03595
4102.29324	0.03602
4100.36457	0.03608
4098.43589	0.03614
4096.50721	0.03620
4094.57854	0.03626
4092.64986	0.03631
4090.72119	0.03640
4088.79251	0.03648
4086.86384	0.03654
4084.93516	0.03659
4083.00648	0.03667
4081.07781	0.03678
4079.14913	0.03687
4077.22046	0.03693
4075.29178	0.03697
4073.36311	0.03701
4071.43443	0.03707
4069.50575	0.03715
4067.57708	0.03723
4065.64840	0.03731
4063.71973	0.03738
4061.79105	0.03745
4059.86238	0.03753
4057.93370	0.03762
4056.00502	0.03771
4054.07635	0.03778
4052.14767	0.03783
4050.21900	0.03788
4048.29032	0.03794
4046.36165	0.03801
4044.43297	0.03808
4042.50429	0.03815
4040.57562	0.03823
4038.64694	0.03831
4036.71827	0.03837
4034.78959	0.03843
4032.86092	0.03850
4030.93224	0.03856
4029.00356	0.03863
4027.07489	0.03870
4025.14621	0.03877
4023.21754	0.03884
4021.28886	0.03891
4019.36019	0.03900
4017.43151	0.03909
4015.50283	0.03917
4013.57416	0.03923
4011.64548	0.03928
4009.71681	0.03935
4007.78813	0.03943
4005.85946	0.03952
4003.93078	0.03961
4002.00210	0.03968
4000.07343	0.03974
3998.14475	0.03981
3996.21608	0.03987
3994.28740	0.03994
3992.35873	0.04003
3990.43005	0.04013
3988.50137	0.04023
3986.57270	0.04031
3984.64402	0.04038
3982.71535	0.04045
3980.78667	0.04053
3978.85800	0.04059
3976.92932	0.04064
3975.00064	0.04071
3973.07197	0.04081
3971.14329	0.04090
3969.21462	0.04097
3967.28594	0.04105
3965.35727	0.04113
3963.42859	0.04119
3961.49991	0.04125
3959.57124	0.04133
3957.64256	0.04140
3955.71389	0.04148
3953.78521	0.04156
3951.85654	0.04163
3949.92786	0.04170
3947.99918	0.04178
3946.07051	0.04187
3944.14183	0.04192
3942.21316	0.04199
3940.28448	0.04211
3938.35581	0.04222
3936.42713	0.04229
3934.49845	0.04232
3932.56978	0.04236
3930.64110	0.04247
3928.71243	0.04258
3926.78375	0.04263
3924.85508	0.04268
3922.92640	0.04277
3920.99772	0.04283
3919.06905	0.04284
3917.14037	0.04289
3915.21170	0.04305
3913.28302	0.04322
3911.35435	0.04332
3909.42567	0.04337
3907.49699	0.04336
3905.56832	0.04329
3903.63964	0.04323
3901.71097	0.04330
3899.78229	0.04349
3897.85362	0.04373
3895.92494	0.04392
3893.99626	0.04397
3892.06759	0.04400
3890.13891	0.04410
3888.21024	0.04416
3886.28156	0.04415
3884.35289	0.04419
3882.42421	0.04430
3880.49553	0.04442
3878.56686	0.04460
3876.63818	0.04473
3874.70951	0.04476
3872.78083	0.04477
3870.85216	0.04482
3868.92348	0.04492
3866.99480	0.04504
3865.06613	0.04511
3863.13745	0.04521
3861.20878	0.04536
3859.28010	0.04545
3857.35143	0.04540
3855.42275	0.04524
3853.49407	0.04521
3851.56540	0.04547
3849.63672	0.04582
3847.70805	0.04602
3845.77937	0.04608
3843.85070	0.04608
3841.92202	0.04604
3839.99334	0.04601
3838.06467	0.04606
3836.13599	0.04623
3834.20732	0.04643
3832.27864	0.04657
3830.34997	0.04668
3828.42129	0.04677
3826.49261	0.04684
3824.56394	0.04689
3822.63526	0.04692
3820.70659	0.04698
3818.77791	0.04709
3816.84924	0.04715
3814.92056	0.04730
3812.99188	0.04755
3811.06321	0.04772
3809.13453	0.04772
3807.20586	0.04771
3805.27718	0.04781
3803.34851	0.04788
3801.41983	0.04793
3799.49115	0.04803
3797.56248	0.04815
3795.63380	0.04831
3793.70513	0.04850
3791.77645	0.04864
3789.84778	0.04872
3787.91910	0.04877
3785.99042	0.04882
3784.06175	0.04891
3782.13307	0.04901
3780.20440	0.04907
3778.27572	0.04915
3776.34705	0.04926
3774.41837	0.04934
3772.48969	0.04936
3770.56102	0.04936
3768.63234	0.04946
3766.70367	0.04961
3764.77499	0.04976
3762.84632	0.04988
3760.91764	0.04993
3758.98896	0.04997
3757.06029	0.05005
3755.13161	0.05009
3753.20294	0.05005
3751.27426	0.05004
3749.34559	0.05017
3747.41691	0.05020
3745.48823	0.05009
3743.55956	0.05020
3741.63088	0.05058
3739.70221	0.05076
3737.77353	0.05066
3735.84486	0.05058
3733.91618	0.05070
3731.98750	0.05097
3730.05883	0.05126
3728.13015	0.05143
3726.20148	0.05148
3724.27280	0.05156
3722.34413	0.05168
3720.41545	0.05182
3718.48677	0.05197
3716.55810	0.05207
3714.62942	0.05210
3712.70075	0.05208
3710.77207	0.05213
3708.84340	0.05230
3706.91472	0.05249
3704.98604	0.05259
3703.05737	0.05261
3701.12869	0.05268
3699.20002	0.05285
3697.27134	0.05300
3695.34267	0.05306
3693.41399	0.05304
3691.48531	0.05298
3689.55664	0.05304
3687.62796	0.05323
3685.69929	0.05345
3683.77061	0.05359
3681.84194	0.05364
3679.91326	0.05360
3677.98458	0.05348
3676.05591	0.05344
3674.12723	0.05362
3672.19856	0.05384
3670.26988	0.05393
3668.34121	0.05406
3666.41253	0.05430
3664.48385	0.05450
3662.55518	0.05464
3660.62650	0.05470
3658.69783	0.05470
3656.76915	0.05467
3654.84048	0.05472
3652.91180	0.05470
3650.98312	0.05452
3649.05445	0.05442
3647.12577	0.05460
3645.19710	0.05492
3643.26842	0.05519
3641.33975	0.05538
3639.41107	0.05552
3637.48239	0.05559
3635.55372	0.05561
3633.62504	0.05561
3631.69637	0.05557
3629.76769	0.05556
3627.83902	0.05572
3625.91034	0.05597
3623.98166	0.05610
3622.05299	0.05606
3620.12431	0.05597
3618.19564	0.05602
3616.26696	0.05614
3614.33829	0.05622
3612.40961	0.05628
3610.48093	0.05636
3608.55226	0.05647
3606.62358	0.05660
3604.69491	0.05673
3602.76623	0.05680
3600.83756	0.05687
3598.90888	0.05696
3596.98020	0.05701
3595.05153	0.05706
3593.12285	0.05712
3591.19418	0.05712
3589.26550	0.05707
3587.33683	0.05715
3585.40815	0.05738
3583.47947	0.05757
3581.55080	0.05766
3579.62212	0.05771
3577.69345	0.05779
3575.76477	0.05786
3573.83610	0.05794
3571.90742	0.05800
3569.97874	0.05799
3568.05007	0.05793
3566.12139	0.05798
3564.19272	0.05817
3562.26404	0.05836
3560.33537	0.05848
3558.40669	0.05857
3556.47801	0.05865
3554.54934	0.05868
3552.62066	0.05870
3550.69199	0.05875
3548.76331	0.05879
3546.83464	0.05882
3544.90596	0.05890
3542.97728	0.05902
3541.04861	0.05913
3539.11993	0.05918
3537.19126	0.05921
3535.26258	0.05925
3533.33391	0.05930
3531.40523	0.05934
3529.47655	0.05938
3527.54788	0.05942
3525.61920	0.05949
3523.69053	0.05956
3521.76185	0.05962
3519.83318	0.05967
3517.90450	0.05973
3515.97582	0.05980
3514.04715	0.05983
3512.11847	0.05984
3510.18980	0.05985
3508.26112	0.05988
3506.33245	0.05992
3504.40377	0.05995
3502.47509	0.05998
3500.54642	0.06001
3498.61774	0.06004
3496.68907	0.06006
3494.76039	0.06008
3492.83172	0.06012
3490.90304	0.06017
3488.97436	0.06021
3487.04569	0.06023
3485.11701	0.06025
3483.18834	0.06028
3481.25966	0.06034
3479.33099	0.06041
3477.40231	0.06048
3475.47363	0.06053
3473.54496	0.06059
3471.61628	0.06067
3469.68761	0.06074
3467.75893	0.06083
3465.83026	0.06095
3463.90158	0.06108
3461.97290	0.06120
3460.04423	0.06132
3458.11555	0.06141
3456.18688	0.06145
3454.25820	0.06151
3452.32953	0.06161
3450.40085	0.06170
3448.47217	0.06178
3446.54350	0.06186
3444.61482	0.06194
3442.68615	0.06205
3440.75747	0.06221
3438.82880	0.06237
3436.90012	0.06251
3434.97144	0.06267
3433.04277	0.06288
3431.11409	0.06313
3429.18542	0.06336
3427.25674	0.06354
3425.32807	0.06371
3423.39939	0.06389
3421.47071	0.06406
3419.54204	0.06422
3417.61336	0.06438
3415.68469	0.06456
3413.75601	0.06475
3411.82734	0.06491
3409.89866	0.06504
3407.96998	0.06517
3406.04131	0.06530
3404.11263	0.06544
3402.18396	0.06556
3400.25528	0.06570
3398.32661	0.06584
3396.39793	0.06597
3394.46925	0.06610
3392.54058	0.06623
3390.61190	0.06635
3388.68323	0.06648
3386.75455	0.06662
3384.82588	0.06673
3382.89720	0.06685
3380.96852	0.06699
3379.03985	0.06714
3377.11117	0.06726
3375.18250	0.06738
3373.25382	0.06753
3371.32515	0.06768
3369.39647	0.06781
3367.46779	0.06792
3365.53912	0.06804
3363.61044	0.06817
3361.68177	0.06831
3359.75309	0.06845
3357.82442	0.06856
3355.89574	0.06867
3353.96706	0.06880
3352.03839	0.06890
3350.10971	0.06899
3348.18104	0.06913
3346.25236	0.06927
3344.32369	0.06938
3342.39501	0.06947
3340.46633	0.06958
3338.53766	0.06971
3336.60898	0.06985
3334.68031	0.06996
3332.75163	0.07007
3330.82296	0.07021
3328.89428	0.07036
3326.96560	0.07049
3325.03693	0.07059
3323.10825	0.07071
3321.17958	0.07084
3319.25090	0.07098
3317.32223	0.07111
3315.39355	0.07123
3313.46487	0.07137
3311.53620	0.07148
3309.60752	0.07158
3307.67885	0.07168
3305.75017	0.07180
3303.82150	0.07193
3301.89282	0.07207
3299.96414	0.07222
3298.03547	0.07238
3296.10679	0.07254
3294.17812	0.07267
3292.24944	0.07276
3290.32077	0.07288
3288.39209	0.07304
3286.46341	0.07319
3284.53474	0.07334
3282.60606	0.07350
3280.67739	0.07363
3278.74871	0.07374
3276.82004	0.07387
3274.89136	0.07402
3272.96268	0.07417
3271.03401	0.07427
3269.10533	0.07438
3267.17666	0.07450
3265.24798	0.07464
3263.31931	0.07478
3261.39063	0.07494
3259.46195	0.07508
3257.53328	0.07520
3255.60460	0.07532
3253.67593	0.07546
3251.74725	0.07560
3249.81858	0.07571
3247.88990	0.07583
3245.96122	0.07598
3244.03255	0.07616
3242.10387	0.07633
3240.17520	0.07648
3238.24652	0.07661
3236.31785	0.07673
3234.38917	0.07687
3232.46049	0.07700
3230.53182	0.07710
3228.60314	0.07720
3226.67447	0.07734
3224.74579	0.07753
3222.81712	0.07769
3220.88844	0.07779
3218.95976	0.07788
3217.03109	0.07800
3215.10241	0.07815
3213.17374	0.07828
3211.24506	0.07837
3209.31639	0.07848
3207.38771	0.07864
3205.45903	0.07882
3203.53036	0.07899
3201.60168	0.07913
3199.67301	0.07927
3197.74433	0.07942
3195.81566	0.07957
3193.88698	0.07974
3191.95830	0.07990
3190.02963	0.08006
3188.10095	0.08021
3186.17228	0.08035
3184.24360	0.08049
3182.31493	0.08060
3180.38625	0.08071
3178.45757	0.08085
3176.52890	0.08101
3174.60022	0.08117
3172.67155	0.08131
3170.74287	0.08144
3168.81420	0.08156
3166.88552	0.08168
3164.95684	0.08182
3163.02817	0.08196
3161.09949	0.08210
3159.17082	0.08226
3157.24214	0.08241
3155.31347	0.08254
3153.38479	0.08265
3151.45611	0.08277
3149.52744	0.08291
3147.59876	0.08307
3145.67009	0.08322
3143.74141	0.08337
3141.81274	0.08352
3139.88406	0.08368
3137.95538	0.08384
3136.02671	0.08397
3134.09803	0.08408
3132.16936	0.08419
3130.24068	0.08434
3128.31201	0.08449
3126.38333	0.08462
3124.45465	0.08473
3122.52598	0.08485
3120.59730	0.08499
3118.66863	0.08516
3116.73995	0.08531
3114.81128	0.08544
3112.88260	0.08559
3110.95392	0.08577
3109.02525	0.08592
3107.09657	0.08606
3105.16790	0.08619
3103.23922	0.08629
3101.31055	0.08637
3099.38187	0.08648
3097.45319	0.08665
3095.52452	0.08683
3093.59584	0.08699
3091.66717	0.08715
3089.73849	0.08730
3087.80982	0.08744
3085.88114	0.08759
3083.95246	0.08773
3082.02379	0.08785
3080.09511	0.08797
3078.16644	0.08810
3076.23776	0.08825
3074.30909	0.08841
3072.38041	0.08854
3070.45173	0.08865
3068.52306	0.08877
3066.59438	0.08891
3064.66571	0.08906
3062.73703	0.08922
3060.80836	0.08939
3058.87968	0.08953
3056.95100	0.08965
3055.02233	0.08980
3053.09365	0.08994
3051.16498	0.09005
3049.23630	0.09015
3047.30763	0.09026
3045.37895	0.09039
3043.45027	0.09054
3041.52160	0.09069
3039.59292	0.09084
3037.66425	0.09098
3035.73557	0.09113
3033.80690	0.09128
3031.87822	0.09144
3029.94954	0.09159
3028.02087	0.09172
3026.09219	0.09186
3024.16352	0.09199
3022.23484	0.09212
3020.30617	0.09225
3018.37749	0.09237
3016.44881	0.09249
3014.52014	0.09263
3012.59146	0.09279
3010.66279	0.09292
3008.73411	0.09303
3006.80544	0.09317
3004.87676	0.09334
3002.94808	0.09353
3001.01941	0.09366
2999.09073	0.09375
2997.16206	0.09385
2995.23338	0.09399
2993.30471	0.09414
2991.37603	0.09426
2989.44735	0.09434
2987.51868	0.09442
2985.59000	0.09451
2983.66133	0.09461
2981.73265	0.09471
2979.80398	0.09481
2977.87530	0.09490
2975.94662	0.09494
2974.01795	0.09493
2972.08927	0.09491
2970.16060	0.09489
2968.23192	0.09484
2966.30325	0.09481
2964.37457	0.09487
2962.44589	0.09498
2960.51722	0.09511
2958.58854	0.09524
2956.65987	0.09540
2954.73119	0.09559
2952.80252	0.09577
2950.87384	0.09597
2948.94516	0.09617
2947.01649	0.09631
2945.08781	0.09637
2943.15914	0.09640
2941.23046	0.09641
2939.30179	0.09642
2937.37311	0.09641
2935.44443	0.09640
2933.51576	0.09640
2931.58708	0.09639
2929.65841	0.09636
2927.72973	0.09632
2925.80106	0.09629
2923.87238	0.09629
2921.94370	0.09631
2920.01503	0.09637
2918.08635	0.09652
2916.15768	0.09682
2914.22900	0.09726
2912.30033	0.09776
2910.37165	0.09821
2908.44297	0.09858
2906.51430	0.09887
2904.58562	0.09914
2902.65695	0.09939
2900.72827	0.09962
2898.79960	0.09982
2896.87092	0.10000
2894.94224	0.10016
2893.01357	0.10035
2891.08489	0.10056
2889.15622	0.10075
2887.22754	0.10091
2885.29887	0.10107
2883.37019	0.10124
2881.44151	0.10141
2879.51284	0.10155
2877.58416	0.10169
2875.65549	0.10183
2873.72681	0.10195
2871.79814	0.10208
2869.86946	0.10222
2867.94078	0.10236
2866.01211	0.10246
2864.08343	0.10252
2862.15476	0.10259
2860.22608	0.10264
2858.29741	0.10263
2856.36873	0.10259
2854.44005	0.10258
2852.51138	0.10263
2850.58270	0.10274
2848.65403	0.10300
2846.72535	0.10346
2844.79668	0.10399
2842.86800	0.10441
2840.93932	0.10470
2839.01065	0.10494
2837.08197	0.10519
2835.15330	0.10544
2833.22462	0.10563
2831.29595	0.10580
2829.36727	0.10596
2827.43859	0.10611
2825.50992	0.10628
2823.58124	0.10648
2821.65257	0.10667
2819.72389	0.10684
2817.79522	0.10699
2815.86654	0.10715
2813.93786	0.10729
2812.00919	0.10744
2810.08051	0.10762
2808.15184	0.10782
2806.22316	0.10797
2804.29449	0.10806
2802.36581	0.10817
2800.43713	0.10833
2798.50846	0.10853
2796.57978	0.10873
2794.65111	0.10888
2792.72243	0.10899
2790.79376	0.10914
2788.86508	0.10930
2786.93640	0.10944
2785.00773	0.10957
2783.07905	0.10973
2781.15038	0.10990
2779.22170	0.11007
2777.29303	0.11021
2775.36435	0.11036
2773.43567	0.11051
2771.50700	0.11068
2769.57832	0.11084
2767.64965	0.11100
2765.72097	0.11115
2763.79230	0.11127
2761.86362	0.11139
2759.93494	0.11153
2758.00627	0.11170
2756.07759	0.11187
2754.14892	0.11201
2752.22024	0.11216
2750.29157	0.11230
2748.36289	0.11244
2746.43421	0.11261
2744.50554	0.11278
2742.57686	0.11292
2740.64819	0.11303
2738.71951	0.11314
2736.79084	0.11328
2734.86216	0.11345
2732.93348	0.11362
2731.00481	0.11379
2729.07613	0.11393
2727.14746	0.11406
2725.21878	0.11421
2723.29011	0.11438
2721.36143	0.11452
2719.43275	0.11464
2717.50408	0.11475
2715.57540	0.11490
2713.64673	0.11507
2711.71805	0.11521
2709.78938	0.11537
2707.86070	0.11556
2705.93202	0.11573
2704.00335	0.11584
2702.07467	0.11597
2700.14600	0.11612
2698.21732	0.11624
2696.28865	0.11634
2694.35997	0.11647
2692.43129	0.11666
2690.50262	0.11684
2688.57394	0.11699
2686.64527	0.11713
2684.71659	0.11729
2682.78792	0.11746
2680.85924	0.11759
2678.93056	0.11768
2677.00189	0.11779
2675.07321	0.11793
2673.14454	0.11807
2671.21586	0.11821
2669.28719	0.11836
2667.35851	0.11853
2665.42983	0.11870
2663.50116	0.11887
2661.57248	0.11901
2659.64381	0.11915
2657.71513	0.11929
2655.78646	0.11944
2653.85778	0.11960
2651.92910	0.11977
2650.00043	0.11991
2648.07175	0.12006
2646.14308	0.12023
2644.21440	0.12039
2642.28573	0.12051
2640.35705	0.12063
2638.42837	0.12080
2636.49970	0.12100
2634.57102	0.12118
2632.64235	0.12131
2630.71367	0.12141
2628.78500	0.12155
2626.85632	0.12174
2624.92764	0.12192
2622.99897	0.12209
2621.07029	0.12225
2619.14162	0.12241
2617.21294	0.12255
2615.28427	0.12268
2613.35559	0.12282
2611.42691	0.12299
2609.49824	0.12316
2607.56956	0.12333
2605.64089	0.12350
2603.71221	0.12367
2601.78354	0.12382
2599.85486	0.12396
2597.92618	0.12411
2595.99751	0.12428
2594.06883	0.12444
2592.14016	0.12457
2590.21148	0.12469
2588.28281	0.12485
2586.35413	0.12503
2584.42545	0.12523
2582.49678	0.12540
2580.56810	0.12553
2578.63943	0.12564
2576.71075	0.12578
2574.78208	0.12594
2572.85340	0.12609
2570.92472	0.12622
2568.99605	0.12636
2567.06737	0.12651
2565.13870	0.12665
2563.21002	0.12679
2561.28135	0.12693
2559.35267	0.12706
2557.42399	0.12722
2555.49532	0.12742
2553.56664	0.12760
2551.63797	0.12773
2549.70929	0.12785
2547.78062	0.12799
2545.85194	0.12814
2543.92326	0.12829
2541.99459	0.12844
2540.06591	0.12859
2538.13724	0.12873
2536.20856	0.12887
2534.27989	0.12899
2532.35121	0.12911
2530.42253	0.12926
2528.49386	0.12942
2526.56518	0.12957
2524.63651	0.12972
2522.70783	0.12990
2520.77916	0.13009
2518.85048	0.13026
2516.92181	0.13041
2514.99313	0.13056
2513.06445	0.13072
2511.13578	0.13089
2509.20710	0.13107
2507.27843	0.13124
2505.34975	0.13137
2503.42108	0.13151
2501.49240	0.13168
2499.56372	0.13187
2497.63505	0.13207
2495.70637	0.13228
2493.77770	0.13246
2491.84902	0.13259
2489.92035	0.13273
2487.99167	0.13292
2486.06299	0.13311
2484.13432	0.13327
2482.20564	0.13342
2480.27697	0.13358
2478.34829	0.13374
2476.41962	0.13389
2474.49094	0.13402
2472.56226	0.13420
2470.63359	0.13440
2468.70491	0.13458
2466.77624	0.13471
2464.84756	0.13482
2462.91889	0.13495
2460.99021	0.13511
2459.06153	0.13530
2457.13286	0.13550
2455.20418	0.13569
2453.27551	0.13585
2451.34683	0.13600
2449.41816	0.13615
2447.48948	0.13632
2445.56080	0.13649
2443.63213	0.13662
2441.70345	0.13676
2439.77478	0.13694
2437.84610	0.13712
2435.91743	0.13725
2433.98875	0.13737
2432.06007	0.13754
2430.13140	0.13772
2428.20272	0.13789
2426.27405	0.13802
2424.34537	0.13816
2422.41670	0.13832
2420.48802	0.13850
2418.55934	0.13869
2416.63067	0.13887
2414.70199	0.13901
2412.77332	0.13914
2410.84464	0.13927
2408.91597	0.13942
2406.98729	0.13960
2405.05861	0.13979
2403.12994	0.13995
2401.20126	0.14010
2399.27259	0.14026
2397.34391	0.14042
2395.41524	0.14059
2393.48656	0.14075
2391.55788	0.14086
2389.62921	0.14097
2387.70053	0.14114
2385.77186	0.14132
2383.84318	0.14148
2381.91451	0.14158
2379.98583	0.14165
2378.05715	0.14172
2376.12848	0.14176
2374.19980	0.14178
2372.27113	0.14179
2370.34245	0.14181
2368.41378	0.14186
2366.48510	0.14196
2364.55642	0.14209
2362.62775	0.14220
2360.69907	0.14233
2358.77040	0.14252
2356.84172	0.14277
2354.91305	0.14307
2352.98437	0.14341
2351.05569	0.14374
2349.12702	0.14397
2347.19834	0.14407
2345.26967	0.14407
2343.34099	0.14402
2341.41232	0.14403
2339.48364	0.14413
2337.55496	0.14432
2335.62629	0.14454
2333.69761	0.14476
2331.76894	0.14498
2329.84026	0.14522
2327.91159	0.14546
2325.98291	0.14567
2324.05423	0.14586
2322.12556	0.14605
2320.19688	0.14623
2318.26821	0.14643
2316.33953	0.14662
2314.41086	0.14682
2312.48218	0.14707
2310.55350	0.14731
2308.62483	0.14749
2306.69615	0.14761
2304.76748	0.14776
2302.83880	0.14797
2300.91013	0.14818
2298.98145	0.14837
2297.05277	0.14853
2295.12410	0.14866
2293.19542	0.14879
2291.26675	0.14895
2289.33807	0.14914
2287.40940	0.14934
2285.48072	0.14950
2283.55204	0.14962
2281.62337	0.14978
2279.69469	0.14998
2277.76602	0.15017
2275.83734	0.15033
2273.90867	0.15048
2271.97999	0.15066
2270.05131	0.15085
2268.12264	0.15100
2266.19396	0.15112
2264.26529	0.15125
2262.33661	0.15140
2260.40794	0.15154
2258.47926	0.15170
2256.55058	0.15191
2254.62191	0.15212
2252.69323	0.15228
2250.76456	0.15239
2248.83588	0.15250
2246.90721	0.15263
2244.97853	0.15277
2243.04985	0.15294
2241.12118	0.15312
2239.19250	0.15328
2237.26383	0.15344
2235.33515	0.15361
2233.40648	0.15379
2231.47780	0.15397
2229.54912	0.15413
2227.62045	0.15428
2225.69177	0.15443
2223.76310	0.15456
2221.83442	0.15471
2219.90575	0.15487
2217.97707	0.15503
2216.04839	0.15520
2214.11972	0.15537
2212.19104	0.15555
2210.26237	0.15572
2208.33369	0.15585
2206.40502	0.15597
2204.47634	0.15613
2202.54766	0.15630
2200.61899	0.15646
2198.69031	0.15660
2196.76164	0.15680
2194.83296	0.15700
2192.90429	0.15713
2190.97561	0.15724
2189.04693	0.15738
2187.11826	0.15754
2185.18958	0.15768
2183.26091	0.15781
2181.33223	0.15792
2179.40356	0.15809
2177.47488	0.15829
2175.54620	0.15847
2173.61753	0.15861
2171.68885	0.15874
2169.76018	0.15889
2167.83150	0.15907
2165.90283	0.15928
2163.97415	0.15949
2162.04547	0.15969
2160.11680	0.15984
2158.18812	0.15997
2156.25945	0.16011
2154.33077	0.16024
2152.40210	0.16040
2150.47342	0.16061
2148.54474	0.16083
2146.61607	0.16101
2144.68739	0.16116
2142.75872	0.16132
2140.83004	0.16148
2138.90137	0.16163
2136.97269	0.16178
2135.04401	0.16196
2133.11534	0.16211
2131.18666	0.16222
2129.25799	0.16231
2127.32931	0.16244
2125.40064	0.16263
2123.47196	0.16286
2121.54328	0.16304
2119.61461	0.16319
2117.68593	0.16335
2115.75726	0.16350
2113.82858	0.16364
2111.89991	0.16379
2109.97123	0.16399
2108.04255	0.16417
2106.11388	0.16431
2104.18520	0.16446
2102.25653	0.16462
2100.32785	0.16478
2098.39918	0.16495
2096.47050	0.16513
2094.54182	0.16532
2092.61315	0.16549
2090.68447	0.16564
2088.75580	0.16579
2086.82712	0.16596
2084.89845	0.16614
2082.96977	0.16629
2081.04109	0.16642
2079.11242	0.16654
2077.18374	0.16674
2075.25507	0.16697
2073.32639	0.16714
2071.39772	0.16725
2069.46904	0.16740
2067.54036	0.16755
2065.61169	0.16765
2063.68301	0.16777
2061.75434	0.16796
2059.82566	0.16817
2057.89699	0.16835
2055.96831	0.16850
2054.03963	0.16865
2052.11096	0.16882
2050.18228	0.16900
2048.25361	0.16916
2046.32493	0.16931
2044.39626	0.16949
2042.46758	0.16965
2040.53890	0.16980
2038.61023	0.16999
2036.68155	0.17017
2034.75288	0.17034
2032.82420	0.17049
2030.89553	0.17062
2028.96685	0.17076
2027.03817	0.17096
2025.10950	0.17117
2023.18082	0.17137
2021.25215	0.17156
2019.32347	0.17170
2017.39480	0.17183
2015.46612	0.17200
2013.53744	0.17220
2011.60877	0.17237
2009.68009	0.17249
2007.75142	0.17259
2005.82274	0.17274
2003.89407	0.17294
2001.96539	0.17313
2000.03671	0.17329
1998.10804	0.17341
1996.17936	0.17352
1994.25069	0.17361
1992.32201	0.17369
1990.39334	0.17384
1988.46466	0.17407
1986.53598	0.17431
1984.60731	0.17453
1982.67863	0.17467
1980.74996	0.17479
1978.82128	0.17495
1976.89261	0.17508
1974.96393	0.17516
1973.03525	0.17522
1971.10658	0.17530
1969.17790	0.17545
1967.24923	0.17564
1965.32055	0.17582
1963.39188	0.17598
1961.46320	0.17613
1959.53452	0.17628
1957.60585	0.17642
1955.67717	0.17658
1953.74850	0.17676
1951.81982	0.17690
1949.89115	0.17700
1947.96247	0.17711
1946.03379	0.17721
1944.10512	0.17727
1942.17644	0.17742
1940.24777	0.17772
1938.31909	0.17799
1936.39042	0.17818
1934.46174	0.17835
1932.53306	0.17851
1930.60439	0.17861
1928.67571	0.17870
1926.74704	0.17882
1924.81836	0.17897
1922.88969	0.17915
1920.96101	0.17930
1919.03233	0.17939
1917.10366	0.17957
1915.17498	0.17988
1913.24631	0.18011
1911.31763	0.18021
1909.38896	0.18028
1907.46028	0.18041
1905.53160	0.18060
1903.60293	0.18082
1901.67425	0.18103
1899.74558	0.18118
1897.81690	0.18127
1895.88823	0.18135
1893.95955	0.18147
1892.03087	0.18152
1890.10220	0.18154
1888.17352	0.18177
1886.24485	0.18212
1884.31617	0.18232
1882.38750	0.18244
1880.45882	0.18262
1878.53014	0.18283
1876.60147	0.18300
1874.67279	0.18311
1872.74412	0.18314
1870.81544	0.18310
1868.88677	0.18311
1866.95809	0.18331
1865.02941	0.18364
1863.10074	0.18395
1861.17206	0.18423
1859.24339	0.18447
1857.31471	0.18466
1855.38604	0.18480
1853.45736	0.18493
1851.52868	0.18502
1849.60001	0.18503
1847.67133	0.18489
1845.74266	0.18462
1843.81398	0.18471
1841.88531	0.18534
1839.95663	0.18592
1838.02795	0.18615
1836.09928	0.18631
1834.17060	0.18644
1832.24193	0.18643
1830.31325	0.18637
1828.38458	0.18643
1826.45590	0.18652
1824.52722	0.18675
1822.59855	0.18716
1820.66987	0.18744
1818.74120	0.18753
1816.81252	0.18768
1814.88385	0.18791
1812.95517	0.18806
1811.02649	0.18814
1809.09782	0.18828
1807.16914	0.18849
1805.24047	0.18858
1803.31179	0.18848
1801.38312	0.18845
1799.45444	0.18868
1797.52576	0.18898
1795.59709	0.18907
1793.66841	0.18897
1791.73974	0.18899
1789.81106	0.18933
1787.88239	0.18969
1785.95371	0.18982
1784.02503	0.18988
1782.09636	0.18999
1780.16768	0.19009
1778.23901	0.19016
1776.31033	0.19017
1774.38166	0.19004
1772.45298	0.18986
1770.52430	0.18984
1768.59563	0.19008
1766.66695	0.19055
1764.73828	0.19095
1762.80960	0.19104
1760.88093	0.19106
1758.95225	0.19111
1757.02357	0.19113
1755.09490	0.19115
1753.16622	0.19095
1751.23755	0.19058
1749.30887	0.19049
1747.38020	0.19073
1745.45152	0.19097
1743.52284	0.19106
1741.59417	0.19107
1739.66549	0.19111
1737.73682	0.19105
1735.80814	0.19063
1733.87947	0.19027
1731.95079	0.19055
1730.02211	0.19115
1728.09344	0.19169
1726.16476	0.19207
1724.23609	0.19223
1722.30741	0.19219
1720.37874	0.19182
1718.45006	0.19137
1716.52138	0.19142
1714.59271	0.19197
1712.66403	0.19256
1710.73536	0.19287
1708.80668	0.19288
1706.87801	0.19281
1704.94933	0.19291
1703.02065	0.19292
1701.09198	0.19269
1699.16330	0.19259
1697.23463	0.19263
1695.30595	0.19283
1693.37728	0.19336
1691.44860	0.19372
1689.51992	0.19370
1687.59125	0.19342
1685.66257	0.19288
1683.73390	0.19257
1681.80522	0.19292
1679.87655	0.19343
1677.94787	0.19357
1676.01919	0.19347
1674.09052	0.19349
1672.16184	0.19353
1670.23317	0.19347
1668.30449	0.19373
1666.37582	0.19423
1664.44714	0.19445
1662.51846	0.19447
1660.58979	0.19456
1658.66111	0.19460
1656.73244	0.19411
1654.80376	0.19300
1652.87509	0.19253
1650.94641	0.19328
1649.01773	0.19392
1647.08906	0.19393
1645.16038	0.19419
1643.23171	0.19474
1641.30303	0.19498
1639.37436	0.19477
1637.44568	0.19444
1635.51700	0.19449
1633.58833	0.19494
1631.65965	0.19532
1629.73098	0.19537
1627.80230	0.19524
1625.87363	0.19495
1623.94495	0.19449
1622.01627	0.19421
1620.08760	0.19423
1618.15892	0.19451
1616.23025	0.19513
1614.30157	0.19589
1612.37290	0.19643
1610.44422	0.19673
1608.51554	0.19694
1606.58687	0.19717
1604.65819	0.19741
1602.72952	0.19764
1600.80084	0.19786
1598.87217	0.19805
1596.94349	0.19818
1595.01481	0.19829
1593.08614	0.19844
1591.15746	0.19863
1589.22879	0.19885
1587.30011	0.19906
1585.37144	0.19924
1583.44276	0.19940
1581.51408	0.19954
1579.58541	0.19944
1577.65673	0.19917
1575.72806	0.19921
1573.79938	0.19960
1571.87071	0.19969
1569.94203	0.19953
1568.01335	0.19971
1566.08468	0.20005
1564.15600	0.20025
1562.22733	0.20012
1560.29865	0.19946
1558.36998	0.19895
1556.44130	0.19938
1554.51262	0.20027
1552.58395	0.20078
1550.65527	0.20096
1548.72660	0.20118
1546.79792	0.20130
1544.86925	0.20092
1542.94057	0.20031
1541.01189	0.20006
1539.08322	0.20050
1537.15454	0.20129
1535.22587	0.20176
1533.29719	0.20193
1531.36852	0.20214
1529.43984	0.20221
1527.51116	0.20210
1525.58249	0.20201
1523.65381	0.20181
1521.72514	0.20157
1519.79646	0.20168
1517.86779	0.20194
1515.93911	0.20211
1514.01043	0.20221
1512.08176	0.20217
1510.15308	0.20188
1508.22441	0.20161
1506.29573	0.20194
1504.36706	0.20276
1502.43838	0.20325
1500.50970	0.20317
1498.58103	0.20283
1496.65235	0.20266
1494.72368	0.20287
1492.79500	0.20299
1490.86633	0.20268
1488.93765	0.20248
1487.00897	0.20272
1485.08030	0.20300
1483.15162	0.20294
1481.22295	0.20266
1479.29427	0.20235
1477.36560	0.20189
1475.43692	0.20125
1473.50824	0.20075
1471.57957	0.20072
1469.65089	0.20086
1467.72222	0.20073
1465.79354	0.20040
1463.86487	0.20022
1461.93619	0.19998
1460.00751	0.19932
1458.07884	0.19864
1456.15016	0.19865
1454.22149	0.19916
1452.29281	0.19951
1450.36414	0.19957
1448.43546	0.19957
1446.50678	0.19972
1444.57811	0.19996
1442.64943	0.20013
1440.72076	0.20014
1438.79208	0.19997
1436.86341	0.19988
1434.93473	0.20018
1433.00605	0.20057
1431.07738	0.20072
1429.14870	0.20084
1427.22003	0.20094
1425.29135	0.20089
1423.36268	0.20080
1421.43400	0.20062
1419.50532	0.20038
1417.57665	0.20051
1415.64797	0.20094
1413.71930	0.20122
1411.79062	0.20131
1409.86195	0.20134
1407.93327	0.20124
1406.00459	0.20106
1404.07592	0.20103
1402.14724	0.20111
1400.21857	0.20101
1398.28989	0.20080
1396.36122	0.20067
1394.43254	0.20069
1392.50386	0.20084
1390.57519	0.20085
1388.64651	0.20051
1386.71784	0.20007
1384.78916	0.19993
1382.86049	0.20007
1380.93181	0.20020
1379.00313	0.20017
1377.07446	0.19996
1375.14578	0.19976
1373.21711	0.19978
1371.28843	0.19996
1369.35976	0.20008
1367.43108	0.20008
1365.50240	0.19985
1363.57373	0.19957
1361.64505	0.19963
1359.71638	0.19992
1357.78770	0.20008
1355.85903	0.20007
1353.93035	0.20012
1352.00167	0.20025
1350.07300	0.20035
1348.14432	0.20042
1346.21565	0.20051
1344.28697	0.20057
1342.35830	0.20046
1340.42962	0.20023
1338.50094	0.20009
1336.57227	0.20013
1334.64359	0.20021
1332.71492	0.20021
1330.78624	0.20012
1328.85757	0.19996
1326.92889	0.19978
1325.00021	0.19963
1323.07154	0.19950
1321.14286	0.19930
1319.21419	0.19907
1317.28551	0.19887
1315.35684	0.19870
1313.42816	0.19853
1311.49948	0.19838
1309.57081	0.19821
1307.64213	0.19801
1305.71346	0.19783
1303.78478	0.19762
1301.85611	0.19735
1299.92743	0.19708
1297.99875	0.19690
1296.07008	0.19675
1294.14140	0.19660
1292.21273	0.19644
1290.28405	0.19623
1288.35538	0.19603
1286.42670	0.19584
1284.49802	0.19565
1282.56935	0.19543
1280.64067	0.19519
1278.71200	0.19492
1276.78332	0.19458
1274.85465	0.19411
1272.92597	0.19355
1270.99729	0.19287
1269.06862	0.19206
1267.13994	0.19119
1265.21127	0.19036
1263.28259	0.18973
1261.35392	0.18947
1259.42524	0.18954
1257.49656	0.18974
1255.56789	0.18988
1253.63921	0.18989
1251.71054	0.18977
1249.78186	0.18955
1247.85319	0.18923
1245.92451	0.18886
1243.99583	0.18851
1242.06716	0.18813
1240.13848	0.18765
1238.20981	0.18711
1236.28113	0.18664
1234.35246	0.18619
1232.42378	0.18563
1230.49510	0.18498
1228.56643	0.18437
1226.63775	0.18384
1224.70908	0.18335
1222.78040	0.18287
1220.85173	0.18240
1218.92305	0.18189
1216.99437	0.18133
1215.06570	0.18077
1213.13702	0.18025
1211.20835	0.17976
1209.27967	0.17923
1207.35100	0.17867
1205.42232	0.17810
1203.49364	0.17749
1201.56497	0.17684
1199.63629	0.17622
1197.70762	0.17563
1195.77894	0.17504
1193.85027	0.17442
1191.92159	0.17374
1189.99291	0.17301
1188.06424	0.17228
1186.13556	0.17158
1184.20689	0.17091
1182.27821	0.17016
1180.34954	0.16930
1178.42086	0.16838
1176.49218	0.16745
1174.56351	0.16655
1172.63483	0.16572
1170.70616	0.16493
1168.77748	0.16410
1166.84881	0.16323
1164.92013	0.16238
1162.99145	0.16154
1161.06278	0.16072
1159.13410	0.15993
1157.20543	0.15916
1155.27675	0.15837
1153.34808	0.15759
1151.41940	0.15675
1149.49072	0.15589
1147.56205	0.15508
1145.63337	0.15432
1143.70470	0.15352
1141.77602	0.15263
1139.84735	0.15167
1137.91867	0.15061
1135.98999	0.14939
1134.06132	0.14800
1132.13264	0.14642
1130.20397	0.14462
1128.27529	0.14262
1126.34662	0.14045
1124.41794	0.13811
1122.48926	0.13567
1120.56059	0.13332
1118.63191	0.13120
1116.70324	0.12925
1114.77456	0.12742
1112.84589	0.12578
1110.91721	0.12443
1108.98853	0.12339
1107.05986	0.12270
1105.13118	0.12235
1103.20251	0.12223
1101.27383	0.12234
1099.34516	0.12276
1097.41648	0.12342
1095.48780	0.12413
1093.55913	0.12483
1091.63045	0.12561
1089.70178	0.12643
1087.77310	0.12718
1085.84443	0.12784
1083.91575	0.12841
1081.98707	0.12883
1080.05840	0.12906
1078.12972	0.12920
1076.20105	0.12934
1074.27237	0.12952
1072.34370	0.12971
1070.41502	0.12984
1068.48634	0.12993
1066.55767	0.13006
1064.62899	0.13024
1062.70032	0.13048
1060.77164	0.13075
1058.84297	0.13100
1056.91429	0.13121
1054.98561	0.13144
1053.05694	0.13175
1051.12826	0.13207
1049.19959	0.13239
1047.27091	0.13276
1045.34224	0.13318
1043.41356	0.13362
1041.48488	0.13405
1039.55621	0.13446
1037.62753	0.13487
1035.69886	0.13529
1033.77018	0.13568
1031.84151	0.13603
1029.91283	0.13633
1027.98415	0.13665
1026.05548	0.13707
1024.12680	0.13745
1022.19813	0.13775
1020.26945	0.13814
1018.34078	0.13864
1016.41210	0.13914
1014.48342	0.13959
1012.55475	0.14006
1010.62607	0.14063
1008.69740	0.14127
1006.76872	0.14186
1004.84005	0.14239
1002.91137	0.14287
1000.98269	0.14329
999.05402	0.14357
997.12534	0.14372
995.19667	0.14384
993.26799	0.14398
991.33932	0.14409
989.41064	0.14415
987.48196	0.14421
985.55329	0.14424
983.62461	0.14421
981.69594	0.14417
979.76726	0.14415
977.83859	0.14403
975.90991	0.14379
973.98123	0.14355
972.05256	0.14339
970.12388	0.14330
968.19521	0.14319
966.26653	0.14299
964.33786	0.14274
962.40918	0.14250
960.48050	0.14226
958.55183	0.14210
956.62315	0.14207
954.69448	0.14201
952.76580	0.14182
950.83713	0.14158
948.90845	0.14139
946.97977	0.14116
945.05110	0.14081
943.12242	0.14042
941.19375	0.14008
939.26507	0.13972
937.33640	0.13933
935.40772	0.13893
933.47904	0.13851
931.55037	0.13802
929.62169	0.13746
927.69302	0.13692
925.76434	0.13638
923.83567	0.13585
921.90699	0.13528
919.97831	0.13461
918.04964	0.13387
916.12096	0.13318
914.19229	0.13254
912.26361	0.13184
910.33494	0.13110
908.40626	0.13040
906.47758	0.12974
904.54891	0.12911
902.62023	0.12851
900.69156	0.12796
898.76288	0.12743
896.83421	0.12685
894.90553	0.12627
892.97685	0.12579
891.04818	0.12537
889.11950	0.12489
887.19083	0.12440
885.26215	0.12400
883.33348	0.12368
881.40480	0.12344
879.47612	0.12317
877.54745	0.12280
875.61877	0.12245
873.69010	0.12218
871.76142	0.12193
869.83275	0.12169
867.90407	0.12152
865.97539	0.12136
864.04672	0.12120
862.11804	0.12110
860.18937	0.12109
858.26069	0.12105
856.33202	0.12087
854.40334	0.12064
852.47466	0.12041
850.54599	0.12015
848.61731	0.11983
846.68864	0.11951
844.75996	0.11925
842.83129	0.11901
840.90261	0.11871
838.97394	0.11835
837.04526	0.11795
835.11658	0.11740
833.18791	0.11660
831.25923	0.11561
829.33056	0.11456
827.40188	0.11357
825.47321	0.11264
823.54453	0.11175
821.61585	0.11095
819.68718	0.11030
817.75850	0.10978
815.82983	0.10939
813.90115	0.10911
811.97248	0.10890
810.04380	0.10869
808.11512	0.10844
806.18645	0.10818
804.25777	0.10804
802.32910	0.10800
800.40042	0.10783
798.47175	0.10738
796.54307	0.10679
794.61439	0.10627
792.68572	0.10583
790.75704	0.10548
788.82837	0.10521
786.89969	0.10496
784.97102	0.10471
783.04234	0.10447
781.11366	0.10427
779.18499	0.10402
777.25631	0.10367
775.32764	0.10332
773.39896	0.10301
771.47029	0.10273
769.54161	0.10243
767.61293	0.10203
765.68426	0.10153
763.75558	0.10101
761.82691	0.10056
759.89823	0.10015
757.96956	0.09973
756.04088	0.09922
754.11220	0.09859
752.18353	0.09792
750.25485	0.09727
748.32618	0.09658
746.39750	0.09580
744.46883	0.09487
742.54015	0.09385
740.61147	0.09299
738.68280	0.09250
736.75412	0.09236
734.82545	0.09239
732.89677	0.09243
730.96810	0.09245
729.03942	0.09251
727.11074	0.09261
725.18207	0.09274
723.25339	0.09286
721.32472	0.09298
719.39604	0.09315
717.46737	0.09342
715.53869	0.09379
713.61001	0.09425
711.68134	0.09466
709.75266	0.09492
707.82399	0.09505
705.89531	0.09502
703.96664	0.09482
702.03796	0.09449
700.10928	0.09409
698.18061	0.09364
696.25193	0.09312
694.32326	0.09251
692.39458	0.09184
690.46591	0.09119
688.53723	0.09064
686.60855	0.09017
684.67988	0.08978
682.75120	0.08940
680.82253	0.08893
678.89385	0.08833
676.96518	0.08765
675.03650	0.08689
673.10782	0.08619
671.17915	0.08552
669.25047	0.08471
667.32180	0.08382
665.39312	0.08300
663.46445	0.08223
661.53577	0.08155
659.60709	0.08092
657.67842	0.08020
655.74974	0.07938
653.82107	0.07849
651.89239	0.07755
649.96372	0.07662
648.03504	0.07569
646.10636	0.07479
644.17769	0.07394
642.24901	0.07308
640.32034	0.07207
638.39166	0.07096
636.46299	0.06993
634.53431	0.06892
632.60563	0.06754
630.67696	0.06522
628.74828	0.06168
626.81961	0.05723
624.89093	0.05281
622.96226	0.04938
621.03358	0.04716
619.10490	0.04590
617.17623	0.04510
615.24755	0.04426
613.31888	0.04324
611.39020	0.04226
609.46153	0.04173
607.53285	0.04178
605.60417	0.04213
603.67550	0.04267
601.74682	0.04347
599.81815	0.04450
597.88947	0.04545
595.96080	0.04614
594.03212	0.04662
592.10344	0.04691
590.17477	0.04699
588.24609	0.04686
586.31742	0.04664
584.38874	0.04643
582.46007	0.04622
580.53139	0.04586
578.60271	0.04535
576.67404	0.04479
574.74536	0.04419
572.81669	0.04356
570.88801	0.04292
568.95934	0.04229
567.03066	0.04174
565.10198	0.04138
563.17331	0.04123
561.24463	0.04109
559.31596	0.04081
557.38728	0.04043
555.45861	0.04010
553.52993	0.03985
551.60125	0.03968
549.67258	0.03956
547.74390	0.03946
545.81523	0.03934
543.88655	0.03925
541.95788	0.03920
540.02920	0.03906
538.10052	0.03887
536.17185	0.03868
534.24317	0.03842
532.31450	0.03811
530.38582	0.03784
528.45715	0.03762
526.52847	0.03736
524.59979	0.03704
522.67112	0.03664
520.74244	0.03615
518.81377	0.03551
516.88509	0.03477
514.95642	0.03418
513.02774	0.03387
511.09906	0.03372
509.17039	0.03357
507.24171	0.03340
505.31304	0.03314
503.38436	0.03274
501.45569	0.03230
499.52701	0.03191
497.59833	0.03151
495.66966	0.03096
493.74098	0.03026
491.81231	0.02963
489.88363	0.02922
487.95496	0.02887
486.02628	0.02833
484.09760	0.02768
482.16893	0.02710
480.24025	0.02657
478.31158	0.02593
476.38290	0.02524
474.45423	0.02466
472.52555	0.02421
470.59687	0.02379
468.66820	0.02339
466.73952	0.02310
464.81085	0.02294
462.88217	0.02277
460.95350	0.02257
459.02482	0.02241
457.09614	0.02235
455.16747	0.02238
453.23879	0.02247
451.31012	0.02249
449.38144	0.02240
447.45277	0.02216
445.52409	0.02187
443.59541	0.02168
441.66674	0.02160
439.73806	0.02137
437.80939	0.02087
435.88071	0.02031
433.95204	0.01981
432.02336	0.01931
430.09468	0.01873
428.16601	0.01812
426.23733	0.01756
424.30866	0.01708
422.37998	0.01658
420.45131	0.01587
418.52263	0.01501
416.59395	0.01425
414.66528	0.01358
412.73660	0.01293
410.80793	0.01231
408.87925	0.01173
406.95058	0.01115
405.02190	0.01054
403.09322	0.00994
401.16455	0.00935
399.23587	0.00879
397.30720	0.00828
395.37852	0.00777
393.44985	0.00726
391.52117	0.00673
389.59249	0.00626
387.66382	0.00590
385.73514	0.00562
383.80647	0.00526
381.87779	0.00482
379.94912	0.00438
378.02044	0.00394
376.09176	0.00351
374.16309	0.00314
372.23441	0.00293
370.30574	0.00281
368.37706	0.00259
