7496.76250	0.00118
7494.83382	0.00118
7492.90514	0.00118
7490.97647	0.00118
7489.04779	0.00119
7487.11912	0.00120
7485.19044	0.00120
7483.26177	0.00119
7481.33309	0.00118
7479.40441	0.00117
7477.47574	0.00118
7475.54706	0.00120
7473.61839	0.00121
7471.68971	0.00121
7469.76104	0.00122
7467.83236	0.00123
7465.90368	0.00124
7463.97501	0.00124
7462.04633	0.00124
7460.11766	0.00123
7458.18898	0.00123
7456.26031	0.00122
7454.33163	0.00123
7452.40295	0.00124
7450.47428	0.00126
7448.54560	0.00127
7446.61693	0.00126
7444.68825	0.00125
7442.75958	0.00125
7440.83090	0.00126
7438.90222	0.00126
7436.97355	0.00127
7435.04487	0.00127
7433.11620	0.00127
7431.18752	0.00126
7429.25885	0.00127
7427.33017	0.00126
7425.40149	0.00127
7423.47282	0.00128
7421.54414	0.00129
7419.61547	0.00130
7417.68679	0.00130
7415.75812	0.00131
7413.82944	0.00133
7411.90076	0.00132
7409.97209	0.00132
7408.04341	0.00132
7406.11474	0.00133
7404.18606	0.00133
7402.25739	0.00134
7400.32871	0.00134
7398.40003	0.00134
7396.47136	0.00135
7394.54268	0.00136
7392.61401	0.00137
7390.68533	0.00136
7388.75666	0.00135
7386.82798	0.00135
7384.89930	0.00136
7382.97063	0.00137
7381.04195	0.00137
7379.11328	0.00137
7377.18460	0.00137
7375.25593	0.00137
7373.32725	0.00137
7371.39857	0.00137
7369.46990	0.00139
7367.54122	0.00140
7365.61255	0.00139
7363.68387	0.00139
7361.75520	0.00138
7359.82652	0.00138
7357.89784	0.00139
7355.96917	0.00141
7354.04049	0.00142
7352.11182	0.00142
7350.18314	0.00142
7348.25447	0.00143
7346.32579	0.00143
7344.39711	0.00143
7342.46844	0.00143
7340.53976	0.00143
7338.61109	0.00144
7336.68241	0.00145
7334.75374	0.00145
7332.82506	0.00144
7330.89638	0.00145
7328.96771	0.00145
7327.03903	0.00145
7325.11036	0.00145
7323.18168	0.00146
7321.25301	0.00147
7319.32433	0.00148
7317.39565	0.00149
7315.46698	0.00150
7313.53830	0.00150
7311.60963	0.00150
7309.68095	0.00150
7307.75228	0.00151
7305.82360	0.00151
7303.89492	0.00151
7301.96625	0.00151
7300.03757	0.00152
7298.10890	0.00152
7296.18022	0.00153
7294.25155	0.00154
7292.32287	0.00154
7290.39419	0.00154
7288.46552	0.00155
7286.53684	0.00155
7284.60817	0.00155
7282.67949	0.00154
7280.75082	0.00153
7278.82214	0.00154
7276.89346	0.00155
7274.96479	0.00156
7273.03611	0.00156
7271.10744	0.00156
7269.17876	0.00157
7267.25009	0.00158
7265.32141	0.00158
7263.39273	0.00157
7261.46406	0.00157
7259.53538	0.00159
7257.60671	0.00159
7255.67803	0.00159
7253.74936	0.00158
7251.82068	0.00159
7249.89200	0.00159
7247.96333	0.00160
7246.03465	0.00161
7244.10598	0.00163
7242.17730	0.00165
7240.24863	0.00166
7238.31995	0.00166
7236.39127	0.00164
7234.46260	0.00163
7232.53392	0.00163
7230.60525	0.00165
7228.67657	0.00164
7226.74790	0.00162
7224.81922	0.00162
7222.89054	0.00163
7220.96187	0.00164
7219.03319	0.00165
7217.10452	0.00166
7215.17584	0.00167
7213.24717	0.00167
7211.31849	0.00168
7209.38981	0.00167
7207.46114	0.00167
7205.53246	0.00169
7203.60379	0.00171
7201.67511	0.00171
7199.74644	0.00170
7197.81776	0.00169
7195.88908	0.00170
7193.96041	0.00171
7192.03173	0.00171
7190.10306	0.00172
7188.17438	0.00172
7186.24571	0.00172
7184.31703	0.00173
7182.38835	0.00173
7180.45968	0.00174
7178.53100	0.00174
7176.60233	0.00174
7174.67365	0.00175
7172.74498	0.00175
7170.81630	0.00176
7168.88762	0.00177
7166.95895	0.00178
7165.03027	0.00179
7163.10160	0.00180
7161.17292	0.00178
7159.24425	0.00178
7157.31557	0.00179
7155.38689	0.00180
7153.45822	0.00181
7151.52954	0.00182
7149.60087	0.00181
7147.67219	0.00180
7145.74352	0.00179
7143.81484	0.00179
7141.88616	0.00179
7139.95749	0.00181
7138.02881	0.00182
7136.10014	0.00184
7134.17146	0.00185
7132.24279	0.00185
7130.31411	0.00184
7128.38543	0.00183
7126.45676	0.00185
7124.52808	0.00186
7122.59941	0.00187
7120.67073	0.00187
7118.74206	0.00188
7116.81338	0.00188
7114.88470	0.00189
7112.95603	0.00189
7111.02735	0.00189
7109.09868	0.00189
7107.17000	0.00188
7105.24133	0.00188
7103.31265	0.00189
7101.38397	0.00189
7099.45530	0.00190
7097.52662	0.00192
7095.59795	0.00192
7093.66927	0.00192
7091.74060	0.00193
7089.81192	0.00195
7087.88324	0.00196
7085.95457	0.00195
7084.02589	0.00194
7082.09722	0.00195
7080.16854	0.00195
7078.23987	0.00194
7076.31119	0.00195
7074.38251	0.00196
7072.45384	0.00195
7070.52516	0.00195
7068.59649	0.00195
7066.66781	0.00197
7064.73914	0.00199
7062.81046	0.00200
7060.88178	0.00199
7058.95311	0.00198
7057.02443	0.00199
7055.09576	0.00200
7053.16708	0.00202
7051.23841	0.00202
7049.30973	0.00202
7047.38105	0.00200
7045.45238	0.00202
7043.52370	0.00203
7041.59503	0.00204
7039.66635	0.00202
7037.73768	0.00202
7035.80900	0.00204
7033.88032	0.00207
7031.95165	0.00208
7030.02297	0.00207
7028.09430	0.00206
7026.16562	0.00205
7024.23695	0.00204
7022.30827	0.00204
7020.37959	0.00205
7018.45092	0.00208
7016.52224	0.00209
7014.59357	0.00208
7012.66489	0.00208
7010.73622	0.00209
7008.80754	0.00210
7006.87886	0.00211
7004.95019	0.00213
7003.02151	0.00214
7001.09284	0.00215
6999.16416	0.00216
6997.23549	0.00215
6995.30681	0.00213
6993.37813	0.00213
6991.44946	0.00214
6989.52078	0.00214
6987.59211	0.00214
6985.66343	0.00215
6983.73476	0.00216
6981.80608	0.00217
6979.87740	0.00217
6977.94873	0.00218
6976.02005	0.00218
6974.09138	0.00217
6972.16270	0.00217
6970.23403	0.00219
6968.30535	0.00221
6966.37667	0.00222
6964.44800	0.00222
6962.51932	0.00221
6960.59065	0.00220
6958.66197	0.00221
6956.73330	0.00222
6954.80462	0.00223
6952.87594	0.00224
6950.94727	0.00224
6949.01859	0.00225
6947.08992	0.00226
6945.16124	0.00228
6943.23257	0.00227
6941.30389	0.00227
6939.37521	0.00227
6937.44654	0.00228
6935.51786	0.00228
6933.58919	0.00229
6931.66051	0.00229
6929.73184	0.00229
6927.80316	0.00229
6925.87448	0.00230
6923.94581	0.00231
6922.01713	0.00232
6920.08846	0.00232
6918.15978	0.00232
6916.23111	0.00233
6914.30243	0.00235
6912.37375	0.00235
6910.44508	0.00235
6908.51640	0.00235
6906.58773	0.00236
6904.65905	0.00236
6902.73038	0.00236
6900.80170	0.00236
6898.87302	0.00237
6896.94435	0.00238
6895.01567	0.00239
6893.08700	0.00240
6891.15832	0.00240
6889.22965	0.00240
6887.30097	0.00241
6885.37229	0.00242
6883.44362	0.00243
6881.51494	0.00243
6879.58627	0.00242
6877.65759	0.00243
6875.72892	0.00244
6873.80024	0.00245
6871.87156	0.00245
6869.94289	0.00246
6868.01421	0.00246
6866.08554	0.00245
6864.15686	0.00245
6862.22819	0.00245
6860.29951	0.00245
6858.37083	0.00246
6856.44216	0.00246
6854.51348	0.00247
6852.58481	0.00248
6850.65613	0.00250
6848.72746	0.00251
6846.79878	0.00252
6844.87010	0.00252
6842.94143	0.00252
6841.01275	0.00252
6839.08408	0.00252
6837.15540	0.00252
6835.22673	0.00253
6833.29805	0.00254
6831.36937	0.00255
6829.44070	0.00257
6827.51202	0.00257
6825.58335	0.00257
6823.65467	0.00258
6821.72600	0.00258
6819.79732	0.00258
6817.86864	0.00257
6815.93997	0.00257
6814.01129	0.00257
6812.08262	0.00259
6810.15394	0.00259
6808.22527	0.00259
6806.29659	0.00260
6804.36791	0.00261
6802.43924	0.00262
6800.51056	0.00263
6798.58189	0.00263
6796.65321	0.00263
6794.72454	0.00263
6792.79586	0.00264
6790.86718	0.00265
6788.93851	0.00265
6787.00983	0.00266
6785.08116	0.00267
6783.15248	0.00268
6781.22381	0.00269
6779.29513	0.00269
6777.36645	0.00269
6775.43778	0.00269
6773.50910	0.00270
6771.58043	0.00271
6769.65175	0.00271
6767.72308	0.00272
6765.79440	0.00273
6763.86572	0.00275
6761.93705	0.00276
6760.00837	0.00276
6758.07970	0.00275
6756.15102	0.00274
6754.22235	0.00274
6752.29367	0.00275
6750.36499	0.00277
6748.43632	0.00279
6746.50764	0.00280
6744.57897	0.00281
6742.65029	0.00280
6740.72162	0.00280
6738.79294	0.00280
6736.86426	0.00281
6734.93559	0.00284
6733.00691	0.00286
6731.07824	0.00286
6729.14956	0.00286
6727.22089	0.00287
6725.29221	0.00287
6723.36353	0.00287
6721.43486	0.00287
6719.50618	0.00288
6717.57751	0.00290
6715.64883	0.00290
6713.72016	0.00291
6711.79148	0.00291
6709.86280	0.00292
6707.93413	0.00291
6706.00545	0.00291
6704.07678	0.00292
6702.14810	0.00293
6700.21943	0.00293
6698.29075	0.00294
6696.36207	0.00294
6694.43340	0.00294
6692.50472	0.00293
6690.57605	0.00295
6688.64737	0.00297
6686.71870	0.00298
6684.79002	0.00298
6682.86134	0.00297
6680.93267	0.00298
6679.00399	0.00300
6677.07532	0.00300
6675.14664	0.00300
6673.21797	0.00301
6671.28929	0.00303
6669.36061	0.00304
6667.43194	0.00304
6665.50326	0.00304
6663.57459	0.00305
6661.64591	0.00307
6659.71724	0.00309
6657.78856	0.00310
6655.85988	0.00310
6653.93121	0.00311
6652.00253	0.00310
6650.07386	0.00308
6648.14518	0.00308
6646.21651	0.00309
6644.28783	0.00311
6642.35915	0.00311
6640.43048	0.00311
6638.50180	0.00312
6636.57313	0.00314
6634.64445	0.00315
6632.71578	0.00316
6630.78710	0.00316
6628.85842	0.00316
6626.92975	0.00317
6625.00107	0.00317
6623.07240	0.00318
6621.14372	0.00319
6619.21505	0.00321
6617.28637	0.00323
6615.35769	0.00323
6613.42902	0.00323
6611.50034	0.00321
6609.57167	0.00322
6607.64299	0.00324
6605.71432	0.00327
6603.78564	0.00328
6601.85696	0.00327
6599.92829	0.00326
6597.99961	0.00325
6596.07094	0.00326
6594.14226	0.00328
6592.21359	0.00330
6590.28491	0.00330
6588.35623	0.00331
6586.42756	0.00333
6584.49888	0.00334
6582.57021	0.00334
6580.64153	0.00334
6578.71286	0.00333
6576.78418	0.00333
6574.85550	0.00332
6572.92683	0.00333
6570.99815	0.00334
6569.06948	0.00337
6567.14080	0.00339
6565.21213	0.00340
6563.28345	0.00341
6561.35477	0.00341
6559.42610	0.00341
6557.49742	0.00342
6555.56875	0.00342
6553.64007	0.00343
6551.71140	0.00343
6549.78272	0.00342
6547.85404	0.00342
6545.92537	0.00344
6543.99669	0.00346
6542.06802	0.00347
6540.13934	0.00347
6538.21067	0.00348
6536.28199	0.00349
6534.35331	0.00350
6532.42464	0.00351
6530.49596	0.00351
6528.56729	0.00352
6526.63861	0.00353
6524.70994	0.00355
6522.78126	0.00356
6520.85258	0.00356
6518.92391	0.00356
6516.99523	0.00355
6515.06656	0.00354
6513.13788	0.00354
6511.20921	0.00355
6509.28053	0.00358
6507.35185	0.00361
6505.42318	0.00362
6503.49450	0.00362
6501.56583	0.00361
6499.63715	0.00362
6497.70848	0.00364
6495.77980	0.00365
6493.85112	0.00366
6491.92245	0.00367
6489.99377	0.00368
6488.06510	0.00369
6486.13642	0.00369
6484.20775	0.00369
6482.27907	0.00371
6480.35039	0.00372
6478.42172	0.00373
6476.49304	0.00374
6474.56437	0.00374
6472.63569	0.00373
6470.70702	0.00373
6468.77834	0.00374
6466.84966	0.00377
6464.92099	0.00378
6462.99231	0.00378
6461.06364	0.00379
6459.13496	0.00380
6457.20629	0.00383
6455.27761	0.00384
6453.34893	0.00385
6451.42026	0.00386
6449.49158	0.00388
6447.56291	0.00388
6445.63423	0.00386
6443.70556	0.00386
6441.77688	0.00388
6439.84820	0.00390
6437.91953	0.00389
6435.99085	0.00388
6434.06218	0.00388
6432.13350	0.00389
6430.20483	0.00392
6428.27615	0.00393
6426.34747	0.00393
6424.41880	0.00391
6422.49012	0.00390
6420.56145	0.00391
6418.63277	0.00392
6416.70410	0.00395
6414.77542	0.00397
6412.84674	0.00397
6410.91807	0.00396
6408.98939	0.00398
6407.06072	0.00400
6405.13204	0.00402
6403.20337	0.00403
6401.27469	0.00404
6399.34601	0.00405
6397.41734	0.00407
6395.48866	0.00409
6393.55999	0.00409
6391.63131	0.00408
6389.70264	0.00409
6387.77396	0.00411
6385.84528	0.00412
6383.91661	0.00413
6381.98793	0.00413
6380.05926	0.00412
6378.13058	0.00413
6376.20191	0.00415
6374.27323	0.00417
6372.34455	0.00417
6370.41588	0.00418
6368.48720	0.00420
6366.55853	0.00422
6364.62985	0.00422
6362.70118	0.00421
6360.77250	0.00420
6358.84382	0.00420
6356.91515	0.00422
6354.98647	0.00425
6353.05780	0.00426
6351.12912	0.00426
6349.20045	0.00426
6347.27177	0.00428
6345.34309	0.00428
6343.41442	0.00428
6341.48574	0.00429
6339.55707	0.00431
6337.62839	0.00432
6335.69972	0.00434
6333.77104	0.00436
6331.84236	0.00436
6329.91369	0.00436
6327.98501	0.00437
6326.05634	0.00438
6324.12766	0.00439
6322.19899	0.00440
6320.27031	0.00441
6318.34163	0.00443
6316.41296	0.00445
6314.48428	0.00446
6312.55561	0.00448
6310.62693	0.00448
6308.69826	0.00447
6306.76958	0.00447
6304.84090	0.00449
6302.91223	0.00450
6300.98355	0.00450
6299.05488	0.00450
6297.12620	0.00451
6295.19753	0.00453
6293.26885	0.00455
6291.34017	0.00455
6289.41150	0.00456
6287.48282	0.00458
6285.55415	0.00459
6283.62547	0.00460
6281.69680	0.00461
6279.76812	0.00461
6277.83944	0.00461
6275.91077	0.00463
6273.98209	0.00464
6272.05342	0.00464
6270.12474	0.00464
6268.19607	0.00466
6266.26739	0.00468
6264.33871	0.00468
6262.41004	0.00469
6260.48136	0.00471
6258.55269	0.00471
6256.62401	0.00472
6254.69534	0.00472
6252.76666	0.00473
6250.83798	0.00473
6248.90931	0.00475
6246.98063	0.00477
6245.05196	0.00478
6243.12328	0.00478
6241.19461	0.00481
6239.26593	0.00484
6237.33725	0.00485
6235.40858	0.00484
6233.47990	0.00484
6231.55123	0.00485
6229.62255	0.00487
6227.69388	0.00488
6225.76520	0.00489
6223.83652	0.00489
6221.90785	0.00489
6219.97917	0.00489
6218.05050	0.00492
6216.12182	0.00494
6214.19315	0.00497
6212.26447	0.00499
6210.33579	0.00500
6208.40712	0.00500
6206.47844	0.00502
6204.54977	0.00505
6202.62109	0.00505
6200.69242	0.00502
6198.76374	0.00502
6196.83506	0.00504
6194.90639	0.00506
6192.97771	0.00506
6191.04904	0.00507
6189.12036	0.00509
6187.19169	0.00511
6185.26301	0.00512
6183.33433	0.00512
6181.40566	0.00512
6179.47698	0.00513
6177.54831	0.00517
6175.61963	0.00519
6173.69096	0.00519
6171.76228	0.00518
6169.83360	0.00518
6167.90493	0.00518
6165.97625	0.00519
6164.04758	0.00522
6162.11890	0.00526
6160.19023	0.00528
6158.26155	0.00529
6156.33287	0.00529
6154.40420	0.00529
6152.47552	0.00530
6150.54685	0.00529
6148.61817	0.00528
6146.68950	0.00529
6144.76082	0.00531
6142.83214	0.00534
6140.90347	0.00536
6138.97479	0.00537
6137.04612	0.00539
6135.11744	0.00540
6133.18877	0.00540
6131.26009	0.00540
6129.33141	0.00541
6127.40274	0.00542
6125.47406	0.00542
6123.54539	0.00543
6121.61671	0.00545
6119.68804	0.00547
6117.75936	0.00548
6115.83068	0.00550
6113.90201	0.00552
6111.97333	0.00555
6110.04466	0.00556
6108.11598	0.00556
6106.18731	0.00556
6104.25863	0.00557
6102.32995	0.00558
6100.40128	0.00558
6098.47260	0.00558
6096.54393	0.00561
6094.61525	0.00565
6092.68658	0.00566
6090.75790	0.00566
6088.82922	0.00566
6086.90055	0.00566
6084.97187	0.00568
6083.04320	0.00570
6081.11452	0.00572
6079.18585	0.00573
6077.25717	0.00573
6075.32849	0.00574
6073.39982	0.00574
6071.47114	0.00575
6069.54247	0.00576
6067.61379	0.00578
6065.68512	0.00579
6063.75644	0.00580
6061.82776	0.00582
6059.89909	0.00584
6057.97041	0.00586
6056.04174	0.00587
6054.11306	0.00588
6052.18439	0.00588
6050.25571	0.00590
6048.32703	0.00593
6046.39836	0.00595
6044.46968	0.00595
6042.54101	0.00594
6040.61233	0.00596
6038.68366	0.00598
6036.75498	0.00600
6034.82630	0.00602
6032.89763	0.00604
6030.96895	0.00604
6029.04028	0.00603
6027.11160	0.00602
6025.18293	0.00604
6023.25425	0.00607
6021.32557	0.00609
6019.39690	0.00611
6017.46822	0.00613
6015.53955	0.00614
6013.61087	0.00615
6011.68220	0.00615
6009.75352	0.00615
6007.82484	0.00615
6005.89617	0.00616
6003.96749	0.00618
6002.03882	0.00621
6000.11014	0.00623
5998.18147	0.00624
5996.25279	0.00624
5994.32411	0.00627
5992.39544	0.00629
5990.46676	0.00630
5988.53809	0.00630
5986.60941	0.00632
5984.68074	0.00634
5982.75206	0.00636
5980.82338	0.00638
5978.89471	0.00638
5976.96603	0.00638
5975.03736	0.00640
5973.10868	0.00643
5971.18001	0.00644
5969.25133	0.00645
5967.32265	0.00646
5965.39398	0.00647
5963.46530	0.00648
5961.53663	0.00648
5959.60795	0.00649
5957.67928	0.00652
5955.75060	0.00653
5953.82192	0.00653
5951.89325	0.00653
5949.96457	0.00656
5948.03590	0.00657
5946.10722	0.00659
5944.17855	0.00661
5942.24987	0.00663
5940.32119	0.00665
5938.39252	0.00665
5936.46384	0.00666
5934.53517	0.00668
5932.60649	0.00669
5930.67782	0.00670
5928.74914	0.00671
5926.82046	0.00673
5924.89179	0.00674
5922.96311	0.00675
5921.03444	0.00675
5919.10576	0.00677
5917.17709	0.00680
5915.24841	0.00682
5913.31973	0.00684
5911.39106	0.00685
5909.46238	0.00686
5907.53371	0.00686
5905.60503	0.00688
5903.67636	0.00692
5901.74768	0.00694
5899.81900	0.00696
5897.89033	0.00698
5895.96165	0.00698
5894.03298	0.00698
5892.10430	0.00698
5890.17563	0.00699
5888.24695	0.00701
5886.31827	0.00704
5884.38960	0.00704
5882.46092	0.00704
5880.53225	0.00706
5878.60357	0.00707
5876.67490	0.00709
5874.74622	0.00711
5872.81755	0.00712
5870.88887	0.00713
5868.96019	0.00714
5867.03152	0.00715
5865.10284	0.00717
5863.17417	0.00720
5861.24549	0.00723
5859.31682	0.00724
5857.38814	0.00723
5855.45946	0.00723
5853.53079	0.00725
5851.60211	0.00728
5849.67344	0.00729
5847.74476	0.00729
5845.81609	0.00730
5843.88741	0.00734
5841.95873	0.00738
5840.03006	0.00741
5838.10138	0.00741
5836.17271	0.00742
5834.24403	0.00743
5832.31536	0.00745
5830.38668	0.00747
5828.45800	0.00748
5826.52933	0.00750
5824.60065	0.00751
5822.67198	0.00752
5820.74330	0.00753
5818.81463	0.00755
5816.88595	0.00759
5814.95727	0.00761
5813.02860	0.00761
5811.09992	0.00761
5809.17125	0.00762
5807.24257	0.00764
5805.31390	0.00766
5803.38522	0.00769
5801.45654	0.00771
5799.52787	0.00772
5797.59919	0.00773
5795.67052	0.00774
5793.74184	0.00774
5791.81317	0.00776
5789.88449	0.00779
5787.95581	0.00781
5786.02714	0.00782
5784.09846	0.00783
5782.16979	0.00786
5780.24111	0.00788
5778.31244	0.00789
5776.38376	0.00790
5774.45508	0.00792
5772.52641	0.00794
5770.59773	0.00795
5768.66906	0.00797
5766.74038	0.00799
5764.81171	0.00800
5762.88303	0.00802
5760.95435	0.00804
5759.02568	0.00807
5757.09700	0.00810
5755.16833	0.00811
5753.23965	0.00809
5751.31098	0.00808
5749.38230	0.00809
5747.45362	0.00810
5745.52495	0.00814
5743.59627	0.00817
5741.66760	0.00818
5739.73892	0.00817
5737.81025	0.00818
5735.88157	0.00821
5733.95289	0.00826
5732.02422	0.00828
5730.09554	0.00829
5728.16687	0.00829
5726.23819	0.00830
5724.30952	0.00832
5722.38084	0.00834
5720.45216	0.00837
5718.52349	0.00840
5716.59481	0.00842
5714.66614	0.00842
5712.73746	0.00843
5710.80879	0.00846
5708.88011	0.00849
5706.95143	0.00851
5705.02276	0.00851
5703.09408	0.00852
5701.16541	0.00853
5699.23673	0.00854
5697.30806	0.00855
5695.37938	0.00858
5693.45070	0.00862
5691.52203	0.00866
5689.59335	0.00868
5687.66468	0.00867
5685.73600	0.00866
5683.80733	0.00868
5681.87865	0.00871
5679.94997	0.00872
5678.02130	0.00874
5676.09262	0.00877
5674.16395	0.00880
5672.23527	0.00881
5670.30660	0.00882
5668.37792	0.00883
5666.44924	0.00885
5664.52057	0.00887
5662.59189	0.00889
5660.66322	0.00891
5658.73454	0.00893
5656.80587	0.00896
5654.87719	0.00899
5652.94851	0.00899
5651.01984	0.00899
5649.09116	0.00899
5647.16249	0.00900
5645.23381	0.00902
5643.30514	0.00904
5641.37646	0.00904
5639.44778	0.00906
5637.51911	0.00908
5635.59043	0.00911
5633.66176	0.00913
5631.73308	0.00916
5629.80441	0.00919
5627.87573	0.00921
5625.94705	0.00922
5624.01838	0.00923
5622.08970	0.00925
5620.16103	0.00926
5618.23235	0.00927
5616.30368	0.00929
5614.37500	0.00930
5612.44632	0.00932
5610.51765	0.00934
5608.58897	0.00938
5606.66030	0.00940
5604.73162	0.00942
5602.80295	0.00945
5600.87427	0.00948
5598.94559	0.00948
5597.01692	0.00948
5595.08824	0.00950
5593.15957	0.00954
5591.23089	0.00957
5589.30222	0.00957
5587.37354	0.00957
5585.44486	0.00959
5583.51619	0.00963
5581.58751	0.00967
5579.65884	0.00969
5577.73016	0.00969
5575.80149	0.00969
5573.87281	0.00970
5571.94413	0.00971
5570.01546	0.00973
5568.08678	0.00976
5566.15811	0.00978
5564.22943	0.00980
5562.30076	0.00984
5560.37208	0.00985
5558.44340	0.00986
5556.51473	0.00988
5554.58605	0.00991
5552.65738	0.00992
5550.72870	0.00993
5548.80003	0.00995
5546.87135	0.00997
5544.94267	0.00999
5543.01400	0.01003
5541.08532	0.01007
5539.15665	0.01008
5537.22797	0.01008
5535.29930	0.01008
5533.37062	0.01010
5531.44194	0.01013
5529.51327	0.01015
5527.58459	0.01016
5525.65592	0.01019
5523.72724	0.01022
5521.79857	0.01024
5519.86989	0.01024
5517.94121	0.01025
5516.01254	0.01027
5514.08386	0.01029
5512.15519	0.01031
5510.22651	0.01032
5508.29784	0.01034
5506.36916	0.01038
5504.44048	0.01042
5502.51181	0.01045
5500.58313	0.01046
5498.65446	0.01049
5496.72578	0.01051
5494.79711	0.01051
5492.86843	0.01051
5490.93975	0.01053
5489.01108	0.01055
5487.08240	0.01057
5485.15373	0.01059
5483.22505	0.01061
5481.29638	0.01064
5479.36770	0.01067
5477.43902	0.01067
5475.51035	0.01069
5473.58167	0.01071
5471.65300	0.01072
5469.72432	0.01071
5467.79565	0.01071
5465.86697	0.01073
5463.93829	0.01079
5462.00962	0.01083
5460.08094	0.01085
5458.15227	0.01086
5456.22359	0.01089
5454.29492	0.01092
5452.36624	0.01096
5450.43756	0.01099
5448.50889	0.01099
5446.58021	0.01101
5444.65154	0.01102
5442.72286	0.01103
5440.79419	0.01106
5438.86551	0.01110
5436.93683	0.01113
5435.00816	0.01114
5433.07948	0.01114
5431.15081	0.01114
5429.22213	0.01116
5427.29346	0.01120
5425.36478	0.01124
5423.43610	0.01127
5421.50743	0.01129
5419.57875	0.01132
5417.65008	0.01135
5415.72140	0.01136
5413.79273	0.01137
5411.86405	0.01139
5409.93537	0.01141
5408.00670	0.01140
5406.07802	0.01142
5404.14935	0.01146
5402.22067	0.01149
5400.29200	0.01149
5398.36332	0.01149
5396.43464	0.01151
5394.50597	0.01154
5392.57729	0.01159
5390.64862	0.01161
5388.71994	0.01162
5386.79127	0.01163
5384.86259	0.01165
5382.93391	0.01168
5381.00524	0.01170
5379.07656	0.01171
5377.14789	0.01171
5375.21921	0.01172
5373.29054	0.01176
5371.36186	0.01181
5369.43318	0.01185
5367.50451	0.01187
5365.57583	0.01189
5363.64716	0.01192
5361.71848	0.01195
5359.78981	0.01195
5357.86113	0.01197
5355.93245	0.01200
5354.00378	0.01202
5352.07510	0.01203
5350.14643	0.01204
5348.21775	0.01206
5346.28908	0.01208
5344.36040	0.01209
5342.43172	0.01211
5340.50305	0.01214
5338.57437	0.01217
5336.64570	0.01220
5334.71702	0.01222
5332.78835	0.01225
5330.85967	0.01229
5328.93099	0.01232
5327.00232	0.01233
5325.07364	0.01234
5323.14497	0.01235
5321.21629	0.01237
5319.28762	0.01240
5317.35894	0.01243
5315.43026	0.01245
5313.50159	0.01246
5311.57291	0.01248
5309.64424	0.01250
5307.71556	0.01253
5305.78689	0.01255
5303.85821	0.01258
5301.92953	0.01260
5300.00086	0.01262
5298.07218	0.01265
5296.14351	0.01267
5294.21483	0.01269
5292.28616	0.01271
5290.35748	0.01273
5288.42880	0.01277
5286.50013	0.01280
5284.57145	0.01282
5282.64278	0.01282
5280.71410	0.01284
5278.78543	0.01287
5276.85675	0.01290
5274.92807	0.01294
5272.99940	0.01297
5271.07072	0.01299
5269.14205	0.01301
5267.21337	0.01301
5265.28470	0.01303
5263.35602	0.01307
5261.42734	0.01311
5259.49867	0.01312
5257.56999	0.01313
5255.64132	0.01314
5253.71264	0.01316
5251.78397	0.01320
5249.85529	0.01324
5247.92661	0.01327
5245.99794	0.01330
5244.06926	0.01332
5242.14059	0.01333
5240.21191	0.01333
5238.28324	0.01336
5236.35456	0.01341
5234.42588	0.01343
5232.49721	0.01345
5230.56853	0.01346
5228.63986	0.01348
5226.71118	0.01349
5224.78251	0.01350
5222.85383	0.01353
5220.92515	0.01357
5218.99648	0.01361
5217.06780	0.01361
5215.13913	0.01361
5213.21045	0.01363
5211.28178	0.01365
5209.35310	0.01369
5207.42442	0.01374
5205.49575	0.01380
5203.56707	0.01382
5201.63840	0.01383
5199.70972	0.01383
5197.78105	0.01387
5195.85237	0.01390
5193.92369	0.01391
5191.99502	0.01392
5190.06634	0.01394
5188.13767	0.01398
5186.20899	0.01399
5184.28032	0.01401
5182.35164	0.01404
5180.42296	0.01406
5178.49429	0.01408
5176.56561	0.01411
5174.63694	0.01417
5172.70826	0.01420
5170.77959	0.01421
5168.85091	0.01423
5166.92223	0.01428
5164.99356	0.01431
5163.06488	0.01432
5161.13621	0.01434
5159.20753	0.01437
5157.27886	0.01439
5155.35018	0.01440
5153.42150	0.01441
5151.49283	0.01444
5149.56415	0.01446
5147.63548	0.01449
5145.70680	0.01452
5143.77813	0.01455
5141.84945	0.01457
5139.92077	0.01459
5137.99210	0.01461
5136.06342	0.01463
5134.13475	0.01465
5132.20607	0.01467
5130.27740	0.01470
5128.34872	0.01474
5126.42004	0.01478
5124.49137	0.01480
5122.56269	0.01482
5120.63402	0.01484
5118.70534	0.01486
5116.77667	0.01488
5114.84799	0.01489
5112.91931	0.01491
5110.99064	0.01495
5109.06196	0.01497
5107.13329	0.01500
5105.20461	0.01504
5103.27594	0.01507
5101.34726	0.01508
5099.41858	0.01510
5097.48991	0.01511
5095.56123	0.01512
5093.63256	0.01515
5091.70388	0.01520
5089.77521	0.01524
5087.84653	0.01526
5085.91785	0.01528
5083.98918	0.01530
5082.06050	0.01532
5080.13183	0.01535
5078.20315	0.01539
5076.27448	0.01543
5074.34580	0.01545
5072.41712	0.01545
5070.48845	0.01546
5068.55977	0.01548
5066.63110	0.01550
5064.70242	0.01553
5062.77375	0.01557
5060.84507	0.01560
5058.91639	0.01563
5056.98772	0.01565
5055.05904	0.01568
5053.13037	0.01572
5051.20169	0.01575
5049.27302	0.01576
5047.34434	0.01578
5045.41566	0.01583
5043.48699	0.01587
5041.55831	0.01590
5039.62964	0.01593
5037.70096	0.01596
5035.77229	0.01599
5033.84361	0.01601
5031.91493	0.01602
5029.98626	0.01604
5028.05758	0.01607
5026.12891	0.01609
5024.20023	0.01611
5022.27156	0.01611
5020.34288	0.01612
5018.41420	0.01615
5016.48553	0.01620
5014.55685	0.01624
5012.62818	0.01627
5010.69950	0.01630
5008.77083	0.01633
5006.84215	0.01637
5004.91347	0.01639
5002.98480	0.01640
5001.05612	0.01642
4999.12745	0.01646
4997.19877	0.01649
4995.27010	0.01651
4993.34142	0.01653
4991.41274	0.01655
4989.48407	0.01657
4987.55539	0.01659
4985.62672	0.01661
4983.69804	0.01663
4981.76937	0.01667
4979.84069	0.01671
4977.91201	0.01676
4975.98334	0.01679
4974.05466	0.01683
4972.12599	0.01685
4970.19731	0.01685
4968.26864	0.01687
4966.33996	0.01690
4964.41128	0.01692
4962.48261	0.01695
4960.55393	0.01699
4958.62526	0.01703
4956.69658	0.01707
4954.76791	0.01710
4952.83923	0.01713
4950.91055	0.01714
4948.98188	0.01715
4947.05320	0.01719
4945.12453	0.01724
4943.19585	0.01728
4941.26718	0.01730
4939.33850	0.01732
4937.40982	0.01736
4935.48115	0.01739
4933.55247	0.01741
4931.62380	0.01743
4929.69512	0.01744
4927.76645	0.01745
4925.83777	0.01746
4923.90909	0.01748
4921.98042	0.01752
4920.05174	0.01756
4918.12307	0.01760
4916.19439	0.01762
4914.26572	0.01764
4912.33704	0.01767
4910.40836	0.01770
4908.47969	0.01773
4906.55101	0.01777
4904.62234	0.01780
4902.69366	0.01783
4900.76499	0.01789
4898.83631	0.01792
4896.90763	0.01792
4894.97896	0.01793
4893.05028	0.01795
4891.12161	0.01799
4889.19293	0.01801
4887.26426	0.01804
4885.33558	0.01807
4883.40690	0.01810
4881.47823	0.01814
4879.54955	0.01818
4877.62088	0.01822
4875.69220	0.01824
4873.76353	0.01824
4871.83485	0.01826
4869.90617	0.01829
4867.97750	0.01832
4866.04882	0.01835
4864.12015	0.01838
4862.19147	0.01842
4860.26280	0.01846
4858.33412	0.01849
4856.40544	0.01853
4854.47677	0.01858
4852.54809	0.01861
4850.61942	0.01864
4848.69074	0.01866
4846.76207	0.01868
4844.83339	0.01869
4842.90471	0.01872
4840.97604	0.01876
4839.04736	0.01880
4837.11869	0.01882
4835.19001	0.01885
4833.26134	0.01890
4831.33266	0.01894
4829.40398	0.01897
4827.47531	0.01900
4825.54663	0.01903
4823.61796	0.01904
4821.68928	0.01905
4819.76061	0.01907
4817.83193	0.01910
4815.90325	0.01913
4813.97458	0.01915
4812.04590	0.01918
4810.11723	0.01923
4808.18855	0.01926
4806.25988	0.01929
4804.33120	0.01933
4802.40252	0.01939
4800.47385	0.01942
4798.54517	0.01944
4796.61650	0.01947
4794.68782	0.01949
4792.75915	0.01950
4790.83047	0.01952
4788.90179	0.01955
4786.97312	0.01959
4785.04444	0.01962
4783.11577	0.01966
4781.18709	0.01970
4779.25842	0.01972
4777.32974	0.01975
4775.40106	0.01979
4773.47239	0.01983
4771.54371	0.01985
4769.61504	0.01989
4767.68636	0.01994
4765.75769	0.01997
4763.82901	0.01999
4761.90033	0.02002
4759.97166	0.02005
4758.04298	0.02008
4756.11431	0.02012
4754.18563	0.02016
4752.25696	0.02018
4750.32828	0.02019
4748.39960	0.02021
4746.47093	0.02024
4744.54225	0.02027
4742.61358	0.02031
4740.68490	0.02035
4738.75623	0.02039
4736.82755	0.02043
4734.89887	0.02048
4732.97020	0.02053
4731.04152	0.02055
4729.11285	0.02055
4727.18417	0.02057
4725.25550	0.02061
4723.32682	0.02067
4721.39814	0.02071
4719.46947	0.02074
4717.54079	0.02077
4715.61212	0.02079
4713.68344	0.02082
4711.75477	0.02085
4709.82609	0.02087
4707.89741	0.02090
4705.96874	0.02093
4704.04006	0.02097
4702.11139	0.02101
4700.18271	0.02106
4698.25404	0.02111
4696.32536	0.02117
4694.39668	0.02120
4692.46801	0.02120
4690.53933	0.02121
4688.61066	0.02124
4686.68198	0.02129
4684.75331	0.02133
4682.82463	0.02135
4680.89595	0.02137
4678.96728	0.02139
4677.03860	0.02142
4675.10993	0.02145
4673.18125	0.02148
4671.25258	0.02152
4669.32390	0.02156
4667.39522	0.02160
4665.46655	0.02166
4663.53787	0.02170
4661.60920	0.02173
4659.68052	0.02176
4657.75185	0.02179
4655.82317	0.02180
4653.89449	0.02181
4651.96582	0.02187
4650.03714	0.02195
4648.10847	0.02201
4646.17979	0.02203
4644.25112	0.02206
4642.32244	0.02210
4640.39376	0.02213
4638.46509	0.02214
4636.53641	0.02216
4634.60774	0.02220
4632.67906	0.02225
4630.75039	0.02229
4628.82171	0.02232
4626.89303	0.02235
4624.96436	0.02240
4623.03568	0.02246
4621.10701	0.02250
4619.17833	0.02254
4617.24966	0.02256
4615.32098	0.02258
4613.39230	0.02260
4611.46363	0.02264
4609.53495	0.02267
4607.60628	0.02270
4605.67760	0.02275
4603.74893	0.02280
4601.82025	0.02283
4599.89157	0.02285
4597.96290	0.02289
4596.03422	0.02296
4594.10555	0.02303
4592.17687	0.02305
4590.24820	0.02306
4588.31952	0.02308
4586.39084	0.02309
4584.46217	0.02310
4582.53349	0.02314
4580.60482	0.02322
4578.67614	0.02329
4576.74747	0.02334
4574.81879	0.02338
4572.89011	0.02341
4570.96144	0.02344
4569.03276	0.02349
4567.10409	0.02352
4565.17541	0.02354
4563.24674	0.02356
4561.31806	0.02359
4559.38938	0.02363
4557.46071	0.02367
4555.53203	0.02370
4553.60336	0.02375
4551.67468	0.02381
4549.74601	0.02387
4547.81733	0.02391
4545.88865	0.02394
4543.95998	0.02398
4542.03130	0.02401
4540.10263	0.02403
4538.17395	0.02406
4536.24528	0.02411
4534.31660	0.02415
4532.38792	0.02418
4530.45925	0.02423
4528.53057	0.02428
4526.60190	0.02432
4524.67322	0.02436
4522.74455	0.02440
4520.81587	0.02447
4518.88719	0.02450
4516.95852	0.02453
4515.02984	0.02457
4513.10117	0.02461
4511.17249	0.02464
4509.24382	0.02466
4507.31514	0.02472
4505.38646	0.02479
4503.45779	0.02483
4501.52911	0.02486
4499.60044	0.02490
4497.67176	0.02495
4495.74309	0.02499
4493.81441	0.02502
4491.88573	0.02506
4489.95706	0.02511
4488.02838	0.02517
4486.09971	0.02523
4484.17103	0.02527
4482.24236	0.02532
4480.31368	0.02537
4478.38500	0.02542
4476.45633	0.02545
4474.52765	0.02548
4472.59898	0.02550
4470.67030	0.02553
4468.74163	0.02557
4466.81295	0.02561
4464.88427	0.02565
4462.95560	0.02569
4461.02692	0.02573
4459.09825	0.02578
4457.16957	0.02583
4455.24090	0.02587
4453.31222	0.02593
4451.38354	0.02598
4449.45487	0.02603
4447.52619	0.02607
4445.59752	0.02610
4443.66884	0.02613
4441.74017	0.02618
4439.81149	0.02623
4437.88281	0.02629
4435.95414	0.02636
4434.02546	0.02641
4432.09679	0.02645
4430.16811	0.02650
4428.23944	0.02655
4426.31076	0.02659
4424.38208	0.02662
4422.45341	0.02666
4420.52473	0.02672
4418.59606	0.02676
4416.66738	0.02679
4414.73871	0.02683
4412.81003	0.02687
4410.88135	0.02690
4408.95268	0.02695
4407.02400	0.02701
4405.09533	0.02706
4403.16665	0.02711
4401.23798	0.02717
4399.30930	0.02722
4397.38062	0.02728
4395.45195	0.02732
4393.52327	0.02737
4391.59460	0.02741
4389.66592	0.02745
4387.73725	0.02750
4385.80857	0.02753
4383.87989	0.02757
4381.95122	0.02762
4380.02254	0.02770
4378.09387	0.02777
4376.16519	0.02782
4374.23652	0.02786
4372.30784	0.02790
4370.37916	0.02795
4368.45049	0.02800
4366.52181	0.02804
4364.59314	0.02808
4362.66446	0.02814
4360.73579	0.02820
4358.80711	0.02824
4356.87843	0.02828
4354.94976	0.02833
4353.02108	0.02839
4351.09241	0.02845
4349.16373	0.02849
4347.23506	0.02853
4345.30638	0.02857
4343.37770	0.02863
4341.44903	0.02869
4339.52035	0.02873
4337.59168	0.02878
4335.66300	0.02884
4333.73433	0.02891
4331.80565	0.02897
4329.87697	0.02903
4327.94830	0.02907
4326.01962	0.02910
4324.09095	0.02915
4322.16227	0.02922
4320.23360	0.02931
4318.30492	0.02936
4316.37624	0.02938
4314.44757	0.02938
4312.51889	0.02943
4310.59022	0.02951
4308.66154	0.02959
4306.73287	0.02964
4304.80419	0.02968
4302.87551	0.02974
4300.94684	0.02981
4299.01816	0.02986
4297.08949	0.02991
4295.16081	0.02997
4293.23214	0.03002
4291.30346	0.03004
4289.37478	0.03006
4287.44611	0.03012
4285.51743	0.03021
4283.58876	0.03029
4281.66008	0.03035
4279.73141	0.03039
4277.80273	0.03044
4275.87405	0.03050
4273.94538	0.03055
4272.01670	0.03060
4270.08803	0.03065
4268.15935	0.03071
4266.23068	0.03078
4264.30200	0.03084
4262.37332	0.03089
4260.44465	0.03094
4258.51597	0.03098
4256.58730	0.03103
4254.65862	0.03109
4252.72995	0.03116
4250.80127	0.03122
4248.87259	0.03127
4246.94392	0.03133
4245.01524	0.03139
4243.08657	0.03146
4241.15789	0.03153
4239.22922	0.03159
4237.30054	0.03164
4235.37186	0.03168
4233.44319	0.03171
4231.51451	0.03176
4229.58584	0.03183
4227.65716	0.03190
4225.72849	0.03197
4223.79981	0.03204
4221.87113	0.03209
4219.94246	0.03214
4218.01378	0.03222
4216.08511	0.03229
4214.15643	0.03234
4212.22776	0.03239
4210.29908	0.03245
4208.37040	0.03251
4206.44173	0.03256
4204.51305	0.03260
4202.58438	0.03263
4200.65570	0.03267
4198.72703	0.03274
4196.79835	0.03283
4194.86968	0.03292
4192.94100	0.03299
4191.01232	0.03301
4189.08365	0.03304
4187.15497	0.03310
4185.22630	0.03319
4183.29762	0.03329
4181.36895	0.03336
4179.44027	0.03341
4177.51159	0.03347
4175.58292	0.03354
4173.65424	0.03362
4171.72557	0.03368
4169.79689	0.03373
4167.86822	0.03379
4165.93954	0.03385
4164.01086	0.03390
4162.08219	0.03395
4160.15351	0.03400
4158.22484	0.03406
4156.29616	0.03414
4154.36749	0.03423
4152.43881	0.03431
4150.51013	0.03433
4148.58146	0.03436
4146.65278	0.03443
4144.72411	0.03452
4142.79543	0.03458
4140.86676	0.03463
4138.93808	0.03470
4137.00940	0.03477
4135.08073	0.03483
4133.15205	0.03489
4131.22338	0.03499
4129.29470	0.03509
4127.36603	0.03517
4125.43735	0.03523
4123.50867	0.03530
4121.58000	0.03535
4119.65132	0.03540
4117.72265	0.03547
4115.79397	0.03554
4113.86530	0.03558
4111.93662	0.03562
4110.00794	0.03568
4108.07927	0.03574
4106.15059	0.03581
4104.22192	0.03589
4102.29324	0.03596
4100.36457	0.03603
4098.43589	0.03610
4096.50721	0.03616
4094.57854	0.03620
4092.64986	0.03626
4090.72119	0.03633
4088.79251	0.03641
4086.86384	0.03648
4084.93516	0.03656
4083.00648	0.03665
4081.07781	0.03673
4079.14913	0.03679
4077.22046	0.03688
4075.29178	0.03696
4073.36311	0.03701
4071.43443	0.03705
4069.50575	0.03711
4067.57708	0.03721
4065.64840	0.03730
4063.71973	0.03737
4061.79105	0.03741
4059.86238	0.03747
4057.93370	0.03755
4056.00502	0.03763
4054.07635	0.03769
4052.14767	0.03777
4050.21900	0.03784
4048.29032	0.03791
4046.36165	0.03799
4044.43297	0.03805
4042.50429	0.03812
4040.57562	0.03818
4038.64694	0.03823
4036.71827	0.03829
4034.78959	0.03836
4032.86092	0.03846
4030.93224	0.03856
4029.00356	0.03864
4027.07489	0.03871
4025.14621	0.03876
4023.21754	0.03882
4021.28886	0.03891
4019.36019	0.03899
4017.43151	0.03906
4015.50283	0.03914
4013.57416	0.03921
4011.64548	0.03927
4009.71681	0.03931
4007.78813	0.03938
4005.85946	0.03946
4003.93078	0.03955
4002.00210	0.03965
4000.07343	0.03974
3998.14475	0.03980
3996.21608	0.03986
3994.28740	0.03993
3992.35873	0.03999
3990.43005	0.04008
3988.50137	0.04019
3986.57270	0.04029
3984.64402	0.04037
3982.71535	0.04045
3980.78667	0.04053
3978.85800	0.04058
3976.92932	0.04061
3975.00064	0.04068
3973.07197	0.04076
3971.14329	0.04084
3969.21462	0.04090
3967.28594	0.04099
3965.35727	0.04110
3963.42859	0.04117
3961.49991	0.04123
3959.57124	0.04130
3957.64256	0.04137
3955.71389	0.04145
3953.78521	0.04153
3951.85654	0.04159
3949.92786	0.04165
3947.99918	0.04171
3946.07051	0.04178
3944.14183	0.04186
3942.21316	0.04194
3940.28448	0.04202
3938.35581	0.04210
3936.42713	0.04218
3934.49845	0.04223
3932.56978	0.04226
3930.64110	0.04234
3928.71243	0.04247
3926.78375	0.04254
3924.85508	0.04258
3922.92640	0.04267
3920.99772	0.04274
3919.06905	0.04277
3917.14037	0.04287
3915.21170	0.04305
3913.28302	0.04320
3911.35435	0.04329
3909.42567	0.04334
3907.49699	0.04333
3905.56832	0.04326
3903.63964	0.04321
3901.71097	0.04325
3899.78229	0.04340
3897.85362	0.04361
3895.92494	0.04378
3893.99626	0.04384
3892.06759	0.04386
3890.13891	0.04396
3888.21024	0.04407
3886.28156	0.04412
3884.35289	0.04419
3882.42421	0.04427
3880.49553	0.04437
3878.56686	0.04454
3876.63818	0.04469
3874.70951	0.04477
3872.78083	0.04479
3870.85216	0.04479
3868.92348	0.04484
3866.99480	0.04492
3865.06613	0.04498
3863.13745	0.04506
3861.20878	0.04519
3859.28010	0.04528
3857.35143	0.04521
3855.42275	0.04503
3853.49407	0.04504
3851.56540	0.04539
3849.63672	0.04575
3847.70805	0.04593
3845.77937	0.04600
3843.85070	0.04604
3841.92202	0.04605
3839.99334	0.04603
3838.06467	0.04604
3836.13599	0.04615
3834.20732	0.04632
3832.27864	0.04649
3830.34997	0.04663
3828.42129	0.04673
3826.49261	0.04681
3824.56394	0.04686
3822.63526	0.04688
3820.70659	0.04694
3818.77791	0.04706
3816.84924	0.04712
3814.92056	0.04725
3812.99188	0.04747
3811.06321	0.04760
3809.13453	0.04760
3807.20586	0.04761
3805.27718	0.04769
3803.34851	0.04773
3801.41983	0.04775
3799.49115	0.04789
3797.56248	0.04806
3795.63380	0.04820
3793.70513	0.04835
3791.77645	0.04848
3789.84778	0.04857
3787.91910	0.04864
3785.99042	0.04870
3784.06175	0.04878
3782.13307	0.04887
3780.20440	0.04895
3778.27572	0.04905
3776.34705	0.04916
3774.41837	0.04924
3772.48969	0.04929
3770.56102	0.04934
3768.63234	0.04944
3766.70367	0.04957
3764.77499	0.04969
3762.84632	0.04977
3760.91764	0.04979
3758.98896	0.04981
3757.06029	0.04990
3755.13161	0.04991
3753.20294	0.04981
3751.27426	0.04981
3749.34559	0.04998
3747.41691	0.05003
3745.48823	0.04988
3743.55956	0.04998
3741.63088	0.05038
3739.70221	0.05060
3737.77353	0.05054
3735.84486	0.05055
3733.91618	0.05075
3731.98750	0.05099
3730.05883	0.05117
3728.13015	0.05128
3726.20148	0.05136
3724.27280	0.05147
3722.34413	0.05158
3720.41545	0.05170
3718.48677	0.05183
3716.55810	0.05193
3714.62942	0.05196
3712.70075	0.05196
3710.77207	0.05202
3708.84340	0.05218
3706.91472	0.05237
3704.98604	0.05250
3703.05737	0.05256
3701.12869	0.05263
3699.20002	0.05275
3697.27134	0.05286
3695.34267	0.05292
3693.41399	0.05289
3691.48531	0.05282
3689.55664	0.05284
3687.62796	0.05302
3685.69929	0.05327
3683.77061	0.05346
3681.84194	0.05356
3679.91326	0.05356
3677.98458	0.05348
3676.05591	0.05347
3674.12723	0.05364
3672.19856	0.05380
3670.26988	0.05384
3668.34121	0.05396
3666.41253	0.05417
3664.48385	0.05433
3662.55518	0.05442
3660.62650	0.05450
3658.69783	0.05455
3656.76915	0.05458
3654.84048	0.05464
3652.91180	0.05460
3650.98312	0.05444
3649.05445	0.05435
3647.12577	0.05450
3645.19710	0.05481
3643.26842	0.05511
3641.33975	0.05530
3639.41107	0.05543
3637.48239	0.05553
3635.55372	0.05560
3633.62504	0.05561
3631.69637	0.05556
3629.76769	0.05550
3627.83902	0.05559
3625.91034	0.05581
3623.98166	0.05594
3622.05299	0.05592
3620.12431	0.05588
3618.19564	0.05597
3616.26696	0.05611
3614.33829	0.05615
3612.40961	0.05613
3610.48093	0.05615
3608.55226	0.05625
3606.62358	0.05644
3604.69491	0.05662
3602.76623	0.05671
3600.83756	0.05676
3598.90888	0.05682
3596.98020	0.05689
3595.05153	0.05695
3593.12285	0.05702
3591.19418	0.05705
3589.26550	0.05701
3587.33683	0.05705
3585.40815	0.05724
3583.47947	0.05745
3581.55080	0.05758
3579.62212	0.05767
3577.69345	0.05775
3575.76477	0.05780
3573.83610	0.05786
3571.90742	0.05792
3569.97874	0.05790
3568.05007	0.05783
3566.12139	0.05789
3564.19272	0.05807
3562.26404	0.05824
3560.33537	0.05836
3558.40669	0.05845
3556.47801	0.05851
3554.54934	0.05855
3552.62066	0.05859
3550.69199	0.05866
3548.76331	0.05872
3546.83464	0.05874
3544.90596	0.05880
3542.97728	0.05893
3541.04861	0.05905
3539.11993	0.05911
3537.19126	0.05912
3535.26258	0.05915
3533.33391	0.05920
3531.40523	0.05923
3529.47655	0.05925
3527.54788	0.05929
3525.61920	0.05935
3523.69053	0.05944
3521.76185	0.05951
3519.83318	0.05955
3517.90450	0.05960
3515.97582	0.05965
3514.04715	0.05968
3512.11847	0.05969
3510.18980	0.05973
3508.26112	0.05977
3506.33245	0.05979
3504.40377	0.05980
3502.47509	0.05983
3500.54642	0.05990
3498.61774	0.05994
3496.68907	0.05994
3494.76039	0.05994
3492.83172	0.05998
3490.90304	0.06004
3488.97436	0.06006
3487.04569	0.06007
3485.11701	0.06008
3483.18834	0.06010
3481.25966	0.06016
3479.33099	0.06025
3477.40231	0.06034
3475.47363	0.06041
3473.54496	0.06046
3471.61628	0.06054
3469.68761	0.06063
3467.75893	0.06072
3465.83026	0.06080
3463.90158	0.06087
3461.97290	0.06094
3460.04423	0.06105
3458.11555	0.06117
3456.18688	0.06130
3454.25820	0.06141
3452.32953	0.06148
3450.40085	0.06152
3448.47217	0.06157
3446.54350	0.06167
3444.61482	0.06179
3442.68615	0.06191
3440.75747	0.06203
3438.82880	0.06217
3436.90012	0.06236
3434.97144	0.06257
3433.04277	0.06276
3431.11409	0.06293
3429.18542	0.06314
3427.25674	0.06335
3425.32807	0.06354
3423.39939	0.06374
3421.47071	0.06392
3419.54204	0.06410
3417.61336	0.06428
3415.68469	0.06445
3413.75601	0.06461
3411.82734	0.06475
3409.89866	0.06488
3407.96998	0.06499
3406.04131	0.06509
3404.11263	0.06522
3402.18396	0.06539
3400.25528	0.06558
3398.32661	0.06573
3396.39793	0.06584
3394.46925	0.06595
3392.54058	0.06607
3390.61190	0.06621
3388.68323	0.06638
3386.75455	0.06653
3384.82588	0.06664
3382.89720	0.06674
3380.96852	0.06687
3379.03985	0.06700
3377.11117	0.06710
3375.18250	0.06720
3373.25382	0.06732
3371.32515	0.06745
3369.39647	0.06756
3367.46779	0.06767
3365.53912	0.06777
3363.61044	0.06790
3361.68177	0.06807
3359.75309	0.06822
3357.82442	0.06833
3355.89574	0.06844
3353.96706	0.06858
3352.03839	0.06873
3350.10971	0.06886
3348.18104	0.06897
3346.25236	0.06908
3344.32369	0.06921
3342.39501	0.06936
3340.46633	0.06949
3338.53766	0.06958
3336.60898	0.06967
3334.68031	0.06980
3332.75163	0.06994
3330.82296	0.07005
3328.89428	0.07016
3326.96560	0.07027
3325.03693	0.07040
3323.10825	0.07052
3321.17958	0.07065
3319.25090	0.07079
3317.32223	0.07093
3315.39355	0.07105
3313.46487	0.07116
3311.53620	0.07128
3309.60752	0.07138
3307.67885	0.07150
3305.75017	0.07164
3303.82150	0.07179
3301.89282	0.07193
3299.96414	0.07207
3298.03547	0.07218
3296.10679	0.07230
3294.17812	0.07245
3292.24944	0.07259
3290.32077	0.07270
3288.39209	0.07285
3286.46341	0.07301
3284.53474	0.07316
3282.60606	0.07328
3280.67739	0.07340
3278.74871	0.07352
3276.82004	0.07362
3274.89136	0.07373
3272.96268	0.07386
3271.03401	0.07402
3269.10533	0.07417
3267.17666	0.07432
3265.24798	0.07447
3263.31931	0.07459
3261.39063	0.07471
3259.46195	0.07484
3257.53328	0.07496
3255.60460	0.07509
3253.67593	0.07524
3251.74725	0.07541
3249.81858	0.07557
3247.88990	0.07571
3245.96122	0.07584
3244.03255	0.07594
3242.10387	0.07605
3240.17520	0.07617
3238.24652	0.07629
3236.31785	0.07641
3234.38917	0.07655
3232.46049	0.07671
3230.53182	0.07685
3228.60314	0.07696
3226.67447	0.07710
3224.74579	0.07724
3222.81712	0.07740
3220.88844	0.07755
3218.95976	0.07769
3217.03109	0.07782
3215.10241	0.07796
3213.17374	0.07809
3211.24506	0.07823
3209.31639	0.07835
3207.38771	0.07846
3205.45903	0.07858
3203.53036	0.07870
3201.60168	0.07883
3199.67301	0.07896
3197.74433	0.07911
3195.81566	0.07928
3193.88698	0.07944
3191.95830	0.07959
3190.02963	0.07973
3188.10095	0.07987
3186.17228	0.08001
3184.24360	0.08016
3182.31493	0.08034
3180.38625	0.08050
3178.45757	0.08061
3176.52890	0.08074
3174.60022	0.08089
3172.67155	0.08103
3170.74287	0.08117
3168.81420	0.08131
3166.88552	0.08146
3164.95684	0.08160
3163.02817	0.08173
3161.09949	0.08187
3159.17082	0.08201
3157.24214	0.08217
3155.31347	0.08233
3153.38479	0.08248
3151.45611	0.08260
3149.52744	0.08271
3147.59876	0.08283
3145.67009	0.08297
3143.74141	0.08312
3141.81274	0.08328
3139.88406	0.08343
3137.95538	0.08356
3136.02671	0.08368
3134.09803	0.08379
3132.16936	0.08391
3130.24068	0.08407
3128.31201	0.08424
3126.38333	0.08439
3124.45465	0.08452
3122.52598	0.08466
3120.59730	0.08480
3118.66863	0.08492
3116.73995	0.08504
3114.81128	0.08518
3112.88260	0.08533
3110.95392	0.08548
3109.02525	0.08562
3107.09657	0.08576
3105.16790	0.08587
3103.23922	0.08597
3101.31055	0.08610
3099.38187	0.08628
3097.45319	0.08645
3095.52452	0.08659
3093.59584	0.08671
3091.66717	0.08687
3089.73849	0.08701
3087.80982	0.08713
3085.88114	0.08724
3083.95246	0.08738
3082.02379	0.08754
3080.09511	0.08769
3078.16644	0.08782
3076.23776	0.08794
3074.30909	0.08809
3072.38041	0.08825
3070.45173	0.08839
3068.52306	0.08851
3066.59438	0.08864
3064.66571	0.08878
3062.73703	0.08891
3060.80836	0.08904
3058.87968	0.08917
3056.95100	0.08929
3055.02233	0.08945
3053.09365	0.08962
3051.16498	0.08976
3049.23630	0.08991
3047.30763	0.09005
3045.37895	0.09017
3043.45027	0.09028
3041.52160	0.09041
3039.59292	0.09055
3037.66425	0.09070
3035.73557	0.09083
3033.80690	0.09095
3031.87822	0.09107
3029.94954	0.09120
3028.02087	0.09134
3026.09219	0.09147
3024.16352	0.09164
3022.23484	0.09182
3020.30617	0.09196
3018.37749	0.09206
3016.44881	0.09217
3014.52014	0.09232
3012.59146	0.09248
3010.66279	0.09262
3008.73411	0.09277
3006.80544	0.09293
3004.87676	0.09308
3002.94808	0.09322
3001.01941	0.09335
2999.09073	0.09347
2997.16206	0.09357
2995.23338	0.09367
2993.30471	0.09378
2991.37603	0.09392
2989.44735	0.09405
2987.51868	0.09417
2985.59000	0.09426
2983.66133	0.09434
2981.73265	0.09442
2979.80398	0.09449
2977.87530	0.09453
2975.94662	0.09456
2974.01795	0.09456
2972.08927	0.09456
2970.16060	0.09454
2968.23192	0.09453
2966.30325	0.09452
2964.37457	0.09457
2962.44589	0.09466
2960.51722	0.09477
2958.58854	0.09491
2956.65987	0.09511
2954.73119	0.09531
2952.80252	0.09550
2950.87384	0.09567
2948.94516	0.09580
2947.01649	0.09592
2945.08781	0.09602
2943.15914	0.09609
2941.23046	0.09611
2939.30179	0.09611
2937.37311	0.09613
2935.44443	0.09614
2933.51576	0.09615
2931.58708	0.09613
2929.65841	0.09607
2927.72973	0.09598
2925.80106	0.09592
2923.87238	0.09593
2921.94370	0.09598
2920.01503	0.09607
2918.08635	0.09623
2916.15768	0.09654
2914.22900	0.09702
2912.30033	0.09753
2910.37165	0.09794
2908.44297	0.09823
2906.51430	0.09848
2904.58562	0.09874
2902.65695	0.09900
2900.72827	0.09926
2898.79960	0.09948
2896.87092	0.09967
2894.94224	0.09983
2893.01357	0.10000
2891.08489	0.10019
2889.15622	0.10037
2887.22754	0.10056
2885.29887	0.10076
2883.37019	0.10096
2881.44151	0.10111
2879.51284	0.10124
2877.58416	0.10134
2875.65549	0.10145
2873.72681	0.10159
2871.79814	0.10172
2869.86946	0.10185
2867.94078	0.10200
2866.01211	0.10216
2864.08343	0.10227
2862.15476	0.10230
2860.22608	0.10232
2858.29741	0.10234
2856.36873	0.10233
2854.44005	0.10228
2852.51138	0.10224
2850.58270	0.10232
2848.65403	0.10258
2846.72535	0.10305
2844.79668	0.10358
2842.86800	0.10401
2840.93932	0.10435
2839.01065	0.10463
2837.08197	0.10487
2835.15330	0.10508
2833.22462	0.10527
2831.29595	0.10543
2829.36727	0.10559
2827.43859	0.10575
2825.50992	0.10593
2823.58124	0.10612
2821.65257	0.10629
2819.72389	0.10645
2817.79522	0.10661
2815.86654	0.10680
2813.93786	0.10698
2812.00919	0.10713
2810.08051	0.10727
2808.15184	0.10742
2806.22316	0.10757
2804.29449	0.10774
2802.36581	0.10789
2800.43713	0.10801
2798.50846	0.10813
2796.57978	0.10827
2794.65111	0.10845
2792.72243	0.10863
2790.79376	0.10880
2788.86508	0.10895
2786.93640	0.10910
2785.00773	0.10928
2783.07905	0.10946
2781.15038	0.10961
2779.22170	0.10973
2777.29303	0.10983
2775.36435	0.10995
2773.43567	0.11014
2771.50700	0.11035
2769.57832	0.11051
2767.64965	0.11063
2765.72097	0.11075
2763.79230	0.11089
2761.86362	0.11104
2759.93494	0.11120
2758.00627	0.11136
2756.07759	0.11151
2754.14892	0.11163
2752.22024	0.11176
2750.29157	0.11194
2748.36289	0.11211
2746.43421	0.11224
2744.50554	0.11233
2742.57686	0.11244
2740.64819	0.11258
2738.71951	0.11277
2736.79084	0.11297
2734.86216	0.11313
2732.93348	0.11328
2731.00481	0.11344
2729.07613	0.11357
2727.14746	0.11367
2725.21878	0.11378
2723.29011	0.11393
2721.36143	0.11407
2719.43275	0.11421
2717.50408	0.11437
2715.57540	0.11454
2713.64673	0.11470
2711.71805	0.11485
2709.78938	0.11500
2707.86070	0.11515
2705.93202	0.11529
2704.00335	0.11542
2702.07467	0.11555
2700.14600	0.11567
2698.21732	0.11579
2696.28865	0.11594
2694.35997	0.11610
2692.43129	0.11625
2690.50262	0.11639
2688.57394	0.11653
2686.64527	0.11668
2684.71659	0.11682
2682.78792	0.11697
2680.85924	0.11712
2678.93056	0.11728
2677.00189	0.11741
2675.07321	0.11752
2673.14454	0.11765
2671.21586	0.11782
2669.28719	0.11799
2667.35851	0.11817
2665.42983	0.11831
2663.50116	0.11844
2661.57248	0.11857
2659.64381	0.11871
2657.71513	0.11885
2655.78646	0.11900
2653.85778	0.11915
2651.92910	0.11932
2650.00043	0.11949
2648.07175	0.11962
2646.14308	0.11975
2644.21440	0.11990
2642.28573	0.12005
2640.35705	0.12022
2638.42837	0.12042
2636.49970	0.12060
2634.57102	0.12075
2632.64235	0.12089
2630.71367	0.12104
2628.78500	0.12122
2626.85632	0.12138
2624.92764	0.12149
2622.99897	0.12162
2621.07029	0.12178
2619.14162	0.12195
2617.21294	0.12209
2615.28427	0.12223
2613.35559	0.12239
2611.42691	0.12255
2609.49824	0.12269
2607.56956	0.12283
2605.64089	0.12298
2603.71221	0.12316
2601.78354	0.12332
2599.85486	0.12346
2597.92618	0.12360
2595.99751	0.12376
2594.06883	0.12392
2592.14016	0.12408
2590.21148	0.12424
2588.28281	0.12443
2586.35413	0.12459
2584.42545	0.12473
2582.49678	0.12485
2580.56810	0.12498
2578.63943	0.12513
2576.71075	0.12530
2574.78208	0.12546
2572.85340	0.12559
2570.92472	0.12573
2568.99605	0.12590
2567.06737	0.12605
2565.13870	0.12618
2563.21002	0.12634
2561.28135	0.12651
2559.35267	0.12668
2557.42399	0.12685
2555.49532	0.12701
2553.56664	0.12711
2551.63797	0.12722
2549.70929	0.12735
2547.78062	0.12750
2545.85194	0.12765
2543.92326	0.12779
2541.99459	0.12790
2540.06591	0.12803
2538.13724	0.12820
2536.20856	0.12841
2534.27989	0.12861
2532.35121	0.12876
2530.42253	0.12889
2528.49386	0.12904
2526.56518	0.12917
2524.63651	0.12929
2522.70783	0.12944
2520.77916	0.12962
2518.85048	0.12981
2516.92181	0.12999
2514.99313	0.13015
2513.06445	0.13029
2511.13578	0.13044
2509.20710	0.13061
2507.27843	0.13078
2505.34975	0.13095
2503.42108	0.13114
2501.49240	0.13133
2499.56372	0.13148
2497.63505	0.13161
2495.70637	0.13179
2493.77770	0.13197
2491.84902	0.13212
2489.92035	0.13227
2487.99167	0.13243
2486.06299	0.13261
2484.13432	0.13279
2482.20564	0.13295
2480.27697	0.13310
2478.34829	0.13324
2476.41962	0.13340
2474.49094	0.13356
2472.56226	0.13372
2470.63359	0.13389
2468.70491	0.13407
2466.77624	0.13425
2464.84756	0.13442
2462.91889	0.13457
2460.99021	0.13472
2459.06153	0.13489
2457.13286	0.13507
2455.20418	0.13525
2453.27551	0.13539
2451.34683	0.13552
2449.41816	0.13566
2447.48948	0.13585
2445.56080	0.13603
2443.63213	0.13618
2441.70345	0.13631
2439.77478	0.13647
2437.84610	0.13667
2435.91743	0.13684
2433.98875	0.13697
2432.06007	0.13709
2430.13140	0.13722
2428.20272	0.13738
2426.27405	0.13757
2424.34537	0.13775
2422.41670	0.13793
2420.48802	0.13809
2418.55934	0.13823
2416.63067	0.13837
2414.70199	0.13851
2412.77332	0.13863
2410.84464	0.13877
2408.91597	0.13895
2406.98729	0.13915
2405.05861	0.13932
2403.12994	0.13945
2401.20126	0.13959
2399.27259	0.13976
2397.34391	0.13995
2395.41524	0.14013
2393.48656	0.14030
2391.55788	0.14044
2389.62921	0.14055
2387.70053	0.14068
2385.77186	0.14082
2383.84318	0.14096
2381.91451	0.14109
2379.98583	0.14118
2378.05715	0.14125
2376.12848	0.14128
2374.19980	0.14129
2372.27113	0.14130
2370.34245	0.14133
2368.41378	0.14136
2366.48510	0.14143
2364.55642	0.14153
2362.62775	0.14164
2360.69907	0.14175
2358.77040	0.14192
2356.84172	0.14217
2354.91305	0.14248
2352.98437	0.14283
2351.05569	0.14315
2349.12702	0.14335
2347.19834	0.14344
2345.26967	0.14348
2343.34099	0.14353
2341.41232	0.14363
2339.48364	0.14374
2337.55496	0.14388
2335.62629	0.14406
2333.69761	0.14426
2331.76894	0.14443
2329.84026	0.14459
2327.91159	0.14481
2325.98291	0.14507
2324.05423	0.14531
2322.12556	0.14551
2320.19688	0.14569
2318.26821	0.14589
2316.33953	0.14610
2314.41086	0.14630
2312.48218	0.14650
2310.55350	0.14672
2308.62483	0.14698
2306.69615	0.14720
2304.76748	0.14735
2302.83880	0.14752
2300.91013	0.14775
2298.98145	0.14796
2297.05277	0.14809
2295.12410	0.14819
2293.19542	0.14831
2291.26675	0.14848
2289.33807	0.14870
2287.40940	0.14892
2285.48072	0.14911
2283.55204	0.14923
2281.62337	0.14933
2279.69469	0.14945
2277.76602	0.14962
2275.83734	0.14978
2273.90867	0.14993
2271.97999	0.15010
2270.05131	0.15027
2268.12264	0.15042
2266.19396	0.15056
2264.26529	0.15071
2262.33661	0.15088
2260.40794	0.15104
2258.47926	0.15119
2256.55058	0.15133
2254.62191	0.15146
2252.69323	0.15162
2250.76456	0.15180
2248.83588	0.15199
2246.90721	0.15219
2244.97853	0.15236
2243.04985	0.15251
2241.12118	0.15267
2239.19250	0.15283
2237.26383	0.15297
2235.33515	0.15310
2233.40648	0.15323
2231.47780	0.15338
2229.54912	0.15358
2227.62045	0.15379
2225.69177	0.15397
2223.76310	0.15410
2221.83442	0.15423
2219.90575	0.15441
2217.97707	0.15458
2216.04839	0.15474
2214.11972	0.15488
2212.19104	0.15503
2210.26237	0.15517
2208.33369	0.15529
2206.40502	0.15541
2204.47634	0.15554
2202.54766	0.15570
2200.61899	0.15587
2198.69031	0.15603
2196.76164	0.15617
2194.83296	0.15632
2192.90429	0.15650
2190.97561	0.15669
2189.04693	0.15689
2187.11826	0.15707
2185.18958	0.15722
2183.26091	0.15735
2181.33223	0.15750
2179.40356	0.15766
2177.47488	0.15781
2175.54620	0.15799
2173.61753	0.15817
2171.68885	0.15834
2169.76018	0.15853
2167.83150	0.15872
2165.90283	0.15884
2163.97415	0.15893
2162.04547	0.15905
2160.11680	0.15922
2158.18812	0.15938
2156.25945	0.15954
2154.33077	0.15973
2152.40210	0.15990
2150.47342	0.16004
2148.54474	0.16021
2146.61607	0.16039
2144.68739	0.16056
2142.75872	0.16073
2140.83004	0.16089
2138.90137	0.16104
2136.97269	0.16119
2135.04401	0.16136
2133.11534	0.16151
2131.18666	0.16163
2129.25799	0.16178
2127.32931	0.16195
2125.40064	0.16209
2123.47196	0.16224
2121.54328	0.16245
2119.61461	0.16265
2117.68593	0.16281
2115.75726	0.16295
2113.82858	0.16311
2111.89991	0.16328
2109.97123	0.16346
2108.04255	0.16365
2106.11388	0.16382
2104.18520	0.16392
2102.25653	0.16403
2100.32785	0.16423
2098.39918	0.16446
2096.47050	0.16463
2094.54182	0.16474
2092.61315	0.16485
2090.68447	0.16502
2088.75580	0.16523
2086.82712	0.16541
2084.89845	0.16556
2082.96977	0.16572
2081.04109	0.16589
2079.11242	0.16606
2077.18374	0.16624
2075.25507	0.16641
2073.32639	0.16654
2071.39772	0.16668
2069.46904	0.16686
2067.54036	0.16703
2065.61169	0.16716
2063.68301	0.16731
2061.75434	0.16750
2059.82566	0.16767
2057.89699	0.16781
2055.96831	0.16796
2054.03963	0.16814
2052.11096	0.16831
2050.18228	0.16843
2048.25361	0.16858
2046.32493	0.16878
2044.39626	0.16897
2042.46758	0.16912
2040.53890	0.16925
2038.61023	0.16939
2036.68155	0.16956
2034.75288	0.16975
2032.82420	0.16996
2030.89553	0.17012
2028.96685	0.17025
2027.03817	0.17040
2025.10950	0.17060
2023.18082	0.17081
2021.25215	0.17098
2019.32347	0.17110
2017.39480	0.17120
2015.46612	0.17136
2013.53744	0.17157
2011.60877	0.17176
2009.68009	0.17191
2007.75142	0.17208
2005.82274	0.17227
2003.89407	0.17243
2001.96539	0.17256
2000.03671	0.17271
1998.10804	0.17288
1996.17936	0.17302
1994.25069	0.17306
1992.32201	0.17309
1990.39334	0.17323
1988.46466	0.17346
1986.53598	0.17369
1984.60731	0.17387
1982.67863	0.17400
1980.74996	0.17414
1978.82128	0.17431
1976.89261	0.17447
1974.96393	0.17458
1973.03525	0.17467
1971.10658	0.17476
1969.17790	0.17485
1967.24923	0.17498
1965.32055	0.17517
1963.39188	0.17536
1961.46320	0.17550
1959.53452	0.17565
1957.60585	0.17580
1955.67717	0.17596
1953.74850	0.17617
1951.81982	0.17640
1949.89115	0.17656
1947.96247	0.17663
1946.03379	0.17667
1944.10512	0.17675
1942.17644	0.17696
1940.24777	0.17725
1938.31909	0.17746
1936.39042	0.17761
1934.46174	0.17777
1932.53306	0.17792
1930.60439	0.17806
1928.67571	0.17823
1926.74704	0.17839
1924.81836	0.17848
1922.88969	0.17857
1920.96101	0.17873
1919.03233	0.17889
1917.10366	0.17908
1915.17498	0.17932
1913.24631	0.17952
1911.31763	0.17965
1909.38896	0.17980
1907.46028	0.17999
1905.53160	0.18014
1903.60293	0.18024
1901.67425	0.18034
1899.74558	0.18050
1897.81690	0.18068
1895.88823	0.18085
1893.95955	0.18099
1892.03087	0.18104
1890.10220	0.18108
1888.17352	0.18126
1886.24485	0.18151
1884.31617	0.18172
1882.38750	0.18188
1880.45882	0.18204
1878.53014	0.18222
1876.60147	0.18239
1874.67279	0.18251
1872.74412	0.18255
1870.81544	0.18254
1868.88677	0.18260
1866.95809	0.18285
1865.02941	0.18320
1863.10074	0.18346
1861.17206	0.18364
1859.24339	0.18380
1857.31471	0.18394
1855.38604	0.18408
1853.45736	0.18425
1851.52868	0.18440
1849.60001	0.18447
1847.67133	0.18432
1845.74266	0.18403
1843.81398	0.18412
1841.88531	0.18475
1839.95663	0.18531
1838.02795	0.18555
1836.09928	0.18575
1834.17060	0.18592
1832.24193	0.18590
1830.31325	0.18582
1828.38458	0.18587
1826.45590	0.18597
1824.52722	0.18621
1822.59855	0.18664
1820.66987	0.18697
1818.74120	0.18708
1816.81252	0.18718
1814.88385	0.18732
1812.95517	0.18739
1811.02649	0.18746
1809.09782	0.18768
1807.16914	0.18791
1805.24047	0.18797
1803.31179	0.18788
1801.38312	0.18790
1799.45444	0.18814
1797.52576	0.18843
1795.59709	0.18857
1793.66841	0.18849
1791.73974	0.18842
1789.81106	0.18864
1787.88239	0.18899
1785.95371	0.18920
1784.02503	0.18937
1782.09636	0.18953
1780.16768	0.18960
1778.23901	0.18961
1776.31033	0.18957
1774.38166	0.18942
1772.45298	0.18927
1770.52430	0.18928
1768.59563	0.18950
1766.66695	0.18995
1764.73828	0.19036
1762.80960	0.19045
1760.88093	0.19047
1758.95225	0.19049
1757.02357	0.19050
1755.09490	0.19056
1753.16622	0.19048
1751.23755	0.19019
1749.30887	0.19005
1747.38020	0.19021
1745.45152	0.19044
1743.52284	0.19056
1741.59417	0.19059
1739.66549	0.19057
1737.73682	0.19042
1735.80814	0.18995
1733.87947	0.18961
1731.95079	0.18995
1730.02211	0.19062
1728.09344	0.19116
1726.16476	0.19150
1724.23609	0.19169
1722.30741	0.19169
1720.37874	0.19132
1718.45006	0.19090
1716.52138	0.19101
1714.59271	0.19156
1712.66403	0.19215
1710.73536	0.19253
1708.80668	0.19259
1706.87801	0.19251
1704.94933	0.19252
1703.02065	0.19239
1701.09198	0.19201
1699.16330	0.19182
1697.23463	0.19181
1695.30595	0.19205
1693.37728	0.19269
1691.44860	0.19315
1689.51992	0.19314
1687.59125	0.19285
1685.66257	0.19231
1683.73390	0.19208
1681.80522	0.19248
1679.87655	0.19299
1677.94787	0.19316
1676.01919	0.19308
1674.09052	0.19308
1672.16184	0.19308
1670.23317	0.19296
1668.30449	0.19313
1666.37582	0.19358
1664.44714	0.19377
1662.51846	0.19374
1660.58979	0.19386
1658.66111	0.19399
1656.73244	0.19354
1654.80376	0.19249
1652.87509	0.19211
1650.94641	0.19285
1649.01773	0.19341
1647.08906	0.19334
1645.16038	0.19355
1643.23171	0.19411
1641.30303	0.19440
1639.37436	0.19426
1637.44568	0.19393
1635.51700	0.19390
1633.58833	0.19434
1631.65965	0.19474
1629.73098	0.19477
1627.80230	0.19461
1625.87363	0.19434
1623.94495	0.19395
1622.01627	0.19370
1620.08760	0.19370
1618.15892	0.19392
1616.23025	0.19447
1614.30157	0.19516
1612.37290	0.19570
1610.44422	0.19602
1608.51554	0.19625
1606.58687	0.19647
1604.65819	0.19670
1602.72952	0.19695
1600.80084	0.19725
1598.87217	0.19751
1596.94349	0.19768
1595.01481	0.19781
1593.08614	0.19796
1591.15746	0.19809
1589.22879	0.19823
1587.30011	0.19840
1585.37144	0.19857
1583.44276	0.19873
1581.51408	0.19882
1579.58541	0.19875
1577.65673	0.19859
1575.72806	0.19871
1573.79938	0.19904
1571.87071	0.19902
1569.94203	0.19881
1568.01335	0.19903
1566.08468	0.19947
1564.15600	0.19971
1562.22733	0.19956
1560.29865	0.19886
1558.36998	0.19833
1556.44130	0.19869
1554.51262	0.19947
1552.58395	0.20001
1550.65527	0.20032
1548.72660	0.20062
1546.79792	0.20077
1544.86925	0.20051
1542.94057	0.20002
1541.01189	0.19971
1539.08322	0.19993
1537.15454	0.20058
1535.22587	0.20104
1533.29719	0.20120
1531.36852	0.20141
1529.43984	0.20150
1527.51116	0.20142
1525.58249	0.20141
1523.65381	0.20128
1521.72514	0.20099
1519.79646	0.20098
1517.86779	0.20125
1515.93911	0.20151
1514.01043	0.20166
1512.08176	0.20165
1510.15308	0.20145
1508.22441	0.20123
1506.29573	0.20149
1504.36706	0.20216
1502.43838	0.20260
1500.50970	0.20255
1498.58103	0.20227
1496.65235	0.20215
1494.72368	0.20234
1492.79500	0.20241
1490.86633	0.20209
1488.93765	0.20187
1487.00897	0.20204
1485.08030	0.20221
1483.15162	0.20216
1481.22295	0.20202
1479.29427	0.20185
1477.36560	0.20144
1475.43692	0.20077
1473.50824	0.20023
1471.57957	0.20008
1469.65089	0.20013
1467.72222	0.19997
1465.79354	0.19967
1463.86487	0.19950
1461.93619	0.19931
1460.00751	0.19873
1458.07884	0.19808
1456.15016	0.19805
1454.22149	0.19852
1452.29281	0.19885
1450.36414	0.19889
1448.43546	0.19888
1446.50678	0.19903
1444.57811	0.19928
1442.64943	0.19946
1440.72076	0.19947
1438.79208	0.19925
1436.86341	0.19911
1434.93473	0.19943
1433.00605	0.19992
1431.07738	0.20016
1429.14870	0.20029
1427.22003	0.20038
1425.29135	0.20032
1423.36268	0.20022
1421.43400	0.20008
1419.50532	0.19993
1417.57665	0.20005
1415.64797	0.20040
1413.71930	0.20067
1411.79062	0.20078
1409.86195	0.20075
1407.93327	0.20062
1406.00459	0.20045
1404.07592	0.20044
1402.14724	0.20051
1400.21857	0.20043
1398.28989	0.20023
1396.36122	0.20008
1394.43254	0.20006
1392.50386	0.20014
1390.57519	0.20011
1388.64651	0.19982
1386.71784	0.19953
1384.78916	0.19942
1382.86049	0.19941
1380.93181	0.19939
1379.00313	0.19937
1377.07446	0.19927
1375.14578	0.19913
1373.21711	0.19912
1371.28843	0.19920
1369.35976	0.19924
1367.43108	0.19927
1365.50240	0.19917
1363.57373	0.19898
1361.64505	0.19903
1359.71638	0.19929
1357.78770	0.19946
1355.85903	0.19951
1353.93035	0.19955
1352.00167	0.19961
1350.07300	0.19968
1348.14432	0.19978
1346.21565	0.19991
1344.28697	0.19997
1342.35830	0.19981
1340.42962	0.19956
1338.50094	0.19946
1336.57227	0.19952
1334.64359	0.19962
1332.71492	0.19965
1330.78624	0.19956
1328.85757	0.19940
1326.92889	0.19920
1325.00021	0.19898
1323.07154	0.19875
1321.14286	0.19852
1319.21419	0.19833
1317.28551	0.19820
1315.35684	0.19810
1313.42816	0.19797
1311.49948	0.19783
1309.57081	0.19767
1307.64213	0.19744
1305.71346	0.19716
1303.78478	0.19693
1301.85611	0.19674
1299.92743	0.19652
1297.99875	0.19627
1296.07008	0.19608
1294.14140	0.19592
1292.21273	0.19575
1290.28405	0.19555
1288.35538	0.19535
1286.42670	0.19512
1284.49802	0.19492
1282.56935	0.19476
1280.64067	0.19456
1278.71200	0.19425
1276.78332	0.19388
1274.85465	0.19347
1272.92597	0.19297
1270.99729	0.19233
1269.06862	0.19150
1267.13994	0.19057
1265.21127	0.18974
1263.28259	0.18915
1261.35392	0.18885
1259.42524	0.18886
1257.49656	0.18909
1255.56789	0.18929
1253.63921	0.18933
1251.71054	0.18921
1249.78186	0.18895
1247.85319	0.18861
1245.92451	0.18821
1243.99583	0.18776
1242.06716	0.18734
1240.13848	0.18693
1238.20981	0.18652
1236.28113	0.18607
1234.35246	0.18552
1232.42378	0.18490
1230.49510	0.18433
1228.56643	0.18383
1226.63775	0.18335
1224.70908	0.18287
1222.78040	0.18238
1220.85173	0.18187
1218.92305	0.18134
1216.99437	0.18081
1215.06570	0.18029
1213.13702	0.17976
1211.20835	0.17920
1209.27967	0.17863
1207.35100	0.17807
1205.42232	0.17748
1203.49364	0.17686
1201.56497	0.17628
1199.63629	0.17572
1197.70762	0.17514
1195.77894	0.17454
1193.85027	0.17392
1191.92159	0.17326
1189.99291	0.17256
1188.06424	0.17183
1186.13556	0.17108
1184.20689	0.17031
1182.27821	0.16952
1180.34954	0.16876
1178.42086	0.16799
1176.49218	0.16713
1174.56351	0.16619
1172.63483	0.16533
1170.70616	0.16453
1168.77748	0.16369
1166.84881	0.16277
1164.92013	0.16184
1162.99145	0.16102
1161.06278	0.16028
1159.13410	0.15954
1157.20543	0.15878
1155.27675	0.15799
1153.34808	0.15721
1151.41940	0.15644
1149.49072	0.15565
1147.56205	0.15479
1145.63337	0.15394
1143.70470	0.15316
1141.77602	0.15228
1139.84735	0.15127
1137.91867	0.15020
1135.98999	0.14903
1134.06132	0.14771
1132.13264	0.14614
1130.20397	0.14431
1128.27529	0.14228
1126.34662	0.14007
1124.41794	0.13770
1122.48926	0.13533
1120.56059	0.13307
1118.63191	0.13094
1116.70324	0.12895
1114.77456	0.12715
1112.84589	0.12560
1110.91721	0.12436
1108.98853	0.12335
1107.05986	0.12254
1105.13118	0.12201
1103.20251	0.12184
1101.27383	0.12196
1099.34516	0.12237
1097.41648	0.12303
1095.48780	0.12379
1093.55913	0.12455
1091.63045	0.12532
1089.70178	0.12610
1087.77310	0.12687
1085.84443	0.12753
1083.91575	0.12800
1081.98707	0.12834
1080.05840	0.12861
1078.12972	0.12884
1076.20105	0.12904
1074.27237	0.12918
1072.34370	0.12928
1070.41502	0.12937
1068.48634	0.12947
1066.55767	0.12963
1064.62899	0.12987
1062.70032	0.13012
1060.77164	0.13034
1058.84297	0.13053
1056.91429	0.13080
1054.98561	0.13115
1053.05694	0.13150
1051.12826	0.13181
1049.19959	0.13207
1047.27091	0.13232
1045.34224	0.13264
1043.41356	0.13303
1041.48488	0.13345
1039.55621	0.13389
1037.62753	0.13434
1035.69886	0.13477
1033.77018	0.13521
1031.84151	0.13561
1029.91283	0.13598
1027.98415	0.13633
1026.05548	0.13661
1024.12680	0.13689
1022.19813	0.13723
1020.26945	0.13764
1018.34078	0.13808
1016.41210	0.13854
1014.48342	0.13903
1012.55475	0.13956
1010.62607	0.14010
1008.69740	0.14066
1006.76872	0.14123
1004.84005	0.14179
1002.91137	0.14232
1000.98269	0.14272
999.05402	0.14298
997.12534	0.14314
995.19667	0.14326
993.26799	0.14338
991.33932	0.14350
989.41064	0.14359
987.48196	0.14366
985.55329	0.14370
983.62461	0.14370
981.69594	0.14365
979.76726	0.14360
977.83859	0.14355
975.90991	0.14342
973.98123	0.14321
972.05256	0.14301
970.12388	0.14280
968.19521	0.14259
966.26653	0.14237
964.33786	0.14212
962.40918	0.14190
960.48050	0.14179
958.55183	0.14176
956.62315	0.14167
954.69448	0.14150
952.76580	0.14128
950.83713	0.14106
948.90845	0.14084
946.97977	0.14064
945.05110	0.14040
943.12242	0.14007
941.19375	0.13967
939.26507	0.13927
937.33640	0.13883
935.40772	0.13831
933.47904	0.13783
931.55037	0.13742
929.62169	0.13698
927.69302	0.13644
925.76434	0.13587
923.83567	0.13530
921.90699	0.13476
919.97831	0.13418
918.04964	0.13349
916.12096	0.13267
914.19229	0.13183
912.26361	0.13108
910.33494	0.13044
908.40626	0.12985
906.47758	0.12925
904.54891	0.12860
902.62023	0.12796
900.69156	0.12741
898.76288	0.12687
896.83421	0.12629
894.90553	0.12570
892.97685	0.12515
891.04818	0.12469
889.11950	0.12429
887.19083	0.12391
885.26215	0.12353
883.33348	0.12312
881.40480	0.12276
879.47612	0.12250
877.54745	0.12226
875.61877	0.12197
873.69010	0.12169
871.76142	0.12148
869.83275	0.12129
867.90407	0.12104
865.97539	0.12081
864.04672	0.12066
862.11804	0.12056
860.18937	0.12052
858.26069	0.12051
856.33202	0.12039
854.40334	0.12014
852.47466	0.11983
850.54599	0.11954
848.61731	0.11925
846.68864	0.11898
844.75996	0.11872
842.83129	0.11847
840.90261	0.11826
838.97394	0.11801
837.04526	0.11756
835.11658	0.11691
833.18791	0.11614
831.25923	0.11523
829.33056	0.11421
827.40188	0.11317
825.47321	0.11217
823.54453	0.11124
821.61585	0.11044
819.68718	0.10980
817.75850	0.10929
815.82983	0.10889
813.90115	0.10855
811.97248	0.10826
810.04380	0.10805
808.11512	0.10790
806.18645	0.10774
804.25777	0.10760
802.32910	0.10748
800.40042	0.10722
798.47175	0.10670
796.54307	0.10606
794.61439	0.10550
792.68572	0.10512
790.75704	0.10490
788.82837	0.10471
786.89969	0.10456
784.97102	0.10440
783.04234	0.10416
781.11366	0.10384
779.18499	0.10347
777.25631	0.10315
775.32764	0.10288
773.39896	0.10260
771.47029	0.10224
769.54161	0.10184
767.61293	0.10144
765.68426	0.10108
763.75558	0.10073
761.82691	0.10029
759.89823	0.09976
757.96956	0.09926
756.04088	0.09877
754.11220	0.09819
752.18353	0.09754
750.25485	0.09688
748.32618	0.09620
746.39750	0.09545
744.46883	0.09455
742.54015	0.09357
740.61147	0.09268
738.68280	0.09214
736.75412	0.09197
734.82545	0.09194
732.89677	0.09193
730.96810	0.09197
729.03942	0.09207
727.11074	0.09223
725.18207	0.09240
723.25339	0.09253
721.32472	0.09264
719.39604	0.09280
717.46737	0.09301
715.53869	0.09331
713.61001	0.09372
711.68134	0.09412
709.75266	0.09442
707.82399	0.09459
705.89531	0.09460
703.96664	0.09444
702.03796	0.09416
700.10928	0.09377
698.18061	0.09322
696.25193	0.09253
694.32326	0.09190
692.39458	0.09141
690.46591	0.09096
688.53723	0.09051
686.60855	0.09003
684.67988	0.08953
682.75120	0.08906
680.82253	0.08860
678.89385	0.08813
676.96518	0.08759
675.03650	0.08695
673.10782	0.08621
671.17915	0.08537
669.25047	0.08445
667.32180	0.08362
665.39312	0.08291
663.46445	0.08215
661.53577	0.08131
659.60709	0.08050
657.67842	0.07974
655.74974	0.07893
653.82107	0.07806
651.89239	0.07724
649.96372	0.07648
648.03504	0.07566
646.10636	0.07480
644.17769	0.07398
642.24901	0.07309
640.32034	0.07203
638.39166	0.07094
636.46299	0.06992
634.53431	0.06888
632.60563	0.06742
630.67696	0.06506
628.74828	0.06160
626.81961	0.05728
624.89093	0.05290
622.96226	0.04941
621.03358	0.04711
619.10490	0.04582
617.17623	0.04500
615.24755	0.04417
613.31888	0.04320
611.39020	0.04220
609.46153	0.04157
607.53285	0.04159
605.60417	0.04203
603.67550	0.04261
601.74682	0.04336
599.81815	0.04427
597.88947	0.04514
595.96080	0.04580
594.03212	0.04624
592.10344	0.04651
590.17477	0.04665
588.24609	0.04667
586.31742	0.04655
584.38874	0.04636
582.46007	0.04616
580.53139	0.04582
578.60271	0.04528
576.67404	0.04470
574.74536	0.04416
572.81669	0.04357
570.88801	0.04294
568.95934	0.04230
567.03066	0.04170
565.10198	0.04117
563.17331	0.04081
561.24463	0.04063
559.31596	0.04055
557.38728	0.04047
555.45861	0.04033
553.52993	0.04010
551.60125	0.03980
549.67258	0.03957
547.74390	0.03943
545.81523	0.03928
543.88655	0.03912
541.95788	0.03896
540.02920	0.03879
538.10052	0.03865
536.17185	0.03855
534.24317	0.03838
532.31450	0.03812
530.38582	0.03784
528.45715	0.03753
526.52847	0.03713
524.59979	0.03672
522.67112	0.03639
520.74244	0.03605
518.81377	0.03551
516.88509	0.03484
514.95642	0.03424
513.02774	0.03388
511.09906	0.03375
509.17039	0.03364
507.24171	0.03341
505.31304	0.03305
503.38436	0.03264
501.45569	0.03220
499.52701	0.03173
497.59833	0.03126
495.66966	0.03075
493.74098	0.03017
491.81231	0.02955
489.88363	0.02900
487.95496	0.02853
486.02628	0.02801
484.09760	0.02740
482.16893	0.02682
480.24025	0.02630
478.31158	0.02577
476.38290	0.02521
474.45423	0.02471
472.52555	0.02424
470.59687	0.02370
468.66820	0.02319
466.73952	0.02286
464.81085	0.02272
462.88217	0.02260
460.95350	0.02248
459.02482	0.02243
457.09614	0.02245
455.16747	0.02249
453.23879	0.02246
451.31012	0.02235
449.38144	0.02227
447.45277	0.02217
445.52409	0.02201
443.59541	0.02181
441.66674	0.02157
439.73806	0.02126
437.80939	0.02085
435.88071	0.02032
433.95204	0.01974
432.02336	0.01915
430.09468	0.01852
428.16601	0.01789
426.23733	0.01728
424.30866	0.01666
422.37998	0.01599
420.45131	0.01534
418.52263	0.01476
416.59395	0.01419
414.66528	0.01354
412.73660	0.01287
410.80793	0.01224
408.87925	0.01163
406.95058	0.01104
405.02190	0.01048
403.09322	0.00993
401.16455	0.00934
399.23587	0.00870
397.30720	0.00812
395.37852	0.00770
393.44985	0.00735
391.52117	0.00695
389.59249	0.00647
387.66382	0.00595
385.73514	0.00554
383.80647	0.00531
381.87779	0.00506
379.94912	0.00462
378.02044	0.00411
376.09176	0.00371
374.16309	0.00342
372.23441	0.00309
370.30574	0.00269
368.37706	0.00227
