7496.76250	0.00118
7494.83382	0.00118
7492.90514	0.00117
7490.97647	0.00118
7489.04779	0.00119
7487.11912	0.00121
7485.19044	0.00121
7483.26177	0.00121
7481.33309	0.00121
7479.40441	0.00121
7477.47574	0.00121
7475.54706	0.00122
7473.61839	0.00123
7471.68971	0.00123
7469.76104	0.00122
7467.83236	0.00123
7465.90368	0.00124
7463.97501	0.00125
7462.04633	0.00124
7460.11766	0.00123
7458.18898	0.00124
7456.26031	0.00124
7454.33163	0.00123
7452.40295	0.00124
7450.47428	0.00125
7448.54560	0.00125
7446.61693	0.00126
7444.68825	0.00126
7442.75958	0.00127
7440.83090	0.00128
7438.90222	0.00129
7436.97355	0.00128
7435.04487	0.00128
7433.11620	0.00127
7431.18752	0.00127
7429.25885	0.00127
7427.33017	0.00128
7425.40149	0.00129
7423.47282	0.00129
7421.54414	0.00129
7419.61547	0.00129
7417.68679	0.00128
7415.75812	0.00128
7413.82944	0.00129
7411.90076	0.00130
7409.97209	0.00131
7408.04341	0.00132
7406.11474	0.00132
7404.18606	0.00131
7402.25739	0.00132
7400.32871	0.00133
7398.40003	0.00134
7396.47136	0.00133
7394.54268	0.00133
7392.61401	0.00133
7390.68533	0.00133
7388.75666	0.00134
7386.82798	0.00134
7384.89930	0.00134
7382.97063	0.00135
7381.04195	0.00137
7379.11328	0.00140
7377.18460	0.00141
7375.25593	0.00140
7373.32725	0.00138
7371.39857	0.00137
7369.46990	0.00136
7367.54122	0.00136
7365.61255	0.00137
7363.68387	0.00139
7361.75520	0.00141
7359.82652	0.00143
7357.89784	0.00143
7355.96917	0.00143
7354.04049	0.00143
7352.11182	0.00143
7350.18314	0.00143
7348.25447	0.00143
7346.32579	0.00142
7344.39711	0.00142
7342.46844	0.00143
7340.53976	0.00143
7338.61109	0.00144
7336.68241	0.00145
7334.75374	0.00145
7332.82506	0.00144
7330.89638	0.00144
7328.96771	0.00145
7327.03903	0.00147
7325.11036	0.00148
7323.18168	0.00148
7321.25301	0.00147
7319.32433	0.00147
7317.39565	0.00148
7315.46698	0.00148
7313.53830	0.00147
7311.60963	0.00146
7309.68095	0.00148
7307.75228	0.00150
7305.82360	0.00152
7303.89492	0.00151
7301.96625	0.00150
7300.03757	0.00151
7298.10890	0.00152
7296.18022	0.00152
7294.25155	0.00152
7292.32287	0.00152
7290.39419	0.00153
7288.46552	0.00155
7286.53684	0.00157
7284.60817	0.00157
7282.67949	0.00157
7280.75082	0.00157
7278.82214	0.00157
7276.89346	0.00156
7274.96479	0.00156
7273.03611	0.00155
7271.10744	0.00154
7269.17876	0.00156
7267.25009	0.00158
7265.32141	0.00159
7263.39273	0.00160
7261.46406	0.00160
7259.53538	0.00161
7257.60671	0.00161
7255.67803	0.00160
7253.74936	0.00160
7251.82068	0.00161
7249.89200	0.00161
7247.96333	0.00160
7246.03465	0.00159
7244.10598	0.00160
7242.17730	0.00163
7240.24863	0.00163
7238.31995	0.00162
7236.39127	0.00162
7234.46260	0.00163
7232.53392	0.00164
7230.60525	0.00163
7228.67657	0.00164
7226.74790	0.00165
7224.81922	0.00166
7222.89054	0.00166
7220.96187	0.00166
7219.03319	0.00165
7217.10452	0.00164
7215.17584	0.00164
7213.24717	0.00165
7211.31849	0.00167
7209.38981	0.00168
7207.46114	0.00167
7205.53246	0.00167
7203.60379	0.00168
7201.67511	0.00169
7199.74644	0.00170
7197.81776	0.00172
7195.88908	0.00173
7193.96041	0.00172
7192.03173	0.00171
7190.10306	0.00171
7188.17438	0.00172
7186.24571	0.00173
7184.31703	0.00173
7182.38835	0.00173
7180.45968	0.00172
7178.53100	0.00172
7176.60233	0.00174
7174.67365	0.00174
7172.74498	0.00174
7170.81630	0.00174
7168.88762	0.00175
7166.95895	0.00176
7165.03027	0.00177
7163.10160	0.00178
7161.17292	0.00178
7159.24425	0.00178
7157.31557	0.00178
7155.38689	0.00178
7153.45822	0.00180
7151.52954	0.00181
7149.60087	0.00182
7147.67219	0.00183
7145.74352	0.00183
7143.81484	0.00182
7141.88616	0.00181
7139.95749	0.00182
7138.02881	0.00183
7136.10014	0.00184
7134.17146	0.00183
7132.24279	0.00183
7130.31411	0.00185
7128.38543	0.00187
7126.45676	0.00188
7124.52808	0.00189
7122.59941	0.00188
7120.67073	0.00188
7118.74206	0.00188
7116.81338	0.00188
7114.88470	0.00187
7112.95603	0.00187
7111.02735	0.00188
7109.09868	0.00189
7107.17000	0.00189
7105.24133	0.00190
7103.31265	0.00189
7101.38397	0.00189
7099.45530	0.00189
7097.52662	0.00190
7095.59795	0.00193
7093.66927	0.00195
7091.74060	0.00195
7089.81192	0.00195
7087.88324	0.00193
7085.95457	0.00192
7084.02589	0.00192
7082.09722	0.00193
7080.16854	0.00195
7078.23987	0.00197
7076.31119	0.00197
7074.38251	0.00197
7072.45384	0.00198
7070.52516	0.00199
7068.59649	0.00198
7066.66781	0.00197
7064.73914	0.00198
7062.81046	0.00198
7060.88178	0.00199
7058.95311	0.00200
7057.02443	0.00200
7055.09576	0.00201
7053.16708	0.00201
7051.23841	0.00202
7049.30973	0.00201
7047.38105	0.00200
7045.45238	0.00200
7043.52370	0.00201
7041.59503	0.00203
7039.66635	0.00204
7037.73768	0.00203
7035.80900	0.00203
7033.88032	0.00206
7031.95165	0.00208
7030.02297	0.00209
7028.09430	0.00209
7026.16562	0.00209
7024.23695	0.00209
7022.30827	0.00209
7020.37959	0.00208
7018.45092	0.00208
7016.52224	0.00210
7014.59357	0.00209
7012.66489	0.00208
7010.73622	0.00208
7008.80754	0.00210
7006.87886	0.00212
7004.95019	0.00213
7003.02151	0.00214
7001.09284	0.00215
6999.16416	0.00214
6997.23549	0.00214
6995.30681	0.00215
6993.37813	0.00216
6991.44946	0.00216
6989.52078	0.00216
6987.59211	0.00216
6985.66343	0.00215
6983.73476	0.00215
6981.80608	0.00215
6979.87740	0.00215
6977.94873	0.00216
6976.02005	0.00217
6974.09138	0.00219
6972.16270	0.00219
6970.23403	0.00218
6968.30535	0.00219
6966.37667	0.00219
6964.44800	0.00220
6962.51932	0.00222
6960.59065	0.00224
6958.66197	0.00225
6956.73330	0.00226
6954.80462	0.00226
6952.87594	0.00226
6950.94727	0.00226
6949.01859	0.00226
6947.08992	0.00227
6945.16124	0.00227
6943.23257	0.00228
6941.30389	0.00229
6939.37521	0.00230
6937.44654	0.00232
6935.51786	0.00232
6933.58919	0.00232
6931.66051	0.00232
6929.73184	0.00233
6927.80316	0.00232
6925.87448	0.00232
6923.94581	0.00232
6922.01713	0.00232
6920.08846	0.00232
6918.15978	0.00233
6916.23111	0.00234
6914.30243	0.00234
6912.37375	0.00235
6910.44508	0.00235
6908.51640	0.00235
6906.58773	0.00236
6904.65905	0.00237
6902.73038	0.00238
6900.80170	0.00239
6898.87302	0.00240
6896.94435	0.00240
6895.01567	0.00239
6893.08700	0.00240
6891.15832	0.00240
6889.22965	0.00240
6887.30097	0.00240
6885.37229	0.00241
6883.44362	0.00243
6881.51494	0.00244
6879.58627	0.00245
6877.65759	0.00244
6875.72892	0.00243
6873.80024	0.00244
6871.87156	0.00243
6869.94289	0.00244
6868.01421	0.00244
6866.08554	0.00245
6864.15686	0.00248
6862.22819	0.00250
6860.29951	0.00250
6858.37083	0.00249
6856.44216	0.00249
6854.51348	0.00251
6852.58481	0.00252
6850.65613	0.00251
6848.72746	0.00251
6846.79878	0.00252
6844.87010	0.00252
6842.94143	0.00252
6841.01275	0.00253
6839.08408	0.00254
6837.15540	0.00255
6835.22673	0.00256
6833.29805	0.00256
6831.36937	0.00257
6829.44070	0.00258
6827.51202	0.00260
6825.58335	0.00259
6823.65467	0.00258
6821.72600	0.00256
6819.79732	0.00257
6817.86864	0.00259
6815.93997	0.00261
6814.01129	0.00261
6812.08262	0.00261
6810.15394	0.00261
6808.22527	0.00262
6806.29659	0.00262
6804.36791	0.00262
6802.43924	0.00263
6800.51056	0.00265
6798.58189	0.00267
6796.65321	0.00268
6794.72454	0.00268
6792.79586	0.00268
6790.86718	0.00268
6788.93851	0.00268
6787.00983	0.00268
6785.08116	0.00269
6783.15248	0.00270
6781.22381	0.00270
6779.29513	0.00271
6777.36645	0.00271
6775.43778	0.00271
6773.50910	0.00272
6771.58043	0.00274
6769.65175	0.00274
6767.72308	0.00274
6765.79440	0.00273
6763.86572	0.00273
6761.93705	0.00274
6760.00837	0.00275
6758.07970	0.00276
6756.15102	0.00277
6754.22235	0.00277
6752.29367	0.00278
6750.36499	0.00280
6748.43632	0.00281
6746.50764	0.00281
6744.57897	0.00282
6742.65029	0.00281
6740.72162	0.00281
6738.79294	0.00282
6736.86426	0.00283
6734.93559	0.00285
6733.00691	0.00286
6731.07824	0.00287
6729.14956	0.00287
6727.22089	0.00287
6725.29221	0.00287
6723.36353	0.00287
6721.43486	0.00288
6719.50618	0.00289
6717.57751	0.00290
6715.64883	0.00290
6713.72016	0.00291
6711.79148	0.00292
6709.86280	0.00295
6707.93413	0.00296
6706.00545	0.00294
6704.07678	0.00293
6702.14810	0.00295
6700.21943	0.00296
6698.29075	0.00297
6696.36207	0.00296
6694.43340	0.00296
6692.50472	0.00297
6690.57605	0.00297
6688.64737	0.00298
6686.71870	0.00300
6684.79002	0.00301
6682.86134	0.00301
6680.93267	0.00301
6679.00399	0.00301
6677.07532	0.00301
6675.14664	0.00302
6673.21797	0.00303
6671.28929	0.00304
6669.36061	0.00304
6667.43194	0.00305
6665.50326	0.00305
6663.57459	0.00305
6661.64591	0.00307
6659.71724	0.00308
6657.78856	0.00308
6655.85988	0.00309
6653.93121	0.00311
6652.00253	0.00312
6650.07386	0.00312
6648.14518	0.00312
6646.21651	0.00311
6644.28783	0.00311
6642.35915	0.00312
6640.43048	0.00315
6638.50180	0.00317
6636.57313	0.00316
6634.64445	0.00316
6632.71578	0.00316
6630.78710	0.00317
6628.85842	0.00318
6626.92975	0.00318
6625.00107	0.00320
6623.07240	0.00320
6621.14372	0.00319
6619.21505	0.00318
6617.28637	0.00317
6615.35769	0.00317
6613.42902	0.00320
6611.50034	0.00322
6609.57167	0.00323
6607.64299	0.00324
6605.71432	0.00325
6603.78564	0.00325
6601.85696	0.00327
6599.92829	0.00329
6597.99961	0.00331
6596.07094	0.00331
6594.14226	0.00332
6592.21359	0.00333
6590.28491	0.00333
6588.35623	0.00334
6586.42756	0.00335
6584.49888	0.00335
6582.57021	0.00334
6580.64153	0.00333
6578.71286	0.00333
6576.78418	0.00334
6574.85550	0.00337
6572.92683	0.00338
6570.99815	0.00338
6569.06948	0.00338
6567.14080	0.00339
6565.21213	0.00340
6563.28345	0.00341
6561.35477	0.00343
6559.42610	0.00345
6557.49742	0.00346
6555.56875	0.00347
6553.64007	0.00347
6551.71140	0.00346
6549.78272	0.00345
6547.85404	0.00345
6545.92537	0.00346
6543.99669	0.00348
6542.06802	0.00349
6540.13934	0.00350
6538.21067	0.00350
6536.28199	0.00350
6534.35331	0.00350
6532.42464	0.00350
6530.49596	0.00351
6528.56729	0.00351
6526.63861	0.00354
6524.70994	0.00357
6522.78126	0.00359
6520.85258	0.00358
6518.92391	0.00357
6516.99523	0.00358
6515.06656	0.00359
6513.13788	0.00360
6511.20921	0.00361
6509.28053	0.00360
6507.35185	0.00359
6505.42318	0.00360
6503.49450	0.00362
6501.56583	0.00365
6499.63715	0.00367
6497.70848	0.00367
6495.77980	0.00366
6493.85112	0.00364
6491.92245	0.00365
6489.99377	0.00366
6488.06510	0.00367
6486.13642	0.00367
6484.20775	0.00366
6482.27907	0.00368
6480.35039	0.00371
6478.42172	0.00373
6476.49304	0.00374
6474.56437	0.00374
6472.63569	0.00374
6470.70702	0.00374
6468.77834	0.00374
6466.84966	0.00376
6464.92099	0.00378
6462.99231	0.00378
6461.06364	0.00379
6459.13496	0.00382
6457.20629	0.00384
6455.27761	0.00384
6453.34893	0.00384
6451.42026	0.00384
6449.49158	0.00383
6447.56291	0.00384
6445.63423	0.00385
6443.70556	0.00387
6441.77688	0.00389
6439.84820	0.00389
6437.91953	0.00389
6435.99085	0.00391
6434.06218	0.00393
6432.13350	0.00393
6430.20483	0.00394
6428.27615	0.00394
6426.34747	0.00395
6424.41880	0.00395
6422.49012	0.00395
6420.56145	0.00395
6418.63277	0.00398
6416.70410	0.00400
6414.77542	0.00401
6412.84674	0.00402
6410.91807	0.00404
6408.98939	0.00403
6407.06072	0.00403
6405.13204	0.00404
6403.20337	0.00405
6401.27469	0.00407
6399.34601	0.00409
6397.41734	0.00409
6395.48866	0.00409
6393.55999	0.00409
6391.63131	0.00408
6389.70264	0.00409
6387.77396	0.00411
6385.84528	0.00412
6383.91661	0.00412
6381.98793	0.00411
6380.05926	0.00412
6378.13058	0.00413
6376.20191	0.00416
6374.27323	0.00417
6372.34455	0.00418
6370.41588	0.00419
6368.48720	0.00421
6366.55853	0.00422
6364.62985	0.00423
6362.70118	0.00423
6360.77250	0.00423
6358.84382	0.00424
6356.91515	0.00423
6354.98647	0.00424
6353.05780	0.00427
6351.12912	0.00429
6349.20045	0.00429
6347.27177	0.00429
6345.34309	0.00428
6343.41442	0.00431
6341.48574	0.00434
6339.55707	0.00435
6337.62839	0.00436
6335.69972	0.00439
6333.77104	0.00440
6331.84236	0.00439
6329.91369	0.00439
6327.98501	0.00439
6326.05634	0.00439
6324.12766	0.00439
6322.19899	0.00439
6320.27031	0.00441
6318.34163	0.00444
6316.41296	0.00446
6314.48428	0.00446
6312.55561	0.00446
6310.62693	0.00447
6308.69826	0.00449
6306.76958	0.00450
6304.84090	0.00451
6302.91223	0.00452
6300.98355	0.00452
6299.05488	0.00452
6297.12620	0.00454
6295.19753	0.00455
6293.26885	0.00454
6291.34017	0.00453
6289.41150	0.00454
6287.48282	0.00456
6285.55415	0.00458
6283.62547	0.00459
6281.69680	0.00460
6279.76812	0.00462
6277.83944	0.00464
6275.91077	0.00465
6273.98209	0.00467
6272.05342	0.00468
6270.12474	0.00467
6268.19607	0.00467
6266.26739	0.00467
6264.33871	0.00468
6262.41004	0.00470
6260.48136	0.00472
6258.55269	0.00473
6256.62401	0.00473
6254.69534	0.00473
6252.76666	0.00474
6250.83798	0.00475
6248.90931	0.00476
6246.98063	0.00476
6245.05196	0.00478
6243.12328	0.00481
6241.19461	0.00483
6239.26593	0.00484
6237.33725	0.00484
6235.40858	0.00485
6233.47990	0.00486
6231.55123	0.00486
6229.62255	0.00488
6227.69388	0.00489
6225.76520	0.00490
6223.83652	0.00492
6221.90785	0.00493
6219.97917	0.00494
6218.05050	0.00494
6216.12182	0.00496
6214.19315	0.00499
6212.26447	0.00500
6210.33579	0.00500
6208.40712	0.00498
6206.47844	0.00498
6204.54977	0.00499
6202.62109	0.00501
6200.69242	0.00502
6198.76374	0.00504
6196.83506	0.00506
6194.90639	0.00507
6192.97771	0.00508
6191.04904	0.00507
6189.12036	0.00506
6187.19169	0.00508
6185.26301	0.00511
6183.33433	0.00514
6181.40566	0.00515
6179.47698	0.00516
6177.54831	0.00517
6175.61963	0.00518
6173.69096	0.00520
6171.76228	0.00520
6169.83360	0.00520
6167.90493	0.00521
6165.97625	0.00522
6164.04758	0.00524
6162.11890	0.00525
6160.19023	0.00525
6158.26155	0.00526
6156.33287	0.00529
6154.40420	0.00530
6152.47552	0.00530
6150.54685	0.00530
6148.61817	0.00531
6146.68950	0.00531
6144.76082	0.00531
6142.83214	0.00532
6140.90347	0.00537
6138.97479	0.00540
6137.04612	0.00540
6135.11744	0.00540
6133.18877	0.00542
6131.26009	0.00544
6129.33141	0.00546
6127.40274	0.00547
6125.47406	0.00547
6123.54539	0.00546
6121.61671	0.00547
6119.68804	0.00548
6117.75936	0.00550
6115.83068	0.00551
6113.90201	0.00553
6111.97333	0.00554
6110.04466	0.00555
6108.11598	0.00557
6106.18731	0.00558
6104.25863	0.00559
6102.32995	0.00561
6100.40128	0.00561
6098.47260	0.00561
6096.54393	0.00564
6094.61525	0.00566
6092.68658	0.00568
6090.75790	0.00568
6088.82922	0.00569
6086.90055	0.00569
6084.97187	0.00568
6083.04320	0.00566
6081.11452	0.00567
6079.18585	0.00570
6077.25717	0.00572
6075.32849	0.00574
6073.39982	0.00575
6071.47114	0.00578
6069.54247	0.00581
6067.61379	0.00583
6065.68512	0.00585
6063.75644	0.00586
6061.82776	0.00586
6059.89909	0.00586
6057.97041	0.00586
6056.04174	0.00588
6054.11306	0.00590
6052.18439	0.00591
6050.25571	0.00593
6048.32703	0.00596
6046.39836	0.00598
6044.46968	0.00598
6042.54101	0.00596
6040.61233	0.00596
6038.68366	0.00597
6036.75498	0.00599
6034.82630	0.00601
6032.89763	0.00602
6030.96895	0.00603
6029.04028	0.00604
6027.11160	0.00605
6025.18293	0.00606
6023.25425	0.00607
6021.32557	0.00608
6019.39690	0.00610
6017.46822	0.00612
6015.53955	0.00613
6013.61087	0.00615
6011.68220	0.00616
6009.75352	0.00617
6007.82484	0.00619
6005.89617	0.00621
6003.96749	0.00622
6002.03882	0.00622
6000.11014	0.00622
5998.18147	0.00624
5996.25279	0.00625
5994.32411	0.00628
5992.39544	0.00631
5990.46676	0.00633
5988.53809	0.00634
5986.60941	0.00634
5984.68074	0.00634
5982.75206	0.00634
5980.82338	0.00636
5978.89471	0.00637
5976.96603	0.00637
5975.03736	0.00638
5973.10868	0.00640
5971.18001	0.00642
5969.25133	0.00644
5967.32265	0.00646
5965.39398	0.00648
5963.46530	0.00648
5961.53663	0.00649
5959.60795	0.00651
5957.67928	0.00652
5955.75060	0.00652
5953.82192	0.00653
5951.89325	0.00654
5949.96457	0.00655
5948.03590	0.00656
5946.10722	0.00660
5944.17855	0.00663
5942.24987	0.00664
5940.32119	0.00665
5938.39252	0.00666
5936.46384	0.00669
5934.53517	0.00669
5932.60649	0.00668
5930.67782	0.00669
5928.74914	0.00673
5926.82046	0.00677
5924.89179	0.00678
5922.96311	0.00676
5921.03444	0.00676
5919.10576	0.00679
5917.17709	0.00683
5915.24841	0.00685
5913.31973	0.00687
5911.39106	0.00688
5909.46238	0.00687
5907.53371	0.00688
5905.60503	0.00691
5903.67636	0.00692
5901.74768	0.00692
5899.81900	0.00693
5897.89033	0.00695
5895.96165	0.00694
5894.03298	0.00694
5892.10430	0.00696
5890.17563	0.00700
5888.24695	0.00702
5886.31827	0.00702
5884.38960	0.00702
5882.46092	0.00704
5880.53225	0.00706
5878.60357	0.00709
5876.67490	0.00711
5874.74622	0.00712
5872.81755	0.00714
5870.88887	0.00715
5868.96019	0.00716
5867.03152	0.00718
5865.10284	0.00719
5863.17417	0.00720
5861.24549	0.00723
5859.31682	0.00728
5857.38814	0.00730
5855.45946	0.00731
5853.53079	0.00731
5851.60211	0.00732
5849.67344	0.00732
5847.74476	0.00731
5845.81609	0.00732
5843.88741	0.00734
5841.95873	0.00735
5840.03006	0.00736
5838.10138	0.00738
5836.17271	0.00741
5834.24403	0.00744
5832.31536	0.00746
5830.38668	0.00746
5828.45800	0.00748
5826.52933	0.00750
5824.60065	0.00752
5822.67198	0.00754
5820.74330	0.00756
5818.81463	0.00757
5816.88595	0.00758
5814.95727	0.00760
5813.02860	0.00761
5811.09992	0.00761
5809.17125	0.00762
5807.24257	0.00765
5805.31390	0.00768
5803.38522	0.00769
5801.45654	0.00770
5799.52787	0.00772
5797.59919	0.00774
5795.67052	0.00775
5793.74184	0.00777
5791.81317	0.00781
5789.88449	0.00784
5787.95581	0.00783
5786.02714	0.00782
5784.09846	0.00782
5782.16979	0.00784
5780.24111	0.00784
5778.31244	0.00785
5776.38376	0.00789
5774.45508	0.00792
5772.52641	0.00793
5770.59773	0.00794
5768.66906	0.00797
5766.74038	0.00799
5764.81171	0.00800
5762.88303	0.00801
5760.95435	0.00801
5759.02568	0.00802
5757.09700	0.00804
5755.16833	0.00806
5753.23965	0.00808
5751.31098	0.00811
5749.38230	0.00813
5747.45362	0.00814
5745.52495	0.00814
5743.59627	0.00816
5741.66760	0.00818
5739.73892	0.00820
5737.81025	0.00822
5735.88157	0.00825
5733.95289	0.00827
5732.02422	0.00829
5730.09554	0.00830
5728.16687	0.00832
5726.23819	0.00834
5724.30952	0.00836
5722.38084	0.00838
5720.45216	0.00839
5718.52349	0.00840
5716.59481	0.00842
5714.66614	0.00843
5712.73746	0.00844
5710.80879	0.00846
5708.88011	0.00847
5706.95143	0.00850
5705.02276	0.00852
5703.09408	0.00853
5701.16541	0.00854
5699.23673	0.00856
5697.30806	0.00859
5695.37938	0.00862
5693.45070	0.00864
5691.52203	0.00865
5689.59335	0.00865
5687.66468	0.00865
5685.73600	0.00865
5683.80733	0.00867
5681.87865	0.00869
5679.94997	0.00873
5678.02130	0.00875
5676.09262	0.00877
5674.16395	0.00878
5672.23527	0.00880
5670.30660	0.00880
5668.37792	0.00882
5666.44924	0.00884
5664.52057	0.00886
5662.59189	0.00886
5660.66322	0.00887
5658.73454	0.00888
5656.80587	0.00892
5654.87719	0.00896
5652.94851	0.00898
5651.01984	0.00898
5649.09116	0.00899
5647.16249	0.00901
5645.23381	0.00904
5643.30514	0.00906
5641.37646	0.00909
5639.44778	0.00912
5637.51911	0.00913
5635.59043	0.00913
5633.66176	0.00914
5631.73308	0.00917
5629.80441	0.00919
5627.87573	0.00921
5625.94705	0.00924
5624.01838	0.00927
5622.08970	0.00928
5620.16103	0.00927
5618.23235	0.00926
5616.30368	0.00928
5614.37500	0.00931
5612.44632	0.00935
5610.51765	0.00939
5608.58897	0.00942
5606.66030	0.00942
5604.73162	0.00942
5602.80295	0.00943
5600.87427	0.00945
5598.94559	0.00947
5597.01692	0.00950
5595.08824	0.00951
5593.15957	0.00952
5591.23089	0.00954
5589.30222	0.00955
5587.37354	0.00956
5585.44486	0.00958
5583.51619	0.00960
5581.58751	0.00963
5579.65884	0.00965
5577.73016	0.00966
5575.80149	0.00967
5573.87281	0.00969
5571.94413	0.00972
5570.01546	0.00976
5568.08678	0.00978
5566.15811	0.00978
5564.22943	0.00978
5562.30076	0.00979
5560.37208	0.00981
5558.44340	0.00983
5556.51473	0.00985
5554.58605	0.00987
5552.65738	0.00989
5550.72870	0.00991
5548.80003	0.00993
5546.87135	0.00997
5544.94267	0.01000
5543.01400	0.01003
5541.08532	0.01006
5539.15665	0.01008
5537.22797	0.01007
5535.29930	0.01007
5533.37062	0.01009
5531.44194	0.01010
5529.51327	0.01010
5527.58459	0.01013
5525.65592	0.01017
5523.72724	0.01021
5521.79857	0.01025
5519.86989	0.01028
5517.94121	0.01029
5516.01254	0.01030
5514.08386	0.01030
5512.15519	0.01033
5510.22651	0.01036
5508.29784	0.01038
5506.36916	0.01038
5504.44048	0.01038
5502.51181	0.01039
5500.58313	0.01042
5498.65446	0.01047
5496.72578	0.01050
5494.79711	0.01050
5492.86843	0.01049
5490.93975	0.01051
5489.01108	0.01054
5487.08240	0.01056
5485.15373	0.01058
5483.22505	0.01061
5481.29638	0.01064
5479.36770	0.01067
5477.43902	0.01069
5475.51035	0.01069
5473.58167	0.01071
5471.65300	0.01072
5469.72432	0.01073
5467.79565	0.01075
5465.86697	0.01079
5463.93829	0.01082
5462.00962	0.01084
5460.08094	0.01087
5458.15227	0.01089
5456.22359	0.01089
5454.29492	0.01089
5452.36624	0.01092
5450.43756	0.01097
5448.50889	0.01101
5446.58021	0.01103
5444.65154	0.01105
5442.72286	0.01107
5440.79419	0.01109
5438.86551	0.01109
5436.93683	0.01108
5435.00816	0.01108
5433.07948	0.01109
5431.15081	0.01111
5429.22213	0.01115
5427.29346	0.01119
5425.36478	0.01121
5423.43610	0.01124
5421.50743	0.01127
5419.57875	0.01129
5417.65008	0.01130
5415.72140	0.01134
5413.79273	0.01137
5411.86405	0.01140
5409.93537	0.01143
5408.00670	0.01144
5406.07802	0.01145
5404.14935	0.01147
5402.22067	0.01150
5400.29200	0.01152
5398.36332	0.01152
5396.43464	0.01153
5394.50597	0.01154
5392.57729	0.01157
5390.64862	0.01161
5388.71994	0.01164
5386.79127	0.01165
5384.86259	0.01167
5382.93391	0.01171
5381.00524	0.01177
5379.07656	0.01180
5377.14789	0.01180
5375.21921	0.01180
5373.29054	0.01181
5371.36186	0.01182
5369.43318	0.01183
5367.50451	0.01185
5365.57583	0.01188
5363.64716	0.01189
5361.71848	0.01191
5359.78981	0.01194
5357.86113	0.01194
5355.93245	0.01195
5354.00378	0.01195
5352.07510	0.01198
5350.14643	0.01201
5348.21775	0.01205
5346.28908	0.01207
5344.36040	0.01208
5342.43172	0.01209
5340.50305	0.01211
5338.57437	0.01213
5336.64570	0.01218
5334.71702	0.01222
5332.78835	0.01224
5330.85967	0.01226
5328.93099	0.01229
5327.00232	0.01235
5325.07364	0.01240
5323.14497	0.01242
5321.21629	0.01243
5319.28762	0.01244
5317.35894	0.01245
5315.43026	0.01246
5313.50159	0.01247
5311.57291	0.01249
5309.64424	0.01252
5307.71556	0.01254
5305.78689	0.01256
5303.85821	0.01259
5301.92953	0.01261
5300.00086	0.01263
5298.07218	0.01266
5296.14351	0.01268
5294.21483	0.01268
5292.28616	0.01268
5290.35748	0.01271
5288.42880	0.01274
5286.50013	0.01279
5284.57145	0.01281
5282.64278	0.01281
5280.71410	0.01282
5278.78543	0.01287
5276.85675	0.01292
5274.92807	0.01293
5272.99940	0.01294
5271.07072	0.01294
5269.14205	0.01297
5267.21337	0.01300
5265.28470	0.01301
5263.35602	0.01301
5261.42734	0.01303
5259.49867	0.01308
5257.56999	0.01313
5255.64132	0.01316
5253.71264	0.01317
5251.78397	0.01320
5249.85529	0.01321
5247.92661	0.01322
5245.99794	0.01325
5244.06926	0.01327
5242.14059	0.01328
5240.21191	0.01328
5238.28324	0.01331
5236.35456	0.01335
5234.42588	0.01337
5232.49721	0.01341
5230.56853	0.01345
5228.63986	0.01349
5226.71118	0.01351
5224.78251	0.01353
5222.85383	0.01354
5220.92515	0.01356
5218.99648	0.01359
5217.06780	0.01361
5215.13913	0.01362
5213.21045	0.01364
5211.28178	0.01365
5209.35310	0.01366
5207.42442	0.01369
5205.49575	0.01373
5203.56707	0.01378
5201.63840	0.01381
5199.70972	0.01383
5197.78105	0.01384
5195.85237	0.01383
5193.92369	0.01384
5191.99502	0.01386
5190.06634	0.01391
5188.13767	0.01394
5186.20899	0.01398
5184.28032	0.01401
5182.35164	0.01404
5180.42296	0.01405
5178.49429	0.01406
5176.56561	0.01409
5174.63694	0.01412
5172.70826	0.01415
5170.77959	0.01419
5168.85091	0.01422
5166.92223	0.01425
5164.99356	0.01427
5163.06488	0.01429
5161.13621	0.01429
5159.20753	0.01428
5157.27886	0.01429
5155.35018	0.01433
5153.42150	0.01438
5151.49283	0.01441
5149.56415	0.01443
5147.63548	0.01446
5145.70680	0.01448
5143.77813	0.01451
5141.84945	0.01454
5139.92077	0.01456
5137.99210	0.01458
5136.06342	0.01461
5134.13475	0.01463
5132.20607	0.01465
5130.27740	0.01465
5128.34872	0.01464
5126.42004	0.01466
5124.49137	0.01471
5122.56269	0.01478
5120.63402	0.01481
5118.70534	0.01483
5116.77667	0.01485
5114.84799	0.01487
5112.91931	0.01489
5110.99064	0.01492
5109.06196	0.01496
5107.13329	0.01501
5105.20461	0.01504
5103.27594	0.01506
5101.34726	0.01508
5099.41858	0.01510
5097.48991	0.01513
5095.56123	0.01514
5093.63256	0.01515
5091.70388	0.01516
5089.77521	0.01518
5087.84653	0.01521
5085.91785	0.01526
5083.98918	0.01530
5082.06050	0.01531
5080.13183	0.01531
5078.20315	0.01532
5076.27448	0.01535
5074.34580	0.01538
5072.41712	0.01541
5070.48845	0.01545
5068.55977	0.01548
5066.63110	0.01551
5064.70242	0.01554
5062.77375	0.01557
5060.84507	0.01561
5058.91639	0.01565
5056.98772	0.01567
5055.05904	0.01568
5053.13037	0.01568
5051.20169	0.01570
5049.27302	0.01575
5047.34434	0.01580
5045.41566	0.01582
5043.48699	0.01584
5041.55831	0.01585
5039.62964	0.01587
5037.70096	0.01587
5035.77229	0.01589
5033.84361	0.01594
5031.91493	0.01598
5029.98626	0.01601
5028.05758	0.01603
5026.12891	0.01605
5024.20023	0.01609
5022.27156	0.01613
5020.34288	0.01616
5018.41420	0.01618
5016.48553	0.01622
5014.55685	0.01626
5012.62818	0.01630
5010.69950	0.01633
5008.77083	0.01635
5006.84215	0.01636
5004.91347	0.01638
5002.98480	0.01638
5001.05612	0.01639
4999.12745	0.01640
4997.19877	0.01644
4995.27010	0.01648
4993.34142	0.01651
4991.41274	0.01653
4989.48407	0.01656
4987.55539	0.01659
4985.62672	0.01662
4983.69804	0.01664
4981.76937	0.01666
4979.84069	0.01668
4977.91201	0.01672
4975.98334	0.01678
4974.05466	0.01681
4972.12599	0.01681
4970.19731	0.01684
4968.26864	0.01688
4966.33996	0.01690
4964.41128	0.01692
4962.48261	0.01694
4960.55393	0.01697
4958.62526	0.01699
4956.69658	0.01700
4954.76791	0.01701
4952.83923	0.01704
4950.91055	0.01708
4948.98188	0.01712
4947.05320	0.01715
4945.12453	0.01716
4943.19585	0.01717
4941.26718	0.01721
4939.33850	0.01725
4937.40982	0.01729
4935.48115	0.01731
4933.55247	0.01735
4931.62380	0.01739
4929.69512	0.01741
4927.76645	0.01743
4925.83777	0.01747
4923.90909	0.01749
4921.98042	0.01751
4920.05174	0.01753
4918.12307	0.01756
4916.19439	0.01759
4914.26572	0.01762
4912.33704	0.01765
4910.40836	0.01765
4908.47969	0.01767
4906.55101	0.01770
4904.62234	0.01774
4902.69366	0.01779
4900.76499	0.01784
4898.83631	0.01786
4896.90763	0.01786
4894.97896	0.01787
4893.05028	0.01792
4891.12161	0.01796
4889.19293	0.01798
4887.26426	0.01800
4885.33558	0.01802
4883.40690	0.01804
4881.47823	0.01806
4879.54955	0.01809
4877.62088	0.01813
4875.69220	0.01817
4873.76353	0.01820
4871.83485	0.01822
4869.90617	0.01824
4867.97750	0.01825
4866.04882	0.01828
4864.12015	0.01835
4862.19147	0.01842
4860.26280	0.01845
4858.33412	0.01847
4856.40544	0.01849
4854.47677	0.01852
4852.54809	0.01855
4850.61942	0.01857
4848.69074	0.01859
4846.76207	0.01860
4844.83339	0.01863
4842.90471	0.01867
4840.97604	0.01872
4839.04736	0.01875
4837.11869	0.01877
4835.19001	0.01880
4833.26134	0.01884
4831.33266	0.01886
4829.40398	0.01886
4827.47531	0.01889
4825.54663	0.01893
4823.61796	0.01895
4821.68928	0.01897
4819.76061	0.01901
4817.83193	0.01907
4815.90325	0.01912
4813.97458	0.01913
4812.04590	0.01914
4810.11723	0.01916
4808.18855	0.01919
4806.25988	0.01921
4804.33120	0.01926
4802.40252	0.01931
4800.47385	0.01933
4798.54517	0.01934
4796.61650	0.01937
4794.68782	0.01940
4792.75915	0.01944
4790.83047	0.01947
4788.90179	0.01952
4786.97312	0.01957
4785.04444	0.01961
4783.11577	0.01963
4781.18709	0.01964
4779.25842	0.01967
4777.32974	0.01971
4775.40106	0.01975
4773.47239	0.01976
4771.54371	0.01979
4769.61504	0.01982
4767.68636	0.01986
4765.75769	0.01991
4763.82901	0.01996
4761.90033	0.01999
4759.97166	0.02003
4758.04298	0.02006
4756.11431	0.02008
4754.18563	0.02008
4752.25696	0.02011
4750.32828	0.02015
4748.39960	0.02018
4746.47093	0.02019
4744.54225	0.02022
4742.61358	0.02027
4740.68490	0.02031
4738.75623	0.02035
4736.82755	0.02039
4734.89887	0.02041
4732.97020	0.02043
4731.04152	0.02046
4729.11285	0.02049
4727.18417	0.02053
4725.25550	0.02056
4723.32682	0.02059
4721.39814	0.02062
4719.46947	0.02067
4717.54079	0.02071
4715.61212	0.02074
4713.68344	0.02075
4711.75477	0.02078
4709.82609	0.02082
4707.89741	0.02086
4705.96874	0.02089
4704.04006	0.02093
4702.11139	0.02095
4700.18271	0.02096
4698.25404	0.02098
4696.32536	0.02103
4694.39668	0.02108
4692.46801	0.02111
4690.53933	0.02114
4688.61066	0.02119
4686.68198	0.02124
4684.75331	0.02127
4682.82463	0.02130
4680.89595	0.02133
4678.96728	0.02137
4677.03860	0.02139
4675.10993	0.02141
4673.18125	0.02145
4671.25258	0.02149
4669.32390	0.02154
4667.39522	0.02158
4665.46655	0.02161
4663.53787	0.02164
4661.60920	0.02167
4659.68052	0.02173
4657.75185	0.02178
4655.82317	0.02181
4653.89449	0.02183
4651.96582	0.02186
4650.03714	0.02191
4648.10847	0.02194
4646.17979	0.02197
4644.25112	0.02200
4642.32244	0.02203
4640.39376	0.02206
4638.46509	0.02210
4636.53641	0.02215
4634.60774	0.02218
4632.67906	0.02220
4630.75039	0.02222
4628.82171	0.02226
4626.89303	0.02230
4624.96436	0.02232
4623.03568	0.02234
4621.10701	0.02239
4619.17833	0.02243
4617.24966	0.02246
4615.32098	0.02251
4613.39230	0.02255
4611.46363	0.02258
4609.53495	0.02260
4607.60628	0.02262
4605.67760	0.02266
4603.74893	0.02272
4601.82025	0.02277
4599.89157	0.02280
4597.96290	0.02283
4596.03422	0.02288
4594.10555	0.02294
4592.17687	0.02298
4590.24820	0.02301
4588.31952	0.02304
4586.39084	0.02309
4584.46217	0.02314
4582.53349	0.02316
4580.60482	0.02320
4578.67614	0.02325
4576.74747	0.02329
4574.81879	0.02331
4572.89011	0.02333
4570.96144	0.02336
4569.03276	0.02340
4567.10409	0.02344
4565.17541	0.02349
4563.24674	0.02355
4561.31806	0.02362
4559.38938	0.02367
4557.46071	0.02371
4555.53203	0.02373
4553.60336	0.02374
4551.67468	0.02376
4549.74601	0.02380
4547.81733	0.02383
4545.88865	0.02388
4543.95998	0.02394
4542.03130	0.02399
4540.10263	0.02403
4538.17395	0.02405
4536.24528	0.02407
4534.31660	0.02410
4532.38792	0.02415
4530.45925	0.02422
4528.53057	0.02426
4526.60190	0.02428
4524.67322	0.02431
4522.74455	0.02436
4520.81587	0.02440
4518.88719	0.02443
4516.95852	0.02445
4515.02984	0.02449
4513.10117	0.02454
4511.17249	0.02457
4509.24382	0.02461
4507.31514	0.02466
4505.38646	0.02471
4503.45779	0.02475
4501.52911	0.02478
4499.60044	0.02483
4497.67176	0.02487
4495.74309	0.02491
4493.81441	0.02495
4491.88573	0.02500
4489.95706	0.02506
4488.02838	0.02511
4486.09971	0.02515
4484.17103	0.02519
4482.24236	0.02525
4480.31368	0.02529
4478.38500	0.02531
4476.45633	0.02533
4474.52765	0.02538
4472.59898	0.02544
4470.67030	0.02550
4468.74163	0.02555
4466.81295	0.02559
4464.88427	0.02563
4462.95560	0.02568
4461.02692	0.02573
4459.09825	0.02577
4457.16957	0.02581
4455.24090	0.02584
4453.31222	0.02589
4451.38354	0.02592
4449.45487	0.02595
4447.52619	0.02598
4445.59752	0.02604
4443.66884	0.02609
4441.74017	0.02613
4439.81149	0.02618
4437.88281	0.02624
4435.95414	0.02631
4434.02546	0.02635
4432.09679	0.02638
4430.16811	0.02642
4428.23944	0.02647
4426.31076	0.02652
4424.38208	0.02656
4422.45341	0.02661
4420.52473	0.02663
4418.59606	0.02666
4416.66738	0.02672
4414.73871	0.02677
4412.81003	0.02681
4410.88135	0.02685
4408.95268	0.02688
4407.02400	0.02692
4405.09533	0.02698
4403.16665	0.02704
4401.23798	0.02710
4399.30930	0.02716
4397.38062	0.02720
4395.45195	0.02723
4393.52327	0.02728
4391.59460	0.02735
4389.66592	0.02741
4387.73725	0.02745
4385.80857	0.02750
4383.87989	0.02755
4381.95122	0.02759
4380.02254	0.02764
4378.09387	0.02770
4376.16519	0.02773
4374.23652	0.02777
4372.30784	0.02782
4370.37916	0.02788
4368.45049	0.02795
4366.52181	0.02802
4364.59314	0.02808
4362.66446	0.02811
4360.73579	0.02813
4358.80711	0.02817
4356.87843	0.02821
4354.94976	0.02826
4353.02108	0.02832
4351.09241	0.02838
4349.16373	0.02842
4347.23506	0.02847
4345.30638	0.02851
4343.37770	0.02854
4341.44903	0.02861
4339.52035	0.02868
4337.59168	0.02873
4335.66300	0.02877
4333.73433	0.02882
4331.80565	0.02886
4329.87697	0.02891
4327.94830	0.02898
4326.01962	0.02903
4324.09095	0.02907
4322.16227	0.02913
4320.23360	0.02920
4318.30492	0.02926
4316.37624	0.02930
4314.44757	0.02934
4312.51889	0.02939
4310.59022	0.02946
4308.66154	0.02953
4306.73287	0.02959
4304.80419	0.02963
4302.87551	0.02966
4300.94684	0.02969
4299.01816	0.02975
4297.08949	0.02982
4295.16081	0.02989
4293.23214	0.02994
4291.30346	0.02998
4289.37478	0.03002
4287.44611	0.03008
4285.51743	0.03016
4283.58876	0.03024
4281.66008	0.03028
4279.73141	0.03033
4277.80273	0.03039
4275.87405	0.03045
4273.94538	0.03049
4272.01670	0.03054
4270.08803	0.03059
4268.15935	0.03064
4266.23068	0.03070
4264.30200	0.03076
4262.37332	0.03083
4260.44465	0.03090
4258.51597	0.03096
4256.58730	0.03099
4254.65862	0.03103
4252.72995	0.03108
4250.80127	0.03113
4248.87259	0.03118
4246.94392	0.03124
4245.01524	0.03131
4243.08657	0.03138
4241.15789	0.03144
4239.22922	0.03149
4237.30054	0.03154
4235.37186	0.03160
4233.44319	0.03168
4231.51451	0.03175
4229.58584	0.03180
4227.65716	0.03184
4225.72849	0.03188
4223.79981	0.03195
4221.87113	0.03201
4219.94246	0.03209
4218.01378	0.03217
4216.08511	0.03225
4214.15643	0.03231
4212.22776	0.03237
4210.29908	0.03241
4208.37040	0.03244
4206.44173	0.03247
4204.51305	0.03251
4202.58438	0.03257
4200.65570	0.03264
4198.72703	0.03271
4196.79835	0.03275
4194.86968	0.03281
4192.94100	0.03288
4191.01232	0.03296
4189.08365	0.03302
4187.15497	0.03308
4185.22630	0.03314
4183.29762	0.03321
4181.36895	0.03328
4179.44027	0.03335
4177.51159	0.03341
4175.58292	0.03345
4173.65424	0.03352
4171.72557	0.03362
4169.79689	0.03369
4167.86822	0.03372
4165.93954	0.03375
4164.01086	0.03381
4162.08219	0.03389
4160.15351	0.03397
4158.22484	0.03404
4156.29616	0.03409
4154.36749	0.03413
4152.43881	0.03420
4150.51013	0.03428
4148.58146	0.03435
4146.65278	0.03441
4144.72411	0.03448
4142.79543	0.03456
4140.86676	0.03464
4138.93808	0.03470
4137.00940	0.03476
4135.08073	0.03480
4133.15205	0.03484
4131.22338	0.03491
4129.29470	0.03499
4127.36603	0.03506
4125.43735	0.03512
4123.50867	0.03520
4121.58000	0.03527
4119.65132	0.03533
4117.72265	0.03539
4115.79397	0.03547
4113.86530	0.03554
4111.93662	0.03561
4110.00794	0.03568
4108.07927	0.03573
4106.15059	0.03581
4104.22192	0.03589
4102.29324	0.03596
4100.36457	0.03601
4098.43589	0.03605
4096.50721	0.03611
4094.57854	0.03617
4092.64986	0.03623
4090.72119	0.03629
4088.79251	0.03638
4086.86384	0.03648
4084.93516	0.03655
4083.00648	0.03659
4081.07781	0.03662
4079.14913	0.03669
4077.22046	0.03679
4075.29178	0.03689
4073.36311	0.03697
4071.43443	0.03702
4069.50575	0.03708
4067.57708	0.03715
4065.64840	0.03721
4063.71973	0.03727
4061.79105	0.03733
4059.86238	0.03741
4057.93370	0.03748
4056.00502	0.03754
4054.07635	0.03763
4052.14767	0.03773
4050.21900	0.03780
4048.29032	0.03785
4046.36165	0.03791
4044.43297	0.03800
4042.50429	0.03809
4040.57562	0.03816
4038.64694	0.03823
4036.71827	0.03828
4034.78959	0.03834
4032.86092	0.03842
4030.93224	0.03850
4029.00356	0.03859
4027.07489	0.03867
4025.14621	0.03875
4023.21754	0.03881
4021.28886	0.03886
4019.36019	0.03889
4017.43151	0.03895
4015.50283	0.03904
4013.57416	0.03913
4011.64548	0.03922
4009.71681	0.03928
4007.78813	0.03934
4005.85946	0.03940
4003.93078	0.03948
4002.00210	0.03957
4000.07343	0.03967
3998.14475	0.03975
3996.21608	0.03983
3994.28740	0.03991
3992.35873	0.03998
3990.43005	0.04004
3988.50137	0.04011
3986.57270	0.04018
3984.64402	0.04024
3982.71535	0.04030
3980.78667	0.04037
3978.85800	0.04044
3976.92932	0.04053
3975.00064	0.04063
3973.07197	0.04072
3971.14329	0.04079
3969.21462	0.04085
3967.28594	0.04094
3965.35727	0.04103
3963.42859	0.04112
3961.49991	0.04120
3959.57124	0.04127
3957.64256	0.04133
3955.71389	0.04138
3953.78521	0.04145
3951.85654	0.04152
3949.92786	0.04160
3947.99918	0.04167
3946.07051	0.04172
3944.14183	0.04178
3942.21316	0.04189
3940.28448	0.04202
3938.35581	0.04212
3936.42713	0.04219
3934.49845	0.04221
3932.56978	0.04225
3930.64110	0.04233
3928.71243	0.04242
3926.78375	0.04249
3924.85508	0.04257
3922.92640	0.04267
3920.99772	0.04275
3919.06905	0.04277
3917.14037	0.04283
3915.21170	0.04296
3913.28302	0.04311
3911.35435	0.04320
3909.42567	0.04326
3907.49699	0.04326
3905.56832	0.04323
3903.63964	0.04321
3901.71097	0.04325
3899.78229	0.04335
3897.85362	0.04354
3895.92494	0.04374
3893.99626	0.04381
3892.06759	0.04384
3890.13891	0.04394
3888.21024	0.04406
3886.28156	0.04410
3884.35289	0.04413
3882.42421	0.04413
3880.49553	0.04419
3878.56686	0.04441
3876.63818	0.04461
3874.70951	0.04468
3872.78083	0.04468
3870.85216	0.04466
3868.92348	0.04470
3866.99480	0.04478
3865.06613	0.04485
3863.13745	0.04498
3861.20878	0.04518
3859.28010	0.04531
3857.35143	0.04517
3855.42275	0.04483
3853.49407	0.04479
3851.56540	0.04522
3849.63672	0.04566
3847.70805	0.04588
3845.77937	0.04596
3843.85070	0.04600
3841.92202	0.04604
3839.99334	0.04607
3838.06467	0.04609
3836.13599	0.04612
3834.20732	0.04621
3832.27864	0.04636
3830.34997	0.04654
3828.42129	0.04667
3826.49261	0.04676
3824.56394	0.04682
3822.63526	0.04681
3820.70659	0.04682
3818.77791	0.04691
3816.84924	0.04700
3814.92056	0.04718
3812.99188	0.04745
3811.06321	0.04762
3809.13453	0.04766
3807.20586	0.04768
3805.27718	0.04771
3803.34851	0.04768
3801.41983	0.04768
3799.49115	0.04786
3797.56248	0.04807
3795.63380	0.04823
3793.70513	0.04837
3791.77645	0.04849
3789.84778	0.04857
3787.91910	0.04864
3785.99042	0.04874
3784.06175	0.04883
3782.13307	0.04886
3780.20440	0.04887
3778.27572	0.04899
3776.34705	0.04917
3774.41837	0.04930
3772.48969	0.04934
3770.56102	0.04938
3768.63234	0.04947
3766.70367	0.04961
3764.77499	0.04972
3762.84632	0.04976
3760.91764	0.04973
3758.98896	0.04974
3757.06029	0.04982
3755.13161	0.04982
3753.20294	0.04969
3751.27426	0.04964
3749.34559	0.04980
3747.41691	0.04985
3745.48823	0.04975
3743.55956	0.04993
3741.63088	0.05038
3739.70221	0.05060
3737.77353	0.05054
3735.84486	0.05054
3733.91618	0.05071
3731.98750	0.05097
3730.05883	0.05118
3728.13015	0.05126
3726.20148	0.05130
3724.27280	0.05138
3722.34413	0.05149
3720.41545	0.05163
3718.48677	0.05180
3716.55810	0.05193
3714.62942	0.05195
3712.70075	0.05191
3710.77207	0.05196
3708.84340	0.05216
3706.91472	0.05239
3704.98604	0.05252
3703.05737	0.05258
3701.12869	0.05265
3699.20002	0.05277
3697.27134	0.05291
3695.34267	0.05299
3693.41399	0.05295
3691.48531	0.05283
3689.55664	0.05281
3687.62796	0.05302
3685.69929	0.05333
3683.77061	0.05352
3681.84194	0.05358
3679.91326	0.05358
3677.98458	0.05351
3676.05591	0.05351
3674.12723	0.05365
3672.19856	0.05377
3670.26988	0.05382
3668.34121	0.05400
3666.41253	0.05427
3664.48385	0.05444
3662.55518	0.05450
3660.62650	0.05454
3658.69783	0.05459
3656.76915	0.05464
3654.84048	0.05468
3652.91180	0.05457
3650.98312	0.05434
3649.05445	0.05422
3647.12577	0.05437
3645.19710	0.05475
3643.26842	0.05509
3641.33975	0.05527
3639.41107	0.05537
3637.48239	0.05547
3635.55372	0.05556
3633.62504	0.05561
3631.69637	0.05553
3629.76769	0.05538
3627.83902	0.05547
3625.91034	0.05578
3623.98166	0.05595
3622.05299	0.05593
3620.12431	0.05588
3618.19564	0.05594
3616.26696	0.05602
3614.33829	0.05606
3612.40961	0.05605
3610.48093	0.05603
3608.55226	0.05613
3606.62358	0.05637
3604.69491	0.05660
3602.76623	0.05670
3600.83756	0.05674
3598.90888	0.05679
3596.98020	0.05687
3595.05153	0.05697
3593.12285	0.05708
3591.19418	0.05711
3589.26550	0.05701
3587.33683	0.05696
3585.40815	0.05714
3583.47947	0.05736
3581.55080	0.05748
3579.62212	0.05755
3577.69345	0.05763
3575.76477	0.05773
3573.83610	0.05783
3571.90742	0.05787
3569.97874	0.05778
3568.05007	0.05770
3566.12139	0.05781
3564.19272	0.05804
3562.26404	0.05822
3560.33537	0.05833
3558.40669	0.05840
3556.47801	0.05846
3554.54934	0.05851
3552.62066	0.05858
3550.69199	0.05865
3548.76331	0.05870
3546.83464	0.05872
3544.90596	0.05879
3542.97728	0.05892
3541.04861	0.05904
3539.11993	0.05910
3537.19126	0.05912
3535.26258	0.05916
3533.33391	0.05922
3531.40523	0.05925
3529.47655	0.05926
3527.54788	0.05926
3525.61920	0.05929
3523.69053	0.05933
3521.76185	0.05939
3519.83318	0.05948
3517.90450	0.05956
3515.97582	0.05964
3514.04715	0.05968
3512.11847	0.05969
3510.18980	0.05970
3508.26112	0.05973
3506.33245	0.05975
3504.40377	0.05975
3502.47509	0.05977
3500.54642	0.05982
3498.61774	0.05988
3496.68907	0.05991
3494.76039	0.05994
3492.83172	0.05997
3490.90304	0.05999
3488.97436	0.06000
3487.04569	0.06003
3485.11701	0.06009
3483.18834	0.06013
3481.25966	0.06018
3479.33099	0.06023
3477.40231	0.06029
3475.47363	0.06035
3473.54496	0.06044
3471.61628	0.06055
3469.68761	0.06067
3467.75893	0.06078
3465.83026	0.06087
3463.90158	0.06094
3461.97290	0.06102
3460.04423	0.06110
3458.11555	0.06120
3456.18688	0.06130
3454.25820	0.06141
3452.32953	0.06152
3450.40085	0.06161
3448.47217	0.06166
3446.54350	0.06172
3444.61482	0.06187
3442.68615	0.06204
3440.75747	0.06218
3438.82880	0.06229
3436.90012	0.06241
3434.97144	0.06255
3433.04277	0.06273
3431.11409	0.06294
3429.18542	0.06313
3427.25674	0.06332
3425.32807	0.06353
3423.39939	0.06372
3421.47071	0.06391
3419.54204	0.06411
3417.61336	0.06431
3415.68469	0.06448
3413.75601	0.06464
3411.82734	0.06478
3409.89866	0.06492
3407.96998	0.06503
3406.04131	0.06514
3404.11263	0.06527
3402.18396	0.06543
3400.25528	0.06557
3398.32661	0.06568
3396.39793	0.06579
3394.46925	0.06592
3392.54058	0.06607
3390.61190	0.06624
3388.68323	0.06637
3386.75455	0.06648
3384.82588	0.06658
3382.89720	0.06673
3380.96852	0.06687
3379.03985	0.06701
3377.11117	0.06715
3375.18250	0.06729
3373.25382	0.06740
3371.32515	0.06751
3369.39647	0.06761
3367.46779	0.06770
3365.53912	0.06780
3363.61044	0.06792
3361.68177	0.06807
3359.75309	0.06823
3357.82442	0.06838
3355.89574	0.06851
3353.96706	0.06862
3352.03839	0.06873
3350.10971	0.06885
3348.18104	0.06896
3346.25236	0.06906
3344.32369	0.06919
3342.39501	0.06933
3340.46633	0.06946
3338.53766	0.06957
3336.60898	0.06970
3334.68031	0.06984
3332.75163	0.06995
3330.82296	0.07007
3328.89428	0.07020
3326.96560	0.07032
3325.03693	0.07045
3323.10825	0.07059
3321.17958	0.07072
3319.25090	0.07084
3317.32223	0.07096
3315.39355	0.07107
3313.46487	0.07121
3311.53620	0.07133
3309.60752	0.07144
3307.67885	0.07157
3305.75017	0.07170
3303.82150	0.07183
3301.89282	0.07197
3299.96414	0.07212
3298.03547	0.07226
3296.10679	0.07238
3294.17812	0.07249
3292.24944	0.07262
3290.32077	0.07277
3288.39209	0.07291
3286.46341	0.07303
3284.53474	0.07313
3282.60606	0.07325
3280.67739	0.07340
3278.74871	0.07356
3276.82004	0.07370
3274.89136	0.07383
3272.96268	0.07394
3271.03401	0.07405
3269.10533	0.07419
3267.17666	0.07434
3265.24798	0.07449
3263.31931	0.07463
3261.39063	0.07474
3259.46195	0.07484
3257.53328	0.07499
3255.60460	0.07517
3253.67593	0.07533
3251.74725	0.07548
3249.81858	0.07561
3247.88990	0.07572
3245.96122	0.07582
3244.03255	0.07594
3242.10387	0.07608
3240.17520	0.07622
3238.24652	0.07637
3236.31785	0.07651
3234.38917	0.07664
3232.46049	0.07681
3230.53182	0.07696
3228.60314	0.07708
3226.67447	0.07721
3224.74579	0.07737
3222.81712	0.07752
3220.88844	0.07763
3218.95976	0.07773
3217.03109	0.07784
3215.10241	0.07800
3213.17374	0.07815
3211.24506	0.07826
3209.31639	0.07836
3207.38771	0.07847
3205.45903	0.07862
3203.53036	0.07877
3201.60168	0.07891
3199.67301	0.07906
3197.74433	0.07924
3195.81566	0.07944
3193.88698	0.07961
3191.95830	0.07974
3190.02963	0.07986
3188.10095	0.07997
3186.17228	0.08009
3184.24360	0.08025
3182.31493	0.08042
3180.38625	0.08056
3178.45757	0.08067
3176.52890	0.08080
3174.60022	0.08099
3172.67155	0.08117
3170.74287	0.08128
3168.81420	0.08136
3166.88552	0.08148
3164.95684	0.08163
3163.02817	0.08179
3161.09949	0.08194
3159.17082	0.08208
3157.24214	0.08220
3155.31347	0.08233
3153.38479	0.08246
3151.45611	0.08262
3149.52744	0.08279
3147.59876	0.08293
3145.67009	0.08305
3143.74141	0.08317
3141.81274	0.08332
3139.88406	0.08347
3137.95538	0.08360
3136.02671	0.08371
3134.09803	0.08383
3132.16936	0.08400
3130.24068	0.08418
3128.31201	0.08430
3126.38333	0.08439
3124.45465	0.08452
3122.52598	0.08469
3120.59730	0.08485
3118.66863	0.08497
3116.73995	0.08508
3114.81128	0.08522
3112.88260	0.08538
3110.95392	0.08554
3109.02525	0.08569
3107.09657	0.08584
3105.16790	0.08596
3103.23922	0.08607
3101.31055	0.08622
3099.38187	0.08638
3097.45319	0.08655
3095.52452	0.08671
3093.59584	0.08685
3091.66717	0.08698
3089.73849	0.08712
3087.80982	0.08725
3085.88114	0.08741
3083.95246	0.08759
3082.02379	0.08774
3080.09511	0.08785
3078.16644	0.08799
3076.23776	0.08815
3074.30909	0.08829
3072.38041	0.08840
3070.45173	0.08851
3068.52306	0.08865
3066.59438	0.08882
3064.66571	0.08897
3062.73703	0.08907
3060.80836	0.08917
3058.87968	0.08929
3056.95100	0.08943
3055.02233	0.08958
3053.09365	0.08972
3051.16498	0.08986
3049.23630	0.09000
3047.30763	0.09016
3045.37895	0.09032
3043.45027	0.09047
3041.52160	0.09060
3039.59292	0.09072
3037.66425	0.09084
3035.73557	0.09098
3033.80690	0.09110
3031.87822	0.09121
3029.94954	0.09133
3028.02087	0.09148
3026.09219	0.09166
3024.16352	0.09184
3022.23484	0.09198
3020.30617	0.09211
3018.37749	0.09225
3016.44881	0.09238
3014.52014	0.09251
3012.59146	0.09265
3010.66279	0.09277
3008.73411	0.09290
3006.80544	0.09303
3004.87676	0.09317
3002.94808	0.09332
3001.01941	0.09346
2999.09073	0.09357
2997.16206	0.09368
2995.23338	0.09380
2993.30471	0.09393
2991.37603	0.09407
2989.44735	0.09421
2987.51868	0.09433
2985.59000	0.09441
2983.66133	0.09445
2981.73265	0.09447
2979.80398	0.09454
2977.87530	0.09466
2975.94662	0.09477
2974.01795	0.09480
2972.08927	0.09479
2970.16060	0.09476
2968.23192	0.09473
2966.30325	0.09470
2964.37457	0.09470
2962.44589	0.09477
2960.51722	0.09492
2958.58854	0.09512
2956.65987	0.09531
2954.73119	0.09549
2952.80252	0.09567
2950.87384	0.09583
2948.94516	0.09597
2947.01649	0.09607
2945.08781	0.09614
2943.15914	0.09621
2941.23046	0.09629
2939.30179	0.09634
2937.37311	0.09634
2935.44443	0.09630
2933.51576	0.09628
2931.58708	0.09626
2929.65841	0.09624
2927.72973	0.09620
2925.80106	0.09618
2923.87238	0.09618
2921.94370	0.09620
2920.01503	0.09628
2918.08635	0.09645
2916.15768	0.09676
2914.22900	0.09718
2912.30033	0.09766
2910.37165	0.09807
2908.44297	0.09841
2906.51430	0.09868
2904.58562	0.09892
2902.65695	0.09916
2900.72827	0.09941
2898.79960	0.09963
2896.87092	0.09981
2894.94224	0.09998
2893.01357	0.10016
2891.08489	0.10036
2889.15622	0.10057
2887.22754	0.10078
2885.29887	0.10099
2883.37019	0.10116
2881.44151	0.10129
2879.51284	0.10142
2877.58416	0.10153
2875.65549	0.10164
2873.72681	0.10175
2871.79814	0.10188
2869.86946	0.10203
2867.94078	0.10215
2866.01211	0.10223
2864.08343	0.10230
2862.15476	0.10240
2860.22608	0.10248
2858.29741	0.10251
2856.36873	0.10248
2854.44005	0.10245
2852.51138	0.10244
2850.58270	0.10251
2848.65403	0.10279
2846.72535	0.10328
2844.79668	0.10378
2842.86800	0.10417
2840.93932	0.10450
2839.01065	0.10480
2837.08197	0.10507
2835.15330	0.10527
2833.22462	0.10541
2831.29595	0.10555
2829.36727	0.10572
2827.43859	0.10591
2825.50992	0.10612
2823.58124	0.10633
2821.65257	0.10648
2819.72389	0.10663
2817.79522	0.10681
2815.86654	0.10699
2813.93786	0.10716
2812.00919	0.10732
2810.08051	0.10747
2808.15184	0.10761
2806.22316	0.10775
2804.29449	0.10793
2802.36581	0.10810
2800.43713	0.10825
2798.50846	0.10839
2796.57978	0.10852
2794.65111	0.10868
2792.72243	0.10884
2790.79376	0.10900
2788.86508	0.10916
2786.93640	0.10932
2785.00773	0.10947
2783.07905	0.10960
2781.15038	0.10972
2779.22170	0.10985
2777.29303	0.11001
2775.36435	0.11018
2773.43567	0.11035
2771.50700	0.11051
2769.57832	0.11067
2767.64965	0.11083
2765.72097	0.11096
2763.79230	0.11108
2761.86362	0.11121
2759.93494	0.11138
2758.00627	0.11159
2756.07759	0.11180
2754.14892	0.11198
2752.22024	0.11211
2750.29157	0.11221
2748.36289	0.11231
2746.43421	0.11241
2744.50554	0.11254
2742.57686	0.11269
2740.64819	0.11285
2738.71951	0.11300
2736.79084	0.11315
2734.86216	0.11330
2732.93348	0.11345
2731.00481	0.11360
2729.07613	0.11374
2727.14746	0.11387
2725.21878	0.11402
2723.29011	0.11419
2721.36143	0.11434
2719.43275	0.11448
2717.50408	0.11460
2715.57540	0.11473
2713.64673	0.11490
2711.71805	0.11505
2709.78938	0.11519
2707.86070	0.11533
2705.93202	0.11546
2704.00335	0.11561
2702.07467	0.11579
2700.14600	0.11594
2698.21732	0.11605
2696.28865	0.11618
2694.35997	0.11632
2692.43129	0.11645
2690.50262	0.11654
2688.57394	0.11666
2686.64527	0.11684
2684.71659	0.11702
2682.78792	0.11718
2680.85924	0.11734
2678.93056	0.11749
2677.00189	0.11762
2675.07321	0.11775
2673.14454	0.11789
2671.21586	0.11802
2669.28719	0.11814
2667.35851	0.11829
2665.42983	0.11847
2663.50116	0.11865
2661.57248	0.11881
2659.64381	0.11898
2657.71513	0.11913
2655.78646	0.11926
2653.85778	0.11938
2651.92910	0.11954
2650.00043	0.11972
2648.07175	0.11988
2646.14308	0.12003
2644.21440	0.12018
2642.28573	0.12030
2640.35705	0.12042
2638.42837	0.12057
2636.49970	0.12071
2634.57102	0.12087
2632.64235	0.12108
2630.71367	0.12127
2628.78500	0.12137
2626.85632	0.12146
2624.92764	0.12164
2622.99897	0.12186
2621.07029	0.12205
2619.14162	0.12219
2617.21294	0.12232
2615.28427	0.12247
2613.35559	0.12263
2611.42691	0.12281
2609.49824	0.12300
2607.56956	0.12318
2605.64089	0.12332
2603.71221	0.12346
2601.78354	0.12359
2599.85486	0.12371
2597.92618	0.12386
2595.99751	0.12405
2594.06883	0.12423
2592.14016	0.12436
2590.21148	0.12448
2588.28281	0.12461
2586.35413	0.12476
2584.42545	0.12493
2582.49678	0.12508
2580.56810	0.12521
2578.63943	0.12536
2576.71075	0.12552
2574.78208	0.12566
2572.85340	0.12579
2570.92472	0.12595
2568.99605	0.12614
2567.06737	0.12629
2565.13870	0.12641
2563.21002	0.12653
2561.28135	0.12669
2559.35267	0.12686
2557.42399	0.12704
2555.49532	0.12720
2553.56664	0.12734
2551.63797	0.12746
2549.70929	0.12759
2547.78062	0.12773
2545.85194	0.12789
2543.92326	0.12805
2541.99459	0.12824
2540.06591	0.12842
2538.13724	0.12856
2536.20856	0.12868
2534.27989	0.12881
2532.35121	0.12894
2530.42253	0.12907
2528.49386	0.12922
2526.56518	0.12939
2524.63651	0.12956
2522.70783	0.12974
2520.77916	0.12992
2518.85048	0.13010
2516.92181	0.13026
2514.99313	0.13040
2513.06445	0.13055
2511.13578	0.13071
2509.20710	0.13089
2507.27843	0.13105
2505.34975	0.13122
2503.42108	0.13140
2501.49240	0.13157
2499.56372	0.13169
2497.63505	0.13181
2495.70637	0.13198
2493.77770	0.13219
2491.84902	0.13238
2489.92035	0.13252
2487.99167	0.13269
2486.06299	0.13288
2484.13432	0.13306
2482.20564	0.13323
2480.27697	0.13341
2478.34829	0.13357
2476.41962	0.13371
2474.49094	0.13387
2472.56226	0.13403
2470.63359	0.13415
2468.70491	0.13426
2466.77624	0.13442
2464.84756	0.13464
2462.91889	0.13482
2460.99021	0.13495
2459.06153	0.13506
2457.13286	0.13520
2455.20418	0.13536
2453.27551	0.13554
2451.34683	0.13573
2449.41816	0.13591
2447.48948	0.13607
2445.56080	0.13624
2443.63213	0.13644
2441.70345	0.13662
2439.77478	0.13677
2437.84610	0.13690
2435.91743	0.13706
2433.98875	0.13721
2432.06007	0.13736
2430.13140	0.13749
2428.20272	0.13763
2426.27405	0.13776
2424.34537	0.13790
2422.41670	0.13806
2420.48802	0.13822
2418.55934	0.13841
2416.63067	0.13861
2414.70199	0.13879
2412.77332	0.13899
2410.84464	0.13921
2408.91597	0.13940
2406.98729	0.13955
2405.05861	0.13968
2403.12994	0.13981
2401.20126	0.13994
2399.27259	0.14008
2397.34391	0.14021
2395.41524	0.14035
2393.48656	0.14050
2391.55788	0.14067
2389.62921	0.14082
2387.70053	0.14094
2385.77186	0.14104
2383.84318	0.14116
2381.91451	0.14128
2379.98583	0.14140
2378.05715	0.14149
2376.12848	0.14157
2374.19980	0.14165
2372.27113	0.14170
2370.34245	0.14168
2368.41378	0.14165
2366.48510	0.14168
2364.55642	0.14176
2362.62775	0.14191
2360.69907	0.14212
2358.77040	0.14237
2356.84172	0.14264
2354.91305	0.14290
2352.98437	0.14317
2351.05569	0.14348
2349.12702	0.14376
2347.19834	0.14388
2345.26967	0.14389
2343.34099	0.14394
2341.41232	0.14406
2339.48364	0.14420
2337.55496	0.14429
2335.62629	0.14438
2333.69761	0.14452
2331.76894	0.14469
2329.84026	0.14487
2327.91159	0.14509
2325.98291	0.14531
2324.05423	0.14553
2322.12556	0.14576
2320.19688	0.14597
2318.26821	0.14619
2316.33953	0.14643
2314.41086	0.14666
2312.48218	0.14685
2310.55350	0.14705
2308.62483	0.14725
2306.69615	0.14747
2304.76748	0.14771
2302.83880	0.14791
2300.91013	0.14803
2298.98145	0.14814
2297.05277	0.14832
2295.12410	0.14853
2293.19542	0.14874
2291.26675	0.14894
2289.33807	0.14914
2287.40940	0.14929
2285.48072	0.14941
2283.55204	0.14953
2281.62337	0.14967
2279.69469	0.14983
2277.76602	0.14999
2275.83734	0.15014
2273.90867	0.15030
2271.97999	0.15048
2270.05131	0.15066
2268.12264	0.15084
2266.19396	0.15099
2264.26529	0.15112
2262.33661	0.15124
2260.40794	0.15137
2258.47926	0.15156
2256.55058	0.15177
2254.62191	0.15193
2252.69323	0.15207
2250.76456	0.15222
2248.83588	0.15238
2246.90721	0.15253
2244.97853	0.15269
2243.04985	0.15284
2241.12118	0.15299
2239.19250	0.15315
2237.26383	0.15331
2235.33515	0.15345
2233.40648	0.15359
2231.47780	0.15373
2229.54912	0.15385
2227.62045	0.15399
2225.69177	0.15415
2223.76310	0.15433
2221.83442	0.15453
2219.90575	0.15472
2217.97707	0.15490
2216.04839	0.15507
2214.11972	0.15520
2212.19104	0.15534
2210.26237	0.15553
2208.33369	0.15573
2206.40502	0.15588
2204.47634	0.15602
2202.54766	0.15617
2200.61899	0.15634
2198.69031	0.15650
2196.76164	0.15662
2194.83296	0.15674
2192.90429	0.15688
2190.97561	0.15702
2189.04693	0.15716
2187.11826	0.15731
2185.18958	0.15750
2183.26091	0.15770
2181.33223	0.15786
2179.40356	0.15797
2177.47488	0.15809
2175.54620	0.15824
2173.61753	0.15844
2171.68885	0.15863
2169.76018	0.15878
2167.83150	0.15894
2165.90283	0.15911
2163.97415	0.15925
2162.04547	0.15940
2160.11680	0.15958
2158.18812	0.15977
2156.25945	0.15995
2154.33077	0.16011
2152.40210	0.16028
2150.47342	0.16046
2148.54474	0.16063
2146.61607	0.16078
2144.68739	0.16094
2142.75872	0.16112
2140.83004	0.16126
2138.90137	0.16140
2136.97269	0.16155
2135.04401	0.16171
2133.11534	0.16189
2131.18666	0.16206
2129.25799	0.16224
2127.32931	0.16243
2125.40064	0.16258
2123.47196	0.16270
2121.54328	0.16286
2119.61461	0.16306
2117.68593	0.16325
2115.75726	0.16342
2113.82858	0.16356
2111.89991	0.16370
2109.97123	0.16383
2108.04255	0.16394
2106.11388	0.16409
2104.18520	0.16430
2102.25653	0.16455
2100.32785	0.16475
2098.39918	0.16487
2096.47050	0.16499
2094.54182	0.16515
2092.61315	0.16530
2090.68447	0.16544
2088.75580	0.16560
2086.82712	0.16579
2084.89845	0.16598
2082.96977	0.16613
2081.04109	0.16625
2079.11242	0.16638
2077.18374	0.16656
2075.25507	0.16674
2073.32639	0.16690
2071.39772	0.16707
2069.46904	0.16723
2067.54036	0.16737
2065.61169	0.16753
2063.68301	0.16774
2061.75434	0.16792
2059.82566	0.16807
2057.89699	0.16822
2055.96831	0.16839
2054.03963	0.16857
2052.11096	0.16871
2050.18228	0.16882
2048.25361	0.16897
2046.32493	0.16917
2044.39626	0.16937
2042.46758	0.16955
2040.53890	0.16971
2038.61023	0.16986
2036.68155	0.17002
2034.75288	0.17019
2032.82420	0.17037
2030.89553	0.17054
2028.96685	0.17072
2027.03817	0.17089
2025.10950	0.17104
2023.18082	0.17120
2021.25215	0.17135
2019.32347	0.17144
2017.39480	0.17157
2015.46612	0.17179
2013.53744	0.17201
2011.60877	0.17216
2009.68009	0.17229
2007.75142	0.17244
2005.82274	0.17261
2003.89407	0.17278
2001.96539	0.17295
2000.03671	0.17309
1998.10804	0.17323
1996.17936	0.17338
1994.25069	0.17351
1992.32201	0.17361
1990.39334	0.17375
1988.46466	0.17388
1986.53598	0.17403
1984.60731	0.17420
1982.67863	0.17435
1980.74996	0.17445
1978.82128	0.17457
1976.89261	0.17476
1974.96393	0.17492
1973.03525	0.17505
1971.10658	0.17517
1969.17790	0.17527
1967.24923	0.17540
1965.32055	0.17562
1963.39188	0.17581
1961.46320	0.17590
1959.53452	0.17599
1957.60585	0.17613
1955.67717	0.17630
1953.74850	0.17648
1951.81982	0.17668
1949.89115	0.17687
1947.96247	0.17700
1946.03379	0.17708
1944.10512	0.17714
1942.17644	0.17728
1940.24777	0.17756
1938.31909	0.17784
1936.39042	0.17804
1934.46174	0.17817
1932.53306	0.17829
1930.60439	0.17843
1928.67571	0.17858
1926.74704	0.17870
1924.81836	0.17878
1922.88969	0.17888
1920.96101	0.17900
1919.03233	0.17909
1917.10366	0.17927
1915.17498	0.17955
1913.24631	0.17976
1911.31763	0.17988
1909.38896	0.18003
1907.46028	0.18027
1905.53160	0.18051
1903.60293	0.18069
1901.67425	0.18084
1899.74558	0.18099
1897.81690	0.18110
1895.88823	0.18116
1893.95955	0.18125
1892.03087	0.18134
1890.10220	0.18142
1888.17352	0.18159
1886.24485	0.18184
1884.31617	0.18207
1882.38750	0.18227
1880.45882	0.18245
1878.53014	0.18259
1876.60147	0.18271
1874.67279	0.18283
1872.74412	0.18292
1870.81544	0.18288
1868.88677	0.18284
1866.95809	0.18307
1865.02941	0.18349
1863.10074	0.18381
1861.17206	0.18400
1859.24339	0.18417
1857.31471	0.18434
1855.38604	0.18453
1853.45736	0.18472
1851.52868	0.18487
1849.60001	0.18489
1847.67133	0.18471
1845.74266	0.18443
1843.81398	0.18455
1841.88531	0.18515
1839.95663	0.18564
1838.02795	0.18580
1836.09928	0.18593
1834.17060	0.18610
1832.24193	0.18610
1830.31325	0.18603
1828.38458	0.18609
1826.45590	0.18621
1824.52722	0.18649
1822.59855	0.18699
1820.66987	0.18735
1818.74120	0.18750
1816.81252	0.18764
1814.88385	0.18776
1812.95517	0.18774
1811.02649	0.18772
1809.09782	0.18792
1807.16914	0.18823
1805.24047	0.18835
1803.31179	0.18824
1801.38312	0.18819
1799.45444	0.18841
1797.52576	0.18871
1795.59709	0.18882
1793.66841	0.18873
1791.73974	0.18873
1789.81106	0.18905
1787.88239	0.18943
1785.95371	0.18960
1784.02503	0.18966
1782.09636	0.18969
1780.16768	0.18979
1778.23901	0.18994
1776.31033	0.18998
1774.38166	0.18984
1772.45298	0.18971
1770.52430	0.18966
1768.59563	0.18979
1766.66695	0.19023
1764.73828	0.19067
1762.80960	0.19077
1760.88093	0.19076
1758.95225	0.19072
1757.02357	0.19075
1755.09490	0.19096
1753.16622	0.19098
1751.23755	0.19063
1749.30887	0.19040
1747.38020	0.19055
1745.45152	0.19083
1743.52284	0.19102
1741.59417	0.19107
1739.66549	0.19104
1737.73682	0.19084
1735.80814	0.19027
1733.87947	0.18991
1731.95079	0.19027
1730.02211	0.19093
1728.09344	0.19152
1726.16476	0.19193
1724.23609	0.19205
1722.30741	0.19194
1720.37874	0.19150
1718.45006	0.19108
1716.52138	0.19122
1714.59271	0.19179
1712.66403	0.19239
1710.73536	0.19279
1708.80668	0.19290
1706.87801	0.19285
1704.94933	0.19284
1703.02065	0.19256
1701.09198	0.19201
1699.16330	0.19178
1697.23463	0.19186
1695.30595	0.19220
1693.37728	0.19299
1691.44860	0.19351
1689.51992	0.19346
1687.59125	0.19310
1685.66257	0.19255
1683.73390	0.19238
1681.80522	0.19288
1679.87655	0.19348
1677.94787	0.19371
1676.01919	0.19364
1674.09052	0.19359
1672.16184	0.19344
1670.23317	0.19313
1668.30449	0.19328
1666.37582	0.19387
1664.44714	0.19418
1662.51846	0.19421
1660.58979	0.19436
1658.66111	0.19445
1656.73244	0.19393
1654.80376	0.19288
1652.87509	0.19255
1650.94641	0.19332
1649.01773	0.19380
1647.08906	0.19361
1645.16038	0.19378
1643.23171	0.19435
1641.30303	0.19465
1639.37436	0.19451
1637.44568	0.19415
1635.51700	0.19405
1633.58833	0.19453
1631.65965	0.19506
1629.73098	0.19514
1627.80230	0.19496
1625.87363	0.19458
1623.94495	0.19408
1622.01627	0.19384
1620.08760	0.19396
1618.15892	0.19429
1616.23025	0.19490
1614.30157	0.19564
1612.37290	0.19618
1610.44422	0.19649
1608.51554	0.19673
1606.58687	0.19695
1604.65819	0.19712
1602.72952	0.19730
1600.80084	0.19754
1598.87217	0.19778
1596.94349	0.19797
1595.01481	0.19819
1593.08614	0.19841
1591.15746	0.19858
1589.22879	0.19873
1587.30011	0.19887
1585.37144	0.19902
1583.44276	0.19917
1581.51408	0.19934
1579.58541	0.19935
1577.65673	0.19921
1575.72806	0.19928
1573.79938	0.19956
1571.87071	0.19948
1569.94203	0.19926
1568.01335	0.19952
1566.08468	0.20001
1564.15600	0.20029
1562.22733	0.20008
1560.29865	0.19924
1558.36998	0.19867
1556.44130	0.19911
1554.51262	0.19991
1552.58395	0.20046
1550.65527	0.20076
1548.72660	0.20105
1546.79792	0.20126
1544.86925	0.20107
1542.94057	0.20053
1541.01189	0.20005
1539.08322	0.20017
1537.15454	0.20092
1535.22587	0.20147
1533.29719	0.20159
1531.36852	0.20175
1529.43984	0.20190
1527.51116	0.20192
1525.58249	0.20196
1523.65381	0.20178
1521.72514	0.20134
1519.79646	0.20119
1517.86779	0.20146
1515.93911	0.20176
1514.01043	0.20191
1512.08176	0.20189
1510.15308	0.20170
1508.22441	0.20151
1506.29573	0.20180
1504.36706	0.20256
1502.43838	0.20310
1500.50970	0.20310
1498.58103	0.20286
1496.65235	0.20279
1494.72368	0.20298
1492.79500	0.20295
1490.86633	0.20250
1488.93765	0.20230
1487.00897	0.20261
1485.08030	0.20290
1483.15162	0.20280
1481.22295	0.20253
1479.29427	0.20227
1477.36560	0.20190
1475.43692	0.20132
1473.50824	0.20085
1471.57957	0.20075
1469.65089	0.20080
1467.72222	0.20062
1465.79354	0.20029
1463.86487	0.20008
1461.93619	0.19984
1460.00751	0.19925
1458.07884	0.19860
1456.15016	0.19850
1454.22149	0.19890
1452.29281	0.19923
1450.36414	0.19925
1448.43546	0.19922
1446.50678	0.19943
1444.57811	0.19979
1442.64943	0.20003
1440.72076	0.20005
1438.79208	0.19974
1436.86341	0.19948
1434.93473	0.19976
1433.00605	0.20025
1431.07738	0.20054
1429.14870	0.20075
1427.22003	0.20084
1425.29135	0.20074
1423.36268	0.20064
1421.43400	0.20055
1419.50532	0.20043
1417.57665	0.20053
1415.64797	0.20088
1413.71930	0.20112
1411.79062	0.20119
1409.86195	0.20122
1407.93327	0.20112
1406.00459	0.20092
1404.07592	0.20090
1402.14724	0.20099
1400.21857	0.20089
1398.28989	0.20066
1396.36122	0.20049
1394.43254	0.20046
1392.50386	0.20058
1390.57519	0.20062
1388.64651	0.20039
1386.71784	0.20009
1384.78916	0.19996
1382.86049	0.19995
1380.93181	0.19997
1379.00313	0.19996
1377.07446	0.19984
1375.14578	0.19970
1373.21711	0.19975
1371.28843	0.19992
1369.35976	0.19997
1367.43108	0.19988
1365.50240	0.19961
1363.57373	0.19933
1361.64505	0.19945
1359.71638	0.19983
1357.78770	0.20007
1355.85903	0.20012
1353.93035	0.20014
1352.00167	0.20019
1350.07300	0.20027
1348.14432	0.20038
1346.21565	0.20049
1344.28697	0.20051
1342.35830	0.20032
1340.42962	0.20008
1338.50094	0.20004
1336.57227	0.20017
1334.64359	0.20027
1332.71492	0.20023
1330.78624	0.20009
1328.85757	0.19992
1326.92889	0.19974
1325.00021	0.19957
1323.07154	0.19939
1321.14286	0.19918
1319.21419	0.19899
1317.28551	0.19885
1315.35684	0.19868
1313.42816	0.19850
1311.49948	0.19835
1309.57081	0.19822
1307.64213	0.19807
1305.71346	0.19785
1303.78478	0.19757
1301.85611	0.19727
1299.92743	0.19705
1297.99875	0.19692
1296.07008	0.19679
1294.14140	0.19659
1292.21273	0.19635
1290.28405	0.19611
1288.35538	0.19589
1286.42670	0.19570
1284.49802	0.19553
1282.56935	0.19536
1280.64067	0.19511
1278.71200	0.19479
1276.78332	0.19448
1274.85465	0.19414
1272.92597	0.19364
1270.99729	0.19292
1269.06862	0.19207
1267.13994	0.19117
1265.21127	0.19033
1263.28259	0.18976
1261.35392	0.18954
1259.42524	0.18958
1257.49656	0.18978
1255.56789	0.18997
1253.63921	0.19001
1251.71054	0.18990
1249.78186	0.18966
1247.85319	0.18928
1245.92451	0.18886
1243.99583	0.18849
1242.06716	0.18813
1240.13848	0.18768
1238.20981	0.18716
1236.28113	0.18661
1234.35246	0.18604
1232.42378	0.18543
1230.49510	0.18482
1228.56643	0.18423
1226.63775	0.18369
1224.70908	0.18324
1222.78040	0.18283
1220.85173	0.18237
1218.92305	0.18183
1216.99437	0.18130
1215.06570	0.18079
1213.13702	0.18031
1211.20835	0.17983
1209.27967	0.17928
1207.35100	0.17868
1205.42232	0.17806
1203.49364	0.17744
1201.56497	0.17684
1199.63629	0.17629
1197.70762	0.17577
1195.77894	0.17516
1193.85027	0.17444
1191.92159	0.17370
1189.99291	0.17301
1188.06424	0.17237
1186.13556	0.17167
1184.20689	0.17087
1182.27821	0.17001
1180.34954	0.16916
1178.42086	0.16833
1176.49218	0.16751
1174.56351	0.16669
1172.63483	0.16583
1170.70616	0.16495
1168.77748	0.16406
1166.84881	0.16318
1164.92013	0.16236
1162.99145	0.16158
1161.06278	0.16078
1159.13410	0.15994
1157.20543	0.15911
1155.27675	0.15834
1153.34808	0.15760
1151.41940	0.15681
1149.49072	0.15599
1147.56205	0.15516
1145.63337	0.15430
1143.70470	0.15340
1141.77602	0.15245
1139.84735	0.15151
1137.91867	0.15051
1135.98999	0.14936
1134.06132	0.14804
1132.13264	0.14650
1130.20397	0.14462
1128.27529	0.14247
1126.34662	0.14024
1124.41794	0.13798
1122.48926	0.13566
1120.56059	0.13333
1118.63191	0.13106
1116.70324	0.12899
1114.77456	0.12719
1112.84589	0.12564
1110.91721	0.12439
1108.98853	0.12348
1107.05986	0.12286
1105.13118	0.12246
1103.20251	0.12229
1101.27383	0.12232
1099.34516	0.12256
1097.41648	0.12309
1095.48780	0.12385
1093.55913	0.12476
1091.63045	0.12571
1089.70178	0.12655
1087.77310	0.12721
1085.84443	0.12777
1083.91575	0.12825
1081.98707	0.12862
1080.05840	0.12893
1078.12972	0.12915
1076.20105	0.12928
1074.27237	0.12943
1072.34370	0.12959
1070.41502	0.12974
1068.48634	0.12987
1066.55767	0.12997
1064.62899	0.13012
1062.70032	0.13038
1060.77164	0.13068
1058.84297	0.13091
1056.91429	0.13114
1054.98561	0.13140
1053.05694	0.13170
1051.12826	0.13202
1049.19959	0.13239
1047.27091	0.13276
1045.34224	0.13311
1043.41356	0.13347
1041.48488	0.13387
1039.55621	0.13427
1037.62753	0.13467
1035.69886	0.13511
1033.77018	0.13558
1031.84151	0.13600
1029.91283	0.13633
1027.98415	0.13659
1026.05548	0.13684
1024.12680	0.13714
1022.19813	0.13747
1020.26945	0.13783
1018.34078	0.13827
1016.41210	0.13879
1014.48342	0.13931
1012.55475	0.13986
1010.62607	0.14044
1008.69740	0.14108
1006.76872	0.14175
1004.84005	0.14234
1002.91137	0.14274
1000.98269	0.14303
999.05402	0.14333
997.12534	0.14356
995.19667	0.14369
993.26799	0.14380
991.33932	0.14392
989.41064	0.14401
987.48196	0.14405
985.55329	0.14406
983.62461	0.14401
981.69594	0.14390
979.76726	0.14376
977.83859	0.14362
975.90991	0.14347
973.98123	0.14330
972.05256	0.14315
970.12388	0.14302
968.19521	0.14290
966.26653	0.14277
964.33786	0.14262
962.40918	0.14247
960.48050	0.14232
958.55183	0.14216
956.62315	0.14200
954.69448	0.14181
952.76580	0.14165
950.83713	0.14156
948.90845	0.14144
946.97977	0.14122
945.05110	0.14092
943.12242	0.14053
941.19375	0.14008
939.26507	0.13962
937.33640	0.13920
935.40772	0.13880
933.47904	0.13834
931.55037	0.13780
929.62169	0.13724
927.69302	0.13672
925.76434	0.13617
923.83567	0.13562
921.90699	0.13511
919.97831	0.13456
918.04964	0.13391
916.12096	0.13319
914.19229	0.13245
912.26361	0.13169
910.33494	0.13095
908.40626	0.13024
906.47758	0.12957
904.54891	0.12890
902.62023	0.12826
900.69156	0.12770
898.76288	0.12718
896.83421	0.12666
894.90553	0.12611
892.97685	0.12559
891.04818	0.12514
889.11950	0.12474
887.19083	0.12433
885.26215	0.12396
883.33348	0.12364
881.40480	0.12337
879.47612	0.12311
877.54745	0.12279
875.61877	0.12245
873.69010	0.12219
871.76142	0.12201
869.83275	0.12181
867.90407	0.12163
865.97539	0.12142
864.04672	0.12115
862.11804	0.12095
860.18937	0.12089
858.26069	0.12087
856.33202	0.12076
854.40334	0.12056
852.47466	0.12030
850.54599	0.12003
848.61731	0.11978
846.68864	0.11953
844.75996	0.11927
842.83129	0.11898
840.90261	0.11866
838.97394	0.11831
837.04526	0.11794
835.11658	0.11740
833.18791	0.11664
831.25923	0.11571
829.33056	0.11469
827.40188	0.11366
825.47321	0.11267
823.54453	0.11172
821.61585	0.11090
819.68718	0.11029
817.75850	0.10978
815.82983	0.10926
813.90115	0.10882
811.97248	0.10847
810.04380	0.10821
808.11512	0.10805
806.18645	0.10797
804.25777	0.10791
802.32910	0.10785
800.40042	0.10763
798.47175	0.10713
796.54307	0.10656
794.61439	0.10610
792.68572	0.10576
790.75704	0.10546
788.82837	0.10519
786.89969	0.10498
784.97102	0.10478
783.04234	0.10453
781.11366	0.10422
779.18499	0.10393
777.25631	0.10366
775.32764	0.10337
773.39896	0.10302
771.47029	0.10265
769.54161	0.10230
767.61293	0.10197
765.68426	0.10159
763.75558	0.10117
761.82691	0.10073
759.89823	0.10028
757.96956	0.09978
756.04088	0.09920
754.11220	0.09855
752.18353	0.09791
750.25485	0.09725
748.32618	0.09651
746.39750	0.09572
744.46883	0.09487
742.54015	0.09393
740.61147	0.09304
738.68280	0.09247
736.75412	0.09231
734.82545	0.09239
732.89677	0.09255
730.96810	0.09264
729.03942	0.09262
727.11074	0.09264
725.18207	0.09277
723.25339	0.09290
721.32472	0.09301
719.39604	0.09320
717.46737	0.09350
715.53869	0.09388
713.61001	0.09431
711.68134	0.09468
709.75266	0.09491
707.82399	0.09497
705.89531	0.09490
703.96664	0.09476
702.03796	0.09457
700.10928	0.09427
698.18061	0.09380
696.25193	0.09324
694.32326	0.09260
692.39458	0.09196
690.46591	0.09144
688.53723	0.09095
686.60855	0.09039
684.67988	0.08981
682.75120	0.08934
680.82253	0.08893
678.89385	0.08845
676.96518	0.08784
675.03650	0.08712
673.10782	0.08632
671.17915	0.08552
669.25047	0.08480
667.32180	0.08410
665.39312	0.08335
663.46445	0.08248
661.53577	0.08153
659.60709	0.08063
657.67842	0.07982
655.74974	0.07903
653.82107	0.07827
651.89239	0.07753
649.96372	0.07672
648.03504	0.07584
646.10636	0.07497
644.17769	0.07412
642.24901	0.07320
640.32034	0.07218
638.39166	0.07118
636.46299	0.07020
634.53431	0.06910
632.60563	0.06757
630.67696	0.06523
628.74828	0.06181
626.81961	0.05745
624.89093	0.05293
622.96226	0.04930
621.03358	0.04707
619.10490	0.04594
617.17623	0.04512
615.24755	0.04419
613.31888	0.04320
611.39020	0.04226
609.46153	0.04175
607.53285	0.04183
605.60417	0.04223
603.67550	0.04278
601.74682	0.04351
599.81815	0.04444
597.88947	0.04537
595.96080	0.04606
594.03212	0.04649
592.10344	0.04674
590.17477	0.04684
588.24609	0.04678
586.31742	0.04662
584.38874	0.04639
582.46007	0.04605
580.53139	0.04557
578.60271	0.04511
576.67404	0.04469
574.74536	0.04421
572.81669	0.04360
570.88801	0.04294
568.95934	0.04231
567.03066	0.04180
565.10198	0.04143
563.17331	0.04115
561.24463	0.04082
559.31596	0.04039
557.38728	0.04007
555.45861	0.03997
553.52993	0.03987
551.60125	0.03969
549.67258	0.03955
547.74390	0.03946
545.81523	0.03935
543.88655	0.03918
541.95788	0.03904
540.02920	0.03893
538.10052	0.03876
536.17185	0.03856
534.24317	0.03831
532.31450	0.03801
530.38582	0.03778
528.45715	0.03766
526.52847	0.03744
524.59979	0.03701
522.67112	0.03656
520.74244	0.03619
518.81377	0.03575
516.88509	0.03518
514.95642	0.03458
513.02774	0.03411
511.09906	0.03389
509.17039	0.03379
507.24171	0.03370
505.31304	0.03355
503.38436	0.03324
501.45569	0.03272
499.52701	0.03207
497.59833	0.03145
495.66966	0.03098
493.74098	0.03057
491.81231	0.03005
489.88363	0.02942
487.95496	0.02877
486.02628	0.02819
484.09760	0.02763
482.16893	0.02705
480.24025	0.02648
478.31158	0.02600
476.38290	0.02556
474.45423	0.02498
472.52555	0.02433
470.59687	0.02383
468.66820	0.02341
466.73952	0.02302
464.81085	0.02273
462.88217	0.02253
460.95350	0.02239
459.02482	0.02233
457.09614	0.02234
455.16747	0.02238
453.23879	0.02240
451.31012	0.02242
449.38144	0.02244
447.45277	0.02234
445.52409	0.02210
443.59541	0.02181
441.66674	0.02149
439.73806	0.02116
437.80939	0.02080
435.88071	0.02035
433.95204	0.01982
432.02336	0.01928
430.09468	0.01878
428.16601	0.01825
426.23733	0.01759
424.30866	0.01688
422.37998	0.01623
420.45131	0.01552
418.52263	0.01473
416.59395	0.01401
414.66528	0.01338
412.73660	0.01283
410.80793	0.01233
408.87925	0.01180
406.95058	0.01119
405.02190	0.01053
403.09322	0.00988
401.16455	0.00934
399.23587	0.00894
397.30720	0.00852
395.37852	0.00800
393.44985	0.00745
391.52117	0.00685
389.59249	0.00628
387.66382	0.00583
385.73514	0.00539
383.80647	0.00489
381.87779	0.00453
379.94912	0.00429
378.02044	0.00399
376.09176	0.00359
374.16309	0.00321
372.23441	0.00288
370.30574	0.00258
368.37706	0.00232
