7496.76250	0.00119
7494.83382	0.00120
7492.90514	0.00119
7490.97647	0.00117
7489.04779	0.00118
7487.11912	0.00120
7485.19044	0.00121
7483.26177	0.00121
7481.33309	0.00122
7479.40441	0.00122
7477.47574	0.00121
7475.54706	0.00120
7473.61839	0.00120
7471.68971	0.00121
7469.76104	0.00122
7467.83236	0.00123
7465.90368	0.00124
7463.97501	0.00125
7462.04633	0.00125
7460.11766	0.00124
7458.18898	0.00124
7456.26031	0.00124
7454.33163	0.00125
7452.40295	0.00125
7450.47428	0.00125
7448.54560	0.00127
7446.61693	0.00128
7444.68825	0.00129
7442.75958	0.00129
7440.83090	0.00129
7438.90222	0.00130
7436.97355	0.00130
7435.04487	0.00130
7433.11620	0.00129
7431.18752	0.00128
7429.25885	0.00127
7427.33017	0.00127
7425.40149	0.00127
7423.47282	0.00128
7421.54414	0.00129
7419.61547	0.00131
7417.68679	0.00132
7415.75812	0.00132
7413.82944	0.00133
7411.90076	0.00133
7409.97209	0.00133
7408.04341	0.00134
7406.11474	0.00135
7404.18606	0.00136
7402.25739	0.00135
7400.32871	0.00134
7398.40003	0.00135
7396.47136	0.00135
7394.54268	0.00136
7392.61401	0.00137
7390.68533	0.00137
7388.75666	0.00137
7386.82798	0.00137
7384.89930	0.00136
7382.97063	0.00137
7381.04195	0.00138
7379.11328	0.00139
7377.18460	0.00139
7375.25593	0.00139
7373.32725	0.00138
7371.39857	0.00138
7369.46990	0.00138
7367.54122	0.00139
7365.61255	0.00140
7363.68387	0.00141
7361.75520	0.00142
7359.82652	0.00142
7357.89784	0.00142
7355.96917	0.00142
7354.04049	0.00143
7352.11182	0.00145
7350.18314	0.00145
7348.25447	0.00143
7346.32579	0.00142
7344.39711	0.00142
7342.46844	0.00142
7340.53976	0.00144
7338.61109	0.00146
7336.68241	0.00146
7334.75374	0.00146
7332.82506	0.00147
7330.89638	0.00148
7328.96771	0.00148
7327.03903	0.00147
7325.11036	0.00146
7323.18168	0.00145
7321.25301	0.00146
7319.32433	0.00148
7317.39565	0.00148
7315.46698	0.00146
7313.53830	0.00146
7311.60963	0.00148
7309.68095	0.00150
7307.75228	0.00151
7305.82360	0.00152
7303.89492	0.00153
7301.96625	0.00154
7300.03757	0.00154
7298.10890	0.00153
7296.18022	0.00152
7294.25155	0.00152
7292.32287	0.00154
7290.39419	0.00154
7288.46552	0.00153
7286.53684	0.00152
7284.60817	0.00152
7282.67949	0.00154
7280.75082	0.00155
7278.82214	0.00156
7276.89346	0.00157
7274.96479	0.00160
7273.03611	0.00161
7271.10744	0.00160
7269.17876	0.00159
7267.25009	0.00159
7265.32141	0.00160
7263.39273	0.00160
7261.46406	0.00160
7259.53538	0.00159
7257.60671	0.00158
7255.67803	0.00158
7253.74936	0.00159
7251.82068	0.00161
7249.89200	0.00162
7247.96333	0.00163
7246.03465	0.00163
7244.10598	0.00164
7242.17730	0.00164
7240.24863	0.00164
7238.31995	0.00164
7236.39127	0.00164
7234.46260	0.00165
7232.53392	0.00165
7230.60525	0.00165
7228.67657	0.00165
7226.74790	0.00165
7224.81922	0.00166
7222.89054	0.00167
7220.96187	0.00167
7219.03319	0.00168
7217.10452	0.00168
7215.17584	0.00168
7213.24717	0.00167
7211.31849	0.00167
7209.38981	0.00167
7207.46114	0.00167
7205.53246	0.00168
7203.60379	0.00169
7201.67511	0.00171
7199.74644	0.00171
7197.81776	0.00171
7195.88908	0.00172
7193.96041	0.00172
7192.03173	0.00173
7190.10306	0.00174
7188.17438	0.00174
7186.24571	0.00173
7184.31703	0.00172
7182.38835	0.00173
7180.45968	0.00175
7178.53100	0.00174
7176.60233	0.00175
7174.67365	0.00176
7172.74498	0.00177
7170.81630	0.00177
7168.88762	0.00177
7166.95895	0.00177
7165.03027	0.00177
7163.10160	0.00178
7161.17292	0.00179
7159.24425	0.00180
7157.31557	0.00179
7155.38689	0.00179
7153.45822	0.00180
7151.52954	0.00181
7149.60087	0.00182
7147.67219	0.00184
7145.74352	0.00184
7143.81484	0.00184
7141.88616	0.00183
7139.95749	0.00182
7138.02881	0.00182
7136.10014	0.00183
7134.17146	0.00185
7132.24279	0.00186
7130.31411	0.00186
7128.38543	0.00186
7126.45676	0.00187
7124.52808	0.00189
7122.59941	0.00190
7120.67073	0.00188
7118.74206	0.00188
7116.81338	0.00188
7114.88470	0.00188
7112.95603	0.00189
7111.02735	0.00190
7109.09868	0.00191
7107.17000	0.00192
7105.24133	0.00191
7103.31265	0.00192
7101.38397	0.00193
7099.45530	0.00194
7097.52662	0.00194
7095.59795	0.00193
7093.66927	0.00192
7091.74060	0.00192
7089.81192	0.00193
7087.88324	0.00193
7085.95457	0.00193
7084.02589	0.00194
7082.09722	0.00194
7080.16854	0.00194
7078.23987	0.00195
7076.31119	0.00196
7074.38251	0.00198
7072.45384	0.00199
7070.52516	0.00199
7068.59649	0.00197
7066.66781	0.00197
7064.73914	0.00197
7062.81046	0.00199
7060.88178	0.00199
7058.95311	0.00198
7057.02443	0.00199
7055.09576	0.00201
7053.16708	0.00203
7051.23841	0.00204
7049.30973	0.00203
7047.38105	0.00203
7045.45238	0.00204
7043.52370	0.00203
7041.59503	0.00203
7039.66635	0.00203
7037.73768	0.00204
7035.80900	0.00206
7033.88032	0.00208
7031.95165	0.00209
7030.02297	0.00207
7028.09430	0.00206
7026.16562	0.00206
7024.23695	0.00207
7022.30827	0.00208
7020.37959	0.00207
7018.45092	0.00206
7016.52224	0.00207
7014.59357	0.00209
7012.66489	0.00211
7010.73622	0.00212
7008.80754	0.00211
7006.87886	0.00211
7004.95019	0.00213
7003.02151	0.00214
7001.09284	0.00214
6999.16416	0.00214
6997.23549	0.00214
6995.30681	0.00215
6993.37813	0.00214
6991.44946	0.00214
6989.52078	0.00215
6987.59211	0.00216
6985.66343	0.00217
6983.73476	0.00215
6981.80608	0.00215
6979.87740	0.00217
6977.94873	0.00219
6976.02005	0.00219
6974.09138	0.00219
6972.16270	0.00220
6970.23403	0.00223
6968.30535	0.00223
6966.37667	0.00222
6964.44800	0.00222
6962.51932	0.00224
6960.59065	0.00225
6958.66197	0.00225
6956.73330	0.00225
6954.80462	0.00225
6952.87594	0.00225
6950.94727	0.00226
6949.01859	0.00225
6947.08992	0.00225
6945.16124	0.00226
6943.23257	0.00227
6941.30389	0.00228
6939.37521	0.00229
6937.44654	0.00230
6935.51786	0.00231
6933.58919	0.00231
6931.66051	0.00230
6929.73184	0.00230
6927.80316	0.00231
6925.87448	0.00232
6923.94581	0.00233
6922.01713	0.00234
6920.08846	0.00235
6918.15978	0.00237
6916.23111	0.00238
6914.30243	0.00236
6912.37375	0.00234
6910.44508	0.00233
6908.51640	0.00234
6906.58773	0.00236
6904.65905	0.00238
6902.73038	0.00238
6900.80170	0.00238
6898.87302	0.00239
6896.94435	0.00240
6895.01567	0.00240
6893.08700	0.00239
6891.15832	0.00241
6889.22965	0.00242
6887.30097	0.00243
6885.37229	0.00245
6883.44362	0.00246
6881.51494	0.00246
6879.58627	0.00245
6877.65759	0.00244
6875.72892	0.00244
6873.80024	0.00244
6871.87156	0.00245
6869.94289	0.00246
6868.01421	0.00247
6866.08554	0.00249
6864.15686	0.00250
6862.22819	0.00248
6860.29951	0.00246
6858.37083	0.00246
6856.44216	0.00247
6854.51348	0.00249
6852.58481	0.00250
6850.65613	0.00252
6848.72746	0.00255
6846.79878	0.00256
6844.87010	0.00255
6842.94143	0.00253
6841.01275	0.00253
6839.08408	0.00255
6837.15540	0.00257
6835.22673	0.00257
6833.29805	0.00257
6831.36937	0.00259
6829.44070	0.00261
6827.51202	0.00259
6825.58335	0.00257
6823.65467	0.00258
6821.72600	0.00260
6819.79732	0.00261
6817.86864	0.00261
6815.93997	0.00262
6814.01129	0.00263
6812.08262	0.00263
6810.15394	0.00264
6808.22527	0.00264
6806.29659	0.00264
6804.36791	0.00265
6802.43924	0.00266
6800.51056	0.00266
6798.58189	0.00265
6796.65321	0.00266
6794.72454	0.00268
6792.79586	0.00268
6790.86718	0.00267
6788.93851	0.00268
6787.00983	0.00269
6785.08116	0.00268
6783.15248	0.00268
6781.22381	0.00268
6779.29513	0.00270
6777.36645	0.00272
6775.43778	0.00274
6773.50910	0.00274
6771.58043	0.00274
6769.65175	0.00273
6767.72308	0.00274
6765.79440	0.00276
6763.86572	0.00278
6761.93705	0.00279
6760.00837	0.00279
6758.07970	0.00279
6756.15102	0.00280
6754.22235	0.00281
6752.29367	0.00281
6750.36499	0.00281
6748.43632	0.00281
6746.50764	0.00280
6744.57897	0.00281
6742.65029	0.00283
6740.72162	0.00284
6738.79294	0.00285
6736.86426	0.00284
6734.93559	0.00284
6733.00691	0.00284
6731.07824	0.00286
6729.14956	0.00288
6727.22089	0.00290
6725.29221	0.00291
6723.36353	0.00290
6721.43486	0.00289
6719.50618	0.00291
6717.57751	0.00292
6715.64883	0.00291
6713.72016	0.00290
6711.79148	0.00290
6709.86280	0.00292
6707.93413	0.00294
6706.00545	0.00295
6704.07678	0.00296
6702.14810	0.00296
6700.21943	0.00296
6698.29075	0.00295
6696.36207	0.00295
6694.43340	0.00297
6692.50472	0.00298
6690.57605	0.00298
6688.64737	0.00299
6686.71870	0.00301
6684.79002	0.00301
6682.86134	0.00300
6680.93267	0.00299
6679.00399	0.00300
6677.07532	0.00302
6675.14664	0.00303
6673.21797	0.00305
6671.28929	0.00306
6669.36061	0.00306
6667.43194	0.00308
6665.50326	0.00309
6663.57459	0.00311
6661.64591	0.00310
6659.71724	0.00309
6657.78856	0.00309
6655.85988	0.00311
6653.93121	0.00311
6652.00253	0.00311
6650.07386	0.00312
6648.14518	0.00313
6646.21651	0.00315
6644.28783	0.00316
6642.35915	0.00316
6640.43048	0.00317
6638.50180	0.00317
6636.57313	0.00317
6634.64445	0.00318
6632.71578	0.00318
6630.78710	0.00318
6628.85842	0.00318
6626.92975	0.00318
6625.00107	0.00317
6623.07240	0.00318
6621.14372	0.00320
6619.21505	0.00320
6617.28637	0.00321
6615.35769	0.00324
6613.42902	0.00326
6611.50034	0.00327
6609.57167	0.00329
6607.64299	0.00331
6605.71432	0.00330
6603.78564	0.00329
6601.85696	0.00329
6599.92829	0.00329
6597.99961	0.00330
6596.07094	0.00330
6594.14226	0.00330
6592.21359	0.00330
6590.28491	0.00330
6588.35623	0.00331
6586.42756	0.00332
6584.49888	0.00334
6582.57021	0.00334
6580.64153	0.00333
6578.71286	0.00333
6576.78418	0.00334
6574.85550	0.00335
6572.92683	0.00336
6570.99815	0.00337
6569.06948	0.00339
6567.14080	0.00340
6565.21213	0.00341
6563.28345	0.00342
6561.35477	0.00344
6559.42610	0.00346
6557.49742	0.00346
6555.56875	0.00345
6553.64007	0.00345
6551.71140	0.00345
6549.78272	0.00345
6547.85404	0.00345
6545.92537	0.00346
6543.99669	0.00348
6542.06802	0.00350
6540.13934	0.00352
6538.21067	0.00353
6536.28199	0.00354
6534.35331	0.00353
6532.42464	0.00352
6530.49596	0.00352
6528.56729	0.00353
6526.63861	0.00354
6524.70994	0.00356
6522.78126	0.00357
6520.85258	0.00359
6518.92391	0.00359
6516.99523	0.00359
6515.06656	0.00359
6513.13788	0.00360
6511.20921	0.00360
6509.28053	0.00361
6507.35185	0.00362
6505.42318	0.00363
6503.49450	0.00364
6501.56583	0.00365
6499.63715	0.00366
6497.70848	0.00368
6495.77980	0.00369
6493.85112	0.00370
6491.92245	0.00370
6489.99377	0.00371
6488.06510	0.00372
6486.13642	0.00373
6484.20775	0.00374
6482.27907	0.00374
6480.35039	0.00374
6478.42172	0.00375
6476.49304	0.00376
6474.56437	0.00377
6472.63569	0.00377
6470.70702	0.00378
6468.77834	0.00379
6466.84966	0.00380
6464.92099	0.00381
6462.99231	0.00382
6461.06364	0.00383
6459.13496	0.00384
6457.20629	0.00385
6455.27761	0.00385
6453.34893	0.00385
6451.42026	0.00386
6449.49158	0.00387
6447.56291	0.00387
6445.63423	0.00388
6443.70556	0.00388
6441.77688	0.00389
6439.84820	0.00390
6437.91953	0.00392
6435.99085	0.00392
6434.06218	0.00392
6432.13350	0.00393
6430.20483	0.00393
6428.27615	0.00394
6426.34747	0.00395
6424.41880	0.00396
6422.49012	0.00398
6420.56145	0.00399
6418.63277	0.00400
6416.70410	0.00401
6414.77542	0.00402
6412.84674	0.00402
6410.91807	0.00401
6408.98939	0.00401
6407.06072	0.00402
6405.13204	0.00404
6403.20337	0.00406
6401.27469	0.00408
6399.34601	0.00409
6397.41734	0.00410
6395.48866	0.00411
6393.55999	0.00413
6391.63131	0.00415
6389.70264	0.00416
6387.77396	0.00416
6385.84528	0.00415
6383.91661	0.00414
6381.98793	0.00413
6380.05926	0.00413
6378.13058	0.00414
6376.20191	0.00416
6374.27323	0.00418
6372.34455	0.00419
6370.41588	0.00420
6368.48720	0.00420
6366.55853	0.00420
6364.62985	0.00421
6362.70118	0.00423
6360.77250	0.00425
6358.84382	0.00426
6356.91515	0.00425
6354.98647	0.00425
6353.05780	0.00428
6351.12912	0.00429
6349.20045	0.00430
6347.27177	0.00431
6345.34309	0.00432
6343.41442	0.00433
6341.48574	0.00435
6339.55707	0.00436
6337.62839	0.00437
6335.69972	0.00437
6333.77104	0.00437
6331.84236	0.00439
6329.91369	0.00441
6327.98501	0.00442
6326.05634	0.00442
6324.12766	0.00442
6322.19899	0.00443
6320.27031	0.00444
6318.34163	0.00445
6316.41296	0.00447
6314.48428	0.00447
6312.55561	0.00447
6310.62693	0.00446
6308.69826	0.00448
6306.76958	0.00450
6304.84090	0.00453
6302.91223	0.00455
6300.98355	0.00456
6299.05488	0.00457
6297.12620	0.00457
6295.19753	0.00457
6293.26885	0.00459
6291.34017	0.00460
6289.41150	0.00460
6287.48282	0.00459
6285.55415	0.00459
6283.62547	0.00461
6281.69680	0.00463
6279.76812	0.00465
6277.83944	0.00467
6275.91077	0.00467
6273.98209	0.00467
6272.05342	0.00467
6270.12474	0.00467
6268.19607	0.00468
6266.26739	0.00470
6264.33871	0.00472
6262.41004	0.00472
6260.48136	0.00472
6258.55269	0.00473
6256.62401	0.00475
6254.69534	0.00477
6252.76666	0.00478
6250.83798	0.00479
6248.90931	0.00481
6246.98063	0.00482
6245.05196	0.00482
6243.12328	0.00482
6241.19461	0.00484
6239.26593	0.00487
6237.33725	0.00488
6235.40858	0.00489
6233.47990	0.00490
6231.55123	0.00491
6229.62255	0.00492
6227.69388	0.00493
6225.76520	0.00493
6223.83652	0.00494
6221.90785	0.00495
6219.97917	0.00494
6218.05050	0.00494
6216.12182	0.00496
6214.19315	0.00499
6212.26447	0.00500
6210.33579	0.00500
6208.40712	0.00501
6206.47844	0.00502
6204.54977	0.00502
6202.62109	0.00503
6200.69242	0.00505
6198.76374	0.00506
6196.83506	0.00508
6194.90639	0.00510
6192.97771	0.00511
6191.04904	0.00513
6189.12036	0.00515
6187.19169	0.00516
6185.26301	0.00516
6183.33433	0.00515
6181.40566	0.00516
6179.47698	0.00516
6177.54831	0.00517
6175.61963	0.00519
6173.69096	0.00521
6171.76228	0.00522
6169.83360	0.00523
6167.90493	0.00523
6165.97625	0.00524
6164.04758	0.00525
6162.11890	0.00527
6160.19023	0.00528
6158.26155	0.00527
6156.33287	0.00527
6154.40420	0.00529
6152.47552	0.00531
6150.54685	0.00533
6148.61817	0.00536
6146.68950	0.00538
6144.76082	0.00538
6142.83214	0.00538
6140.90347	0.00538
6138.97479	0.00539
6137.04612	0.00541
6135.11744	0.00542
6133.18877	0.00543
6131.26009	0.00545
6129.33141	0.00545
6127.40274	0.00544
6125.47406	0.00545
6123.54539	0.00546
6121.61671	0.00548
6119.68804	0.00550
6117.75936	0.00552
6115.83068	0.00554
6113.90201	0.00554
6111.97333	0.00555
6110.04466	0.00555
6108.11598	0.00556
6106.18731	0.00556
6104.25863	0.00557
6102.32995	0.00558
6100.40128	0.00560
6098.47260	0.00562
6096.54393	0.00564
6094.61525	0.00566
6092.68658	0.00567
6090.75790	0.00568
6088.82922	0.00570
6086.90055	0.00571
6084.97187	0.00572
6083.04320	0.00572
6081.11452	0.00573
6079.18585	0.00574
6077.25717	0.00574
6075.32849	0.00574
6073.39982	0.00576
6071.47114	0.00579
6069.54247	0.00581
6067.61379	0.00582
6065.68512	0.00584
6063.75644	0.00585
6061.82776	0.00586
6059.89909	0.00587
6057.97041	0.00588
6056.04174	0.00588
6054.11306	0.00589
6052.18439	0.00592
6050.25571	0.00596
6048.32703	0.00598
6046.39836	0.00599
6044.46968	0.00599
6042.54101	0.00599
6040.61233	0.00601
6038.68366	0.00603
6036.75498	0.00604
6034.82630	0.00604
6032.89763	0.00604
6030.96895	0.00605
6029.04028	0.00605
6027.11160	0.00606
6025.18293	0.00609
6023.25425	0.00612
6021.32557	0.00613
6019.39690	0.00614
6017.46822	0.00615
6015.53955	0.00616
6013.61087	0.00616
6011.68220	0.00617
6009.75352	0.00620
6007.82484	0.00622
6005.89617	0.00623
6003.96749	0.00625
6002.03882	0.00627
6000.11014	0.00627
5998.18147	0.00627
5996.25279	0.00629
5994.32411	0.00632
5992.39544	0.00633
5990.46676	0.00633
5988.53809	0.00632
5986.60941	0.00633
5984.68074	0.00636
5982.75206	0.00639
5980.82338	0.00640
5978.89471	0.00640
5976.96603	0.00642
5975.03736	0.00644
5973.10868	0.00645
5971.18001	0.00647
5969.25133	0.00649
5967.32265	0.00650
5965.39398	0.00651
5963.46530	0.00651
5961.53663	0.00652
5959.60795	0.00653
5957.67928	0.00654
5955.75060	0.00656
5953.82192	0.00657
5951.89325	0.00657
5949.96457	0.00659
5948.03590	0.00662
5946.10722	0.00664
5944.17855	0.00665
5942.24987	0.00666
5940.32119	0.00667
5938.39252	0.00668
5936.46384	0.00669
5934.53517	0.00671
5932.60649	0.00675
5930.67782	0.00676
5928.74914	0.00677
5926.82046	0.00678
5924.89179	0.00679
5922.96311	0.00680
5921.03444	0.00680
5919.10576	0.00680
5917.17709	0.00682
5915.24841	0.00683
5913.31973	0.00683
5911.39106	0.00685
5909.46238	0.00688
5907.53371	0.00689
5905.60503	0.00688
5903.67636	0.00689
5901.74768	0.00692
5899.81900	0.00694
5897.89033	0.00696
5895.96165	0.00697
5894.03298	0.00700
5892.10430	0.00702
5890.17563	0.00705
5888.24695	0.00707
5886.31827	0.00709
5884.38960	0.00709
5882.46092	0.00709
5880.53225	0.00710
5878.60357	0.00710
5876.67490	0.00712
5874.74622	0.00715
5872.81755	0.00717
5870.88887	0.00717
5868.96019	0.00718
5867.03152	0.00719
5865.10284	0.00721
5863.17417	0.00722
5861.24549	0.00723
5859.31682	0.00725
5857.38814	0.00727
5855.45946	0.00728
5853.53079	0.00730
5851.60211	0.00733
5849.67344	0.00735
5847.74476	0.00736
5845.81609	0.00736
5843.88741	0.00737
5841.95873	0.00738
5840.03006	0.00741
5838.10138	0.00746
5836.17271	0.00750
5834.24403	0.00751
5832.31536	0.00751
5830.38668	0.00753
5828.45800	0.00755
5826.52933	0.00755
5824.60065	0.00754
5822.67198	0.00754
5820.74330	0.00754
5818.81463	0.00755
5816.88595	0.00757
5814.95727	0.00759
5813.02860	0.00761
5811.09992	0.00764
5809.17125	0.00766
5807.24257	0.00767
5805.31390	0.00768
5803.38522	0.00771
5801.45654	0.00773
5799.52787	0.00775
5797.59919	0.00776
5795.67052	0.00777
5793.74184	0.00779
5791.81317	0.00780
5789.88449	0.00781
5787.95581	0.00783
5786.02714	0.00786
5784.09846	0.00788
5782.16979	0.00788
5780.24111	0.00788
5778.31244	0.00788
5776.38376	0.00790
5774.45508	0.00793
5772.52641	0.00795
5770.59773	0.00797
5768.66906	0.00800
5766.74038	0.00803
5764.81171	0.00806
5762.88303	0.00808
5760.95435	0.00809
5759.02568	0.00810
5757.09700	0.00810
5755.16833	0.00811
5753.23965	0.00812
5751.31098	0.00814
5749.38230	0.00816
5747.45362	0.00816
5745.52495	0.00817
5743.59627	0.00820
5741.66760	0.00823
5739.73892	0.00824
5737.81025	0.00826
5735.88157	0.00827
5733.95289	0.00828
5732.02422	0.00827
5730.09554	0.00828
5728.16687	0.00831
5726.23819	0.00834
5724.30952	0.00836
5722.38084	0.00839
5720.45216	0.00841
5718.52349	0.00842
5716.59481	0.00843
5714.66614	0.00842
5712.73746	0.00843
5710.80879	0.00846
5708.88011	0.00851
5706.95143	0.00854
5705.02276	0.00855
5703.09408	0.00856
5701.16541	0.00859
5699.23673	0.00861
5697.30806	0.00861
5695.37938	0.00860
5693.45070	0.00861
5691.52203	0.00864
5689.59335	0.00867
5687.66468	0.00868
5685.73600	0.00869
5683.80733	0.00870
5681.87865	0.00871
5679.94997	0.00874
5678.02130	0.00877
5676.09262	0.00879
5674.16395	0.00880
5672.23527	0.00880
5670.30660	0.00883
5668.37792	0.00886
5666.44924	0.00888
5664.52057	0.00888
5662.59189	0.00889
5660.66322	0.00890
5658.73454	0.00893
5656.80587	0.00895
5654.87719	0.00896
5652.94851	0.00898
5651.01984	0.00899
5649.09116	0.00902
5647.16249	0.00906
5645.23381	0.00910
5643.30514	0.00911
5641.37646	0.00912
5639.44778	0.00914
5637.51911	0.00915
5635.59043	0.00915
5633.66176	0.00915
5631.73308	0.00919
5629.80441	0.00923
5627.87573	0.00924
5625.94705	0.00924
5624.01838	0.00926
5622.08970	0.00929
5620.16103	0.00932
5618.23235	0.00934
5616.30368	0.00935
5614.37500	0.00936
5612.44632	0.00937
5610.51765	0.00938
5608.58897	0.00941
5606.66030	0.00944
5604.73162	0.00946
5602.80295	0.00947
5600.87427	0.00949
5598.94559	0.00951
5597.01692	0.00953
5595.08824	0.00956
5593.15957	0.00958
5591.23089	0.00959
5589.30222	0.00959
5587.37354	0.00960
5585.44486	0.00964
5583.51619	0.00967
5581.58751	0.00970
5579.65884	0.00971
5577.73016	0.00971
5575.80149	0.00972
5573.87281	0.00974
5571.94413	0.00977
5570.01546	0.00979
5568.08678	0.00981
5566.15811	0.00983
5564.22943	0.00986
5562.30076	0.00986
5560.37208	0.00988
5558.44340	0.00991
5556.51473	0.00993
5554.58605	0.00995
5552.65738	0.00996
5550.72870	0.00998
5548.80003	0.01000
5546.87135	0.01003
5544.94267	0.01005
5543.01400	0.01006
5541.08532	0.01007
5539.15665	0.01009
5537.22797	0.01012
5535.29930	0.01015
5533.37062	0.01016
5531.44194	0.01017
5529.51327	0.01020
5527.58459	0.01022
5525.65592	0.01024
5523.72724	0.01026
5521.79857	0.01027
5519.86989	0.01030
5517.94121	0.01032
5516.01254	0.01035
5514.08386	0.01037
5512.15519	0.01038
5510.22651	0.01038
5508.29784	0.01040
5506.36916	0.01043
5504.44048	0.01046
5502.51181	0.01048
5500.58313	0.01049
5498.65446	0.01049
5496.72578	0.01049
5494.79711	0.01052
5492.86843	0.01054
5490.93975	0.01057
5489.01108	0.01060
5487.08240	0.01063
5485.15373	0.01065
5483.22505	0.01067
5481.29638	0.01069
5479.36770	0.01069
5477.43902	0.01070
5475.51035	0.01072
5473.58167	0.01075
5471.65300	0.01076
5469.72432	0.01078
5467.79565	0.01082
5465.86697	0.01086
5463.93829	0.01087
5462.00962	0.01089
5460.08094	0.01090
5458.15227	0.01092
5456.22359	0.01097
5454.29492	0.01100
5452.36624	0.01100
5450.43756	0.01101
5448.50889	0.01102
5446.58021	0.01102
5444.65154	0.01104
5442.72286	0.01108
5440.79419	0.01112
5438.86551	0.01116
5436.93683	0.01118
5435.00816	0.01119
5433.07948	0.01121
5431.15081	0.01123
5429.22213	0.01124
5427.29346	0.01126
5425.36478	0.01127
5423.43610	0.01128
5421.50743	0.01130
5419.57875	0.01133
5417.65008	0.01135
5415.72140	0.01137
5413.79273	0.01138
5411.86405	0.01141
5409.93537	0.01144
5408.00670	0.01147
5406.07802	0.01149
5404.14935	0.01152
5402.22067	0.01154
5400.29200	0.01156
5398.36332	0.01159
5396.43464	0.01162
5394.50597	0.01164
5392.57729	0.01165
5390.64862	0.01166
5388.71994	0.01167
5386.79127	0.01167
5384.86259	0.01170
5382.93391	0.01173
5381.00524	0.01176
5379.07656	0.01177
5377.14789	0.01178
5375.21921	0.01182
5373.29054	0.01187
5371.36186	0.01188
5369.43318	0.01187
5367.50451	0.01187
5365.57583	0.01191
5363.64716	0.01194
5361.71848	0.01198
5359.78981	0.01201
5357.86113	0.01203
5355.93245	0.01204
5354.00378	0.01205
5352.07510	0.01208
5350.14643	0.01211
5348.21775	0.01214
5346.28908	0.01215
5344.36040	0.01217
5342.43172	0.01219
5340.50305	0.01221
5338.57437	0.01222
5336.64570	0.01224
5334.71702	0.01227
5332.78835	0.01229
5330.85967	0.01230
5328.93099	0.01233
5327.00232	0.01238
5325.07364	0.01242
5323.14497	0.01245
5321.21629	0.01246
5319.28762	0.01248
5317.35894	0.01248
5315.43026	0.01250
5313.50159	0.01253
5311.57291	0.01257
5309.64424	0.01260
5307.71556	0.01262
5305.78689	0.01265
5303.85821	0.01265
5301.92953	0.01265
5300.00086	0.01267
5298.07218	0.01270
5296.14351	0.01273
5294.21483	0.01274
5292.28616	0.01274
5290.35748	0.01276
5288.42880	0.01279
5286.50013	0.01282
5284.57145	0.01286
5282.64278	0.01290
5280.71410	0.01293
5278.78543	0.01294
5276.85675	0.01294
5274.92807	0.01295
5272.99940	0.01298
5271.07072	0.01302
5269.14205	0.01305
5267.21337	0.01308
5265.28470	0.01308
5263.35602	0.01308
5261.42734	0.01310
5259.49867	0.01313
5257.56999	0.01315
5255.64132	0.01318
5253.71264	0.01320
5251.78397	0.01322
5249.85529	0.01325
5247.92661	0.01329
5245.99794	0.01335
5244.06926	0.01338
5242.14059	0.01338
5240.21191	0.01338
5238.28324	0.01339
5236.35456	0.01342
5234.42588	0.01345
5232.49721	0.01347
5230.56853	0.01350
5228.63986	0.01353
5226.71118	0.01354
5224.78251	0.01355
5222.85383	0.01359
5220.92515	0.01362
5218.99648	0.01364
5217.06780	0.01365
5215.13913	0.01368
5213.21045	0.01371
5211.28178	0.01374
5209.35310	0.01375
5207.42442	0.01377
5205.49575	0.01380
5203.56707	0.01383
5201.63840	0.01386
5199.70972	0.01388
5197.78105	0.01390
5195.85237	0.01393
5193.92369	0.01396
5191.99502	0.01399
5190.06634	0.01401
5188.13767	0.01403
5186.20899	0.01404
5184.28032	0.01407
5182.35164	0.01410
5180.42296	0.01413
5178.49429	0.01416
5176.56561	0.01418
5174.63694	0.01419
5172.70826	0.01419
5170.77959	0.01422
5168.85091	0.01426
5166.92223	0.01428
5164.99356	0.01429
5163.06488	0.01431
5161.13621	0.01435
5159.20753	0.01437
5157.27886	0.01438
5155.35018	0.01442
5153.42150	0.01446
5151.49283	0.01449
5149.56415	0.01450
5147.63548	0.01452
5145.70680	0.01454
5143.77813	0.01456
5141.84945	0.01459
5139.92077	0.01463
5137.99210	0.01466
5136.06342	0.01468
5134.13475	0.01469
5132.20607	0.01471
5130.27740	0.01475
5128.34872	0.01479
5126.42004	0.01481
5124.49137	0.01482
5122.56269	0.01485
5120.63402	0.01490
5118.70534	0.01496
5116.77667	0.01501
5114.84799	0.01502
5112.91931	0.01500
5110.99064	0.01499
5109.06196	0.01501
5107.13329	0.01505
5105.20461	0.01509
5103.27594	0.01510
5101.34726	0.01512
5099.41858	0.01515
5097.48991	0.01518
5095.56123	0.01520
5093.63256	0.01523
5091.70388	0.01527
5089.77521	0.01531
5087.84653	0.01533
5085.91785	0.01536
5083.98918	0.01537
5082.06050	0.01537
5080.13183	0.01538
5078.20315	0.01542
5076.27448	0.01544
5074.34580	0.01546
5072.41712	0.01548
5070.48845	0.01552
5068.55977	0.01557
5066.63110	0.01560
5064.70242	0.01562
5062.77375	0.01563
5060.84507	0.01564
5058.91639	0.01567
5056.98772	0.01572
5055.05904	0.01577
5053.13037	0.01580
5051.20169	0.01581
5049.27302	0.01581
5047.34434	0.01582
5045.41566	0.01584
5043.48699	0.01588
5041.55831	0.01591
5039.62964	0.01593
5037.70096	0.01598
5035.77229	0.01603
5033.84361	0.01608
5031.91493	0.01611
5029.98626	0.01612
5028.05758	0.01612
5026.12891	0.01614
5024.20023	0.01616
5022.27156	0.01618
5020.34288	0.01618
5018.41420	0.01620
5016.48553	0.01624
5014.55685	0.01629
5012.62818	0.01633
5010.69950	0.01636
5008.77083	0.01640
5006.84215	0.01642
5004.91347	0.01642
5002.98480	0.01644
5001.05612	0.01647
4999.12745	0.01650
4997.19877	0.01652
4995.27010	0.01655
4993.34142	0.01659
4991.41274	0.01663
4989.48407	0.01666
4987.55539	0.01668
4985.62672	0.01671
4983.69804	0.01674
4981.76937	0.01678
4979.84069	0.01681
4977.91201	0.01683
4975.98334	0.01685
4974.05466	0.01688
4972.12599	0.01690
4970.19731	0.01692
4968.26864	0.01695
4966.33996	0.01697
4964.41128	0.01699
4962.48261	0.01703
4960.55393	0.01707
4958.62526	0.01708
4956.69658	0.01708
4954.76791	0.01710
4952.83923	0.01712
4950.91055	0.01715
4948.98188	0.01718
4947.05320	0.01723
4945.12453	0.01727
4943.19585	0.01730
4941.26718	0.01731
4939.33850	0.01732
4937.40982	0.01733
4935.48115	0.01735
4933.55247	0.01739
4931.62380	0.01745
4929.69512	0.01750
4927.76645	0.01752
4925.83777	0.01754
4923.90909	0.01757
4921.98042	0.01759
4920.05174	0.01761
4918.12307	0.01765
4916.19439	0.01770
4914.26572	0.01774
4912.33704	0.01777
4910.40836	0.01780
4908.47969	0.01782
4906.55101	0.01782
4904.62234	0.01781
4902.69366	0.01784
4900.76499	0.01789
4898.83631	0.01793
4896.90763	0.01796
4894.97896	0.01798
4893.05028	0.01800
4891.12161	0.01802
4889.19293	0.01804
4887.26426	0.01807
4885.33558	0.01809
4883.40690	0.01812
4881.47823	0.01815
4879.54955	0.01819
4877.62088	0.01823
4875.69220	0.01827
4873.76353	0.01830
4871.83485	0.01834
4869.90617	0.01838
4867.97750	0.01840
4866.04882	0.01842
4864.12015	0.01846
4862.19147	0.01850
4860.26280	0.01852
4858.33412	0.01853
4856.40544	0.01855
4854.47677	0.01858
4852.54809	0.01861
4850.61942	0.01865
4848.69074	0.01868
4846.76207	0.01870
4844.83339	0.01873
4842.90471	0.01875
4840.97604	0.01877
4839.04736	0.01880
4837.11869	0.01885
4835.19001	0.01889
4833.26134	0.01891
4831.33266	0.01894
4829.40398	0.01898
4827.47531	0.01902
4825.54663	0.01906
4823.61796	0.01909
4821.68928	0.01911
4819.76061	0.01913
4817.83193	0.01915
4815.90325	0.01917
4813.97458	0.01920
4812.04590	0.01923
4810.11723	0.01928
4808.18855	0.01933
4806.25988	0.01936
4804.33120	0.01938
4802.40252	0.01940
4800.47385	0.01942
4798.54517	0.01946
4796.61650	0.01950
4794.68782	0.01955
4792.75915	0.01957
4790.83047	0.01959
4788.90179	0.01961
4786.97312	0.01965
4785.04444	0.01968
4783.11577	0.01971
4781.18709	0.01975
4779.25842	0.01979
4777.32974	0.01982
4775.40106	0.01987
4773.47239	0.01991
4771.54371	0.01992
4769.61504	0.01991
4767.68636	0.01992
4765.75769	0.01997
4763.82901	0.02003
4761.90033	0.02007
4759.97166	0.02010
4758.04298	0.02014
4756.11431	0.02019
4754.18563	0.02021
4752.25696	0.02024
4750.32828	0.02028
4748.39960	0.02031
4746.47093	0.02034
4744.54225	0.02038
4742.61358	0.02040
4740.68490	0.02041
4738.75623	0.02043
4736.82755	0.02047
4734.89887	0.02050
4732.97020	0.02054
4731.04152	0.02058
4729.11285	0.02060
4727.18417	0.02061
4725.25550	0.02064
4723.32682	0.02068
4721.39814	0.02073
4719.46947	0.02079
4717.54079	0.02084
4715.61212	0.02086
4713.68344	0.02088
4711.75477	0.02091
4709.82609	0.02095
4707.89741	0.02097
4705.96874	0.02098
4704.04006	0.02101
4702.11139	0.02105
4700.18271	0.02109
4698.25404	0.02113
4696.32536	0.02117
4694.39668	0.02119
4692.46801	0.02122
4690.53933	0.02126
4688.61066	0.02131
4686.68198	0.02134
4684.75331	0.02137
4682.82463	0.02138
4680.89595	0.02142
4678.96728	0.02148
4677.03860	0.02153
4675.10993	0.02155
4673.18125	0.02156
4671.25258	0.02161
4669.32390	0.02167
4667.39522	0.02172
4665.46655	0.02173
4663.53787	0.02173
4661.60920	0.02175
4659.68052	0.02178
4657.75185	0.02180
4655.82317	0.02182
4653.89449	0.02188
4651.96582	0.02194
4650.03714	0.02199
4648.10847	0.02202
4646.17979	0.02204
4644.25112	0.02208
4642.32244	0.02212
4640.39376	0.02215
4638.46509	0.02219
4636.53641	0.02224
4634.60774	0.02230
4632.67906	0.02231
4630.75039	0.02232
4628.82171	0.02234
4626.89303	0.02238
4624.96436	0.02242
4623.03568	0.02247
4621.10701	0.02252
4619.17833	0.02256
4617.24966	0.02258
4615.32098	0.02260
4613.39230	0.02265
4611.46363	0.02272
4609.53495	0.02279
4607.60628	0.02283
4605.67760	0.02285
4603.74893	0.02287
4601.82025	0.02289
4599.89157	0.02294
4597.96290	0.02300
4596.03422	0.02304
4594.10555	0.02307
4592.17687	0.02309
4590.24820	0.02311
4588.31952	0.02313
4586.39084	0.02317
4584.46217	0.02323
4582.53349	0.02330
4580.60482	0.02334
4578.67614	0.02337
4576.74747	0.02339
4574.81879	0.02341
4572.89011	0.02346
4570.96144	0.02352
4569.03276	0.02356
4567.10409	0.02358
4565.17541	0.02361
4563.24674	0.02365
4561.31806	0.02369
4559.38938	0.02374
4557.46071	0.02378
4555.53203	0.02381
4553.60336	0.02384
4551.67468	0.02387
4549.74601	0.02390
4547.81733	0.02395
4545.88865	0.02400
4543.95998	0.02404
4542.03130	0.02409
4540.10263	0.02413
4538.17395	0.02417
4536.24528	0.02420
4534.31660	0.02422
4532.38792	0.02425
4530.45925	0.02430
4528.53057	0.02435
4526.60190	0.02438
4524.67322	0.02441
4522.74455	0.02445
4520.81587	0.02450
4518.88719	0.02453
4516.95852	0.02456
4515.02984	0.02461
4513.10117	0.02467
4511.17249	0.02472
4509.24382	0.02475
4507.31514	0.02479
4505.38646	0.02483
4503.45779	0.02486
4501.52911	0.02490
4499.60044	0.02496
4497.67176	0.02502
4495.74309	0.02507
4493.81441	0.02511
4491.88573	0.02515
4489.95706	0.02518
4488.02838	0.02520
4486.09971	0.02524
4484.17103	0.02531
4482.24236	0.02536
4480.31368	0.02540
4478.38500	0.02544
4476.45633	0.02549
4474.52765	0.02554
4472.59898	0.02559
4470.67030	0.02564
4468.74163	0.02567
4466.81295	0.02570
4464.88427	0.02572
4462.95560	0.02577
4461.02692	0.02583
4459.09825	0.02588
4457.16957	0.02593
4455.24090	0.02597
4453.31222	0.02602
4451.38354	0.02607
4449.45487	0.02612
4447.52619	0.02615
4445.59752	0.02617
4443.66884	0.02621
4441.74017	0.02627
4439.81149	0.02631
4437.88281	0.02637
4435.95414	0.02645
4434.02546	0.02651
4432.09679	0.02653
4430.16811	0.02655
4428.23944	0.02660
4426.31076	0.02667
4424.38208	0.02670
4422.45341	0.02671
4420.52473	0.02676
4418.59606	0.02683
4416.66738	0.02687
4414.73871	0.02690
4412.81003	0.02696
4410.88135	0.02701
4408.95268	0.02706
4407.02400	0.02711
4405.09533	0.02715
4403.16665	0.02718
4401.23798	0.02721
4399.30930	0.02726
4397.38062	0.02733
4395.45195	0.02737
4393.52327	0.02741
4391.59460	0.02746
4389.66592	0.02752
4387.73725	0.02756
4385.80857	0.02760
4383.87989	0.02764
4381.95122	0.02770
4380.02254	0.02775
4378.09387	0.02779
4376.16519	0.02783
4374.23652	0.02788
4372.30784	0.02793
4370.37916	0.02797
4368.45049	0.02803
4366.52181	0.02809
4364.59314	0.02815
4362.66446	0.02821
4360.73579	0.02826
4358.80711	0.02828
4356.87843	0.02831
4354.94976	0.02836
4353.02108	0.02841
4351.09241	0.02847
4349.16373	0.02853
4347.23506	0.02859
4345.30638	0.02865
4343.37770	0.02870
4341.44903	0.02874
4339.52035	0.02879
4337.59168	0.02883
4335.66300	0.02888
4333.73433	0.02893
4331.80565	0.02899
4329.87697	0.02906
4327.94830	0.02912
4326.01962	0.02918
4324.09095	0.02925
4322.16227	0.02930
4320.23360	0.02935
4318.30492	0.02938
4316.37624	0.02942
4314.44757	0.02947
4312.51889	0.02952
4310.59022	0.02957
4308.66154	0.02962
4306.73287	0.02969
4304.80419	0.02976
4302.87551	0.02980
4300.94684	0.02985
4299.01816	0.02991
4297.08949	0.02996
4295.16081	0.03000
4293.23214	0.03006
4291.30346	0.03014
4289.37478	0.03020
4287.44611	0.03024
4285.51743	0.03029
4283.58876	0.03035
4281.66008	0.03041
4279.73141	0.03047
4277.80273	0.03054
4275.87405	0.03059
4273.94538	0.03065
4272.01670	0.03070
4270.08803	0.03076
4268.15935	0.03082
4266.23068	0.03086
4264.30200	0.03090
4262.37332	0.03093
4260.44465	0.03098
4258.51597	0.03105
4256.58730	0.03112
4254.65862	0.03119
4252.72995	0.03126
4250.80127	0.03130
4248.87259	0.03133
4246.94392	0.03137
4245.01524	0.03144
4243.08657	0.03151
4241.15789	0.03156
4239.22922	0.03161
4237.30054	0.03167
4235.37186	0.03174
4233.44319	0.03179
4231.51451	0.03185
4229.58584	0.03190
4227.65716	0.03195
4225.72849	0.03201
4223.79981	0.03206
4221.87113	0.03211
4219.94246	0.03216
4218.01378	0.03223
4216.08511	0.03231
4214.15643	0.03237
4212.22776	0.03242
4210.29908	0.03248
4208.37040	0.03255
4206.44173	0.03263
4204.51305	0.03270
4202.58438	0.03277
4200.65570	0.03281
4198.72703	0.03283
4196.79835	0.03288
4194.86968	0.03295
4192.94100	0.03303
4191.01232	0.03311
4189.08365	0.03318
4187.15497	0.03325
4185.22630	0.03331
4183.29762	0.03336
4181.36895	0.03340
4179.44027	0.03345
4177.51159	0.03351
4175.58292	0.03358
4173.65424	0.03361
4171.72557	0.03365
4169.79689	0.03371
4167.86822	0.03379
4165.93954	0.03389
4164.01086	0.03397
4162.08219	0.03403
4160.15351	0.03408
4158.22484	0.03414
4156.29616	0.03421
4154.36749	0.03428
4152.43881	0.03435
4150.51013	0.03440
4148.58146	0.03445
4146.65278	0.03450
4144.72411	0.03458
4142.79543	0.03465
4140.86676	0.03472
4138.93808	0.03478
4137.00940	0.03484
4135.08073	0.03491
4133.15205	0.03499
4131.22338	0.03506
4129.29470	0.03510
4127.36603	0.03515
4125.43735	0.03522
4123.50867	0.03529
4121.58000	0.03534
4119.65132	0.03540
4117.72265	0.03548
4115.79397	0.03555
4113.86530	0.03562
4111.93662	0.03569
4110.00794	0.03579
4108.07927	0.03588
4106.15059	0.03592
4104.22192	0.03597
4102.29324	0.03603
4100.36457	0.03612
4098.43589	0.03619
4096.50721	0.03623
4094.57854	0.03628
4092.64986	0.03633
4090.72119	0.03641
4088.79251	0.03648
4086.86384	0.03657
4084.93516	0.03665
4083.00648	0.03673
4081.07781	0.03680
4079.14913	0.03686
4077.22046	0.03690
4075.29178	0.03697
4073.36311	0.03706
4071.43443	0.03715
4069.50575	0.03721
4067.57708	0.03726
4065.64840	0.03732
4063.71973	0.03738
4061.79105	0.03745
4059.86238	0.03754
4057.93370	0.03765
4056.00502	0.03773
4054.07635	0.03779
4052.14767	0.03785
4050.21900	0.03793
4048.29032	0.03800
4046.36165	0.03806
4044.43297	0.03811
4042.50429	0.03817
4040.57562	0.03825
4038.64694	0.03832
4036.71827	0.03839
4034.78959	0.03847
4032.86092	0.03856
4030.93224	0.03863
4029.00356	0.03867
4027.07489	0.03873
4025.14621	0.03882
4023.21754	0.03892
4021.28886	0.03902
4019.36019	0.03911
4017.43151	0.03917
4015.50283	0.03924
4013.57416	0.03933
4011.64548	0.03942
4009.71681	0.03949
4007.78813	0.03956
4005.85946	0.03962
4003.93078	0.03966
4002.00210	0.03973
4000.07343	0.03982
3998.14475	0.03990
3996.21608	0.03996
3994.28740	0.04001
3992.35873	0.04007
3990.43005	0.04016
3988.50137	0.04027
3986.57270	0.04035
3984.64402	0.04041
3982.71535	0.04046
3980.78667	0.04054
3978.85800	0.04064
3976.92932	0.04073
3975.00064	0.04080
3973.07197	0.04086
3971.14329	0.04093
3969.21462	0.04102
3967.28594	0.04111
3965.35727	0.04119
3963.42859	0.04126
3961.49991	0.04131
3959.57124	0.04137
3957.64256	0.04146
3955.71389	0.04154
3953.78521	0.04162
3951.85654	0.04168
3949.92786	0.04169
3947.99918	0.04173
3946.07051	0.04184
3944.14183	0.04195
3942.21316	0.04205
3940.28448	0.04216
3938.35581	0.04224
3936.42713	0.04229
3934.49845	0.04232
3932.56978	0.04236
3930.64110	0.04244
3928.71243	0.04253
3926.78375	0.04261
3924.85508	0.04268
3922.92640	0.04277
3920.99772	0.04287
3919.06905	0.04294
3917.14037	0.04302
3915.21170	0.04315
3913.28302	0.04328
3911.35435	0.04338
3909.42567	0.04344
3907.49699	0.04343
3905.56832	0.04339
3903.63964	0.04337
3901.71097	0.04341
3899.78229	0.04352
3897.85362	0.04373
3895.92494	0.04396
3893.99626	0.04403
3892.06759	0.04401
3890.13891	0.04408
3888.21024	0.04420
3886.28156	0.04425
3884.35289	0.04430
3882.42421	0.04433
3880.49553	0.04441
3878.56686	0.04458
3876.63818	0.04473
3874.70951	0.04478
3872.78083	0.04479
3870.85216	0.04477
3868.92348	0.04482
3866.99480	0.04493
3865.06613	0.04504
3863.13745	0.04516
3861.20878	0.04533
3859.28010	0.04546
3857.35143	0.04537
3855.42275	0.04509
3853.49407	0.04506
3851.56540	0.04546
3849.63672	0.04586
3847.70805	0.04606
3845.77937	0.04614
3843.85070	0.04616
3841.92202	0.04617
3839.99334	0.04619
3838.06467	0.04627
3836.13599	0.04637
3834.20732	0.04647
3832.27864	0.04658
3830.34997	0.04674
3828.42129	0.04688
3826.49261	0.04695
3824.56394	0.04696
3822.63526	0.04690
3820.70659	0.04692
3818.77791	0.04704
3816.84924	0.04714
3814.92056	0.04730
3812.99188	0.04755
3811.06321	0.04772
3809.13453	0.04779
3807.20586	0.04785
3805.27718	0.04790
3803.34851	0.04785
3801.41983	0.04785
3799.49115	0.04803
3797.56248	0.04824
3795.63380	0.04839
3793.70513	0.04850
3791.77645	0.04861
3789.84778	0.04871
3787.91910	0.04880
3785.99042	0.04889
3784.06175	0.04896
3782.13307	0.04899
3780.20440	0.04902
3778.27572	0.04914
3776.34705	0.04933
3774.41837	0.04945
3772.48969	0.04948
3770.56102	0.04950
3768.63234	0.04958
3766.70367	0.04968
3764.77499	0.04979
3762.84632	0.04986
3760.91764	0.04984
3758.98896	0.04985
3757.06029	0.04995
3755.13161	0.05000
3753.20294	0.04992
3751.27426	0.04986
3749.34559	0.04997
3747.41691	0.05003
3745.48823	0.04993
3743.55956	0.05009
3741.63088	0.05052
3739.70221	0.05074
3737.77353	0.05071
3735.84486	0.05071
3733.91618	0.05088
3731.98750	0.05112
3730.05883	0.05131
3728.13015	0.05141
3726.20148	0.05146
3724.27280	0.05154
3722.34413	0.05164
3720.41545	0.05178
3718.48677	0.05193
3716.55810	0.05201
3714.62942	0.05202
3712.70075	0.05199
3710.77207	0.05209
3708.84340	0.05232
3706.91472	0.05254
3704.98604	0.05265
3703.05737	0.05269
3701.12869	0.05277
3699.20002	0.05290
3697.27134	0.05300
3695.34267	0.05305
3693.41399	0.05305
3691.48531	0.05299
3689.55664	0.05296
3687.62796	0.05311
3685.69929	0.05341
3683.77061	0.05363
3681.84194	0.05374
3679.91326	0.05377
3677.98458	0.05371
3676.05591	0.05367
3674.12723	0.05376
3672.19856	0.05387
3670.26988	0.05395
3668.34121	0.05412
3666.41253	0.05436
3664.48385	0.05451
3662.55518	0.05462
3660.62650	0.05470
3658.69783	0.05474
3656.76915	0.05476
3654.84048	0.05479
3652.91180	0.05472
3650.98312	0.05455
3649.05445	0.05446
3647.12577	0.05459
3645.19710	0.05491
3643.26842	0.05523
3641.33975	0.05542
3639.41107	0.05553
3637.48239	0.05562
3635.55372	0.05569
3633.62504	0.05572
3631.69637	0.05562
3629.76769	0.05547
3627.83902	0.05556
3625.91034	0.05589
3623.98166	0.05612
3622.05299	0.05612
3620.12431	0.05604
3618.19564	0.05606
3616.26696	0.05617
3614.33829	0.05623
3612.40961	0.05621
3610.48093	0.05621
3608.55226	0.05635
3606.62358	0.05660
3604.69491	0.05679
3602.76623	0.05687
3600.83756	0.05691
3598.90888	0.05696
3596.98020	0.05701
3595.05153	0.05708
3593.12285	0.05717
3591.19418	0.05720
3589.26550	0.05714
3587.33683	0.05712
3585.40815	0.05726
3583.47947	0.05747
3581.55080	0.05762
3579.62212	0.05770
3577.69345	0.05777
3575.76477	0.05784
3573.83610	0.05793
3571.90742	0.05798
3569.97874	0.05794
3568.05007	0.05790
3566.12139	0.05800
3564.19272	0.05821
3562.26404	0.05839
3560.33537	0.05849
3558.40669	0.05857
3556.47801	0.05864
3554.54934	0.05869
3552.62066	0.05873
3550.69199	0.05880
3548.76331	0.05888
3546.83464	0.05894
3544.90596	0.05902
3542.97728	0.05912
3541.04861	0.05920
3539.11993	0.05924
3537.19126	0.05926
3535.26258	0.05929
3533.33391	0.05936
3531.40523	0.05942
3529.47655	0.05944
3527.54788	0.05947
3525.61920	0.05952
3523.69053	0.05957
3521.76185	0.05963
3519.83318	0.05970
3517.90450	0.05976
3515.97582	0.05978
3514.04715	0.05979
3512.11847	0.05979
3510.18980	0.05981
3508.26112	0.05984
3506.33245	0.05985
3504.40377	0.05986
3502.47509	0.05989
3500.54642	0.05993
3498.61774	0.05998
3496.68907	0.06003
3494.76039	0.06008
3492.83172	0.06013
3490.90304	0.06017
3488.97436	0.06020
3487.04569	0.06021
3485.11701	0.06022
3483.18834	0.06024
3481.25966	0.06028
3479.33099	0.06035
3477.40231	0.06043
3475.47363	0.06050
3473.54496	0.06059
3471.61628	0.06071
3469.68761	0.06080
3467.75893	0.06088
3465.83026	0.06096
3463.90158	0.06104
3461.97290	0.06112
3460.04423	0.06125
3458.11555	0.06139
3456.18688	0.06150
3454.25820	0.06160
3452.32953	0.06167
3450.40085	0.06173
3448.47217	0.06179
3446.54350	0.06188
3444.61482	0.06198
3442.68615	0.06209
3440.75747	0.06221
3438.82880	0.06236
3436.90012	0.06252
3434.97144	0.06267
3433.04277	0.06286
3431.11409	0.06307
3429.18542	0.06329
3427.25674	0.06352
3425.32807	0.06375
3423.39939	0.06395
3421.47071	0.06413
3419.54204	0.06430
3417.61336	0.06446
3415.68469	0.06462
3413.75601	0.06477
3411.82734	0.06488
3409.89866	0.06500
3407.96998	0.06514
3406.04131	0.06527
3404.11263	0.06539
3402.18396	0.06554
3400.25528	0.06571
3398.32661	0.06585
3396.39793	0.06597
3394.46925	0.06609
3392.54058	0.06622
3390.61190	0.06636
3388.68323	0.06650
3386.75455	0.06662
3384.82588	0.06675
3382.89720	0.06690
3380.96852	0.06703
3379.03985	0.06715
3377.11117	0.06725
3375.18250	0.06738
3373.25382	0.06753
3371.32515	0.06764
3369.39647	0.06772
3367.46779	0.06782
3365.53912	0.06796
3363.61044	0.06811
3361.68177	0.06826
3359.75309	0.06839
3357.82442	0.06852
3355.89574	0.06863
3353.96706	0.06874
3352.03839	0.06886
3350.10971	0.06900
3348.18104	0.06914
3346.25236	0.06924
3344.32369	0.06931
3342.39501	0.06940
3340.46633	0.06953
3338.53766	0.06970
3336.60898	0.06984
3334.68031	0.06996
3332.75163	0.07007
3330.82296	0.07019
3328.89428	0.07032
3326.96560	0.07045
3325.03693	0.07056
3323.10825	0.07068
3321.17958	0.07080
3319.25090	0.07091
3317.32223	0.07103
3315.39355	0.07118
3313.46487	0.07135
3311.53620	0.07150
3309.60752	0.07163
3307.67885	0.07175
3305.75017	0.07188
3303.82150	0.07202
3301.89282	0.07214
3299.96414	0.07226
3298.03547	0.07242
3296.10679	0.07258
3294.17812	0.07269
3292.24944	0.07280
3290.32077	0.07292
3288.39209	0.07303
3286.46341	0.07316
3284.53474	0.07331
3282.60606	0.07344
3280.67739	0.07357
3278.74871	0.07369
3276.82004	0.07381
3274.89136	0.07394
3272.96268	0.07408
3271.03401	0.07422
3269.10533	0.07434
3267.17666	0.07445
3265.24798	0.07459
3263.31931	0.07475
3261.39063	0.07490
3259.46195	0.07505
3257.53328	0.07517
3255.60460	0.07527
3253.67593	0.07540
3251.74725	0.07555
3249.81858	0.07572
3247.88990	0.07587
3245.96122	0.07600
3244.03255	0.07611
3242.10387	0.07623
3240.17520	0.07637
3238.24652	0.07653
3236.31785	0.07666
3234.38917	0.07678
3232.46049	0.07691
3230.53182	0.07703
3228.60314	0.07715
3226.67447	0.07731
3224.74579	0.07748
3222.81712	0.07763
3220.88844	0.07775
3218.95976	0.07788
3217.03109	0.07801
3215.10241	0.07812
3213.17374	0.07825
3211.24506	0.07838
3209.31639	0.07850
3207.38771	0.07861
3205.45903	0.07875
3203.53036	0.07892
3201.60168	0.07908
3199.67301	0.07923
3197.74433	0.07938
3195.81566	0.07953
3193.88698	0.07968
3191.95830	0.07984
3190.02963	0.08000
3188.10095	0.08014
3186.17228	0.08027
3184.24360	0.08041
3182.31493	0.08056
3180.38625	0.08070
3178.45757	0.08082
3176.52890	0.08093
3174.60022	0.08107
3172.67155	0.08122
3170.74287	0.08138
3168.81420	0.08154
3166.88552	0.08166
3164.95684	0.08178
3163.02817	0.08193
3161.09949	0.08209
3159.17082	0.08223
3157.24214	0.08239
3155.31347	0.08254
3153.38479	0.08267
3151.45611	0.08278
3149.52744	0.08291
3147.59876	0.08305
3145.67009	0.08319
3143.74141	0.08332
3141.81274	0.08343
3139.88406	0.08358
3137.95538	0.08376
3136.02671	0.08393
3134.09803	0.08406
3132.16936	0.08418
3130.24068	0.08433
3128.31201	0.08446
3126.38333	0.08460
3124.45465	0.08472
3122.52598	0.08484
3120.59730	0.08496
3118.66863	0.08510
3116.73995	0.08527
3114.81128	0.08543
3112.88260	0.08555
3110.95392	0.08567
3109.02525	0.08580
3107.09657	0.08593
3105.16790	0.08604
3103.23922	0.08617
3101.31055	0.08632
3099.38187	0.08647
3097.45319	0.08663
3095.52452	0.08677
3093.59584	0.08692
3091.66717	0.08708
3089.73849	0.08722
3087.80982	0.08735
3085.88114	0.08748
3083.95246	0.08763
3082.02379	0.08777
3080.09511	0.08791
3078.16644	0.08805
3076.23776	0.08820
3074.30909	0.08838
3072.38041	0.08853
3070.45173	0.08866
3068.52306	0.08878
3066.59438	0.08890
3064.66571	0.08901
3062.73703	0.08913
3060.80836	0.08928
3058.87968	0.08942
3056.95100	0.08956
3055.02233	0.08970
3053.09365	0.08984
3051.16498	0.09000
3049.23630	0.09014
3047.30763	0.09026
3045.37895	0.09038
3043.45027	0.09052
3041.52160	0.09068
3039.59292	0.09082
3037.66425	0.09097
3035.73557	0.09112
3033.80690	0.09125
3031.87822	0.09135
3029.94954	0.09148
3028.02087	0.09162
3026.09219	0.09174
3024.16352	0.09189
3022.23484	0.09206
3020.30617	0.09219
3018.37749	0.09228
3016.44881	0.09240
3014.52014	0.09257
3012.59146	0.09272
3010.66279	0.09286
3008.73411	0.09301
3006.80544	0.09316
3004.87676	0.09329
3002.94808	0.09340
3001.01941	0.09353
2999.09073	0.09367
2997.16206	0.09381
2995.23338	0.09393
2993.30471	0.09407
2991.37603	0.09420
2989.44735	0.09429
2987.51868	0.09439
2985.59000	0.09451
2983.66133	0.09460
2981.73265	0.09465
2979.80398	0.09471
2977.87530	0.09477
2975.94662	0.09481
2974.01795	0.09484
2972.08927	0.09485
2970.16060	0.09480
2968.23192	0.09474
2966.30325	0.09472
2964.37457	0.09475
2962.44589	0.09484
2960.51722	0.09499
2958.58854	0.09517
2956.65987	0.09534
2954.73119	0.09552
2952.80252	0.09571
2950.87384	0.09591
2948.94516	0.09607
2947.01649	0.09619
2945.08781	0.09628
2943.15914	0.09633
2941.23046	0.09635
2939.30179	0.09635
2937.37311	0.09634
2935.44443	0.09631
2933.51576	0.09627
2931.58708	0.09622
2929.65841	0.09617
2927.72973	0.09613
2925.80106	0.09615
2923.87238	0.09620
2921.94370	0.09626
2920.01503	0.09634
2918.08635	0.09648
2916.15768	0.09678
2914.22900	0.09723
2912.30033	0.09770
2910.37165	0.09813
2908.44297	0.09849
2906.51430	0.09876
2904.58562	0.09898
2902.65695	0.09919
2900.72827	0.09941
2898.79960	0.09965
2896.87092	0.09989
2894.94224	0.10011
2893.01357	0.10033
2891.08489	0.10054
2889.15622	0.10073
2887.22754	0.10089
2885.29887	0.10105
2883.37019	0.10120
2881.44151	0.10134
2879.51284	0.10149
2877.58416	0.10162
2875.65549	0.10171
2873.72681	0.10180
2871.79814	0.10192
2869.86946	0.10205
2867.94078	0.10218
2866.01211	0.10231
2864.08343	0.10242
2862.15476	0.10250
2860.22608	0.10255
2858.29741	0.10255
2856.36873	0.10251
2854.44005	0.10246
2852.51138	0.10242
2850.58270	0.10251
2848.65403	0.10281
2846.72535	0.10330
2844.79668	0.10385
2842.86800	0.10432
2840.93932	0.10465
2839.01065	0.10489
2837.08197	0.10511
2835.15330	0.10531
2833.22462	0.10547
2831.29595	0.10563
2829.36727	0.10582
2827.43859	0.10601
2825.50992	0.10621
2823.58124	0.10642
2821.65257	0.10660
2819.72389	0.10673
2817.79522	0.10686
2815.86654	0.10703
2813.93786	0.10720
2812.00919	0.10736
2810.08051	0.10751
2808.15184	0.10767
2806.22316	0.10782
2804.29449	0.10796
2802.36581	0.10813
2800.43713	0.10831
2798.50846	0.10847
2796.57978	0.10860
2794.65111	0.10874
2792.72243	0.10889
2790.79376	0.10904
2788.86508	0.10919
2786.93640	0.10934
2785.00773	0.10951
2783.07905	0.10966
2781.15038	0.10980
2779.22170	0.10995
2777.29303	0.11011
2775.36435	0.11026
2773.43567	0.11040
2771.50700	0.11056
2769.57832	0.11072
2767.64965	0.11089
2765.72097	0.11103
2763.79230	0.11118
2761.86362	0.11134
2759.93494	0.11148
2758.00627	0.11162
2756.07759	0.11178
2754.14892	0.11194
2752.22024	0.11207
2750.29157	0.11216
2748.36289	0.11226
2746.43421	0.11241
2744.50554	0.11258
2742.57686	0.11275
2740.64819	0.11290
2738.71951	0.11305
2736.79084	0.11321
2734.86216	0.11334
2732.93348	0.11344
2731.00481	0.11355
2729.07613	0.11371
2727.14746	0.11388
2725.21878	0.11407
2723.29011	0.11424
2721.36143	0.11434
2719.43275	0.11443
2717.50408	0.11457
2715.57540	0.11474
2713.64673	0.11490
2711.71805	0.11504
2709.78938	0.11517
2707.86070	0.11534
2705.93202	0.11551
2704.00335	0.11566
2702.07467	0.11577
2700.14600	0.11589
2698.21732	0.11606
2696.28865	0.11623
2694.35997	0.11639
2692.43129	0.11654
2690.50262	0.11668
2688.57394	0.11683
2686.64527	0.11702
2684.71659	0.11721
2682.78792	0.11733
2680.85924	0.11742
2678.93056	0.11753
2677.00189	0.11769
2675.07321	0.11785
2673.14454	0.11800
2671.21586	0.11812
2669.28719	0.11826
2667.35851	0.11840
2665.42983	0.11854
2663.50116	0.11868
2661.57248	0.11882
2659.64381	0.11895
2657.71513	0.11908
2655.78646	0.11922
2653.85778	0.11937
2651.92910	0.11955
2650.00043	0.11971
2648.07175	0.11984
2646.14308	0.11999
2644.21440	0.12016
2642.28573	0.12033
2640.35705	0.12049
2638.42837	0.12062
2636.49970	0.12077
2634.57102	0.12094
2632.64235	0.12111
2630.71367	0.12126
2628.78500	0.12140
2626.85632	0.12156
2624.92764	0.12174
2622.99897	0.12192
2621.07029	0.12207
2619.14162	0.12220
2617.21294	0.12235
2615.28427	0.12253
2613.35559	0.12270
2611.42691	0.12288
2609.49824	0.12307
2607.56956	0.12323
2605.64089	0.12333
2603.71221	0.12343
2601.78354	0.12358
2599.85486	0.12373
2597.92618	0.12389
2595.99751	0.12405
2594.06883	0.12422
2592.14016	0.12439
2590.21148	0.12456
2588.28281	0.12471
2586.35413	0.12486
2584.42545	0.12503
2582.49678	0.12520
2580.56810	0.12534
2578.63943	0.12547
2576.71075	0.12561
2574.78208	0.12578
2572.85340	0.12596
2570.92472	0.12609
2568.99605	0.12621
2567.06737	0.12634
2565.13870	0.12649
2563.21002	0.12664
2561.28135	0.12678
2559.35267	0.12693
2557.42399	0.12709
2555.49532	0.12723
2553.56664	0.12734
2551.63797	0.12748
2549.70929	0.12764
2547.78062	0.12780
2545.85194	0.12797
2543.92326	0.12815
2541.99459	0.12834
2540.06591	0.12849
2538.13724	0.12862
2536.20856	0.12873
2534.27989	0.12886
2532.35121	0.12902
2530.42253	0.12917
2528.49386	0.12931
2526.56518	0.12946
2524.63651	0.12963
2522.70783	0.12982
2520.77916	0.13002
2518.85048	0.13018
2516.92181	0.13031
2514.99313	0.13043
2513.06445	0.13055
2511.13578	0.13072
2509.20710	0.13093
2507.27843	0.13112
2505.34975	0.13126
2503.42108	0.13145
2501.49240	0.13164
2499.56372	0.13179
2497.63505	0.13191
2495.70637	0.13204
2493.77770	0.13224
2491.84902	0.13244
2489.92035	0.13261
2487.99167	0.13277
2486.06299	0.13294
2484.13432	0.13310
2482.20564	0.13325
2480.27697	0.13341
2478.34829	0.13359
2476.41962	0.13379
2474.49094	0.13398
2472.56226	0.13413
2470.63359	0.13428
2468.70491	0.13443
2466.77624	0.13457
2464.84756	0.13472
2462.91889	0.13490
2460.99021	0.13506
2459.06153	0.13519
2457.13286	0.13535
2455.20418	0.13554
2453.27551	0.13570
2451.34683	0.13586
2449.41816	0.13602
2447.48948	0.13615
2445.56080	0.13630
2443.63213	0.13649
2441.70345	0.13668
2439.77478	0.13684
2437.84610	0.13700
2435.91743	0.13716
2433.98875	0.13731
2432.06007	0.13744
2430.13140	0.13759
2428.20272	0.13777
2426.27405	0.13795
2424.34537	0.13809
2422.41670	0.13822
2420.48802	0.13837
2418.55934	0.13855
2416.63067	0.13875
2414.70199	0.13892
2412.77332	0.13902
2410.84464	0.13912
2408.91597	0.13929
2406.98729	0.13948
2405.05861	0.13963
2403.12994	0.13979
2401.20126	0.14000
2399.27259	0.14019
2397.34391	0.14033
2395.41524	0.14045
2393.48656	0.14059
2391.55788	0.14074
2389.62921	0.14090
2387.70053	0.14107
2385.77186	0.14124
2383.84318	0.14137
2381.91451	0.14143
2379.98583	0.14148
2378.05715	0.14153
2376.12848	0.14158
2374.19980	0.14161
2372.27113	0.14163
2370.34245	0.14167
2368.41378	0.14172
2366.48510	0.14180
2364.55642	0.14191
2362.62775	0.14203
2360.69907	0.14220
2358.77040	0.14241
2356.84172	0.14265
2354.91305	0.14292
2352.98437	0.14323
2351.05569	0.14358
2349.12702	0.14386
2347.19834	0.14395
2345.26967	0.14394
2343.34099	0.14396
2341.41232	0.14408
2339.48364	0.14425
2337.55496	0.14440
2335.62629	0.14451
2333.69761	0.14461
2331.76894	0.14473
2329.84026	0.14491
2327.91159	0.14514
2325.98291	0.14537
2324.05423	0.14559
2322.12556	0.14579
2320.19688	0.14599
2318.26821	0.14620
2316.33953	0.14644
2314.41086	0.14666
2312.48218	0.14686
2310.55350	0.14709
2308.62483	0.14732
2306.69615	0.14753
2304.76748	0.14772
2302.83880	0.14792
2300.91013	0.14812
2298.98145	0.14830
2297.05277	0.14843
2295.12410	0.14855
2293.19542	0.14870
2291.26675	0.14887
2289.33807	0.14905
2287.40940	0.14923
2285.48072	0.14944
2283.55204	0.14963
2281.62337	0.14975
2279.69469	0.14990
2277.76602	0.15008
2275.83734	0.15024
2273.90867	0.15038
2271.97999	0.15052
2270.05131	0.15066
2268.12264	0.15083
2266.19396	0.15103
2264.26529	0.15123
2262.33661	0.15139
2260.40794	0.15149
2258.47926	0.15161
2256.55058	0.15176
2254.62191	0.15193
2252.69323	0.15209
2250.76456	0.15227
2248.83588	0.15243
2246.90721	0.15258
2244.97853	0.15273
2243.04985	0.15291
2241.12118	0.15306
2239.19250	0.15320
2237.26383	0.15334
2235.33515	0.15350
2233.40648	0.15370
2231.47780	0.15390
2229.54912	0.15409
2227.62045	0.15426
2225.69177	0.15444
2223.76310	0.15457
2221.83442	0.15466
2219.90575	0.15477
2217.97707	0.15493
2216.04839	0.15510
2214.11972	0.15523
2212.19104	0.15538
2210.26237	0.15556
2208.33369	0.15573
2206.40502	0.15589
2204.47634	0.15607
2202.54766	0.15621
2200.61899	0.15634
2198.69031	0.15648
2196.76164	0.15664
2194.83296	0.15679
2192.90429	0.15692
2190.97561	0.15706
2189.04693	0.15722
2187.11826	0.15739
2185.18958	0.15755
2183.26091	0.15770
2181.33223	0.15784
2179.40356	0.15799
2177.47488	0.15817
2175.54620	0.15835
2173.61753	0.15851
2171.68885	0.15866
2169.76018	0.15880
2167.83150	0.15894
2165.90283	0.15910
2163.97415	0.15927
2162.04547	0.15945
2160.11680	0.15965
2158.18812	0.15983
2156.25945	0.15999
2154.33077	0.16017
2152.40210	0.16034
2150.47342	0.16048
2148.54474	0.16062
2146.61607	0.16073
2144.68739	0.16087
2142.75872	0.16106
2140.83004	0.16126
2138.90137	0.16143
2136.97269	0.16159
2135.04401	0.16176
2133.11534	0.16191
2131.18666	0.16206
2129.25799	0.16222
2127.32931	0.16238
2125.40064	0.16251
2123.47196	0.16262
2121.54328	0.16275
2119.61461	0.16291
2117.68593	0.16307
2115.75726	0.16323
2113.82858	0.16341
2111.89991	0.16362
2109.97123	0.16381
2108.04255	0.16395
2106.11388	0.16410
2104.18520	0.16428
2102.25653	0.16447
2100.32785	0.16464
2098.39918	0.16479
2096.47050	0.16495
2094.54182	0.16509
2092.61315	0.16521
2090.68447	0.16536
2088.75580	0.16556
2086.82712	0.16579
2084.89845	0.16600
2082.96977	0.16614
2081.04109	0.16625
2079.11242	0.16639
2077.18374	0.16655
2075.25507	0.16669
2073.32639	0.16686
2071.39772	0.16706
2069.46904	0.16726
2067.54036	0.16740
2065.61169	0.16751
2063.68301	0.16764
2061.75434	0.16781
2059.82566	0.16801
2057.89699	0.16818
2055.96831	0.16832
2054.03963	0.16848
2052.11096	0.16867
2050.18228	0.16885
2048.25361	0.16902
2046.32493	0.16917
2044.39626	0.16931
2042.46758	0.16942
2040.53890	0.16958
2038.61023	0.16979
2036.68155	0.16998
2034.75288	0.17012
2032.82420	0.17026
2030.89553	0.17045
2028.96685	0.17065
2027.03817	0.17086
2025.10950	0.17106
2023.18082	0.17119
2021.25215	0.17125
2019.32347	0.17131
2017.39480	0.17144
2015.46612	0.17165
2013.53744	0.17190
2011.60877	0.17209
2009.68009	0.17223
2007.75142	0.17238
2005.82274	0.17255
2003.89407	0.17272
2001.96539	0.17286
2000.03671	0.17300
1998.10804	0.17317
1996.17936	0.17337
1994.25069	0.17353
1992.32201	0.17362
1990.39334	0.17372
1988.46466	0.17387
1986.53598	0.17407
1984.60731	0.17425
1982.67863	0.17437
1980.74996	0.17446
1978.82128	0.17461
1976.89261	0.17480
1974.96393	0.17494
1973.03525	0.17506
1971.10658	0.17519
1969.17790	0.17532
1967.24923	0.17545
1965.32055	0.17561
1963.39188	0.17577
1961.46320	0.17593
1959.53452	0.17608
1957.60585	0.17621
1955.67717	0.17630
1953.74850	0.17644
1951.81982	0.17664
1949.89115	0.17686
1947.96247	0.17704
1946.03379	0.17717
1944.10512	0.17723
1942.17644	0.17734
1940.24777	0.17759
1938.31909	0.17787
1936.39042	0.17808
1934.46174	0.17821
1932.53306	0.17828
1930.60439	0.17837
1928.67571	0.17853
1926.74704	0.17871
1924.81836	0.17881
1922.88969	0.17889
1920.96101	0.17899
1919.03233	0.17909
1917.10366	0.17927
1915.17498	0.17953
1913.24631	0.17972
1911.31763	0.17982
1909.38896	0.17996
1907.46028	0.18019
1905.53160	0.18042
1903.60293	0.18060
1901.67425	0.18077
1899.74558	0.18094
1897.81690	0.18110
1895.88823	0.18121
1893.95955	0.18130
1892.03087	0.18140
1890.10220	0.18153
1888.17352	0.18174
1886.24485	0.18199
1884.31617	0.18219
1882.38750	0.18233
1880.45882	0.18244
1878.53014	0.18261
1876.60147	0.18281
1874.67279	0.18295
1872.74412	0.18300
1870.81544	0.18295
1868.88677	0.18295
1866.95809	0.18320
1865.02941	0.18360
1863.10074	0.18384
1861.17206	0.18396
1859.24339	0.18411
1857.31471	0.18431
1855.38604	0.18454
1853.45736	0.18475
1851.52868	0.18490
1849.60001	0.18493
1847.67133	0.18480
1845.74266	0.18458
1843.81398	0.18469
1841.88531	0.18527
1839.95663	0.18577
1838.02795	0.18597
1836.09928	0.18613
1834.17060	0.18629
1832.24193	0.18629
1830.31325	0.18618
1828.38458	0.18615
1826.45590	0.18623
1824.52722	0.18648
1822.59855	0.18693
1820.66987	0.18731
1818.74120	0.18749
1816.81252	0.18762
1814.88385	0.18773
1812.95517	0.18777
1811.02649	0.18781
1809.09782	0.18799
1807.16914	0.18824
1805.24047	0.18833
1803.31179	0.18826
1801.38312	0.18828
1799.45444	0.18851
1797.52576	0.18879
1795.59709	0.18893
1793.66841	0.18891
1791.73974	0.18892
1789.81106	0.18917
1787.88239	0.18951
1785.95371	0.18969
1784.02503	0.18978
1782.09636	0.18985
1780.16768	0.18993
1778.23901	0.19002
1776.31033	0.18999
1774.38166	0.18976
1772.45298	0.18960
1770.52430	0.18964
1768.59563	0.18985
1766.66695	0.19031
1764.73828	0.19073
1762.80960	0.19082
1760.88093	0.19081
1758.95225	0.19078
1757.02357	0.19076
1755.09490	0.19088
1753.16622	0.19087
1751.23755	0.19061
1749.30887	0.19049
1747.38020	0.19069
1745.45152	0.19094
1743.52284	0.19105
1741.59417	0.19105
1739.66549	0.19105
1737.73682	0.19088
1735.80814	0.19037
1733.87947	0.19007
1731.95079	0.19047
1730.02211	0.19111
1728.09344	0.19162
1726.16476	0.19194
1724.23609	0.19208
1722.30741	0.19205
1720.37874	0.19169
1718.45006	0.19130
1716.52138	0.19141
1714.59271	0.19196
1712.66403	0.19255
1710.73536	0.19289
1708.80668	0.19290
1706.87801	0.19281
1704.94933	0.19283
1703.02065	0.19264
1701.09198	0.19217
1699.16330	0.19194
1697.23463	0.19196
1695.30595	0.19226
1693.37728	0.19301
1691.44860	0.19354
1689.51992	0.19349
1687.59125	0.19310
1685.66257	0.19256
1683.73390	0.19246
1681.80522	0.19300
1679.87655	0.19353
1677.94787	0.19373
1676.01919	0.19376
1674.09052	0.19377
1672.16184	0.19358
1670.23317	0.19324
1668.30449	0.19337
1666.37582	0.19393
1664.44714	0.19420
1662.51846	0.19426
1660.58979	0.19445
1658.66111	0.19455
1656.73244	0.19407
1654.80376	0.19309
1652.87509	0.19280
1650.94641	0.19355
1649.01773	0.19398
1647.08906	0.19374
1645.16038	0.19388
1643.23171	0.19453
1641.30303	0.19492
1639.37436	0.19480
1637.44568	0.19436
1635.51700	0.19413
1633.58833	0.19452
1631.65965	0.19506
1629.73098	0.19517
1627.80230	0.19498
1625.87363	0.19462
1623.94495	0.19419
1622.01627	0.19401
1620.08760	0.19410
1618.15892	0.19434
1616.23025	0.19490
1614.30157	0.19567
1612.37290	0.19626
1610.44422	0.19657
1608.51554	0.19678
1606.58687	0.19701
1604.65819	0.19727
1602.72952	0.19754
1600.80084	0.19779
1598.87217	0.19797
1596.94349	0.19808
1595.01481	0.19820
1593.08614	0.19837
1591.15746	0.19857
1589.22879	0.19879
1587.30011	0.19897
1585.37144	0.19910
1583.44276	0.19921
1581.51408	0.19929
1579.58541	0.19927
1577.65673	0.19917
1575.72806	0.19927
1573.79938	0.19953
1571.87071	0.19946
1569.94203	0.19929
1568.01335	0.19959
1566.08468	0.20009
1564.15600	0.20031
1562.22733	0.20004
1560.29865	0.19921
1558.36998	0.19870
1556.44130	0.19918
1554.51262	0.20000
1552.58395	0.20055
1550.65527	0.20087
1548.72660	0.20115
1546.79792	0.20125
1544.86925	0.20096
1542.94057	0.20044
1541.01189	0.20005
1539.08322	0.20022
1537.15454	0.20094
1535.22587	0.20151
1533.29719	0.20172
1531.36852	0.20192
1529.43984	0.20200
1527.51116	0.20192
1525.58249	0.20190
1523.65381	0.20170
1521.72514	0.20128
1519.79646	0.20117
1517.86779	0.20148
1515.93911	0.20183
1514.01043	0.20201
1512.08176	0.20197
1510.15308	0.20179
1508.22441	0.20164
1506.29573	0.20188
1504.36706	0.20251
1502.43838	0.20300
1500.50970	0.20309
1498.58103	0.20294
1496.65235	0.20286
1494.72368	0.20295
1492.79500	0.20283
1490.86633	0.20240
1488.93765	0.20222
1487.00897	0.20251
1485.08030	0.20282
1483.15162	0.20282
1481.22295	0.20262
1479.29427	0.20239
1477.36560	0.20203
1475.43692	0.20145
1473.50824	0.20092
1471.57957	0.20073
1469.65089	0.20071
1467.72222	0.20049
1465.79354	0.20015
1463.86487	0.19997
1461.93619	0.19977
1460.00751	0.19919
1458.07884	0.19854
1456.15016	0.19843
1454.22149	0.19884
1452.29281	0.19921
1450.36414	0.19926
1448.43546	0.19921
1446.50678	0.19937
1444.57811	0.19967
1442.64943	0.19988
1440.72076	0.19989
1438.79208	0.19962
1436.86341	0.19940
1434.93473	0.19972
1433.00605	0.20025
1431.07738	0.20050
1429.14870	0.20063
1427.22003	0.20072
1425.29135	0.20072
1423.36268	0.20071
1421.43400	0.20061
1419.50532	0.20037
1417.57665	0.20038
1415.64797	0.20070
1413.71930	0.20098
1411.79062	0.20103
1409.86195	0.20101
1407.93327	0.20096
1406.00459	0.20084
1404.07592	0.20082
1402.14724	0.20087
1400.21857	0.20074
1398.28989	0.20051
1396.36122	0.20036
1394.43254	0.20037
1392.50386	0.20054
1390.57519	0.20051
1388.64651	0.20012
1386.71784	0.19975
1384.78916	0.19969
1382.86049	0.19977
1380.93181	0.19982
1379.00313	0.19980
1377.07446	0.19969
1375.14578	0.19957
1373.21711	0.19963
1371.28843	0.19977
1369.35976	0.19980
1367.43108	0.19975
1365.50240	0.19956
1363.57373	0.19932
1361.64505	0.19936
1359.71638	0.19961
1357.78770	0.19979
1355.85903	0.19988
1353.93035	0.19997
1352.00167	0.20006
1350.07300	0.20014
1348.14432	0.20026
1346.21565	0.20038
1344.28697	0.20038
1342.35830	0.20020
1340.42962	0.19999
1338.50094	0.19993
1336.57227	0.20000
1334.64359	0.20007
1332.71492	0.20003
1330.78624	0.19991
1328.85757	0.19977
1326.92889	0.19963
1325.00021	0.19949
1323.07154	0.19932
1321.14286	0.19912
1319.21419	0.19895
1317.28551	0.19882
1315.35684	0.19864
1313.42816	0.19837
1311.49948	0.19810
1309.57081	0.19791
1307.64213	0.19776
1305.71346	0.19763
1303.78478	0.19748
1301.85611	0.19721
1299.92743	0.19692
1297.99875	0.19669
1296.07008	0.19652
1294.14140	0.19636
1292.21273	0.19616
1290.28405	0.19595
1288.35538	0.19578
1286.42670	0.19563
1284.49802	0.19545
1282.56935	0.19524
1280.64067	0.19500
1278.71200	0.19472
1276.78332	0.19440
1274.85465	0.19398
1272.92597	0.19344
1270.99729	0.19277
1269.06862	0.19194
1267.13994	0.19105
1265.21127	0.19026
1263.28259	0.18968
1261.35392	0.18937
1259.42524	0.18935
1257.49656	0.18954
1255.56789	0.18974
1253.63921	0.18978
1251.71054	0.18965
1249.78186	0.18944
1247.85319	0.18918
1245.92451	0.18883
1243.99583	0.18843
1242.06716	0.18804
1240.13848	0.18760
1238.20981	0.18709
1236.28113	0.18655
1234.35246	0.18603
1232.42378	0.18550
1230.49510	0.18492
1228.56643	0.18435
1226.63775	0.18384
1224.70908	0.18340
1222.78040	0.18297
1220.85173	0.18248
1218.92305	0.18193
1216.99437	0.18137
1215.06570	0.18084
1213.13702	0.18030
1211.20835	0.17969
1209.27967	0.17904
1207.35100	0.17850
1205.42232	0.17801
1203.49364	0.17748
1201.56497	0.17689
1199.63629	0.17627
1197.70762	0.17566
1195.77894	0.17509
1193.85027	0.17452
1191.92159	0.17390
1189.99291	0.17319
1188.06424	0.17239
1186.13556	0.17159
1184.20689	0.17084
1182.27821	0.17012
1180.34954	0.16934
1178.42086	0.16849
1176.49218	0.16760
1174.56351	0.16674
1172.63483	0.16591
1170.70616	0.16508
1168.77748	0.16422
1166.84881	0.16334
1164.92013	0.16246
1162.99145	0.16166
1161.06278	0.16086
1159.13410	0.16000
1157.20543	0.15916
1155.27675	0.15843
1153.34808	0.15771
1151.41940	0.15688
1149.49072	0.15602
1147.56205	0.15521
1145.63337	0.15440
1143.70470	0.15355
1141.77602	0.15266
1139.84735	0.15170
1137.91867	0.15066
1135.98999	0.14949
1134.06132	0.14814
1132.13264	0.14654
1130.20397	0.14471
1128.27529	0.14267
1126.34662	0.14050
1124.41794	0.13826
1122.48926	0.13595
1120.56059	0.13359
1118.63191	0.13130
1116.70324	0.12922
1114.77456	0.12739
1112.84589	0.12580
1110.91721	0.12448
1108.98853	0.12346
1107.05986	0.12271
1105.13118	0.12220
1103.20251	0.12199
1101.27383	0.12220
1099.34516	0.12273
1097.41648	0.12336
1095.48780	0.12404
1093.55913	0.12485
1091.63045	0.12575
1089.70178	0.12658
1087.77310	0.12727
1085.84443	0.12789
1083.91575	0.12844
1081.98707	0.12882
1080.05840	0.12903
1078.12972	0.12918
1076.20105	0.12936
1074.27237	0.12955
1072.34370	0.12973
1070.41502	0.12996
1068.48634	0.13019
1066.55767	0.13038
1064.62899	0.13049
1062.70032	0.13058
1060.77164	0.13076
1058.84297	0.13102
1056.91429	0.13130
1054.98561	0.13160
1053.05694	0.13194
1051.12826	0.13231
1049.19959	0.13263
1047.27091	0.13289
1045.34224	0.13323
1043.41356	0.13372
1041.48488	0.13420
1039.55621	0.13457
1037.62753	0.13494
1035.69886	0.13532
1033.77018	0.13564
1031.84151	0.13593
1029.91283	0.13627
1027.98415	0.13666
1026.05548	0.13704
1024.12680	0.13741
1022.19813	0.13774
1020.26945	0.13806
1018.34078	0.13844
1016.41210	0.13888
1014.48342	0.13932
1012.55475	0.13982
1010.62607	0.14042
1008.69740	0.14108
1006.76872	0.14178
1004.84005	0.14240
1002.91137	0.14292
1000.98269	0.14325
999.05402	0.14339
997.12534	0.14350
995.19667	0.14367
993.26799	0.14385
991.33932	0.14397
989.41064	0.14403
987.48196	0.14406
985.55329	0.14407
983.62461	0.14405
981.69594	0.14405
979.76726	0.14401
977.83859	0.14390
975.90991	0.14370
973.98123	0.14347
972.05256	0.14327
970.12388	0.14312
968.19521	0.14297
966.26653	0.14282
964.33786	0.14267
962.40918	0.14245
960.48050	0.14221
958.55183	0.14205
956.62315	0.14194
954.69448	0.14178
952.76580	0.14158
950.83713	0.14138
948.90845	0.14119
946.97977	0.14098
945.05110	0.14074
943.12242	0.14045
941.19375	0.14007
939.26507	0.13964
937.33640	0.13924
935.40772	0.13878
933.47904	0.13822
931.55037	0.13767
929.62169	0.13721
927.69302	0.13672
925.76434	0.13611
923.83567	0.13546
921.90699	0.13489
919.97831	0.13438
918.04964	0.13380
916.12096	0.13314
914.19229	0.13241
912.26361	0.13164
910.33494	0.13085
908.40626	0.13011
906.47758	0.12944
904.54891	0.12885
902.62023	0.12828
900.69156	0.12770
898.76288	0.12710
896.83421	0.12653
894.90553	0.12602
892.97685	0.12557
891.04818	0.12517
889.11950	0.12472
887.19083	0.12427
885.26215	0.12391
883.33348	0.12356
881.40480	0.12317
879.47612	0.12280
877.54745	0.12252
875.61877	0.12232
873.69010	0.12211
871.76142	0.12182
869.83275	0.12154
867.90407	0.12135
865.97539	0.12114
864.04672	0.12092
862.11804	0.12084
860.18937	0.12091
858.26069	0.12091
856.33202	0.12074
854.40334	0.12050
852.47466	0.12027
850.54599	0.12001
848.61731	0.11970
846.68864	0.11943
844.75996	0.11920
842.83129	0.11893
840.90261	0.11858
838.97394	0.11820
837.04526	0.11775
835.11658	0.11712
833.18791	0.11629
831.25923	0.11537
829.33056	0.11445
827.40188	0.11350
825.47321	0.11249
823.54453	0.11147
821.61585	0.11061
819.68718	0.11000
817.75850	0.10953
815.82983	0.10911
813.90115	0.10877
811.97248	0.10853
810.04380	0.10831
808.11512	0.10807
806.18645	0.10787
804.25777	0.10779
802.32910	0.10778
800.40042	0.10757
798.47175	0.10708
796.54307	0.10647
794.61439	0.10591
792.68572	0.10553
790.75704	0.10530
788.82837	0.10506
786.89969	0.10480
784.97102	0.10462
783.04234	0.10445
781.11366	0.10421
779.18499	0.10394
777.25631	0.10357
775.32764	0.10314
773.39896	0.10283
771.47029	0.10256
769.54161	0.10220
767.61293	0.10180
765.68426	0.10142
763.75558	0.10103
761.82691	0.10058
759.89823	0.10005
757.96956	0.09946
756.04088	0.09888
754.11220	0.09833
752.18353	0.09778
750.25485	0.09714
748.32618	0.09636
746.39750	0.09554
744.46883	0.09471
742.54015	0.09385
740.61147	0.09303
738.68280	0.09241
736.75412	0.09215
734.82545	0.09218
732.89677	0.09229
730.96810	0.09235
729.03942	0.09242
727.11074	0.09255
725.18207	0.09270
723.25339	0.09280
721.32472	0.09284
719.39604	0.09299
717.46737	0.09331
715.53869	0.09376
713.61001	0.09422
711.68134	0.09460
709.75266	0.09479
707.82399	0.09480
705.89531	0.09475
703.96664	0.09462
702.03796	0.09437
700.10928	0.09398
698.18061	0.09348
696.25193	0.09292
694.32326	0.09234
692.39458	0.09179
690.46591	0.09132
688.53723	0.09085
686.60855	0.09033
684.67988	0.08979
682.75120	0.08931
680.82253	0.08881
678.89385	0.08824
676.96518	0.08761
675.03650	0.08694
673.10782	0.08623
671.17915	0.08549
669.25047	0.08471
667.32180	0.08389
665.39312	0.08311
663.46445	0.08229
661.53577	0.08146
659.60709	0.08067
657.67842	0.07988
655.74974	0.07910
653.82107	0.07830
651.89239	0.07742
649.96372	0.07656
648.03504	0.07582
646.10636	0.07502
644.17769	0.07405
642.24901	0.07301
640.32034	0.07200
638.39166	0.07105
636.46299	0.07006
634.53431	0.06898
632.60563	0.06754
630.67696	0.06521
628.74828	0.06173
626.81961	0.05733
624.89093	0.05294
622.96226	0.04956
621.03358	0.04737
619.10490	0.04606
617.17623	0.04513
615.24755	0.04426
613.31888	0.04333
611.39020	0.04239
609.46153	0.04177
607.53285	0.04182
605.60417	0.04231
603.67550	0.04290
601.74682	0.04361
599.81815	0.04453
597.88947	0.04544
595.96080	0.04610
594.03212	0.04648
592.10344	0.04671
590.17477	0.04686
588.24609	0.04686
586.31742	0.04669
584.38874	0.04646
582.46007	0.04619
580.53139	0.04588
578.60271	0.04548
576.67404	0.04496
574.74536	0.04436
572.81669	0.04374
570.88801	0.04310
568.95934	0.04246
567.03066	0.04191
565.10198	0.04154
563.17331	0.04126
561.24463	0.04095
559.31596	0.04060
557.38728	0.04037
555.45861	0.04025
553.52993	0.04009
551.60125	0.03993
549.67258	0.03984
547.74390	0.03975
545.81523	0.03959
543.88655	0.03933
541.95788	0.03905
540.02920	0.03884
538.10052	0.03868
536.17185	0.03847
534.24317	0.03825
532.31450	0.03807
530.38582	0.03789
528.45715	0.03760
526.52847	0.03723
524.59979	0.03686
522.67112	0.03647
520.74244	0.03600
518.81377	0.03544
516.88509	0.03489
514.95642	0.03437
513.02774	0.03397
511.09906	0.03379
509.17039	0.03370
507.24171	0.03352
505.31304	0.03324
503.38436	0.03286
501.45569	0.03249
499.52701	0.03212
497.59833	0.03163
495.66966	0.03103
493.74098	0.03045
491.81231	0.02985
489.88363	0.02926
487.95496	0.02875
486.02628	0.02827
484.09760	0.02771
482.16893	0.02709
480.24025	0.02647
478.31158	0.02586
476.38290	0.02526
474.45423	0.02470
472.52555	0.02429
470.59687	0.02398
468.66820	0.02355
466.73952	0.02311
464.81085	0.02286
462.88217	0.02273
460.95350	0.02255
459.02482	0.02238
457.09614	0.02229
455.16747	0.02229
453.23879	0.02234
451.31012	0.02235
449.38144	0.02225
447.45277	0.02208
445.52409	0.02195
443.59541	0.02181
441.66674	0.02153
439.73806	0.02113
437.80939	0.02070
435.88071	0.02030
433.95204	0.01987
432.02336	0.01936
430.09468	0.01875
428.16601	0.01804
426.23733	0.01735
424.30866	0.01673
422.37998	0.01610
420.45131	0.01546
418.52263	0.01479
416.59395	0.01415
414.66528	0.01359
412.73660	0.01298
410.80793	0.01228
408.87925	0.01165
406.95058	0.01114
405.02190	0.01061
403.09322	0.00993
401.16455	0.00918
399.23587	0.00858
397.30720	0.00820
395.37852	0.00784
393.44985	0.00735
391.52117	0.00677
389.59249	0.00625
387.66382	0.00587
385.73514	0.00556
383.80647	0.00518
381.87779	0.00470
379.94912	0.00424
378.02044	0.00389
376.09176	0.00362
374.16309	0.00329
372.23441	0.00292
370.30574	0.00259
368.37706	0.00233
