7496.76250	0.00115
7494.83382	0.00118
7492.90514	0.00119
7490.97647	0.00117
7489.04779	0.00115
7487.11912	0.00116
7485.19044	0.00118
7483.26177	0.00120
7481.33309	0.00120
7479.40441	0.00120
7477.47574	0.00119
7475.54706	0.00119
7473.61839	0.00119
7471.68971	0.00120
7469.76104	0.00120
7467.83236	0.00121
7465.90368	0.00122
7463.97501	0.00122
7462.04633	0.00121
7460.11766	0.00119
7458.18898	0.00119
7456.26031	0.00120
7454.33163	0.00121
7452.40295	0.00121
7450.47428	0.00122
7448.54560	0.00122
7446.61693	0.00122
7444.68825	0.00122
7442.75958	0.00122
7440.83090	0.00123
7438.90222	0.00123
7436.97355	0.00123
7435.04487	0.00124
7433.11620	0.00125
7431.18752	0.00125
7429.25885	0.00125
7427.33017	0.00126
7425.40149	0.00127
7423.47282	0.00127
7421.54414	0.00128
7419.61547	0.00129
7417.68679	0.00130
7415.75812	0.00131
7413.82944	0.00131
7411.90076	0.00131
7409.97209	0.00132
7408.04341	0.00133
7406.11474	0.00132
7404.18606	0.00132
7402.25739	0.00132
7400.32871	0.00133
7398.40003	0.00133
7396.47136	0.00133
7394.54268	0.00134
7392.61401	0.00134
7390.68533	0.00135
7388.75666	0.00134
7386.82798	0.00133
7384.89930	0.00134
7382.97063	0.00135
7381.04195	0.00135
7379.11328	0.00136
7377.18460	0.00137
7375.25593	0.00138
7373.32725	0.00138
7371.39857	0.00139
7369.46990	0.00139
7367.54122	0.00139
7365.61255	0.00136
7363.68387	0.00135
7361.75520	0.00135
7359.82652	0.00137
7357.89784	0.00138
7355.96917	0.00138
7354.04049	0.00139
7352.11182	0.00140
7350.18314	0.00140
7348.25447	0.00140
7346.32579	0.00139
7344.39711	0.00139
7342.46844	0.00140
7340.53976	0.00142
7338.61109	0.00144
7336.68241	0.00144
7334.75374	0.00145
7332.82506	0.00144
7330.89638	0.00144
7328.96771	0.00144
7327.03903	0.00145
7325.11036	0.00144
7323.18168	0.00144
7321.25301	0.00145
7319.32433	0.00147
7317.39565	0.00148
7315.46698	0.00148
7313.53830	0.00148
7311.60963	0.00148
7309.68095	0.00147
7307.75228	0.00146
7305.82360	0.00146
7303.89492	0.00148
7301.96625	0.00150
7300.03757	0.00150
7298.10890	0.00149
7296.18022	0.00149
7294.25155	0.00149
7292.32287	0.00150
7290.39419	0.00151
7288.46552	0.00151
7286.53684	0.00152
7284.60817	0.00152
7282.67949	0.00154
7280.75082	0.00154
7278.82214	0.00154
7276.89346	0.00154
7274.96479	0.00154
7273.03611	0.00154
7271.10744	0.00156
7269.17876	0.00156
7267.25009	0.00156
7265.32141	0.00157
7263.39273	0.00157
7261.46406	0.00158
7259.53538	0.00158
7257.60671	0.00157
7255.67803	0.00157
7253.74936	0.00157
7251.82068	0.00157
7249.89200	0.00159
7247.96333	0.00162
7246.03465	0.00163
7244.10598	0.00163
7242.17730	0.00161
7240.24863	0.00162
7238.31995	0.00162
7236.39127	0.00162
7234.46260	0.00161
7232.53392	0.00161
7230.60525	0.00161
7228.67657	0.00162
7226.74790	0.00162
7224.81922	0.00162
7222.89054	0.00163
7220.96187	0.00162
7219.03319	0.00162
7217.10452	0.00163
7215.17584	0.00164
7213.24717	0.00166
7211.31849	0.00166
7209.38981	0.00165
7207.46114	0.00164
7205.53246	0.00164
7203.60379	0.00164
7201.67511	0.00166
7199.74644	0.00168
7197.81776	0.00169
7195.88908	0.00170
7193.96041	0.00170
7192.03173	0.00172
7190.10306	0.00173
7188.17438	0.00172
7186.24571	0.00170
7184.31703	0.00170
7182.38835	0.00171
7180.45968	0.00172
7178.53100	0.00172
7176.60233	0.00172
7174.67365	0.00173
7172.74498	0.00174
7170.81630	0.00174
7168.88762	0.00173
7166.95895	0.00173
7165.03027	0.00174
7163.10160	0.00176
7161.17292	0.00177
7159.24425	0.00178
7157.31557	0.00179
7155.38689	0.00180
7153.45822	0.00179
7151.52954	0.00177
7149.60087	0.00176
7147.67219	0.00176
7145.74352	0.00177
7143.81484	0.00178
7141.88616	0.00180
7139.95749	0.00182
7138.02881	0.00183
7136.10014	0.00184
7134.17146	0.00183
7132.24279	0.00182
7130.31411	0.00181
7128.38543	0.00181
7126.45676	0.00181
7124.52808	0.00181
7122.59941	0.00182
7120.67073	0.00183
7118.74206	0.00184
7116.81338	0.00183
7114.88470	0.00182
7112.95603	0.00182
7111.02735	0.00184
7109.09868	0.00187
7107.17000	0.00188
7105.24133	0.00188
7103.31265	0.00188
7101.38397	0.00189
7099.45530	0.00191
7097.52662	0.00192
7095.59795	0.00190
7093.66927	0.00189
7091.74060	0.00189
7089.81192	0.00191
7087.88324	0.00191
7085.95457	0.00191
7084.02589	0.00192
7082.09722	0.00194
7080.16854	0.00193
7078.23987	0.00191
7076.31119	0.00191
7074.38251	0.00192
7072.45384	0.00193
7070.52516	0.00195
7068.59649	0.00197
7066.66781	0.00198
7064.73914	0.00197
7062.81046	0.00197
7060.88178	0.00197
7058.95311	0.00198
7057.02443	0.00198
7055.09576	0.00199
7053.16708	0.00199
7051.23841	0.00199
7049.30973	0.00199
7047.38105	0.00201
7045.45238	0.00202
7043.52370	0.00202
7041.59503	0.00203
7039.66635	0.00203
7037.73768	0.00204
7035.80900	0.00204
7033.88032	0.00203
7031.95165	0.00203
7030.02297	0.00204
7028.09430	0.00204
7026.16562	0.00204
7024.23695	0.00206
7022.30827	0.00207
7020.37959	0.00207
7018.45092	0.00204
7016.52224	0.00203
7014.59357	0.00204
7012.66489	0.00205
7010.73622	0.00206
7008.80754	0.00207
7006.87886	0.00207
7004.95019	0.00208
7003.02151	0.00210
7001.09284	0.00211
6999.16416	0.00212
6997.23549	0.00213
6995.30681	0.00213
6993.37813	0.00213
6991.44946	0.00212
6989.52078	0.00214
6987.59211	0.00216
6985.66343	0.00216
6983.73476	0.00215
6981.80608	0.00215
6979.87740	0.00215
6977.94873	0.00215
6976.02005	0.00214
6974.09138	0.00215
6972.16270	0.00216
6970.23403	0.00218
6968.30535	0.00219
6966.37667	0.00219
6964.44800	0.00218
6962.51932	0.00218
6960.59065	0.00218
6958.66197	0.00218
6956.73330	0.00220
6954.80462	0.00221
6952.87594	0.00221
6950.94727	0.00222
6949.01859	0.00221
6947.08992	0.00221
6945.16124	0.00222
6943.23257	0.00222
6941.30389	0.00222
6939.37521	0.00223
6937.44654	0.00225
6935.51786	0.00226
6933.58919	0.00226
6931.66051	0.00227
6929.73184	0.00228
6927.80316	0.00230
6925.87448	0.00232
6923.94581	0.00231
6922.01713	0.00229
6920.08846	0.00228
6918.15978	0.00230
6916.23111	0.00231
6914.30243	0.00232
6912.37375	0.00232
6910.44508	0.00232
6908.51640	0.00232
6906.58773	0.00233
6904.65905	0.00234
6902.73038	0.00235
6900.80170	0.00234
6898.87302	0.00234
6896.94435	0.00234
6895.01567	0.00236
6893.08700	0.00238
6891.15832	0.00238
6889.22965	0.00238
6887.30097	0.00238
6885.37229	0.00239
6883.44362	0.00240
6881.51494	0.00240
6879.58627	0.00241
6877.65759	0.00241
6875.72892	0.00242
6873.80024	0.00242
6871.87156	0.00242
6869.94289	0.00242
6868.01421	0.00243
6866.08554	0.00244
6864.15686	0.00246
6862.22819	0.00248
6860.29951	0.00248
6858.37083	0.00247
6856.44216	0.00247
6854.51348	0.00248
6852.58481	0.00249
6850.65613	0.00248
6848.72746	0.00247
6846.79878	0.00248
6844.87010	0.00250
6842.94143	0.00251
6841.01275	0.00251
6839.08408	0.00252
6837.15540	0.00253
6835.22673	0.00254
6833.29805	0.00253
6831.36937	0.00253
6829.44070	0.00252
6827.51202	0.00253
6825.58335	0.00254
6823.65467	0.00255
6821.72600	0.00255
6819.79732	0.00255
6817.86864	0.00256
6815.93997	0.00257
6814.01129	0.00257
6812.08262	0.00258
6810.15394	0.00259
6808.22527	0.00259
6806.29659	0.00259
6804.36791	0.00258
6802.43924	0.00259
6800.51056	0.00259
6798.58189	0.00258
6796.65321	0.00260
6794.72454	0.00263
6792.79586	0.00265
6790.86718	0.00265
6788.93851	0.00265
6787.00983	0.00265
6785.08116	0.00266
6783.15248	0.00267
6781.22381	0.00269
6779.29513	0.00271
6777.36645	0.00270
6775.43778	0.00269
6773.50910	0.00270
6771.58043	0.00272
6769.65175	0.00273
6767.72308	0.00272
6765.79440	0.00272
6763.86572	0.00272
6761.93705	0.00273
6760.00837	0.00275
6758.07970	0.00276
6756.15102	0.00276
6754.22235	0.00276
6752.29367	0.00275
6750.36499	0.00275
6748.43632	0.00274
6746.50764	0.00275
6744.57897	0.00275
6742.65029	0.00276
6740.72162	0.00278
6738.79294	0.00280
6736.86426	0.00281
6734.93559	0.00282
6733.00691	0.00281
6731.07824	0.00282
6729.14956	0.00283
6727.22089	0.00283
6725.29221	0.00282
6723.36353	0.00283
6721.43486	0.00285
6719.50618	0.00286
6717.57751	0.00286
6715.64883	0.00285
6713.72016	0.00285
6711.79148	0.00289
6709.86280	0.00290
6707.93413	0.00290
6706.00545	0.00289
6704.07678	0.00290
6702.14810	0.00291
6700.21943	0.00292
6698.29075	0.00292
6696.36207	0.00293
6694.43340	0.00294
6692.50472	0.00295
6690.57605	0.00296
6688.64737	0.00295
6686.71870	0.00294
6684.79002	0.00295
6682.86134	0.00297
6680.93267	0.00298
6679.00399	0.00299
6677.07532	0.00299
6675.14664	0.00299
6673.21797	0.00298
6671.28929	0.00298
6669.36061	0.00299
6667.43194	0.00300
6665.50326	0.00301
6663.57459	0.00302
6661.64591	0.00304
6659.71724	0.00305
6657.78856	0.00305
6655.85988	0.00305
6653.93121	0.00306
6652.00253	0.00307
6650.07386	0.00308
6648.14518	0.00310
6646.21651	0.00310
6644.28783	0.00310
6642.35915	0.00310
6640.43048	0.00311
6638.50180	0.00313
6636.57313	0.00315
6634.64445	0.00315
6632.71578	0.00316
6630.78710	0.00316
6628.85842	0.00316
6626.92975	0.00316
6625.00107	0.00317
6623.07240	0.00318
6621.14372	0.00317
6619.21505	0.00318
6617.28637	0.00319
6615.35769	0.00320
6613.42902	0.00320
6611.50034	0.00319
6609.57167	0.00321
6607.64299	0.00323
6605.71432	0.00325
6603.78564	0.00325
6601.85696	0.00324
6599.92829	0.00323
6597.99961	0.00323
6596.07094	0.00325
6594.14226	0.00326
6592.21359	0.00327
6590.28491	0.00328
6588.35623	0.00328
6586.42756	0.00330
6584.49888	0.00331
6582.57021	0.00330
6580.64153	0.00330
6578.71286	0.00331
6576.78418	0.00331
6574.85550	0.00332
6572.92683	0.00332
6570.99815	0.00333
6569.06948	0.00335
6567.14080	0.00336
6565.21213	0.00337
6563.28345	0.00338
6561.35477	0.00338
6559.42610	0.00338
6557.49742	0.00340
6555.56875	0.00342
6553.64007	0.00343
6551.71140	0.00343
6549.78272	0.00343
6547.85404	0.00343
6545.92537	0.00344
6543.99669	0.00345
6542.06802	0.00346
6540.13934	0.00348
6538.21067	0.00348
6536.28199	0.00348
6534.35331	0.00348
6532.42464	0.00349
6530.49596	0.00351
6528.56729	0.00352
6526.63861	0.00352
6524.70994	0.00354
6522.78126	0.00355
6520.85258	0.00354
6518.92391	0.00353
6516.99523	0.00353
6515.06656	0.00355
6513.13788	0.00355
6511.20921	0.00356
6509.28053	0.00357
6507.35185	0.00356
6505.42318	0.00355
6503.49450	0.00355
6501.56583	0.00357
6499.63715	0.00360
6497.70848	0.00361
6495.77980	0.00363
6493.85112	0.00365
6491.92245	0.00366
6489.99377	0.00366
6488.06510	0.00365
6486.13642	0.00365
6484.20775	0.00366
6482.27907	0.00366
6480.35039	0.00367
6478.42172	0.00368
6476.49304	0.00369
6474.56437	0.00372
6472.63569	0.00375
6470.70702	0.00377
6468.77834	0.00377
6466.84966	0.00376
6464.92099	0.00375
6462.99231	0.00376
6461.06364	0.00376
6459.13496	0.00377
6457.20629	0.00379
6455.27761	0.00380
6453.34893	0.00381
6451.42026	0.00382
6449.49158	0.00383
6447.56291	0.00384
6445.63423	0.00385
6443.70556	0.00386
6441.77688	0.00386
6439.84820	0.00387
6437.91953	0.00387
6435.99085	0.00387
6434.06218	0.00388
6432.13350	0.00387
6430.20483	0.00386
6428.27615	0.00388
6426.34747	0.00390
6424.41880	0.00391
6422.49012	0.00391
6420.56145	0.00391
6418.63277	0.00393
6416.70410	0.00394
6414.77542	0.00395
6412.84674	0.00395
6410.91807	0.00395
6408.98939	0.00396
6407.06072	0.00399
6405.13204	0.00403
6403.20337	0.00405
6401.27469	0.00404
6399.34601	0.00403
6397.41734	0.00403
6395.48866	0.00404
6393.55999	0.00405
6391.63131	0.00406
6389.70264	0.00406
6387.77396	0.00407
6385.84528	0.00408
6383.91661	0.00410
6381.98793	0.00411
6380.05926	0.00410
6378.13058	0.00409
6376.20191	0.00410
6374.27323	0.00412
6372.34455	0.00413
6370.41588	0.00414
6368.48720	0.00416
6366.55853	0.00417
6364.62985	0.00418
6362.70118	0.00417
6360.77250	0.00417
6358.84382	0.00420
6356.91515	0.00423
6354.98647	0.00424
6353.05780	0.00423
6351.12912	0.00423
6349.20045	0.00423
6347.27177	0.00424
6345.34309	0.00426
6343.41442	0.00429
6341.48574	0.00430
6339.55707	0.00431
6337.62839	0.00431
6335.69972	0.00432
6333.77104	0.00433
6331.84236	0.00434
6329.91369	0.00434
6327.98501	0.00435
6326.05634	0.00436
6324.12766	0.00435
6322.19899	0.00435
6320.27031	0.00436
6318.34163	0.00438
6316.41296	0.00441
6314.48428	0.00442
6312.55561	0.00443
6310.62693	0.00442
6308.69826	0.00443
6306.76958	0.00444
6304.84090	0.00445
6302.91223	0.00447
6300.98355	0.00448
6299.05488	0.00449
6297.12620	0.00450
6295.19753	0.00451
6293.26885	0.00453
6291.34017	0.00455
6289.41150	0.00455
6287.48282	0.00456
6285.55415	0.00455
6283.62547	0.00455
6281.69680	0.00455
6279.76812	0.00457
6277.83944	0.00459
6275.91077	0.00461
6273.98209	0.00461
6272.05342	0.00461
6270.12474	0.00463
6268.19607	0.00465
6266.26739	0.00464
6264.33871	0.00463
6262.41004	0.00464
6260.48136	0.00466
6258.55269	0.00468
6256.62401	0.00470
6254.69534	0.00470
6252.76666	0.00469
6250.83798	0.00469
6248.90931	0.00470
6246.98063	0.00472
6245.05196	0.00473
6243.12328	0.00475
6241.19461	0.00477
6239.26593	0.00478
6237.33725	0.00479
6235.40858	0.00479
6233.47990	0.00480
6231.55123	0.00482
6229.62255	0.00483
6227.69388	0.00485
6225.76520	0.00487
6223.83652	0.00489
6221.90785	0.00489
6219.97917	0.00490
6218.05050	0.00491
6216.12182	0.00493
6214.19315	0.00493
6212.26447	0.00494
6210.33579	0.00495
6208.40712	0.00497
6206.47844	0.00498
6204.54977	0.00497
6202.62109	0.00497
6200.69242	0.00498
6198.76374	0.00500
6196.83506	0.00500
6194.90639	0.00500
6192.97771	0.00501
6191.04904	0.00503
6189.12036	0.00506
6187.19169	0.00508
6185.26301	0.00508
6183.33433	0.00508
6181.40566	0.00509
6179.47698	0.00510
6177.54831	0.00511
6175.61963	0.00512
6173.69096	0.00513
6171.76228	0.00514
6169.83360	0.00515
6167.90493	0.00517
6165.97625	0.00518
6164.04758	0.00518
6162.11890	0.00519
6160.19023	0.00522
6158.26155	0.00523
6156.33287	0.00523
6154.40420	0.00524
6152.47552	0.00525
6150.54685	0.00527
6148.61817	0.00527
6146.68950	0.00527
6144.76082	0.00528
6142.83214	0.00531
6140.90347	0.00532
6138.97479	0.00533
6137.04612	0.00534
6135.11744	0.00535
6133.18877	0.00537
6131.26009	0.00539
6129.33141	0.00540
6127.40274	0.00541
6125.47406	0.00541
6123.54539	0.00543
6121.61671	0.00544
6119.68804	0.00545
6117.75936	0.00546
6115.83068	0.00547
6113.90201	0.00548
6111.97333	0.00549
6110.04466	0.00552
6108.11598	0.00554
6106.18731	0.00555
6104.25863	0.00554
6102.32995	0.00554
6100.40128	0.00555
6098.47260	0.00555
6096.54393	0.00556
6094.61525	0.00559
6092.68658	0.00561
6090.75790	0.00562
6088.82922	0.00563
6086.90055	0.00564
6084.97187	0.00565
6083.04320	0.00565
6081.11452	0.00566
6079.18585	0.00567
6077.25717	0.00569
6075.32849	0.00571
6073.39982	0.00572
6071.47114	0.00573
6069.54247	0.00574
6067.61379	0.00574
6065.68512	0.00574
6063.75644	0.00576
6061.82776	0.00578
6059.89909	0.00580
6057.97041	0.00582
6056.04174	0.00584
6054.11306	0.00586
6052.18439	0.00588
6050.25571	0.00588
6048.32703	0.00586
6046.39836	0.00587
6044.46968	0.00589
6042.54101	0.00592
6040.61233	0.00596
6038.68366	0.00597
6036.75498	0.00597
6034.82630	0.00598
6032.89763	0.00601
6030.96895	0.00603
6029.04028	0.00605
6027.11160	0.00604
6025.18293	0.00603
6023.25425	0.00604
6021.32557	0.00606
6019.39690	0.00608
6017.46822	0.00608
6015.53955	0.00608
6013.61087	0.00609
6011.68220	0.00610
6009.75352	0.00612
6007.82484	0.00615
6005.89617	0.00617
6003.96749	0.00616
6002.03882	0.00617
6000.11014	0.00618
5998.18147	0.00620
5996.25279	0.00622
5994.32411	0.00624
5992.39544	0.00624
5990.46676	0.00624
5988.53809	0.00626
5986.60941	0.00629
5984.68074	0.00632
5982.75206	0.00633
5980.82338	0.00633
5978.89471	0.00633
5976.96603	0.00634
5975.03736	0.00635
5973.10868	0.00637
5971.18001	0.00638
5969.25133	0.00638
5967.32265	0.00639
5965.39398	0.00640
5963.46530	0.00641
5961.53663	0.00644
5959.60795	0.00646
5957.67928	0.00647
5955.75060	0.00648
5953.82192	0.00650
5951.89325	0.00652
5949.96457	0.00653
5948.03590	0.00652
5946.10722	0.00650
5944.17855	0.00652
5942.24987	0.00656
5940.32119	0.00660
5938.39252	0.00663
5936.46384	0.00664
5934.53517	0.00665
5932.60649	0.00666
5930.67782	0.00667
5928.74914	0.00669
5926.82046	0.00672
5924.89179	0.00675
5922.96311	0.00676
5921.03444	0.00675
5919.10576	0.00675
5917.17709	0.00676
5915.24841	0.00677
5913.31973	0.00678
5911.39106	0.00678
5909.46238	0.00679
5907.53371	0.00682
5905.60503	0.00685
5903.67636	0.00686
5901.74768	0.00687
5899.81900	0.00689
5897.89033	0.00690
5895.96165	0.00691
5894.03298	0.00691
5892.10430	0.00692
5890.17563	0.00696
5888.24695	0.00699
5886.31827	0.00701
5884.38960	0.00702
5882.46092	0.00704
5880.53225	0.00705
5878.60357	0.00706
5876.67490	0.00705
5874.74622	0.00705
5872.81755	0.00706
5870.88887	0.00709
5868.96019	0.00710
5867.03152	0.00711
5865.10284	0.00713
5863.17417	0.00715
5861.24549	0.00718
5859.31682	0.00721
5857.38814	0.00723
5855.45946	0.00724
5853.53079	0.00725
5851.60211	0.00726
5849.67344	0.00726
5847.74476	0.00726
5845.81609	0.00729
5843.88741	0.00731
5841.95873	0.00733
5840.03006	0.00735
5838.10138	0.00737
5836.17271	0.00739
5834.24403	0.00740
5832.31536	0.00740
5830.38668	0.00741
5828.45800	0.00742
5826.52933	0.00745
5824.60065	0.00748
5822.67198	0.00750
5820.74330	0.00750
5818.81463	0.00751
5816.88595	0.00751
5814.95727	0.00752
5813.02860	0.00754
5811.09992	0.00757
5809.17125	0.00758
5807.24257	0.00758
5805.31390	0.00760
5803.38522	0.00760
5801.45654	0.00762
5799.52787	0.00765
5797.59919	0.00768
5795.67052	0.00770
5793.74184	0.00772
5791.81317	0.00771
5789.88449	0.00770
5787.95581	0.00771
5786.02714	0.00774
5784.09846	0.00776
5782.16979	0.00779
5780.24111	0.00781
5778.31244	0.00784
5776.38376	0.00786
5774.45508	0.00788
5772.52641	0.00789
5770.59773	0.00790
5768.66906	0.00790
5766.74038	0.00791
5764.81171	0.00793
5762.88303	0.00796
5760.95435	0.00799
5759.02568	0.00799
5757.09700	0.00798
5755.16833	0.00798
5753.23965	0.00800
5751.31098	0.00802
5749.38230	0.00805
5747.45362	0.00808
5745.52495	0.00811
5743.59627	0.00814
5741.66760	0.00816
5739.73892	0.00816
5737.81025	0.00816
5735.88157	0.00816
5733.95289	0.00817
5732.02422	0.00817
5730.09554	0.00819
5728.16687	0.00822
5726.23819	0.00824
5724.30952	0.00827
5722.38084	0.00830
5720.45216	0.00833
5718.52349	0.00836
5716.59481	0.00837
5714.66614	0.00837
5712.73746	0.00838
5710.80879	0.00840
5708.88011	0.00841
5706.95143	0.00842
5705.02276	0.00843
5703.09408	0.00844
5701.16541	0.00845
5699.23673	0.00846
5697.30806	0.00849
5695.37938	0.00851
5693.45070	0.00853
5691.52203	0.00856
5689.59335	0.00858
5687.66468	0.00859
5685.73600	0.00861
5683.80733	0.00864
5681.87865	0.00865
5679.94997	0.00865
5678.02130	0.00866
5676.09262	0.00869
5674.16395	0.00872
5672.23527	0.00874
5670.30660	0.00876
5668.37792	0.00879
5666.44924	0.00880
5664.52057	0.00882
5662.59189	0.00885
5660.66322	0.00887
5658.73454	0.00887
5656.80587	0.00887
5654.87719	0.00888
5652.94851	0.00891
5651.01984	0.00894
5649.09116	0.00897
5647.16249	0.00901
5645.23381	0.00901
5643.30514	0.00901
5641.37646	0.00902
5639.44778	0.00904
5637.51911	0.00907
5635.59043	0.00909
5633.66176	0.00910
5631.73308	0.00909
5629.80441	0.00910
5627.87573	0.00912
5625.94705	0.00916
5624.01838	0.00921
5622.08970	0.00923
5620.16103	0.00924
5618.23235	0.00925
5616.30368	0.00927
5614.37500	0.00926
5612.44632	0.00926
5610.51765	0.00927
5608.58897	0.00930
5606.66030	0.00932
5604.73162	0.00934
5602.80295	0.00936
5600.87427	0.00940
5598.94559	0.00945
5597.01692	0.00948
5595.08824	0.00950
5593.15957	0.00950
5591.23089	0.00951
5589.30222	0.00952
5587.37354	0.00952
5585.44486	0.00953
5583.51619	0.00955
5581.58751	0.00957
5579.65884	0.00959
5577.73016	0.00962
5575.80149	0.00965
5573.87281	0.00967
5571.94413	0.00968
5570.01546	0.00970
5568.08678	0.00970
5566.15811	0.00970
5564.22943	0.00973
5562.30076	0.00976
5560.37208	0.00977
5558.44340	0.00978
5556.51473	0.00981
5554.58605	0.00983
5552.65738	0.00984
5550.72870	0.00986
5548.80003	0.00989
5546.87135	0.00992
5544.94267	0.00995
5543.01400	0.00998
5541.08532	0.01001
5539.15665	0.01002
5537.22797	0.01004
5535.29930	0.01004
5533.37062	0.01004
5531.44194	0.01006
5529.51327	0.01008
5527.58459	0.01008
5525.65592	0.01009
5523.72724	0.01011
5521.79857	0.01015
5519.86989	0.01016
5517.94121	0.01017
5516.01254	0.01020
5514.08386	0.01025
5512.15519	0.01028
5510.22651	0.01029
5508.29784	0.01028
5506.36916	0.01028
5504.44048	0.01029
5502.51181	0.01033
5500.58313	0.01037
5498.65446	0.01041
5496.72578	0.01044
5494.79711	0.01046
5492.86843	0.01048
5490.93975	0.01050
5489.01108	0.01054
5487.08240	0.01057
5485.15373	0.01059
5483.22505	0.01060
5481.29638	0.01060
5479.36770	0.01061
5477.43902	0.01062
5475.51035	0.01065
5473.58167	0.01068
5471.65300	0.01070
5469.72432	0.01071
5467.79565	0.01073
5465.86697	0.01074
5463.93829	0.01074
5462.00962	0.01076
5460.08094	0.01077
5458.15227	0.01081
5456.22359	0.01085
5454.29492	0.01088
5452.36624	0.01090
5450.43756	0.01092
5448.50889	0.01094
5446.58021	0.01094
5444.65154	0.01095
5442.72286	0.01096
5440.79419	0.01098
5438.86551	0.01099
5436.93683	0.01099
5435.00816	0.01101
5433.07948	0.01104
5431.15081	0.01107
5429.22213	0.01111
5427.29346	0.01114
5425.36478	0.01115
5423.43610	0.01116
5421.50743	0.01120
5419.57875	0.01122
5417.65008	0.01123
5415.72140	0.01125
5413.79273	0.01128
5411.86405	0.01130
5409.93537	0.01132
5408.00670	0.01133
5406.07802	0.01134
5404.14935	0.01137
5402.22067	0.01141
5400.29200	0.01145
5398.36332	0.01147
5396.43464	0.01149
5394.50597	0.01151
5392.57729	0.01152
5390.64862	0.01154
5388.71994	0.01156
5386.79127	0.01158
5384.86259	0.01161
5382.93391	0.01164
5381.00524	0.01165
5379.07656	0.01167
5377.14789	0.01170
5375.21921	0.01173
5373.29054	0.01175
5371.36186	0.01176
5369.43318	0.01178
5367.50451	0.01181
5365.57583	0.01184
5363.64716	0.01188
5361.71848	0.01190
5359.78981	0.01191
5357.86113	0.01191
5355.93245	0.01192
5354.00378	0.01194
5352.07510	0.01198
5350.14643	0.01201
5348.21775	0.01203
5346.28908	0.01204
5344.36040	0.01206
5342.43172	0.01208
5340.50305	0.01207
5338.57437	0.01207
5336.64570	0.01210
5334.71702	0.01214
5332.78835	0.01217
5330.85967	0.01219
5328.93099	0.01222
5327.00232	0.01225
5325.07364	0.01229
5323.14497	0.01231
5321.21629	0.01232
5319.28762	0.01235
5317.35894	0.01238
5315.43026	0.01240
5313.50159	0.01243
5311.57291	0.01243
5309.64424	0.01243
5307.71556	0.01244
5305.78689	0.01247
5303.85821	0.01250
5301.92953	0.01252
5300.00086	0.01254
5298.07218	0.01258
5296.14351	0.01261
5294.21483	0.01264
5292.28616	0.01269
5290.35748	0.01272
5288.42880	0.01274
5286.50013	0.01275
5284.57145	0.01277
5282.64278	0.01279
5280.71410	0.01281
5278.78543	0.01285
5276.85675	0.01288
5274.92807	0.01290
5272.99940	0.01291
5271.07072	0.01292
5269.14205	0.01293
5267.21337	0.01295
5265.28470	0.01297
5263.35602	0.01299
5261.42734	0.01302
5259.49867	0.01306
5257.56999	0.01308
5255.64132	0.01309
5253.71264	0.01310
5251.78397	0.01312
5249.85529	0.01313
5247.92661	0.01315
5245.99794	0.01317
5244.06926	0.01320
5242.14059	0.01323
5240.21191	0.01325
5238.28324	0.01327
5236.35456	0.01331
5234.42588	0.01334
5232.49721	0.01336
5230.56853	0.01339
5228.63986	0.01342
5226.71118	0.01345
5224.78251	0.01347
5222.85383	0.01349
5220.92515	0.01351
5218.99648	0.01353
5217.06780	0.01356
5215.13913	0.01358
5213.21045	0.01360
5211.28178	0.01364
5209.35310	0.01366
5207.42442	0.01366
5205.49575	0.01369
5203.56707	0.01374
5201.63840	0.01377
5199.70972	0.01378
5197.78105	0.01380
5195.85237	0.01383
5193.92369	0.01385
5191.99502	0.01388
5190.06634	0.01392
5188.13767	0.01396
5186.20899	0.01398
5184.28032	0.01399
5182.35164	0.01400
5180.42296	0.01400
5178.49429	0.01402
5176.56561	0.01404
5174.63694	0.01405
5172.70826	0.01406
5170.77959	0.01409
5168.85091	0.01414
5166.92223	0.01419
5164.99356	0.01423
5163.06488	0.01423
5161.13621	0.01424
5159.20753	0.01426
5157.27886	0.01428
5155.35018	0.01431
5153.42150	0.01436
5151.49283	0.01441
5149.56415	0.01443
5147.63548	0.01444
5145.70680	0.01445
5143.77813	0.01447
5141.84945	0.01450
5139.92077	0.01453
5137.99210	0.01456
5136.06342	0.01459
5134.13475	0.01462
5132.20607	0.01465
5130.27740	0.01466
5128.34872	0.01467
5126.42004	0.01469
5124.49137	0.01472
5122.56269	0.01475
5120.63402	0.01478
5118.70534	0.01481
5116.77667	0.01482
5114.84799	0.01483
5112.91931	0.01484
5110.99064	0.01485
5109.06196	0.01487
5107.13329	0.01492
5105.20461	0.01496
5103.27594	0.01499
5101.34726	0.01501
5099.41858	0.01502
5097.48991	0.01502
5095.56123	0.01504
5093.63256	0.01508
5091.70388	0.01513
5089.77521	0.01515
5087.84653	0.01516
5085.91785	0.01518
5083.98918	0.01522
5082.06050	0.01526
5080.13183	0.01529
5078.20315	0.01530
5076.27448	0.01531
5074.34580	0.01536
5072.41712	0.01540
5070.48845	0.01541
5068.55977	0.01539
5066.63110	0.01541
5064.70242	0.01546
5062.77375	0.01552
5060.84507	0.01555
5058.91639	0.01557
5056.98772	0.01560
5055.05904	0.01561
5053.13037	0.01562
5051.20169	0.01565
5049.27302	0.01570
5047.34434	0.01575
5045.41566	0.01579
5043.48699	0.01581
5041.55831	0.01582
5039.62964	0.01583
5037.70096	0.01584
5035.77229	0.01587
5033.84361	0.01590
5031.91493	0.01595
5029.98626	0.01598
5028.05758	0.01600
5026.12891	0.01601
5024.20023	0.01602
5022.27156	0.01604
5020.34288	0.01606
5018.41420	0.01609
5016.48553	0.01614
5014.55685	0.01620
5012.62818	0.01625
5010.69950	0.01627
5008.77083	0.01629
5006.84215	0.01628
5004.91347	0.01628
5002.98480	0.01631
5001.05612	0.01634
4999.12745	0.01636
4997.19877	0.01639
4995.27010	0.01641
4993.34142	0.01643
4991.41274	0.01646
4989.48407	0.01651
4987.55539	0.01655
4985.62672	0.01656
4983.69804	0.01656
4981.76937	0.01659
4979.84069	0.01664
4977.91201	0.01668
4975.98334	0.01670
4974.05466	0.01671
4972.12599	0.01672
4970.19731	0.01676
4968.26864	0.01680
4966.33996	0.01683
4964.41128	0.01685
4962.48261	0.01686
4960.55393	0.01688
4958.62526	0.01692
4956.69658	0.01696
4954.76791	0.01699
4952.83923	0.01703
4950.91055	0.01708
4948.98188	0.01711
4947.05320	0.01711
4945.12453	0.01711
4943.19585	0.01713
4941.26718	0.01717
4939.33850	0.01721
4937.40982	0.01723
4935.48115	0.01726
4933.55247	0.01730
4931.62380	0.01734
4929.69512	0.01737
4927.76645	0.01738
4925.83777	0.01738
4923.90909	0.01740
4921.98042	0.01743
4920.05174	0.01747
4918.12307	0.01750
4916.19439	0.01753
4914.26572	0.01758
4912.33704	0.01761
4910.40836	0.01765
4908.47969	0.01766
4906.55101	0.01768
4904.62234	0.01772
4902.69366	0.01776
4900.76499	0.01781
4898.83631	0.01783
4896.90763	0.01783
4894.97896	0.01784
4893.05028	0.01786
4891.12161	0.01788
4889.19293	0.01792
4887.26426	0.01797
4885.33558	0.01802
4883.40690	0.01806
4881.47823	0.01807
4879.54955	0.01808
4877.62088	0.01812
4875.69220	0.01816
4873.76353	0.01818
4871.83485	0.01820
4869.90617	0.01823
4867.97750	0.01825
4866.04882	0.01827
4864.12015	0.01829
4862.19147	0.01832
4860.26280	0.01835
4858.33412	0.01837
4856.40544	0.01840
4854.47677	0.01844
4852.54809	0.01848
4850.61942	0.01850
4848.69074	0.01851
4846.76207	0.01853
4844.83339	0.01856
4842.90471	0.01860
4840.97604	0.01866
4839.04736	0.01872
4837.11869	0.01875
4835.19001	0.01878
4833.26134	0.01881
4831.33266	0.01883
4829.40398	0.01885
4827.47531	0.01887
4825.54663	0.01890
4823.61796	0.01893
4821.68928	0.01897
4819.76061	0.01902
4817.83193	0.01903
4815.90325	0.01903
4813.97458	0.01904
4812.04590	0.01906
4810.11723	0.01909
4808.18855	0.01914
4806.25988	0.01920
4804.33120	0.01924
4802.40252	0.01924
4800.47385	0.01926
4798.54517	0.01930
4796.61650	0.01935
4794.68782	0.01939
4792.75915	0.01942
4790.83047	0.01947
4788.90179	0.01951
4786.97312	0.01952
4785.04444	0.01952
4783.11577	0.01955
4781.18709	0.01960
4779.25842	0.01963
4777.32974	0.01965
4775.40106	0.01969
4773.47239	0.01973
4771.54371	0.01975
4769.61504	0.01976
4767.68636	0.01980
4765.75769	0.01985
4763.82901	0.01989
4761.90033	0.01992
4759.97166	0.01996
4758.04298	0.02000
4756.11431	0.02002
4754.18563	0.02004
4752.25696	0.02008
4750.32828	0.02011
4748.39960	0.02013
4746.47093	0.02015
4744.54225	0.02020
4742.61358	0.02025
4740.68490	0.02027
4738.75623	0.02029
4736.82755	0.02033
4734.89887	0.02038
4732.97020	0.02042
4731.04152	0.02045
4729.11285	0.02047
4727.18417	0.02050
4725.25550	0.02054
4723.32682	0.02056
4721.39814	0.02060
4719.46947	0.02063
4717.54079	0.02065
4715.61212	0.02068
4713.68344	0.02070
4711.75477	0.02074
4709.82609	0.02079
4707.89741	0.02084
4705.96874	0.02088
4704.04006	0.02091
4702.11139	0.02094
4700.18271	0.02096
4698.25404	0.02098
4696.32536	0.02102
4694.39668	0.02105
4692.46801	0.02109
4690.53933	0.02113
4688.61066	0.02116
4686.68198	0.02118
4684.75331	0.02121
4682.82463	0.02125
4680.89595	0.02129
4678.96728	0.02130
4677.03860	0.02132
4675.10993	0.02134
4673.18125	0.02136
4671.25258	0.02140
4669.32390	0.02146
4667.39522	0.02151
4665.46655	0.02154
4663.53787	0.02157
4661.60920	0.02159
4659.68052	0.02162
4657.75185	0.02165
4655.82317	0.02169
4653.89449	0.02173
4651.96582	0.02178
4650.03714	0.02182
4648.10847	0.02185
4646.17979	0.02188
4644.25112	0.02190
4642.32244	0.02194
4640.39376	0.02198
4638.46509	0.02202
4636.53641	0.02204
4634.60774	0.02209
4632.67906	0.02215
4630.75039	0.02221
4628.82171	0.02225
4626.89303	0.02228
4624.96436	0.02231
4623.03568	0.02234
4621.10701	0.02237
4619.17833	0.02240
4617.24966	0.02242
4615.32098	0.02244
4613.39230	0.02249
4611.46363	0.02253
4609.53495	0.02256
4607.60628	0.02260
4605.67760	0.02265
4603.74893	0.02269
4601.82025	0.02272
4599.89157	0.02276
4597.96290	0.02280
4596.03422	0.02282
4594.10555	0.02284
4592.17687	0.02287
4590.24820	0.02292
4588.31952	0.02297
4586.39084	0.02301
4584.46217	0.02303
4582.53349	0.02305
4580.60482	0.02308
4578.67614	0.02314
4576.74747	0.02319
4574.81879	0.02324
4572.89011	0.02328
4570.96144	0.02333
4569.03276	0.02337
4567.10409	0.02341
4565.17541	0.02345
4563.24674	0.02348
4561.31806	0.02350
4559.38938	0.02354
4557.46071	0.02359
4555.53203	0.02364
4553.60336	0.02368
4551.67468	0.02372
4549.74601	0.02375
4547.81733	0.02379
4545.88865	0.02385
4543.95998	0.02390
4542.03130	0.02394
4540.10263	0.02398
4538.17395	0.02402
4536.24528	0.02405
4534.31660	0.02408
4532.38792	0.02410
4530.45925	0.02414
4528.53057	0.02418
4526.60190	0.02422
4524.67322	0.02425
4522.74455	0.02429
4520.81587	0.02433
4518.88719	0.02439
4516.95852	0.02445
4515.02984	0.02450
4513.10117	0.02453
4511.17249	0.02456
4509.24382	0.02458
4507.31514	0.02463
4505.38646	0.02468
4503.45779	0.02471
4501.52911	0.02475
4499.60044	0.02480
4497.67176	0.02484
4495.74309	0.02487
4493.81441	0.02492
4491.88573	0.02496
4489.95706	0.02498
4488.02838	0.02501
4486.09971	0.02507
4484.17103	0.02514
4482.24236	0.02519
4480.31368	0.02523
4478.38500	0.02527
4476.45633	0.02532
4474.52765	0.02536
4472.59898	0.02538
4470.67030	0.02540
4468.74163	0.02545
4466.81295	0.02551
4464.88427	0.02558
4462.95560	0.02562
4461.02692	0.02565
4459.09825	0.02568
4457.16957	0.02572
4455.24090	0.02578
4453.31222	0.02584
4451.38354	0.02588
4449.45487	0.02590
4447.52619	0.02592
4445.59752	0.02597
4443.66884	0.02601
4441.74017	0.02605
4439.81149	0.02609
4437.88281	0.02615
4435.95414	0.02621
4434.02546	0.02627
4432.09679	0.02632
4430.16811	0.02639
4428.23944	0.02644
4426.31076	0.02647
4424.38208	0.02649
4422.45341	0.02653
4420.52473	0.02658
4418.59606	0.02663
4416.66738	0.02669
4414.73871	0.02675
4412.81003	0.02681
4410.88135	0.02687
4408.95268	0.02692
4407.02400	0.02695
4405.09533	0.02699
4403.16665	0.02704
4401.23798	0.02710
4399.30930	0.02716
4397.38062	0.02719
4395.45195	0.02720
4393.52327	0.02723
4391.59460	0.02729
4389.66592	0.02735
4387.73725	0.02740
4385.80857	0.02741
4383.87989	0.02743
4381.95122	0.02747
4380.02254	0.02755
4378.09387	0.02762
4376.16519	0.02768
4374.23652	0.02774
4372.30784	0.02780
4370.37916	0.02785
4368.45049	0.02790
4366.52181	0.02795
4364.59314	0.02800
4362.66446	0.02804
4360.73579	0.02808
4358.80711	0.02812
4356.87843	0.02817
4354.94976	0.02825
4353.02108	0.02831
4351.09241	0.02834
4349.16373	0.02836
4347.23506	0.02840
4345.30638	0.02845
4343.37770	0.02851
4341.44903	0.02857
4339.52035	0.02861
4337.59168	0.02864
4335.66300	0.02870
4333.73433	0.02876
4331.80565	0.02880
4329.87697	0.02883
4327.94830	0.02887
4326.01962	0.02893
4324.09095	0.02900
4322.16227	0.02907
4320.23360	0.02913
4318.30492	0.02919
4316.37624	0.02924
4314.44757	0.02928
4312.51889	0.02930
4310.59022	0.02934
4308.66154	0.02941
4306.73287	0.02948
4304.80419	0.02954
4302.87551	0.02959
4300.94684	0.02966
4299.01816	0.02971
4297.08949	0.02975
4295.16081	0.02980
4293.23214	0.02986
4291.30346	0.02994
4289.37478	0.02999
4287.44611	0.03003
4285.51743	0.03008
4283.58876	0.03016
4281.66008	0.03023
4279.73141	0.03027
4277.80273	0.03031
4275.87405	0.03038
4273.94538	0.03044
4272.01670	0.03047
4270.08803	0.03052
4268.15935	0.03058
4266.23068	0.03064
4264.30200	0.03070
4262.37332	0.03077
4260.44465	0.03083
4258.51597	0.03086
4256.58730	0.03090
4254.65862	0.03096
4252.72995	0.03101
4250.80127	0.03104
4248.87259	0.03109
4246.94392	0.03118
4245.01524	0.03126
4243.08657	0.03131
4241.15789	0.03136
4239.22922	0.03141
4237.30054	0.03147
4235.37186	0.03154
4233.44319	0.03161
4231.51451	0.03168
4229.58584	0.03172
4227.65716	0.03176
4225.72849	0.03182
4223.79981	0.03187
4221.87113	0.03192
4219.94246	0.03198
4218.01378	0.03206
4216.08511	0.03211
4214.15643	0.03214
4212.22776	0.03218
4210.29908	0.03226
4208.37040	0.03234
4206.44173	0.03240
4204.51305	0.03244
4202.58438	0.03250
4200.65570	0.03257
4198.72703	0.03265
4196.79835	0.03271
4194.86968	0.03276
4192.94100	0.03284
4191.01232	0.03291
4189.08365	0.03297
4187.15497	0.03299
4185.22630	0.03303
4183.29762	0.03312
4181.36895	0.03321
4179.44027	0.03327
4177.51159	0.03331
4175.58292	0.03334
4173.65424	0.03339
4171.72557	0.03348
4169.79689	0.03357
4167.86822	0.03363
4165.93954	0.03370
4164.01086	0.03377
4162.08219	0.03382
4160.15351	0.03389
4158.22484	0.03397
4156.29616	0.03404
4154.36749	0.03409
4152.43881	0.03415
4150.51013	0.03419
4148.58146	0.03425
4146.65278	0.03432
4144.72411	0.03438
4142.79543	0.03440
4140.86676	0.03445
4138.93808	0.03454
4137.00940	0.03462
4135.08073	0.03468
4133.15205	0.03476
4131.22338	0.03483
4129.29470	0.03488
4127.36603	0.03492
4125.43735	0.03497
4123.50867	0.03503
4121.58000	0.03510
4119.65132	0.03518
4117.72265	0.03527
4115.79397	0.03536
4113.86530	0.03545
4111.93662	0.03551
4110.00794	0.03556
4108.07927	0.03559
4106.15059	0.03565
4104.22192	0.03573
4102.29324	0.03582
4100.36457	0.03589
4098.43589	0.03595
4096.50721	0.03601
4094.57854	0.03608
4092.64986	0.03616
4090.72119	0.03622
4088.79251	0.03628
4086.86384	0.03636
4084.93516	0.03643
4083.00648	0.03648
4081.07781	0.03653
4079.14913	0.03659
4077.22046	0.03668
4075.29178	0.03677
4073.36311	0.03685
4071.43443	0.03692
4069.50575	0.03696
4067.57708	0.03700
4065.64840	0.03706
4063.71973	0.03713
4061.79105	0.03721
4059.86238	0.03728
4057.93370	0.03736
4056.00502	0.03744
4054.07635	0.03753
4052.14767	0.03761
4050.21900	0.03769
4048.29032	0.03776
4046.36165	0.03782
4044.43297	0.03788
4042.50429	0.03796
4040.57562	0.03803
4038.64694	0.03808
4036.71827	0.03815
4034.78959	0.03823
4032.86092	0.03830
4030.93224	0.03835
4029.00356	0.03842
4027.07489	0.03851
4025.14621	0.03859
4023.21754	0.03867
4021.28886	0.03874
4019.36019	0.03882
4017.43151	0.03890
4015.50283	0.03895
4013.57416	0.03901
4011.64548	0.03908
4009.71681	0.03916
4007.78813	0.03923
4005.85946	0.03932
4003.93078	0.03940
4002.00210	0.03946
4000.07343	0.03954
3998.14475	0.03964
3996.21608	0.03972
3994.28740	0.03978
3992.35873	0.03983
3990.43005	0.03991
3988.50137	0.03999
3986.57270	0.04006
3984.64402	0.04014
3982.71535	0.04022
3980.78667	0.04031
3978.85800	0.04039
3976.92932	0.04044
3975.00064	0.04047
3973.07197	0.04052
3971.14329	0.04061
3969.21462	0.04070
3967.28594	0.04077
3965.35727	0.04084
3963.42859	0.04090
3961.49991	0.04097
3959.57124	0.04106
3957.64256	0.04117
3955.71389	0.04126
3953.78521	0.04133
3951.85654	0.04139
3949.92786	0.04145
3947.99918	0.04153
3946.07051	0.04161
3944.14183	0.04166
3942.21316	0.04172
3940.28448	0.04182
3938.35581	0.04194
3936.42713	0.04203
3934.49845	0.04206
3932.56978	0.04209
3930.64110	0.04217
3928.71243	0.04229
3926.78375	0.04239
3924.85508	0.04248
3922.92640	0.04255
3920.99772	0.04261
3919.06905	0.04263
3917.14037	0.04268
3915.21170	0.04279
3913.28302	0.04293
3911.35435	0.04304
3909.42567	0.04312
3907.49699	0.04314
3905.56832	0.04310
3903.63964	0.04307
3901.71097	0.04309
3899.78229	0.04323
3897.85362	0.04345
3895.92494	0.04364
3893.99626	0.04367
3892.06759	0.04367
3890.13891	0.04379
3888.21024	0.04392
3886.28156	0.04397
3884.35289	0.04404
3882.42421	0.04411
3880.49553	0.04417
3878.56686	0.04433
3876.63818	0.04448
3874.70951	0.04453
3872.78083	0.04454
3870.85216	0.04456
3868.92348	0.04462
3866.99480	0.04471
3865.06613	0.04478
3863.13745	0.04488
3861.20878	0.04503
3859.28010	0.04515
3857.35143	0.04510
3855.42275	0.04487
3853.49407	0.04483
3851.56540	0.04515
3849.63672	0.04551
3847.70805	0.04571
3845.77937	0.04581
3843.85070	0.04588
3841.92202	0.04592
3839.99334	0.04591
3838.06467	0.04593
3836.13599	0.04603
3834.20732	0.04615
3832.27864	0.04626
3830.34997	0.04639
3828.42129	0.04651
3826.49261	0.04662
3824.56394	0.04671
3822.63526	0.04671
3820.70659	0.04673
3818.77791	0.04681
3816.84924	0.04688
3814.92056	0.04702
3812.99188	0.04727
3811.06321	0.04743
3809.13453	0.04747
3807.20586	0.04749
3805.27718	0.04753
3803.34851	0.04753
3801.41983	0.04755
3799.49115	0.04770
3797.56248	0.04785
3795.63380	0.04796
3793.70513	0.04809
3791.77645	0.04823
3789.84778	0.04835
3787.91910	0.04843
3785.99042	0.04850
3784.06175	0.04859
3782.13307	0.04868
3780.20440	0.04874
3778.27572	0.04884
3776.34705	0.04899
3774.41837	0.04910
3772.48969	0.04914
3770.56102	0.04916
3768.63234	0.04923
3766.70367	0.04935
3764.77499	0.04947
3762.84632	0.04954
3760.91764	0.04955
3758.98896	0.04959
3757.06029	0.04971
3755.13161	0.04973
3753.20294	0.04961
3751.27426	0.04955
3749.34559	0.04966
3747.41691	0.04970
3745.48823	0.04959
3743.55956	0.04975
3741.63088	0.05017
3739.70221	0.05038
3737.77353	0.05034
3735.84486	0.05035
3733.91618	0.05055
3731.98750	0.05081
3730.05883	0.05100
3728.13015	0.05108
3726.20148	0.05111
3724.27280	0.05120
3722.34413	0.05130
3720.41545	0.05143
3718.48677	0.05159
3716.55810	0.05170
3714.62942	0.05173
3712.70075	0.05173
3710.77207	0.05182
3708.84340	0.05199
3706.91472	0.05216
3704.98604	0.05225
3703.05737	0.05230
3701.12869	0.05239
3699.20002	0.05253
3697.27134	0.05264
3695.34267	0.05272
3693.41399	0.05274
3691.48531	0.05267
3689.55664	0.05264
3687.62796	0.05279
3685.69929	0.05307
3683.77061	0.05329
3681.84194	0.05337
3679.91326	0.05335
3677.98458	0.05328
3676.05591	0.05327
3674.12723	0.05343
3672.19856	0.05359
3670.26988	0.05367
3668.34121	0.05380
3666.41253	0.05400
3664.48385	0.05416
3662.55518	0.05426
3660.62650	0.05433
3658.69783	0.05438
3656.76915	0.05439
3654.84048	0.05440
3652.91180	0.05432
3650.98312	0.05416
3649.05445	0.05407
3647.12577	0.05420
3645.19710	0.05452
3643.26842	0.05482
3641.33975	0.05501
3639.41107	0.05512
3637.48239	0.05521
3635.55372	0.05529
3633.62504	0.05534
3631.69637	0.05528
3629.76769	0.05518
3627.83902	0.05527
3625.91034	0.05555
3623.98166	0.05571
3622.05299	0.05570
3620.12431	0.05565
3618.19564	0.05572
3616.26696	0.05585
3614.33829	0.05588
3612.40961	0.05587
3610.48093	0.05591
3608.55226	0.05604
3606.62358	0.05624
3604.69491	0.05640
3602.76623	0.05648
3600.83756	0.05653
3598.90888	0.05657
3596.98020	0.05661
3595.05153	0.05669
3593.12285	0.05679
3591.19418	0.05685
3589.26550	0.05680
3587.33683	0.05679
3585.40815	0.05695
3583.47947	0.05717
3581.55080	0.05729
3579.62212	0.05735
3577.69345	0.05742
3575.76477	0.05750
3573.83610	0.05758
3571.90742	0.05762
3569.97874	0.05758
3568.05007	0.05755
3566.12139	0.05764
3564.19272	0.05780
3562.26404	0.05796
3560.33537	0.05809
3558.40669	0.05817
3556.47801	0.05822
3554.54934	0.05828
3552.62066	0.05835
3550.69199	0.05845
3548.76331	0.05850
3546.83464	0.05852
3544.90596	0.05859
3542.97728	0.05872
3541.04861	0.05881
3539.11993	0.05885
3537.19126	0.05889
3535.26258	0.05895
3533.33391	0.05902
3531.40523	0.05906
3529.47655	0.05906
3527.54788	0.05907
3525.61920	0.05911
3523.69053	0.05915
3521.76185	0.05922
3519.83318	0.05930
3517.90450	0.05936
3515.97582	0.05941
3514.04715	0.05943
3512.11847	0.05945
3510.18980	0.05948
3508.26112	0.05952
3506.33245	0.05955
3504.40377	0.05955
3502.47509	0.05956
3500.54642	0.05961
3498.61774	0.05966
3496.68907	0.05969
3494.76039	0.05970
3492.83172	0.05971
3490.90304	0.05972
3488.97436	0.05974
3487.04569	0.05980
3485.11701	0.05988
3483.18834	0.05992
3481.25966	0.05995
3479.33099	0.06000
3477.40231	0.06005
3475.47363	0.06010
3473.54496	0.06018
3471.61628	0.06028
3469.68761	0.06036
3467.75893	0.06043
3465.83026	0.06052
3463.90158	0.06063
3461.97290	0.06074
3460.04423	0.06088
3458.11555	0.06100
3456.18688	0.06109
3454.25820	0.06116
3452.32953	0.06123
3450.40085	0.06129
3448.47217	0.06135
3446.54350	0.06145
3444.61482	0.06160
3442.68615	0.06176
3440.75747	0.06191
3438.82880	0.06206
3436.90012	0.06221
3434.97144	0.06236
3433.04277	0.06251
3431.11409	0.06268
3429.18542	0.06285
3427.25674	0.06305
3425.32807	0.06326
3423.39939	0.06348
3421.47071	0.06370
3419.54204	0.06389
3417.61336	0.06404
3415.68469	0.06417
3413.75601	0.06430
3411.82734	0.06445
3409.89866	0.06461
3407.96998	0.06476
3406.04131	0.06490
3404.11263	0.06502
3402.18396	0.06513
3400.25528	0.06523
3398.32661	0.06532
3396.39793	0.06544
3394.46925	0.06560
3392.54058	0.06575
3390.61190	0.06591
3388.68323	0.06607
3386.75455	0.06623
3384.82588	0.06634
3382.89720	0.06646
3380.96852	0.06660
3379.03985	0.06671
3377.11117	0.06683
3375.18250	0.06695
3373.25382	0.06707
3371.32515	0.06720
3369.39647	0.06731
3367.46779	0.06742
3365.53912	0.06753
3363.61044	0.06764
3361.68177	0.06776
3359.75309	0.06792
3357.82442	0.06807
3355.89574	0.06818
3353.96706	0.06829
3352.03839	0.06842
3350.10971	0.06854
3348.18104	0.06865
3346.25236	0.06877
3344.32369	0.06890
3342.39501	0.06903
3340.46633	0.06916
3338.53766	0.06929
3336.60898	0.06940
3334.68031	0.06949
3332.75163	0.06960
3330.82296	0.06972
3328.89428	0.06988
3326.96560	0.07003
3325.03693	0.07015
3323.10825	0.07025
3321.17958	0.07039
3319.25090	0.07055
3317.32223	0.07069
3315.39355	0.07079
3313.46487	0.07089
3311.53620	0.07101
3309.60752	0.07114
3307.67885	0.07125
3305.75017	0.07136
3303.82150	0.07152
3301.89282	0.07167
3299.96414	0.07179
3298.03547	0.07191
3296.10679	0.07203
3294.17812	0.07217
3292.24944	0.07229
3290.32077	0.07240
3288.39209	0.07252
3286.46341	0.07264
3284.53474	0.07278
3282.60606	0.07296
3280.67739	0.07312
3278.74871	0.07325
3276.82004	0.07337
3274.89136	0.07350
3272.96268	0.07364
3271.03401	0.07377
3269.10533	0.07389
3267.17666	0.07400
3265.24798	0.07411
3263.31931	0.07425
3261.39063	0.07442
3259.46195	0.07458
3257.53328	0.07472
3255.60460	0.07483
3253.67593	0.07493
3251.74725	0.07504
3249.81858	0.07518
3247.88990	0.07533
3245.96122	0.07547
3244.03255	0.07558
3242.10387	0.07569
3240.17520	0.07581
3238.24652	0.07595
3236.31785	0.07609
3234.38917	0.07623
3232.46049	0.07638
3230.53182	0.07654
3228.60314	0.07668
3226.67447	0.07680
3224.74579	0.07693
3222.81712	0.07707
3220.88844	0.07721
3218.95976	0.07734
3217.03109	0.07745
3215.10241	0.07757
3213.17374	0.07770
3211.24506	0.07783
3209.31639	0.07797
3207.38771	0.07812
3205.45903	0.07829
3203.53036	0.07847
3201.60168	0.07864
3199.67301	0.07878
3197.74433	0.07891
3195.81566	0.07905
3193.88698	0.07919
3191.95830	0.07932
3190.02963	0.07947
3188.10095	0.07961
3186.17228	0.07973
3184.24360	0.07985
3182.31493	0.07999
3180.38625	0.08015
3178.45757	0.08030
3176.52890	0.08043
3174.60022	0.08054
3172.67155	0.08066
3170.74287	0.08078
3168.81420	0.08090
3166.88552	0.08104
3164.95684	0.08121
3163.02817	0.08136
3161.09949	0.08151
3159.17082	0.08167
3157.24214	0.08181
3155.31347	0.08195
3153.38479	0.08209
3151.45611	0.08224
3149.52744	0.08237
3147.59876	0.08250
3145.67009	0.08267
3143.74141	0.08281
3141.81274	0.08292
3139.88406	0.08304
3137.95538	0.08319
3136.02671	0.08333
3134.09803	0.08348
3132.16936	0.08362
3130.24068	0.08374
3128.31201	0.08388
3126.38333	0.08403
3124.45465	0.08416
3122.52598	0.08427
3120.59730	0.08440
3118.66863	0.08454
3116.73995	0.08468
3114.81128	0.08481
3112.88260	0.08497
3110.95392	0.08513
3109.02525	0.08529
3107.09657	0.08544
3105.16790	0.08558
3103.23922	0.08568
3101.31055	0.08579
3099.38187	0.08593
3097.45319	0.08607
3095.52452	0.08622
3093.59584	0.08639
3091.66717	0.08655
3089.73849	0.08667
3087.80982	0.08679
3085.88114	0.08694
3083.95246	0.08710
3082.02379	0.08723
3080.09511	0.08733
3078.16644	0.08743
3076.23776	0.08759
3074.30909	0.08775
3072.38041	0.08787
3070.45173	0.08800
3068.52306	0.08815
3066.59438	0.08829
3064.66571	0.08842
3062.73703	0.08854
3060.80836	0.08866
3058.87968	0.08877
3056.95100	0.08889
3055.02233	0.08903
3053.09365	0.08918
3051.16498	0.08933
3049.23630	0.08948
3047.30763	0.08964
3045.37895	0.08981
3043.45027	0.08996
3041.52160	0.09007
3039.59292	0.09019
3037.66425	0.09034
3035.73557	0.09048
3033.80690	0.09061
3031.87822	0.09075
3029.94954	0.09090
3028.02087	0.09105
3026.09219	0.09121
3024.16352	0.09134
3022.23484	0.09145
3020.30617	0.09155
3018.37749	0.09168
3016.44881	0.09183
3014.52014	0.09196
3012.59146	0.09210
3010.66279	0.09225
3008.73411	0.09238
3006.80544	0.09248
3004.87676	0.09260
3002.94808	0.09277
3001.01941	0.09296
2999.09073	0.09312
2997.16206	0.09322
2995.23338	0.09333
2993.30471	0.09347
2991.37603	0.09359
2989.44735	0.09368
2987.51868	0.09379
2985.59000	0.09391
2983.66133	0.09402
2981.73265	0.09408
2979.80398	0.09410
2977.87530	0.09412
2975.94662	0.09417
2974.01795	0.09423
2972.08927	0.09425
2970.16060	0.09421
2968.23192	0.09413
2966.30325	0.09411
2964.37457	0.09417
2962.44589	0.09428
2960.51722	0.09444
2958.58854	0.09461
2956.65987	0.09479
2954.73119	0.09499
2952.80252	0.09518
2950.87384	0.09536
2948.94516	0.09549
2947.01649	0.09557
2945.08781	0.09564
2943.15914	0.09573
2941.23046	0.09579
2939.30179	0.09579
2937.37311	0.09576
2935.44443	0.09575
2933.51576	0.09573
2931.58708	0.09570
2929.65841	0.09565
2927.72973	0.09561
2925.80106	0.09558
2923.87238	0.09558
2921.94370	0.09562
2920.01503	0.09570
2918.08635	0.09581
2916.15768	0.09607
2914.22900	0.09653
2912.30033	0.09706
2910.37165	0.09753
2908.44297	0.09787
2906.51430	0.09813
2904.58562	0.09838
2902.65695	0.09863
2900.72827	0.09887
2898.79960	0.09909
2896.87092	0.09928
2894.94224	0.09947
2893.01357	0.09967
2891.08489	0.09989
2889.15622	0.10008
2887.22754	0.10024
2885.29887	0.10037
2883.37019	0.10053
2881.44151	0.10071
2879.51284	0.10087
2877.58416	0.10099
2875.65549	0.10109
2873.72681	0.10117
2871.79814	0.10127
2869.86946	0.10142
2867.94078	0.10159
2866.01211	0.10172
2864.08343	0.10181
2862.15476	0.10187
2860.22608	0.10192
2858.29741	0.10193
2856.36873	0.10190
2854.44005	0.10187
2852.51138	0.10186
2850.58270	0.10194
2848.65403	0.10221
2846.72535	0.10266
2844.79668	0.10316
2842.86800	0.10357
2840.93932	0.10389
2839.01065	0.10418
2837.08197	0.10445
2835.15330	0.10467
2833.22462	0.10487
2831.29595	0.10505
2829.36727	0.10522
2827.43859	0.10542
2825.50992	0.10562
2823.58124	0.10575
2821.65257	0.10588
2819.72389	0.10606
2817.79522	0.10626
2815.86654	0.10643
2813.93786	0.10655
2812.00919	0.10665
2810.08051	0.10678
2808.15184	0.10694
2806.22316	0.10710
2804.29449	0.10728
2802.36581	0.10745
2800.43713	0.10761
2798.50846	0.10776
2796.57978	0.10792
2794.65111	0.10806
2792.72243	0.10821
2790.79376	0.10836
2788.86508	0.10851
2786.93640	0.10869
2785.00773	0.10884
2783.07905	0.10897
2781.15038	0.10911
2779.22170	0.10926
2777.29303	0.10941
2775.36435	0.10955
2773.43567	0.10970
2771.50700	0.10986
2769.57832	0.11004
2767.64965	0.11020
2765.72097	0.11032
2763.79230	0.11044
2761.86362	0.11058
2759.93494	0.11077
2758.00627	0.11092
2756.07759	0.11107
2754.14892	0.11122
2752.22024	0.11136
2750.29157	0.11147
2748.36289	0.11161
2746.43421	0.11176
2744.50554	0.11189
2742.57686	0.11203
2740.64819	0.11220
2738.71951	0.11238
2736.79084	0.11252
2734.86216	0.11263
2732.93348	0.11277
2731.00481	0.11292
2729.07613	0.11307
2727.14746	0.11320
2725.21878	0.11332
2723.29011	0.11344
2721.36143	0.11358
2719.43275	0.11375
2717.50408	0.11392
2715.57540	0.11405
2713.64673	0.11419
2711.71805	0.11435
2709.78938	0.11452
2707.86070	0.11467
2705.93202	0.11481
2704.00335	0.11495
2702.07467	0.11511
2700.14600	0.11528
2698.21732	0.11543
2696.28865	0.11555
2694.35997	0.11566
2692.43129	0.11580
2690.50262	0.11594
2688.57394	0.11607
2686.64527	0.11621
2684.71659	0.11635
2682.78792	0.11648
2680.85924	0.11661
2678.93056	0.11677
2677.00189	0.11691
2675.07321	0.11706
2673.14454	0.11721
2671.21586	0.11735
2669.28719	0.11749
2667.35851	0.11764
2665.42983	0.11780
2663.50116	0.11796
2661.57248	0.11810
2659.64381	0.11821
2657.71513	0.11832
2655.78646	0.11846
2653.85778	0.11862
2651.92910	0.11876
2650.00043	0.11892
2648.07175	0.11912
2646.14308	0.11931
2644.21440	0.11945
2642.28573	0.11957
2640.35705	0.11971
2638.42837	0.11987
2636.49970	0.12002
2634.57102	0.12018
2632.64235	0.12034
2630.71367	0.12048
2628.78500	0.12063
2626.85632	0.12079
2624.92764	0.12095
2622.99897	0.12110
2621.07029	0.12127
2619.14162	0.12143
2617.21294	0.12158
2615.28427	0.12174
2613.35559	0.12191
2611.42691	0.12205
2609.49824	0.12217
2607.56956	0.12232
2605.64089	0.12248
2603.71221	0.12262
2601.78354	0.12279
2599.85486	0.12297
2597.92618	0.12311
2595.99751	0.12322
2594.06883	0.12336
2592.14016	0.12354
2590.21148	0.12372
2588.28281	0.12387
2586.35413	0.12404
2584.42545	0.12422
2582.49678	0.12437
2580.56810	0.12450
2578.63943	0.12466
2576.71075	0.12484
2574.78208	0.12500
2572.85340	0.12515
2570.92472	0.12528
2568.99605	0.12539
2567.06737	0.12552
2565.13870	0.12566
2563.21002	0.12581
2561.28135	0.12595
2559.35267	0.12609
2557.42399	0.12623
2555.49532	0.12639
2553.56664	0.12656
2551.63797	0.12672
2549.70929	0.12686
2547.78062	0.12700
2545.85194	0.12713
2543.92326	0.12726
2541.99459	0.12740
2540.06591	0.12756
2538.13724	0.12771
2536.20856	0.12787
2534.27989	0.12806
2532.35121	0.12823
2530.42253	0.12837
2528.49386	0.12850
2526.56518	0.12863
2524.63651	0.12879
2522.70783	0.12896
2520.77916	0.12914
2518.85048	0.12930
2516.92181	0.12946
2514.99313	0.12961
2513.06445	0.12975
2511.13578	0.12991
2509.20710	0.13010
2507.27843	0.13029
2505.34975	0.13044
2503.42108	0.13057
2501.49240	0.13073
2499.56372	0.13094
2497.63505	0.13113
2495.70637	0.13128
2493.77770	0.13142
2491.84902	0.13159
2489.92035	0.13177
2487.99167	0.13194
2486.06299	0.13206
2484.13432	0.13221
2482.20564	0.13240
2480.27697	0.13260
2478.34829	0.13276
2476.41962	0.13293
2474.49094	0.13309
2472.56226	0.13324
2470.63359	0.13337
2468.70491	0.13352
2466.77624	0.13369
2464.84756	0.13388
2462.91889	0.13406
2460.99021	0.13422
2459.06153	0.13440
2457.13286	0.13460
2455.20418	0.13475
2453.27551	0.13487
2451.34683	0.13498
2449.41816	0.13511
2447.48948	0.13526
2445.56080	0.13543
2443.63213	0.13560
2441.70345	0.13575
2439.77478	0.13592
2437.84610	0.13610
2435.91743	0.13627
2433.98875	0.13640
2432.06007	0.13652
2430.13140	0.13669
2428.20272	0.13688
2426.27405	0.13705
2424.34537	0.13722
2422.41670	0.13740
2420.48802	0.13755
2418.55934	0.13770
2416.63067	0.13785
2414.70199	0.13797
2412.77332	0.13810
2410.84464	0.13827
2408.91597	0.13844
2406.98729	0.13860
2405.05861	0.13876
2403.12994	0.13893
2401.20126	0.13911
2399.27259	0.13926
2397.34391	0.13941
2395.41524	0.13958
2393.48656	0.13974
2391.55788	0.13991
2389.62921	0.14006
2387.70053	0.14017
2385.77186	0.14027
2383.84318	0.14039
2381.91451	0.14051
2379.98583	0.14062
2378.05715	0.14069
2376.12848	0.14071
2374.19980	0.14070
2372.27113	0.14071
2370.34245	0.14075
2368.41378	0.14080
2366.48510	0.14087
2364.55642	0.14097
2362.62775	0.14111
2360.69907	0.14129
2358.77040	0.14149
2356.84172	0.14172
2354.91305	0.14199
2352.98437	0.14230
2351.05569	0.14263
2349.12702	0.14287
2347.19834	0.14296
2345.26967	0.14298
2343.34099	0.14301
2341.41232	0.14308
2339.48364	0.14318
2337.55496	0.14332
2335.62629	0.14349
2333.69761	0.14368
2331.76894	0.14388
2329.84026	0.14406
2327.91159	0.14425
2325.98291	0.14445
2324.05423	0.14465
2322.12556	0.14488
2320.19688	0.14515
2318.26821	0.14540
2316.33953	0.14561
2314.41086	0.14579
2312.48218	0.14600
2310.55350	0.14622
2308.62483	0.14642
2306.69615	0.14659
2304.76748	0.14677
2302.83880	0.14697
2300.91013	0.14716
2298.98145	0.14730
2297.05277	0.14745
2295.12410	0.14763
2293.19542	0.14781
2291.26675	0.14796
2289.33807	0.14810
2287.40940	0.14828
2285.48072	0.14847
2283.55204	0.14866
2281.62337	0.14885
2279.69469	0.14901
2277.76602	0.14917
2275.83734	0.14933
2273.90867	0.14946
2271.97999	0.14959
2270.05131	0.14974
2268.12264	0.14992
2266.19396	0.15010
2264.26529	0.15026
2262.33661	0.15043
2260.40794	0.15061
2258.47926	0.15077
2256.55058	0.15089
2254.62191	0.15103
2252.69323	0.15120
2250.76456	0.15137
2248.83588	0.15150
2246.90721	0.15162
2244.97853	0.15177
2243.04985	0.15194
2241.12118	0.15211
2239.19250	0.15228
2237.26383	0.15241
2235.33515	0.15254
2233.40648	0.15273
2231.47780	0.15291
2229.54912	0.15306
2227.62045	0.15321
2225.69177	0.15339
2223.76310	0.15355
2221.83442	0.15367
2219.90575	0.15382
2217.97707	0.15398
2216.04839	0.15413
2214.11972	0.15426
2212.19104	0.15440
2210.26237	0.15458
2208.33369	0.15479
2206.40502	0.15496
2204.47634	0.15510
2202.54766	0.15524
2200.61899	0.15540
2198.69031	0.15558
2196.76164	0.15573
2194.83296	0.15586
2192.90429	0.15599
2190.97561	0.15614
2189.04693	0.15630
2187.11826	0.15646
2185.18958	0.15662
2183.26091	0.15676
2181.33223	0.15692
2179.40356	0.15707
2177.47488	0.15721
2175.54620	0.15734
2173.61753	0.15748
2171.68885	0.15762
2169.76018	0.15781
2167.83150	0.15801
2165.90283	0.15818
2163.97415	0.15832
2162.04547	0.15849
2160.11680	0.15871
2158.18812	0.15895
2156.25945	0.15914
2154.33077	0.15927
2152.40210	0.15939
2150.47342	0.15954
2148.54474	0.15967
2146.61607	0.15981
2144.68739	0.15996
2142.75872	0.16011
2140.83004	0.16024
2138.90137	0.16038
2136.97269	0.16057
2135.04401	0.16079
2133.11534	0.16098
2131.18666	0.16113
2129.25799	0.16126
2127.32931	0.16139
2125.40064	0.16154
2123.47196	0.16171
2121.54328	0.16188
2119.61461	0.16203
2117.68593	0.16216
2115.75726	0.16229
2113.82858	0.16245
2111.89991	0.16265
2109.97123	0.16285
2108.04255	0.16298
2106.11388	0.16311
2104.18520	0.16327
2102.25653	0.16347
2100.32785	0.16365
2098.39918	0.16383
2096.47050	0.16403
2094.54182	0.16421
2092.61315	0.16433
2090.68447	0.16442
2088.75580	0.16456
2086.82712	0.16473
2084.89845	0.16491
2082.96977	0.16507
2081.04109	0.16521
2079.11242	0.16539
2077.18374	0.16554
2075.25507	0.16568
2073.32639	0.16584
2071.39772	0.16603
2069.46904	0.16619
2067.54036	0.16632
2065.61169	0.16644
2063.68301	0.16660
2061.75434	0.16679
2059.82566	0.16695
2057.89699	0.16712
2055.96831	0.16728
2054.03963	0.16745
2052.11096	0.16764
2050.18228	0.16782
2048.25361	0.16801
2046.32493	0.16816
2044.39626	0.16826
2042.46758	0.16836
2040.53890	0.16855
2038.61023	0.16877
2036.68155	0.16896
2034.75288	0.16911
2032.82420	0.16922
2030.89553	0.16938
2028.96685	0.16959
2027.03817	0.16980
2025.10950	0.16996
2023.18082	0.17007
2021.25215	0.17018
2019.32347	0.17033
2017.39480	0.17049
2015.46612	0.17067
2013.53744	0.17089
2011.60877	0.17109
2009.68009	0.17125
2007.75142	0.17140
2005.82274	0.17155
2003.89407	0.17173
2001.96539	0.17190
2000.03671	0.17206
1998.10804	0.17221
1996.17936	0.17236
1994.25069	0.17249
1992.32201	0.17258
1990.39334	0.17269
1988.46466	0.17284
1986.53598	0.17301
1984.60731	0.17318
1982.67863	0.17335
1980.74996	0.17351
1978.82128	0.17365
1976.89261	0.17375
1974.96393	0.17383
1973.03525	0.17394
1971.10658	0.17408
1969.17790	0.17419
1967.24923	0.17430
1965.32055	0.17447
1963.39188	0.17466
1961.46320	0.17484
1959.53452	0.17503
1957.60585	0.17519
1955.67717	0.17534
1953.74850	0.17553
1951.81982	0.17570
1949.89115	0.17580
1947.96247	0.17590
1946.03379	0.17602
1944.10512	0.17611
1942.17644	0.17622
1940.24777	0.17640
1938.31909	0.17663
1936.39042	0.17685
1934.46174	0.17705
1932.53306	0.17722
1930.60439	0.17740
1928.67571	0.17756
1926.74704	0.17768
1924.81836	0.17776
1922.88969	0.17783
1920.96101	0.17794
1919.03233	0.17805
1917.10366	0.17827
1915.17498	0.17857
1913.24631	0.17879
1911.31763	0.17890
1909.38896	0.17903
1907.46028	0.17923
1905.53160	0.17939
1903.60293	0.17953
1901.67425	0.17968
1899.74558	0.17986
1897.81690	0.18004
1895.88823	0.18017
1893.95955	0.18028
1892.03087	0.18033
1890.10220	0.18035
1888.17352	0.18051
1886.24485	0.18078
1884.31617	0.18100
1882.38750	0.18118
1880.45882	0.18137
1878.53014	0.18153
1876.60147	0.18166
1874.67279	0.18178
1872.74412	0.18183
1870.81544	0.18181
1868.88677	0.18187
1866.95809	0.18213
1865.02941	0.18247
1863.10074	0.18273
1861.17206	0.18294
1859.24339	0.18312
1857.31471	0.18326
1855.38604	0.18341
1853.45736	0.18362
1851.52868	0.18383
1849.60001	0.18393
1847.67133	0.18379
1845.74266	0.18348
1843.81398	0.18352
1841.88531	0.18411
1839.95663	0.18466
1838.02795	0.18489
1836.09928	0.18504
1834.17060	0.18517
1832.24193	0.18513
1830.31325	0.18503
1828.38458	0.18512
1826.45590	0.18526
1824.52722	0.18547
1822.59855	0.18587
1820.66987	0.18621
1818.74120	0.18630
1816.81252	0.18639
1814.88385	0.18657
1812.95517	0.18670
1811.02649	0.18678
1809.09782	0.18697
1807.16914	0.18717
1805.24047	0.18720
1803.31179	0.18710
1801.38312	0.18711
1799.45444	0.18733
1797.52576	0.18762
1795.59709	0.18779
1793.66841	0.18774
1791.73974	0.18770
1789.81106	0.18799
1787.88239	0.18839
1785.95371	0.18859
1784.02503	0.18868
1782.09636	0.18874
1780.16768	0.18882
1778.23901	0.18893
1776.31033	0.18896
1774.38166	0.18879
1772.45298	0.18861
1770.52430	0.18863
1768.59563	0.18884
1766.66695	0.18929
1764.73828	0.18973
1762.80960	0.18986
1760.88093	0.18989
1758.95225	0.18985
1757.02357	0.18980
1755.09490	0.18990
1753.16622	0.18989
1751.23755	0.18964
1749.30887	0.18953
1747.38020	0.18971
1745.45152	0.18995
1743.52284	0.19004
1741.59417	0.19003
1739.66549	0.19001
1737.73682	0.18983
1735.80814	0.18930
1733.87947	0.18899
1731.95079	0.18938
1730.02211	0.18999
1728.09344	0.19045
1726.16476	0.19078
1724.23609	0.19099
1722.30741	0.19105
1720.37874	0.19076
1718.45006	0.19039
1716.52138	0.19044
1714.59271	0.19091
1712.66403	0.19150
1710.73536	0.19188
1708.80668	0.19192
1706.87801	0.19183
1704.94933	0.19183
1703.02065	0.19161
1701.09198	0.19118
1699.16330	0.19103
1697.23463	0.19108
1695.30595	0.19134
1693.37728	0.19201
1691.44860	0.19250
1689.51992	0.19250
1687.59125	0.19218
1685.66257	0.19167
1683.73390	0.19153
1681.80522	0.19197
1679.87655	0.19246
1677.94787	0.19263
1676.01919	0.19263
1674.09052	0.19265
1672.16184	0.19251
1670.23317	0.19221
1668.30449	0.19237
1666.37582	0.19292
1664.44714	0.19320
1662.51846	0.19318
1660.58979	0.19325
1658.66111	0.19333
1656.73244	0.19289
1654.80376	0.19193
1652.87509	0.19160
1650.94641	0.19236
1649.01773	0.19289
1647.08906	0.19276
1645.16038	0.19291
1643.23171	0.19345
1641.30303	0.19378
1639.37436	0.19368
1637.44568	0.19331
1635.51700	0.19319
1633.58833	0.19362
1631.65965	0.19409
1629.73098	0.19414
1627.80230	0.19396
1625.87363	0.19367
1623.94495	0.19327
1622.01627	0.19305
1620.08760	0.19312
1618.15892	0.19337
1616.23025	0.19390
1614.30157	0.19461
1612.37290	0.19517
1610.44422	0.19550
1608.51554	0.19577
1606.58687	0.19606
1604.65819	0.19631
1602.72952	0.19647
1600.80084	0.19661
1598.87217	0.19676
1596.94349	0.19694
1595.01481	0.19712
1593.08614	0.19729
1591.15746	0.19747
1589.22879	0.19763
1587.30011	0.19778
1585.37144	0.19796
1583.44276	0.19816
1581.51408	0.19835
1579.58541	0.19838
1577.65673	0.19823
1575.72806	0.19824
1573.79938	0.19845
1571.87071	0.19839
1569.94203	0.19826
1568.01335	0.19856
1566.08468	0.19900
1564.15600	0.19927
1562.22733	0.19911
1560.29865	0.19833
1558.36998	0.19775
1556.44130	0.19819
1554.51262	0.19903
1552.58395	0.19958
1550.65527	0.19984
1548.72660	0.20005
1546.79792	0.20014
1544.86925	0.19991
1542.94057	0.19946
1541.01189	0.19913
1539.08322	0.19930
1537.15454	0.19999
1535.22587	0.20048
1533.29719	0.20061
1531.36852	0.20074
1529.43984	0.20081
1527.51116	0.20075
1525.58249	0.20074
1523.65381	0.20059
1521.72514	0.20030
1519.79646	0.20030
1517.86779	0.20060
1515.93911	0.20088
1514.01043	0.20104
1512.08176	0.20102
1510.15308	0.20079
1508.22441	0.20056
1506.29573	0.20079
1504.36706	0.20148
1502.43838	0.20200
1500.50970	0.20202
1498.58103	0.20177
1496.65235	0.20165
1494.72368	0.20179
1492.79500	0.20173
1490.86633	0.20129
1488.93765	0.20109
1487.00897	0.20136
1485.08030	0.20162
1483.15162	0.20158
1481.22295	0.20142
1479.29427	0.20122
1477.36560	0.20083
1475.43692	0.20022
1473.50824	0.19970
1471.57957	0.19956
1469.65089	0.19961
1467.72222	0.19946
1465.79354	0.19919
1463.86487	0.19903
1461.93619	0.19876
1460.00751	0.19811
1458.07884	0.19750
1456.15016	0.19746
1454.22149	0.19784
1452.29281	0.19813
1450.36414	0.19813
1448.43546	0.19810
1446.50678	0.19833
1444.57811	0.19869
1442.64943	0.19888
1440.72076	0.19881
1438.79208	0.19844
1436.86341	0.19818
1434.93473	0.19854
1433.00605	0.19914
1431.07738	0.19946
1429.14870	0.19960
1427.22003	0.19969
1425.29135	0.19969
1423.36268	0.19968
1421.43400	0.19957
1419.50532	0.19934
1417.57665	0.19935
1415.64797	0.19968
1413.71930	0.19993
1411.79062	0.19999
1409.86195	0.19997
1407.93327	0.19986
1406.00459	0.19968
1404.07592	0.19964
1402.14724	0.19974
1400.21857	0.19969
1398.28989	0.19952
1396.36122	0.19933
1394.43254	0.19925
1392.50386	0.19937
1390.57519	0.19936
1388.64651	0.19904
1386.71784	0.19873
1384.78916	0.19866
1382.86049	0.19873
1380.93181	0.19882
1379.00313	0.19881
1377.07446	0.19864
1375.14578	0.19845
1373.21711	0.19847
1371.28843	0.19864
1369.35976	0.19873
1367.43108	0.19869
1365.50240	0.19845
1363.57373	0.19820
1361.64505	0.19829
1359.71638	0.19857
1357.78770	0.19872
1355.85903	0.19877
1353.93035	0.19885
1352.00167	0.19896
1350.07300	0.19910
1348.14432	0.19923
1346.21565	0.19931
1344.28697	0.19927
1342.35830	0.19909
1340.42962	0.19892
1338.50094	0.19890
1336.57227	0.19896
1334.64359	0.19899
1332.71492	0.19897
1330.78624	0.19889
1328.85757	0.19880
1326.92889	0.19868
1325.00021	0.19850
1323.07154	0.19830
1321.14286	0.19811
1319.21419	0.19793
1317.28551	0.19775
1315.35684	0.19753
1313.42816	0.19730
1311.49948	0.19711
1309.57081	0.19696
1307.64213	0.19682
1305.71346	0.19662
1303.78478	0.19636
1301.85611	0.19608
1299.92743	0.19586
1297.99875	0.19569
1296.07008	0.19552
1294.14140	0.19537
1292.21273	0.19522
1290.28405	0.19502
1288.35538	0.19479
1286.42670	0.19460
1284.49802	0.19443
1282.56935	0.19423
1280.64067	0.19396
1278.71200	0.19366
1276.78332	0.19334
1274.85465	0.19291
1272.92597	0.19241
1270.99729	0.19186
1269.06862	0.19110
1267.13994	0.19015
1265.21127	0.18925
1263.28259	0.18862
1261.35392	0.18828
1259.42524	0.18824
1257.49656	0.18846
1255.56789	0.18873
1253.63921	0.18882
1251.71054	0.18872
1249.78186	0.18849
1247.85319	0.18816
1245.92451	0.18782
1243.99583	0.18746
1242.06716	0.18703
1240.13848	0.18657
1238.20981	0.18609
1236.28113	0.18559
1234.35246	0.18507
1232.42378	0.18454
1230.49510	0.18401
1228.56643	0.18345
1226.63775	0.18284
1224.70908	0.18230
1222.78040	0.18187
1220.85173	0.18143
1218.92305	0.18095
1216.99437	0.18044
1215.06570	0.17995
1213.13702	0.17943
1211.20835	0.17885
1209.27967	0.17824
1207.35100	0.17769
1205.42232	0.17718
1203.49364	0.17662
1201.56497	0.17600
1199.63629	0.17541
1197.70762	0.17486
1195.77894	0.17425
1193.85027	0.17357
1191.92159	0.17290
1189.99291	0.17222
1188.06424	0.17148
1186.13556	0.17070
1184.20689	0.16989
1182.27821	0.16907
1180.34954	0.16826
1178.42086	0.16743
1176.49218	0.16661
1174.56351	0.16580
1172.63483	0.16499
1170.70616	0.16415
1168.77748	0.16326
1166.84881	0.16236
1164.92013	0.16152
1162.99145	0.16073
1161.06278	0.15991
1159.13410	0.15906
1157.20543	0.15826
1155.27675	0.15755
1153.34808	0.15687
1151.41940	0.15612
1149.49072	0.15529
1147.56205	0.15441
1145.63337	0.15355
1143.70470	0.15272
1141.77602	0.15183
1139.84735	0.15086
1137.91867	0.14981
1135.98999	0.14863
1134.06132	0.14728
1132.13264	0.14575
1130.20397	0.14400
1128.27529	0.14200
1126.34662	0.13979
1124.41794	0.13747
1122.48926	0.13516
1120.56059	0.13286
1118.63191	0.13065
1116.70324	0.12863
1114.77456	0.12685
1112.84589	0.12528
1110.91721	0.12398
1108.98853	0.12299
1107.05986	0.12227
1105.13118	0.12181
1103.20251	0.12166
1101.27383	0.12179
1099.34516	0.12217
1097.41648	0.12273
1095.48780	0.12346
1093.55913	0.12430
1091.63045	0.12511
1089.70178	0.12586
1087.77310	0.12663
1085.84443	0.12732
1083.91575	0.12785
1081.98707	0.12824
1080.05840	0.12854
1078.12972	0.12872
1076.20105	0.12879
1074.27237	0.12887
1072.34370	0.12903
1070.41502	0.12921
1068.48634	0.12934
1066.55767	0.12948
1064.62899	0.12969
1062.70032	0.12993
1060.77164	0.13016
1058.84297	0.13036
1056.91429	0.13055
1054.98561	0.13082
1053.05694	0.13115
1051.12826	0.13143
1049.19959	0.13169
1047.27091	0.13207
1045.34224	0.13252
1043.41356	0.13301
1041.48488	0.13347
1039.55621	0.13384
1037.62753	0.13414
1035.69886	0.13446
1033.77018	0.13488
1031.84151	0.13533
1029.91283	0.13567
1027.98415	0.13590
1026.05548	0.13615
1024.12680	0.13648
1022.19813	0.13685
1020.26945	0.13723
1018.34078	0.13766
1016.41210	0.13814
1014.48342	0.13865
1012.55475	0.13919
1010.62607	0.13978
1008.69740	0.14041
1006.76872	0.14104
1004.84005	0.14163
1002.91137	0.14208
1000.98269	0.14239
999.05402	0.14264
997.12534	0.14289
995.19667	0.14311
993.26799	0.14322
991.33932	0.14320
989.41064	0.14315
987.48196	0.14316
985.55329	0.14325
983.62461	0.14332
981.69594	0.14332
979.76726	0.14319
977.83859	0.14302
975.90991	0.14288
973.98123	0.14270
972.05256	0.14248
970.12388	0.14229
968.19521	0.14213
966.26653	0.14197
964.33786	0.14179
962.40918	0.14163
960.48050	0.14147
958.55183	0.14128
956.62315	0.14111
954.69448	0.14102
952.76580	0.14091
950.83713	0.14073
948.90845	0.14048
946.97977	0.14018
945.05110	0.13995
943.12242	0.13970
941.19375	0.13931
939.26507	0.13884
937.33640	0.13846
935.40772	0.13813
933.47904	0.13770
931.55037	0.13718
929.62169	0.13667
927.69302	0.13614
925.76434	0.13556
923.83567	0.13495
921.90699	0.13434
919.97831	0.13369
918.04964	0.13298
916.12096	0.13228
914.19229	0.13163
912.26361	0.13097
910.33494	0.13030
908.40626	0.12958
906.47758	0.12881
904.54891	0.12811
902.62023	0.12755
900.69156	0.12706
898.76288	0.12650
896.83421	0.12590
894.90553	0.12538
892.97685	0.12495
891.04818	0.12452
889.11950	0.12409
887.19083	0.12367
885.26215	0.12326
883.33348	0.12288
881.40480	0.12249
879.47612	0.12214
877.54745	0.12188
875.61877	0.12166
873.69010	0.12141
871.76142	0.12118
869.83275	0.12092
867.90407	0.12064
865.97539	0.12041
864.04672	0.12024
862.11804	0.12010
860.18937	0.12003
858.26069	0.11999
856.33202	0.11987
854.40334	0.11965
852.47466	0.11943
850.54599	0.11923
848.61731	0.11901
846.68864	0.11878
844.75996	0.11856
842.83129	0.11831
840.90261	0.11800
838.97394	0.11760
837.04526	0.11711
835.11658	0.11653
833.18791	0.11586
831.25923	0.11503
829.33056	0.11404
827.40188	0.11299
825.47321	0.11191
823.54453	0.11085
821.61585	0.10997
819.68718	0.10935
817.75850	0.10889
815.82983	0.10849
813.90115	0.10819
811.97248	0.10792
810.04380	0.10765
808.11512	0.10745
806.18645	0.10739
804.25777	0.10739
802.32910	0.10733
800.40042	0.10706
798.47175	0.10656
796.54307	0.10600
794.61439	0.10549
792.68572	0.10498
790.75704	0.10458
788.82837	0.10439
786.89969	0.10425
784.97102	0.10400
783.04234	0.10371
781.11366	0.10340
779.18499	0.10306
777.25631	0.10273
775.32764	0.10248
773.39896	0.10225
771.47029	0.10200
769.54161	0.10169
767.61293	0.10130
765.68426	0.10089
763.75558	0.10045
761.82691	0.10001
759.89823	0.09958
757.96956	0.09906
756.04088	0.09843
754.11220	0.09779
752.18353	0.09717
750.25485	0.09656
748.32618	0.09593
746.39750	0.09520
744.46883	0.09429
742.54015	0.09335
740.61147	0.09256
738.68280	0.09200
736.75412	0.09173
734.82545	0.09168
732.89677	0.09175
730.96810	0.09182
729.03942	0.09190
727.11074	0.09203
725.18207	0.09215
723.25339	0.09221
721.32472	0.09227
719.39604	0.09245
717.46737	0.09272
715.53869	0.09308
713.61001	0.09355
711.68134	0.09400
709.75266	0.09425
707.82399	0.09434
705.89531	0.09431
703.96664	0.09420
702.03796	0.09404
700.10928	0.09369
698.18061	0.09310
696.25193	0.09242
694.32326	0.09186
692.39458	0.09137
690.46591	0.09083
688.53723	0.09025
686.60855	0.08970
684.67988	0.08930
682.75120	0.08899
680.82253	0.08850
678.89385	0.08783
676.96518	0.08717
675.03650	0.08655
673.10782	0.08589
671.17915	0.08510
669.25047	0.08417
667.32180	0.08330
665.39312	0.08257
663.46445	0.08179
661.53577	0.08096
659.60709	0.08017
657.67842	0.07942
655.74974	0.07870
653.82107	0.07802
651.89239	0.07728
649.96372	0.07644
648.03504	0.07556
646.10636	0.07466
644.17769	0.07370
642.24901	0.07272
640.32034	0.07176
638.39166	0.07080
636.46299	0.06976
634.53431	0.06863
632.60563	0.06717
630.67696	0.06485
628.74828	0.06142
626.81961	0.05708
624.89093	0.05270
622.96226	0.04926
621.03358	0.04704
619.10490	0.04582
617.17623	0.04507
615.24755	0.04424
613.31888	0.04319
611.39020	0.04212
609.46153	0.04150
607.53285	0.04158
605.60417	0.04210
603.67550	0.04274
601.74682	0.04344
599.81815	0.04424
597.88947	0.04501
595.96080	0.04565
594.03212	0.04616
592.10344	0.04647
590.17477	0.04653
588.24609	0.04642
586.31742	0.04629
584.38874	0.04613
582.46007	0.04587
580.53139	0.04550
578.60271	0.04508
576.67404	0.04462
574.74536	0.04409
572.81669	0.04347
570.88801	0.04282
568.95934	0.04223
567.03066	0.04173
565.10198	0.04132
563.17331	0.04099
561.24463	0.04074
559.31596	0.04049
557.38728	0.04024
555.45861	0.04000
553.52993	0.03976
551.60125	0.03953
549.67258	0.03938
547.74390	0.03931
545.81523	0.03931
543.88655	0.03925
541.95788	0.03905
540.02920	0.03879
538.10052	0.03856
536.17185	0.03839
534.24317	0.03825
532.31450	0.03803
530.38582	0.03769
528.45715	0.03734
526.52847	0.03707
524.59979	0.03681
522.67112	0.03642
520.74244	0.03591
518.81377	0.03534
516.88509	0.03475
514.95642	0.03420
513.02774	0.03377
511.09906	0.03352
509.17039	0.03341
507.24171	0.03331
505.31304	0.03305
503.38436	0.03264
501.45569	0.03224
499.52701	0.03183
497.59833	0.03132
495.66966	0.03085
493.74098	0.03047
491.81231	0.03001
489.88363	0.02935
487.95496	0.02862
486.02628	0.02796
484.09760	0.02745
482.16893	0.02709
480.24025	0.02665
478.31158	0.02605
476.38290	0.02541
474.45423	0.02482
472.52555	0.02429
470.59687	0.02387
468.66820	0.02353
466.73952	0.02317
464.81085	0.02286
462.88217	0.02268
460.95350	0.02258
459.02482	0.02248
457.09614	0.02241
455.16747	0.02237
453.23879	0.02236
451.31012	0.02228
449.38144	0.02217
447.45277	0.02215
445.52409	0.02214
443.59541	0.02195
441.66674	0.02159
439.73806	0.02118
437.80939	0.02075
435.88071	0.02023
433.95204	0.01967
432.02336	0.01913
430.09468	0.01855
428.16601	0.01788
426.23733	0.01720
424.30866	0.01655
422.37998	0.01594
420.45131	0.01540
418.52263	0.01483
416.59395	0.01420
414.66528	0.01354
412.73660	0.01285
410.80793	0.01215
408.87925	0.01150
406.95058	0.01095
405.02190	0.01042
403.09322	0.00988
401.16455	0.00933
399.23587	0.00872
397.30720	0.00808
395.37852	0.00757
393.44985	0.00709
391.52117	0.00662
389.59249	0.00620
387.66382	0.00570
385.73514	0.00519
383.80647	0.00481
381.87779	0.00455
379.94912	0.00431
378.02044	0.00402
376.09176	0.00365
374.16309	0.00324
372.23441	0.00281
370.30574	0.00245
368.37706	0.00218
