7496.76250	0.00117
7494.83382	0.00116
7492.90514	0.00116
7490.97647	0.00116
7489.04779	0.00117
7487.11912	0.00117
7485.19044	0.00118
7483.26177	0.00119
7481.33309	0.00119
7479.40441	0.00119
7477.47574	0.00120
7475.54706	0.00120
7473.61839	0.00120
7471.68971	0.00119
7469.76104	0.00120
7467.83236	0.00121
7465.90368	0.00122
7463.97501	0.00121
7462.04633	0.00121
7460.11766	0.00122
7458.18898	0.00122
7456.26031	0.00122
7454.33163	0.00122
7452.40295	0.00122
7450.47428	0.00123
7448.54560	0.00125
7446.61693	0.00126
7444.68825	0.00127
7442.75958	0.00126
7440.83090	0.00126
7438.90222	0.00126
7436.97355	0.00126
7435.04487	0.00127
7433.11620	0.00128
7431.18752	0.00129
7429.25885	0.00129
7427.33017	0.00128
7425.40149	0.00128
7423.47282	0.00128
7421.54414	0.00129
7419.61547	0.00130
7417.68679	0.00132
7415.75812	0.00131
7413.82944	0.00131
7411.90076	0.00131
7409.97209	0.00132
7408.04341	0.00133
7406.11474	0.00133
7404.18606	0.00132
7402.25739	0.00132
7400.32871	0.00132
7398.40003	0.00134
7396.47136	0.00135
7394.54268	0.00135
7392.61401	0.00134
7390.68533	0.00134
7388.75666	0.00134
7386.82798	0.00134
7384.89930	0.00135
7382.97063	0.00136
7381.04195	0.00136
7379.11328	0.00136
7377.18460	0.00137
7375.25593	0.00139
7373.32725	0.00140
7371.39857	0.00139
7369.46990	0.00137
7367.54122	0.00137
7365.61255	0.00137
7363.68387	0.00138
7361.75520	0.00140
7359.82652	0.00140
7357.89784	0.00139
7355.96917	0.00140
7354.04049	0.00142
7352.11182	0.00143
7350.18314	0.00144
7348.25447	0.00145
7346.32579	0.00144
7344.39711	0.00143
7342.46844	0.00143
7340.53976	0.00143
7338.61109	0.00144
7336.68241	0.00145
7334.75374	0.00144
7332.82506	0.00144
7330.89638	0.00145
7328.96771	0.00145
7327.03903	0.00146
7325.11036	0.00148
7323.18168	0.00149
7321.25301	0.00149
7319.32433	0.00148
7317.39565	0.00148
7315.46698	0.00147
7313.53830	0.00146
7311.60963	0.00147
7309.68095	0.00149
7307.75228	0.00151
7305.82360	0.00151
7303.89492	0.00151
7301.96625	0.00150
7300.03757	0.00149
7298.10890	0.00149
7296.18022	0.00150
7294.25155	0.00151
7292.32287	0.00151
7290.39419	0.00151
7288.46552	0.00152
7286.53684	0.00154
7284.60817	0.00155
7282.67949	0.00156
7280.75082	0.00157
7278.82214	0.00157
7276.89346	0.00155
7274.96479	0.00154
7273.03611	0.00155
7271.10744	0.00156
7269.17876	0.00158
7267.25009	0.00157
7265.32141	0.00156
7263.39273	0.00157
7261.46406	0.00158
7259.53538	0.00159
7257.60671	0.00159
7255.67803	0.00158
7253.74936	0.00157
7251.82068	0.00158
7249.89200	0.00159
7247.96333	0.00162
7246.03465	0.00164
7244.10598	0.00163
7242.17730	0.00162
7240.24863	0.00161
7238.31995	0.00162
7236.39127	0.00163
7234.46260	0.00164
7232.53392	0.00163
7230.60525	0.00163
7228.67657	0.00164
7226.74790	0.00166
7224.81922	0.00167
7222.89054	0.00167
7220.96187	0.00167
7219.03319	0.00166
7217.10452	0.00167
7215.17584	0.00168
7213.24717	0.00169
7211.31849	0.00170
7209.38981	0.00169
7207.46114	0.00166
7205.53246	0.00165
7203.60379	0.00167
7201.67511	0.00169
7199.74644	0.00171
7197.81776	0.00171
7195.88908	0.00172
7193.96041	0.00172
7192.03173	0.00173
7190.10306	0.00174
7188.17438	0.00174
7186.24571	0.00173
7184.31703	0.00173
7182.38835	0.00174
7180.45968	0.00176
7178.53100	0.00177
7176.60233	0.00178
7174.67365	0.00177
7172.74498	0.00176
7170.81630	0.00176
7168.88762	0.00176
7166.95895	0.00177
7165.03027	0.00179
7163.10160	0.00179
7161.17292	0.00179
7159.24425	0.00180
7157.31557	0.00180
7155.38689	0.00181
7153.45822	0.00181
7151.52954	0.00182
7149.60087	0.00182
7147.67219	0.00181
7145.74352	0.00180
7143.81484	0.00181
7141.88616	0.00184
7139.95749	0.00186
7138.02881	0.00187
7136.10014	0.00186
7134.17146	0.00185
7132.24279	0.00184
7130.31411	0.00183
7128.38543	0.00182
7126.45676	0.00183
7124.52808	0.00184
7122.59941	0.00185
7120.67073	0.00185
7118.74206	0.00184
7116.81338	0.00185
7114.88470	0.00187
7112.95603	0.00189
7111.02735	0.00190
7109.09868	0.00190
7107.17000	0.00190
7105.24133	0.00190
7103.31265	0.00189
7101.38397	0.00189
7099.45530	0.00190
7097.52662	0.00193
7095.59795	0.00194
7093.66927	0.00194
7091.74060	0.00194
7089.81192	0.00195
7087.88324	0.00196
7085.95457	0.00197
7084.02589	0.00197
7082.09722	0.00198
7080.16854	0.00199
7078.23987	0.00197
7076.31119	0.00195
7074.38251	0.00195
7072.45384	0.00196
7070.52516	0.00196
7068.59649	0.00197
7066.66781	0.00197
7064.73914	0.00197
7062.81046	0.00198
7060.88178	0.00199
7058.95311	0.00199
7057.02443	0.00199
7055.09576	0.00199
7053.16708	0.00200
7051.23841	0.00201
7049.30973	0.00202
7047.38105	0.00202
7045.45238	0.00202
7043.52370	0.00202
7041.59503	0.00203
7039.66635	0.00205
7037.73768	0.00206
7035.80900	0.00206
7033.88032	0.00206
7031.95165	0.00207
7030.02297	0.00208
7028.09430	0.00209
7026.16562	0.00209
7024.23695	0.00209
7022.30827	0.00208
7020.37959	0.00208
7018.45092	0.00207
7016.52224	0.00208
7014.59357	0.00209
7012.66489	0.00211
7010.73622	0.00211
7008.80754	0.00210
7006.87886	0.00210
7004.95019	0.00212
7003.02151	0.00213
7001.09284	0.00213
6999.16416	0.00212
6997.23549	0.00211
6995.30681	0.00211
6993.37813	0.00212
6991.44946	0.00213
6989.52078	0.00213
6987.59211	0.00214
6985.66343	0.00214
6983.73476	0.00216
6981.80608	0.00217
6979.87740	0.00217
6977.94873	0.00216
6976.02005	0.00217
6974.09138	0.00218
6972.16270	0.00218
6970.23403	0.00217
6968.30535	0.00217
6966.37667	0.00217
6964.44800	0.00217
6962.51932	0.00219
6960.59065	0.00220
6958.66197	0.00220
6956.73330	0.00220
6954.80462	0.00221
6952.87594	0.00222
6950.94727	0.00222
6949.01859	0.00223
6947.08992	0.00225
6945.16124	0.00227
6943.23257	0.00226
6941.30389	0.00227
6939.37521	0.00228
6937.44654	0.00228
6935.51786	0.00228
6933.58919	0.00228
6931.66051	0.00229
6929.73184	0.00230
6927.80316	0.00232
6925.87448	0.00233
6923.94581	0.00233
6922.01713	0.00232
6920.08846	0.00232
6918.15978	0.00232
6916.23111	0.00233
6914.30243	0.00233
6912.37375	0.00235
6910.44508	0.00235
6908.51640	0.00235
6906.58773	0.00235
6904.65905	0.00235
6902.73038	0.00237
6900.80170	0.00237
6898.87302	0.00238
6896.94435	0.00238
6895.01567	0.00238
6893.08700	0.00239
6891.15832	0.00240
6889.22965	0.00241
6887.30097	0.00240
6885.37229	0.00240
6883.44362	0.00239
6881.51494	0.00241
6879.58627	0.00244
6877.65759	0.00245
6875.72892	0.00244
6873.80024	0.00244
6871.87156	0.00244
6869.94289	0.00245
6868.01421	0.00244
6866.08554	0.00244
6864.15686	0.00247
6862.22819	0.00249
6860.29951	0.00249
6858.37083	0.00248
6856.44216	0.00248
6854.51348	0.00248
6852.58481	0.00248
6850.65613	0.00249
6848.72746	0.00251
6846.79878	0.00253
6844.87010	0.00255
6842.94143	0.00256
6841.01275	0.00256
6839.08408	0.00256
6837.15540	0.00257
6835.22673	0.00259
6833.29805	0.00259
6831.36937	0.00258
6829.44070	0.00257
6827.51202	0.00257
6825.58335	0.00257
6823.65467	0.00257
6821.72600	0.00258
6819.79732	0.00258
6817.86864	0.00258
6815.93997	0.00258
6814.01129	0.00258
6812.08262	0.00258
6810.15394	0.00258
6808.22527	0.00260
6806.29659	0.00261
6804.36791	0.00262
6802.43924	0.00263
6800.51056	0.00264
6798.58189	0.00265
6796.65321	0.00265
6794.72454	0.00265
6792.79586	0.00266
6790.86718	0.00267
6788.93851	0.00268
6787.00983	0.00268
6785.08116	0.00268
6783.15248	0.00269
6781.22381	0.00270
6779.29513	0.00270
6777.36645	0.00270
6775.43778	0.00271
6773.50910	0.00272
6771.58043	0.00273
6769.65175	0.00273
6767.72308	0.00274
6765.79440	0.00274
6763.86572	0.00273
6761.93705	0.00274
6760.00837	0.00276
6758.07970	0.00278
6756.15102	0.00277
6754.22235	0.00276
6752.29367	0.00276
6750.36499	0.00277
6748.43632	0.00277
6746.50764	0.00278
6744.57897	0.00279
6742.65029	0.00281
6740.72162	0.00283
6738.79294	0.00284
6736.86426	0.00285
6734.93559	0.00285
6733.00691	0.00284
6731.07824	0.00284
6729.14956	0.00284
6727.22089	0.00284
6725.29221	0.00285
6723.36353	0.00285
6721.43486	0.00287
6719.50618	0.00289
6717.57751	0.00291
6715.64883	0.00290
6713.72016	0.00289
6711.79148	0.00289
6709.86280	0.00290
6707.93413	0.00291
6706.00545	0.00293
6704.07678	0.00294
6702.14810	0.00294
6700.21943	0.00294
6698.29075	0.00295
6696.36207	0.00295
6694.43340	0.00295
6692.50472	0.00295
6690.57605	0.00296
6688.64737	0.00297
6686.71870	0.00297
6684.79002	0.00299
6682.86134	0.00300
6680.93267	0.00300
6679.00399	0.00301
6677.07532	0.00302
6675.14664	0.00303
6673.21797	0.00303
6671.28929	0.00303
6669.36061	0.00304
6667.43194	0.00305
6665.50326	0.00305
6663.57459	0.00305
6661.64591	0.00306
6659.71724	0.00307
6657.78856	0.00307
6655.85988	0.00305
6653.93121	0.00306
6652.00253	0.00308
6650.07386	0.00309
6648.14518	0.00310
6646.21651	0.00310
6644.28783	0.00311
6642.35915	0.00313
6640.43048	0.00314
6638.50180	0.00315
6636.57313	0.00315
6634.64445	0.00316
6632.71578	0.00318
6630.78710	0.00319
6628.85842	0.00317
6626.92975	0.00315
6625.00107	0.00315
6623.07240	0.00317
6621.14372	0.00321
6619.21505	0.00322
6617.28637	0.00321
6615.35769	0.00320
6613.42902	0.00323
6611.50034	0.00327
6609.57167	0.00330
6607.64299	0.00330
6605.71432	0.00328
6603.78564	0.00326
6601.85696	0.00324
6599.92829	0.00325
6597.99961	0.00327
6596.07094	0.00328
6594.14226	0.00327
6592.21359	0.00329
6590.28491	0.00331
6588.35623	0.00333
6586.42756	0.00333
6584.49888	0.00334
6582.57021	0.00335
6580.64153	0.00334
6578.71286	0.00333
6576.78418	0.00335
6574.85550	0.00338
6572.92683	0.00340
6570.99815	0.00340
6569.06948	0.00340
6567.14080	0.00341
6565.21213	0.00342
6563.28345	0.00341
6561.35477	0.00341
6559.42610	0.00342
6557.49742	0.00343
6555.56875	0.00343
6553.64007	0.00344
6551.71140	0.00345
6549.78272	0.00345
6547.85404	0.00346
6545.92537	0.00347
6543.99669	0.00348
6542.06802	0.00350
6540.13934	0.00353
6538.21067	0.00352
6536.28199	0.00350
6534.35331	0.00349
6532.42464	0.00350
6530.49596	0.00351
6528.56729	0.00353
6526.63861	0.00354
6524.70994	0.00355
6522.78126	0.00354
6520.85258	0.00354
6518.92391	0.00357
6516.99523	0.00361
6515.06656	0.00364
6513.13788	0.00364
6511.20921	0.00363
6509.28053	0.00362
6507.35185	0.00361
6505.42318	0.00361
6503.49450	0.00362
6501.56583	0.00364
6499.63715	0.00366
6497.70848	0.00367
6495.77980	0.00367
6493.85112	0.00367
6491.92245	0.00367
6489.99377	0.00368
6488.06510	0.00370
6486.13642	0.00370
6484.20775	0.00369
6482.27907	0.00370
6480.35039	0.00372
6478.42172	0.00373
6476.49304	0.00374
6474.56437	0.00376
6472.63569	0.00377
6470.70702	0.00377
6468.77834	0.00376
6466.84966	0.00376
6464.92099	0.00378
6462.99231	0.00380
6461.06364	0.00380
6459.13496	0.00379
6457.20629	0.00380
6455.27761	0.00381
6453.34893	0.00382
6451.42026	0.00382
6449.49158	0.00381
6447.56291	0.00382
6445.63423	0.00384
6443.70556	0.00385
6441.77688	0.00387
6439.84820	0.00388
6437.91953	0.00389
6435.99085	0.00390
6434.06218	0.00392
6432.13350	0.00395
6430.20483	0.00395
6428.27615	0.00394
6426.34747	0.00394
6424.41880	0.00395
6422.49012	0.00397
6420.56145	0.00398
6418.63277	0.00400
6416.70410	0.00402
6414.77542	0.00401
6412.84674	0.00400
6410.91807	0.00399
6408.98939	0.00399
6407.06072	0.00400
6405.13204	0.00402
6403.20337	0.00403
6401.27469	0.00404
6399.34601	0.00404
6397.41734	0.00405
6395.48866	0.00406
6393.55999	0.00406
6391.63131	0.00406
6389.70264	0.00407
6387.77396	0.00409
6385.84528	0.00411
6383.91661	0.00413
6381.98793	0.00414
6380.05926	0.00414
6378.13058	0.00414
6376.20191	0.00416
6374.27323	0.00416
6372.34455	0.00416
6370.41588	0.00417
6368.48720	0.00419
6366.55853	0.00421
6364.62985	0.00422
6362.70118	0.00423
6360.77250	0.00423
6358.84382	0.00423
6356.91515	0.00425
6354.98647	0.00426
6353.05780	0.00427
6351.12912	0.00427
6349.20045	0.00427
6347.27177	0.00428
6345.34309	0.00430
6343.41442	0.00431
6341.48574	0.00429
6339.55707	0.00429
6337.62839	0.00431
6335.69972	0.00432
6333.77104	0.00433
6331.84236	0.00435
6329.91369	0.00437
6327.98501	0.00439
6326.05634	0.00442
6324.12766	0.00444
6322.19899	0.00444
6320.27031	0.00443
6318.34163	0.00442
6316.41296	0.00441
6314.48428	0.00443
6312.55561	0.00445
6310.62693	0.00446
6308.69826	0.00447
6306.76958	0.00447
6304.84090	0.00449
6302.91223	0.00451
6300.98355	0.00453
6299.05488	0.00453
6297.12620	0.00454
6295.19753	0.00455
6293.26885	0.00455
6291.34017	0.00455
6289.41150	0.00456
6287.48282	0.00459
6285.55415	0.00461
6283.62547	0.00461
6281.69680	0.00461
6279.76812	0.00463
6277.83944	0.00463
6275.91077	0.00461
6273.98209	0.00460
6272.05342	0.00462
6270.12474	0.00465
6268.19607	0.00466
6266.26739	0.00466
6264.33871	0.00467
6262.41004	0.00469
6260.48136	0.00471
6258.55269	0.00472
6256.62401	0.00474
6254.69534	0.00474
6252.76666	0.00475
6250.83798	0.00476
6248.90931	0.00479
6246.98063	0.00480
6245.05196	0.00480
6243.12328	0.00480
6241.19461	0.00481
6239.26593	0.00482
6237.33725	0.00483
6235.40858	0.00484
6233.47990	0.00484
6231.55123	0.00484
6229.62255	0.00485
6227.69388	0.00487
6225.76520	0.00489
6223.83652	0.00491
6221.90785	0.00491
6219.97917	0.00490
6218.05050	0.00492
6216.12182	0.00493
6214.19315	0.00494
6212.26447	0.00495
6210.33579	0.00497
6208.40712	0.00499
6206.47844	0.00500
6204.54977	0.00501
6202.62109	0.00502
6200.69242	0.00503
6198.76374	0.00505
6196.83506	0.00507
6194.90639	0.00507
6192.97771	0.00507
6191.04904	0.00508
6189.12036	0.00509
6187.19169	0.00510
6185.26301	0.00510
6183.33433	0.00511
6181.40566	0.00514
6179.47698	0.00515
6177.54831	0.00515
6175.61963	0.00514
6173.69096	0.00515
6171.76228	0.00518
6169.83360	0.00520
6167.90493	0.00522
6165.97625	0.00524
6164.04758	0.00525
6162.11890	0.00525
6160.19023	0.00525
6158.26155	0.00525
6156.33287	0.00527
6154.40420	0.00529
6152.47552	0.00532
6150.54685	0.00534
6148.61817	0.00534
6146.68950	0.00534
6144.76082	0.00535
6142.83214	0.00535
6140.90347	0.00536
6138.97479	0.00539
6137.04612	0.00541
6135.11744	0.00541
6133.18877	0.00541
6131.26009	0.00542
6129.33141	0.00542
6127.40274	0.00543
6125.47406	0.00544
6123.54539	0.00545
6121.61671	0.00546
6119.68804	0.00547
6117.75936	0.00549
6115.83068	0.00551
6113.90201	0.00551
6111.97333	0.00550
6110.04466	0.00551
6108.11598	0.00554
6106.18731	0.00558
6104.25863	0.00560
6102.32995	0.00560
6100.40128	0.00561
6098.47260	0.00561
6096.54393	0.00562
6094.61525	0.00563
6092.68658	0.00566
6090.75790	0.00568
6088.82922	0.00569
6086.90055	0.00569
6084.97187	0.00570
6083.04320	0.00571
6081.11452	0.00572
6079.18585	0.00573
6077.25717	0.00575
6075.32849	0.00577
6073.39982	0.00578
6071.47114	0.00576
6069.54247	0.00576
6067.61379	0.00578
6065.68512	0.00580
6063.75644	0.00581
6061.82776	0.00581
6059.89909	0.00581
6057.97041	0.00583
6056.04174	0.00585
6054.11306	0.00588
6052.18439	0.00590
6050.25571	0.00592
6048.32703	0.00593
6046.39836	0.00594
6044.46968	0.00594
6042.54101	0.00594
6040.61233	0.00595
6038.68366	0.00597
6036.75498	0.00600
6034.82630	0.00602
6032.89763	0.00604
6030.96895	0.00605
6029.04028	0.00605
6027.11160	0.00606
6025.18293	0.00607
6023.25425	0.00608
6021.32557	0.00608
6019.39690	0.00608
6017.46822	0.00610
6015.53955	0.00613
6013.61087	0.00613
6011.68220	0.00614
6009.75352	0.00616
6007.82484	0.00618
6005.89617	0.00619
6003.96749	0.00620
6002.03882	0.00620
6000.11014	0.00621
5998.18147	0.00622
5996.25279	0.00625
5994.32411	0.00628
5992.39544	0.00629
5990.46676	0.00630
5988.53809	0.00630
5986.60941	0.00631
5984.68074	0.00632
5982.75206	0.00634
5980.82338	0.00636
5978.89471	0.00638
5976.96603	0.00639
5975.03736	0.00640
5973.10868	0.00639
5971.18001	0.00640
5969.25133	0.00642
5967.32265	0.00645
5965.39398	0.00648
5963.46530	0.00650
5961.53663	0.00651
5959.60795	0.00651
5957.67928	0.00652
5955.75060	0.00653
5953.82192	0.00654
5951.89325	0.00654
5949.96457	0.00655
5948.03590	0.00657
5946.10722	0.00660
5944.17855	0.00662
5942.24987	0.00662
5940.32119	0.00664
5938.39252	0.00667
5936.46384	0.00669
5934.53517	0.00670
5932.60649	0.00671
5930.67782	0.00672
5928.74914	0.00673
5926.82046	0.00675
5924.89179	0.00675
5922.96311	0.00675
5921.03444	0.00677
5919.10576	0.00679
5917.17709	0.00681
5915.24841	0.00681
5913.31973	0.00682
5911.39106	0.00683
5909.46238	0.00685
5907.53371	0.00687
5905.60503	0.00688
5903.67636	0.00687
5901.74768	0.00688
5899.81900	0.00689
5897.89033	0.00690
5895.96165	0.00692
5894.03298	0.00695
5892.10430	0.00699
5890.17563	0.00702
5888.24695	0.00705
5886.31827	0.00705
5884.38960	0.00706
5882.46092	0.00707
5880.53225	0.00709
5878.60357	0.00710
5876.67490	0.00710
5874.74622	0.00710
5872.81755	0.00711
5870.88887	0.00714
5868.96019	0.00717
5867.03152	0.00719
5865.10284	0.00721
5863.17417	0.00721
5861.24549	0.00721
5859.31682	0.00721
5857.38814	0.00723
5855.45946	0.00726
5853.53079	0.00728
5851.60211	0.00730
5849.67344	0.00732
5847.74476	0.00734
5845.81609	0.00735
5843.88741	0.00737
5841.95873	0.00738
5840.03006	0.00740
5838.10138	0.00741
5836.17271	0.00743
5834.24403	0.00742
5832.31536	0.00742
5830.38668	0.00743
5828.45800	0.00747
5826.52933	0.00749
5824.60065	0.00749
5822.67198	0.00749
5820.74330	0.00751
5818.81463	0.00753
5816.88595	0.00755
5814.95727	0.00758
5813.02860	0.00759
5811.09992	0.00759
5809.17125	0.00760
5807.24257	0.00763
5805.31390	0.00766
5803.38522	0.00767
5801.45654	0.00767
5799.52787	0.00767
5797.59919	0.00770
5795.67052	0.00772
5793.74184	0.00775
5791.81317	0.00777
5789.88449	0.00780
5787.95581	0.00781
5786.02714	0.00781
5784.09846	0.00781
5782.16979	0.00783
5780.24111	0.00785
5778.31244	0.00785
5776.38376	0.00787
5774.45508	0.00790
5772.52641	0.00792
5770.59773	0.00792
5768.66906	0.00794
5766.74038	0.00796
5764.81171	0.00798
5762.88303	0.00800
5760.95435	0.00802
5759.02568	0.00804
5757.09700	0.00806
5755.16833	0.00808
5753.23965	0.00809
5751.31098	0.00810
5749.38230	0.00812
5747.45362	0.00813
5745.52495	0.00813
5743.59627	0.00815
5741.66760	0.00816
5739.73892	0.00818
5737.81025	0.00820
5735.88157	0.00822
5733.95289	0.00825
5732.02422	0.00826
5730.09554	0.00827
5728.16687	0.00829
5726.23819	0.00832
5724.30952	0.00833
5722.38084	0.00834
5720.45216	0.00835
5718.52349	0.00837
5716.59481	0.00840
5714.66614	0.00843
5712.73746	0.00845
5710.80879	0.00847
5708.88011	0.00848
5706.95143	0.00849
5705.02276	0.00849
5703.09408	0.00850
5701.16541	0.00853
5699.23673	0.00855
5697.30806	0.00856
5695.37938	0.00858
5693.45070	0.00861
5691.52203	0.00862
5689.59335	0.00862
5687.66468	0.00862
5685.73600	0.00863
5683.80733	0.00864
5681.87865	0.00866
5679.94997	0.00868
5678.02130	0.00872
5676.09262	0.00875
5674.16395	0.00878
5672.23527	0.00880
5670.30660	0.00881
5668.37792	0.00881
5666.44924	0.00882
5664.52057	0.00883
5662.59189	0.00884
5660.66322	0.00886
5658.73454	0.00888
5656.80587	0.00889
5654.87719	0.00890
5652.94851	0.00893
5651.01984	0.00896
5649.09116	0.00899
5647.16249	0.00900
5645.23381	0.00902
5643.30514	0.00904
5641.37646	0.00906
5639.44778	0.00907
5637.51911	0.00909
5635.59043	0.00912
5633.66176	0.00915
5631.73308	0.00918
5629.80441	0.00919
5627.87573	0.00919
5625.94705	0.00919
5624.01838	0.00922
5622.08970	0.00926
5620.16103	0.00929
5618.23235	0.00930
5616.30368	0.00930
5614.37500	0.00930
5612.44632	0.00931
5610.51765	0.00933
5608.58897	0.00938
5606.66030	0.00941
5604.73162	0.00941
5602.80295	0.00943
5600.87427	0.00945
5598.94559	0.00947
5597.01692	0.00948
5595.08824	0.00949
5593.15957	0.00951
5591.23089	0.00954
5589.30222	0.00956
5587.37354	0.00957
5585.44486	0.00958
5583.51619	0.00961
5581.58751	0.00964
5579.65884	0.00965
5577.73016	0.00966
5575.80149	0.00967
5573.87281	0.00968
5571.94413	0.00969
5570.01546	0.00971
5568.08678	0.00973
5566.15811	0.00975
5564.22943	0.00978
5562.30076	0.00982
5560.37208	0.00984
5558.44340	0.00984
5556.51473	0.00984
5554.58605	0.00987
5552.65738	0.00991
5550.72870	0.00994
5548.80003	0.00998
5546.87135	0.01000
5544.94267	0.00999
5543.01400	0.00999
5541.08532	0.01000
5539.15665	0.01003
5537.22797	0.01006
5535.29930	0.01007
5533.37062	0.01008
5531.44194	0.01009
5529.51327	0.01013
5527.58459	0.01017
5525.65592	0.01018
5523.72724	0.01017
5521.79857	0.01018
5519.86989	0.01020
5517.94121	0.01023
5516.01254	0.01027
5514.08386	0.01031
5512.15519	0.01035
5510.22651	0.01036
5508.29784	0.01037
5506.36916	0.01039
5504.44048	0.01041
5502.51181	0.01044
5500.58313	0.01045
5498.65446	0.01047
5496.72578	0.01049
5494.79711	0.01050
5492.86843	0.01049
5490.93975	0.01050
5489.01108	0.01052
5487.08240	0.01054
5485.15373	0.01056
5483.22505	0.01057
5481.29638	0.01059
5479.36770	0.01061
5477.43902	0.01064
5475.51035	0.01067
5473.58167	0.01071
5471.65300	0.01074
5469.72432	0.01076
5467.79565	0.01077
5465.86697	0.01077
5463.93829	0.01078
5462.00962	0.01078
5460.08094	0.01080
5458.15227	0.01082
5456.22359	0.01084
5454.29492	0.01087
5452.36624	0.01090
5450.43756	0.01093
5448.50889	0.01096
5446.58021	0.01099
5444.65154	0.01101
5442.72286	0.01102
5440.79419	0.01104
5438.86551	0.01106
5436.93683	0.01107
5435.00816	0.01108
5433.07948	0.01109
5431.15081	0.01110
5429.22213	0.01112
5427.29346	0.01115
5425.36478	0.01119
5423.43610	0.01124
5421.50743	0.01127
5419.57875	0.01130
5417.65008	0.01131
5415.72140	0.01130
5413.79273	0.01131
5411.86405	0.01133
5409.93537	0.01135
5408.00670	0.01136
5406.07802	0.01138
5404.14935	0.01141
5402.22067	0.01144
5400.29200	0.01145
5398.36332	0.01145
5396.43464	0.01147
5394.50597	0.01150
5392.57729	0.01154
5390.64862	0.01158
5388.71994	0.01161
5386.79127	0.01163
5384.86259	0.01166
5382.93391	0.01169
5381.00524	0.01171
5379.07656	0.01170
5377.14789	0.01169
5375.21921	0.01172
5373.29054	0.01177
5371.36186	0.01180
5369.43318	0.01182
5367.50451	0.01184
5365.57583	0.01186
5363.64716	0.01189
5361.71848	0.01190
5359.78981	0.01192
5357.86113	0.01195
5355.93245	0.01197
5354.00378	0.01197
5352.07510	0.01199
5350.14643	0.01202
5348.21775	0.01205
5346.28908	0.01206
5344.36040	0.01206
5342.43172	0.01209
5340.50305	0.01212
5338.57437	0.01215
5336.64570	0.01218
5334.71702	0.01221
5332.78835	0.01224
5330.85967	0.01226
5328.93099	0.01229
5327.00232	0.01232
5325.07364	0.01234
5323.14497	0.01235
5321.21629	0.01237
5319.28762	0.01240
5317.35894	0.01243
5315.43026	0.01245
5313.50159	0.01247
5311.57291	0.01249
5309.64424	0.01251
5307.71556	0.01253
5305.78689	0.01256
5303.85821	0.01258
5301.92953	0.01261
5300.00086	0.01264
5298.07218	0.01266
5296.14351	0.01268
5294.21483	0.01267
5292.28616	0.01267
5290.35748	0.01267
5288.42880	0.01271
5286.50013	0.01275
5284.57145	0.01279
5282.64278	0.01281
5280.71410	0.01282
5278.78543	0.01283
5276.85675	0.01284
5274.92807	0.01288
5272.99940	0.01292
5271.07072	0.01294
5269.14205	0.01293
5267.21337	0.01293
5265.28470	0.01295
5263.35602	0.01299
5261.42734	0.01305
5259.49867	0.01310
5257.56999	0.01312
5255.64132	0.01313
5253.71264	0.01316
5251.78397	0.01319
5249.85529	0.01320
5247.92661	0.01320
5245.99794	0.01322
5244.06926	0.01324
5242.14059	0.01326
5240.21191	0.01330
5238.28324	0.01334
5236.35456	0.01338
5234.42588	0.01341
5232.49721	0.01341
5230.56853	0.01340
5228.63986	0.01342
5226.71118	0.01347
5224.78251	0.01350
5222.85383	0.01351
5220.92515	0.01353
5218.99648	0.01355
5217.06780	0.01355
5215.13913	0.01357
5213.21045	0.01360
5211.28178	0.01362
5209.35310	0.01363
5207.42442	0.01364
5205.49575	0.01369
5203.56707	0.01375
5201.63840	0.01379
5199.70972	0.01382
5197.78105	0.01383
5195.85237	0.01384
5193.92369	0.01386
5191.99502	0.01388
5190.06634	0.01389
5188.13767	0.01391
5186.20899	0.01394
5184.28032	0.01399
5182.35164	0.01402
5180.42296	0.01403
5178.49429	0.01404
5176.56561	0.01407
5174.63694	0.01409
5172.70826	0.01412
5170.77959	0.01416
5168.85091	0.01421
5166.92223	0.01424
5164.99356	0.01424
5163.06488	0.01425
5161.13621	0.01429
5159.20753	0.01432
5157.27886	0.01435
5155.35018	0.01437
5153.42150	0.01442
5151.49283	0.01447
5149.56415	0.01449
5147.63548	0.01448
5145.70680	0.01448
5143.77813	0.01449
5141.84945	0.01453
5139.92077	0.01457
5137.99210	0.01459
5136.06342	0.01461
5134.13475	0.01462
5132.20607	0.01464
5130.27740	0.01466
5128.34872	0.01469
5126.42004	0.01472
5124.49137	0.01474
5122.56269	0.01476
5120.63402	0.01477
5118.70534	0.01480
5116.77667	0.01484
5114.84799	0.01487
5112.91931	0.01489
5110.99064	0.01492
5109.06196	0.01496
5107.13329	0.01498
5105.20461	0.01500
5103.27594	0.01503
5101.34726	0.01506
5099.41858	0.01510
5097.48991	0.01513
5095.56123	0.01514
5093.63256	0.01515
5091.70388	0.01516
5089.77521	0.01519
5087.84653	0.01523
5085.91785	0.01525
5083.98918	0.01526
5082.06050	0.01528
5080.13183	0.01531
5078.20315	0.01535
5076.27448	0.01539
5074.34580	0.01541
5072.41712	0.01542
5070.48845	0.01543
5068.55977	0.01544
5066.63110	0.01546
5064.70242	0.01551
5062.77375	0.01556
5060.84507	0.01560
5058.91639	0.01562
5056.98772	0.01563
5055.05904	0.01562
5053.13037	0.01563
5051.20169	0.01567
5049.27302	0.01569
5047.34434	0.01572
5045.41566	0.01576
5043.48699	0.01581
5041.55831	0.01584
5039.62964	0.01587
5037.70096	0.01588
5035.77229	0.01590
5033.84361	0.01592
5031.91493	0.01593
5029.98626	0.01596
5028.05758	0.01599
5026.12891	0.01601
5024.20023	0.01603
5022.27156	0.01605
5020.34288	0.01608
5018.41420	0.01613
5016.48553	0.01618
5014.55685	0.01621
5012.62818	0.01622
5010.69950	0.01623
5008.77083	0.01626
5006.84215	0.01629
5004.91347	0.01632
5002.98480	0.01635
5001.05612	0.01638
4999.12745	0.01641
4997.19877	0.01644
4995.27010	0.01648
4993.34142	0.01651
4991.41274	0.01653
4989.48407	0.01655
4987.55539	0.01657
4985.62672	0.01659
4983.69804	0.01661
4981.76937	0.01663
4979.84069	0.01665
4977.91201	0.01667
4975.98334	0.01670
4974.05466	0.01673
4972.12599	0.01674
4970.19731	0.01676
4968.26864	0.01679
4966.33996	0.01683
4964.41128	0.01686
4962.48261	0.01688
4960.55393	0.01691
4958.62526	0.01694
4956.69658	0.01696
4954.76791	0.01697
4952.83923	0.01698
4950.91055	0.01701
4948.98188	0.01704
4947.05320	0.01709
4945.12453	0.01714
4943.19585	0.01718
4941.26718	0.01721
4939.33850	0.01722
4937.40982	0.01724
4935.48115	0.01728
4933.55247	0.01731
4931.62380	0.01734
4929.69512	0.01736
4927.76645	0.01739
4925.83777	0.01742
4923.90909	0.01745
4921.98042	0.01748
4920.05174	0.01751
4918.12307	0.01754
4916.19439	0.01758
4914.26572	0.01761
4912.33704	0.01762
4910.40836	0.01763
4908.47969	0.01766
4906.55101	0.01769
4904.62234	0.01772
4902.69366	0.01775
4900.76499	0.01776
4898.83631	0.01779
4896.90763	0.01782
4894.97896	0.01786
4893.05028	0.01790
4891.12161	0.01795
4889.19293	0.01798
4887.26426	0.01800
4885.33558	0.01801
4883.40690	0.01802
4881.47823	0.01804
4879.54955	0.01809
4877.62088	0.01814
4875.69220	0.01817
4873.76353	0.01819
4871.83485	0.01822
4869.90617	0.01825
4867.97750	0.01826
4866.04882	0.01828
4864.12015	0.01832
4862.19147	0.01836
4860.26280	0.01838
4858.33412	0.01839
4856.40544	0.01842
4854.47677	0.01847
4852.54809	0.01850
4850.61942	0.01852
4848.69074	0.01854
4846.76207	0.01858
4844.83339	0.01861
4842.90471	0.01864
4840.97604	0.01865
4839.04736	0.01867
4837.11869	0.01871
4835.19001	0.01876
4833.26134	0.01880
4831.33266	0.01885
4829.40398	0.01888
4827.47531	0.01891
4825.54663	0.01893
4823.61796	0.01893
4821.68928	0.01894
4819.76061	0.01898
4817.83193	0.01903
4815.90325	0.01908
4813.97458	0.01912
4812.04590	0.01915
4810.11723	0.01919
4808.18855	0.01923
4806.25988	0.01926
4804.33120	0.01928
4802.40252	0.01930
4800.47385	0.01931
4798.54517	0.01934
4796.61650	0.01937
4794.68782	0.01940
4792.75915	0.01943
4790.83047	0.01946
4788.90179	0.01951
4786.97312	0.01955
4785.04444	0.01959
4783.11577	0.01962
4781.18709	0.01963
4779.25842	0.01965
4777.32974	0.01968
4775.40106	0.01970
4773.47239	0.01971
4771.54371	0.01975
4769.61504	0.01980
4767.68636	0.01986
4765.75769	0.01990
4763.82901	0.01991
4761.90033	0.01991
4759.97166	0.01994
4758.04298	0.01998
4756.11431	0.02001
4754.18563	0.02004
4752.25696	0.02009
4750.32828	0.02015
4748.39960	0.02020
4746.47093	0.02024
4744.54225	0.02026
4742.61358	0.02027
4740.68490	0.02027
4738.75623	0.02028
4736.82755	0.02030
4734.89887	0.02035
4732.97020	0.02041
4731.04152	0.02045
4729.11285	0.02047
4727.18417	0.02049
4725.25550	0.02053
4723.32682	0.02058
4721.39814	0.02062
4719.46947	0.02066
4717.54079	0.02069
4715.61212	0.02072
4713.68344	0.02075
4711.75477	0.02077
4709.82609	0.02077
4707.89741	0.02077
4705.96874	0.02081
4704.04006	0.02088
4702.11139	0.02093
4700.18271	0.02096
4698.25404	0.02097
4696.32536	0.02099
4694.39668	0.02101
4692.46801	0.02104
4690.53933	0.02108
4688.61066	0.02114
4686.68198	0.02120
4684.75331	0.02124
4682.82463	0.02126
4680.89595	0.02129
4678.96728	0.02132
4677.03860	0.02135
4675.10993	0.02139
4673.18125	0.02143
4671.25258	0.02148
4669.32390	0.02151
4667.39522	0.02153
4665.46655	0.02154
4663.53787	0.02158
4661.60920	0.02163
4659.68052	0.02166
4657.75185	0.02168
4655.82317	0.02171
4653.89449	0.02176
4651.96582	0.02180
4650.03714	0.02183
4648.10847	0.02188
4646.17979	0.02193
4644.25112	0.02196
4642.32244	0.02199
4640.39376	0.02202
4638.46509	0.02206
4636.53641	0.02209
4634.60774	0.02211
4632.67906	0.02215
4630.75039	0.02222
4628.82171	0.02227
4626.89303	0.02232
4624.96436	0.02234
4623.03568	0.02237
4621.10701	0.02240
4619.17833	0.02241
4617.24966	0.02243
4615.32098	0.02245
4613.39230	0.02250
4611.46363	0.02255
4609.53495	0.02260
4607.60628	0.02264
4605.67760	0.02267
4603.74893	0.02269
4601.82025	0.02272
4599.89157	0.02277
4597.96290	0.02282
4596.03422	0.02285
4594.10555	0.02289
4592.17687	0.02295
4590.24820	0.02300
4588.31952	0.02302
4586.39084	0.02303
4584.46217	0.02306
4582.53349	0.02311
4580.60482	0.02316
4578.67614	0.02320
4576.74747	0.02323
4574.81879	0.02325
4572.89011	0.02329
4570.96144	0.02336
4569.03276	0.02341
4567.10409	0.02346
4565.17541	0.02350
4563.24674	0.02353
4561.31806	0.02355
4559.38938	0.02358
4557.46071	0.02362
4555.53203	0.02366
4553.60336	0.02369
4551.67468	0.02374
4549.74601	0.02379
4547.81733	0.02382
4545.88865	0.02385
4543.95998	0.02389
4542.03130	0.02394
4540.10263	0.02398
4538.17395	0.02401
4536.24528	0.02405
4534.31660	0.02410
4532.38792	0.02415
4530.45925	0.02419
4528.53057	0.02421
4526.60190	0.02424
4524.67322	0.02427
4522.74455	0.02431
4520.81587	0.02435
4518.88719	0.02439
4516.95852	0.02442
4515.02984	0.02444
4513.10117	0.02447
4511.17249	0.02453
4509.24382	0.02462
4507.31514	0.02469
4505.38646	0.02472
4503.45779	0.02475
4501.52911	0.02479
4499.60044	0.02482
4497.67176	0.02484
4495.74309	0.02488
4493.81441	0.02494
4491.88573	0.02501
4489.95706	0.02506
4488.02838	0.02508
4486.09971	0.02508
4484.17103	0.02512
4482.24236	0.02517
4480.31368	0.02522
4478.38500	0.02527
4476.45633	0.02533
4474.52765	0.02537
4472.59898	0.02540
4470.67030	0.02543
4468.74163	0.02546
4466.81295	0.02549
4464.88427	0.02555
4462.95560	0.02560
4461.02692	0.02566
4459.09825	0.02572
4457.16957	0.02576
4455.24090	0.02580
4453.31222	0.02585
4451.38354	0.02592
4449.45487	0.02596
4447.52619	0.02600
4445.59752	0.02603
4443.66884	0.02606
4441.74017	0.02610
4439.81149	0.02614
4437.88281	0.02619
4435.95414	0.02623
4434.02546	0.02627
4432.09679	0.02631
4430.16811	0.02635
4428.23944	0.02638
4426.31076	0.02643
4424.38208	0.02648
4422.45341	0.02651
4420.52473	0.02653
4418.59606	0.02660
4416.66738	0.02667
4414.73871	0.02672
4412.81003	0.02676
4410.88135	0.02680
4408.95268	0.02686
4407.02400	0.02692
4405.09533	0.02697
4403.16665	0.02701
4401.23798	0.02704
4399.30930	0.02711
4397.38062	0.02717
4395.45195	0.02722
4393.52327	0.02727
4391.59460	0.02731
4389.66592	0.02733
4387.73725	0.02734
4385.80857	0.02739
4383.87989	0.02745
4381.95122	0.02750
4380.02254	0.02755
4378.09387	0.02760
4376.16519	0.02764
4374.23652	0.02768
4372.30784	0.02774
4370.37916	0.02781
4368.45049	0.02785
4366.52181	0.02789
4364.59314	0.02794
4362.66446	0.02800
4360.73579	0.02806
4358.80711	0.02812
4356.87843	0.02817
4354.94976	0.02821
4353.02108	0.02827
4351.09241	0.02832
4349.16373	0.02835
4347.23506	0.02839
4345.30638	0.02845
4343.37770	0.02852
4341.44903	0.02858
4339.52035	0.02863
4337.59168	0.02868
4335.66300	0.02873
4333.73433	0.02877
4331.80565	0.02883
4329.87697	0.02888
4327.94830	0.02891
4326.01962	0.02893
4324.09095	0.02897
4322.16227	0.02905
4320.23360	0.02915
4318.30492	0.02920
4316.37624	0.02922
4314.44757	0.02926
4312.51889	0.02932
4310.59022	0.02937
4308.66154	0.02942
4306.73287	0.02948
4304.80419	0.02955
4302.87551	0.02964
4300.94684	0.02970
4299.01816	0.02973
4297.08949	0.02977
4295.16081	0.02983
4293.23214	0.02990
4291.30346	0.02996
4289.37478	0.03001
4287.44611	0.03005
4285.51743	0.03010
4283.58876	0.03015
4281.66008	0.03021
4279.73141	0.03028
4277.80273	0.03034
4275.87405	0.03039
4273.94538	0.03044
4272.01670	0.03047
4270.08803	0.03051
4268.15935	0.03057
4266.23068	0.03064
4264.30200	0.03069
4262.37332	0.03073
4260.44465	0.03078
4258.51597	0.03083
4256.58730	0.03089
4254.65862	0.03095
4252.72995	0.03102
4250.80127	0.03108
4248.87259	0.03114
4246.94392	0.03120
4245.01524	0.03127
4243.08657	0.03133
4241.15789	0.03139
4239.22922	0.03145
4237.30054	0.03149
4235.37186	0.03154
4233.44319	0.03159
4231.51451	0.03163
4229.58584	0.03168
4227.65716	0.03175
4225.72849	0.03183
4223.79981	0.03189
4221.87113	0.03193
4219.94246	0.03198
4218.01378	0.03206
4216.08511	0.03214
4214.15643	0.03220
4212.22776	0.03225
4210.29908	0.03230
4208.37040	0.03236
4206.44173	0.03242
4204.51305	0.03249
4202.58438	0.03256
4200.65570	0.03262
4198.72703	0.03265
4196.79835	0.03269
4194.86968	0.03274
4192.94100	0.03280
4191.01232	0.03288
4189.08365	0.03295
4187.15497	0.03302
4185.22630	0.03307
4183.29762	0.03313
4181.36895	0.03320
4179.44027	0.03327
4177.51159	0.03333
4175.58292	0.03338
4173.65424	0.03342
4171.72557	0.03347
4169.79689	0.03353
4167.86822	0.03361
4165.93954	0.03369
4164.01086	0.03377
4162.08219	0.03384
4160.15351	0.03392
4158.22484	0.03397
4156.29616	0.03399
4154.36749	0.03404
4152.43881	0.03411
4150.51013	0.03417
4148.58146	0.03422
4146.65278	0.03429
4144.72411	0.03438
4142.79543	0.03447
4140.86676	0.03454
4138.93808	0.03458
4137.00940	0.03464
4135.08073	0.03471
4133.15205	0.03479
4131.22338	0.03485
4129.29470	0.03492
4127.36603	0.03500
4125.43735	0.03506
4123.50867	0.03511
4121.58000	0.03515
4119.65132	0.03521
4117.72265	0.03528
4115.79397	0.03532
4113.86530	0.03538
4111.93662	0.03545
4110.00794	0.03554
4108.07927	0.03561
4106.15059	0.03567
4104.22192	0.03574
4102.29324	0.03580
4100.36457	0.03588
4098.43589	0.03597
4096.50721	0.03604
4094.57854	0.03610
4092.64986	0.03614
4090.72119	0.03619
4088.79251	0.03625
4086.86384	0.03632
4084.93516	0.03641
4083.00648	0.03650
4081.07781	0.03656
4079.14913	0.03661
4077.22046	0.03666
4075.29178	0.03674
4073.36311	0.03683
4071.43443	0.03689
4069.50575	0.03696
4067.57708	0.03703
4065.64840	0.03710
4063.71973	0.03716
4061.79105	0.03721
4059.86238	0.03728
4057.93370	0.03738
4056.00502	0.03749
4054.07635	0.03758
4052.14767	0.03763
4050.21900	0.03768
4048.29032	0.03773
4046.36165	0.03780
4044.43297	0.03788
4042.50429	0.03796
4040.57562	0.03804
4038.64694	0.03811
4036.71827	0.03818
4034.78959	0.03827
4032.86092	0.03835
4030.93224	0.03841
4029.00356	0.03846
4027.07489	0.03854
4025.14621	0.03861
4023.21754	0.03867
4021.28886	0.03873
4019.36019	0.03881
4017.43151	0.03890
4015.50283	0.03898
4013.57416	0.03904
4011.64548	0.03908
4009.71681	0.03913
4007.78813	0.03919
4005.85946	0.03928
4003.93078	0.03940
4002.00210	0.03950
4000.07343	0.03958
3998.14475	0.03965
3996.21608	0.03970
3994.28740	0.03975
3992.35873	0.03985
3990.43005	0.03994
3988.50137	0.03999
3986.57270	0.04005
3984.64402	0.04012
3982.71535	0.04020
3980.78667	0.04027
3978.85800	0.04034
3976.92932	0.04042
3975.00064	0.04050
3973.07197	0.04057
3971.14329	0.04065
3969.21462	0.04075
3967.28594	0.04087
3965.35727	0.04095
3963.42859	0.04099
3961.49991	0.04103
3959.57124	0.04112
3957.64256	0.04122
3955.71389	0.04128
3953.78521	0.04132
3951.85654	0.04136
3949.92786	0.04144
3947.99918	0.04156
3946.07051	0.04166
3944.14183	0.04172
3942.21316	0.04179
3940.28448	0.04189
3938.35581	0.04198
3936.42713	0.04206
3934.49845	0.04211
3932.56978	0.04216
3930.64110	0.04223
3928.71243	0.04233
3926.78375	0.04241
3924.85508	0.04246
3922.92640	0.04254
3920.99772	0.04260
3919.06905	0.04265
3917.14037	0.04272
3915.21170	0.04285
3913.28302	0.04298
3911.35435	0.04310
3909.42567	0.04320
3907.49699	0.04320
3905.56832	0.04312
3903.63964	0.04309
3901.71097	0.04316
3899.78229	0.04330
3897.85362	0.04350
3895.92494	0.04369
3893.99626	0.04377
3892.06759	0.04379
3890.13891	0.04385
3888.21024	0.04389
3886.28156	0.04388
3884.35289	0.04397
3882.42421	0.04408
3880.49553	0.04418
3878.56686	0.04434
3876.63818	0.04447
3874.70951	0.04451
3872.78083	0.04452
3870.85216	0.04456
3868.92348	0.04465
3866.99480	0.04478
3865.06613	0.04487
3863.13745	0.04501
3861.20878	0.04517
3859.28010	0.04524
3857.35143	0.04514
3855.42275	0.04492
3853.49407	0.04489
3851.56540	0.04517
3849.63672	0.04553
3847.70805	0.04575
3845.77937	0.04583
3843.85070	0.04586
3841.92202	0.04587
3839.99334	0.04587
3838.06467	0.04592
3836.13599	0.04606
3834.20732	0.04624
3832.27864	0.04640
3830.34997	0.04653
3828.42129	0.04661
3826.49261	0.04665
3824.56394	0.04668
3822.63526	0.04666
3820.70659	0.04670
3818.77791	0.04683
3816.84924	0.04696
3814.92056	0.04715
3812.99188	0.04739
3811.06321	0.04752
3809.13453	0.04751
3807.20586	0.04749
3805.27718	0.04754
3803.34851	0.04756
3801.41983	0.04760
3799.49115	0.04775
3797.56248	0.04791
3795.63380	0.04804
3793.70513	0.04818
3791.77645	0.04831
3789.84778	0.04841
3787.91910	0.04851
3785.99042	0.04860
3784.06175	0.04867
3782.13307	0.04871
3780.20440	0.04873
3778.27572	0.04886
3776.34705	0.04905
3774.41837	0.04916
3772.48969	0.04918
3770.56102	0.04921
3768.63234	0.04929
3766.70367	0.04938
3764.77499	0.04948
3762.84632	0.04958
3760.91764	0.04963
3758.98896	0.04969
3757.06029	0.04979
3755.13161	0.04982
3753.20294	0.04973
3751.27426	0.04969
3749.34559	0.04981
3747.41691	0.04987
3745.48823	0.04981
3743.55956	0.04996
3741.63088	0.05030
3739.70221	0.05045
3737.77353	0.05037
3735.84486	0.05034
3733.91618	0.05049
3731.98750	0.05077
3730.05883	0.05099
3728.13015	0.05110
3726.20148	0.05114
3724.27280	0.05125
3722.34413	0.05139
3720.41545	0.05155
3718.48677	0.05170
3716.55810	0.05180
3714.62942	0.05178
3712.70075	0.05172
3710.77207	0.05176
3708.84340	0.05194
3706.91472	0.05216
3704.98604	0.05230
3703.05737	0.05233
3701.12869	0.05241
3699.20002	0.05258
3697.27134	0.05272
3695.34267	0.05278
3693.41399	0.05276
3691.48531	0.05271
3689.55664	0.05274
3687.62796	0.05290
3685.69929	0.05313
3683.77061	0.05328
3681.84194	0.05336
3679.91326	0.05338
3677.98458	0.05331
3676.05591	0.05327
3674.12723	0.05341
3672.19856	0.05358
3670.26988	0.05365
3668.34121	0.05381
3666.41253	0.05406
3664.48385	0.05424
3662.55518	0.05433
3660.62650	0.05438
3658.69783	0.05438
3656.76915	0.05439
3654.84048	0.05447
3652.91180	0.05447
3650.98312	0.05430
3649.05445	0.05416
3647.12577	0.05428
3645.19710	0.05459
3643.26842	0.05489
3641.33975	0.05509
3639.41107	0.05520
3637.48239	0.05528
3635.55372	0.05533
3633.62504	0.05534
3631.69637	0.05525
3629.76769	0.05517
3627.83902	0.05532
3625.91034	0.05561
3623.98166	0.05577
3622.05299	0.05574
3620.12431	0.05569
3618.19564	0.05573
3616.26696	0.05584
3614.33829	0.05592
3612.40961	0.05596
3610.48093	0.05599
3608.55226	0.05606
3606.62358	0.05625
3604.69491	0.05645
3602.76623	0.05654
3600.83756	0.05658
3598.90888	0.05663
3596.98020	0.05667
3595.05153	0.05676
3593.12285	0.05688
3591.19418	0.05693
3589.26550	0.05685
3587.33683	0.05686
3585.40815	0.05703
3583.47947	0.05723
3581.55080	0.05735
3579.62212	0.05744
3577.69345	0.05754
3575.76477	0.05760
3573.83610	0.05765
3571.90742	0.05768
3569.97874	0.05764
3568.05007	0.05760
3566.12139	0.05770
3564.19272	0.05790
3562.26404	0.05806
3560.33537	0.05817
3558.40669	0.05827
3556.47801	0.05835
3554.54934	0.05838
3552.62066	0.05840
3550.69199	0.05844
3548.76331	0.05848
3546.83464	0.05851
3544.90596	0.05858
3542.97728	0.05873
3541.04861	0.05888
3539.11993	0.05894
3537.19126	0.05894
3535.26258	0.05896
3533.33391	0.05900
3531.40523	0.05903
3529.47655	0.05904
3527.54788	0.05907
3525.61920	0.05913
3523.69053	0.05919
3521.76185	0.05925
3519.83318	0.05932
3517.90450	0.05939
3515.97582	0.05943
3514.04715	0.05946
3512.11847	0.05947
3510.18980	0.05950
3508.26112	0.05955
3506.33245	0.05958
3504.40377	0.05958
3502.47509	0.05960
3500.54642	0.05967
3498.61774	0.05974
3496.68907	0.05978
3494.76039	0.05978
3492.83172	0.05980
3490.90304	0.05982
3488.97436	0.05984
3487.04569	0.05987
3485.11701	0.05990
3483.18834	0.05994
3481.25966	0.05998
3479.33099	0.06006
3477.40231	0.06014
3475.47363	0.06023
3473.54496	0.06029
3471.61628	0.06035
3469.68761	0.06042
3467.75893	0.06050
3465.83026	0.06059
3463.90158	0.06069
3461.97290	0.06077
3460.04423	0.06087
3458.11555	0.06099
3456.18688	0.06112
3454.25820	0.06124
3452.32953	0.06135
3450.40085	0.06142
3448.47217	0.06147
3446.54350	0.06153
3444.61482	0.06163
3442.68615	0.06178
3440.75747	0.06193
3438.82880	0.06207
3436.90012	0.06219
3434.97144	0.06236
3433.04277	0.06258
3431.11409	0.06280
3429.18542	0.06301
3427.25674	0.06321
3425.32807	0.06340
3423.39939	0.06356
3421.47071	0.06370
3419.54204	0.06385
3417.61336	0.06404
3415.68469	0.06423
3413.75601	0.06441
3411.82734	0.06459
3409.89866	0.06473
3407.96998	0.06484
3406.04131	0.06495
3404.11263	0.06504
3402.18396	0.06515
3400.25528	0.06531
3398.32661	0.06547
3396.39793	0.06560
3394.46925	0.06572
3392.54058	0.06587
3390.61190	0.06601
3388.68323	0.06614
3386.75455	0.06625
3384.82588	0.06637
3382.89720	0.06651
3380.96852	0.06667
3379.03985	0.06683
3377.11117	0.06698
3375.18250	0.06710
3373.25382	0.06719
3371.32515	0.06727
3369.39647	0.06737
3367.46779	0.06750
3365.53912	0.06765
3363.61044	0.06778
3361.68177	0.06791
3359.75309	0.06805
3357.82442	0.06818
3355.89574	0.06830
3353.96706	0.06843
3352.03839	0.06854
3350.10971	0.06864
3348.18104	0.06874
3346.25236	0.06884
3344.32369	0.06894
3342.39501	0.06908
3340.46633	0.06924
3338.53766	0.06938
3336.60898	0.06948
3334.68031	0.06958
3332.75163	0.06969
3330.82296	0.06981
3328.89428	0.06993
3326.96560	0.07007
3325.03693	0.07018
3323.10825	0.07028
3321.17958	0.07039
3319.25090	0.07052
3317.32223	0.07064
3315.39355	0.07076
3313.46487	0.07090
3311.53620	0.07105
3309.60752	0.07118
3307.67885	0.07129
3305.75017	0.07142
3303.82150	0.07158
3301.89282	0.07173
3299.96414	0.07185
3298.03547	0.07194
3296.10679	0.07206
3294.17812	0.07221
3292.24944	0.07234
3290.32077	0.07247
3288.39209	0.07260
3286.46341	0.07270
3284.53474	0.07281
3282.60606	0.07294
3280.67739	0.07310
3278.74871	0.07325
3276.82004	0.07341
3274.89136	0.07357
3272.96268	0.07371
3271.03401	0.07382
3269.10533	0.07394
3267.17666	0.07408
3265.24798	0.07421
3263.31931	0.07433
3261.39063	0.07447
3259.46195	0.07464
3257.53328	0.07480
3255.60460	0.07493
3253.67593	0.07505
3251.74725	0.07519
3249.81858	0.07533
3247.88990	0.07545
3245.96122	0.07559
3244.03255	0.07572
3242.10387	0.07584
3240.17520	0.07597
3238.24652	0.07611
3236.31785	0.07623
3234.38917	0.07634
3232.46049	0.07647
3230.53182	0.07661
3228.60314	0.07676
3226.67447	0.07691
3224.74579	0.07704
3222.81712	0.07713
3220.88844	0.07724
3218.95976	0.07739
3217.03109	0.07754
3215.10241	0.07768
3213.17374	0.07781
3211.24506	0.07793
3209.31639	0.07808
3207.38771	0.07823
3205.45903	0.07837
3203.53036	0.07850
3201.60168	0.07865
3199.67301	0.07882
3197.74433	0.07898
3195.81566	0.07913
3193.88698	0.07926
3191.95830	0.07937
3190.02963	0.07949
3188.10095	0.07964
3186.17228	0.07980
3184.24360	0.07995
3182.31493	0.08006
3180.38625	0.08017
3178.45757	0.08031
3176.52890	0.08047
3174.60022	0.08062
3172.67155	0.08076
3170.74287	0.08093
3168.81420	0.08111
3166.88552	0.08123
3164.95684	0.08133
3163.02817	0.08146
3161.09949	0.08163
3159.17082	0.08179
3157.24214	0.08194
3155.31347	0.08209
3153.38479	0.08226
3151.45611	0.08239
3149.52744	0.08251
3147.59876	0.08265
3145.67009	0.08279
3143.74141	0.08293
3141.81274	0.08307
3139.88406	0.08318
3137.95538	0.08328
3136.02671	0.08339
3134.09803	0.08351
3132.16936	0.08366
3130.24068	0.08380
3128.31201	0.08393
3126.38333	0.08407
3124.45465	0.08420
3122.52598	0.08433
3120.59730	0.08449
3118.66863	0.08468
3116.73995	0.08484
3114.81128	0.08498
3112.88260	0.08511
3110.95392	0.08523
3109.02525	0.08535
3107.09657	0.08548
3105.16790	0.08562
3103.23922	0.08577
3101.31055	0.08592
3099.38187	0.08606
3097.45319	0.08621
3095.52452	0.08636
3093.59584	0.08652
3091.66717	0.08666
3089.73849	0.08676
3087.80982	0.08688
3085.88114	0.08702
3083.95246	0.08717
3082.02379	0.08730
3080.09511	0.08740
3078.16644	0.08754
3076.23776	0.08769
3074.30909	0.08782
3072.38041	0.08795
3070.45173	0.08811
3068.52306	0.08825
3066.59438	0.08839
3064.66571	0.08855
3062.73703	0.08871
3060.80836	0.08885
3058.87968	0.08899
3056.95100	0.08913
3055.02233	0.08926
3053.09365	0.08935
3051.16498	0.08945
3049.23630	0.08959
3047.30763	0.08976
3045.37895	0.08996
3043.45027	0.09014
3041.52160	0.09026
3039.59292	0.09037
3037.66425	0.09049
3035.73557	0.09062
3033.80690	0.09076
3031.87822	0.09091
3029.94954	0.09106
3028.02087	0.09121
3026.09219	0.09134
3024.16352	0.09146
3022.23484	0.09158
3020.30617	0.09169
3018.37749	0.09181
3016.44881	0.09194
3014.52014	0.09206
3012.59146	0.09220
3010.66279	0.09236
3008.73411	0.09252
3006.80544	0.09267
3004.87676	0.09281
3002.94808	0.09295
3001.01941	0.09308
2999.09073	0.09322
2997.16206	0.09335
2995.23338	0.09349
2993.30471	0.09363
2991.37603	0.09376
2989.44735	0.09387
2987.51868	0.09395
2985.59000	0.09400
2983.66133	0.09405
2981.73265	0.09412
2979.80398	0.09419
2977.87530	0.09428
2975.94662	0.09436
2974.01795	0.09440
2972.08927	0.09438
2970.16060	0.09434
2968.23192	0.09433
2966.30325	0.09433
2964.37457	0.09433
2962.44589	0.09439
2960.51722	0.09453
2958.58854	0.09472
2956.65987	0.09494
2954.73119	0.09513
2952.80252	0.09530
2950.87384	0.09545
2948.94516	0.09560
2947.01649	0.09574
2945.08781	0.09584
2943.15914	0.09593
2941.23046	0.09599
2939.30179	0.09600
2937.37311	0.09598
2935.44443	0.09593
2933.51576	0.09588
2931.58708	0.09583
2929.65841	0.09580
2927.72973	0.09576
2925.80106	0.09575
2923.87238	0.09578
2921.94370	0.09583
2920.01503	0.09588
2918.08635	0.09602
2916.15768	0.09632
2914.22900	0.09678
2912.30033	0.09727
2910.37165	0.09767
2908.44297	0.09800
2906.51430	0.09830
2904.58562	0.09855
2902.65695	0.09878
2900.72827	0.09901
2898.79960	0.09923
2896.87092	0.09941
2894.94224	0.09960
2893.01357	0.09980
2891.08489	0.09998
2889.15622	0.10015
2887.22754	0.10033
2885.29887	0.10050
2883.37019	0.10066
2881.44151	0.10083
2879.51284	0.10099
2877.58416	0.10115
2875.65549	0.10130
2873.72681	0.10140
2871.79814	0.10149
2869.86946	0.10160
2867.94078	0.10172
2866.01211	0.10184
2864.08343	0.10196
2862.15476	0.10204
2860.22608	0.10207
2858.29741	0.10209
2856.36873	0.10208
2854.44005	0.10204
2852.51138	0.10202
2850.58270	0.10212
2848.65403	0.10241
2846.72535	0.10287
2844.79668	0.10336
2842.86800	0.10379
2840.93932	0.10415
2839.01065	0.10443
2837.08197	0.10463
2835.15330	0.10478
2833.22462	0.10496
2831.29595	0.10516
2829.36727	0.10534
2827.43859	0.10548
2825.50992	0.10561
2823.58124	0.10579
2821.65257	0.10601
2819.72389	0.10620
2817.79522	0.10635
2815.86654	0.10647
2813.93786	0.10661
2812.00919	0.10678
2810.08051	0.10697
2808.15184	0.10713
2806.22316	0.10727
2804.29449	0.10742
2802.36581	0.10757
2800.43713	0.10770
2798.50846	0.10784
2796.57978	0.10802
2794.65111	0.10819
2792.72243	0.10833
2790.79376	0.10847
2788.86508	0.10866
2786.93640	0.10886
2785.00773	0.10903
2783.07905	0.10916
2781.15038	0.10927
2779.22170	0.10939
2777.29303	0.10953
2775.36435	0.10968
2773.43567	0.10981
2771.50700	0.10996
2769.57832	0.11015
2767.64965	0.11035
2765.72097	0.11050
2763.79230	0.11061
2761.86362	0.11074
2759.93494	0.11089
2758.00627	0.11105
2756.07759	0.11123
2754.14892	0.11140
2752.22024	0.11153
2750.29157	0.11163
2748.36289	0.11171
2746.43421	0.11183
2744.50554	0.11199
2742.57686	0.11216
2740.64819	0.11231
2738.71951	0.11246
2736.79084	0.11259
2734.86216	0.11271
2732.93348	0.11285
2731.00481	0.11303
2729.07613	0.11321
2727.14746	0.11337
2725.21878	0.11353
2723.29011	0.11368
2721.36143	0.11382
2719.43275	0.11396
2717.50408	0.11408
2715.57540	0.11420
2713.64673	0.11433
2711.71805	0.11450
2709.78938	0.11466
2707.86070	0.11479
2705.93202	0.11491
2704.00335	0.11505
2702.07467	0.11520
2700.14600	0.11537
2698.21732	0.11552
2696.28865	0.11565
2694.35997	0.11578
2692.43129	0.11593
2690.50262	0.11609
2688.57394	0.11623
2686.64527	0.11634
2684.71659	0.11647
2682.78792	0.11662
2680.85924	0.11679
2678.93056	0.11696
2677.00189	0.11707
2675.07321	0.11719
2673.14454	0.11736
2671.21586	0.11753
2669.28719	0.11768
2667.35851	0.11780
2665.42983	0.11793
2663.50116	0.11808
2661.57248	0.11822
2659.64381	0.11835
2657.71513	0.11848
2655.78646	0.11860
2653.85778	0.11873
2651.92910	0.11890
2650.00043	0.11909
2648.07175	0.11929
2646.14308	0.11946
2644.21440	0.11960
2642.28573	0.11972
2640.35705	0.11986
2638.42837	0.12003
2636.49970	0.12020
2634.57102	0.12035
2632.64235	0.12049
2630.71367	0.12064
2628.78500	0.12079
2626.85632	0.12095
2624.92764	0.12113
2622.99897	0.12130
2621.07029	0.12146
2619.14162	0.12161
2617.21294	0.12174
2615.28427	0.12187
2613.35559	0.12201
2611.42691	0.12220
2609.49824	0.12237
2607.56956	0.12252
2605.64089	0.12269
2603.71221	0.12285
2601.78354	0.12300
2599.85486	0.12314
2597.92618	0.12328
2595.99751	0.12341
2594.06883	0.12357
2592.14016	0.12374
2590.21148	0.12390
2588.28281	0.12407
2586.35413	0.12424
2584.42545	0.12438
2582.49678	0.12453
2580.56810	0.12469
2578.63943	0.12484
2576.71075	0.12497
2574.78208	0.12511
2572.85340	0.12530
2570.92472	0.12547
2568.99605	0.12559
2567.06737	0.12569
2565.13870	0.12581
2563.21002	0.12599
2561.28135	0.12620
2559.35267	0.12636
2557.42399	0.12647
2555.49532	0.12659
2553.56664	0.12675
2551.63797	0.12693
2549.70929	0.12709
2547.78062	0.12722
2545.85194	0.12737
2543.92326	0.12752
2541.99459	0.12766
2540.06591	0.12778
2538.13724	0.12791
2536.20856	0.12805
2534.27989	0.12822
2532.35121	0.12841
2530.42253	0.12859
2528.49386	0.12873
2526.56518	0.12886
2524.63651	0.12899
2522.70783	0.12916
2520.77916	0.12935
2518.85048	0.12951
2516.92181	0.12963
2514.99313	0.12976
2513.06445	0.12995
2511.13578	0.13016
2509.20710	0.13033
2507.27843	0.13045
2505.34975	0.13058
2503.42108	0.13077
2501.49240	0.13096
2499.56372	0.13111
2497.63505	0.13125
2495.70637	0.13143
2493.77770	0.13160
2491.84902	0.13175
2489.92035	0.13190
2487.99167	0.13206
2486.06299	0.13225
2484.13432	0.13243
2482.20564	0.13259
2480.27697	0.13273
2478.34829	0.13288
2476.41962	0.13304
2474.49094	0.13319
2472.56226	0.13337
2470.63359	0.13357
2468.70491	0.13372
2466.77624	0.13384
2464.84756	0.13399
2462.91889	0.13418
2460.99021	0.13438
2459.06153	0.13453
2457.13286	0.13468
2455.20418	0.13482
2453.27551	0.13497
2451.34683	0.13511
2449.41816	0.13526
2447.48948	0.13541
2445.56080	0.13559
2443.63213	0.13579
2441.70345	0.13597
2439.77478	0.13611
2437.84610	0.13626
2435.91743	0.13643
2433.98875	0.13660
2432.06007	0.13678
2430.13140	0.13695
2428.20272	0.13710
2426.27405	0.13723
2424.34537	0.13735
2422.41670	0.13750
2420.48802	0.13769
2418.55934	0.13788
2416.63067	0.13804
2414.70199	0.13819
2412.77332	0.13834
2410.84464	0.13849
2408.91597	0.13864
2406.98729	0.13879
2405.05861	0.13895
2403.12994	0.13912
2401.20126	0.13925
2399.27259	0.13938
2397.34391	0.13954
2395.41524	0.13973
2393.48656	0.13990
2391.55788	0.14004
2389.62921	0.14019
2387.70053	0.14034
2385.77186	0.14048
2383.84318	0.14059
2381.91451	0.14069
2379.98583	0.14080
2378.05715	0.14088
2376.12848	0.14089
2374.19980	0.14088
2372.27113	0.14093
2370.34245	0.14099
2368.41378	0.14104
2366.48510	0.14112
2364.55642	0.14123
2362.62775	0.14133
2360.69907	0.14143
2358.77040	0.14162
2356.84172	0.14188
2354.91305	0.14216
2352.98437	0.14248
2351.05569	0.14282
2349.12702	0.14306
2347.19834	0.14316
2345.26967	0.14318
2343.34099	0.14319
2341.41232	0.14324
2339.48364	0.14336
2337.55496	0.14353
2335.62629	0.14370
2333.69761	0.14388
2331.76894	0.14408
2329.84026	0.14431
2327.91159	0.14451
2325.98291	0.14470
2324.05423	0.14489
2322.12556	0.14509
2320.19688	0.14528
2318.26821	0.14549
2316.33953	0.14573
2314.41086	0.14597
2312.48218	0.14618
2310.55350	0.14639
2308.62483	0.14657
2306.69615	0.14672
2304.76748	0.14690
2302.83880	0.14709
2300.91013	0.14727
2298.98145	0.14740
2297.05277	0.14756
2295.12410	0.14777
2293.19542	0.14799
2291.26675	0.14818
2289.33807	0.14837
2287.40940	0.14855
2285.48072	0.14868
2283.55204	0.14878
2281.62337	0.14893
2279.69469	0.14915
2277.76602	0.14936
2275.83734	0.14950
2273.90867	0.14962
2271.97999	0.14976
2270.05131	0.14988
2268.12264	0.14999
2266.19396	0.15012
2264.26529	0.15032
2262.33661	0.15057
2260.40794	0.15079
2258.47926	0.15095
2256.55058	0.15106
2254.62191	0.15119
2252.69323	0.15133
2250.76456	0.15146
2248.83588	0.15158
2246.90721	0.15173
2244.97853	0.15190
2243.04985	0.15210
2241.12118	0.15230
2239.19250	0.15251
2237.26383	0.15266
2235.33515	0.15276
2233.40648	0.15290
2231.47780	0.15311
2229.54912	0.15330
2227.62045	0.15343
2225.69177	0.15356
2223.76310	0.15371
2221.83442	0.15389
2219.90575	0.15407
2217.97707	0.15424
2216.04839	0.15440
2214.11972	0.15454
2212.19104	0.15466
2210.26237	0.15478
2208.33369	0.15492
2206.40502	0.15508
2204.47634	0.15523
2202.54766	0.15536
2200.61899	0.15549
2198.69031	0.15563
2196.76164	0.15581
2194.83296	0.15603
2192.90429	0.15622
2190.97561	0.15633
2189.04693	0.15645
2187.11826	0.15662
2185.18958	0.15683
2183.26091	0.15701
2181.33223	0.15713
2179.40356	0.15723
2177.47488	0.15737
2175.54620	0.15754
2173.61753	0.15774
2171.68885	0.15794
2169.76018	0.15810
2167.83150	0.15823
2165.90283	0.15838
2163.97415	0.15854
2162.04547	0.15870
2160.11680	0.15888
2158.18812	0.15907
2156.25945	0.15923
2154.33077	0.15938
2152.40210	0.15954
2150.47342	0.15973
2148.54474	0.15992
2146.61607	0.16007
2144.68739	0.16020
2142.75872	0.16037
2140.83004	0.16056
2138.90137	0.16071
2136.97269	0.16084
2135.04401	0.16100
2133.11534	0.16117
2131.18666	0.16133
2129.25799	0.16149
2127.32931	0.16168
2125.40064	0.16187
2123.47196	0.16203
2121.54328	0.16216
2119.61461	0.16228
2117.68593	0.16242
2115.75726	0.16257
2113.82858	0.16272
2111.89991	0.16289
2109.97123	0.16308
2108.04255	0.16330
2106.11388	0.16349
2104.18520	0.16363
2102.25653	0.16376
2100.32785	0.16389
2098.39918	0.16403
2096.47050	0.16416
2094.54182	0.16429
2092.61315	0.16443
2090.68447	0.16458
2088.75580	0.16476
2086.82712	0.16496
2084.89845	0.16518
2082.96977	0.16538
2081.04109	0.16553
2079.11242	0.16567
2077.18374	0.16581
2075.25507	0.16596
2073.32639	0.16613
2071.39772	0.16631
2069.46904	0.16645
2067.54036	0.16655
2065.61169	0.16666
2063.68301	0.16682
2061.75434	0.16702
2059.82566	0.16724
2057.89699	0.16743
2055.96831	0.16758
2054.03963	0.16773
2052.11096	0.16792
2050.18228	0.16810
2048.25361	0.16823
2046.32493	0.16837
2044.39626	0.16854
2042.46758	0.16871
2040.53890	0.16887
2038.61023	0.16903
2036.68155	0.16923
2034.75288	0.16943
2032.82420	0.16958
2030.89553	0.16970
2028.96685	0.16986
2027.03817	0.17003
2025.10950	0.17020
2023.18082	0.17035
2021.25215	0.17049
2019.32347	0.17061
2017.39480	0.17074
2015.46612	0.17090
2013.53744	0.17108
2011.60877	0.17124
2009.68009	0.17143
2007.75142	0.17165
2005.82274	0.17185
2003.89407	0.17201
2001.96539	0.17215
2000.03671	0.17230
1998.10804	0.17243
1996.17936	0.17251
1994.25069	0.17258
1992.32201	0.17270
1990.39334	0.17288
1988.46466	0.17306
1986.53598	0.17323
1984.60731	0.17342
1982.67863	0.17362
1980.74996	0.17378
1978.82128	0.17390
1976.89261	0.17400
1974.96393	0.17414
1973.03525	0.17428
1971.10658	0.17437
1969.17790	0.17445
1967.24923	0.17461
1965.32055	0.17485
1963.39188	0.17506
1961.46320	0.17519
1959.53452	0.17528
1957.60585	0.17542
1955.67717	0.17558
1953.74850	0.17573
1951.81982	0.17585
1949.89115	0.17600
1947.96247	0.17616
1946.03379	0.17627
1944.10512	0.17634
1942.17644	0.17647
1940.24777	0.17670
1938.31909	0.17694
1936.39042	0.17713
1934.46174	0.17727
1932.53306	0.17740
1930.60439	0.17753
1928.67571	0.17767
1926.74704	0.17779
1924.81836	0.17787
1922.88969	0.17800
1920.96101	0.17817
1919.03233	0.17829
1917.10366	0.17849
1915.17498	0.17880
1913.24631	0.17906
1911.31763	0.17919
1909.38896	0.17928
1907.46028	0.17944
1905.53160	0.17965
1903.60293	0.17983
1901.67425	0.17995
1899.74558	0.18005
1897.81690	0.18013
1895.88823	0.18023
1893.95955	0.18040
1892.03087	0.18056
1890.10220	0.18063
1888.17352	0.18079
1886.24485	0.18108
1884.31617	0.18134
1882.38750	0.18151
1880.45882	0.18164
1878.53014	0.18178
1876.60147	0.18196
1874.67279	0.18212
1872.74412	0.18214
1870.81544	0.18201
1868.88677	0.18198
1866.95809	0.18223
1865.02941	0.18261
1863.10074	0.18290
1861.17206	0.18311
1859.24339	0.18327
1857.31471	0.18343
1855.38604	0.18363
1853.45736	0.18380
1851.52868	0.18390
1849.60001	0.18394
1847.67133	0.18390
1845.74266	0.18380
1843.81398	0.18395
1841.88531	0.18442
1839.95663	0.18485
1838.02795	0.18508
1836.09928	0.18527
1834.17060	0.18543
1832.24193	0.18543
1830.31325	0.18537
1828.38458	0.18546
1826.45590	0.18564
1824.52722	0.18586
1822.59855	0.18618
1820.66987	0.18644
1818.74120	0.18660
1816.81252	0.18678
1814.88385	0.18695
1812.95517	0.18701
1811.02649	0.18703
1809.09782	0.18716
1807.16914	0.18736
1805.24047	0.18746
1803.31179	0.18745
1801.38312	0.18748
1799.45444	0.18768
1797.52576	0.18791
1795.59709	0.18792
1793.66841	0.18776
1791.73974	0.18781
1789.81106	0.18823
1787.88239	0.18858
1785.95371	0.18864
1784.02503	0.18867
1782.09636	0.18879
1780.16768	0.18899
1778.23901	0.18921
1776.31033	0.18923
1774.38166	0.18901
1772.45298	0.18886
1770.52430	0.18899
1768.59563	0.18929
1766.66695	0.18962
1764.73828	0.18983
1762.80960	0.18982
1760.88093	0.18984
1758.95225	0.18999
1757.02357	0.19014
1755.09490	0.19020
1753.16622	0.18999
1751.23755	0.18968
1749.30887	0.18966
1747.38020	0.18988
1745.45152	0.19003
1743.52284	0.19003
1741.59417	0.18996
1739.66549	0.19002
1737.73682	0.19005
1735.80814	0.18973
1733.87947	0.18949
1731.95079	0.18985
1730.02211	0.19044
1728.09344	0.19090
1726.16476	0.19118
1724.23609	0.19132
1722.30741	0.19133
1720.37874	0.19104
1718.45006	0.19065
1716.52138	0.19071
1714.59271	0.19128
1712.66403	0.19189
1710.73536	0.19218
1708.80668	0.19214
1706.87801	0.19199
1704.94933	0.19193
1703.02065	0.19169
1701.09198	0.19127
1699.16330	0.19125
1697.23463	0.19155
1695.30595	0.19192
1693.37728	0.19244
1691.44860	0.19274
1689.51992	0.19270
1687.59125	0.19247
1685.66257	0.19205
1683.73390	0.19194
1681.80522	0.19238
1679.87655	0.19280
1677.94787	0.19279
1676.01919	0.19260
1674.09052	0.19256
1672.16184	0.19256
1670.23317	0.19252
1668.30449	0.19278
1666.37582	0.19321
1664.44714	0.19331
1662.51846	0.19330
1660.58979	0.19351
1658.66111	0.19367
1656.73244	0.19330
1654.80376	0.19248
1652.87509	0.19216
1650.94641	0.19262
1649.01773	0.19290
1647.08906	0.19288
1645.16038	0.19322
1643.23171	0.19373
1641.30303	0.19394
1639.37436	0.19376
1637.44568	0.19336
1635.51700	0.19326
1633.58833	0.19373
1631.65965	0.19420
1629.73098	0.19424
1627.80230	0.19407
1625.87363	0.19385
1623.94495	0.19353
1622.01627	0.19329
1620.08760	0.19325
1618.15892	0.19340
1616.23025	0.19395
1614.30157	0.19479
1612.37290	0.19537
1610.44422	0.19562
1608.51554	0.19582
1606.58687	0.19611
1604.65819	0.19636
1602.72952	0.19657
1600.80084	0.19680
1598.87217	0.19699
1596.94349	0.19712
1595.01481	0.19727
1593.08614	0.19749
1591.15746	0.19773
1589.22879	0.19789
1587.30011	0.19800
1585.37144	0.19813
1583.44276	0.19829
1581.51408	0.19844
1579.58541	0.19842
1577.65673	0.19822
1575.72806	0.19824
1573.79938	0.19859
1571.87071	0.19877
1569.94203	0.19872
1568.01335	0.19886
1566.08468	0.19918
1564.15600	0.19936
1562.22733	0.19906
1560.29865	0.19832
1558.36998	0.19813
1556.44130	0.19883
1554.51262	0.19964
1552.58395	0.20003
1550.65527	0.20016
1548.72660	0.20024
1546.79792	0.20018
1544.86925	0.19987
1542.94057	0.19948
1541.01189	0.19932
1539.08322	0.19968
1537.15454	0.20032
1535.22587	0.20059
1533.29719	0.20066
1531.36852	0.20097
1529.43984	0.20118
1527.51116	0.20105
1525.58249	0.20083
1523.65381	0.20048
1521.72514	0.20015
1519.79646	0.20025
1517.86779	0.20063
1515.93911	0.20101
1514.01043	0.20132
1512.08176	0.20137
1510.15308	0.20106
1508.22441	0.20064
1506.29573	0.20074
1504.36706	0.20149
1502.43838	0.20204
1500.50970	0.20197
1498.58103	0.20171
1496.65235	0.20168
1494.72368	0.20182
1492.79500	0.20176
1490.86633	0.20148
1488.93765	0.20136
1487.00897	0.20158
1485.08030	0.20188
1483.15162	0.20191
1481.22295	0.20170
1479.29427	0.20134
1477.36560	0.20079
1475.43692	0.20015
1473.50824	0.19968
1471.57957	0.19962
1469.65089	0.19974
1467.72222	0.19957
1465.79354	0.19921
1463.86487	0.19909
1461.93619	0.19897
1460.00751	0.19831
1458.07884	0.19744
1456.15016	0.19731
1454.22149	0.19791
1452.29281	0.19842
1450.36414	0.19850
1448.43546	0.19847
1446.50678	0.19862
1444.57811	0.19889
1442.64943	0.19912
1440.72076	0.19912
1438.79208	0.19878
1436.86341	0.19857
1434.93473	0.19893
1433.00605	0.19940
1431.07738	0.19957
1429.14870	0.19970
1427.22003	0.19986
1425.29135	0.19989
1423.36268	0.19983
1421.43400	0.19958
1419.50532	0.19928
1417.57665	0.19942
1415.64797	0.19988
1413.71930	0.20015
1411.79062	0.20021
1409.86195	0.20023
1407.93327	0.20018
1406.00459	0.20009
1404.07592	0.20005
1402.14724	0.20001
1400.21857	0.19982
1398.28989	0.19962
1396.36122	0.19953
1394.43254	0.19959
1392.50386	0.19971
1390.57519	0.19957
1388.64651	0.19911
1386.71784	0.19877
1384.78916	0.19877
1382.86049	0.19889
1380.93181	0.19899
1379.00313	0.19903
1377.07446	0.19894
1375.14578	0.19879
1373.21711	0.19879
1371.28843	0.19890
1369.35976	0.19892
1367.43108	0.19889
1365.50240	0.19884
1363.57373	0.19871
1361.64505	0.19866
1359.71638	0.19881
1357.78770	0.19900
1355.85903	0.19908
1353.93035	0.19912
1352.00167	0.19920
1350.07300	0.19930
1348.14432	0.19936
1346.21565	0.19945
1344.28697	0.19950
1342.35830	0.19940
1340.42962	0.19922
1338.50094	0.19917
1336.57227	0.19924
1334.64359	0.19930
1332.71492	0.19925
1330.78624	0.19913
1328.85757	0.19901
1326.92889	0.19889
1325.00021	0.19872
1323.07154	0.19848
1321.14286	0.19823
1319.21419	0.19804
1317.28551	0.19792
1315.35684	0.19783
1313.42816	0.19772
1311.49948	0.19756
1309.57081	0.19729
1307.64213	0.19702
1305.71346	0.19681
1303.78478	0.19663
1301.85611	0.19643
1299.92743	0.19625
1297.99875	0.19608
1296.07008	0.19587
1294.14140	0.19564
1292.21273	0.19543
1290.28405	0.19530
1288.35538	0.19516
1286.42670	0.19494
1284.49802	0.19472
1282.56935	0.19452
1280.64067	0.19429
1278.71200	0.19396
1276.78332	0.19355
1274.85465	0.19314
1272.92597	0.19269
1270.99729	0.19212
1269.06862	0.19135
1267.13994	0.19042
1265.21127	0.18955
1263.28259	0.18896
1261.35392	0.18872
1259.42524	0.18873
1257.49656	0.18889
1255.56789	0.18909
1253.63921	0.18920
1251.71054	0.18912
1249.78186	0.18890
1247.85319	0.18858
1245.92451	0.18821
1243.99583	0.18777
1242.06716	0.18730
1240.13848	0.18683
1238.20981	0.18634
1236.28113	0.18584
1234.35246	0.18531
1232.42378	0.18473
1230.49510	0.18415
1228.56643	0.18360
1226.63775	0.18307
1224.70908	0.18261
1222.78040	0.18220
1220.85173	0.18179
1218.92305	0.18129
1216.99437	0.18071
1215.06570	0.18011
1213.13702	0.17956
1211.20835	0.17903
1209.27967	0.17849
1207.35100	0.17791
1205.42232	0.17729
1203.49364	0.17671
1201.56497	0.17623
1199.63629	0.17572
1197.70762	0.17511
1195.77894	0.17444
1193.85027	0.17376
1191.92159	0.17314
1189.99291	0.17256
1188.06424	0.17185
1186.13556	0.17099
1184.20689	0.17011
1182.27821	0.16926
1180.34954	0.16845
1178.42086	0.16770
1176.49218	0.16697
1174.56351	0.16618
1172.63483	0.16536
1170.70616	0.16452
1168.77748	0.16368
1166.84881	0.16281
1164.92013	0.16192
1162.99145	0.16107
1161.06278	0.16025
1159.13410	0.15940
1157.20543	0.15854
1155.27675	0.15774
1153.34808	0.15700
1151.41940	0.15628
1149.49072	0.15554
1147.56205	0.15474
1145.63337	0.15389
1143.70470	0.15298
1141.77602	0.15203
1139.84735	0.15100
1137.91867	0.14992
1135.98999	0.14876
1134.06132	0.14744
1132.13264	0.14591
1130.20397	0.14415
1128.27529	0.14215
1126.34662	0.13997
1124.41794	0.13768
1122.48926	0.13532
1120.56059	0.13300
1118.63191	0.13080
1116.70324	0.12876
1114.77456	0.12697
1112.84589	0.12545
1110.91721	0.12420
1108.98853	0.12322
1107.05986	0.12252
1105.13118	0.12206
1103.20251	0.12188
1101.27383	0.12195
1099.34516	0.12227
1097.41648	0.12281
1095.48780	0.12354
1093.55913	0.12441
1091.63045	0.12535
1089.70178	0.12618
1087.77310	0.12687
1085.84443	0.12744
1083.91575	0.12795
1081.98707	0.12837
1080.05840	0.12867
1078.12972	0.12886
1076.20105	0.12903
1074.27237	0.12917
1072.34370	0.12924
1070.41502	0.12931
1068.48634	0.12945
1066.55767	0.12961
1064.62899	0.12980
1062.70032	0.13000
1060.77164	0.13021
1058.84297	0.13042
1056.91429	0.13064
1054.98561	0.13092
1053.05694	0.13126
1051.12826	0.13159
1049.19959	0.13186
1047.27091	0.13211
1045.34224	0.13248
1043.41356	0.13297
1041.48488	0.13347
1039.55621	0.13392
1037.62753	0.13433
1035.69886	0.13465
1033.77018	0.13496
1031.84151	0.13537
1029.91283	0.13579
1027.98415	0.13612
1026.05548	0.13640
1024.12680	0.13674
1022.19813	0.13713
1020.26945	0.13747
1018.34078	0.13782
1016.41210	0.13828
1014.48342	0.13881
1012.55475	0.13936
1010.62607	0.13994
1008.69740	0.14057
1006.76872	0.14119
1004.84005	0.14173
1002.91137	0.14219
1000.98269	0.14257
999.05402	0.14289
997.12534	0.14311
995.19667	0.14320
993.26799	0.14322
991.33932	0.14328
989.41064	0.14335
987.48196	0.14339
985.55329	0.14340
983.62461	0.14342
981.69594	0.14342
979.76726	0.14332
977.83859	0.14314
975.90991	0.14298
973.98123	0.14285
972.05256	0.14269
970.12388	0.14248
968.19521	0.14226
966.26653	0.14206
964.33786	0.14193
962.40918	0.14185
960.48050	0.14174
958.55183	0.14155
956.62315	0.14138
954.69448	0.14125
952.76580	0.14108
950.83713	0.14084
948.90845	0.14061
946.97977	0.14040
945.05110	0.14013
943.12242	0.13978
941.19375	0.13944
939.26507	0.13914
937.33640	0.13876
935.40772	0.13825
933.47904	0.13766
931.55037	0.13711
929.62169	0.13668
927.69302	0.13624
925.76434	0.13570
923.83567	0.13507
921.90699	0.13442
919.97831	0.13380
918.04964	0.13318
916.12096	0.13250
914.19229	0.13176
912.26361	0.13100
910.33494	0.13027
908.40626	0.12959
906.47758	0.12896
904.54891	0.12834
902.62023	0.12769
900.69156	0.12710
898.76288	0.12657
896.83421	0.12605
894.90553	0.12554
892.97685	0.12506
891.04818	0.12461
889.11950	0.12415
887.19083	0.12369
885.26215	0.12329
883.33348	0.12296
881.40480	0.12271
879.47612	0.12249
877.54745	0.12224
875.61877	0.12194
873.69010	0.12166
871.76142	0.12140
869.83275	0.12113
867.90407	0.12090
865.97539	0.12067
864.04672	0.12045
862.11804	0.12035
860.18937	0.12035
858.26069	0.12029
856.33202	0.12015
854.40334	0.11997
852.47466	0.11976
850.54599	0.11951
848.61731	0.11923
846.68864	0.11893
844.75996	0.11861
842.83129	0.11831
840.90261	0.11803
838.97394	0.11769
837.04526	0.11726
835.11658	0.11674
833.18791	0.11609
831.25923	0.11524
829.33056	0.11421
827.40188	0.11313
825.47321	0.11209
823.54453	0.11115
821.61585	0.11037
819.68718	0.10975
817.75850	0.10922
815.82983	0.10877
813.90115	0.10844
811.97248	0.10820
810.04380	0.10796
808.11512	0.10771
806.18645	0.10754
804.25777	0.10750
802.32910	0.10749
800.40042	0.10734
798.47175	0.10685
796.54307	0.10611
794.61439	0.10554
792.68572	0.10526
790.75704	0.10508
788.82837	0.10485
786.89969	0.10462
784.97102	0.10434
783.04234	0.10400
781.11366	0.10372
779.18499	0.10350
777.25631	0.10319
775.32764	0.10287
773.39896	0.10262
771.47029	0.10235
769.54161	0.10201
767.61293	0.10164
765.68426	0.10122
763.75558	0.10077
761.82691	0.10033
759.89823	0.09989
757.96956	0.09941
756.04088	0.09882
754.11220	0.09819
752.18353	0.09759
750.25485	0.09695
748.32618	0.09625
746.39750	0.09552
744.46883	0.09469
742.54015	0.09375
740.61147	0.09288
738.68280	0.09232
736.75412	0.09209
734.82545	0.09203
732.89677	0.09202
730.96810	0.09204
729.03942	0.09214
727.11074	0.09235
725.18207	0.09257
723.25339	0.09266
721.32472	0.09265
719.39604	0.09271
717.46737	0.09296
715.53869	0.09338
713.61001	0.09387
711.68134	0.09435
709.75266	0.09474
707.82399	0.09487
705.89531	0.09470
703.96664	0.09445
702.03796	0.09420
700.10928	0.09388
698.18061	0.09341
696.25193	0.09272
694.32326	0.09200
692.39458	0.09148
690.46591	0.09102
688.53723	0.09050
686.60855	0.09000
684.67988	0.08956
682.75120	0.08912
680.82253	0.08863
678.89385	0.08808
676.96518	0.08751
675.03650	0.08691
673.10782	0.08621
671.17915	0.08539
669.25047	0.08451
667.32180	0.08368
665.39312	0.08290
663.46445	0.08210
661.53577	0.08128
659.60709	0.08043
657.67842	0.07955
655.74974	0.07879
653.82107	0.07813
651.89239	0.07743
649.96372	0.07665
648.03504	0.07583
646.10636	0.07499
644.17769	0.07409
642.24901	0.07308
640.32034	0.07198
638.39166	0.07088
636.46299	0.06983
634.53431	0.06872
632.60563	0.06727
630.67696	0.06500
628.74828	0.06152
626.81961	0.05720
624.89093	0.05287
622.96226	0.04927
621.03358	0.04692
619.10490	0.04566
617.17623	0.04483
615.24755	0.04408
613.31888	0.04322
611.39020	0.04231
609.46153	0.04176
607.53285	0.04182
605.60417	0.04222
603.67550	0.04274
601.74682	0.04351
599.81815	0.04450
597.88947	0.04539
595.96080	0.04596
594.03212	0.04626
592.10344	0.04643
590.17477	0.04656
588.24609	0.04663
586.31742	0.04657
584.38874	0.04633
582.46007	0.04596
580.53139	0.04555
578.60271	0.04510
576.67404	0.04455
574.74536	0.04399
572.81669	0.04350
570.88801	0.04298
568.95934	0.04239
567.03066	0.04190
565.10198	0.04150
563.17331	0.04111
561.24463	0.04080
559.31596	0.04056
557.38728	0.04032
555.45861	0.04010
553.52993	0.03991
551.60125	0.03969
549.67258	0.03946
547.74390	0.03933
545.81523	0.03931
543.88655	0.03922
541.95788	0.03902
540.02920	0.03881
538.10052	0.03867
536.17185	0.03854
534.24317	0.03834
532.31450	0.03802
530.38582	0.03767
528.45715	0.03740
526.52847	0.03713
524.59979	0.03684
522.67112	0.03650
520.74244	0.03603
518.81377	0.03544
516.88509	0.03479
514.95642	0.03418
513.02774	0.03375
511.09906	0.03348
509.17039	0.03327
507.24171	0.03310
505.31304	0.03293
503.38436	0.03269
501.45569	0.03238
499.52701	0.03198
497.59833	0.03151
495.66966	0.03103
493.74098	0.03050
491.81231	0.02989
489.88363	0.02922
487.95496	0.02857
486.02628	0.02798
484.09760	0.02744
482.16893	0.02688
480.24025	0.02630
478.31158	0.02578
476.38290	0.02528
474.45423	0.02466
472.52555	0.02401
470.59687	0.02352
468.66820	0.02314
466.73952	0.02286
464.81085	0.02275
462.88217	0.02271
460.95350	0.02258
459.02482	0.02234
457.09614	0.02212
455.16747	0.02208
453.23879	0.02219
451.31012	0.02227
449.38144	0.02226
447.45277	0.02216
445.52409	0.02196
443.59541	0.02166
441.66674	0.02132
439.73806	0.02098
437.80939	0.02062
435.88071	0.02021
433.95204	0.01975
432.02336	0.01921
430.09468	0.01863
428.16601	0.01807
426.23733	0.01751
424.30866	0.01684
422.37998	0.01611
420.45131	0.01546
418.52263	0.01491
416.59395	0.01436
414.66528	0.01376
412.73660	0.01310
410.80793	0.01240
408.87925	0.01172
406.95058	0.01111
405.02190	0.01051
403.09322	0.00988
401.16455	0.00930
399.23587	0.00879
397.30720	0.00827
395.37852	0.00775
393.44985	0.00732
391.52117	0.00693
389.59249	0.00645
387.66382	0.00591
385.73514	0.00539
383.80647	0.00495
381.87779	0.00461
379.94912	0.00432
378.02044	0.00400
376.09176	0.00361
374.16309	0.00325
372.23441	0.00299
370.30574	0.00272
368.37706	0.00244
