7496.76250	0.00118
7494.83382	0.00119
7492.90514	0.00119
7490.97647	0.00117
7489.04779	0.00115
7487.11912	0.00114
7485.19044	0.00115
7483.26177	0.00117
7481.33309	0.00118
7479.40441	0.00119
7477.47574	0.00120
7475.54706	0.00119
7473.61839	0.00119
7471.68971	0.00120
7469.76104	0.00121
7467.83236	0.00122
7465.90368	0.00121
7463.97501	0.00120
7462.04633	0.00121
7460.11766	0.00123
7458.18898	0.00124
7456.26031	0.00124
7454.33163	0.00124
7452.40295	0.00124
7450.47428	0.00124
7448.54560	0.00124
7446.61693	0.00125
7444.68825	0.00126
7442.75958	0.00126
7440.83090	0.00127
7438.90222	0.00128
7436.97355	0.00128
7435.04487	0.00128
7433.11620	0.00127
7431.18752	0.00126
7429.25885	0.00126
7427.33017	0.00127
7425.40149	0.00128
7423.47282	0.00128
7421.54414	0.00128
7419.61547	0.00129
7417.68679	0.00128
7415.75812	0.00128
7413.82944	0.00129
7411.90076	0.00130
7409.97209	0.00132
7408.04341	0.00132
7406.11474	0.00132
7404.18606	0.00131
7402.25739	0.00130
7400.32871	0.00129
7398.40003	0.00129
7396.47136	0.00130
7394.54268	0.00132
7392.61401	0.00135
7390.68533	0.00137
7388.75666	0.00137
7386.82798	0.00136
7384.89930	0.00135
7382.97063	0.00136
7381.04195	0.00136
7379.11328	0.00137
7377.18460	0.00138
7375.25593	0.00139
7373.32725	0.00140
7371.39857	0.00139
7369.46990	0.00138
7367.54122	0.00137
7365.61255	0.00138
7363.68387	0.00139
7361.75520	0.00140
7359.82652	0.00140
7357.89784	0.00140
7355.96917	0.00140
7354.04049	0.00142
7352.11182	0.00142
7350.18314	0.00141
7348.25447	0.00141
7346.32579	0.00142
7344.39711	0.00142
7342.46844	0.00143
7340.53976	0.00144
7338.61109	0.00144
7336.68241	0.00145
7334.75374	0.00146
7332.82506	0.00146
7330.89638	0.00145
7328.96771	0.00145
7327.03903	0.00145
7325.11036	0.00145
7323.18168	0.00146
7321.25301	0.00147
7319.32433	0.00147
7317.39565	0.00148
7315.46698	0.00149
7313.53830	0.00150
7311.60963	0.00150
7309.68095	0.00149
7307.75228	0.00149
7305.82360	0.00150
7303.89492	0.00151
7301.96625	0.00151
7300.03757	0.00151
7298.10890	0.00150
7296.18022	0.00149
7294.25155	0.00149
7292.32287	0.00151
7290.39419	0.00151
7288.46552	0.00151
7286.53684	0.00152
7284.60817	0.00153
7282.67949	0.00154
7280.75082	0.00155
7278.82214	0.00156
7276.89346	0.00155
7274.96479	0.00154
7273.03611	0.00154
7271.10744	0.00154
7269.17876	0.00156
7267.25009	0.00157
7265.32141	0.00159
7263.39273	0.00159
7261.46406	0.00160
7259.53538	0.00160
7257.60671	0.00161
7255.67803	0.00161
7253.74936	0.00160
7251.82068	0.00157
7249.89200	0.00157
7247.96333	0.00158
7246.03465	0.00159
7244.10598	0.00160
7242.17730	0.00161
7240.24863	0.00162
7238.31995	0.00162
7236.39127	0.00162
7234.46260	0.00163
7232.53392	0.00162
7230.60525	0.00162
7228.67657	0.00162
7226.74790	0.00162
7224.81922	0.00162
7222.89054	0.00162
7220.96187	0.00164
7219.03319	0.00165
7217.10452	0.00166
7215.17584	0.00167
7213.24717	0.00167
7211.31849	0.00167
7209.38981	0.00168
7207.46114	0.00170
7205.53246	0.00172
7203.60379	0.00172
7201.67511	0.00171
7199.74644	0.00170
7197.81776	0.00169
7195.88908	0.00170
7193.96041	0.00171
7192.03173	0.00172
7190.10306	0.00172
7188.17438	0.00171
7186.24571	0.00172
7184.31703	0.00173
7182.38835	0.00174
7180.45968	0.00174
7178.53100	0.00175
7176.60233	0.00177
7174.67365	0.00177
7172.74498	0.00176
7170.81630	0.00176
7168.88762	0.00177
7166.95895	0.00178
7165.03027	0.00178
7163.10160	0.00177
7161.17292	0.00176
7159.24425	0.00176
7157.31557	0.00176
7155.38689	0.00177
7153.45822	0.00178
7151.52954	0.00179
7149.60087	0.00180
7147.67219	0.00180
7145.74352	0.00180
7143.81484	0.00181
7141.88616	0.00180
7139.95749	0.00180
7138.02881	0.00181
7136.10014	0.00181
7134.17146	0.00181
7132.24279	0.00182
7130.31411	0.00182
7128.38543	0.00183
7126.45676	0.00184
7124.52808	0.00185
7122.59941	0.00186
7120.67073	0.00186
7118.74206	0.00188
7116.81338	0.00190
7114.88470	0.00191
7112.95603	0.00190
7111.02735	0.00189
7109.09868	0.00189
7107.17000	0.00189
7105.24133	0.00190
7103.31265	0.00189
7101.38397	0.00189
7099.45530	0.00189
7097.52662	0.00190
7095.59795	0.00190
7093.66927	0.00190
7091.74060	0.00190
7089.81192	0.00190
7087.88324	0.00191
7085.95457	0.00192
7084.02589	0.00192
7082.09722	0.00193
7080.16854	0.00194
7078.23987	0.00195
7076.31119	0.00194
7074.38251	0.00194
7072.45384	0.00196
7070.52516	0.00197
7068.59649	0.00197
7066.66781	0.00197
7064.73914	0.00198
7062.81046	0.00198
7060.88178	0.00198
7058.95311	0.00200
7057.02443	0.00201
7055.09576	0.00201
7053.16708	0.00201
7051.23841	0.00201
7049.30973	0.00202
7047.38105	0.00203
7045.45238	0.00204
7043.52370	0.00204
7041.59503	0.00204
7039.66635	0.00203
7037.73768	0.00204
7035.80900	0.00206
7033.88032	0.00208
7031.95165	0.00208
7030.02297	0.00207
7028.09430	0.00206
7026.16562	0.00205
7024.23695	0.00205
7022.30827	0.00206
7020.37959	0.00208
7018.45092	0.00210
7016.52224	0.00210
7014.59357	0.00210
7012.66489	0.00209
7010.73622	0.00210
7008.80754	0.00210
7006.87886	0.00211
7004.95019	0.00212
7003.02151	0.00212
7001.09284	0.00212
6999.16416	0.00211
6997.23549	0.00211
6995.30681	0.00212
6993.37813	0.00214
6991.44946	0.00215
6989.52078	0.00215
6987.59211	0.00215
6985.66343	0.00216
6983.73476	0.00217
6981.80608	0.00219
6979.87740	0.00219
6977.94873	0.00217
6976.02005	0.00217
6974.09138	0.00218
6972.16270	0.00218
6970.23403	0.00218
6968.30535	0.00219
6966.37667	0.00220
6964.44800	0.00220
6962.51932	0.00218
6960.59065	0.00217
6958.66197	0.00218
6956.73330	0.00220
6954.80462	0.00222
6952.87594	0.00224
6950.94727	0.00224
6949.01859	0.00223
6947.08992	0.00222
6945.16124	0.00223
6943.23257	0.00225
6941.30389	0.00226
6939.37521	0.00227
6937.44654	0.00230
6935.51786	0.00231
6933.58919	0.00230
6931.66051	0.00229
6929.73184	0.00229
6927.80316	0.00230
6925.87448	0.00231
6923.94581	0.00230
6922.01713	0.00229
6920.08846	0.00231
6918.15978	0.00233
6916.23111	0.00235
6914.30243	0.00237
6912.37375	0.00237
6910.44508	0.00235
6908.51640	0.00234
6906.58773	0.00234
6904.65905	0.00236
6902.73038	0.00238
6900.80170	0.00239
6898.87302	0.00238
6896.94435	0.00238
6895.01567	0.00239
6893.08700	0.00241
6891.15832	0.00242
6889.22965	0.00241
6887.30097	0.00241
6885.37229	0.00241
6883.44362	0.00240
6881.51494	0.00240
6879.58627	0.00241
6877.65759	0.00243
6875.72892	0.00245
6873.80024	0.00246
6871.87156	0.00246
6869.94289	0.00246
6868.01421	0.00246
6866.08554	0.00246
6864.15686	0.00245
6862.22819	0.00246
6860.29951	0.00246
6858.37083	0.00247
6856.44216	0.00248
6854.51348	0.00250
6852.58481	0.00250
6850.65613	0.00249
6848.72746	0.00249
6846.79878	0.00250
6844.87010	0.00251
6842.94143	0.00252
6841.01275	0.00251
6839.08408	0.00252
6837.15540	0.00254
6835.22673	0.00257
6833.29805	0.00259
6831.36937	0.00259
6829.44070	0.00259
6827.51202	0.00258
6825.58335	0.00259
6823.65467	0.00259
6821.72600	0.00258
6819.79732	0.00259
6817.86864	0.00260
6815.93997	0.00262
6814.01129	0.00262
6812.08262	0.00261
6810.15394	0.00261
6808.22527	0.00262
6806.29659	0.00263
6804.36791	0.00264
6802.43924	0.00263
6800.51056	0.00264
6798.58189	0.00267
6796.65321	0.00269
6794.72454	0.00270
6792.79586	0.00269
6790.86718	0.00268
6788.93851	0.00267
6787.00983	0.00266
6785.08116	0.00267
6783.15248	0.00268
6781.22381	0.00268
6779.29513	0.00267
6777.36645	0.00267
6775.43778	0.00269
6773.50910	0.00270
6771.58043	0.00272
6769.65175	0.00274
6767.72308	0.00275
6765.79440	0.00275
6763.86572	0.00275
6761.93705	0.00274
6760.00837	0.00274
6758.07970	0.00274
6756.15102	0.00275
6754.22235	0.00276
6752.29367	0.00277
6750.36499	0.00277
6748.43632	0.00279
6746.50764	0.00282
6744.57897	0.00283
6742.65029	0.00282
6740.72162	0.00281
6738.79294	0.00282
6736.86426	0.00282
6734.93559	0.00280
6733.00691	0.00281
6731.07824	0.00282
6729.14956	0.00284
6727.22089	0.00285
6725.29221	0.00286
6723.36353	0.00287
6721.43486	0.00288
6719.50618	0.00289
6717.57751	0.00290
6715.64883	0.00290
6713.72016	0.00290
6711.79148	0.00291
6709.86280	0.00290
6707.93413	0.00290
6706.00545	0.00292
6704.07678	0.00293
6702.14810	0.00294
6700.21943	0.00295
6698.29075	0.00295
6696.36207	0.00295
6694.43340	0.00295
6692.50472	0.00295
6690.57605	0.00295
6688.64737	0.00297
6686.71870	0.00298
6684.79002	0.00298
6682.86134	0.00298
6680.93267	0.00299
6679.00399	0.00300
6677.07532	0.00301
6675.14664	0.00303
6673.21797	0.00304
6671.28929	0.00304
6669.36061	0.00305
6667.43194	0.00306
6665.50326	0.00305
6663.57459	0.00304
6661.64591	0.00304
6659.71724	0.00305
6657.78856	0.00305
6655.85988	0.00306
6653.93121	0.00308
6652.00253	0.00310
6650.07386	0.00310
6648.14518	0.00310
6646.21651	0.00312
6644.28783	0.00313
6642.35915	0.00313
6640.43048	0.00313
6638.50180	0.00313
6636.57313	0.00313
6634.64445	0.00313
6632.71578	0.00315
6630.78710	0.00316
6628.85842	0.00316
6626.92975	0.00318
6625.00107	0.00320
6623.07240	0.00320
6621.14372	0.00320
6619.21505	0.00320
6617.28637	0.00320
6615.35769	0.00320
6613.42902	0.00321
6611.50034	0.00323
6609.57167	0.00325
6607.64299	0.00327
6605.71432	0.00327
6603.78564	0.00326
6601.85696	0.00327
6599.92829	0.00329
6597.99961	0.00331
6596.07094	0.00330
6594.14226	0.00330
6592.21359	0.00331
6590.28491	0.00333
6588.35623	0.00333
6586.42756	0.00334
6584.49888	0.00334
6582.57021	0.00334
6580.64153	0.00335
6578.71286	0.00335
6576.78418	0.00335
6574.85550	0.00336
6572.92683	0.00337
6570.99815	0.00337
6569.06948	0.00338
6567.14080	0.00339
6565.21213	0.00339
6563.28345	0.00341
6561.35477	0.00343
6559.42610	0.00343
6557.49742	0.00342
6555.56875	0.00343
6553.64007	0.00343
6551.71140	0.00343
6549.78272	0.00343
6547.85404	0.00344
6545.92537	0.00346
6543.99669	0.00348
6542.06802	0.00349
6540.13934	0.00350
6538.21067	0.00352
6536.28199	0.00352
6534.35331	0.00352
6532.42464	0.00351
6530.49596	0.00351
6528.56729	0.00354
6526.63861	0.00357
6524.70994	0.00360
6522.78126	0.00361
6520.85258	0.00360
6518.92391	0.00359
6516.99523	0.00359
6515.06656	0.00361
6513.13788	0.00361
6511.20921	0.00362
6509.28053	0.00362
6507.35185	0.00362
6505.42318	0.00362
6503.49450	0.00364
6501.56583	0.00366
6499.63715	0.00368
6497.70848	0.00368
6495.77980	0.00369
6493.85112	0.00368
6491.92245	0.00367
6489.99377	0.00367
6488.06510	0.00369
6486.13642	0.00369
6484.20775	0.00369
6482.27907	0.00369
6480.35039	0.00370
6478.42172	0.00373
6476.49304	0.00373
6474.56437	0.00371
6472.63569	0.00372
6470.70702	0.00373
6468.77834	0.00375
6466.84966	0.00377
6464.92099	0.00378
6462.99231	0.00378
6461.06364	0.00379
6459.13496	0.00382
6457.20629	0.00384
6455.27761	0.00383
6453.34893	0.00383
6451.42026	0.00384
6449.49158	0.00385
6447.56291	0.00384
6445.63423	0.00384
6443.70556	0.00385
6441.77688	0.00386
6439.84820	0.00388
6437.91953	0.00389
6435.99085	0.00390
6434.06218	0.00390
6432.13350	0.00390
6430.20483	0.00391
6428.27615	0.00393
6426.34747	0.00394
6424.41880	0.00396
6422.49012	0.00398
6420.56145	0.00398
6418.63277	0.00398
6416.70410	0.00399
6414.77542	0.00400
6412.84674	0.00401
6410.91807	0.00402
6408.98939	0.00402
6407.06072	0.00401
6405.13204	0.00402
6403.20337	0.00404
6401.27469	0.00407
6399.34601	0.00409
6397.41734	0.00408
6395.48866	0.00407
6393.55999	0.00408
6391.63131	0.00409
6389.70264	0.00410
6387.77396	0.00412
6385.84528	0.00413
6383.91661	0.00414
6381.98793	0.00416
6380.05926	0.00417
6378.13058	0.00416
6376.20191	0.00416
6374.27323	0.00418
6372.34455	0.00420
6370.41588	0.00420
6368.48720	0.00420
6366.55853	0.00421
6364.62985	0.00422
6362.70118	0.00422
6360.77250	0.00422
6358.84382	0.00423
6356.91515	0.00424
6354.98647	0.00425
6353.05780	0.00425
6351.12912	0.00427
6349.20045	0.00429
6347.27177	0.00430
6345.34309	0.00430
6343.41442	0.00431
6341.48574	0.00433
6339.55707	0.00434
6337.62839	0.00433
6335.69972	0.00433
6333.77104	0.00434
6331.84236	0.00437
6329.91369	0.00438
6327.98501	0.00438
6326.05634	0.00439
6324.12766	0.00441
6322.19899	0.00443
6320.27031	0.00444
6318.34163	0.00446
6316.41296	0.00447
6314.48428	0.00447
6312.55561	0.00448
6310.62693	0.00449
6308.69826	0.00449
6306.76958	0.00449
6304.84090	0.00449
6302.91223	0.00450
6300.98355	0.00452
6299.05488	0.00453
6297.12620	0.00453
6295.19753	0.00453
6293.26885	0.00452
6291.34017	0.00452
6289.41150	0.00453
6287.48282	0.00455
6285.55415	0.00458
6283.62547	0.00460
6281.69680	0.00461
6279.76812	0.00461
6277.83944	0.00460
6275.91077	0.00460
6273.98209	0.00461
6272.05342	0.00463
6270.12474	0.00465
6268.19607	0.00467
6266.26739	0.00468
6264.33871	0.00469
6262.41004	0.00471
6260.48136	0.00471
6258.55269	0.00471
6256.62401	0.00471
6254.69534	0.00474
6252.76666	0.00477
6250.83798	0.00478
6248.90931	0.00479
6246.98063	0.00479
6245.05196	0.00479
6243.12328	0.00479
6241.19461	0.00480
6239.26593	0.00482
6237.33725	0.00484
6235.40858	0.00485
6233.47990	0.00484
6231.55123	0.00483
6229.62255	0.00484
6227.69388	0.00485
6225.76520	0.00487
6223.83652	0.00489
6221.90785	0.00490
6219.97917	0.00492
6218.05050	0.00493
6216.12182	0.00495
6214.19315	0.00495
6212.26447	0.00495
6210.33579	0.00495
6208.40712	0.00496
6206.47844	0.00498
6204.54977	0.00499
6202.62109	0.00499
6200.69242	0.00501
6198.76374	0.00503
6196.83506	0.00503
6194.90639	0.00503
6192.97771	0.00503
6191.04904	0.00505
6189.12036	0.00508
6187.19169	0.00512
6185.26301	0.00513
6183.33433	0.00514
6181.40566	0.00514
6179.47698	0.00512
6177.54831	0.00511
6175.61963	0.00512
6173.69096	0.00515
6171.76228	0.00518
6169.83360	0.00519
6167.90493	0.00520
6165.97625	0.00522
6164.04758	0.00523
6162.11890	0.00524
6160.19023	0.00525
6158.26155	0.00527
6156.33287	0.00529
6154.40420	0.00532
6152.47552	0.00531
6150.54685	0.00530
6148.61817	0.00530
6146.68950	0.00531
6144.76082	0.00532
6142.83214	0.00533
6140.90347	0.00535
6138.97479	0.00538
6137.04612	0.00540
6135.11744	0.00541
6133.18877	0.00540
6131.26009	0.00539
6129.33141	0.00540
6127.40274	0.00543
6125.47406	0.00545
6123.54539	0.00546
6121.61671	0.00546
6119.68804	0.00546
6117.75936	0.00548
6115.83068	0.00550
6113.90201	0.00552
6111.97333	0.00554
6110.04466	0.00554
6108.11598	0.00554
6106.18731	0.00555
6104.25863	0.00557
6102.32995	0.00558
6100.40128	0.00559
6098.47260	0.00560
6096.54393	0.00562
6094.61525	0.00563
6092.68658	0.00564
6090.75790	0.00566
6088.82922	0.00568
6086.90055	0.00569
6084.97187	0.00568
6083.04320	0.00567
6081.11452	0.00568
6079.18585	0.00571
6077.25717	0.00573
6075.32849	0.00574
6073.39982	0.00574
6071.47114	0.00575
6069.54247	0.00576
6067.61379	0.00577
6065.68512	0.00579
6063.75644	0.00581
6061.82776	0.00583
6059.89909	0.00585
6057.97041	0.00586
6056.04174	0.00586
6054.11306	0.00588
6052.18439	0.00588
6050.25571	0.00589
6048.32703	0.00590
6046.39836	0.00592
6044.46968	0.00593
6042.54101	0.00594
6040.61233	0.00596
6038.68366	0.00597
6036.75498	0.00599
6034.82630	0.00601
6032.89763	0.00602
6030.96895	0.00602
6029.04028	0.00602
6027.11160	0.00603
6025.18293	0.00606
6023.25425	0.00608
6021.32557	0.00609
6019.39690	0.00611
6017.46822	0.00613
6015.53955	0.00614
6013.61087	0.00614
6011.68220	0.00615
6009.75352	0.00616
6007.82484	0.00616
6005.89617	0.00616
6003.96749	0.00618
6002.03882	0.00619
6000.11014	0.00621
5998.18147	0.00624
5996.25279	0.00626
5994.32411	0.00626
5992.39544	0.00626
5990.46676	0.00628
5988.53809	0.00632
5986.60941	0.00633
5984.68074	0.00633
5982.75206	0.00635
5980.82338	0.00639
5978.89471	0.00642
5976.96603	0.00643
5975.03736	0.00642
5973.10868	0.00642
5971.18001	0.00643
5969.25133	0.00645
5967.32265	0.00646
5965.39398	0.00648
5963.46530	0.00650
5961.53663	0.00651
5959.60795	0.00651
5957.67928	0.00651
5955.75060	0.00651
5953.82192	0.00653
5951.89325	0.00657
5949.96457	0.00661
5948.03590	0.00662
5946.10722	0.00662
5944.17855	0.00662
5942.24987	0.00662
5940.32119	0.00663
5938.39252	0.00665
5936.46384	0.00667
5934.53517	0.00668
5932.60649	0.00669
5930.67782	0.00669
5928.74914	0.00669
5926.82046	0.00671
5924.89179	0.00675
5922.96311	0.00678
5921.03444	0.00679
5919.10576	0.00680
5917.17709	0.00681
5915.24841	0.00682
5913.31973	0.00683
5911.39106	0.00685
5909.46238	0.00687
5907.53371	0.00690
5905.60503	0.00693
5903.67636	0.00694
5901.74768	0.00693
5899.81900	0.00693
5897.89033	0.00694
5895.96165	0.00695
5894.03298	0.00696
5892.10430	0.00698
5890.17563	0.00701
5888.24695	0.00702
5886.31827	0.00702
5884.38960	0.00703
5882.46092	0.00705
5880.53225	0.00707
5878.60357	0.00708
5876.67490	0.00710
5874.74622	0.00712
5872.81755	0.00713
5870.88887	0.00713
5868.96019	0.00714
5867.03152	0.00715
5865.10284	0.00718
5863.17417	0.00719
5861.24549	0.00719
5859.31682	0.00721
5857.38814	0.00726
5855.45946	0.00730
5853.53079	0.00731
5851.60211	0.00731
5849.67344	0.00731
5847.74476	0.00732
5845.81609	0.00734
5843.88741	0.00737
5841.95873	0.00739
5840.03006	0.00739
5838.10138	0.00740
5836.17271	0.00743
5834.24403	0.00744
5832.31536	0.00745
5830.38668	0.00746
5828.45800	0.00747
5826.52933	0.00748
5824.60065	0.00749
5822.67198	0.00750
5820.74330	0.00752
5818.81463	0.00754
5816.88595	0.00757
5814.95727	0.00759
5813.02860	0.00761
5811.09992	0.00762
5809.17125	0.00764
5807.24257	0.00765
5805.31390	0.00765
5803.38522	0.00766
5801.45654	0.00768
5799.52787	0.00772
5797.59919	0.00776
5795.67052	0.00778
5793.74184	0.00777
5791.81317	0.00777
5789.88449	0.00778
5787.95581	0.00779
5786.02714	0.00781
5784.09846	0.00784
5782.16979	0.00788
5780.24111	0.00791
5778.31244	0.00792
5776.38376	0.00792
5774.45508	0.00794
5772.52641	0.00796
5770.59773	0.00798
5768.66906	0.00799
5766.74038	0.00800
5764.81171	0.00800
5762.88303	0.00801
5760.95435	0.00801
5759.02568	0.00801
5757.09700	0.00804
5755.16833	0.00808
5753.23965	0.00811
5751.31098	0.00813
5749.38230	0.00814
5747.45362	0.00815
5745.52495	0.00815
5743.59627	0.00814
5741.66760	0.00815
5739.73892	0.00817
5737.81025	0.00821
5735.88157	0.00825
5733.95289	0.00825
5732.02422	0.00825
5730.09554	0.00826
5728.16687	0.00830
5726.23819	0.00834
5724.30952	0.00836
5722.38084	0.00836
5720.45216	0.00837
5718.52349	0.00839
5716.59481	0.00840
5714.66614	0.00841
5712.73746	0.00841
5710.80879	0.00841
5708.88011	0.00843
5706.95143	0.00847
5705.02276	0.00851
5703.09408	0.00852
5701.16541	0.00854
5699.23673	0.00855
5697.30806	0.00856
5695.37938	0.00857
5693.45070	0.00859
5691.52203	0.00863
5689.59335	0.00867
5687.66468	0.00869
5685.73600	0.00870
5683.80733	0.00872
5681.87865	0.00874
5679.94997	0.00875
5678.02130	0.00878
5676.09262	0.00882
5674.16395	0.00883
5672.23527	0.00883
5670.30660	0.00883
5668.37792	0.00884
5666.44924	0.00885
5664.52057	0.00887
5662.59189	0.00889
5660.66322	0.00891
5658.73454	0.00894
5656.80587	0.00897
5654.87719	0.00899
5652.94851	0.00900
5651.01984	0.00901
5649.09116	0.00903
5647.16249	0.00905
5645.23381	0.00905
5643.30514	0.00904
5641.37646	0.00905
5639.44778	0.00908
5637.51911	0.00909
5635.59043	0.00910
5633.66176	0.00915
5631.73308	0.00920
5629.80441	0.00923
5627.87573	0.00923
5625.94705	0.00923
5624.01838	0.00924
5622.08970	0.00927
5620.16103	0.00930
5618.23235	0.00933
5616.30368	0.00934
5614.37500	0.00934
5612.44632	0.00934
5610.51765	0.00935
5608.58897	0.00935
5606.66030	0.00937
5604.73162	0.00939
5602.80295	0.00942
5600.87427	0.00946
5598.94559	0.00949
5597.01692	0.00952
5595.08824	0.00953
5593.15957	0.00954
5591.23089	0.00956
5589.30222	0.00958
5587.37354	0.00959
5585.44486	0.00960
5583.51619	0.00962
5581.58751	0.00964
5579.65884	0.00966
5577.73016	0.00968
5575.80149	0.00968
5573.87281	0.00970
5571.94413	0.00973
5570.01546	0.00976
5568.08678	0.00978
5566.15811	0.00978
5564.22943	0.00979
5562.30076	0.00982
5560.37208	0.00985
5558.44340	0.00989
5556.51473	0.00991
5554.58605	0.00994
5552.65738	0.00995
5550.72870	0.00995
5548.80003	0.00995
5546.87135	0.00998
5544.94267	0.01002
5543.01400	0.01004
5541.08532	0.01004
5539.15665	0.01006
5537.22797	0.01010
5535.29930	0.01014
5533.37062	0.01016
5531.44194	0.01015
5529.51327	0.01015
5527.58459	0.01016
5525.65592	0.01017
5523.72724	0.01020
5521.79857	0.01021
5519.86989	0.01023
5517.94121	0.01026
5516.01254	0.01030
5514.08386	0.01033
5512.15519	0.01035
5510.22651	0.01037
5508.29784	0.01037
5506.36916	0.01038
5504.44048	0.01041
5502.51181	0.01043
5500.58313	0.01043
5498.65446	0.01045
5496.72578	0.01050
5494.79711	0.01053
5492.86843	0.01054
5490.93975	0.01056
5489.01108	0.01057
5487.08240	0.01058
5485.15373	0.01060
5483.22505	0.01063
5481.29638	0.01066
5479.36770	0.01068
5477.43902	0.01070
5475.51035	0.01071
5473.58167	0.01072
5471.65300	0.01074
5469.72432	0.01075
5467.79565	0.01077
5465.86697	0.01081
5463.93829	0.01083
5462.00962	0.01084
5460.08094	0.01086
5458.15227	0.01088
5456.22359	0.01090
5454.29492	0.01092
5452.36624	0.01095
5450.43756	0.01097
5448.50889	0.01099
5446.58021	0.01101
5444.65154	0.01104
5442.72286	0.01107
5440.79419	0.01108
5438.86551	0.01110
5436.93683	0.01112
5435.00816	0.01115
5433.07948	0.01116
5431.15081	0.01116
5429.22213	0.01115
5427.29346	0.01118
5425.36478	0.01124
5423.43610	0.01128
5421.50743	0.01131
5419.57875	0.01131
5417.65008	0.01132
5415.72140	0.01134
5413.79273	0.01137
5411.86405	0.01141
5409.93537	0.01141
5408.00670	0.01141
5406.07802	0.01142
5404.14935	0.01148
5402.22067	0.01153
5400.29200	0.01154
5398.36332	0.01154
5396.43464	0.01156
5394.50597	0.01159
5392.57729	0.01161
5390.64862	0.01163
5388.71994	0.01166
5386.79127	0.01168
5384.86259	0.01171
5382.93391	0.01174
5381.00524	0.01175
5379.07656	0.01175
5377.14789	0.01175
5375.21921	0.01177
5373.29054	0.01180
5371.36186	0.01183
5369.43318	0.01185
5367.50451	0.01187
5365.57583	0.01190
5363.64716	0.01192
5361.71848	0.01194
5359.78981	0.01196
5357.86113	0.01197
5355.93245	0.01199
5354.00378	0.01203
5352.07510	0.01206
5350.14643	0.01208
5348.21775	0.01209
5346.28908	0.01209
5344.36040	0.01212
5342.43172	0.01216
5340.50305	0.01219
5338.57437	0.01219
5336.64570	0.01221
5334.71702	0.01225
5332.78835	0.01228
5330.85967	0.01231
5328.93099	0.01234
5327.00232	0.01236
5325.07364	0.01237
5323.14497	0.01239
5321.21629	0.01242
5319.28762	0.01244
5317.35894	0.01247
5315.43026	0.01250
5313.50159	0.01252
5311.57291	0.01253
5309.64424	0.01254
5307.71556	0.01256
5305.78689	0.01260
5303.85821	0.01264
5301.92953	0.01267
5300.00086	0.01268
5298.07218	0.01269
5296.14351	0.01270
5294.21483	0.01273
5292.28616	0.01274
5290.35748	0.01275
5288.42880	0.01277
5286.50013	0.01281
5284.57145	0.01284
5282.64278	0.01286
5280.71410	0.01287
5278.78543	0.01288
5276.85675	0.01291
5274.92807	0.01296
5272.99940	0.01300
5271.07072	0.01303
5269.14205	0.01305
5267.21337	0.01305
5265.28470	0.01305
5263.35602	0.01306
5261.42734	0.01309
5259.49867	0.01311
5257.56999	0.01312
5255.64132	0.01315
5253.71264	0.01319
5251.78397	0.01322
5249.85529	0.01322
5247.92661	0.01322
5245.99794	0.01325
5244.06926	0.01330
5242.14059	0.01336
5240.21191	0.01339
5238.28324	0.01343
5236.35456	0.01346
5234.42588	0.01348
5232.49721	0.01349
5230.56853	0.01351
5228.63986	0.01353
5226.71118	0.01354
5224.78251	0.01355
5222.85383	0.01357
5220.92515	0.01359
5218.99648	0.01361
5217.06780	0.01363
5215.13913	0.01365
5213.21045	0.01368
5211.28178	0.01372
5209.35310	0.01375
5207.42442	0.01374
5205.49575	0.01376
5203.56707	0.01379
5201.63840	0.01383
5199.70972	0.01387
5197.78105	0.01390
5195.85237	0.01391
5193.92369	0.01393
5191.99502	0.01397
5190.06634	0.01401
5188.13767	0.01403
5186.20899	0.01405
5184.28032	0.01408
5182.35164	0.01412
5180.42296	0.01414
5178.49429	0.01415
5176.56561	0.01415
5174.63694	0.01418
5172.70826	0.01422
5170.77959	0.01426
5168.85091	0.01428
5166.92223	0.01428
5164.99356	0.01429
5163.06488	0.01431
5161.13621	0.01434
5159.20753	0.01438
5157.27886	0.01441
5155.35018	0.01445
5153.42150	0.01447
5151.49283	0.01448
5149.56415	0.01448
5147.63548	0.01451
5145.70680	0.01454
5143.77813	0.01457
5141.84945	0.01459
5139.92077	0.01462
5137.99210	0.01465
5136.06342	0.01468
5134.13475	0.01469
5132.20607	0.01470
5130.27740	0.01473
5128.34872	0.01477
5126.42004	0.01478
5124.49137	0.01481
5122.56269	0.01485
5120.63402	0.01489
5118.70534	0.01491
5116.77667	0.01492
5114.84799	0.01494
5112.91931	0.01496
5110.99064	0.01499
5109.06196	0.01502
5107.13329	0.01505
5105.20461	0.01507
5103.27594	0.01509
5101.34726	0.01512
5099.41858	0.01516
5097.48991	0.01520
5095.56123	0.01521
5093.63256	0.01523
5091.70388	0.01527
5089.77521	0.01528
5087.84653	0.01529
5085.91785	0.01532
5083.98918	0.01536
5082.06050	0.01536
5080.13183	0.01537
5078.20315	0.01541
5076.27448	0.01545
5074.34580	0.01548
5072.41712	0.01549
5070.48845	0.01550
5068.55977	0.01553
5066.63110	0.01556
5064.70242	0.01561
5062.77375	0.01565
5060.84507	0.01569
5058.91639	0.01570
5056.98772	0.01569
5055.05904	0.01571
5053.13037	0.01575
5051.20169	0.01579
5049.27302	0.01582
5047.34434	0.01585
5045.41566	0.01587
5043.48699	0.01590
5041.55831	0.01592
5039.62964	0.01594
5037.70096	0.01597
5035.77229	0.01601
5033.84361	0.01603
5031.91493	0.01604
5029.98626	0.01605
5028.05758	0.01609
5026.12891	0.01614
5024.20023	0.01619
5022.27156	0.01622
5020.34288	0.01623
5018.41420	0.01623
5016.48553	0.01625
5014.55685	0.01629
5012.62818	0.01633
5010.69950	0.01635
5008.77083	0.01637
5006.84215	0.01638
5004.91347	0.01639
5002.98480	0.01642
5001.05612	0.01645
4999.12745	0.01649
4997.19877	0.01653
4995.27010	0.01656
4993.34142	0.01658
4991.41274	0.01660
4989.48407	0.01661
4987.55539	0.01664
4985.62672	0.01668
4983.69804	0.01671
4981.76937	0.01673
4979.84069	0.01676
4977.91201	0.01680
4975.98334	0.01683
4974.05466	0.01687
4972.12599	0.01690
4970.19731	0.01690
4968.26864	0.01691
4966.33996	0.01693
4964.41128	0.01696
4962.48261	0.01699
4960.55393	0.01701
4958.62526	0.01703
4956.69658	0.01707
4954.76791	0.01711
4952.83923	0.01714
4950.91055	0.01718
4948.98188	0.01722
4947.05320	0.01724
4945.12453	0.01725
4943.19585	0.01726
4941.26718	0.01730
4939.33850	0.01735
4937.40982	0.01738
4935.48115	0.01741
4933.55247	0.01744
4931.62380	0.01746
4929.69512	0.01748
4927.76645	0.01749
4925.83777	0.01751
4923.90909	0.01755
4921.98042	0.01759
4920.05174	0.01762
4918.12307	0.01762
4916.19439	0.01764
4914.26572	0.01767
4912.33704	0.01772
4910.40836	0.01776
4908.47969	0.01780
4906.55101	0.01783
4904.62234	0.01785
4902.69366	0.01787
4900.76499	0.01788
4898.83631	0.01791
4896.90763	0.01794
4894.97896	0.01797
4893.05028	0.01801
4891.12161	0.01805
4889.19293	0.01807
4887.26426	0.01807
4885.33558	0.01808
4883.40690	0.01811
4881.47823	0.01813
4879.54955	0.01815
4877.62088	0.01818
4875.69220	0.01824
4873.76353	0.01829
4871.83485	0.01833
4869.90617	0.01836
4867.97750	0.01841
4866.04882	0.01843
4864.12015	0.01845
4862.19147	0.01847
4860.26280	0.01849
4858.33412	0.01851
4856.40544	0.01853
4854.47677	0.01856
4852.54809	0.01859
4850.61942	0.01864
4848.69074	0.01869
4846.76207	0.01871
4844.83339	0.01872
4842.90471	0.01873
4840.97604	0.01875
4839.04736	0.01880
4837.11869	0.01884
4835.19001	0.01888
4833.26134	0.01891
4831.33266	0.01895
4829.40398	0.01898
4827.47531	0.01901
4825.54663	0.01904
4823.61796	0.01906
4821.68928	0.01909
4819.76061	0.01912
4817.83193	0.01915
4815.90325	0.01918
4813.97458	0.01921
4812.04590	0.01924
4810.11723	0.01927
4808.18855	0.01929
4806.25988	0.01933
4804.33120	0.01938
4802.40252	0.01943
4800.47385	0.01946
4798.54517	0.01947
4796.61650	0.01950
4794.68782	0.01955
4792.75915	0.01960
4790.83047	0.01962
4788.90179	0.01962
4786.97312	0.01963
4785.04444	0.01966
4783.11577	0.01970
4781.18709	0.01975
4779.25842	0.01979
4777.32974	0.01980
4775.40106	0.01982
4773.47239	0.01986
4771.54371	0.01990
4769.61504	0.01994
4767.68636	0.01997
4765.75769	0.01999
4763.82901	0.02002
4761.90033	0.02006
4759.97166	0.02011
4758.04298	0.02014
4756.11431	0.02016
4754.18563	0.02019
4752.25696	0.02023
4750.32828	0.02025
4748.39960	0.02026
4746.47093	0.02028
4744.54225	0.02031
4742.61358	0.02034
4740.68490	0.02040
4738.75623	0.02045
4736.82755	0.02047
4734.89887	0.02049
4732.97020	0.02052
4731.04152	0.02056
4729.11285	0.02059
4727.18417	0.02063
4725.25550	0.02067
4723.32682	0.02070
4721.39814	0.02072
4719.46947	0.02075
4717.54079	0.02081
4715.61212	0.02086
4713.68344	0.02088
4711.75477	0.02089
4709.82609	0.02091
4707.89741	0.02095
4705.96874	0.02098
4704.04006	0.02101
4702.11139	0.02105
4700.18271	0.02109
4698.25404	0.02113
4696.32536	0.02115
4694.39668	0.02118
4692.46801	0.02122
4690.53933	0.02127
4688.61066	0.02132
4686.68198	0.02134
4684.75331	0.02137
4682.82463	0.02142
4680.89595	0.02146
4678.96728	0.02148
4677.03860	0.02150
4675.10993	0.02152
4673.18125	0.02155
4671.25258	0.02160
4669.32390	0.02166
4667.39522	0.02170
4665.46655	0.02171
4663.53787	0.02173
4661.60920	0.02175
4659.68052	0.02179
4657.75185	0.02184
4655.82317	0.02188
4653.89449	0.02192
4651.96582	0.02196
4650.03714	0.02199
4648.10847	0.02202
4646.17979	0.02206
4644.25112	0.02208
4642.32244	0.02210
4640.39376	0.02214
4638.46509	0.02218
4636.53641	0.02222
4634.60774	0.02227
4632.67906	0.02231
4630.75039	0.02234
4628.82171	0.02237
4626.89303	0.02242
4624.96436	0.02248
4623.03568	0.02253
4621.10701	0.02253
4619.17833	0.02253
4617.24966	0.02255
4615.32098	0.02260
4613.39230	0.02266
4611.46363	0.02272
4609.53495	0.02276
4607.60628	0.02281
4605.67760	0.02285
4603.74893	0.02287
4601.82025	0.02291
4599.89157	0.02296
4597.96290	0.02301
4596.03422	0.02303
4594.10555	0.02304
4592.17687	0.02305
4590.24820	0.02309
4588.31952	0.02315
4586.39084	0.02320
4584.46217	0.02323
4582.53349	0.02325
4580.60482	0.02329
4578.67614	0.02334
4576.74747	0.02340
4574.81879	0.02347
4572.89011	0.02352
4570.96144	0.02353
4569.03276	0.02353
4567.10409	0.02355
4565.17541	0.02362
4563.24674	0.02368
4561.31806	0.02373
4559.38938	0.02377
4557.46071	0.02379
4555.53203	0.02382
4553.60336	0.02387
4551.67468	0.02391
4549.74601	0.02393
4547.81733	0.02396
4545.88865	0.02398
4543.95998	0.02401
4542.03130	0.02405
4540.10263	0.02412
4538.17395	0.02418
4536.24528	0.02422
4534.31660	0.02425
4532.38792	0.02428
4530.45925	0.02432
4528.53057	0.02437
4526.60190	0.02442
4524.67322	0.02447
4522.74455	0.02449
4520.81587	0.02451
4518.88719	0.02455
4516.95852	0.02460
4515.02984	0.02465
4513.10117	0.02469
4511.17249	0.02476
4509.24382	0.02481
4507.31514	0.02486
4505.38646	0.02489
4503.45779	0.02494
4501.52911	0.02497
4499.60044	0.02500
4497.67176	0.02503
4495.74309	0.02505
4493.81441	0.02508
4491.88573	0.02515
4489.95706	0.02521
4488.02838	0.02527
4486.09971	0.02531
4484.17103	0.02533
4482.24236	0.02534
4480.31368	0.02537
4478.38500	0.02542
4476.45633	0.02548
4474.52765	0.02554
4472.59898	0.02559
4470.67030	0.02563
4468.74163	0.02567
4466.81295	0.02571
4464.88427	0.02578
4462.95560	0.02584
4461.02692	0.02586
4459.09825	0.02587
4457.16957	0.02592
4455.24090	0.02598
4453.31222	0.02603
4451.38354	0.02607
4449.45487	0.02611
4447.52619	0.02618
4445.59752	0.02624
4443.66884	0.02628
4441.74017	0.02632
4439.81149	0.02636
4437.88281	0.02638
4435.95414	0.02641
4434.02546	0.02645
4432.09679	0.02651
4430.16811	0.02656
4428.23944	0.02660
4426.31076	0.02663
4424.38208	0.02666
4422.45341	0.02670
4420.52473	0.02675
4418.59606	0.02682
4416.66738	0.02689
4414.73871	0.02694
4412.81003	0.02699
4410.88135	0.02703
4408.95268	0.02707
4407.02400	0.02713
4405.09533	0.02719
4403.16665	0.02723
4401.23798	0.02727
4399.30930	0.02731
4397.38062	0.02736
4395.45195	0.02740
4393.52327	0.02743
4391.59460	0.02747
4389.66592	0.02753
4387.73725	0.02759
4385.80857	0.02763
4383.87989	0.02767
4381.95122	0.02771
4380.02254	0.02777
4378.09387	0.02782
4376.16519	0.02787
4374.23652	0.02792
4372.30784	0.02798
4370.37916	0.02803
4368.45049	0.02809
4366.52181	0.02815
4364.59314	0.02818
4362.66446	0.02822
4360.73579	0.02826
4358.80711	0.02829
4356.87843	0.02832
4354.94976	0.02836
4353.02108	0.02841
4351.09241	0.02846
4349.16373	0.02853
4347.23506	0.02861
4345.30638	0.02866
4343.37770	0.02870
4341.44903	0.02874
4339.52035	0.02880
4337.59168	0.02886
4335.66300	0.02890
4333.73433	0.02894
4331.80565	0.02900
4329.87697	0.02907
4327.94830	0.02912
4326.01962	0.02916
4324.09095	0.02920
4322.16227	0.02925
4320.23360	0.02932
4318.30492	0.02938
4316.37624	0.02942
4314.44757	0.02946
4312.51889	0.02952
4310.59022	0.02960
4308.66154	0.02967
4306.73287	0.02971
4304.80419	0.02975
4302.87551	0.02979
4300.94684	0.02984
4299.01816	0.02989
4297.08949	0.02995
4295.16081	0.03001
4293.23214	0.03008
4291.30346	0.03013
4289.37478	0.03018
4287.44611	0.03023
4285.51743	0.03030
4283.58876	0.03036
4281.66008	0.03040
4279.73141	0.03044
4277.80273	0.03050
4275.87405	0.03058
4273.94538	0.03063
4272.01670	0.03068
4270.08803	0.03074
4268.15935	0.03079
4266.23068	0.03083
4264.30200	0.03087
4262.37332	0.03093
4260.44465	0.03099
4258.51597	0.03106
4256.58730	0.03113
4254.65862	0.03120
4252.72995	0.03126
4250.80127	0.03132
4248.87259	0.03138
4246.94392	0.03143
4245.01524	0.03148
4243.08657	0.03153
4241.15789	0.03157
4239.22922	0.03160
4237.30054	0.03165
4235.37186	0.03171
4233.44319	0.03178
4231.51451	0.03185
4229.58584	0.03192
4227.65716	0.03199
4225.72849	0.03203
4223.79981	0.03206
4221.87113	0.03212
4219.94246	0.03221
4218.01378	0.03228
4216.08511	0.03234
4214.15643	0.03239
4212.22776	0.03243
4210.29908	0.03248
4208.37040	0.03254
4206.44173	0.03262
4204.51305	0.03269
4202.58438	0.03276
4200.65570	0.03281
4198.72703	0.03286
4196.79835	0.03291
4194.86968	0.03295
4192.94100	0.03301
4191.01232	0.03309
4189.08365	0.03318
4187.15497	0.03324
4185.22630	0.03328
4183.29762	0.03332
4181.36895	0.03338
4179.44027	0.03345
4177.51159	0.03351
4175.58292	0.03358
4173.65424	0.03365
4171.72557	0.03370
4169.79689	0.03374
4167.86822	0.03379
4165.93954	0.03387
4164.01086	0.03396
4162.08219	0.03405
4160.15351	0.03412
4158.22484	0.03418
4156.29616	0.03425
4154.36749	0.03433
4152.43881	0.03437
4150.51013	0.03440
4148.58146	0.03447
4146.65278	0.03455
4144.72411	0.03462
4142.79543	0.03468
4140.86676	0.03474
4138.93808	0.03480
4137.00940	0.03486
4135.08073	0.03491
4133.15205	0.03499
4131.22338	0.03509
4129.29470	0.03517
4127.36603	0.03523
4125.43735	0.03528
4123.50867	0.03532
4121.58000	0.03536
4119.65132	0.03545
4117.72265	0.03555
4115.79397	0.03563
4113.86530	0.03569
4111.93662	0.03575
4110.00794	0.03581
4108.07927	0.03587
4106.15059	0.03595
4104.22192	0.03601
4102.29324	0.03607
4100.36457	0.03612
4098.43589	0.03617
4096.50721	0.03624
4094.57854	0.03633
4092.64986	0.03640
4090.72119	0.03648
4088.79251	0.03655
4086.86384	0.03661
4084.93516	0.03667
4083.00648	0.03673
4081.07781	0.03678
4079.14913	0.03684
4077.22046	0.03692
4075.29178	0.03700
4073.36311	0.03709
4071.43443	0.03717
4069.50575	0.03723
4067.57708	0.03728
4065.64840	0.03735
4063.71973	0.03744
4061.79105	0.03752
4059.86238	0.03757
4057.93370	0.03765
4056.00502	0.03774
4054.07635	0.03781
4052.14767	0.03787
4050.21900	0.03794
4048.29032	0.03801
4046.36165	0.03806
4044.43297	0.03813
4042.50429	0.03822
4040.57562	0.03830
4038.64694	0.03838
4036.71827	0.03846
4034.78959	0.03852
4032.86092	0.03859
4030.93224	0.03868
4029.00356	0.03877
4027.07489	0.03882
4025.14621	0.03884
4023.21754	0.03888
4021.28886	0.03896
4019.36019	0.03905
4017.43151	0.03914
4015.50283	0.03924
4013.57416	0.03932
4011.64548	0.03939
4009.71681	0.03945
4007.78813	0.03950
4005.85946	0.03955
4003.93078	0.03964
4002.00210	0.03974
4000.07343	0.03982
3998.14475	0.03988
3996.21608	0.03994
3994.28740	0.04001
3992.35873	0.04009
3990.43005	0.04019
3988.50137	0.04028
3986.57270	0.04035
3984.64402	0.04043
3982.71535	0.04052
3980.78667	0.04062
3978.85800	0.04069
3976.92932	0.04074
3975.00064	0.04078
3973.07197	0.04083
3971.14329	0.04089
3969.21462	0.04098
3967.28594	0.04107
3965.35727	0.04115
3963.42859	0.04123
3961.49991	0.04131
3959.57124	0.04138
3957.64256	0.04144
3955.71389	0.04151
3953.78521	0.04161
3951.85654	0.04170
3949.92786	0.04175
3947.99918	0.04178
3946.07051	0.04185
3944.14183	0.04193
3942.21316	0.04200
3940.28448	0.04211
3938.35581	0.04224
3936.42713	0.04233
3934.49845	0.04236
3932.56978	0.04237
3930.64110	0.04242
3928.71243	0.04253
3926.78375	0.04263
3924.85508	0.04271
3922.92640	0.04280
3920.99772	0.04287
3919.06905	0.04290
3917.14037	0.04296
3915.21170	0.04311
3913.28302	0.04325
3911.35435	0.04336
3909.42567	0.04345
3907.49699	0.04345
3905.56832	0.04339
3903.63964	0.04337
3901.71097	0.04346
3899.78229	0.04362
3897.85362	0.04382
3895.92494	0.04397
3893.99626	0.04400
3892.06759	0.04400
3890.13891	0.04407
3888.21024	0.04412
3886.28156	0.04413
3884.35289	0.04423
3882.42421	0.04436
3880.49553	0.04447
3878.56686	0.04463
3876.63818	0.04475
3874.70951	0.04477
3872.78083	0.04476
3870.85216	0.04477
3868.92348	0.04486
3866.99480	0.04502
3865.06613	0.04513
3863.13745	0.04525
3861.20878	0.04538
3859.28010	0.04546
3857.35143	0.04541
3855.42275	0.04522
3853.49407	0.04519
3851.56540	0.04548
3849.63672	0.04584
3847.70805	0.04605
3845.77937	0.04611
3843.85070	0.04610
3841.92202	0.04608
3839.99334	0.04610
3838.06467	0.04620
3836.13599	0.04636
3834.20732	0.04652
3832.27864	0.04665
3830.34997	0.04677
3828.42129	0.04686
3826.49261	0.04694
3824.56394	0.04698
3822.63526	0.04696
3820.70659	0.04698
3818.77791	0.04711
3816.84924	0.04725
3814.92056	0.04742
3812.99188	0.04763
3811.06321	0.04775
3809.13453	0.04772
3807.20586	0.04770
3805.27718	0.04778
3803.34851	0.04785
3801.41983	0.04791
3799.49115	0.04804
3797.56248	0.04817
3795.63380	0.04829
3793.70513	0.04846
3791.77645	0.04863
3789.84778	0.04875
3787.91910	0.04882
3785.99042	0.04887
3784.06175	0.04894
3782.13307	0.04900
3780.20440	0.04905
3778.27572	0.04917
3776.34705	0.04932
3774.41837	0.04943
3772.48969	0.04947
3770.56102	0.04949
3768.63234	0.04955
3766.70367	0.04966
3764.77499	0.04978
3762.84632	0.04988
3760.91764	0.04990
3758.98896	0.04994
3757.06029	0.05004
3755.13161	0.05009
3753.20294	0.05002
3751.27426	0.04997
3749.34559	0.05007
3747.41691	0.05016
3745.48823	0.05014
3743.55956	0.05026
3741.63088	0.05059
3739.70221	0.05075
3737.77353	0.05068
3735.84486	0.05063
3733.91618	0.05078
3731.98750	0.05104
3730.05883	0.05128
3728.13015	0.05138
3726.20148	0.05143
3724.27280	0.05155
3722.34413	0.05171
3720.41545	0.05186
3718.48677	0.05199
3716.55810	0.05207
3714.62942	0.05205
3712.70075	0.05200
3710.77207	0.05206
3708.84340	0.05224
3706.91472	0.05244
3704.98604	0.05256
3703.05737	0.05262
3701.12869	0.05271
3699.20002	0.05285
3697.27134	0.05298
3695.34267	0.05305
3693.41399	0.05306
3691.48531	0.05301
3689.55664	0.05302
3687.62796	0.05319
3685.69929	0.05346
3683.77061	0.05366
3681.84194	0.05373
3679.91326	0.05369
3677.98458	0.05361
3676.05591	0.05357
3674.12723	0.05370
3672.19856	0.05383
3670.26988	0.05392
3668.34121	0.05411
3666.41253	0.05438
3664.48385	0.05455
3662.55518	0.05462
3660.62650	0.05467
3658.69783	0.05467
3656.76915	0.05468
3654.84048	0.05473
3652.91180	0.05468
3650.98312	0.05450
3649.05445	0.05441
3647.12577	0.05461
3645.19710	0.05497
3643.26842	0.05527
3641.33975	0.05543
3639.41107	0.05552
3637.48239	0.05557
3635.55372	0.05560
3633.62504	0.05561
3631.69637	0.05553
3629.76769	0.05544
3627.83902	0.05560
3625.91034	0.05592
3623.98166	0.05609
3622.05299	0.05607
3620.12431	0.05600
3618.19564	0.05603
3616.26696	0.05614
3614.33829	0.05625
3612.40961	0.05632
3610.48093	0.05636
3608.55226	0.05643
3606.62358	0.05658
3604.69491	0.05674
3602.76623	0.05681
3600.83756	0.05686
3598.90888	0.05693
3596.98020	0.05699
3595.05153	0.05705
3593.12285	0.05713
3591.19418	0.05715
3589.26550	0.05709
3587.33683	0.05711
3585.40815	0.05731
3583.47947	0.05754
3581.55080	0.05768
3579.62212	0.05775
3577.69345	0.05779
3575.76477	0.05786
3573.83610	0.05794
3571.90742	0.05799
3569.97874	0.05795
3568.05007	0.05793
3566.12139	0.05803
3564.19272	0.05820
3562.26404	0.05835
3560.33537	0.05846
3558.40669	0.05856
3556.47801	0.05863
3554.54934	0.05867
3552.62066	0.05872
3550.69199	0.05878
3548.76331	0.05883
3546.83464	0.05887
3544.90596	0.05894
3542.97728	0.05903
3541.04861	0.05914
3539.11993	0.05924
3537.19126	0.05929
3535.26258	0.05934
3533.33391	0.05939
3531.40523	0.05942
3529.47655	0.05944
3527.54788	0.05947
3525.61920	0.05951
3523.69053	0.05955
3521.76185	0.05963
3519.83318	0.05970
3517.90450	0.05973
3515.97582	0.05974
3514.04715	0.05978
3512.11847	0.05983
3510.18980	0.05985
3508.26112	0.05987
3506.33245	0.05988
3504.40377	0.05990
3502.47509	0.05992
3500.54642	0.05998
3498.61774	0.06006
3496.68907	0.06012
3494.76039	0.06015
3492.83172	0.06017
3490.90304	0.06018
3488.97436	0.06021
3487.04569	0.06024
3485.11701	0.06027
3483.18834	0.06028
3481.25966	0.06033
3479.33099	0.06042
3477.40231	0.06049
3475.47363	0.06054
3473.54496	0.06059
3471.61628	0.06065
3469.68761	0.06073
3467.75893	0.06083
3465.83026	0.06095
3463.90158	0.06107
3461.97290	0.06118
3460.04423	0.06130
3458.11555	0.06141
3456.18688	0.06150
3454.25820	0.06158
3452.32953	0.06166
3450.40085	0.06175
3448.47217	0.06183
3446.54350	0.06191
3444.61482	0.06201
3442.68615	0.06213
3440.75747	0.06228
3438.82880	0.06243
3436.90012	0.06257
3434.97144	0.06273
3433.04277	0.06291
3431.11409	0.06310
3429.18542	0.06328
3427.25674	0.06348
3425.32807	0.06371
3423.39939	0.06393
3421.47071	0.06410
3419.54204	0.06424
3417.61336	0.06439
3415.68469	0.06456
3413.75601	0.06472
3411.82734	0.06486
3409.89866	0.06502
3407.96998	0.06518
3406.04131	0.06532
3404.11263	0.06544
3402.18396	0.06557
3400.25528	0.06569
3398.32661	0.06581
3396.39793	0.06594
3394.46925	0.06607
3392.54058	0.06619
3390.61190	0.06629
3388.68323	0.06642
3386.75455	0.06660
3384.82588	0.06677
3382.89720	0.06692
3380.96852	0.06707
3379.03985	0.06720
3377.11117	0.06733
3375.18250	0.06746
3373.25382	0.06757
3371.32515	0.06767
3369.39647	0.06780
3367.46779	0.06794
3365.53912	0.06805
3363.61044	0.06815
3361.68177	0.06826
3359.75309	0.06839
3357.82442	0.06852
3355.89574	0.06864
3353.96706	0.06876
3352.03839	0.06887
3350.10971	0.06899
3348.18104	0.06912
3346.25236	0.06926
3344.32369	0.06939
3342.39501	0.06951
3340.46633	0.06962
3338.53766	0.06972
3336.60898	0.06984
3334.68031	0.06996
3332.75163	0.07008
3330.82296	0.07020
3328.89428	0.07032
3326.96560	0.07045
3325.03693	0.07060
3323.10825	0.07074
3321.17958	0.07088
3319.25090	0.07103
3317.32223	0.07116
3315.39355	0.07126
3313.46487	0.07136
3311.53620	0.07148
3309.60752	0.07162
3307.67885	0.07177
3305.75017	0.07190
3303.82150	0.07203
3301.89282	0.07216
3299.96414	0.07228
3298.03547	0.07239
3296.10679	0.07252
3294.17812	0.07266
3292.24944	0.07278
3290.32077	0.07289
3288.39209	0.07302
3286.46341	0.07320
3284.53474	0.07337
3282.60606	0.07352
3280.67739	0.07363
3278.74871	0.07375
3276.82004	0.07387
3274.89136	0.07398
3272.96268	0.07411
3271.03401	0.07426
3269.10533	0.07442
3267.17666	0.07453
3265.24798	0.07463
3263.31931	0.07474
3261.39063	0.07487
3259.46195	0.07501
3257.53328	0.07514
3255.60460	0.07527
3253.67593	0.07541
3251.74725	0.07556
3249.81858	0.07570
3247.88990	0.07583
3245.96122	0.07596
3244.03255	0.07611
3242.10387	0.07627
3240.17520	0.07641
3238.24652	0.07651
3236.31785	0.07663
3234.38917	0.07678
3232.46049	0.07693
3230.53182	0.07709
3228.60314	0.07722
3226.67447	0.07733
3224.74579	0.07743
3222.81712	0.07754
3220.88844	0.07767
3218.95976	0.07782
3217.03109	0.07797
3215.10241	0.07813
3213.17374	0.07829
3211.24506	0.07842
3209.31639	0.07851
3207.38771	0.07860
3205.45903	0.07874
3203.53036	0.07890
3201.60168	0.07906
3199.67301	0.07922
3197.74433	0.07940
3195.81566	0.07955
3193.88698	0.07968
3191.95830	0.07982
3190.02963	0.07995
3188.10095	0.08008
3186.17228	0.08022
3184.24360	0.08038
3182.31493	0.08054
3180.38625	0.08067
3178.45757	0.08081
3176.52890	0.08096
3174.60022	0.08111
3172.67155	0.08125
3170.74287	0.08138
3168.81420	0.08152
3166.88552	0.08168
3164.95684	0.08183
3163.02817	0.08195
3161.09949	0.08208
3159.17082	0.08221
3157.24214	0.08236
3155.31347	0.08252
3153.38479	0.08268
3151.45611	0.08282
3149.52744	0.08296
3147.59876	0.08308
3145.67009	0.08321
3143.74141	0.08337
3141.81274	0.08354
3139.88406	0.08366
3137.95538	0.08377
3136.02671	0.08389
3134.09803	0.08400
3132.16936	0.08412
3130.24068	0.08426
3128.31201	0.08442
3126.38333	0.08456
3124.45465	0.08469
3122.52598	0.08484
3120.59730	0.08498
3118.66863	0.08511
3116.73995	0.08525
3114.81128	0.08542
3112.88260	0.08557
3110.95392	0.08569
3109.02525	0.08582
3107.09657	0.08598
3105.16790	0.08612
3103.23922	0.08624
3101.31055	0.08636
3099.38187	0.08649
3097.45319	0.08665
3095.52452	0.08681
3093.59584	0.08694
3091.66717	0.08707
3089.73849	0.08719
3087.80982	0.08732
3085.88114	0.08746
3083.95246	0.08763
3082.02379	0.08780
3080.09511	0.08794
3078.16644	0.08807
3076.23776	0.08821
3074.30909	0.08835
3072.38041	0.08848
3070.45173	0.08861
3068.52306	0.08873
3066.59438	0.08886
3064.66571	0.08900
3062.73703	0.08914
3060.80836	0.08927
3058.87968	0.08940
3056.95100	0.08956
3055.02233	0.08973
3053.09365	0.08988
3051.16498	0.09001
3049.23630	0.09011
3047.30763	0.09022
3045.37895	0.09037
3043.45027	0.09054
3041.52160	0.09067
3039.59292	0.09078
3037.66425	0.09088
3035.73557	0.09102
3033.80690	0.09119
3031.87822	0.09137
3029.94954	0.09152
3028.02087	0.09165
3026.09219	0.09178
3024.16352	0.09192
3022.23484	0.09206
3020.30617	0.09218
3018.37749	0.09228
3016.44881	0.09241
3014.52014	0.09258
3012.59146	0.09277
3010.66279	0.09295
3008.73411	0.09310
3006.80544	0.09319
3004.87676	0.09326
3002.94808	0.09337
3001.01941	0.09354
2999.09073	0.09369
2997.16206	0.09381
2995.23338	0.09390
2993.30471	0.09400
2991.37603	0.09415
2989.44735	0.09431
2987.51868	0.09444
2985.59000	0.09455
2983.66133	0.09464
2981.73265	0.09472
2979.80398	0.09478
2977.87530	0.09482
2975.94662	0.09484
2974.01795	0.09484
2972.08927	0.09482
2970.16060	0.09481
2968.23192	0.09482
2966.30325	0.09481
2964.37457	0.09481
2962.44589	0.09486
2960.51722	0.09497
2958.58854	0.09512
2956.65987	0.09532
2954.73119	0.09554
2952.80252	0.09576
2950.87384	0.09594
2948.94516	0.09609
2947.01649	0.09621
2945.08781	0.09630
2943.15914	0.09637
2941.23046	0.09644
2939.30179	0.09649
2937.37311	0.09649
2935.44443	0.09642
2933.51576	0.09635
2931.58708	0.09630
2929.65841	0.09629
2927.72973	0.09627
2925.80106	0.09625
2923.87238	0.09625
2921.94370	0.09628
2920.01503	0.09633
2918.08635	0.09648
2916.15768	0.09680
2914.22900	0.09725
2912.30033	0.09771
2910.37165	0.09810
2908.44297	0.09846
2906.51430	0.09877
2904.58562	0.09905
2902.65695	0.09929
2900.72827	0.09952
2898.79960	0.09974
2896.87092	0.09992
2894.94224	0.10009
2893.01357	0.10028
2891.08489	0.10048
2889.15622	0.10068
2887.22754	0.10087
2885.29887	0.10105
2883.37019	0.10121
2881.44151	0.10138
2879.51284	0.10155
2877.58416	0.10169
2875.65549	0.10180
2873.72681	0.10189
2871.79814	0.10199
2869.86946	0.10210
2867.94078	0.10223
2866.01211	0.10236
2864.08343	0.10247
2862.15476	0.10254
2860.22608	0.10257
2858.29741	0.10255
2856.36873	0.10254
2854.44005	0.10251
2852.51138	0.10249
2850.58270	0.10257
2848.65403	0.10288
2846.72535	0.10336
2844.79668	0.10384
2842.86800	0.10425
2840.93932	0.10459
2839.01065	0.10486
2837.08197	0.10508
2835.15330	0.10529
2833.22462	0.10550
2831.29595	0.10572
2829.36727	0.10591
2827.43859	0.10607
2825.50992	0.10621
2823.58124	0.10634
2821.65257	0.10649
2819.72389	0.10668
2817.79522	0.10685
2815.86654	0.10700
2813.93786	0.10719
2812.00919	0.10740
2810.08051	0.10757
2808.15184	0.10768
2806.22316	0.10779
2804.29449	0.10793
2802.36581	0.10809
2800.43713	0.10824
2798.50846	0.10840
2796.57978	0.10859
2794.65111	0.10877
2792.72243	0.10891
2790.79376	0.10904
2788.86508	0.10919
2786.93640	0.10932
2785.00773	0.10948
2783.07905	0.10966
2781.15038	0.10983
2779.22170	0.10996
2777.29303	0.11010
2775.36435	0.11025
2773.43567	0.11041
2771.50700	0.11055
2769.57832	0.11066
2767.64965	0.11082
2765.72097	0.11101
2763.79230	0.11117
2761.86362	0.11129
2759.93494	0.11142
2758.00627	0.11160
2756.07759	0.11179
2754.14892	0.11195
2752.22024	0.11210
2750.29157	0.11225
2748.36289	0.11240
2746.43421	0.11253
2744.50554	0.11265
2742.57686	0.11280
2740.64819	0.11295
2738.71951	0.11310
2736.79084	0.11325
2734.86216	0.11336
2732.93348	0.11348
2731.00481	0.11363
2729.07613	0.11379
2727.14746	0.11392
2725.21878	0.11405
2723.29011	0.11418
2721.36143	0.11434
2719.43275	0.11449
2717.50408	0.11460
2715.57540	0.11473
2713.64673	0.11489
2711.71805	0.11508
2709.78938	0.11525
2707.86070	0.11539
2705.93202	0.11550
2704.00335	0.11562
2702.07467	0.11575
2700.14600	0.11591
2698.21732	0.11609
2696.28865	0.11624
2694.35997	0.11638
2692.43129	0.11651
2690.50262	0.11665
2688.57394	0.11679
2686.64527	0.11694
2684.71659	0.11706
2682.78792	0.11716
2680.85924	0.11729
2678.93056	0.11745
2677.00189	0.11761
2675.07321	0.11779
2673.14454	0.11798
2671.21586	0.11812
2669.28719	0.11823
2667.35851	0.11834
2665.42983	0.11847
2663.50116	0.11862
2661.57248	0.11879
2659.64381	0.11895
2657.71513	0.11911
2655.78646	0.11927
2653.85778	0.11943
2651.92910	0.11959
2650.00043	0.11972
2648.07175	0.11986
2646.14308	0.12003
2644.21440	0.12023
2642.28573	0.12038
2640.35705	0.12053
2638.42837	0.12068
2636.49970	0.12086
2634.57102	0.12102
2632.64235	0.12116
2630.71367	0.12129
2628.78500	0.12144
2626.85632	0.12162
2624.92764	0.12181
2622.99897	0.12196
2621.07029	0.12210
2619.14162	0.12224
2617.21294	0.12238
2615.28427	0.12252
2613.35559	0.12269
2611.42691	0.12287
2609.49824	0.12301
2607.56956	0.12310
2605.64089	0.12324
2603.71221	0.12342
2601.78354	0.12361
2599.85486	0.12377
2597.92618	0.12394
2595.99751	0.12412
2594.06883	0.12429
2592.14016	0.12443
2590.21148	0.12454
2588.28281	0.12465
2586.35413	0.12482
2584.42545	0.12500
2582.49678	0.12515
2580.56810	0.12531
2578.63943	0.12547
2576.71075	0.12560
2574.78208	0.12572
2572.85340	0.12586
2570.92472	0.12601
2568.99605	0.12617
2567.06737	0.12633
2565.13870	0.12648
2563.21002	0.12663
2561.28135	0.12677
2559.35267	0.12692
2557.42399	0.12707
2555.49532	0.12722
2553.56664	0.12737
2551.63797	0.12749
2549.70929	0.12762
2547.78062	0.12778
2545.85194	0.12795
2543.92326	0.12812
2541.99459	0.12829
2540.06591	0.12845
2538.13724	0.12860
2536.20856	0.12874
2534.27989	0.12889
2532.35121	0.12903
2530.42253	0.12917
2528.49386	0.12932
2526.56518	0.12949
2524.63651	0.12966
2522.70783	0.12982
2520.77916	0.12998
2518.85048	0.13011
2516.92181	0.13025
2514.99313	0.13044
2513.06445	0.13066
2511.13578	0.13083
2509.20710	0.13095
2507.27843	0.13109
2505.34975	0.13126
2503.42108	0.13141
2501.49240	0.13156
2499.56372	0.13174
2497.63505	0.13193
2495.70637	0.13210
2493.77770	0.13225
2491.84902	0.13240
2489.92035	0.13256
2487.99167	0.13274
2486.06299	0.13291
2484.13432	0.13308
2482.20564	0.13325
2480.27697	0.13342
2478.34829	0.13358
2476.41962	0.13376
2474.49094	0.13394
2472.56226	0.13412
2470.63359	0.13427
2468.70491	0.13438
2466.77624	0.13453
2464.84756	0.13470
2462.91889	0.13486
2460.99021	0.13502
2459.06153	0.13518
2457.13286	0.13530
2455.20418	0.13543
2453.27551	0.13559
2451.34683	0.13577
2449.41816	0.13596
2447.48948	0.13618
2445.56080	0.13639
2443.63213	0.13654
2441.70345	0.13668
2439.77478	0.13683
2437.84610	0.13699
2435.91743	0.13716
2433.98875	0.13732
2432.06007	0.13746
2430.13140	0.13761
2428.20272	0.13778
2426.27405	0.13796
2424.34537	0.13811
2422.41670	0.13825
2420.48802	0.13839
2418.55934	0.13856
2416.63067	0.13876
2414.70199	0.13894
2412.77332	0.13909
2410.84464	0.13924
2408.91597	0.13940
2406.98729	0.13957
2405.05861	0.13974
2403.12994	0.13990
2401.20126	0.14006
2399.27259	0.14021
2397.34391	0.14034
2395.41524	0.14049
2393.48656	0.14063
2391.55788	0.14074
2389.62921	0.14087
2387.70053	0.14105
2385.77186	0.14123
2383.84318	0.14141
2381.91451	0.14154
2379.98583	0.14162
2378.05715	0.14165
2376.12848	0.14165
2374.19980	0.14164
2372.27113	0.14166
2370.34245	0.14169
2368.41378	0.14175
2366.48510	0.14183
2364.55642	0.14192
2362.62775	0.14203
2360.69907	0.14218
2358.77040	0.14239
2356.84172	0.14266
2354.91305	0.14293
2352.98437	0.14321
2351.05569	0.14351
2349.12702	0.14376
2347.19834	0.14390
2345.26967	0.14395
2343.34099	0.14400
2341.41232	0.14408
2339.48364	0.14420
2337.55496	0.14435
2335.62629	0.14451
2333.69761	0.14468
2331.76894	0.14488
2329.84026	0.14510
2327.91159	0.14528
2325.98291	0.14546
2324.05423	0.14567
2322.12556	0.14592
2320.19688	0.14613
2318.26821	0.14632
2316.33953	0.14651
2314.41086	0.14674
2312.48218	0.14698
2310.55350	0.14721
2308.62483	0.14739
2306.69615	0.14754
2304.76748	0.14770
2302.83880	0.14787
2300.91013	0.14807
2298.98145	0.14829
2297.05277	0.14850
2295.12410	0.14868
2293.19542	0.14884
2291.26675	0.14897
2289.33807	0.14910
2287.40940	0.14926
2285.48072	0.14945
2283.55204	0.14963
2281.62337	0.14978
2279.69469	0.14994
2277.76602	0.15012
2275.83734	0.15032
2273.90867	0.15050
2271.97999	0.15063
2270.05131	0.15074
2268.12264	0.15085
2266.19396	0.15100
2264.26529	0.15121
2262.33661	0.15142
2260.40794	0.15157
2258.47926	0.15170
2256.55058	0.15184
2254.62191	0.15198
2252.69323	0.15210
2250.76456	0.15224
2248.83588	0.15240
2246.90721	0.15258
2244.97853	0.15276
2243.04985	0.15295
2241.12118	0.15313
2239.19250	0.15326
2237.26383	0.15339
2235.33515	0.15356
2233.40648	0.15375
2231.47780	0.15391
2229.54912	0.15409
2227.62045	0.15428
2225.69177	0.15444
2223.76310	0.15456
2221.83442	0.15469
2219.90575	0.15484
2217.97707	0.15502
2216.04839	0.15521
2214.11972	0.15537
2212.19104	0.15551
2210.26237	0.15564
2208.33369	0.15575
2206.40502	0.15586
2204.47634	0.15600
2202.54766	0.15621
2200.61899	0.15641
2198.69031	0.15657
2196.76164	0.15671
2194.83296	0.15684
2192.90429	0.15698
2190.97561	0.15713
2189.04693	0.15729
2187.11826	0.15746
2185.18958	0.15765
2183.26091	0.15782
2181.33223	0.15795
2179.40356	0.15808
2177.47488	0.15826
2175.54620	0.15843
2173.61753	0.15857
2171.68885	0.15871
2169.76018	0.15889
2167.83150	0.15909
2165.90283	0.15927
2163.97415	0.15944
2162.04547	0.15962
2160.11680	0.15981
2158.18812	0.15999
2156.25945	0.16014
2154.33077	0.16027
2152.40210	0.16039
2150.47342	0.16054
2148.54474	0.16070
2146.61607	0.16087
2144.68739	0.16102
2142.75872	0.16115
2140.83004	0.16131
2138.90137	0.16149
2136.97269	0.16167
2135.04401	0.16185
2133.11534	0.16204
2131.18666	0.16216
2129.25799	0.16223
2127.32931	0.16236
2125.40064	0.16256
2123.47196	0.16277
2121.54328	0.16296
2119.61461	0.16311
2117.68593	0.16324
2115.75726	0.16339
2113.82858	0.16355
2111.89991	0.16376
2109.97123	0.16396
2108.04255	0.16412
2106.11388	0.16426
2104.18520	0.16438
2102.25653	0.16452
2100.32785	0.16471
2098.39918	0.16491
2096.47050	0.16506
2094.54182	0.16517
2092.61315	0.16534
2090.68447	0.16554
2088.75580	0.16573
2086.82712	0.16590
2084.89845	0.16606
2082.96977	0.16623
2081.04109	0.16640
2079.11242	0.16656
2077.18374	0.16671
2075.25507	0.16684
2073.32639	0.16698
2071.39772	0.16713
2069.46904	0.16726
2067.54036	0.16740
2065.61169	0.16755
2063.68301	0.16773
2061.75434	0.16792
2059.82566	0.16810
2057.89699	0.16827
2055.96831	0.16847
2054.03963	0.16868
2052.11096	0.16884
2050.18228	0.16895
2048.25361	0.16907
2046.32493	0.16924
2044.39626	0.16941
2042.46758	0.16952
2040.53890	0.16964
2038.61023	0.16982
2036.68155	0.17005
2034.75288	0.17025
2032.82420	0.17040
2030.89553	0.17053
2028.96685	0.17069
2027.03817	0.17086
2025.10950	0.17102
2023.18082	0.17120
2021.25215	0.17138
2019.32347	0.17153
2017.39480	0.17168
2015.46612	0.17186
2013.53744	0.17206
2011.60877	0.17222
2009.68009	0.17237
2007.75142	0.17254
2005.82274	0.17273
2003.89407	0.17292
2001.96539	0.17304
2000.03671	0.17315
1998.10804	0.17330
1996.17936	0.17345
1994.25069	0.17354
1992.32201	0.17365
1990.39334	0.17379
1988.46466	0.17394
1986.53598	0.17410
1984.60731	0.17428
1982.67863	0.17447
1980.74996	0.17462
1978.82128	0.17474
1976.89261	0.17486
1974.96393	0.17501
1973.03525	0.17514
1971.10658	0.17521
1969.17790	0.17529
1967.24923	0.17544
1965.32055	0.17566
1963.39188	0.17588
1961.46320	0.17604
1959.53452	0.17618
1957.60585	0.17630
1955.67717	0.17644
1953.74850	0.17662
1951.81982	0.17683
1949.89115	0.17702
1947.96247	0.17714
1946.03379	0.17719
1944.10512	0.17723
1942.17644	0.17736
1940.24777	0.17761
1938.31909	0.17786
1936.39042	0.17805
1934.46174	0.17821
1932.53306	0.17836
1930.60439	0.17849
1928.67571	0.17863
1926.74704	0.17880
1924.81836	0.17891
1922.88969	0.17899
1920.96101	0.17911
1919.03233	0.17922
1917.10366	0.17941
1915.17498	0.17971
1913.24631	0.17994
1911.31763	0.18006
1909.38896	0.18021
1907.46028	0.18041
1905.53160	0.18060
1903.60293	0.18077
1901.67425	0.18094
1899.74558	0.18107
1897.81690	0.18112
1895.88823	0.18120
1893.95955	0.18138
1892.03087	0.18155
1890.10220	0.18168
1888.17352	0.18189
1886.24485	0.18211
1884.31617	0.18224
1882.38750	0.18234
1880.45882	0.18248
1878.53014	0.18264
1876.60147	0.18280
1874.67279	0.18294
1872.74412	0.18299
1870.81544	0.18292
1868.88677	0.18295
1866.95809	0.18329
1865.02941	0.18371
1863.10074	0.18393
1861.17206	0.18400
1859.24339	0.18411
1857.31471	0.18430
1855.38604	0.18453
1853.45736	0.18474
1851.52868	0.18490
1849.60001	0.18499
1847.67133	0.18500
1845.74266	0.18493
1843.81398	0.18502
1841.88531	0.18539
1839.95663	0.18576
1838.02795	0.18596
1836.09928	0.18613
1834.17060	0.18631
1832.24193	0.18634
1830.31325	0.18632
1828.38458	0.18649
1826.45590	0.18672
1824.52722	0.18695
1822.59855	0.18724
1820.66987	0.18749
1818.74120	0.18763
1816.81252	0.18777
1814.88385	0.18790
1812.95517	0.18793
1811.02649	0.18795
1809.09782	0.18811
1807.16914	0.18838
1805.24047	0.18854
1803.31179	0.18852
1801.38312	0.18846
1799.45444	0.18856
1797.52576	0.18879
1795.59709	0.18887
1793.66841	0.18878
1791.73974	0.18889
1789.81106	0.18929
1787.88239	0.18963
1785.95371	0.18971
1784.02503	0.18976
1782.09636	0.18985
1780.16768	0.18999
1778.23901	0.19017
1776.31033	0.19023
1774.38166	0.19005
1772.45298	0.18990
1770.52430	0.19000
1768.59563	0.19028
1766.66695	0.19067
1764.73828	0.19091
1762.80960	0.19086
1760.88093	0.19085
1758.95225	0.19094
1757.02357	0.19105
1755.09490	0.19112
1753.16622	0.19097
1751.23755	0.19069
1749.30887	0.19069
1747.38020	0.19092
1745.45152	0.19108
1743.52284	0.19112
1741.59417	0.19107
1739.66549	0.19104
1737.73682	0.19097
1735.80814	0.19065
1733.87947	0.19052
1731.95079	0.19092
1730.02211	0.19147
1728.09344	0.19187
1726.16476	0.19214
1724.23609	0.19226
1722.30741	0.19229
1720.37874	0.19208
1718.45006	0.19176
1716.52138	0.19179
1714.59271	0.19227
1712.66403	0.19280
1710.73536	0.19315
1708.80668	0.19324
1706.87801	0.19313
1704.94933	0.19299
1703.02065	0.19267
1701.09198	0.19224
1699.16330	0.19225
1697.23463	0.19259
1695.30595	0.19296
1693.37728	0.19343
1691.44860	0.19369
1689.51992	0.19367
1687.59125	0.19344
1685.66257	0.19295
1683.73390	0.19280
1681.80522	0.19329
1679.87655	0.19380
1677.94787	0.19385
1676.01919	0.19368
1674.09052	0.19367
1672.16184	0.19367
1670.23317	0.19358
1668.30449	0.19380
1666.37582	0.19419
1664.44714	0.19426
1662.51846	0.19422
1660.58979	0.19441
1658.66111	0.19458
1656.73244	0.19421
1654.80376	0.19338
1652.87509	0.19308
1650.94641	0.19360
1649.01773	0.19396
1647.08906	0.19397
1645.16038	0.19429
1643.23171	0.19481
1641.30303	0.19507
1639.37436	0.19493
1637.44568	0.19451
1635.51700	0.19437
1633.58833	0.19482
1631.65965	0.19529
1629.73098	0.19531
1627.80230	0.19516
1625.87363	0.19492
1623.94495	0.19456
1622.01627	0.19430
1620.08760	0.19426
1618.15892	0.19437
1616.23025	0.19488
1614.30157	0.19572
1612.37290	0.19639
1610.44422	0.19671
1608.51554	0.19696
1606.58687	0.19727
1604.65819	0.19752
1602.72952	0.19767
1600.80084	0.19783
1598.87217	0.19802
1596.94349	0.19817
1595.01481	0.19832
1593.08614	0.19851
1591.15746	0.19870
1589.22879	0.19885
1587.30011	0.19899
1585.37144	0.19916
1583.44276	0.19935
1581.51408	0.19951
1579.58541	0.19953
1577.65673	0.19938
1575.72806	0.19943
1573.79938	0.19974
1571.87071	0.19983
1569.94203	0.19977
1568.01335	0.19999
1566.08468	0.20030
1564.15600	0.20038
1562.22733	0.20002
1560.29865	0.19931
1558.36998	0.19915
1556.44130	0.19982
1554.51262	0.20057
1552.58395	0.20100
1550.65527	0.20126
1548.72660	0.20144
1546.79792	0.20138
1544.86925	0.20100
1542.94057	0.20054
1541.01189	0.20035
1539.08322	0.20073
1537.15454	0.20141
1535.22587	0.20171
1533.29719	0.20175
1531.36852	0.20196
1529.43984	0.20210
1527.51116	0.20202
1525.58249	0.20191
1523.65381	0.20164
1521.72514	0.20133
1519.79646	0.20143
1517.86779	0.20181
1515.93911	0.20217
1514.01043	0.20245
1512.08176	0.20248
1510.15308	0.20214
1508.22441	0.20172
1506.29573	0.20185
1504.36706	0.20261
1502.43838	0.20316
1500.50970	0.20308
1498.58103	0.20281
1496.65235	0.20280
1494.72368	0.20301
1492.79500	0.20300
1490.86633	0.20265
1488.93765	0.20244
1487.00897	0.20259
1485.08030	0.20282
1483.15162	0.20286
1481.22295	0.20271
1479.29427	0.20241
1477.36560	0.20189
1475.43692	0.20129
1473.50824	0.20082
1471.57957	0.20064
1469.65089	0.20066
1467.72222	0.20050
1465.79354	0.20014
1463.86487	0.19996
1461.93619	0.19986
1460.00751	0.19928
1458.07884	0.19848
1456.15016	0.19836
1454.22149	0.19891
1452.29281	0.19937
1450.36414	0.19948
1448.43546	0.19949
1446.50678	0.19962
1444.57811	0.19984
1442.64943	0.19999
1440.72076	0.19999
1438.79208	0.19972
1436.86341	0.19952
1434.93473	0.19989
1433.00605	0.20040
1431.07738	0.20060
1429.14870	0.20072
1427.22003	0.20085
1425.29135	0.20090
1423.36268	0.20088
1421.43400	0.20066
1419.50532	0.20035
1417.57665	0.20047
1415.64797	0.20094
1413.71930	0.20127
1411.79062	0.20141
1409.86195	0.20145
1407.93327	0.20136
1406.00459	0.20118
1404.07592	0.20108
1402.14724	0.20106
1400.21857	0.20089
1398.28989	0.20066
1396.36122	0.20051
1394.43254	0.20053
1392.50386	0.20074
1390.57519	0.20073
1388.64651	0.20034
1386.71784	0.19995
1384.78916	0.19985
1382.86049	0.19994
1380.93181	0.20003
1379.00313	0.20004
1377.07446	0.19996
1375.14578	0.19982
1373.21711	0.19978
1371.28843	0.19988
1369.35976	0.19995
1367.43108	0.19992
1365.50240	0.19979
1363.57373	0.19962
1361.64505	0.19960
1359.71638	0.19977
1357.78770	0.19997
1355.85903	0.20011
1353.93035	0.20020
1352.00167	0.20027
1350.07300	0.20033
1348.14432	0.20042
1346.21565	0.20051
1344.28697	0.20054
1342.35830	0.20044
1340.42962	0.20025
1338.50094	0.20015
1336.57227	0.20024
1334.64359	0.20036
1332.71492	0.20034
1330.78624	0.20018
1328.85757	0.19995
1326.92889	0.19974
1325.00021	0.19956
1323.07154	0.19943
1321.14286	0.19933
1319.21419	0.19920
1317.28551	0.19902
1315.35684	0.19880
1313.42816	0.19861
1311.49948	0.19847
1309.57081	0.19832
1307.64213	0.19810
1305.71346	0.19783
1303.78478	0.19754
1301.85611	0.19728
1299.92743	0.19705
1297.99875	0.19687
1296.07008	0.19675
1294.14140	0.19659
1292.21273	0.19638
1290.28405	0.19619
1288.35538	0.19602
1286.42670	0.19584
1284.49802	0.19566
1282.56935	0.19549
1280.64067	0.19526
1278.71200	0.19495
1276.78332	0.19460
1274.85465	0.19417
1272.92597	0.19360
1270.99729	0.19292
1269.06862	0.19211
1267.13994	0.19118
1265.21127	0.19033
1263.28259	0.18978
1261.35392	0.18956
1259.42524	0.18961
1257.49656	0.18983
1255.56789	0.19005
1253.63921	0.19015
1251.71054	0.19006
1249.78186	0.18985
1247.85319	0.18956
1245.92451	0.18919
1243.99583	0.18875
1242.06716	0.18833
1240.13848	0.18791
1238.20981	0.18741
1236.28113	0.18681
1234.35246	0.18620
1232.42378	0.18564
1230.49510	0.18510
1228.56643	0.18459
1226.63775	0.18410
1224.70908	0.18361
1222.78040	0.18312
1220.85173	0.18267
1218.92305	0.18218
1216.99437	0.18163
1215.06570	0.18109
1213.13702	0.18056
1211.20835	0.18000
1209.27967	0.17947
1207.35100	0.17896
1205.42232	0.17836
1203.49364	0.17767
1201.56497	0.17702
1199.63629	0.17645
1197.70762	0.17592
1195.77894	0.17538
1193.85027	0.17480
1191.92159	0.17418
1189.99291	0.17351
1188.06424	0.17280
1186.13556	0.17206
1184.20689	0.17125
1182.27821	0.17037
1180.34954	0.16950
1178.42086	0.16866
1176.49218	0.16781
1174.56351	0.16697
1172.63483	0.16619
1170.70616	0.16537
1168.77748	0.16447
1166.84881	0.16358
1164.92013	0.16274
1162.99145	0.16193
1161.06278	0.16113
1159.13410	0.16034
1157.20543	0.15954
1155.27675	0.15880
1153.34808	0.15810
1151.41940	0.15731
1149.49072	0.15648
1147.56205	0.15564
1145.63337	0.15473
1143.70470	0.15379
1141.77602	0.15286
1139.84735	0.15194
1137.91867	0.15096
1135.98999	0.14981
1134.06132	0.14842
1132.13264	0.14678
1130.20397	0.14493
1128.27529	0.14293
1126.34662	0.14079
1124.41794	0.13851
1122.48926	0.13614
1120.56059	0.13382
1118.63191	0.13162
1116.70324	0.12957
1114.77456	0.12769
1112.84589	0.12606
1110.91721	0.12471
1108.98853	0.12371
1107.05986	0.12305
1105.13118	0.12265
1103.20251	0.12245
1101.27383	0.12251
1099.34516	0.12286
1097.41648	0.12351
1095.48780	0.12434
1093.55913	0.12518
1091.63045	0.12598
1089.70178	0.12677
1087.77310	0.12751
1085.84443	0.12816
1083.91575	0.12865
1081.98707	0.12903
1080.05840	0.12931
1078.12972	0.12947
1076.20105	0.12954
1074.27237	0.12970
1072.34370	0.12996
1070.41502	0.13017
1068.48634	0.13026
1066.55767	0.13035
1064.62899	0.13052
1062.70032	0.13076
1060.77164	0.13108
1058.84297	0.13138
1056.91429	0.13165
1054.98561	0.13193
1053.05694	0.13221
1051.12826	0.13248
1049.19959	0.13281
1047.27091	0.13318
1045.34224	0.13357
1043.41356	0.13392
1041.48488	0.13426
1039.55621	0.13460
1037.62753	0.13497
1035.69886	0.13539
1033.77018	0.13582
1031.84151	0.13619
1029.91283	0.13656
1027.98415	0.13694
1026.05548	0.13729
1024.12680	0.13756
1022.19813	0.13785
1020.26945	0.13826
1018.34078	0.13875
1016.41210	0.13924
1014.48342	0.13969
1012.55475	0.14015
1010.62607	0.14076
1008.69740	0.14149
1006.76872	0.14214
1004.84005	0.14263
1002.91137	0.14302
1000.98269	0.14336
999.05402	0.14365
997.12534	0.14389
995.19667	0.14406
993.26799	0.14417
991.33932	0.14426
989.41064	0.14430
987.48196	0.14437
985.55329	0.14445
983.62461	0.14443
981.69594	0.14432
979.76726	0.14421
977.83859	0.14406
975.90991	0.14384
973.98123	0.14364
972.05256	0.14347
970.12388	0.14331
968.19521	0.14314
966.26653	0.14292
964.33786	0.14269
962.40918	0.14246
960.48050	0.14228
958.55183	0.14218
956.62315	0.14207
954.69448	0.14192
952.76580	0.14175
950.83713	0.14158
948.90845	0.14141
946.97977	0.14124
945.05110	0.14101
943.12242	0.14074
941.19375	0.14042
939.26507	0.13998
937.33640	0.13943
935.40772	0.13890
933.47904	0.13843
931.55037	0.13799
929.62169	0.13756
927.69302	0.13710
925.76434	0.13656
923.83567	0.13593
921.90699	0.13528
919.97831	0.13462
918.04964	0.13390
916.12096	0.13322
914.19229	0.13258
912.26361	0.13185
910.33494	0.13106
908.40626	0.13031
906.47758	0.12968
904.54891	0.12913
902.62023	0.12857
900.69156	0.12796
898.76288	0.12739
896.83421	0.12691
894.90553	0.12643
892.97685	0.12591
891.04818	0.12538
889.11950	0.12491
887.19083	0.12448
885.26215	0.12403
883.33348	0.12364
881.40480	0.12329
879.47612	0.12293
877.54745	0.12261
875.61877	0.12238
873.69010	0.12222
871.76142	0.12201
869.83275	0.12175
867.90407	0.12152
865.97539	0.12134
864.04672	0.12116
862.11804	0.12105
860.18937	0.12105
858.26069	0.12105
856.33202	0.12091
854.40334	0.12064
852.47466	0.12032
850.54599	0.12001
848.61731	0.11975
846.68864	0.11955
844.75996	0.11934
842.83129	0.11907
840.90261	0.11875
838.97394	0.11841
837.04526	0.11798
835.11658	0.11737
833.18791	0.11656
831.25923	0.11565
829.33056	0.11467
827.40188	0.11363
825.47321	0.11258
823.54453	0.11167
821.61585	0.11095
819.68718	0.11035
817.75850	0.10983
815.82983	0.10939
813.90115	0.10900
811.97248	0.10867
810.04380	0.10840
808.11512	0.10821
806.18645	0.10808
804.25777	0.10799
802.32910	0.10791
800.40042	0.10774
798.47175	0.10734
796.54307	0.10673
794.61439	0.10612
792.68572	0.10574
790.75704	0.10551
788.82837	0.10529
786.89969	0.10502
784.97102	0.10471
783.04234	0.10439
781.11366	0.10408
779.18499	0.10383
777.25631	0.10362
775.32764	0.10336
773.39896	0.10307
771.47029	0.10277
769.54161	0.10242
767.61293	0.10201
765.68426	0.10157
763.75558	0.10113
761.82691	0.10065
759.89823	0.10014
757.96956	0.09960
756.04088	0.09903
754.11220	0.09842
752.18353	0.09774
750.25485	0.09703
748.32618	0.09637
746.39750	0.09570
744.46883	0.09489
742.54015	0.09394
740.61147	0.09309
738.68280	0.09258
736.75412	0.09238
734.82545	0.09234
732.89677	0.09236
730.96810	0.09244
729.03942	0.09253
727.11074	0.09258
725.18207	0.09266
723.25339	0.09280
721.32472	0.09298
719.39604	0.09322
717.46737	0.09350
715.53869	0.09383
713.61001	0.09418
711.68134	0.09450
709.75266	0.09468
707.82399	0.09472
705.89531	0.09465
703.96664	0.09450
702.03796	0.09425
700.10928	0.09393
698.18061	0.09352
696.25193	0.09299
694.32326	0.09239
692.39458	0.09179
690.46591	0.09121
688.53723	0.09069
686.60855	0.09019
684.67988	0.08968
682.75120	0.08917
680.82253	0.08869
678.89385	0.08821
676.96518	0.08766
675.03650	0.08709
673.10782	0.08647
671.17915	0.08568
669.25047	0.08471
667.32180	0.08380
665.39312	0.08309
663.46445	0.08238
661.53577	0.08159
659.60709	0.08073
657.67842	0.07984
655.74974	0.07899
653.82107	0.07825
651.89239	0.07753
649.96372	0.07674
648.03504	0.07592
646.10636	0.07505
644.17769	0.07417
642.24901	0.07330
640.32034	0.07233
638.39166	0.07123
636.46299	0.07010
634.53431	0.06894
632.60563	0.06748
630.67696	0.06524
628.74828	0.06179
626.81961	0.05741
624.89093	0.05305
622.96226	0.04950
621.03358	0.04722
619.10490	0.04603
617.17623	0.04521
615.24755	0.04428
613.31888	0.04320
611.39020	0.04221
609.46153	0.04173
607.53285	0.04180
605.60417	0.04220
603.67550	0.04278
601.74682	0.04355
599.81815	0.04443
597.88947	0.04525
595.96080	0.04597
594.03212	0.04651
592.10344	0.04681
590.17477	0.04692
588.24609	0.04689
586.31742	0.04673
584.38874	0.04646
582.46007	0.04612
580.53139	0.04573
578.60271	0.04532
576.67404	0.04484
574.74536	0.04426
572.81669	0.04363
570.88801	0.04302
568.95934	0.04243
567.03066	0.04194
565.10198	0.04157
563.17331	0.04123
561.24463	0.04098
559.31596	0.04082
557.38728	0.04060
555.45861	0.04027
553.52993	0.04000
551.60125	0.03985
549.67258	0.03974
547.74390	0.03961
545.81523	0.03946
543.88655	0.03930
541.95788	0.03913
540.02920	0.03901
538.10052	0.03892
536.17185	0.03873
534.24317	0.03847
532.31450	0.03823
530.38582	0.03792
528.45715	0.03747
526.52847	0.03712
524.59979	0.03695
522.67112	0.03669
520.74244	0.03620
518.81377	0.03556
516.88509	0.03490
514.95642	0.03437
513.02774	0.03411
511.09906	0.03401
509.17039	0.03384
507.24171	0.03356
505.31304	0.03319
503.38436	0.03283
501.45569	0.03247
499.52701	0.03206
497.59833	0.03154
495.66966	0.03091
493.74098	0.03022
491.81231	0.02964
489.88363	0.02917
487.95496	0.02864
486.02628	0.02806
484.09760	0.02750
482.16893	0.02697
480.24025	0.02646
478.31158	0.02598
476.38290	0.02546
474.45423	0.02490
472.52555	0.02435
470.59687	0.02385
468.66820	0.02343
466.73952	0.02316
464.81085	0.02299
462.88217	0.02283
460.95350	0.02268
459.02482	0.02255
457.09614	0.02244
455.16747	0.02241
453.23879	0.02252
451.31012	0.02259
449.38144	0.02247
447.45277	0.02224
445.52409	0.02208
443.59541	0.02203
441.66674	0.02187
439.73806	0.02141
437.80939	0.02080
435.88071	0.02031
433.95204	0.01995
432.02336	0.01946
430.09468	0.01886
428.16601	0.01830
426.23733	0.01766
424.30866	0.01693
422.37998	0.01626
420.45131	0.01565
418.52263	0.01496
416.59395	0.01423
414.66528	0.01358
412.73660	0.01301
410.80793	0.01246
408.87925	0.01193
406.95058	0.01138
405.02190	0.01074
403.09322	0.01003
401.16455	0.00932
399.23587	0.00867
397.30720	0.00809
395.37852	0.00762
393.44985	0.00722
391.52117	0.00683
389.59249	0.00638
387.66382	0.00586
385.73514	0.00541
383.80647	0.00508
381.87779	0.00475
379.94912	0.00434
378.02044	0.00394
376.09176	0.00361
374.16309	0.00340
372.23441	0.00322
370.30574	0.00295
368.37706	0.00259
