7496.76250	0.00115
7494.83382	0.00116
7492.90514	0.00116
7490.97647	0.00117
7489.04779	0.00117
7487.11912	0.00118
7485.19044	0.00119
7483.26177	0.00120
7481.33309	0.00121
7479.40441	0.00120
7477.47574	0.00120
7475.54706	0.00121
7473.61839	0.00122
7471.68971	0.00123
7469.76104	0.00121
7467.83236	0.00120
7465.90368	0.00120
7463.97501	0.00121
7462.04633	0.00122
7460.11766	0.00122
7458.18898	0.00121
7456.26031	0.00122
7454.33163	0.00124
7452.40295	0.00127
7450.47428	0.00127
7448.54560	0.00127
7446.61693	0.00126
7444.68825	0.00125
7442.75958	0.00125
7440.83090	0.00126
7438.90222	0.00126
7436.97355	0.00127
7435.04487	0.00127
7433.11620	0.00128
7431.18752	0.00128
7429.25885	0.00127
7427.33017	0.00128
7425.40149	0.00128
7423.47282	0.00129
7421.54414	0.00130
7419.61547	0.00131
7417.68679	0.00132
7415.75812	0.00131
7413.82944	0.00131
7411.90076	0.00133
7409.97209	0.00134
7408.04341	0.00135
7406.11474	0.00135
7404.18606	0.00134
7402.25739	0.00133
7400.32871	0.00133
7398.40003	0.00133
7396.47136	0.00133
7394.54268	0.00133
7392.61401	0.00134
7390.68533	0.00134
7388.75666	0.00134
7386.82798	0.00136
7384.89930	0.00137
7382.97063	0.00138
7381.04195	0.00137
7379.11328	0.00137
7377.18460	0.00138
7375.25593	0.00139
7373.32725	0.00140
7371.39857	0.00140
7369.46990	0.00140
7367.54122	0.00140
7365.61255	0.00141
7363.68387	0.00140
7361.75520	0.00140
7359.82652	0.00140
7357.89784	0.00139
7355.96917	0.00140
7354.04049	0.00141
7352.11182	0.00141
7350.18314	0.00141
7348.25447	0.00143
7346.32579	0.00144
7344.39711	0.00143
7342.46844	0.00143
7340.53976	0.00143
7338.61109	0.00144
7336.68241	0.00145
7334.75374	0.00146
7332.82506	0.00147
7330.89638	0.00147
7328.96771	0.00146
7327.03903	0.00145
7325.11036	0.00145
7323.18168	0.00146
7321.25301	0.00146
7319.32433	0.00147
7317.39565	0.00147
7315.46698	0.00147
7313.53830	0.00147
7311.60963	0.00147
7309.68095	0.00149
7307.75228	0.00151
7305.82360	0.00152
7303.89492	0.00152
7301.96625	0.00150
7300.03757	0.00149
7298.10890	0.00149
7296.18022	0.00150
7294.25155	0.00150
7292.32287	0.00151
7290.39419	0.00153
7288.46552	0.00154
7286.53684	0.00154
7284.60817	0.00154
7282.67949	0.00153
7280.75082	0.00154
7278.82214	0.00154
7276.89346	0.00154
7274.96479	0.00155
7273.03611	0.00155
7271.10744	0.00156
7269.17876	0.00157
7267.25009	0.00156
7265.32141	0.00155
7263.39273	0.00154
7261.46406	0.00156
7259.53538	0.00157
7257.60671	0.00157
7255.67803	0.00156
7253.74936	0.00157
7251.82068	0.00159
7249.89200	0.00160
7247.96333	0.00161
7246.03465	0.00162
7244.10598	0.00162
7242.17730	0.00161
7240.24863	0.00162
7238.31995	0.00163
7236.39127	0.00164
7234.46260	0.00163
7232.53392	0.00162
7230.60525	0.00163
7228.67657	0.00165
7226.74790	0.00166
7224.81922	0.00165
7222.89054	0.00164
7220.96187	0.00164
7219.03319	0.00164
7217.10452	0.00164
7215.17584	0.00165
7213.24717	0.00167
7211.31849	0.00169
7209.38981	0.00171
7207.46114	0.00171
7205.53246	0.00171
7203.60379	0.00170
7201.67511	0.00169
7199.74644	0.00169
7197.81776	0.00170
7195.88908	0.00170
7193.96041	0.00170
7192.03173	0.00170
7190.10306	0.00172
7188.17438	0.00173
7186.24571	0.00173
7184.31703	0.00173
7182.38835	0.00174
7180.45968	0.00174
7178.53100	0.00173
7176.60233	0.00173
7174.67365	0.00175
7172.74498	0.00176
7170.81630	0.00175
7168.88762	0.00175
7166.95895	0.00175
7165.03027	0.00176
7163.10160	0.00176
7161.17292	0.00176
7159.24425	0.00176
7157.31557	0.00176
7155.38689	0.00177
7153.45822	0.00179
7151.52954	0.00179
7149.60087	0.00178
7147.67219	0.00177
7145.74352	0.00178
7143.81484	0.00181
7141.88616	0.00182
7139.95749	0.00183
7138.02881	0.00183
7136.10014	0.00182
7134.17146	0.00182
7132.24279	0.00181
7130.31411	0.00182
7128.38543	0.00182
7126.45676	0.00183
7124.52808	0.00184
7122.59941	0.00185
7120.67073	0.00185
7118.74206	0.00185
7116.81338	0.00184
7114.88470	0.00186
7112.95603	0.00188
7111.02735	0.00189
7109.09868	0.00189
7107.17000	0.00189
7105.24133	0.00189
7103.31265	0.00189
7101.38397	0.00190
7099.45530	0.00191
7097.52662	0.00191
7095.59795	0.00191
7093.66927	0.00190
7091.74060	0.00191
7089.81192	0.00193
7087.88324	0.00194
7085.95457	0.00194
7084.02589	0.00194
7082.09722	0.00194
7080.16854	0.00195
7078.23987	0.00194
7076.31119	0.00194
7074.38251	0.00194
7072.45384	0.00195
7070.52516	0.00196
7068.59649	0.00197
7066.66781	0.00198
7064.73914	0.00197
7062.81046	0.00196
7060.88178	0.00197
7058.95311	0.00199
7057.02443	0.00200
7055.09576	0.00199
7053.16708	0.00199
7051.23841	0.00200
7049.30973	0.00202
7047.38105	0.00203
7045.45238	0.00202
7043.52370	0.00201
7041.59503	0.00201
7039.66635	0.00202
7037.73768	0.00202
7035.80900	0.00202
7033.88032	0.00202
7031.95165	0.00203
7030.02297	0.00203
7028.09430	0.00204
7026.16562	0.00204
7024.23695	0.00206
7022.30827	0.00209
7020.37959	0.00209
7018.45092	0.00209
7016.52224	0.00209
7014.59357	0.00210
7012.66489	0.00210
7010.73622	0.00211
7008.80754	0.00211
7006.87886	0.00212
7004.95019	0.00213
7003.02151	0.00213
7001.09284	0.00213
6999.16416	0.00212
6997.23549	0.00212
6995.30681	0.00214
6993.37813	0.00215
6991.44946	0.00216
6989.52078	0.00216
6987.59211	0.00216
6985.66343	0.00217
6983.73476	0.00217
6981.80608	0.00218
6979.87740	0.00217
6977.94873	0.00218
6976.02005	0.00219
6974.09138	0.00221
6972.16270	0.00222
6970.23403	0.00222
6968.30535	0.00222
6966.37667	0.00221
6964.44800	0.00221
6962.51932	0.00221
6960.59065	0.00220
6958.66197	0.00220
6956.73330	0.00221
6954.80462	0.00224
6952.87594	0.00226
6950.94727	0.00226
6949.01859	0.00226
6947.08992	0.00225
6945.16124	0.00225
6943.23257	0.00225
6941.30389	0.00227
6939.37521	0.00228
6937.44654	0.00230
6935.51786	0.00230
6933.58919	0.00228
6931.66051	0.00227
6929.73184	0.00227
6927.80316	0.00227
6925.87448	0.00229
6923.94581	0.00231
6922.01713	0.00232
6920.08846	0.00231
6918.15978	0.00233
6916.23111	0.00235
6914.30243	0.00236
6912.37375	0.00235
6910.44508	0.00233
6908.51640	0.00234
6906.58773	0.00235
6904.65905	0.00236
6902.73038	0.00236
6900.80170	0.00235
6898.87302	0.00236
6896.94435	0.00238
6895.01567	0.00238
6893.08700	0.00239
6891.15832	0.00240
6889.22965	0.00241
6887.30097	0.00240
6885.37229	0.00239
6883.44362	0.00239
6881.51494	0.00239
6879.58627	0.00240
6877.65759	0.00241
6875.72892	0.00242
6873.80024	0.00244
6871.87156	0.00245
6869.94289	0.00246
6868.01421	0.00245
6866.08554	0.00245
6864.15686	0.00247
6862.22819	0.00248
6860.29951	0.00248
6858.37083	0.00249
6856.44216	0.00252
6854.51348	0.00252
6852.58481	0.00250
6850.65613	0.00249
6848.72746	0.00249
6846.79878	0.00248
6844.87010	0.00249
6842.94143	0.00251
6841.01275	0.00252
6839.08408	0.00253
6837.15540	0.00255
6835.22673	0.00255
6833.29805	0.00255
6831.36937	0.00256
6829.44070	0.00258
6827.51202	0.00258
6825.58335	0.00257
6823.65467	0.00257
6821.72600	0.00257
6819.79732	0.00258
6817.86864	0.00258
6815.93997	0.00259
6814.01129	0.00259
6812.08262	0.00260
6810.15394	0.00262
6808.22527	0.00263
6806.29659	0.00263
6804.36791	0.00263
6802.43924	0.00264
6800.51056	0.00265
6798.58189	0.00266
6796.65321	0.00266
6794.72454	0.00266
6792.79586	0.00266
6790.86718	0.00267
6788.93851	0.00268
6787.00983	0.00268
6785.08116	0.00268
6783.15248	0.00268
6781.22381	0.00268
6779.29513	0.00268
6777.36645	0.00270
6775.43778	0.00270
6773.50910	0.00271
6771.58043	0.00271
6769.65175	0.00272
6767.72308	0.00274
6765.79440	0.00276
6763.86572	0.00278
6761.93705	0.00277
6760.00837	0.00275
6758.07970	0.00274
6756.15102	0.00275
6754.22235	0.00276
6752.29367	0.00277
6750.36499	0.00279
6748.43632	0.00279
6746.50764	0.00280
6744.57897	0.00281
6742.65029	0.00281
6740.72162	0.00281
6738.79294	0.00281
6736.86426	0.00283
6734.93559	0.00284
6733.00691	0.00286
6731.07824	0.00286
6729.14956	0.00286
6727.22089	0.00285
6725.29221	0.00284
6723.36353	0.00284
6721.43486	0.00286
6719.50618	0.00288
6717.57751	0.00290
6715.64883	0.00291
6713.72016	0.00290
6711.79148	0.00290
6709.86280	0.00289
6707.93413	0.00291
6706.00545	0.00292
6704.07678	0.00293
6702.14810	0.00295
6700.21943	0.00297
6698.29075	0.00295
6696.36207	0.00293
6694.43340	0.00293
6692.50472	0.00295
6690.57605	0.00296
6688.64737	0.00295
6686.71870	0.00295
6684.79002	0.00295
6682.86134	0.00296
6680.93267	0.00298
6679.00399	0.00301
6677.07532	0.00303
6675.14664	0.00303
6673.21797	0.00305
6671.28929	0.00306
6669.36061	0.00306
6667.43194	0.00304
6665.50326	0.00303
6663.57459	0.00304
6661.64591	0.00305
6659.71724	0.00308
6657.78856	0.00311
6655.85988	0.00311
6653.93121	0.00310
6652.00253	0.00310
6650.07386	0.00309
6648.14518	0.00309
6646.21651	0.00309
6644.28783	0.00310
6642.35915	0.00312
6640.43048	0.00314
6638.50180	0.00316
6636.57313	0.00317
6634.64445	0.00317
6632.71578	0.00315
6630.78710	0.00313
6628.85842	0.00314
6626.92975	0.00317
6625.00107	0.00319
6623.07240	0.00319
6621.14372	0.00319
6619.21505	0.00319
6617.28637	0.00320
6615.35769	0.00321
6613.42902	0.00322
6611.50034	0.00322
6609.57167	0.00321
6607.64299	0.00321
6605.71432	0.00322
6603.78564	0.00325
6601.85696	0.00328
6599.92829	0.00330
6597.99961	0.00330
6596.07094	0.00329
6594.14226	0.00328
6592.21359	0.00329
6590.28491	0.00330
6588.35623	0.00331
6586.42756	0.00330
6584.49888	0.00329
6582.57021	0.00329
6580.64153	0.00331
6578.71286	0.00333
6576.78418	0.00335
6574.85550	0.00335
6572.92683	0.00336
6570.99815	0.00337
6569.06948	0.00338
6567.14080	0.00339
6565.21213	0.00341
6563.28345	0.00341
6561.35477	0.00342
6559.42610	0.00343
6557.49742	0.00344
6555.56875	0.00344
6553.64007	0.00343
6551.71140	0.00343
6549.78272	0.00343
6547.85404	0.00345
6545.92537	0.00347
6543.99669	0.00348
6542.06802	0.00348
6540.13934	0.00348
6538.21067	0.00350
6536.28199	0.00351
6534.35331	0.00351
6532.42464	0.00349
6530.49596	0.00348
6528.56729	0.00348
6526.63861	0.00349
6524.70994	0.00350
6522.78126	0.00351
6520.85258	0.00354
6518.92391	0.00356
6516.99523	0.00358
6515.06656	0.00359
6513.13788	0.00360
6511.20921	0.00360
6509.28053	0.00362
6507.35185	0.00363
6505.42318	0.00362
6503.49450	0.00362
6501.56583	0.00362
6499.63715	0.00363
6497.70848	0.00365
6495.77980	0.00366
6493.85112	0.00365
6491.92245	0.00364
6489.99377	0.00365
6488.06510	0.00366
6486.13642	0.00367
6484.20775	0.00367
6482.27907	0.00367
6480.35039	0.00369
6478.42172	0.00372
6476.49304	0.00375
6474.56437	0.00376
6472.63569	0.00376
6470.70702	0.00376
6468.77834	0.00377
6466.84966	0.00378
6464.92099	0.00380
6462.99231	0.00380
6461.06364	0.00381
6459.13496	0.00382
6457.20629	0.00382
6455.27761	0.00380
6453.34893	0.00380
6451.42026	0.00382
6449.49158	0.00385
6447.56291	0.00387
6445.63423	0.00386
6443.70556	0.00385
6441.77688	0.00386
6439.84820	0.00387
6437.91953	0.00386
6435.99085	0.00387
6434.06218	0.00390
6432.13350	0.00392
6430.20483	0.00392
6428.27615	0.00394
6426.34747	0.00395
6424.41880	0.00395
6422.49012	0.00396
6420.56145	0.00396
6418.63277	0.00397
6416.70410	0.00397
6414.77542	0.00398
6412.84674	0.00400
6410.91807	0.00402
6408.98939	0.00402
6407.06072	0.00401
6405.13204	0.00401
6403.20337	0.00402
6401.27469	0.00404
6399.34601	0.00406
6397.41734	0.00407
6395.48866	0.00408
6393.55999	0.00408
6391.63131	0.00408
6389.70264	0.00408
6387.77396	0.00408
6385.84528	0.00410
6383.91661	0.00412
6381.98793	0.00412
6380.05926	0.00413
6378.13058	0.00414
6376.20191	0.00416
6374.27323	0.00419
6372.34455	0.00420
6370.41588	0.00419
6368.48720	0.00418
6366.55853	0.00419
6364.62985	0.00420
6362.70118	0.00422
6360.77250	0.00422
6358.84382	0.00422
6356.91515	0.00423
6354.98647	0.00425
6353.05780	0.00426
6351.12912	0.00426
6349.20045	0.00425
6347.27177	0.00425
6345.34309	0.00427
6343.41442	0.00430
6341.48574	0.00431
6339.55707	0.00431
6337.62839	0.00432
6335.69972	0.00434
6333.77104	0.00435
6331.84236	0.00435
6329.91369	0.00435
6327.98501	0.00435
6326.05634	0.00437
6324.12766	0.00437
6322.19899	0.00437
6320.27031	0.00438
6318.34163	0.00440
6316.41296	0.00443
6314.48428	0.00445
6312.55561	0.00444
6310.62693	0.00443
6308.69826	0.00445
6306.76958	0.00447
6304.84090	0.00448
6302.91223	0.00449
6300.98355	0.00451
6299.05488	0.00453
6297.12620	0.00454
6295.19753	0.00454
6293.26885	0.00455
6291.34017	0.00456
6289.41150	0.00456
6287.48282	0.00456
6285.55415	0.00458
6283.62547	0.00460
6281.69680	0.00461
6279.76812	0.00463
6277.83944	0.00465
6275.91077	0.00466
6273.98209	0.00465
6272.05342	0.00465
6270.12474	0.00467
6268.19607	0.00469
6266.26739	0.00470
6264.33871	0.00470
6262.41004	0.00469
6260.48136	0.00470
6258.55269	0.00471
6256.62401	0.00473
6254.69534	0.00474
6252.76666	0.00474
6250.83798	0.00475
6248.90931	0.00477
6246.98063	0.00478
6245.05196	0.00478
6243.12328	0.00479
6241.19461	0.00480
6239.26593	0.00482
6237.33725	0.00484
6235.40858	0.00485
6233.47990	0.00485
6231.55123	0.00484
6229.62255	0.00484
6227.69388	0.00486
6225.76520	0.00488
6223.83652	0.00490
6221.90785	0.00493
6219.97917	0.00494
6218.05050	0.00494
6216.12182	0.00493
6214.19315	0.00493
6212.26447	0.00494
6210.33579	0.00497
6208.40712	0.00499
6206.47844	0.00502
6204.54977	0.00504
6202.62109	0.00505
6200.69242	0.00505
6198.76374	0.00505
6196.83506	0.00505
6194.90639	0.00506
6192.97771	0.00506
6191.04904	0.00508
6189.12036	0.00510
6187.19169	0.00511
6185.26301	0.00511
6183.33433	0.00512
6181.40566	0.00513
6179.47698	0.00515
6177.54831	0.00516
6175.61963	0.00517
6173.69096	0.00518
6171.76228	0.00518
6169.83360	0.00518
6167.90493	0.00518
6165.97625	0.00520
6164.04758	0.00523
6162.11890	0.00524
6160.19023	0.00524
6158.26155	0.00525
6156.33287	0.00527
6154.40420	0.00529
6152.47552	0.00530
6150.54685	0.00529
6148.61817	0.00530
6146.68950	0.00531
6144.76082	0.00532
6142.83214	0.00533
6140.90347	0.00536
6138.97479	0.00538
6137.04612	0.00539
6135.11744	0.00541
6133.18877	0.00542
6131.26009	0.00542
6129.33141	0.00542
6127.40274	0.00543
6125.47406	0.00544
6123.54539	0.00544
6121.61671	0.00544
6119.68804	0.00545
6117.75936	0.00547
6115.83068	0.00547
6113.90201	0.00548
6111.97333	0.00550
6110.04466	0.00554
6108.11598	0.00557
6106.18731	0.00558
6104.25863	0.00559
6102.32995	0.00559
6100.40128	0.00558
6098.47260	0.00559
6096.54393	0.00561
6094.61525	0.00563
6092.68658	0.00564
6090.75790	0.00566
6088.82922	0.00568
6086.90055	0.00568
6084.97187	0.00567
6083.04320	0.00567
6081.11452	0.00569
6079.18585	0.00571
6077.25717	0.00573
6075.32849	0.00573
6073.39982	0.00573
6071.47114	0.00574
6069.54247	0.00575
6067.61379	0.00577
6065.68512	0.00578
6063.75644	0.00579
6061.82776	0.00581
6059.89909	0.00584
6057.97041	0.00586
6056.04174	0.00587
6054.11306	0.00587
6052.18439	0.00586
6050.25571	0.00588
6048.32703	0.00591
6046.39836	0.00594
6044.46968	0.00596
6042.54101	0.00597
6040.61233	0.00597
6038.68366	0.00597
6036.75498	0.00597
6034.82630	0.00598
6032.89763	0.00598
6030.96895	0.00599
6029.04028	0.00602
6027.11160	0.00605
6025.18293	0.00606
6023.25425	0.00607
6021.32557	0.00609
6019.39690	0.00611
6017.46822	0.00613
6015.53955	0.00614
6013.61087	0.00614
6011.68220	0.00615
6009.75352	0.00616
6007.82484	0.00617
6005.89617	0.00618
6003.96749	0.00620
6002.03882	0.00620
6000.11014	0.00622
5998.18147	0.00624
5996.25279	0.00625
5994.32411	0.00626
5992.39544	0.00627
5990.46676	0.00628
5988.53809	0.00627
5986.60941	0.00627
5984.68074	0.00629
5982.75206	0.00633
5980.82338	0.00635
5978.89471	0.00637
5976.96603	0.00638
5975.03736	0.00641
5973.10868	0.00643
5971.18001	0.00644
5969.25133	0.00644
5967.32265	0.00644
5965.39398	0.00645
5963.46530	0.00645
5961.53663	0.00647
5959.60795	0.00650
5957.67928	0.00653
5955.75060	0.00654
5953.82192	0.00655
5951.89325	0.00657
5949.96457	0.00659
5948.03590	0.00660
5946.10722	0.00662
5944.17855	0.00663
5942.24987	0.00662
5940.32119	0.00663
5938.39252	0.00664
5936.46384	0.00666
5934.53517	0.00667
5932.60649	0.00667
5930.67782	0.00668
5928.74914	0.00670
5926.82046	0.00672
5924.89179	0.00674
5922.96311	0.00676
5921.03444	0.00679
5919.10576	0.00681
5917.17709	0.00683
5915.24841	0.00683
5913.31973	0.00682
5911.39106	0.00682
5909.46238	0.00685
5907.53371	0.00688
5905.60503	0.00690
5903.67636	0.00689
5901.74768	0.00690
5899.81900	0.00692
5897.89033	0.00694
5895.96165	0.00697
5894.03298	0.00697
5892.10430	0.00697
5890.17563	0.00697
5888.24695	0.00699
5886.31827	0.00701
5884.38960	0.00703
5882.46092	0.00706
5880.53225	0.00708
5878.60357	0.00709
5876.67490	0.00709
5874.74622	0.00711
5872.81755	0.00712
5870.88887	0.00713
5868.96019	0.00715
5867.03152	0.00718
5865.10284	0.00719
5863.17417	0.00719
5861.24549	0.00720
5859.31682	0.00722
5857.38814	0.00724
5855.45946	0.00726
5853.53079	0.00727
5851.60211	0.00729
5849.67344	0.00731
5847.74476	0.00733
5845.81609	0.00735
5843.88741	0.00738
5841.95873	0.00739
5840.03006	0.00738
5838.10138	0.00737
5836.17271	0.00739
5834.24403	0.00741
5832.31536	0.00742
5830.38668	0.00743
5828.45800	0.00746
5826.52933	0.00749
5824.60065	0.00751
5822.67198	0.00753
5820.74330	0.00755
5818.81463	0.00756
5816.88595	0.00757
5814.95727	0.00758
5813.02860	0.00761
5811.09992	0.00763
5809.17125	0.00763
5807.24257	0.00764
5805.31390	0.00766
5803.38522	0.00768
5801.45654	0.00770
5799.52787	0.00771
5797.59919	0.00772
5795.67052	0.00774
5793.74184	0.00776
5791.81317	0.00778
5789.88449	0.00780
5787.95581	0.00783
5786.02714	0.00785
5784.09846	0.00786
5782.16979	0.00787
5780.24111	0.00788
5778.31244	0.00788
5776.38376	0.00789
5774.45508	0.00791
5772.52641	0.00794
5770.59773	0.00795
5768.66906	0.00795
5766.74038	0.00795
5764.81171	0.00798
5762.88303	0.00802
5760.95435	0.00805
5759.02568	0.00806
5757.09700	0.00807
5755.16833	0.00808
5753.23965	0.00809
5751.31098	0.00810
5749.38230	0.00812
5747.45362	0.00814
5745.52495	0.00816
5743.59627	0.00817
5741.66760	0.00819
5739.73892	0.00821
5737.81025	0.00820
5735.88157	0.00819
5733.95289	0.00822
5732.02422	0.00826
5730.09554	0.00830
5728.16687	0.00833
5726.23819	0.00835
5724.30952	0.00836
5722.38084	0.00836
5720.45216	0.00837
5718.52349	0.00839
5716.59481	0.00841
5714.66614	0.00842
5712.73746	0.00842
5710.80879	0.00843
5708.88011	0.00844
5706.95143	0.00846
5705.02276	0.00849
5703.09408	0.00850
5701.16541	0.00852
5699.23673	0.00854
5697.30806	0.00857
5695.37938	0.00859
5693.45070	0.00861
5691.52203	0.00863
5689.59335	0.00866
5687.66468	0.00869
5685.73600	0.00869
5683.80733	0.00869
5681.87865	0.00871
5679.94997	0.00873
5678.02130	0.00875
5676.09262	0.00876
5674.16395	0.00877
5672.23527	0.00877
5670.30660	0.00879
5668.37792	0.00880
5666.44924	0.00882
5664.52057	0.00884
5662.59189	0.00888
5660.66322	0.00891
5658.73454	0.00892
5656.80587	0.00892
5654.87719	0.00894
5652.94851	0.00896
5651.01984	0.00897
5649.09116	0.00900
5647.16249	0.00903
5645.23381	0.00904
5643.30514	0.00905
5641.37646	0.00906
5639.44778	0.00907
5637.51911	0.00908
5635.59043	0.00911
5633.66176	0.00915
5631.73308	0.00917
5629.80441	0.00917
5627.87573	0.00916
5625.94705	0.00917
5624.01838	0.00920
5622.08970	0.00924
5620.16103	0.00926
5618.23235	0.00927
5616.30368	0.00928
5614.37500	0.00931
5612.44632	0.00933
5610.51765	0.00935
5608.58897	0.00937
5606.66030	0.00939
5604.73162	0.00939
5602.80295	0.00940
5600.87427	0.00943
5598.94559	0.00948
5597.01692	0.00951
5595.08824	0.00953
5593.15957	0.00955
5591.23089	0.00958
5589.30222	0.00960
5587.37354	0.00960
5585.44486	0.00959
5583.51619	0.00959
5581.58751	0.00961
5579.65884	0.00963
5577.73016	0.00965
5575.80149	0.00968
5573.87281	0.00971
5571.94413	0.00973
5570.01546	0.00976
5568.08678	0.00978
5566.15811	0.00980
5564.22943	0.00982
5562.30076	0.00984
5560.37208	0.00986
5558.44340	0.00988
5556.51473	0.00989
5554.58605	0.00989
5552.65738	0.00989
5550.72870	0.00991
5548.80003	0.00994
5546.87135	0.00997
5544.94267	0.01000
5543.01400	0.01003
5541.08532	0.01004
5539.15665	0.01002
5537.22797	0.01002
5535.29930	0.01005
5533.37062	0.01008
5531.44194	0.01012
5529.51327	0.01015
5527.58459	0.01017
5525.65592	0.01019
5523.72724	0.01021
5521.79857	0.01024
5519.86989	0.01026
5517.94121	0.01028
5516.01254	0.01030
5514.08386	0.01032
5512.15519	0.01034
5510.22651	0.01037
5508.29784	0.01040
5506.36916	0.01041
5504.44048	0.01042
5502.51181	0.01042
5500.58313	0.01045
5498.65446	0.01047
5496.72578	0.01048
5494.79711	0.01049
5492.86843	0.01051
5490.93975	0.01053
5489.01108	0.01057
5487.08240	0.01059
5485.15373	0.01060
5483.22505	0.01062
5481.29638	0.01064
5479.36770	0.01064
5477.43902	0.01064
5475.51035	0.01067
5473.58167	0.01071
5471.65300	0.01076
5469.72432	0.01077
5467.79565	0.01076
5465.86697	0.01077
5463.93829	0.01080
5462.00962	0.01083
5460.08094	0.01085
5458.15227	0.01087
5456.22359	0.01089
5454.29492	0.01091
5452.36624	0.01093
5450.43756	0.01094
5448.50889	0.01096
5446.58021	0.01098
5444.65154	0.01100
5442.72286	0.01103
5440.79419	0.01106
5438.86551	0.01109
5436.93683	0.01112
5435.00816	0.01113
5433.07948	0.01114
5431.15081	0.01115
5429.22213	0.01117
5427.29346	0.01120
5425.36478	0.01123
5423.43610	0.01126
5421.50743	0.01131
5419.57875	0.01134
5417.65008	0.01134
5415.72140	0.01132
5413.79273	0.01134
5411.86405	0.01138
5409.93537	0.01142
5408.00670	0.01143
5406.07802	0.01144
5404.14935	0.01146
5402.22067	0.01148
5400.29200	0.01149
5398.36332	0.01150
5396.43464	0.01151
5394.50597	0.01151
5392.57729	0.01153
5390.64862	0.01158
5388.71994	0.01162
5386.79127	0.01165
5384.86259	0.01167
5382.93391	0.01170
5381.00524	0.01173
5379.07656	0.01175
5377.14789	0.01176
5375.21921	0.01178
5373.29054	0.01181
5371.36186	0.01183
5369.43318	0.01184
5367.50451	0.01186
5365.57583	0.01188
5363.64716	0.01190
5361.71848	0.01193
5359.78981	0.01197
5357.86113	0.01199
5355.93245	0.01199
5354.00378	0.01200
5352.07510	0.01204
5350.14643	0.01208
5348.21775	0.01208
5346.28908	0.01209
5344.36040	0.01210
5342.43172	0.01212
5340.50305	0.01214
5338.57437	0.01215
5336.64570	0.01217
5334.71702	0.01220
5332.78835	0.01224
5330.85967	0.01229
5328.93099	0.01232
5327.00232	0.01232
5325.07364	0.01235
5323.14497	0.01240
5321.21629	0.01242
5319.28762	0.01242
5317.35894	0.01242
5315.43026	0.01243
5313.50159	0.01246
5311.57291	0.01248
5309.64424	0.01250
5307.71556	0.01254
5305.78689	0.01258
5303.85821	0.01261
5301.92953	0.01261
5300.00086	0.01261
5298.07218	0.01262
5296.14351	0.01264
5294.21483	0.01269
5292.28616	0.01274
5290.35748	0.01277
5288.42880	0.01278
5286.50013	0.01279
5284.57145	0.01282
5282.64278	0.01285
5280.71410	0.01287
5278.78543	0.01289
5276.85675	0.01293
5274.92807	0.01295
5272.99940	0.01296
5271.07072	0.01298
5269.14205	0.01301
5267.21337	0.01304
5265.28470	0.01306
5263.35602	0.01306
5261.42734	0.01308
5259.49867	0.01310
5257.56999	0.01312
5255.64132	0.01312
5253.71264	0.01314
5251.78397	0.01318
5249.85529	0.01320
5247.92661	0.01320
5245.99794	0.01321
5244.06926	0.01326
5242.14059	0.01332
5240.21191	0.01335
5238.28324	0.01337
5236.35456	0.01339
5234.42588	0.01341
5232.49721	0.01345
5230.56853	0.01349
5228.63986	0.01351
5226.71118	0.01352
5224.78251	0.01353
5222.85383	0.01354
5220.92515	0.01356
5218.99648	0.01359
5217.06780	0.01362
5215.13913	0.01365
5213.21045	0.01367
5211.28178	0.01368
5209.35310	0.01368
5207.42442	0.01368
5205.49575	0.01371
5203.56707	0.01376
5201.63840	0.01381
5199.70972	0.01385
5197.78105	0.01387
5195.85237	0.01389
5193.92369	0.01390
5191.99502	0.01392
5190.06634	0.01394
5188.13767	0.01396
5186.20899	0.01400
5184.28032	0.01405
5182.35164	0.01408
5180.42296	0.01410
5178.49429	0.01414
5176.56561	0.01417
5174.63694	0.01417
5172.70826	0.01417
5170.77959	0.01418
5168.85091	0.01420
5166.92223	0.01424
5164.99356	0.01426
5163.06488	0.01428
5161.13621	0.01431
5159.20753	0.01435
5157.27886	0.01438
5155.35018	0.01440
5153.42150	0.01443
5151.49283	0.01445
5149.56415	0.01447
5147.63548	0.01450
5145.70680	0.01453
5143.77813	0.01456
5141.84945	0.01456
5139.92077	0.01459
5137.99210	0.01461
5136.06342	0.01464
5134.13475	0.01467
5132.20607	0.01471
5130.27740	0.01472
5128.34872	0.01474
5126.42004	0.01476
5124.49137	0.01478
5122.56269	0.01480
5120.63402	0.01484
5118.70534	0.01486
5116.77667	0.01487
5114.84799	0.01491
5112.91931	0.01494
5110.99064	0.01495
5109.06196	0.01496
5107.13329	0.01501
5105.20461	0.01507
5103.27594	0.01511
5101.34726	0.01511
5099.41858	0.01511
5097.48991	0.01512
5095.56123	0.01516
5093.63256	0.01519
5091.70388	0.01521
5089.77521	0.01524
5087.84653	0.01526
5085.91785	0.01529
5083.98918	0.01532
5082.06050	0.01535
5080.13183	0.01539
5078.20315	0.01542
5076.27448	0.01543
5074.34580	0.01546
5072.41712	0.01547
5070.48845	0.01548
5068.55977	0.01550
5066.63110	0.01553
5064.70242	0.01557
5062.77375	0.01560
5060.84507	0.01563
5058.91639	0.01564
5056.98772	0.01566
5055.05904	0.01570
5053.13037	0.01573
5051.20169	0.01576
5049.27302	0.01579
5047.34434	0.01581
5045.41566	0.01582
5043.48699	0.01584
5041.55831	0.01586
5039.62964	0.01587
5037.70096	0.01590
5035.77229	0.01594
5033.84361	0.01598
5031.91493	0.01601
5029.98626	0.01602
5028.05758	0.01605
5026.12891	0.01607
5024.20023	0.01610
5022.27156	0.01614
5020.34288	0.01617
5018.41420	0.01619
5016.48553	0.01621
5014.55685	0.01624
5012.62818	0.01626
5010.69950	0.01627
5008.77083	0.01630
5006.84215	0.01633
5004.91347	0.01637
5002.98480	0.01640
5001.05612	0.01644
4999.12745	0.01647
4997.19877	0.01648
4995.27010	0.01647
4993.34142	0.01649
4991.41274	0.01653
4989.48407	0.01658
4987.55539	0.01661
4985.62672	0.01663
4983.69804	0.01665
4981.76937	0.01668
4979.84069	0.01671
4977.91201	0.01675
4975.98334	0.01679
4974.05466	0.01683
4972.12599	0.01686
4970.19731	0.01688
4968.26864	0.01691
4966.33996	0.01696
4964.41128	0.01699
4962.48261	0.01700
4960.55393	0.01701
4958.62526	0.01702
4956.69658	0.01705
4954.76791	0.01709
4952.83923	0.01713
4950.91055	0.01716
4948.98188	0.01719
4947.05320	0.01722
4945.12453	0.01722
4943.19585	0.01724
4941.26718	0.01727
4939.33850	0.01731
4937.40982	0.01734
4935.48115	0.01737
4933.55247	0.01741
4931.62380	0.01743
4929.69512	0.01744
4927.76645	0.01749
4925.83777	0.01754
4923.90909	0.01756
4921.98042	0.01757
4920.05174	0.01759
4918.12307	0.01763
4916.19439	0.01765
4914.26572	0.01767
4912.33704	0.01770
4910.40836	0.01773
4908.47969	0.01775
4906.55101	0.01777
4904.62234	0.01780
4902.69366	0.01783
4900.76499	0.01787
4898.83631	0.01789
4896.90763	0.01791
4894.97896	0.01793
4893.05028	0.01795
4891.12161	0.01799
4889.19293	0.01803
4887.26426	0.01808
4885.33558	0.01810
4883.40690	0.01811
4881.47823	0.01812
4879.54955	0.01817
4877.62088	0.01823
4875.69220	0.01828
4873.76353	0.01830
4871.83485	0.01832
4869.90617	0.01834
4867.97750	0.01838
4866.04882	0.01841
4864.12015	0.01843
4862.19147	0.01845
4860.26280	0.01847
4858.33412	0.01851
4856.40544	0.01854
4854.47677	0.01856
4852.54809	0.01858
4850.61942	0.01862
4848.69074	0.01866
4846.76207	0.01869
4844.83339	0.01872
4842.90471	0.01876
4840.97604	0.01878
4839.04736	0.01879
4837.11869	0.01880
4835.19001	0.01882
4833.26134	0.01887
4831.33266	0.01892
4829.40398	0.01896
4827.47531	0.01899
4825.54663	0.01900
4823.61796	0.01903
4821.68928	0.01907
4819.76061	0.01911
4817.83193	0.01913
4815.90325	0.01915
4813.97458	0.01919
4812.04590	0.01924
4810.11723	0.01927
4808.18855	0.01929
4806.25988	0.01932
4804.33120	0.01936
4802.40252	0.01940
4800.47385	0.01942
4798.54517	0.01944
4796.61650	0.01947
4794.68782	0.01950
4792.75915	0.01953
4790.83047	0.01955
4788.90179	0.01956
4786.97312	0.01959
4785.04444	0.01964
4783.11577	0.01969
4781.18709	0.01973
4779.25842	0.01976
4777.32974	0.01979
4775.40106	0.01983
4773.47239	0.01987
4771.54371	0.01989
4769.61504	0.01992
4767.68636	0.01994
4765.75769	0.01996
4763.82901	0.01998
4761.90033	0.02002
4759.97166	0.02007
4758.04298	0.02012
4756.11431	0.02013
4754.18563	0.02014
4752.25696	0.02016
4750.32828	0.02022
4748.39960	0.02028
4746.47093	0.02031
4744.54225	0.02034
4742.61358	0.02036
4740.68490	0.02038
4738.75623	0.02042
4736.82755	0.02046
4734.89887	0.02050
4732.97020	0.02052
4731.04152	0.02055
4729.11285	0.02057
4727.18417	0.02059
4725.25550	0.02062
4723.32682	0.02066
4721.39814	0.02070
4719.46947	0.02071
4717.54079	0.02075
4715.61212	0.02080
4713.68344	0.02083
4711.75477	0.02084
4709.82609	0.02088
4707.89741	0.02092
4705.96874	0.02095
4704.04006	0.02098
4702.11139	0.02102
4700.18271	0.02106
4698.25404	0.02110
4696.32536	0.02112
4694.39668	0.02114
4692.46801	0.02118
4690.53933	0.02124
4688.61066	0.02130
4686.68198	0.02132
4684.75331	0.02134
4682.82463	0.02136
4680.89595	0.02138
4678.96728	0.02140
4677.03860	0.02144
4675.10993	0.02147
4673.18125	0.02151
4671.25258	0.02155
4669.32390	0.02160
4667.39522	0.02164
4665.46655	0.02166
4663.53787	0.02167
4661.60920	0.02169
4659.68052	0.02172
4657.75185	0.02177
4655.82317	0.02182
4653.89449	0.02187
4651.96582	0.02191
4650.03714	0.02194
4648.10847	0.02198
4646.17979	0.02201
4644.25112	0.02205
4642.32244	0.02208
4640.39376	0.02211
4638.46509	0.02214
4636.53641	0.02219
4634.60774	0.02224
4632.67906	0.02228
4630.75039	0.02232
4628.82171	0.02236
4626.89303	0.02238
4624.96436	0.02241
4623.03568	0.02245
4621.10701	0.02249
4619.17833	0.02253
4617.24966	0.02256
4615.32098	0.02259
4613.39230	0.02263
4611.46363	0.02267
4609.53495	0.02269
4607.60628	0.02272
4605.67760	0.02276
4603.74893	0.02279
4601.82025	0.02283
4599.89157	0.02286
4597.96290	0.02291
4596.03422	0.02296
4594.10555	0.02300
4592.17687	0.02305
4590.24820	0.02310
4588.31952	0.02313
4586.39084	0.02317
4584.46217	0.02320
4582.53349	0.02323
4580.60482	0.02326
4578.67614	0.02330
4576.74747	0.02334
4574.81879	0.02337
4572.89011	0.02339
4570.96144	0.02343
4569.03276	0.02348
4567.10409	0.02353
4565.17541	0.02359
4563.24674	0.02364
4561.31806	0.02367
4559.38938	0.02371
4557.46071	0.02375
4555.53203	0.02380
4553.60336	0.02384
4551.67468	0.02387
4549.74601	0.02389
4547.81733	0.02392
4545.88865	0.02396
4543.95998	0.02400
4542.03130	0.02405
4540.10263	0.02408
4538.17395	0.02411
4536.24528	0.02416
4534.31660	0.02422
4532.38792	0.02427
4530.45925	0.02432
4528.53057	0.02435
4526.60190	0.02439
4524.67322	0.02444
4522.74455	0.02449
4520.81587	0.02451
4518.88719	0.02454
4516.95852	0.02457
4515.02984	0.02460
4513.10117	0.02464
4511.17249	0.02468
4509.24382	0.02472
4507.31514	0.02476
4505.38646	0.02478
4503.45779	0.02480
4501.52911	0.02487
4499.60044	0.02494
4497.67176	0.02497
4495.74309	0.02498
4493.81441	0.02502
4491.88573	0.02509
4489.95706	0.02515
4488.02838	0.02518
4486.09971	0.02522
4484.17103	0.02528
4482.24236	0.02533
4480.31368	0.02538
4478.38500	0.02545
4476.45633	0.02552
4474.52765	0.02556
4472.59898	0.02559
4470.67030	0.02563
4468.74163	0.02568
4466.81295	0.02571
4464.88427	0.02574
4462.95560	0.02577
4461.02692	0.02580
4459.09825	0.02583
4457.16957	0.02586
4455.24090	0.02589
4453.31222	0.02593
4451.38354	0.02599
4449.45487	0.02605
4447.52619	0.02610
4445.59752	0.02615
4443.66884	0.02622
4441.74017	0.02629
4439.81149	0.02633
4437.88281	0.02635
4435.95414	0.02636
4434.02546	0.02638
4432.09679	0.02644
4430.16811	0.02650
4428.23944	0.02656
4426.31076	0.02660
4424.38208	0.02664
4422.45341	0.02669
4420.52473	0.02675
4418.59606	0.02680
4416.66738	0.02685
4414.73871	0.02690
4412.81003	0.02694
4410.88135	0.02700
4408.95268	0.02705
4407.02400	0.02709
4405.09533	0.02712
4403.16665	0.02713
4401.23798	0.02716
4399.30930	0.02723
4397.38062	0.02731
4395.45195	0.02737
4393.52327	0.02742
4391.59460	0.02746
4389.66592	0.02750
4387.73725	0.02754
4385.80857	0.02758
4383.87989	0.02762
4381.95122	0.02766
4380.02254	0.02770
4378.09387	0.02773
4376.16519	0.02778
4374.23652	0.02785
4372.30784	0.02792
4370.37916	0.02798
4368.45049	0.02802
4366.52181	0.02807
4364.59314	0.02812
4362.66446	0.02814
4360.73579	0.02817
4358.80711	0.02822
4356.87843	0.02829
4354.94976	0.02836
4353.02108	0.02841
4351.09241	0.02843
4349.16373	0.02847
4347.23506	0.02853
4345.30638	0.02862
4343.37770	0.02868
4341.44903	0.02872
4339.52035	0.02876
4337.59168	0.02882
4335.66300	0.02887
4333.73433	0.02893
4331.80565	0.02900
4329.87697	0.02906
4327.94830	0.02910
4326.01962	0.02914
4324.09095	0.02918
4322.16227	0.02923
4320.23360	0.02928
4318.30492	0.02936
4316.37624	0.02943
4314.44757	0.02947
4312.51889	0.02949
4310.59022	0.02952
4308.66154	0.02958
4306.73287	0.02965
4304.80419	0.02970
4302.87551	0.02976
4300.94684	0.02984
4299.01816	0.02990
4297.08949	0.02994
4295.16081	0.02998
4293.23214	0.03003
4291.30346	0.03008
4289.37478	0.03013
4287.44611	0.03020
4285.51743	0.03027
4283.58876	0.03032
4281.66008	0.03035
4279.73141	0.03039
4277.80273	0.03044
4275.87405	0.03050
4273.94538	0.03056
4272.01670	0.03062
4270.08803	0.03068
4268.15935	0.03074
4266.23068	0.03080
4264.30200	0.03087
4262.37332	0.03094
4260.44465	0.03100
4258.51597	0.03105
4256.58730	0.03109
4254.65862	0.03114
4252.72995	0.03119
4250.80127	0.03125
4248.87259	0.03130
4246.94392	0.03135
4245.01524	0.03140
4243.08657	0.03148
4241.15789	0.03155
4239.22922	0.03160
4237.30054	0.03163
4235.37186	0.03168
4233.44319	0.03175
4231.51451	0.03181
4229.58584	0.03187
4227.65716	0.03193
4225.72849	0.03199
4223.79981	0.03204
4221.87113	0.03208
4219.94246	0.03216
4218.01378	0.03223
4216.08511	0.03230
4214.15643	0.03235
4212.22776	0.03240
4210.29908	0.03245
4208.37040	0.03251
4206.44173	0.03257
4204.51305	0.03263
4202.58438	0.03271
4200.65570	0.03278
4198.72703	0.03283
4196.79835	0.03285
4194.86968	0.03291
4192.94100	0.03298
4191.01232	0.03307
4189.08365	0.03314
4187.15497	0.03320
4185.22630	0.03323
4183.29762	0.03326
4181.36895	0.03331
4179.44027	0.03338
4177.51159	0.03344
4175.58292	0.03350
4173.65424	0.03357
4171.72557	0.03364
4169.79689	0.03371
4167.86822	0.03379
4165.93954	0.03387
4164.01086	0.03394
4162.08219	0.03401
4160.15351	0.03409
4158.22484	0.03414
4156.29616	0.03417
4154.36749	0.03421
4152.43881	0.03428
4150.51013	0.03436
4148.58146	0.03443
4146.65278	0.03449
4144.72411	0.03455
4142.79543	0.03462
4140.86676	0.03470
4138.93808	0.03477
4137.00940	0.03483
4135.08073	0.03488
4133.15205	0.03495
4131.22338	0.03502
4129.29470	0.03508
4127.36603	0.03514
4125.43735	0.03520
4123.50867	0.03527
4121.58000	0.03534
4119.65132	0.03540
4117.72265	0.03547
4115.79397	0.03554
4113.86530	0.03560
4111.93662	0.03568
4110.00794	0.03575
4108.07927	0.03581
4106.15059	0.03587
4104.22192	0.03593
4102.29324	0.03600
4100.36457	0.03607
4098.43589	0.03615
4096.50721	0.03621
4094.57854	0.03626
4092.64986	0.03633
4090.72119	0.03642
4088.79251	0.03650
4086.86384	0.03655
4084.93516	0.03660
4083.00648	0.03667
4081.07781	0.03673
4079.14913	0.03679
4077.22046	0.03686
4075.29178	0.03696
4073.36311	0.03705
4071.43443	0.03713
4069.50575	0.03719
4067.57708	0.03724
4065.64840	0.03731
4063.71973	0.03739
4061.79105	0.03744
4059.86238	0.03749
4057.93370	0.03756
4056.00502	0.03766
4054.07635	0.03774
4052.14767	0.03780
4050.21900	0.03790
4048.29032	0.03800
4046.36165	0.03808
4044.43297	0.03812
4042.50429	0.03818
4040.57562	0.03822
4038.64694	0.03827
4036.71827	0.03834
4034.78959	0.03843
4032.86092	0.03851
4030.93224	0.03857
4029.00356	0.03864
4027.07489	0.03873
4025.14621	0.03882
4023.21754	0.03889
4021.28886	0.03894
4019.36019	0.03900
4017.43151	0.03906
4015.50283	0.03912
4013.57416	0.03919
4011.64548	0.03927
4009.71681	0.03933
4007.78813	0.03939
4005.85946	0.03947
4003.93078	0.03957
4002.00210	0.03968
4000.07343	0.03977
3998.14475	0.03983
3996.21608	0.03990
3994.28740	0.03999
3992.35873	0.04008
3990.43005	0.04015
3988.50137	0.04022
3986.57270	0.04030
3984.64402	0.04038
3982.71535	0.04045
3980.78667	0.04051
3978.85800	0.04057
3976.92932	0.04066
3975.00064	0.04075
3973.07197	0.04082
3971.14329	0.04087
3969.21462	0.04093
3967.28594	0.04100
3965.35727	0.04107
3963.42859	0.04113
3961.49991	0.04120
3959.57124	0.04128
3957.64256	0.04135
3955.71389	0.04144
3953.78521	0.04155
3951.85654	0.04163
3949.92786	0.04169
3947.99918	0.04174
3946.07051	0.04182
3944.14183	0.04189
3942.21316	0.04197
3940.28448	0.04207
3938.35581	0.04218
3936.42713	0.04228
3934.49845	0.04232
3932.56978	0.04237
3930.64110	0.04247
3928.71243	0.04256
3926.78375	0.04260
3924.85508	0.04264
3922.92640	0.04271
3920.99772	0.04278
3919.06905	0.04283
3917.14037	0.04291
3915.21170	0.04304
3913.28302	0.04318
3911.35435	0.04328
3909.42567	0.04335
3907.49699	0.04335
3905.56832	0.04331
3903.63964	0.04331
3901.71097	0.04339
3899.78229	0.04353
3897.85362	0.04373
3895.92494	0.04388
3893.99626	0.04393
3892.06759	0.04396
3890.13891	0.04404
3888.21024	0.04410
3886.28156	0.04412
3884.35289	0.04422
3882.42421	0.04431
3880.49553	0.04437
3878.56686	0.04451
3876.63818	0.04464
3874.70951	0.04467
3872.78083	0.04466
3870.85216	0.04470
3868.92348	0.04482
3866.99480	0.04494
3865.06613	0.04500
3863.13745	0.04511
3861.20878	0.04527
3859.28010	0.04538
3857.35143	0.04535
3855.42275	0.04517
3853.49407	0.04513
3851.56540	0.04540
3849.63672	0.04576
3847.70805	0.04597
3845.77937	0.04603
3843.85070	0.04602
3841.92202	0.04603
3839.99334	0.04605
3838.06467	0.04611
3836.13599	0.04625
3834.20732	0.04640
3832.27864	0.04652
3830.34997	0.04663
3828.42129	0.04675
3826.49261	0.04686
3824.56394	0.04691
3822.63526	0.04686
3820.70659	0.04689
3818.77791	0.04703
3816.84924	0.04715
3814.92056	0.04732
3812.99188	0.04754
3811.06321	0.04767
3809.13453	0.04767
3807.20586	0.04766
3805.27718	0.04772
3803.34851	0.04776
3801.41983	0.04783
3799.49115	0.04797
3797.56248	0.04811
3795.63380	0.04825
3793.70513	0.04840
3791.77645	0.04852
3789.84778	0.04859
3787.91910	0.04866
3785.99042	0.04873
3784.06175	0.04883
3782.13307	0.04891
3780.20440	0.04895
3778.27572	0.04904
3776.34705	0.04921
3774.41837	0.04933
3772.48969	0.04934
3770.56102	0.04935
3768.63234	0.04945
3766.70367	0.04960
3764.77499	0.04972
3762.84632	0.04980
3760.91764	0.04982
3758.98896	0.04986
3757.06029	0.04996
3755.13161	0.05000
3753.20294	0.04993
3751.27426	0.04991
3749.34559	0.05003
3747.41691	0.05008
3745.48823	0.05002
3743.55956	0.05017
3741.63088	0.05052
3739.70221	0.05071
3737.77353	0.05065
3735.84486	0.05058
3733.91618	0.05070
3731.98750	0.05096
3730.05883	0.05120
3728.13015	0.05132
3726.20148	0.05138
3724.27280	0.05147
3722.34413	0.05161
3720.41545	0.05175
3718.48677	0.05188
3716.55810	0.05196
3714.62942	0.05198
3712.70075	0.05196
3710.77207	0.05200
3708.84340	0.05216
3706.91472	0.05235
3704.98604	0.05246
3703.05737	0.05249
3701.12869	0.05256
3699.20002	0.05272
3697.27134	0.05289
3695.34267	0.05299
3693.41399	0.05298
3691.48531	0.05289
3689.55664	0.05287
3687.62796	0.05306
3685.69929	0.05336
3683.77061	0.05357
3681.84194	0.05365
3679.91326	0.05364
3677.98458	0.05354
3676.05591	0.05346
3674.12723	0.05356
3672.19856	0.05372
3670.26988	0.05382
3668.34121	0.05401
3666.41253	0.05424
3664.48385	0.05440
3662.55518	0.05450
3660.62650	0.05457
3658.69783	0.05458
3656.76915	0.05459
3654.84048	0.05467
3652.91180	0.05464
3650.98312	0.05446
3649.05445	0.05437
3647.12577	0.05454
3645.19710	0.05487
3643.26842	0.05516
3641.33975	0.05534
3639.41107	0.05544
3637.48239	0.05550
3635.55372	0.05554
3633.62504	0.05556
3631.69637	0.05547
3629.76769	0.05539
3627.83902	0.05555
3625.91034	0.05585
3623.98166	0.05602
3622.05299	0.05601
3620.12431	0.05597
3618.19564	0.05601
3616.26696	0.05610
3614.33829	0.05617
3612.40961	0.05620
3610.48093	0.05624
3608.55226	0.05633
3606.62358	0.05651
3604.69491	0.05668
3602.76623	0.05677
3600.83756	0.05682
3598.90888	0.05689
3596.98020	0.05692
3595.05153	0.05695
3593.12285	0.05702
3591.19418	0.05705
3589.26550	0.05701
3587.33683	0.05705
3585.40815	0.05725
3583.47947	0.05745
3581.55080	0.05757
3579.62212	0.05765
3577.69345	0.05772
3575.76477	0.05778
3573.83610	0.05785
3571.90742	0.05790
3569.97874	0.05786
3568.05007	0.05781
3566.12139	0.05789
3564.19272	0.05808
3562.26404	0.05825
3560.33537	0.05836
3558.40669	0.05848
3556.47801	0.05857
3554.54934	0.05860
3552.62066	0.05865
3550.69199	0.05872
3548.76331	0.05875
3546.83464	0.05876
3544.90596	0.05883
3542.97728	0.05894
3541.04861	0.05906
3539.11993	0.05916
3537.19126	0.05924
3535.26258	0.05930
3533.33391	0.05934
3531.40523	0.05935
3529.47655	0.05934
3527.54788	0.05936
3525.61920	0.05939
3523.69053	0.05942
3521.76185	0.05950
3519.83318	0.05958
3517.90450	0.05964
3515.97582	0.05968
3514.04715	0.05973
3512.11847	0.05978
3510.18980	0.05982
3508.26112	0.05984
3506.33245	0.05983
3504.40377	0.05980
3502.47509	0.05984
3500.54642	0.05992
3498.61774	0.05998
3496.68907	0.05999
3494.76039	0.06001
3492.83172	0.06005
3490.90304	0.06011
3488.97436	0.06015
3487.04569	0.06017
3485.11701	0.06018
3483.18834	0.06020
3481.25966	0.06025
3479.33099	0.06033
3477.40231	0.06038
3475.47363	0.06042
3473.54496	0.06050
3471.61628	0.06059
3469.68761	0.06066
3467.75893	0.06075
3465.83026	0.06086
3463.90158	0.06098
3461.97290	0.06110
3460.04423	0.06120
3458.11555	0.06127
3456.18688	0.06136
3454.25820	0.06148
3452.32953	0.06158
3450.40085	0.06166
3448.47217	0.06173
3446.54350	0.06181
3444.61482	0.06190
3442.68615	0.06201
3440.75747	0.06216
3438.82880	0.06230
3436.90012	0.06244
3434.97144	0.06263
3433.04277	0.06284
3431.11409	0.06303
3429.18542	0.06321
3427.25674	0.06339
3425.32807	0.06357
3423.39939	0.06375
3421.47071	0.06395
3419.54204	0.06414
3417.61336	0.06430
3415.68469	0.06447
3413.75601	0.06464
3411.82734	0.06480
3409.89866	0.06495
3407.96998	0.06509
3406.04131	0.06520
3404.11263	0.06532
3402.18396	0.06544
3400.25528	0.06559
3398.32661	0.06574
3396.39793	0.06587
3394.46925	0.06599
3392.54058	0.06611
3390.61190	0.06625
3388.68323	0.06641
3386.75455	0.06656
3384.82588	0.06667
3382.89720	0.06678
3380.96852	0.06690
3379.03985	0.06701
3377.11117	0.06712
3375.18250	0.06725
3373.25382	0.06737
3371.32515	0.06748
3369.39647	0.06761
3367.46779	0.06776
3365.53912	0.06788
3363.61044	0.06799
3361.68177	0.06811
3359.75309	0.06823
3357.82442	0.06836
3355.89574	0.06849
3353.96706	0.06863
3352.03839	0.06876
3350.10971	0.06891
3348.18104	0.06907
3346.25236	0.06919
3344.32369	0.06927
3342.39501	0.06935
3340.46633	0.06946
3338.53766	0.06959
3336.60898	0.06975
3334.68031	0.06991
3332.75163	0.07002
3330.82296	0.07011
3328.89428	0.07023
3326.96560	0.07037
3325.03693	0.07050
3323.10825	0.07060
3321.17958	0.07070
3319.25090	0.07082
3317.32223	0.07097
3315.39355	0.07112
3313.46487	0.07124
3311.53620	0.07133
3309.60752	0.07147
3307.67885	0.07162
3305.75017	0.07174
3303.82150	0.07185
3301.89282	0.07197
3299.96414	0.07213
3298.03547	0.07231
3296.10679	0.07248
3294.17812	0.07261
3292.24944	0.07269
3290.32077	0.07278
3288.39209	0.07290
3286.46341	0.07304
3284.53474	0.07318
3282.60606	0.07331
3280.67739	0.07345
3278.74871	0.07359
3276.82004	0.07371
3274.89136	0.07384
3272.96268	0.07397
3271.03401	0.07412
3269.10533	0.07427
3267.17666	0.07441
3265.24798	0.07450
3263.31931	0.07462
3261.39063	0.07477
3259.46195	0.07491
3257.53328	0.07504
3255.60460	0.07517
3253.67593	0.07532
3251.74725	0.07548
3249.81858	0.07563
3247.88990	0.07574
3245.96122	0.07584
3244.03255	0.07599
3242.10387	0.07616
3240.17520	0.07630
3238.24652	0.07640
3236.31785	0.07649
3234.38917	0.07659
3232.46049	0.07673
3230.53182	0.07689
3228.60314	0.07707
3226.67447	0.07723
3224.74579	0.07735
3222.81712	0.07746
3220.88844	0.07758
3218.95976	0.07772
3217.03109	0.07787
3215.10241	0.07798
3213.17374	0.07809
3211.24506	0.07823
3209.31639	0.07838
3207.38771	0.07849
3205.45903	0.07860
3203.53036	0.07876
3201.60168	0.07895
3199.67301	0.07911
3197.74433	0.07924
3195.81566	0.07939
3193.88698	0.07953
3191.95830	0.07967
3190.02963	0.07983
3188.10095	0.07999
3186.17228	0.08012
3184.24360	0.08023
3182.31493	0.08037
3180.38625	0.08049
3178.45757	0.08060
3176.52890	0.08074
3174.60022	0.08092
3172.67155	0.08110
3170.74287	0.08127
3168.81420	0.08140
3166.88552	0.08152
3164.95684	0.08165
3163.02817	0.08180
3161.09949	0.08196
3159.17082	0.08210
3157.24214	0.08222
3155.31347	0.08233
3153.38479	0.08247
3151.45611	0.08263
3149.52744	0.08277
3147.59876	0.08291
3145.67009	0.08303
3143.74141	0.08316
3141.81274	0.08331
3139.88406	0.08346
3137.95538	0.08358
3136.02671	0.08367
3134.09803	0.08377
3132.16936	0.08391
3130.24068	0.08409
3128.31201	0.08426
3126.38333	0.08441
3124.45465	0.08455
3122.52598	0.08468
3120.59730	0.08481
3118.66863	0.08492
3116.73995	0.08506
3114.81128	0.08522
3112.88260	0.08540
3110.95392	0.08556
3109.02525	0.08570
3107.09657	0.08580
3105.16790	0.08592
3103.23922	0.08607
3101.31055	0.08620
3099.38187	0.08633
3097.45319	0.08647
3095.52452	0.08663
3093.59584	0.08676
3091.66717	0.08688
3089.73849	0.08704
3087.80982	0.08721
3085.88114	0.08737
3083.95246	0.08750
3082.02379	0.08760
3080.09511	0.08772
3078.16644	0.08786
3076.23776	0.08802
3074.30909	0.08818
3072.38041	0.08831
3070.45173	0.08843
3068.52306	0.08855
3066.59438	0.08869
3064.66571	0.08882
3062.73703	0.08894
3060.80836	0.08907
3058.87968	0.08920
3056.95100	0.08935
3055.02233	0.08950
3053.09365	0.08964
3051.16498	0.08978
3049.23630	0.08993
3047.30763	0.09008
3045.37895	0.09023
3043.45027	0.09036
3041.52160	0.09051
3039.59292	0.09065
3037.66425	0.09078
3035.73557	0.09089
3033.80690	0.09101
3031.87822	0.09116
3029.94954	0.09133
3028.02087	0.09146
3026.09219	0.09156
3024.16352	0.09168
3022.23484	0.09181
3020.30617	0.09194
3018.37749	0.09208
3016.44881	0.09221
3014.52014	0.09234
3012.59146	0.09248
3010.66279	0.09262
3008.73411	0.09277
3006.80544	0.09294
3004.87676	0.09311
3002.94808	0.09327
3001.01941	0.09342
2999.09073	0.09355
2997.16206	0.09365
2995.23338	0.09376
2993.30471	0.09391
2991.37603	0.09406
2989.44735	0.09416
2987.51868	0.09423
2985.59000	0.09433
2983.66133	0.09442
2981.73265	0.09451
2979.80398	0.09459
2977.87530	0.09463
2975.94662	0.09464
2974.01795	0.09466
2972.08927	0.09465
2970.16060	0.09463
2968.23192	0.09462
2966.30325	0.09460
2964.37457	0.09461
2962.44589	0.09468
2960.51722	0.09481
2958.58854	0.09499
2956.65987	0.09519
2954.73119	0.09542
2952.80252	0.09563
2950.87384	0.09578
2948.94516	0.09590
2947.01649	0.09601
2945.08781	0.09609
2943.15914	0.09615
2941.23046	0.09620
2939.30179	0.09623
2937.37311	0.09623
2935.44443	0.09619
2933.51576	0.09615
2931.58708	0.09612
2929.65841	0.09610
2927.72973	0.09608
2925.80106	0.09608
2923.87238	0.09608
2921.94370	0.09609
2920.01503	0.09615
2918.08635	0.09634
2916.15768	0.09667
2914.22900	0.09708
2912.30033	0.09755
2910.37165	0.09801
2908.44297	0.09837
2906.51430	0.09863
2904.58562	0.09886
2902.65695	0.09912
2900.72827	0.09937
2898.79960	0.09957
2896.87092	0.09975
2894.94224	0.09992
2893.01357	0.10011
2891.08489	0.10030
2889.15622	0.10049
2887.22754	0.10068
2885.29887	0.10088
2883.37019	0.10106
2881.44151	0.10123
2879.51284	0.10135
2877.58416	0.10147
2875.65549	0.10160
2873.72681	0.10172
2871.79814	0.10183
2869.86946	0.10192
2867.94078	0.10202
2866.01211	0.10214
2864.08343	0.10224
2862.15476	0.10232
2860.22608	0.10238
2858.29741	0.10241
2856.36873	0.10240
2854.44005	0.10238
2852.51138	0.10237
2850.58270	0.10246
2848.65403	0.10274
2846.72535	0.10319
2844.79668	0.10367
2842.86800	0.10409
2840.93932	0.10444
2839.01065	0.10473
2837.08197	0.10495
2835.15330	0.10512
2833.22462	0.10531
2831.29595	0.10556
2829.36727	0.10578
2827.43859	0.10593
2825.50992	0.10604
2823.58124	0.10614
2821.65257	0.10628
2819.72389	0.10648
2817.79522	0.10667
2815.86654	0.10682
2813.93786	0.10698
2812.00919	0.10716
2810.08051	0.10730
2808.15184	0.10745
2806.22316	0.10762
2804.29449	0.10780
2802.36581	0.10797
2800.43713	0.10812
2798.50846	0.10828
2796.57978	0.10843
2794.65111	0.10857
2792.72243	0.10871
2790.79376	0.10885
2788.86508	0.10899
2786.93640	0.10914
2785.00773	0.10931
2783.07905	0.10947
2781.15038	0.10963
2779.22170	0.10977
2777.29303	0.10990
2775.36435	0.11004
2773.43567	0.11019
2771.50700	0.11035
2769.57832	0.11052
2767.64965	0.11068
2765.72097	0.11083
2763.79230	0.11096
2761.86362	0.11110
2759.93494	0.11125
2758.00627	0.11142
2756.07759	0.11158
2754.14892	0.11173
2752.22024	0.11186
2750.29157	0.11198
2748.36289	0.11211
2746.43421	0.11226
2744.50554	0.11240
2742.57686	0.11253
2740.64819	0.11268
2738.71951	0.11284
2736.79084	0.11298
2734.86216	0.11312
2732.93348	0.11327
2731.00481	0.11344
2729.07613	0.11360
2727.14746	0.11374
2725.21878	0.11387
2723.29011	0.11400
2721.36143	0.11414
2719.43275	0.11431
2717.50408	0.11449
2715.57540	0.11463
2713.64673	0.11474
2711.71805	0.11485
2709.78938	0.11497
2707.86070	0.11510
2705.93202	0.11529
2704.00335	0.11547
2702.07467	0.11562
2700.14600	0.11576
2698.21732	0.11590
2696.28865	0.11602
2694.35997	0.11613
2692.43129	0.11625
2690.50262	0.11640
2688.57394	0.11653
2686.64527	0.11667
2684.71659	0.11682
2682.78792	0.11699
2680.85924	0.11715
2678.93056	0.11732
2677.00189	0.11749
2675.07321	0.11765
2673.14454	0.11778
2671.21586	0.11788
2669.28719	0.11799
2667.35851	0.11814
2665.42983	0.11829
2663.50116	0.11842
2661.57248	0.11857
2659.64381	0.11874
2657.71513	0.11890
2655.78646	0.11904
2653.85778	0.11918
2651.92910	0.11935
2650.00043	0.11953
2648.07175	0.11971
2646.14308	0.11986
2644.21440	0.11998
2642.28573	0.12013
2640.35705	0.12027
2638.42837	0.12042
2636.49970	0.12059
2634.57102	0.12080
2632.64235	0.12096
2630.71367	0.12108
2628.78500	0.12118
2626.85632	0.12132
2624.92764	0.12149
2622.99897	0.12168
2621.07029	0.12185
2619.14162	0.12201
2617.21294	0.12217
2615.28427	0.12232
2613.35559	0.12245
2611.42691	0.12258
2609.49824	0.12274
2607.56956	0.12291
2605.64089	0.12305
2603.71221	0.12320
2601.78354	0.12335
2599.85486	0.12350
2597.92618	0.12366
2595.99751	0.12380
2594.06883	0.12394
2592.14016	0.12409
2590.21148	0.12425
2588.28281	0.12441
2586.35413	0.12457
2584.42545	0.12474
2582.49678	0.12490
2580.56810	0.12504
2578.63943	0.12520
2576.71075	0.12539
2574.78208	0.12557
2572.85340	0.12570
2570.92472	0.12580
2568.99605	0.12593
2567.06737	0.12609
2565.13870	0.12624
2563.21002	0.12637
2561.28135	0.12652
2559.35267	0.12668
2557.42399	0.12682
2555.49532	0.12695
2553.56664	0.12710
2551.63797	0.12724
2549.70929	0.12738
2547.78062	0.12752
2545.85194	0.12770
2543.92326	0.12788
2541.99459	0.12803
2540.06591	0.12814
2538.13724	0.12826
2536.20856	0.12841
2534.27989	0.12857
2532.35121	0.12873
2530.42253	0.12891
2528.49386	0.12907
2526.56518	0.12922
2524.63651	0.12937
2522.70783	0.12953
2520.77916	0.12969
2518.85048	0.12982
2516.92181	0.12998
2514.99313	0.13017
2513.06445	0.13037
2511.13578	0.13056
2509.20710	0.13068
2507.27843	0.13079
2505.34975	0.13097
2503.42108	0.13119
2501.49240	0.13135
2499.56372	0.13148
2497.63505	0.13164
2495.70637	0.13183
2493.77770	0.13201
2491.84902	0.13217
2489.92035	0.13231
2487.99167	0.13247
2486.06299	0.13263
2484.13432	0.13281
2482.20564	0.13298
2480.27697	0.13316
2478.34829	0.13334
2476.41962	0.13352
2474.49094	0.13369
2472.56226	0.13382
2470.63359	0.13396
2468.70491	0.13412
2466.77624	0.13428
2464.84756	0.13443
2462.91889	0.13458
2460.99021	0.13474
2459.06153	0.13492
2457.13286	0.13511
2455.20418	0.13526
2453.27551	0.13540
2451.34683	0.13557
2449.41816	0.13576
2447.48948	0.13594
2445.56080	0.13612
2443.63213	0.13628
2441.70345	0.13640
2439.77478	0.13653
2437.84610	0.13672
2435.91743	0.13692
2433.98875	0.13707
2432.06007	0.13719
2430.13140	0.13732
2428.20272	0.13750
2426.27405	0.13770
2424.34537	0.13787
2422.41670	0.13805
2420.48802	0.13825
2418.55934	0.13842
2416.63067	0.13852
2414.70199	0.13863
2412.77332	0.13882
2410.84464	0.13898
2408.91597	0.13908
2406.98729	0.13919
2405.05861	0.13937
2403.12994	0.13956
2401.20126	0.13972
2399.27259	0.13987
2397.34391	0.14004
2395.41524	0.14020
2393.48656	0.14034
2391.55788	0.14050
2389.62921	0.14067
2387.70053	0.14084
2385.77186	0.14098
2383.84318	0.14111
2381.91451	0.14119
2379.98583	0.14124
2378.05715	0.14130
2376.12848	0.14136
2374.19980	0.14141
2372.27113	0.14145
2370.34245	0.14147
2368.41378	0.14146
2366.48510	0.14148
2364.55642	0.14157
2362.62775	0.14173
2360.69907	0.14192
2358.77040	0.14210
2356.84172	0.14228
2354.91305	0.14256
2352.98437	0.14293
2351.05569	0.14329
2349.12702	0.14353
2347.19834	0.14362
2345.26967	0.14363
2343.34099	0.14369
2341.41232	0.14382
2339.48364	0.14397
2337.55496	0.14410
2335.62629	0.14424
2333.69761	0.14442
2331.76894	0.14463
2329.84026	0.14482
2327.91159	0.14498
2325.98291	0.14512
2324.05423	0.14529
2322.12556	0.14549
2320.19688	0.14572
2318.26821	0.14599
2316.33953	0.14625
2314.41086	0.14650
2312.48218	0.14673
2310.55350	0.14695
2308.62483	0.14713
2306.69615	0.14727
2304.76748	0.14743
2302.83880	0.14762
2300.91013	0.14782
2298.98145	0.14801
2297.05277	0.14817
2295.12410	0.14832
2293.19542	0.14848
2291.26675	0.14862
2289.33807	0.14878
2287.40940	0.14896
2285.48072	0.14914
2283.55204	0.14928
2281.62337	0.14942
2279.69469	0.14960
2277.76602	0.14980
2275.83734	0.14998
2273.90867	0.15012
2271.97999	0.15025
2270.05131	0.15040
2268.12264	0.15056
2266.19396	0.15072
2264.26529	0.15088
2262.33661	0.15104
2260.40794	0.15121
2258.47926	0.15138
2256.55058	0.15154
2254.62191	0.15172
2252.69323	0.15188
2250.76456	0.15202
2248.83588	0.15217
2246.90721	0.15235
2244.97853	0.15252
2243.04985	0.15264
2241.12118	0.15277
2239.19250	0.15294
2237.26383	0.15311
2235.33515	0.15325
2233.40648	0.15338
2231.47780	0.15357
2229.54912	0.15379
2227.62045	0.15396
2225.69177	0.15407
2223.76310	0.15418
2221.83442	0.15435
2219.90575	0.15456
2217.97707	0.15472
2216.04839	0.15485
2214.11972	0.15499
2212.19104	0.15516
2210.26237	0.15530
2208.33369	0.15541
2206.40502	0.15555
2204.47634	0.15572
2202.54766	0.15589
2200.61899	0.15606
2198.69031	0.15625
2196.76164	0.15641
2194.83296	0.15656
2192.90429	0.15670
2190.97561	0.15687
2189.04693	0.15703
2187.11826	0.15718
2185.18958	0.15726
2183.26091	0.15736
2181.33223	0.15755
2179.40356	0.15780
2177.47488	0.15799
2175.54620	0.15811
2173.61753	0.15827
2171.68885	0.15843
2169.76018	0.15858
2167.83150	0.15873
2165.90283	0.15890
2163.97415	0.15907
2162.04547	0.15921
2160.11680	0.15934
2158.18812	0.15951
2156.25945	0.15970
2154.33077	0.15989
2152.40210	0.16006
2150.47342	0.16020
2148.54474	0.16036
2146.61607	0.16055
2144.68739	0.16075
2142.75872	0.16091
2140.83004	0.16104
2138.90137	0.16117
2136.97269	0.16132
2135.04401	0.16147
2133.11534	0.16162
2131.18666	0.16177
2129.25799	0.16193
2127.32931	0.16214
2125.40064	0.16236
2123.47196	0.16252
2121.54328	0.16266
2119.61461	0.16281
2117.68593	0.16295
2115.75726	0.16308
2113.82858	0.16323
2111.89991	0.16339
2109.97123	0.16356
2108.04255	0.16374
2106.11388	0.16391
2104.18520	0.16408
2102.25653	0.16423
2100.32785	0.16437
2098.39918	0.16451
2096.47050	0.16468
2094.54182	0.16487
2092.61315	0.16505
2090.68447	0.16522
2088.75580	0.16539
2086.82712	0.16556
2084.89845	0.16567
2082.96977	0.16578
2081.04109	0.16593
2079.11242	0.16613
2077.18374	0.16634
2075.25507	0.16653
2073.32639	0.16671
2071.39772	0.16685
2069.46904	0.16696
2067.54036	0.16705
2065.61169	0.16720
2063.68301	0.16740
2061.75434	0.16760
2059.82566	0.16774
2057.89699	0.16788
2055.96831	0.16805
2054.03963	0.16820
2052.11096	0.16838
2050.18228	0.16858
2048.25361	0.16878
2046.32493	0.16895
2044.39626	0.16911
2042.46758	0.16925
2040.53890	0.16938
2038.61023	0.16954
2036.68155	0.16972
2034.75288	0.16989
2032.82420	0.17004
2030.89553	0.17018
2028.96685	0.17032
2027.03817	0.17051
2025.10950	0.17074
2023.18082	0.17093
2021.25215	0.17108
2019.32347	0.17120
2017.39480	0.17132
2015.46612	0.17150
2013.53744	0.17171
2011.60877	0.17188
2009.68009	0.17204
2007.75142	0.17219
2005.82274	0.17231
2003.89407	0.17243
2001.96539	0.17260
2000.03671	0.17277
1998.10804	0.17292
1996.17936	0.17310
1994.25069	0.17327
1992.32201	0.17337
1990.39334	0.17349
1988.46466	0.17368
1986.53598	0.17389
1984.60731	0.17402
1982.67863	0.17408
1980.74996	0.17415
1978.82128	0.17429
1976.89261	0.17449
1974.96393	0.17467
1973.03525	0.17479
1971.10658	0.17490
1969.17790	0.17502
1967.24923	0.17517
1965.32055	0.17537
1963.39188	0.17551
1961.46320	0.17564
1959.53452	0.17580
1957.60585	0.17597
1955.67717	0.17614
1953.74850	0.17632
1951.81982	0.17648
1949.89115	0.17663
1947.96247	0.17676
1946.03379	0.17682
1944.10512	0.17684
1942.17644	0.17697
1940.24777	0.17723
1938.31909	0.17753
1936.39042	0.17777
1934.46174	0.17796
1932.53306	0.17810
1930.60439	0.17820
1928.67571	0.17832
1926.74704	0.17844
1924.81836	0.17850
1922.88969	0.17857
1920.96101	0.17868
1919.03233	0.17877
1917.10366	0.17896
1915.17498	0.17928
1913.24631	0.17955
1911.31763	0.17972
1909.38896	0.17989
1907.46028	0.18009
1905.53160	0.18026
1903.60293	0.18041
1901.67425	0.18055
1899.74558	0.18065
1897.81690	0.18071
1895.88823	0.18081
1893.95955	0.18099
1892.03087	0.18116
1890.10220	0.18131
1888.17352	0.18154
1886.24485	0.18177
1884.31617	0.18191
1882.38750	0.18205
1880.45882	0.18223
1878.53014	0.18240
1876.60147	0.18255
1874.67279	0.18268
1872.74412	0.18272
1870.81544	0.18263
1868.88677	0.18262
1866.95809	0.18291
1865.02941	0.18332
1863.10074	0.18359
1861.17206	0.18377
1859.24339	0.18395
1857.31471	0.18416
1855.38604	0.18434
1853.45736	0.18450
1851.52868	0.18463
1849.60001	0.18472
1847.67133	0.18467
1845.74266	0.18454
1843.81398	0.18466
1841.88531	0.18514
1839.95663	0.18554
1838.02795	0.18568
1836.09928	0.18580
1834.17060	0.18595
1832.24193	0.18595
1830.31325	0.18591
1828.38458	0.18607
1826.45590	0.18628
1824.52722	0.18651
1822.59855	0.18681
1820.66987	0.18705
1818.74120	0.18718
1816.81252	0.18734
1814.88385	0.18752
1812.95517	0.18760
1811.02649	0.18766
1809.09782	0.18780
1807.16914	0.18797
1805.24047	0.18807
1803.31179	0.18805
1801.38312	0.18802
1799.45444	0.18817
1797.52576	0.18846
1795.59709	0.18859
1793.66841	0.18850
1791.73974	0.18855
1789.81106	0.18893
1787.88239	0.18926
1785.95371	0.18934
1784.02503	0.18938
1782.09636	0.18948
1780.16768	0.18960
1778.23901	0.18977
1776.31033	0.18982
1774.38166	0.18965
1772.45298	0.18953
1770.52430	0.18966
1768.59563	0.18992
1766.66695	0.19026
1764.73828	0.19051
1762.80960	0.19053
1760.88093	0.19056
1758.95225	0.19065
1757.02357	0.19071
1755.09490	0.19076
1753.16622	0.19060
1751.23755	0.19029
1749.30887	0.19025
1747.38020	0.19048
1745.45152	0.19068
1743.52284	0.19070
1741.59417	0.19066
1739.66549	0.19069
1737.73682	0.19064
1735.80814	0.19024
1733.87947	0.19001
1731.95079	0.19044
1730.02211	0.19104
1728.09344	0.19144
1726.16476	0.19170
1724.23609	0.19187
1722.30741	0.19189
1720.37874	0.19160
1718.45006	0.19125
1716.52138	0.19130
1714.59271	0.19179
1712.66403	0.19235
1710.73536	0.19269
1708.80668	0.19270
1706.87801	0.19256
1704.94933	0.19249
1703.02065	0.19221
1701.09198	0.19170
1699.16330	0.19166
1697.23463	0.19204
1695.30595	0.19249
1693.37728	0.19302
1691.44860	0.19330
1689.51992	0.19327
1687.59125	0.19302
1685.66257	0.19253
1683.73390	0.19238
1681.80522	0.19285
1679.87655	0.19335
1677.94787	0.19344
1676.01919	0.19331
1674.09052	0.19327
1672.16184	0.19320
1670.23317	0.19308
1668.30449	0.19330
1666.37582	0.19374
1664.44714	0.19387
1662.51846	0.19387
1660.58979	0.19410
1658.66111	0.19429
1656.73244	0.19389
1654.80376	0.19300
1652.87509	0.19266
1650.94641	0.19318
1649.01773	0.19351
1647.08906	0.19348
1645.16038	0.19379
1643.23171	0.19433
1641.30303	0.19459
1639.37436	0.19448
1637.44568	0.19413
1635.51700	0.19399
1633.58833	0.19442
1631.65965	0.19491
1629.73098	0.19496
1627.80230	0.19478
1625.87363	0.19452
1623.94495	0.19419
1622.01627	0.19397
1620.08760	0.19392
1618.15892	0.19397
1616.23025	0.19440
1614.30157	0.19522
1612.37290	0.19590
1610.44422	0.19624
1608.51554	0.19650
1606.58687	0.19677
1604.65819	0.19699
1602.72952	0.19715
1600.80084	0.19738
1598.87217	0.19766
1596.94349	0.19785
1595.01481	0.19796
1593.08614	0.19812
1591.15746	0.19832
1589.22879	0.19851
1587.30011	0.19870
1585.37144	0.19888
1583.44276	0.19899
1581.51408	0.19903
1579.58541	0.19896
1577.65673	0.19878
1575.72806	0.19886
1573.79938	0.19923
1571.87071	0.19936
1569.94203	0.19929
1568.01335	0.19948
1566.08468	0.19981
1564.15600	0.19995
1562.22733	0.19959
1560.29865	0.19884
1558.36998	0.19865
1556.44130	0.19934
1554.51262	0.20015
1552.58395	0.20063
1550.65527	0.20084
1548.72660	0.20096
1546.79792	0.20091
1544.86925	0.20056
1542.94057	0.20009
1541.01189	0.19984
1539.08322	0.20020
1537.15454	0.20091
1535.22587	0.20125
1533.29719	0.20130
1531.36852	0.20149
1529.43984	0.20161
1527.51116	0.20154
1525.58249	0.20143
1523.65381	0.20110
1521.72514	0.20072
1519.79646	0.20079
1517.86779	0.20120
1515.93911	0.20160
1514.01043	0.20190
1512.08176	0.20192
1510.15308	0.20157
1508.22441	0.20115
1506.29573	0.20128
1504.36706	0.20205
1502.43838	0.20262
1500.50970	0.20257
1498.58103	0.20231
1496.65235	0.20232
1494.72368	0.20255
1492.79500	0.20249
1490.86633	0.20208
1488.93765	0.20191
1487.00897	0.20218
1485.08030	0.20246
1483.15162	0.20250
1481.22295	0.20232
1479.29427	0.20198
1477.36560	0.20144
1475.43692	0.20080
1473.50824	0.20029
1471.57957	0.20014
1469.65089	0.20024
1467.72222	0.20012
1465.79354	0.19981
1463.86487	0.19966
1461.93619	0.19949
1460.00751	0.19884
1458.07884	0.19803
1456.15016	0.19793
1454.22149	0.19853
1452.29281	0.19900
1450.36414	0.19907
1448.43546	0.19904
1446.50678	0.19921
1444.57811	0.19949
1442.64943	0.19966
1440.72076	0.19964
1438.79208	0.19931
1436.86341	0.19908
1434.93473	0.19943
1433.00605	0.19994
1431.07738	0.20012
1429.14870	0.20024
1427.22003	0.20044
1425.29135	0.20053
1423.36268	0.20048
1421.43400	0.20023
1419.50532	0.19996
1417.57665	0.20010
1415.64797	0.20058
1413.71930	0.20088
1411.79062	0.20089
1409.86195	0.20081
1407.93327	0.20072
1406.00459	0.20063
1404.07592	0.20065
1402.14724	0.20069
1400.21857	0.20057
1398.28989	0.20035
1396.36122	0.20018
1394.43254	0.20017
1392.50386	0.20031
1390.57519	0.20026
1388.64651	0.19986
1386.71784	0.19950
1384.78916	0.19945
1382.86049	0.19957
1380.93181	0.19966
1379.00313	0.19965
1377.07446	0.19953
1375.14578	0.19941
1373.21711	0.19941
1371.28843	0.19949
1369.35976	0.19954
1367.43108	0.19955
1365.50240	0.19942
1363.57373	0.19921
1361.64505	0.19922
1359.71638	0.19942
1357.78770	0.19957
1355.85903	0.19965
1353.93035	0.19976
1352.00167	0.19987
1350.07300	0.19991
1348.14432	0.19994
1346.21565	0.20004
1344.28697	0.20016
1342.35830	0.20017
1340.42962	0.20001
1338.50094	0.19985
1336.57227	0.19982
1334.64359	0.19989
1332.71492	0.19991
1330.78624	0.19982
1328.85757	0.19967
1326.92889	0.19949
1325.00021	0.19929
1323.07154	0.19909
1321.14286	0.19891
1319.21419	0.19872
1317.28551	0.19851
1315.35684	0.19835
1313.42816	0.19821
1311.49948	0.19806
1309.57081	0.19788
1307.64213	0.19767
1305.71346	0.19746
1303.78478	0.19724
1301.85611	0.19700
1299.92743	0.19678
1297.99875	0.19656
1296.07008	0.19633
1294.14140	0.19614
1292.21273	0.19599
1290.28405	0.19583
1288.35538	0.19564
1286.42670	0.19543
1284.49802	0.19518
1282.56935	0.19493
1280.64067	0.19473
1278.71200	0.19453
1276.78332	0.19422
1274.85465	0.19378
1272.92597	0.19326
1270.99729	0.19267
1269.06862	0.19193
1267.13994	0.19104
1265.21127	0.19018
1263.28259	0.18958
1261.35392	0.18935
1259.42524	0.18942
1257.49656	0.18962
1255.56789	0.18976
1253.63921	0.18976
1251.71054	0.18963
1249.78186	0.18938
1247.85319	0.18906
1245.92451	0.18870
1243.99583	0.18833
1242.06716	0.18794
1240.13848	0.18753
1238.20981	0.18704
1236.28113	0.18646
1234.35246	0.18590
1232.42378	0.18535
1230.49510	0.18482
1228.56643	0.18428
1226.63775	0.18375
1224.70908	0.18323
1222.78040	0.18274
1220.85173	0.18225
1218.92305	0.18175
1216.99437	0.18124
1215.06570	0.18074
1213.13702	0.18023
1211.20835	0.17968
1209.27967	0.17911
1207.35100	0.17853
1205.42232	0.17798
1203.49364	0.17742
1201.56497	0.17686
1199.63629	0.17630
1197.70762	0.17572
1195.77894	0.17508
1193.85027	0.17443
1191.92159	0.17379
1189.99291	0.17307
1188.06424	0.17228
1186.13556	0.17150
1184.20689	0.17072
1182.27821	0.16992
1180.34954	0.16913
1178.42086	0.16834
1176.49218	0.16755
1174.56351	0.16672
1172.63483	0.16586
1170.70616	0.16502
1168.77748	0.16416
1166.84881	0.16330
1164.92013	0.16243
1162.99145	0.16154
1161.06278	0.16065
1159.13410	0.15981
1157.20543	0.15900
1155.27675	0.15823
1153.34808	0.15746
1151.41940	0.15671
1149.49072	0.15600
1147.56205	0.15528
1145.63337	0.15447
1143.70470	0.15358
1141.77602	0.15263
1139.84735	0.15157
1137.91867	0.15046
1135.98999	0.14931
1134.06132	0.14801
1132.13264	0.14648
1130.20397	0.14473
1128.27529	0.14273
1126.34662	0.14050
1124.41794	0.13814
1122.48926	0.13575
1120.56059	0.13343
1118.63191	0.13125
1116.70324	0.12926
1114.77456	0.12746
1112.84589	0.12588
1110.91721	0.12460
1108.98853	0.12362
1107.05986	0.12285
1105.13118	0.12233
1103.20251	0.12217
1101.27383	0.12232
1099.34516	0.12268
1097.41648	0.12324
1095.48780	0.12404
1093.55913	0.12497
1091.63045	0.12584
1089.70178	0.12658
1087.77310	0.12720
1085.84443	0.12777
1083.91575	0.12833
1081.98707	0.12881
1080.05840	0.12912
1078.12972	0.12931
1076.20105	0.12944
1074.27237	0.12953
1072.34370	0.12961
1070.41502	0.12973
1068.48634	0.12990
1066.55767	0.13009
1064.62899	0.13021
1062.70032	0.13033
1060.77164	0.13053
1058.84297	0.13081
1056.91429	0.13110
1054.98561	0.13140
1053.05694	0.13169
1051.12826	0.13196
1049.19959	0.13228
1047.27091	0.13270
1045.34224	0.13317
1043.41356	0.13360
1041.48488	0.13401
1039.55621	0.13445
1037.62753	0.13489
1035.69886	0.13525
1033.77018	0.13554
1031.84151	0.13584
1029.91283	0.13621
1027.98415	0.13665
1026.05548	0.13702
1024.12680	0.13732
1022.19813	0.13761
1020.26945	0.13797
1018.34078	0.13837
1016.41210	0.13880
1014.48342	0.13926
1012.55475	0.13980
1010.62607	0.14043
1008.69740	0.14109
1006.76872	0.14171
1004.84005	0.14227
1002.91137	0.14273
1000.98269	0.14306
999.05402	0.14334
997.12534	0.14358
995.19667	0.14373
993.26799	0.14377
991.33932	0.14381
989.41064	0.14391
987.48196	0.14400
985.55329	0.14408
983.62461	0.14411
981.69594	0.14402
979.76726	0.14383
977.83859	0.14363
975.90991	0.14342
973.98123	0.14323
972.05256	0.14311
970.12388	0.14300
968.19521	0.14281
966.26653	0.14261
964.33786	0.14243
962.40918	0.14222
960.48050	0.14201
958.55183	0.14189
956.62315	0.14181
954.69448	0.14168
952.76580	0.14150
950.83713	0.14131
948.90845	0.14112
946.97977	0.14090
945.05110	0.14065
943.12242	0.14039
941.19375	0.14006
939.26507	0.13967
937.33640	0.13928
935.40772	0.13882
933.47904	0.13831
931.55037	0.13782
929.62169	0.13731
927.69302	0.13675
925.76434	0.13613
923.83567	0.13549
921.90699	0.13484
919.97831	0.13424
918.04964	0.13365
916.12096	0.13300
914.19229	0.13226
912.26361	0.13149
910.33494	0.13073
908.40626	0.12999
906.47758	0.12930
904.54891	0.12868
902.62023	0.12807
900.69156	0.12748
898.76288	0.12694
896.83421	0.12641
894.90553	0.12588
892.97685	0.12540
891.04818	0.12494
889.11950	0.12449
887.19083	0.12409
885.26215	0.12370
883.33348	0.12330
881.40480	0.12292
879.47612	0.12264
877.54745	0.12246
875.61877	0.12226
873.69010	0.12196
871.76142	0.12163
869.83275	0.12140
867.90407	0.12125
865.97539	0.12110
864.04672	0.12094
862.11804	0.12084
860.18937	0.12080
858.26069	0.12074
856.33202	0.12061
854.40334	0.12041
852.47466	0.12015
850.54599	0.11985
848.61731	0.11956
846.68864	0.11932
844.75996	0.11906
842.83129	0.11877
840.90261	0.11848
838.97394	0.11811
837.04526	0.11757
835.11658	0.11695
833.18791	0.11624
831.25923	0.11540
829.33056	0.11444
827.40188	0.11343
825.47321	0.11246
823.54453	0.11157
821.61585	0.11073
819.68718	0.10999
817.75850	0.10942
815.82983	0.10900
813.90115	0.10869
811.97248	0.10846
810.04380	0.10825
808.11512	0.10800
806.18645	0.10782
804.25777	0.10779
802.32910	0.10778
800.40042	0.10753
798.47175	0.10699
796.54307	0.10637
794.61439	0.10588
792.68572	0.10553
790.75704	0.10527
788.82837	0.10503
786.89969	0.10480
784.97102	0.10453
783.04234	0.10424
781.11366	0.10400
779.18499	0.10375
777.25631	0.10339
775.32764	0.10298
773.39896	0.10264
771.47029	0.10240
769.54161	0.10216
767.61293	0.10182
765.68426	0.10136
763.75558	0.10086
761.82691	0.10036
759.89823	0.09985
757.96956	0.09930
756.04088	0.09873
754.11220	0.09815
752.18353	0.09755
750.25485	0.09694
748.32618	0.09628
746.39750	0.09549
744.46883	0.09457
742.54015	0.09362
740.61147	0.09280
738.68280	0.09231
736.75412	0.09212
734.82545	0.09210
732.89677	0.09216
730.96810	0.09226
729.03942	0.09236
727.11074	0.09248
725.18207	0.09259
723.25339	0.09260
721.32472	0.09268
719.39604	0.09295
717.46737	0.09325
715.53869	0.09353
713.61001	0.09396
711.68134	0.09444
709.75266	0.09476
707.82399	0.09482
705.89531	0.09470
703.96664	0.09452
702.03796	0.09425
700.10928	0.09386
698.18061	0.09338
696.25193	0.09284
694.32326	0.09231
692.39458	0.09182
690.46591	0.09128
688.53723	0.09071
686.60855	0.09015
684.67988	0.08956
682.75120	0.08906
680.82253	0.08870
678.89385	0.08826
676.96518	0.08758
675.03650	0.08680
673.10782	0.08606
671.17915	0.08534
669.25047	0.08460
667.32180	0.08387
665.39312	0.08318
663.46445	0.08240
661.53577	0.08152
659.60709	0.08062
657.67842	0.07975
655.74974	0.07896
653.82107	0.07823
651.89239	0.07748
649.96372	0.07664
648.03504	0.07575
646.10636	0.07483
644.17769	0.07392
642.24901	0.07303
640.32034	0.07210
638.39166	0.07101
636.46299	0.06982
634.53431	0.06865
632.60563	0.06722
630.67696	0.06495
628.74828	0.06153
626.81961	0.05724
624.89093	0.05290
622.96226	0.04940
621.03358	0.04713
619.10490	0.04590
617.17623	0.04506
615.24755	0.04420
613.31888	0.04320
611.39020	0.04223
609.46153	0.04174
607.53285	0.04182
605.60417	0.04216
603.67550	0.04263
601.74682	0.04336
599.81815	0.04435
597.88947	0.04530
595.96080	0.04595
594.03212	0.04641
592.10344	0.04672
590.17477	0.04681
588.24609	0.04673
586.31742	0.04658
584.38874	0.04633
582.46007	0.04598
580.53139	0.04559
578.60271	0.04517
576.67404	0.04474
574.74536	0.04429
572.81669	0.04374
570.88801	0.04309
568.95934	0.04243
567.03066	0.04188
565.10198	0.04143
563.17331	0.04111
561.24463	0.04089
559.31596	0.04067
557.38728	0.04040
555.45861	0.04016
553.52993	0.03996
551.60125	0.03978
549.67258	0.03966
547.74390	0.03955
545.81523	0.03941
543.88655	0.03922
541.95788	0.03906
540.02920	0.03895
538.10052	0.03883
536.17185	0.03862
534.24317	0.03830
532.31450	0.03801
530.38582	0.03778
528.45715	0.03750
526.52847	0.03719
524.59979	0.03693
522.67112	0.03666
520.74244	0.03624
518.81377	0.03558
516.88509	0.03481
514.95642	0.03422
513.02774	0.03393
511.09906	0.03374
509.17039	0.03347
507.24171	0.03329
505.31304	0.03319
503.38436	0.03300
501.45569	0.03261
499.52701	0.03198
497.59833	0.03126
495.66966	0.03069
493.74098	0.03022
491.81231	0.02972
489.88363	0.02922
487.95496	0.02868
486.02628	0.02805
484.09760	0.02744
482.16893	0.02683
480.24025	0.02619
478.31158	0.02565
476.38290	0.02526
474.45423	0.02495
472.52555	0.02454
470.59687	0.02407
468.66820	0.02362
466.73952	0.02317
464.81085	0.02277
462.88217	0.02256
460.95350	0.02248
459.02482	0.02243
457.09614	0.02240
455.16747	0.02241
453.23879	0.02243
451.31012	0.02241
449.38144	0.02238
447.45277	0.02227
445.52409	0.02204
443.59541	0.02173
441.66674	0.02140
439.73806	0.02106
437.80939	0.02072
435.88071	0.02039
433.95204	0.02000
432.02336	0.01944
430.09468	0.01873
428.16601	0.01797
426.23733	0.01734
424.30866	0.01686
422.37998	0.01632
420.45131	0.01559
418.52263	0.01483
416.59395	0.01421
414.66528	0.01366
412.73660	0.01304
410.80793	0.01235
408.87925	0.01171
406.95058	0.01112
405.02190	0.01055
403.09322	0.00996
401.16455	0.00931
399.23587	0.00866
397.30720	0.00821
395.37852	0.00788
393.44985	0.00743
391.52117	0.00686
389.59249	0.00634
387.66382	0.00588
385.73514	0.00542
383.80647	0.00498
381.87779	0.00462
379.94912	0.00434
378.02044	0.00399
376.09176	0.00349
374.16309	0.00307
372.23441	0.00289
370.30574	0.00284
368.37706	0.00267
