7496.76250	0.00119
7494.83382	0.00119
7492.90514	0.00118
7490.97647	0.00119
7489.04779	0.00119
7487.11912	0.00119
7485.19044	0.00119
7483.26177	0.00120
7481.33309	0.00121
7479.40441	0.00121
7477.47574	0.00121
7475.54706	0.00120
7473.61839	0.00120
7471.68971	0.00120
7469.76104	0.00122
7467.83236	0.00123
7465.90368	0.00123
7463.97501	0.00121
7462.04633	0.00121
7460.11766	0.00122
7458.18898	0.00124
7456.26031	0.00124
7454.33163	0.00123
7452.40295	0.00124
7450.47428	0.00125
7448.54560	0.00125
7446.61693	0.00125
7444.68825	0.00124
7442.75958	0.00124
7440.83090	0.00125
7438.90222	0.00125
7436.97355	0.00125
7435.04487	0.00125
7433.11620	0.00126
7431.18752	0.00128
7429.25885	0.00128
7427.33017	0.00127
7425.40149	0.00127
7423.47282	0.00127
7421.54414	0.00127
7419.61547	0.00128
7417.68679	0.00129
7415.75812	0.00129
7413.82944	0.00130
7411.90076	0.00132
7409.97209	0.00132
7408.04341	0.00132
7406.11474	0.00132
7404.18606	0.00133
7402.25739	0.00133
7400.32871	0.00132
7398.40003	0.00133
7396.47136	0.00134
7394.54268	0.00134
7392.61401	0.00133
7390.68533	0.00134
7388.75666	0.00135
7386.82798	0.00135
7384.89930	0.00135
7382.97063	0.00135
7381.04195	0.00135
7379.11328	0.00136
7377.18460	0.00137
7375.25593	0.00137
7373.32725	0.00138
7371.39857	0.00139
7369.46990	0.00139
7367.54122	0.00139
7365.61255	0.00140
7363.68387	0.00141
7361.75520	0.00142
7359.82652	0.00142
7357.89784	0.00142
7355.96917	0.00141
7354.04049	0.00142
7352.11182	0.00142
7350.18314	0.00142
7348.25447	0.00143
7346.32579	0.00144
7344.39711	0.00144
7342.46844	0.00143
7340.53976	0.00144
7338.61109	0.00144
7336.68241	0.00144
7334.75374	0.00145
7332.82506	0.00146
7330.89638	0.00145
7328.96771	0.00144
7327.03903	0.00144
7325.11036	0.00144
7323.18168	0.00145
7321.25301	0.00146
7319.32433	0.00148
7317.39565	0.00149
7315.46698	0.00149
7313.53830	0.00148
7311.60963	0.00148
7309.68095	0.00150
7307.75228	0.00152
7305.82360	0.00153
7303.89492	0.00153
7301.96625	0.00153
7300.03757	0.00153
7298.10890	0.00152
7296.18022	0.00152
7294.25155	0.00152
7292.32287	0.00152
7290.39419	0.00152
7288.46552	0.00152
7286.53684	0.00153
7284.60817	0.00154
7282.67949	0.00155
7280.75082	0.00154
7278.82214	0.00155
7276.89346	0.00155
7274.96479	0.00154
7273.03611	0.00154
7271.10744	0.00154
7269.17876	0.00155
7267.25009	0.00157
7265.32141	0.00158
7263.39273	0.00159
7261.46406	0.00159
7259.53538	0.00160
7257.60671	0.00160
7255.67803	0.00160
7253.74936	0.00159
7251.82068	0.00158
7249.89200	0.00158
7247.96333	0.00160
7246.03465	0.00162
7244.10598	0.00164
7242.17730	0.00164
7240.24863	0.00162
7238.31995	0.00161
7236.39127	0.00160
7234.46260	0.00160
7232.53392	0.00161
7230.60525	0.00163
7228.67657	0.00164
7226.74790	0.00165
7224.81922	0.00165
7222.89054	0.00167
7220.96187	0.00168
7219.03319	0.00169
7217.10452	0.00169
7215.17584	0.00167
7213.24717	0.00167
7211.31849	0.00167
7209.38981	0.00168
7207.46114	0.00168
7205.53246	0.00168
7203.60379	0.00169
7201.67511	0.00170
7199.74644	0.00170
7197.81776	0.00171
7195.88908	0.00171
7193.96041	0.00172
7192.03173	0.00174
7190.10306	0.00173
7188.17438	0.00173
7186.24571	0.00173
7184.31703	0.00174
7182.38835	0.00174
7180.45968	0.00174
7178.53100	0.00175
7176.60233	0.00175
7174.67365	0.00175
7172.74498	0.00175
7170.81630	0.00175
7168.88762	0.00175
7166.95895	0.00175
7165.03027	0.00175
7163.10160	0.00176
7161.17292	0.00176
7159.24425	0.00176
7157.31557	0.00177
7155.38689	0.00178
7153.45822	0.00179
7151.52954	0.00180
7149.60087	0.00182
7147.67219	0.00182
7145.74352	0.00182
7143.81484	0.00182
7141.88616	0.00182
7139.95749	0.00181
7138.02881	0.00182
7136.10014	0.00184
7134.17146	0.00185
7132.24279	0.00186
7130.31411	0.00185
7128.38543	0.00184
7126.45676	0.00184
7124.52808	0.00185
7122.59941	0.00187
7120.67073	0.00188
7118.74206	0.00187
7116.81338	0.00187
7114.88470	0.00186
7112.95603	0.00186
7111.02735	0.00186
7109.09868	0.00188
7107.17000	0.00190
7105.24133	0.00192
7103.31265	0.00191
7101.38397	0.00190
7099.45530	0.00190
7097.52662	0.00190
7095.59795	0.00189
7093.66927	0.00188
7091.74060	0.00189
7089.81192	0.00190
7087.88324	0.00192
7085.95457	0.00193
7084.02589	0.00194
7082.09722	0.00193
7080.16854	0.00193
7078.23987	0.00195
7076.31119	0.00197
7074.38251	0.00197
7072.45384	0.00196
7070.52516	0.00194
7068.59649	0.00195
7066.66781	0.00196
7064.73914	0.00199
7062.81046	0.00200
7060.88178	0.00201
7058.95311	0.00201
7057.02443	0.00202
7055.09576	0.00202
7053.16708	0.00202
7051.23841	0.00202
7049.30973	0.00200
7047.38105	0.00200
7045.45238	0.00200
7043.52370	0.00201
7041.59503	0.00202
7039.66635	0.00203
7037.73768	0.00205
7035.80900	0.00206
7033.88032	0.00206
7031.95165	0.00206
7030.02297	0.00206
7028.09430	0.00206
7026.16562	0.00205
7024.23695	0.00205
7022.30827	0.00206
7020.37959	0.00208
7018.45092	0.00210
7016.52224	0.00209
7014.59357	0.00209
7012.66489	0.00209
7010.73622	0.00210
7008.80754	0.00210
7006.87886	0.00211
7004.95019	0.00213
7003.02151	0.00214
7001.09284	0.00214
6999.16416	0.00214
6997.23549	0.00213
6995.30681	0.00213
6993.37813	0.00214
6991.44946	0.00214
6989.52078	0.00216
6987.59211	0.00218
6985.66343	0.00218
6983.73476	0.00218
6981.80608	0.00218
6979.87740	0.00217
6977.94873	0.00217
6976.02005	0.00219
6974.09138	0.00221
6972.16270	0.00222
6970.23403	0.00221
6968.30535	0.00220
6966.37667	0.00219
6964.44800	0.00219
6962.51932	0.00220
6960.59065	0.00220
6958.66197	0.00221
6956.73330	0.00222
6954.80462	0.00224
6952.87594	0.00224
6950.94727	0.00224
6949.01859	0.00226
6947.08992	0.00229
6945.16124	0.00230
6943.23257	0.00228
6941.30389	0.00225
6939.37521	0.00225
6937.44654	0.00228
6935.51786	0.00229
6933.58919	0.00230
6931.66051	0.00230
6929.73184	0.00228
6927.80316	0.00226
6925.87448	0.00227
6923.94581	0.00229
6922.01713	0.00230
6920.08846	0.00232
6918.15978	0.00233
6916.23111	0.00234
6914.30243	0.00234
6912.37375	0.00235
6910.44508	0.00235
6908.51640	0.00235
6906.58773	0.00235
6904.65905	0.00235
6902.73038	0.00235
6900.80170	0.00235
6898.87302	0.00234
6896.94435	0.00234
6895.01567	0.00234
6893.08700	0.00235
6891.15832	0.00236
6889.22965	0.00237
6887.30097	0.00239
6885.37229	0.00241
6883.44362	0.00243
6881.51494	0.00244
6879.58627	0.00245
6877.65759	0.00245
6875.72892	0.00244
6873.80024	0.00243
6871.87156	0.00243
6869.94289	0.00245
6868.01421	0.00247
6866.08554	0.00247
6864.15686	0.00245
6862.22819	0.00245
6860.29951	0.00247
6858.37083	0.00249
6856.44216	0.00249
6854.51348	0.00248
6852.58481	0.00248
6850.65613	0.00247
6848.72746	0.00247
6846.79878	0.00248
6844.87010	0.00249
6842.94143	0.00251
6841.01275	0.00252
6839.08408	0.00253
6837.15540	0.00254
6835.22673	0.00256
6833.29805	0.00256
6831.36937	0.00256
6829.44070	0.00255
6827.51202	0.00256
6825.58335	0.00258
6823.65467	0.00260
6821.72600	0.00260
6819.79732	0.00261
6817.86864	0.00262
6815.93997	0.00261
6814.01129	0.00260
6812.08262	0.00260
6810.15394	0.00260
6808.22527	0.00261
6806.29659	0.00261
6804.36791	0.00260
6802.43924	0.00261
6800.51056	0.00263
6798.58189	0.00264
6796.65321	0.00265
6794.72454	0.00266
6792.79586	0.00266
6790.86718	0.00265
6788.93851	0.00264
6787.00983	0.00265
6785.08116	0.00267
6783.15248	0.00270
6781.22381	0.00272
6779.29513	0.00272
6777.36645	0.00272
6775.43778	0.00273
6773.50910	0.00273
6771.58043	0.00272
6769.65175	0.00271
6767.72308	0.00272
6765.79440	0.00273
6763.86572	0.00274
6761.93705	0.00274
6760.00837	0.00274
6758.07970	0.00276
6756.15102	0.00277
6754.22235	0.00277
6752.29367	0.00276
6750.36499	0.00276
6748.43632	0.00276
6746.50764	0.00277
6744.57897	0.00280
6742.65029	0.00284
6740.72162	0.00284
6738.79294	0.00282
6736.86426	0.00282
6734.93559	0.00282
6733.00691	0.00284
6731.07824	0.00286
6729.14956	0.00286
6727.22089	0.00285
6725.29221	0.00284
6723.36353	0.00285
6721.43486	0.00287
6719.50618	0.00290
6717.57751	0.00291
6715.64883	0.00290
6713.72016	0.00289
6711.79148	0.00289
6709.86280	0.00291
6707.93413	0.00293
6706.00545	0.00294
6704.07678	0.00294
6702.14810	0.00293
6700.21943	0.00293
6698.29075	0.00295
6696.36207	0.00296
6694.43340	0.00297
6692.50472	0.00297
6690.57605	0.00298
6688.64737	0.00298
6686.71870	0.00297
6684.79002	0.00298
6682.86134	0.00297
6680.93267	0.00297
6679.00399	0.00298
6677.07532	0.00301
6675.14664	0.00304
6673.21797	0.00304
6671.28929	0.00305
6669.36061	0.00306
6667.43194	0.00307
6665.50326	0.00308
6663.57459	0.00307
6661.64591	0.00306
6659.71724	0.00305
6657.78856	0.00305
6655.85988	0.00305
6653.93121	0.00307
6652.00253	0.00309
6650.07386	0.00311
6648.14518	0.00310
6646.21651	0.00310
6644.28783	0.00310
6642.35915	0.00311
6640.43048	0.00311
6638.50180	0.00312
6636.57313	0.00313
6634.64445	0.00314
6632.71578	0.00316
6630.78710	0.00318
6628.85842	0.00319
6626.92975	0.00318
6625.00107	0.00317
6623.07240	0.00319
6621.14372	0.00321
6619.21505	0.00322
6617.28637	0.00322
6615.35769	0.00322
6613.42902	0.00322
6611.50034	0.00323
6609.57167	0.00324
6607.64299	0.00325
6605.71432	0.00325
6603.78564	0.00325
6601.85696	0.00327
6599.92829	0.00330
6597.99961	0.00331
6596.07094	0.00330
6594.14226	0.00328
6592.21359	0.00327
6590.28491	0.00327
6588.35623	0.00329
6586.42756	0.00331
6584.49888	0.00331
6582.57021	0.00332
6580.64153	0.00333
6578.71286	0.00335
6576.78418	0.00336
6574.85550	0.00337
6572.92683	0.00338
6570.99815	0.00337
6569.06948	0.00337
6567.14080	0.00337
6565.21213	0.00337
6563.28345	0.00338
6561.35477	0.00339
6559.42610	0.00341
6557.49742	0.00342
6555.56875	0.00343
6553.64007	0.00343
6551.71140	0.00344
6549.78272	0.00344
6547.85404	0.00346
6545.92537	0.00346
6543.99669	0.00346
6542.06802	0.00346
6540.13934	0.00347
6538.21067	0.00348
6536.28199	0.00350
6534.35331	0.00352
6532.42464	0.00353
6530.49596	0.00354
6528.56729	0.00353
6526.63861	0.00353
6524.70994	0.00353
6522.78126	0.00355
6520.85258	0.00357
6518.92391	0.00358
6516.99523	0.00358
6515.06656	0.00357
6513.13788	0.00358
6511.20921	0.00359
6509.28053	0.00359
6507.35185	0.00359
6505.42318	0.00359
6503.49450	0.00359
6501.56583	0.00360
6499.63715	0.00362
6497.70848	0.00364
6495.77980	0.00367
6493.85112	0.00369
6491.92245	0.00371
6489.99377	0.00371
6488.06510	0.00370
6486.13642	0.00371
6484.20775	0.00372
6482.27907	0.00373
6480.35039	0.00374
6478.42172	0.00375
6476.49304	0.00374
6474.56437	0.00372
6472.63569	0.00372
6470.70702	0.00374
6468.77834	0.00377
6466.84966	0.00380
6464.92099	0.00381
6462.99231	0.00380
6461.06364	0.00379
6459.13496	0.00380
6457.20629	0.00381
6455.27761	0.00380
6453.34893	0.00381
6451.42026	0.00384
6449.49158	0.00385
6447.56291	0.00384
6445.63423	0.00384
6443.70556	0.00385
6441.77688	0.00387
6439.84820	0.00388
6437.91953	0.00389
6435.99085	0.00390
6434.06218	0.00391
6432.13350	0.00390
6430.20483	0.00390
6428.27615	0.00392
6426.34747	0.00392
6424.41880	0.00393
6422.49012	0.00395
6420.56145	0.00397
6418.63277	0.00398
6416.70410	0.00398
6414.77542	0.00399
6412.84674	0.00400
6410.91807	0.00401
6408.98939	0.00402
6407.06072	0.00403
6405.13204	0.00403
6403.20337	0.00404
6401.27469	0.00405
6399.34601	0.00405
6397.41734	0.00406
6395.48866	0.00407
6393.55999	0.00408
6391.63131	0.00410
6389.70264	0.00411
6387.77396	0.00412
6385.84528	0.00411
6383.91661	0.00410
6381.98793	0.00411
6380.05926	0.00413
6378.13058	0.00416
6376.20191	0.00416
6374.27323	0.00417
6372.34455	0.00418
6370.41588	0.00419
6368.48720	0.00419
6366.55853	0.00419
6364.62985	0.00419
6362.70118	0.00419
6360.77250	0.00421
6358.84382	0.00422
6356.91515	0.00422
6354.98647	0.00422
6353.05780	0.00424
6351.12912	0.00427
6349.20045	0.00428
6347.27177	0.00428
6345.34309	0.00428
6343.41442	0.00429
6341.48574	0.00431
6339.55707	0.00433
6337.62839	0.00432
6335.69972	0.00432
6333.77104	0.00433
6331.84236	0.00435
6329.91369	0.00436
6327.98501	0.00438
6326.05634	0.00439
6324.12766	0.00439
6322.19899	0.00440
6320.27031	0.00443
6318.34163	0.00444
6316.41296	0.00443
6314.48428	0.00441
6312.55561	0.00440
6310.62693	0.00441
6308.69826	0.00443
6306.76958	0.00445
6304.84090	0.00447
6302.91223	0.00450
6300.98355	0.00452
6299.05488	0.00453
6297.12620	0.00455
6295.19753	0.00456
6293.26885	0.00458
6291.34017	0.00459
6289.41150	0.00459
6287.48282	0.00458
6285.55415	0.00456
6283.62547	0.00456
6281.69680	0.00458
6279.76812	0.00461
6277.83944	0.00464
6275.91077	0.00464
6273.98209	0.00464
6272.05342	0.00465
6270.12474	0.00466
6268.19607	0.00467
6266.26739	0.00468
6264.33871	0.00468
6262.41004	0.00470
6260.48136	0.00471
6258.55269	0.00472
6256.62401	0.00472
6254.69534	0.00472
6252.76666	0.00472
6250.83798	0.00472
6248.90931	0.00472
6246.98063	0.00474
6245.05196	0.00477
6243.12328	0.00479
6241.19461	0.00479
6239.26593	0.00480
6237.33725	0.00482
6235.40858	0.00484
6233.47990	0.00484
6231.55123	0.00483
6229.62255	0.00485
6227.69388	0.00489
6225.76520	0.00491
6223.83652	0.00492
6221.90785	0.00493
6219.97917	0.00494
6218.05050	0.00495
6216.12182	0.00494
6214.19315	0.00494
6212.26447	0.00495
6210.33579	0.00497
6208.40712	0.00497
6206.47844	0.00498
6204.54977	0.00501
6202.62109	0.00503
6200.69242	0.00504
6198.76374	0.00504
6196.83506	0.00503
6194.90639	0.00503
6192.97771	0.00504
6191.04904	0.00506
6189.12036	0.00508
6187.19169	0.00509
6185.26301	0.00510
6183.33433	0.00513
6181.40566	0.00515
6179.47698	0.00516
6177.54831	0.00516
6175.61963	0.00516
6173.69096	0.00517
6171.76228	0.00518
6169.83360	0.00520
6167.90493	0.00521
6165.97625	0.00521
6164.04758	0.00522
6162.11890	0.00523
6160.19023	0.00525
6158.26155	0.00527
6156.33287	0.00527
6154.40420	0.00528
6152.47552	0.00529
6150.54685	0.00530
6148.61817	0.00531
6146.68950	0.00532
6144.76082	0.00533
6142.83214	0.00534
6140.90347	0.00536
6138.97479	0.00537
6137.04612	0.00538
6135.11744	0.00539
6133.18877	0.00540
6131.26009	0.00541
6129.33141	0.00541
6127.40274	0.00541
6125.47406	0.00542
6123.54539	0.00544
6121.61671	0.00547
6119.68804	0.00549
6117.75936	0.00551
6115.83068	0.00551
6113.90201	0.00552
6111.97333	0.00552
6110.04466	0.00553
6108.11598	0.00554
6106.18731	0.00555
6104.25863	0.00555
6102.32995	0.00556
6100.40128	0.00557
6098.47260	0.00559
6096.54393	0.00559
6094.61525	0.00560
6092.68658	0.00562
6090.75790	0.00564
6088.82922	0.00566
6086.90055	0.00567
6084.97187	0.00568
6083.04320	0.00569
6081.11452	0.00569
6079.18585	0.00569
6077.25717	0.00569
6075.32849	0.00571
6073.39982	0.00575
6071.47114	0.00580
6069.54247	0.00583
6067.61379	0.00583
6065.68512	0.00580
6063.75644	0.00580
6061.82776	0.00581
6059.89909	0.00583
6057.97041	0.00585
6056.04174	0.00586
6054.11306	0.00586
6052.18439	0.00588
6050.25571	0.00589
6048.32703	0.00591
6046.39836	0.00592
6044.46968	0.00593
6042.54101	0.00595
6040.61233	0.00598
6038.68366	0.00600
6036.75498	0.00599
6034.82630	0.00599
6032.89763	0.00602
6030.96895	0.00604
6029.04028	0.00604
6027.11160	0.00605
6025.18293	0.00607
6023.25425	0.00609
6021.32557	0.00611
6019.39690	0.00611
6017.46822	0.00612
6015.53955	0.00614
6013.61087	0.00616
6011.68220	0.00616
6009.75352	0.00616
6007.82484	0.00617
6005.89617	0.00618
6003.96749	0.00619
6002.03882	0.00619
6000.11014	0.00621
5998.18147	0.00623
5996.25279	0.00624
5994.32411	0.00625
5992.39544	0.00628
5990.46676	0.00630
5988.53809	0.00631
5986.60941	0.00634
5984.68074	0.00636
5982.75206	0.00638
5980.82338	0.00639
5978.89471	0.00640
5976.96603	0.00640
5975.03736	0.00641
5973.10868	0.00641
5971.18001	0.00642
5969.25133	0.00644
5967.32265	0.00645
5965.39398	0.00645
5963.46530	0.00646
5961.53663	0.00647
5959.60795	0.00648
5957.67928	0.00649
5955.75060	0.00651
5953.82192	0.00655
5951.89325	0.00657
5949.96457	0.00659
5948.03590	0.00660
5946.10722	0.00660
5944.17855	0.00661
5942.24987	0.00663
5940.32119	0.00665
5938.39252	0.00666
5936.46384	0.00668
5934.53517	0.00670
5932.60649	0.00670
5930.67782	0.00669
5928.74914	0.00668
5926.82046	0.00670
5924.89179	0.00673
5922.96311	0.00677
5921.03444	0.00680
5919.10576	0.00681
5917.17709	0.00681
5915.24841	0.00681
5913.31973	0.00682
5911.39106	0.00684
5909.46238	0.00685
5907.53371	0.00686
5905.60503	0.00688
5903.67636	0.00690
5901.74768	0.00692
5899.81900	0.00693
5897.89033	0.00695
5895.96165	0.00698
5894.03298	0.00699
5892.10430	0.00699
5890.17563	0.00699
5888.24695	0.00700
5886.31827	0.00702
5884.38960	0.00704
5882.46092	0.00707
5880.53225	0.00708
5878.60357	0.00710
5876.67490	0.00711
5874.74622	0.00713
5872.81755	0.00714
5870.88887	0.00714
5868.96019	0.00714
5867.03152	0.00715
5865.10284	0.00716
5863.17417	0.00718
5861.24549	0.00720
5859.31682	0.00722
5857.38814	0.00723
5855.45946	0.00723
5853.53079	0.00725
5851.60211	0.00728
5849.67344	0.00731
5847.74476	0.00733
5845.81609	0.00734
5843.88741	0.00735
5841.95873	0.00736
5840.03006	0.00739
5838.10138	0.00741
5836.17271	0.00742
5834.24403	0.00744
5832.31536	0.00746
5830.38668	0.00749
5828.45800	0.00751
5826.52933	0.00752
5824.60065	0.00754
5822.67198	0.00755
5820.74330	0.00756
5818.81463	0.00757
5816.88595	0.00759
5814.95727	0.00759
5813.02860	0.00759
5811.09992	0.00760
5809.17125	0.00762
5807.24257	0.00764
5805.31390	0.00765
5803.38522	0.00767
5801.45654	0.00768
5799.52787	0.00769
5797.59919	0.00773
5795.67052	0.00775
5793.74184	0.00777
5791.81317	0.00778
5789.88449	0.00779
5787.95581	0.00781
5786.02714	0.00783
5784.09846	0.00784
5782.16979	0.00784
5780.24111	0.00785
5778.31244	0.00786
5776.38376	0.00787
5774.45508	0.00790
5772.52641	0.00792
5770.59773	0.00793
5768.66906	0.00795
5766.74038	0.00796
5764.81171	0.00797
5762.88303	0.00798
5760.95435	0.00800
5759.02568	0.00803
5757.09700	0.00805
5755.16833	0.00807
5753.23965	0.00807
5751.31098	0.00808
5749.38230	0.00809
5747.45362	0.00811
5745.52495	0.00813
5743.59627	0.00813
5741.66760	0.00814
5739.73892	0.00814
5737.81025	0.00816
5735.88157	0.00819
5733.95289	0.00824
5732.02422	0.00826
5730.09554	0.00827
5728.16687	0.00827
5726.23819	0.00828
5724.30952	0.00830
5722.38084	0.00832
5720.45216	0.00835
5718.52349	0.00838
5716.59481	0.00840
5714.66614	0.00842
5712.73746	0.00843
5710.80879	0.00844
5708.88011	0.00846
5706.95143	0.00848
5705.02276	0.00850
5703.09408	0.00852
5701.16541	0.00853
5699.23673	0.00855
5697.30806	0.00857
5695.37938	0.00858
5693.45070	0.00859
5691.52203	0.00862
5689.59335	0.00865
5687.66468	0.00867
5685.73600	0.00867
5683.80733	0.00869
5681.87865	0.00871
5679.94997	0.00872
5678.02130	0.00873
5676.09262	0.00874
5674.16395	0.00875
5672.23527	0.00877
5670.30660	0.00881
5668.37792	0.00883
5666.44924	0.00883
5664.52057	0.00883
5662.59189	0.00883
5660.66322	0.00885
5658.73454	0.00889
5656.80587	0.00893
5654.87719	0.00894
5652.94851	0.00894
5651.01984	0.00895
5649.09116	0.00898
5647.16249	0.00901
5645.23381	0.00904
5643.30514	0.00907
5641.37646	0.00908
5639.44778	0.00910
5637.51911	0.00911
5635.59043	0.00912
5633.66176	0.00912
5631.73308	0.00914
5629.80441	0.00916
5627.87573	0.00918
5625.94705	0.00920
5624.01838	0.00923
5622.08970	0.00925
5620.16103	0.00925
5618.23235	0.00925
5616.30368	0.00928
5614.37500	0.00932
5612.44632	0.00934
5610.51765	0.00936
5608.58897	0.00939
5606.66030	0.00940
5604.73162	0.00941
5602.80295	0.00942
5600.87427	0.00944
5598.94559	0.00945
5597.01692	0.00945
5595.08824	0.00947
5593.15957	0.00950
5591.23089	0.00952
5589.30222	0.00953
5587.37354	0.00954
5585.44486	0.00957
5583.51619	0.00961
5581.58751	0.00963
5579.65884	0.00965
5577.73016	0.00966
5575.80149	0.00969
5573.87281	0.00971
5571.94413	0.00972
5570.01546	0.00974
5568.08678	0.00977
5566.15811	0.00978
5564.22943	0.00980
5562.30076	0.00981
5560.37208	0.00983
5558.44340	0.00985
5556.51473	0.00986
5554.58605	0.00988
5552.65738	0.00991
5550.72870	0.00994
5548.80003	0.00995
5546.87135	0.00995
5544.94267	0.00997
5543.01400	0.00999
5541.08532	0.01001
5539.15665	0.01003
5537.22797	0.01004
5535.29930	0.01005
5533.37062	0.01006
5531.44194	0.01009
5529.51327	0.01012
5527.58459	0.01016
5525.65592	0.01019
5523.72724	0.01020
5521.79857	0.01022
5519.86989	0.01024
5517.94121	0.01028
5516.01254	0.01030
5514.08386	0.01031
5512.15519	0.01033
5510.22651	0.01035
5508.29784	0.01037
5506.36916	0.01039
5504.44048	0.01041
5502.51181	0.01042
5500.58313	0.01045
5498.65446	0.01048
5496.72578	0.01050
5494.79711	0.01048
5492.86843	0.01048
5490.93975	0.01049
5489.01108	0.01052
5487.08240	0.01055
5485.15373	0.01058
5483.22505	0.01060
5481.29638	0.01060
5479.36770	0.01062
5477.43902	0.01067
5475.51035	0.01072
5473.58167	0.01073
5471.65300	0.01073
5469.72432	0.01074
5467.79565	0.01078
5465.86697	0.01081
5463.93829	0.01082
5462.00962	0.01083
5460.08094	0.01085
5458.15227	0.01087
5456.22359	0.01089
5454.29492	0.01091
5452.36624	0.01092
5450.43756	0.01094
5448.50889	0.01096
5446.58021	0.01099
5444.65154	0.01101
5442.72286	0.01103
5440.79419	0.01104
5438.86551	0.01106
5436.93683	0.01109
5435.00816	0.01112
5433.07948	0.01113
5431.15081	0.01114
5429.22213	0.01115
5427.29346	0.01119
5425.36478	0.01124
5423.43610	0.01128
5421.50743	0.01131
5419.57875	0.01132
5417.65008	0.01130
5415.72140	0.01128
5413.79273	0.01129
5411.86405	0.01133
5409.93537	0.01138
5408.00670	0.01143
5406.07802	0.01147
5404.14935	0.01150
5402.22067	0.01152
5400.29200	0.01153
5398.36332	0.01154
5396.43464	0.01155
5394.50597	0.01156
5392.57729	0.01158
5390.64862	0.01161
5388.71994	0.01163
5386.79127	0.01164
5384.86259	0.01165
5382.93391	0.01166
5381.00524	0.01169
5379.07656	0.01171
5377.14789	0.01173
5375.21921	0.01175
5373.29054	0.01178
5371.36186	0.01181
5369.43318	0.01183
5367.50451	0.01185
5365.57583	0.01187
5363.64716	0.01189
5361.71848	0.01192
5359.78981	0.01196
5357.86113	0.01199
5355.93245	0.01200
5354.00378	0.01203
5352.07510	0.01205
5350.14643	0.01206
5348.21775	0.01207
5346.28908	0.01208
5344.36040	0.01210
5342.43172	0.01213
5340.50305	0.01216
5338.57437	0.01217
5336.64570	0.01219
5334.71702	0.01223
5332.78835	0.01225
5330.85967	0.01225
5328.93099	0.01225
5327.00232	0.01228
5325.07364	0.01232
5323.14497	0.01236
5321.21629	0.01238
5319.28762	0.01239
5317.35894	0.01240
5315.43026	0.01245
5313.50159	0.01250
5311.57291	0.01253
5309.64424	0.01254
5307.71556	0.01255
5305.78689	0.01257
5303.85821	0.01262
5301.92953	0.01265
5300.00086	0.01265
5298.07218	0.01265
5296.14351	0.01268
5294.21483	0.01270
5292.28616	0.01272
5290.35748	0.01273
5288.42880	0.01276
5286.50013	0.01279
5284.57145	0.01282
5282.64278	0.01284
5280.71410	0.01284
5278.78543	0.01284
5276.85675	0.01287
5274.92807	0.01292
5272.99940	0.01295
5271.07072	0.01296
5269.14205	0.01299
5267.21337	0.01301
5265.28470	0.01303
5263.35602	0.01305
5261.42734	0.01309
5259.49867	0.01311
5257.56999	0.01311
5255.64132	0.01312
5253.71264	0.01314
5251.78397	0.01317
5249.85529	0.01319
5247.92661	0.01320
5245.99794	0.01323
5244.06926	0.01328
5242.14059	0.01333
5240.21191	0.01336
5238.28324	0.01337
5236.35456	0.01336
5234.42588	0.01337
5232.49721	0.01339
5230.56853	0.01344
5228.63986	0.01349
5226.71118	0.01352
5224.78251	0.01354
5222.85383	0.01357
5220.92515	0.01359
5218.99648	0.01360
5217.06780	0.01362
5215.13913	0.01364
5213.21045	0.01365
5211.28178	0.01367
5209.35310	0.01369
5207.42442	0.01372
5205.49575	0.01374
5203.56707	0.01377
5201.63840	0.01379
5199.70972	0.01383
5197.78105	0.01387
5195.85237	0.01388
5193.92369	0.01389
5191.99502	0.01391
5190.06634	0.01394
5188.13767	0.01397
5186.20899	0.01401
5184.28032	0.01405
5182.35164	0.01408
5180.42296	0.01411
5178.49429	0.01411
5176.56561	0.01411
5174.63694	0.01412
5172.70826	0.01414
5170.77959	0.01417
5168.85091	0.01419
5166.92223	0.01423
5164.99356	0.01425
5163.06488	0.01428
5161.13621	0.01430
5159.20753	0.01432
5157.27886	0.01433
5155.35018	0.01435
5153.42150	0.01440
5151.49283	0.01445
5149.56415	0.01448
5147.63548	0.01449
5145.70680	0.01449
5143.77813	0.01450
5141.84945	0.01452
5139.92077	0.01455
5137.99210	0.01460
5136.06342	0.01465
5134.13475	0.01469
5132.20607	0.01470
5130.27740	0.01470
5128.34872	0.01470
5126.42004	0.01472
5124.49137	0.01475
5122.56269	0.01478
5120.63402	0.01481
5118.70534	0.01484
5116.77667	0.01485
5114.84799	0.01488
5112.91931	0.01494
5110.99064	0.01498
5109.06196	0.01502
5107.13329	0.01505
5105.20461	0.01505
5103.27594	0.01505
5101.34726	0.01505
5099.41858	0.01508
5097.48991	0.01512
5095.56123	0.01514
5093.63256	0.01516
5091.70388	0.01518
5089.77521	0.01519
5087.84653	0.01522
5085.91785	0.01526
5083.98918	0.01530
5082.06050	0.01533
5080.13183	0.01535
5078.20315	0.01536
5076.27448	0.01540
5074.34580	0.01544
5072.41712	0.01546
5070.48845	0.01548
5068.55977	0.01550
5066.63110	0.01553
5064.70242	0.01555
5062.77375	0.01558
5060.84507	0.01560
5058.91639	0.01564
5056.98772	0.01567
5055.05904	0.01569
5053.13037	0.01571
5051.20169	0.01574
5049.27302	0.01576
5047.34434	0.01578
5045.41566	0.01580
5043.48699	0.01583
5041.55831	0.01585
5039.62964	0.01587
5037.70096	0.01589
5035.77229	0.01591
5033.84361	0.01595
5031.91493	0.01600
5029.98626	0.01605
5028.05758	0.01607
5026.12891	0.01607
5024.20023	0.01608
5022.27156	0.01610
5020.34288	0.01613
5018.41420	0.01615
5016.48553	0.01618
5014.55685	0.01623
5012.62818	0.01627
5010.69950	0.01628
5008.77083	0.01629
5006.84215	0.01631
5004.91347	0.01635
5002.98480	0.01639
5001.05612	0.01642
4999.12745	0.01644
4997.19877	0.01645
4995.27010	0.01648
4993.34142	0.01651
4991.41274	0.01653
4989.48407	0.01656
4987.55539	0.01658
4985.62672	0.01659
4983.69804	0.01663
4981.76937	0.01666
4979.84069	0.01670
4977.91201	0.01675
4975.98334	0.01680
4974.05466	0.01680
4972.12599	0.01678
4970.19731	0.01680
4968.26864	0.01684
4966.33996	0.01689
4964.41128	0.01694
4962.48261	0.01697
4960.55393	0.01700
4958.62526	0.01702
4956.69658	0.01701
4954.76791	0.01702
4952.83923	0.01706
4950.91055	0.01711
4948.98188	0.01714
4947.05320	0.01717
4945.12453	0.01721
4943.19585	0.01725
4941.26718	0.01728
4939.33850	0.01730
4937.40982	0.01732
4935.48115	0.01733
4933.55247	0.01735
4931.62380	0.01738
4929.69512	0.01742
4927.76645	0.01745
4925.83777	0.01748
4923.90909	0.01752
4921.98042	0.01754
4920.05174	0.01756
4918.12307	0.01759
4916.19439	0.01762
4914.26572	0.01766
4912.33704	0.01768
4910.40836	0.01770
4908.47969	0.01773
4906.55101	0.01775
4904.62234	0.01777
4902.69366	0.01780
4900.76499	0.01785
4898.83631	0.01788
4896.90763	0.01790
4894.97896	0.01792
4893.05028	0.01797
4891.12161	0.01802
4889.19293	0.01805
4887.26426	0.01806
4885.33558	0.01807
4883.40690	0.01809
4881.47823	0.01812
4879.54955	0.01816
4877.62088	0.01819
4875.69220	0.01821
4873.76353	0.01823
4871.83485	0.01825
4869.90617	0.01827
4867.97750	0.01830
4866.04882	0.01833
4864.12015	0.01836
4862.19147	0.01840
4860.26280	0.01844
4858.33412	0.01846
4856.40544	0.01849
4854.47677	0.01852
4852.54809	0.01856
4850.61942	0.01859
4848.69074	0.01860
4846.76207	0.01861
4844.83339	0.01863
4842.90471	0.01868
4840.97604	0.01874
4839.04736	0.01878
4837.11869	0.01881
4835.19001	0.01884
4833.26134	0.01887
4831.33266	0.01889
4829.40398	0.01891
4827.47531	0.01893
4825.54663	0.01897
4823.61796	0.01901
4821.68928	0.01902
4819.76061	0.01903
4817.83193	0.01906
4815.90325	0.01911
4813.97458	0.01916
4812.04590	0.01919
4810.11723	0.01922
4808.18855	0.01926
4806.25988	0.01929
4804.33120	0.01932
4802.40252	0.01936
4800.47385	0.01939
4798.54517	0.01940
4796.61650	0.01943
4794.68782	0.01947
4792.75915	0.01951
4790.83047	0.01953
4788.90179	0.01954
4786.97312	0.01958
4785.04444	0.01962
4783.11577	0.01964
4781.18709	0.01965
4779.25842	0.01968
4777.32974	0.01973
4775.40106	0.01978
4773.47239	0.01980
4771.54371	0.01982
4769.61504	0.01985
4767.68636	0.01988
4765.75769	0.01991
4763.82901	0.01995
4761.90033	0.01999
4759.97166	0.02002
4758.04298	0.02005
4756.11431	0.02010
4754.18563	0.02013
4752.25696	0.02015
4750.32828	0.02018
4748.39960	0.02022
4746.47093	0.02026
4744.54225	0.02028
4742.61358	0.02030
4740.68490	0.02033
4738.75623	0.02035
4736.82755	0.02037
4734.89887	0.02040
4732.97020	0.02045
4731.04152	0.02051
4729.11285	0.02055
4727.18417	0.02059
4725.25550	0.02061
4723.32682	0.02064
4721.39814	0.02067
4719.46947	0.02070
4717.54079	0.02073
4715.61212	0.02075
4713.68344	0.02077
4711.75477	0.02081
4709.82609	0.02086
4707.89741	0.02089
4705.96874	0.02094
4704.04006	0.02097
4702.11139	0.02099
4700.18271	0.02100
4698.25404	0.02104
4696.32536	0.02109
4694.39668	0.02113
4692.46801	0.02113
4690.53933	0.02113
4688.61066	0.02116
4686.68198	0.02120
4684.75331	0.02122
4682.82463	0.02126
4680.89595	0.02133
4678.96728	0.02140
4677.03860	0.02143
4675.10993	0.02145
4673.18125	0.02149
4671.25258	0.02153
4669.32390	0.02156
4667.39522	0.02161
4665.46655	0.02165
4663.53787	0.02166
4661.60920	0.02167
4659.68052	0.02169
4657.75185	0.02173
4655.82317	0.02178
4653.89449	0.02184
4651.96582	0.02188
4650.03714	0.02192
4648.10847	0.02195
4646.17979	0.02198
4644.25112	0.02201
4642.32244	0.02203
4640.39376	0.02208
4638.46509	0.02213
4636.53641	0.02218
4634.60774	0.02222
4632.67906	0.02225
4630.75039	0.02227
4628.82171	0.02230
4626.89303	0.02235
4624.96436	0.02238
4623.03568	0.02241
4621.10701	0.02245
4619.17833	0.02251
4617.24966	0.02254
4615.32098	0.02255
4613.39230	0.02258
4611.46363	0.02263
4609.53495	0.02266
4607.60628	0.02269
4605.67760	0.02273
4603.74893	0.02279
4601.82025	0.02284
4599.89157	0.02288
4597.96290	0.02290
4596.03422	0.02293
4594.10555	0.02295
4592.17687	0.02300
4590.24820	0.02304
4588.31952	0.02307
4586.39084	0.02309
4584.46217	0.02311
4582.53349	0.02315
4580.60482	0.02319
4578.67614	0.02324
4576.74747	0.02329
4574.81879	0.02334
4572.89011	0.02339
4570.96144	0.02345
4569.03276	0.02348
4567.10409	0.02350
4565.17541	0.02352
4563.24674	0.02355
4561.31806	0.02358
4559.38938	0.02363
4557.46071	0.02367
4555.53203	0.02370
4553.60336	0.02373
4551.67468	0.02379
4549.74601	0.02386
4547.81733	0.02390
4545.88865	0.02393
4543.95998	0.02398
4542.03130	0.02403
4540.10263	0.02406
4538.17395	0.02408
4536.24528	0.02410
4534.31660	0.02414
4532.38792	0.02421
4530.45925	0.02427
4528.53057	0.02430
4526.60190	0.02429
4524.67322	0.02431
4522.74455	0.02437
4520.81587	0.02442
4518.88719	0.02446
4516.95852	0.02448
4515.02984	0.02450
4513.10117	0.02454
4511.17249	0.02461
4509.24382	0.02468
4507.31514	0.02475
4505.38646	0.02479
4503.45779	0.02481
4501.52911	0.02483
4499.60044	0.02486
4497.67176	0.02491
4495.74309	0.02497
4493.81441	0.02502
4491.88573	0.02508
4489.95706	0.02513
4488.02838	0.02517
4486.09971	0.02519
4484.17103	0.02523
4482.24236	0.02526
4480.31368	0.02529
4478.38500	0.02533
4476.45633	0.02538
4474.52765	0.02546
4472.59898	0.02552
4470.67030	0.02556
4468.74163	0.02559
4466.81295	0.02560
4464.88427	0.02563
4462.95560	0.02568
4461.02692	0.02573
4459.09825	0.02578
4457.16957	0.02583
4455.24090	0.02587
4453.31222	0.02590
4451.38354	0.02594
4449.45487	0.02599
4447.52619	0.02604
4445.59752	0.02610
4443.66884	0.02615
4441.74017	0.02618
4439.81149	0.02620
4437.88281	0.02625
4435.95414	0.02633
4434.02546	0.02638
4432.09679	0.02641
4430.16811	0.02644
4428.23944	0.02649
4426.31076	0.02655
4424.38208	0.02658
4422.45341	0.02660
4420.52473	0.02663
4418.59606	0.02668
4416.66738	0.02675
4414.73871	0.02680
4412.81003	0.02683
4410.88135	0.02687
4408.95268	0.02691
4407.02400	0.02696
4405.09533	0.02701
4403.16665	0.02707
4401.23798	0.02712
4399.30930	0.02716
4397.38062	0.02722
4395.45195	0.02729
4393.52327	0.02737
4391.59460	0.02742
4389.66592	0.02745
4387.73725	0.02749
4385.80857	0.02753
4383.87989	0.02757
4381.95122	0.02761
4380.02254	0.02764
4378.09387	0.02768
4376.16519	0.02774
4374.23652	0.02782
4372.30784	0.02786
4370.37916	0.02788
4368.45049	0.02791
4366.52181	0.02797
4364.59314	0.02805
4362.66446	0.02812
4360.73579	0.02815
4358.80711	0.02817
4356.87843	0.02820
4354.94976	0.02826
4353.02108	0.02831
4351.09241	0.02836
4349.16373	0.02841
4347.23506	0.02848
4345.30638	0.02856
4343.37770	0.02862
4341.44903	0.02867
4339.52035	0.02871
4337.59168	0.02874
4335.66300	0.02878
4333.73433	0.02883
4331.80565	0.02889
4329.87697	0.02896
4327.94830	0.02903
4326.01962	0.02909
4324.09095	0.02916
4322.16227	0.02922
4320.23360	0.02925
4318.30492	0.02928
4316.37624	0.02932
4314.44757	0.02938
4312.51889	0.02944
4310.59022	0.02949
4308.66154	0.02955
4306.73287	0.02960
4304.80419	0.02964
4302.87551	0.02969
4300.94684	0.02975
4299.01816	0.02982
4297.08949	0.02986
4295.16081	0.02989
4293.23214	0.02993
4291.30346	0.03000
4289.37478	0.03008
4287.44611	0.03015
4285.51743	0.03019
4283.58876	0.03023
4281.66008	0.03029
4279.73141	0.03036
4277.80273	0.03042
4275.87405	0.03047
4273.94538	0.03052
4272.01670	0.03057
4270.08803	0.03063
4268.15935	0.03068
4266.23068	0.03072
4264.30200	0.03076
4262.37332	0.03081
4260.44465	0.03087
4258.51597	0.03093
4256.58730	0.03099
4254.65862	0.03107
4252.72995	0.03113
4250.80127	0.03116
4248.87259	0.03119
4246.94392	0.03124
4245.01524	0.03132
4243.08657	0.03141
4241.15789	0.03148
4239.22922	0.03154
4237.30054	0.03162
4235.37186	0.03168
4233.44319	0.03172
4231.51451	0.03177
4229.58584	0.03183
4227.65716	0.03187
4225.72849	0.03191
4223.79981	0.03196
4221.87113	0.03203
4219.94246	0.03209
4218.01378	0.03213
4216.08511	0.03218
4214.15643	0.03224
4212.22776	0.03230
4210.29908	0.03236
4208.37040	0.03243
4206.44173	0.03250
4204.51305	0.03258
4202.58438	0.03265
4200.65570	0.03271
4198.72703	0.03276
4196.79835	0.03281
4194.86968	0.03287
4192.94100	0.03293
4191.01232	0.03300
4189.08365	0.03306
4187.15497	0.03312
4185.22630	0.03319
4183.29762	0.03326
4181.36895	0.03334
4179.44027	0.03342
4177.51159	0.03348
4175.58292	0.03350
4173.65424	0.03354
4171.72557	0.03359
4169.79689	0.03365
4167.86822	0.03372
4165.93954	0.03381
4164.01086	0.03389
4162.08219	0.03394
4160.15351	0.03397
4158.22484	0.03402
4156.29616	0.03407
4154.36749	0.03413
4152.43881	0.03419
4150.51013	0.03426
4148.58146	0.03434
4146.65278	0.03443
4144.72411	0.03452
4142.79543	0.03457
4140.86676	0.03461
4138.93808	0.03465
4137.00940	0.03472
4135.08073	0.03480
4133.15205	0.03487
4131.22338	0.03493
4129.29470	0.03501
4127.36603	0.03510
4125.43735	0.03517
4123.50867	0.03522
4121.58000	0.03527
4119.65132	0.03532
4117.72265	0.03537
4115.79397	0.03545
4113.86530	0.03554
4111.93662	0.03563
4110.00794	0.03569
4108.07927	0.03575
4106.15059	0.03583
4104.22192	0.03589
4102.29324	0.03594
4100.36457	0.03600
4098.43589	0.03607
4096.50721	0.03613
4094.57854	0.03618
4092.64986	0.03625
4090.72119	0.03633
4088.79251	0.03641
4086.86384	0.03650
4084.93516	0.03658
4083.00648	0.03664
4081.07781	0.03667
4079.14913	0.03671
4077.22046	0.03678
4075.29178	0.03684
4073.36311	0.03690
4071.43443	0.03697
4069.50575	0.03706
4067.57708	0.03716
4065.64840	0.03726
4063.71973	0.03733
4061.79105	0.03738
4059.86238	0.03741
4057.93370	0.03748
4056.00502	0.03758
4054.07635	0.03767
4052.14767	0.03772
4050.21900	0.03776
4048.29032	0.03783
4046.36165	0.03792
4044.43297	0.03802
4042.50429	0.03807
4040.57562	0.03810
4038.64694	0.03817
4036.71827	0.03828
4034.78959	0.03836
4032.86092	0.03841
4030.93224	0.03847
4029.00356	0.03855
4027.07489	0.03862
4025.14621	0.03870
4023.21754	0.03877
4021.28886	0.03885
4019.36019	0.03892
4017.43151	0.03901
4015.50283	0.03908
4013.57416	0.03914
4011.64548	0.03920
4009.71681	0.03925
4007.78813	0.03930
4005.85946	0.03934
4003.93078	0.03942
4002.00210	0.03954
4000.07343	0.03966
3998.14475	0.03975
3996.21608	0.03981
3994.28740	0.03988
3992.35873	0.03995
3990.43005	0.04001
3988.50137	0.04008
3986.57270	0.04015
3984.64402	0.04022
3982.71535	0.04030
3980.78667	0.04037
3978.85800	0.04045
3976.92932	0.04055
3975.00064	0.04064
3973.07197	0.04071
3971.14329	0.04076
3969.21462	0.04083
3967.28594	0.04091
3965.35727	0.04099
3963.42859	0.04105
3961.49991	0.04112
3959.57124	0.04119
3957.64256	0.04127
3955.71389	0.04137
3953.78521	0.04146
3951.85654	0.04153
3949.92786	0.04158
3947.99918	0.04166
3946.07051	0.04176
3944.14183	0.04182
3942.21316	0.04188
3940.28448	0.04196
3938.35581	0.04204
3936.42713	0.04212
3934.49845	0.04219
3932.56978	0.04225
3930.64110	0.04234
3928.71243	0.04243
3926.78375	0.04247
3924.85508	0.04251
3922.92640	0.04261
3920.99772	0.04270
3919.06905	0.04271
3917.14037	0.04277
3915.21170	0.04292
3913.28302	0.04305
3911.35435	0.04315
3909.42567	0.04323
3907.49699	0.04327
3905.56832	0.04324
3903.63964	0.04317
3901.71097	0.04320
3899.78229	0.04337
3897.85362	0.04361
3895.92494	0.04378
3893.99626	0.04385
3892.06759	0.04385
3890.13891	0.04390
3888.21024	0.04398
3886.28156	0.04404
3884.35289	0.04415
3882.42421	0.04427
3880.49553	0.04435
3878.56686	0.04447
3876.63818	0.04460
3874.70951	0.04466
3872.78083	0.04468
3870.85216	0.04473
3868.92348	0.04483
3866.99480	0.04491
3865.06613	0.04494
3863.13745	0.04504
3861.20878	0.04521
3859.28010	0.04531
3857.35143	0.04525
3855.42275	0.04509
3853.49407	0.04508
3851.56540	0.04535
3849.63672	0.04569
3847.70805	0.04590
3845.77937	0.04600
3843.85070	0.04602
3841.92202	0.04599
3839.99334	0.04592
3838.06467	0.04591
3836.13599	0.04605
3834.20732	0.04625
3832.27864	0.04642
3830.34997	0.04655
3828.42129	0.04664
3826.49261	0.04674
3824.56394	0.04681
3822.63526	0.04683
3820.70659	0.04689
3818.77791	0.04699
3816.84924	0.04707
3814.92056	0.04721
3812.99188	0.04742
3811.06321	0.04754
3809.13453	0.04755
3807.20586	0.04757
3805.27718	0.04764
3803.34851	0.04768
3801.41983	0.04771
3799.49115	0.04783
3797.56248	0.04795
3795.63380	0.04809
3793.70513	0.04829
3791.77645	0.04846
3789.84778	0.04857
3787.91910	0.04864
3785.99042	0.04871
3784.06175	0.04879
3782.13307	0.04885
3780.20440	0.04891
3778.27572	0.04900
3776.34705	0.04912
3774.41837	0.04922
3772.48969	0.04923
3770.56102	0.04922
3768.63234	0.04930
3766.70367	0.04944
3764.77499	0.04959
3762.84632	0.04971
3760.91764	0.04977
3758.98896	0.04982
3757.06029	0.04992
3755.13161	0.04997
3753.20294	0.04990
3751.27426	0.04987
3749.34559	0.04997
3747.41691	0.04995
3745.48823	0.04979
3743.55956	0.04992
3741.63088	0.05034
3739.70221	0.05054
3737.77353	0.05045
3735.84486	0.05043
3733.91618	0.05061
3731.98750	0.05088
3730.05883	0.05112
3728.13015	0.05125
3726.20148	0.05130
3724.27280	0.05138
3722.34413	0.05150
3720.41545	0.05163
3718.48677	0.05177
3716.55810	0.05186
3714.62942	0.05188
3712.70075	0.05187
3710.77207	0.05194
3708.84340	0.05211
3706.91472	0.05230
3704.98604	0.05239
3703.05737	0.05239
3701.12869	0.05247
3699.20002	0.05266
3697.27134	0.05282
3695.34267	0.05287
3693.41399	0.05280
3691.48531	0.05272
3689.55664	0.05280
3687.62796	0.05304
3685.69929	0.05328
3683.77061	0.05346
3681.84194	0.05351
3679.91326	0.05346
3677.98458	0.05333
3676.05591	0.05330
3674.12723	0.05349
3672.19856	0.05368
3670.26988	0.05373
3668.34121	0.05386
3666.41253	0.05410
3664.48385	0.05430
3662.55518	0.05440
3660.62650	0.05445
3658.69783	0.05448
3656.76915	0.05453
3654.84048	0.05458
3652.91180	0.05451
3650.98312	0.05430
3649.05445	0.05421
3647.12577	0.05439
3645.19710	0.05470
3643.26842	0.05498
3641.33975	0.05517
3639.41107	0.05529
3637.48239	0.05537
3635.55372	0.05545
3633.62504	0.05551
3631.69637	0.05547
3629.76769	0.05540
3627.83902	0.05549
3625.91034	0.05572
3623.98166	0.05588
3622.05299	0.05585
3620.12431	0.05577
3618.19564	0.05585
3616.26696	0.05601
3614.33829	0.05608
3612.40961	0.05610
3610.48093	0.05613
3608.55226	0.05623
3606.62358	0.05641
3604.69491	0.05657
3602.76623	0.05662
3600.83756	0.05663
3598.90888	0.05670
3596.98020	0.05680
3595.05153	0.05687
3593.12285	0.05693
3591.19418	0.05697
3589.26550	0.05695
3587.33683	0.05699
3585.40815	0.05715
3583.47947	0.05732
3581.55080	0.05745
3579.62212	0.05756
3577.69345	0.05765
3575.76477	0.05771
3573.83610	0.05776
3571.90742	0.05780
3569.97874	0.05778
3568.05007	0.05774
3566.12139	0.05782
3564.19272	0.05801
3562.26404	0.05818
3560.33537	0.05829
3558.40669	0.05836
3556.47801	0.05842
3554.54934	0.05847
3552.62066	0.05850
3550.69199	0.05856
3548.76331	0.05864
3546.83464	0.05871
3544.90596	0.05878
3542.97728	0.05887
3541.04861	0.05896
3539.11993	0.05901
3537.19126	0.05902
3535.26258	0.05905
3533.33391	0.05911
3531.40523	0.05918
3529.47655	0.05922
3527.54788	0.05927
3525.61920	0.05932
3523.69053	0.05936
3521.76185	0.05940
3519.83318	0.05948
3517.90450	0.05957
3515.97582	0.05962
3514.04715	0.05962
3512.11847	0.05961
3510.18980	0.05962
3508.26112	0.05967
3506.33245	0.05972
3504.40377	0.05973
3502.47509	0.05974
3500.54642	0.05978
3498.61774	0.05983
3496.68907	0.05987
3494.76039	0.05989
3492.83172	0.05991
3490.90304	0.05993
3488.97436	0.05996
3487.04569	0.06002
3485.11701	0.06007
3483.18834	0.06009
3481.25966	0.06011
3479.33099	0.06019
3477.40231	0.06027
3475.47363	0.06033
3473.54496	0.06038
3471.61628	0.06045
3469.68761	0.06054
3467.75893	0.06061
3465.83026	0.06069
3463.90158	0.06080
3461.97290	0.06092
3460.04423	0.06104
3458.11555	0.06117
3456.18688	0.06129
3454.25820	0.06137
3452.32953	0.06143
3450.40085	0.06149
3448.47217	0.06156
3446.54350	0.06166
3444.61482	0.06179
3442.68615	0.06190
3440.75747	0.06202
3438.82880	0.06217
3436.90012	0.06235
3434.97144	0.06254
3433.04277	0.06271
3431.11409	0.06287
3429.18542	0.06307
3427.25674	0.06330
3425.32807	0.06351
3423.39939	0.06367
3421.47071	0.06382
3419.54204	0.06401
3417.61336	0.06420
3415.68469	0.06434
3413.75601	0.06447
3411.82734	0.06461
3409.89866	0.06476
3407.96998	0.06490
3406.04131	0.06504
3404.11263	0.06518
3402.18396	0.06532
3400.25528	0.06546
3398.32661	0.06559
3396.39793	0.06572
3394.46925	0.06584
3392.54058	0.06597
3390.61190	0.06611
3388.68323	0.06626
3386.75455	0.06640
3384.82588	0.06654
3382.89720	0.06668
3380.96852	0.06680
3379.03985	0.06689
3377.11117	0.06697
3375.18250	0.06707
3373.25382	0.06723
3371.32515	0.06738
3369.39647	0.06750
3367.46779	0.06763
3365.53912	0.06778
3363.61044	0.06792
3361.68177	0.06801
3359.75309	0.06812
3357.82442	0.06823
3355.89574	0.06834
3353.96706	0.06847
3352.03839	0.06859
3350.10971	0.06871
3348.18104	0.06883
3346.25236	0.06898
3344.32369	0.06913
3342.39501	0.06927
3340.46633	0.06939
3338.53766	0.06951
3336.60898	0.06964
3334.68031	0.06975
3332.75163	0.06987
3330.82296	0.06997
3328.89428	0.07008
3326.96560	0.07021
3325.03693	0.07035
3323.10825	0.07047
3321.17958	0.07059
3319.25090	0.07072
3317.32223	0.07086
3315.39355	0.07100
3313.46487	0.07112
3311.53620	0.07125
3309.60752	0.07137
3307.67885	0.07148
3305.75017	0.07158
3303.82150	0.07169
3301.89282	0.07183
3299.96414	0.07197
3298.03547	0.07212
3296.10679	0.07228
3294.17812	0.07242
3292.24944	0.07253
3290.32077	0.07260
3288.39209	0.07270
3286.46341	0.07284
3284.53474	0.07300
3282.60606	0.07316
3280.67739	0.07330
3278.74871	0.07341
3276.82004	0.07353
3274.89136	0.07367
3272.96268	0.07384
3271.03401	0.07401
3269.10533	0.07414
3267.17666	0.07424
3265.24798	0.07435
3263.31931	0.07448
3261.39063	0.07462
3259.46195	0.07475
3257.53328	0.07489
3255.60460	0.07503
3253.67593	0.07515
3251.74725	0.07529
3249.81858	0.07543
3247.88990	0.07556
3245.96122	0.07570
3244.03255	0.07586
3242.10387	0.07601
3240.17520	0.07612
3238.24652	0.07623
3236.31785	0.07636
3234.38917	0.07650
3232.46049	0.07662
3230.53182	0.07673
3228.60314	0.07686
3226.67447	0.07702
3224.74579	0.07719
3222.81712	0.07733
3220.88844	0.07745
3218.95976	0.07758
3217.03109	0.07772
3215.10241	0.07785
3213.17374	0.07796
3211.24506	0.07807
3209.31639	0.07819
3207.38771	0.07833
3205.45903	0.07846
3203.53036	0.07860
3201.60168	0.07873
3199.67301	0.07886
3197.74433	0.07903
3195.81566	0.07923
3193.88698	0.07941
3191.95830	0.07955
3190.02963	0.07970
3188.10095	0.07986
3186.17228	0.07998
3184.24360	0.08007
3182.31493	0.08017
3180.38625	0.08030
3178.45757	0.08046
3176.52890	0.08064
3174.60022	0.08079
3172.67155	0.08089
3170.74287	0.08101
3168.81420	0.08117
3166.88552	0.08132
3164.95684	0.08143
3163.02817	0.08155
3161.09949	0.08169
3159.17082	0.08187
3157.24214	0.08204
3155.31347	0.08221
3153.38479	0.08236
3151.45611	0.08249
3149.52744	0.08260
3147.59876	0.08269
3145.67009	0.08281
3143.74141	0.08297
3141.81274	0.08312
3139.88406	0.08324
3137.95538	0.08334
3136.02671	0.08346
3134.09803	0.08360
3132.16936	0.08375
3130.24068	0.08389
3128.31201	0.08403
3126.38333	0.08417
3124.45465	0.08431
3122.52598	0.08445
3120.59730	0.08460
3118.66863	0.08476
3116.73995	0.08490
3114.81128	0.08504
3112.88260	0.08520
3110.95392	0.08535
3109.02525	0.08548
3107.09657	0.08562
3105.16790	0.08575
3103.23922	0.08586
3101.31055	0.08599
3099.38187	0.08614
3097.45319	0.08630
3095.52452	0.08643
3093.59584	0.08657
3091.66717	0.08672
3089.73849	0.08688
3087.80982	0.08700
3085.88114	0.08711
3083.95246	0.08724
3082.02379	0.08738
3080.09511	0.08751
3078.16644	0.08765
3076.23776	0.08781
3074.30909	0.08795
3072.38041	0.08808
3070.45173	0.08819
3068.52306	0.08832
3066.59438	0.08847
3064.66571	0.08863
3062.73703	0.08880
3060.80836	0.08894
3058.87968	0.08906
3056.95100	0.08919
3055.02233	0.08935
3053.09365	0.08949
3051.16498	0.08962
3049.23630	0.08974
3047.30763	0.08989
3045.37895	0.09005
3043.45027	0.09018
3041.52160	0.09029
3039.59292	0.09040
3037.66425	0.09054
3035.73557	0.09068
3033.80690	0.09082
3031.87822	0.09096
3029.94954	0.09111
3028.02087	0.09125
3026.09219	0.09137
3024.16352	0.09151
3022.23484	0.09166
3020.30617	0.09180
3018.37749	0.09194
3016.44881	0.09209
3014.52014	0.09223
3012.59146	0.09236
3010.66279	0.09250
3008.73411	0.09266
3006.80544	0.09280
3004.87676	0.09291
3002.94808	0.09301
3001.01941	0.09314
2999.09073	0.09329
2997.16206	0.09344
2995.23338	0.09355
2993.30471	0.09366
2991.37603	0.09379
2989.44735	0.09394
2987.51868	0.09405
2985.59000	0.09411
2983.66133	0.09416
2981.73265	0.09423
2979.80398	0.09431
2977.87530	0.09440
2975.94662	0.09446
2974.01795	0.09447
2972.08927	0.09444
2970.16060	0.09440
2968.23192	0.09438
2966.30325	0.09438
2964.37457	0.09443
2962.44589	0.09452
2960.51722	0.09463
2958.58854	0.09477
2956.65987	0.09495
2954.73119	0.09517
2952.80252	0.09538
2950.87384	0.09555
2948.94516	0.09570
2947.01649	0.09580
2945.08781	0.09590
2943.15914	0.09597
2941.23046	0.09601
2939.30179	0.09601
2937.37311	0.09600
2935.44443	0.09598
2933.51576	0.09597
2931.58708	0.09593
2929.65841	0.09586
2927.72973	0.09579
2925.80106	0.09577
2923.87238	0.09582
2921.94370	0.09589
2920.01503	0.09597
2918.08635	0.09611
2916.15768	0.09641
2914.22900	0.09687
2912.30033	0.09735
2910.37165	0.09777
2908.44297	0.09813
2906.51430	0.09845
2904.58562	0.09869
2902.65695	0.09890
2900.72827	0.09909
2898.79960	0.09929
2896.87092	0.09950
2894.94224	0.09970
2893.01357	0.09990
2891.08489	0.10010
2889.15622	0.10030
2887.22754	0.10048
2885.29887	0.10064
2883.37019	0.10079
2881.44151	0.10091
2879.51284	0.10101
2877.58416	0.10113
2875.65549	0.10131
2873.72681	0.10147
2871.79814	0.10158
2869.86946	0.10170
2867.94078	0.10183
2866.01211	0.10196
2864.08343	0.10204
2862.15476	0.10211
2860.22608	0.10216
2858.29741	0.10218
2856.36873	0.10215
2854.44005	0.10211
2852.51138	0.10211
2850.58270	0.10219
2848.65403	0.10246
2846.72535	0.10292
2844.79668	0.10341
2842.86800	0.10381
2840.93932	0.10414
2839.01065	0.10441
2837.08197	0.10463
2835.15330	0.10484
2833.22462	0.10507
2831.29595	0.10529
2829.36727	0.10550
2827.43859	0.10566
2825.50992	0.10579
2823.58124	0.10593
2821.65257	0.10611
2819.72389	0.10631
2817.79522	0.10651
2815.86654	0.10667
2813.93786	0.10681
2812.00919	0.10693
2810.08051	0.10709
2808.15184	0.10726
2806.22316	0.10741
2804.29449	0.10754
2802.36581	0.10767
2800.43713	0.10782
2798.50846	0.10799
2796.57978	0.10817
2794.65111	0.10833
2792.72243	0.10847
2790.79376	0.10859
2788.86508	0.10873
2786.93640	0.10889
2785.00773	0.10906
2783.07905	0.10923
2781.15038	0.10938
2779.22170	0.10954
2777.29303	0.10968
2775.36435	0.10981
2773.43567	0.10995
2771.50700	0.11012
2769.57832	0.11030
2767.64965	0.11045
2765.72097	0.11056
2763.79230	0.11067
2761.86362	0.11081
2759.93494	0.11098
2758.00627	0.11116
2756.07759	0.11133
2754.14892	0.11146
2752.22024	0.11158
2750.29157	0.11170
2748.36289	0.11183
2746.43421	0.11200
2744.50554	0.11217
2742.57686	0.11231
2740.64819	0.11245
2738.71951	0.11258
2736.79084	0.11271
2734.86216	0.11288
2732.93348	0.11307
2731.00481	0.11324
2729.07613	0.11338
2727.14746	0.11352
2725.21878	0.11367
2723.29011	0.11381
2721.36143	0.11393
2719.43275	0.11405
2717.50408	0.11418
2715.57540	0.11434
2713.64673	0.11448
2711.71805	0.11461
2709.78938	0.11475
2707.86070	0.11489
2705.93202	0.11505
2704.00335	0.11521
2702.07467	0.11536
2700.14600	0.11551
2698.21732	0.11566
2696.28865	0.11581
2694.35997	0.11592
2692.43129	0.11600
2690.50262	0.11611
2688.57394	0.11626
2686.64527	0.11643
2684.71659	0.11657
2682.78792	0.11671
2680.85924	0.11687
2678.93056	0.11706
2677.00189	0.11722
2675.07321	0.11733
2673.14454	0.11744
2671.21586	0.11760
2669.28719	0.11778
2667.35851	0.11793
2665.42983	0.11807
2663.50116	0.11822
2661.57248	0.11837
2659.64381	0.11852
2657.71513	0.11866
2655.78646	0.11879
2653.85778	0.11894
2651.92910	0.11911
2650.00043	0.11927
2648.07175	0.11943
2646.14308	0.11960
2644.21440	0.11975
2642.28573	0.11988
2640.35705	0.12000
2638.42837	0.12016
2636.49970	0.12032
2634.57102	0.12047
2632.64235	0.12061
2630.71367	0.12078
2628.78500	0.12096
2626.85632	0.12111
2624.92764	0.12126
2622.99897	0.12142
2621.07029	0.12156
2619.14162	0.12172
2617.21294	0.12189
2615.28427	0.12205
2613.35559	0.12221
2611.42691	0.12235
2609.49824	0.12249
2607.56956	0.12263
2605.64089	0.12278
2603.71221	0.12293
2601.78354	0.12310
2599.85486	0.12324
2597.92618	0.12335
2595.99751	0.12347
2594.06883	0.12365
2592.14016	0.12386
2590.21148	0.12405
2588.28281	0.12420
2586.35413	0.12434
2584.42545	0.12447
2582.49678	0.12462
2580.56810	0.12482
2578.63943	0.12502
2576.71075	0.12517
2574.78208	0.12527
2572.85340	0.12540
2570.92472	0.12556
2568.99605	0.12572
2567.06737	0.12587
2565.13870	0.12602
2563.21002	0.12618
2561.28135	0.12634
2559.35267	0.12646
2557.42399	0.12658
2555.49532	0.12670
2553.56664	0.12682
2551.63797	0.12696
2549.70929	0.12712
2547.78062	0.12729
2545.85194	0.12742
2543.92326	0.12756
2541.99459	0.12772
2540.06591	0.12784
2538.13724	0.12797
2536.20856	0.12815
2534.27989	0.12835
2532.35121	0.12853
2530.42253	0.12871
2528.49386	0.12887
2526.56518	0.12900
2524.63651	0.12913
2522.70783	0.12930
2520.77916	0.12947
2518.85048	0.12963
2516.92181	0.12976
2514.99313	0.12989
2513.06445	0.13002
2511.13578	0.13016
2509.20710	0.13035
2507.27843	0.13057
2505.34975	0.13075
2503.42108	0.13089
2501.49240	0.13105
2499.56372	0.13123
2497.63505	0.13139
2495.70637	0.13152
2493.77770	0.13167
2491.84902	0.13184
2489.92035	0.13202
2487.99167	0.13222
2486.06299	0.13243
2484.13432	0.13261
2482.20564	0.13276
2480.27697	0.13287
2478.34829	0.13299
2476.41962	0.13317
2474.49094	0.13336
2472.56226	0.13353
2470.63359	0.13369
2468.70491	0.13386
2466.77624	0.13404
2464.84756	0.13420
2462.91889	0.13432
2460.99021	0.13444
2459.06153	0.13460
2457.13286	0.13480
2455.20418	0.13500
2453.27551	0.13516
2451.34683	0.13531
2449.41816	0.13546
2447.48948	0.13559
2445.56080	0.13574
2443.63213	0.13592
2441.70345	0.13608
2439.77478	0.13622
2437.84610	0.13640
2435.91743	0.13661
2433.98875	0.13678
2432.06007	0.13692
2430.13140	0.13704
2428.20272	0.13717
2426.27405	0.13731
2424.34537	0.13747
2422.41670	0.13764
2420.48802	0.13783
2418.55934	0.13802
2416.63067	0.13816
2414.70199	0.13829
2412.77332	0.13843
2410.84464	0.13859
2408.91597	0.13875
2406.98729	0.13890
2405.05861	0.13905
2403.12994	0.13922
2401.20126	0.13939
2399.27259	0.13955
2397.34391	0.13968
2395.41524	0.13982
2393.48656	0.13999
2391.55788	0.14016
2389.62921	0.14031
2387.70053	0.14045
2385.77186	0.14060
2383.84318	0.14077
2381.91451	0.14092
2379.98583	0.14100
2378.05715	0.14103
2376.12848	0.14106
2374.19980	0.14109
2372.27113	0.14111
2370.34245	0.14114
2368.41378	0.14118
2366.48510	0.14125
2364.55642	0.14136
2362.62775	0.14150
2360.69907	0.14164
2358.77040	0.14177
2356.84172	0.14195
2354.91305	0.14221
2352.98437	0.14254
2351.05569	0.14289
2349.12702	0.14315
2347.19834	0.14327
2345.26967	0.14329
2343.34099	0.14330
2341.41232	0.14335
2339.48364	0.14347
2337.55496	0.14366
2335.62629	0.14389
2333.69761	0.14412
2331.76894	0.14431
2329.84026	0.14449
2327.91159	0.14469
2325.98291	0.14488
2324.05423	0.14508
2322.12556	0.14529
2320.19688	0.14549
2318.26821	0.14566
2316.33953	0.14582
2314.41086	0.14602
2312.48218	0.14627
2310.55350	0.14651
2308.62483	0.14671
2306.69615	0.14691
2304.76748	0.14712
2302.83880	0.14730
2300.91013	0.14746
2298.98145	0.14764
2297.05277	0.14782
2295.12410	0.14797
2293.19542	0.14810
2291.26675	0.14825
2289.33807	0.14843
2287.40940	0.14861
2285.48072	0.14881
2283.55204	0.14902
2281.62337	0.14921
2279.69469	0.14937
2277.76602	0.14951
2275.83734	0.14961
2273.90867	0.14972
2271.97999	0.14988
2270.05131	0.15009
2268.12264	0.15028
2266.19396	0.15042
2264.26529	0.15054
2262.33661	0.15070
2260.40794	0.15085
2258.47926	0.15098
2256.55058	0.15111
2254.62191	0.15126
2252.69323	0.15144
2250.76456	0.15162
2248.83588	0.15177
2246.90721	0.15191
2244.97853	0.15206
2243.04985	0.15226
2241.12118	0.15246
2239.19250	0.15261
2237.26383	0.15275
2235.33515	0.15292
2233.40648	0.15311
2231.47780	0.15327
2229.54912	0.15341
2227.62045	0.15356
2225.69177	0.15371
2223.76310	0.15385
2221.83442	0.15401
2219.90575	0.15418
2217.97707	0.15434
2216.04839	0.15449
2214.11972	0.15469
2212.19104	0.15488
2210.26237	0.15499
2208.33369	0.15507
2206.40502	0.15518
2204.47634	0.15534
2202.54766	0.15550
2200.61899	0.15567
2198.69031	0.15582
2196.76164	0.15597
2194.83296	0.15612
2192.90429	0.15627
2190.97561	0.15644
2189.04693	0.15661
2187.11826	0.15677
2185.18958	0.15691
2183.26091	0.15704
2181.33223	0.15721
2179.40356	0.15743
2177.47488	0.15763
2175.54620	0.15775
2173.61753	0.15784
2171.68885	0.15799
2169.76018	0.15820
2167.83150	0.15839
2165.90283	0.15852
2163.97415	0.15867
2162.04547	0.15886
2160.11680	0.15905
2158.18812	0.15923
2156.25945	0.15938
2154.33077	0.15954
2152.40210	0.15970
2150.47342	0.15987
2148.54474	0.16003
2146.61607	0.16017
2144.68739	0.16032
2142.75872	0.16051
2140.83004	0.16069
2138.90137	0.16083
2136.97269	0.16095
2135.04401	0.16110
2133.11534	0.16129
2131.18666	0.16147
2129.25799	0.16162
2127.32931	0.16174
2125.40064	0.16190
2123.47196	0.16208
2121.54328	0.16224
2119.61461	0.16236
2117.68593	0.16247
2115.75726	0.16265
2113.82858	0.16285
2111.89991	0.16300
2109.97123	0.16312
2108.04255	0.16327
2106.11388	0.16348
2104.18520	0.16371
2102.25653	0.16392
2100.32785	0.16410
2098.39918	0.16425
2096.47050	0.16437
2094.54182	0.16447
2092.61315	0.16460
2090.68447	0.16477
2088.75580	0.16494
2086.82712	0.16509
2084.89845	0.16526
2082.96977	0.16544
2081.04109	0.16560
2079.11242	0.16573
2077.18374	0.16587
2075.25507	0.16603
2073.32639	0.16621
2071.39772	0.16641
2069.46904	0.16659
2067.54036	0.16673
2065.61169	0.16686
2063.68301	0.16701
2061.75434	0.16716
2059.82566	0.16731
2057.89699	0.16749
2055.96831	0.16766
2054.03963	0.16782
2052.11096	0.16799
2050.18228	0.16817
2048.25361	0.16833
2046.32493	0.16849
2044.39626	0.16865
2042.46758	0.16879
2040.53890	0.16892
2038.61023	0.16911
2036.68155	0.16935
2034.75288	0.16954
2032.82420	0.16968
2030.89553	0.16980
2028.96685	0.16994
2027.03817	0.17012
2025.10950	0.17032
2023.18082	0.17050
2021.25215	0.17064
2019.32347	0.17076
2017.39480	0.17090
2015.46612	0.17107
2013.53744	0.17124
2011.60877	0.17138
2009.68009	0.17153
2007.75142	0.17174
2005.82274	0.17195
2003.89407	0.17209
2001.96539	0.17219
2000.03671	0.17231
1998.10804	0.17246
1996.17936	0.17261
1994.25069	0.17272
1992.32201	0.17282
1990.39334	0.17300
1988.46466	0.17321
1986.53598	0.17340
1984.60731	0.17358
1982.67863	0.17377
1980.74996	0.17395
1978.82128	0.17408
1976.89261	0.17417
1974.96393	0.17426
1973.03525	0.17439
1971.10658	0.17455
1969.17790	0.17466
1967.24923	0.17471
1965.32055	0.17481
1963.39188	0.17496
1961.46320	0.17509
1959.53452	0.17526
1957.60585	0.17546
1955.67717	0.17564
1953.74850	0.17580
1951.81982	0.17598
1949.89115	0.17616
1947.96247	0.17630
1946.03379	0.17639
1944.10512	0.17644
1942.17644	0.17652
1940.24777	0.17673
1938.31909	0.17700
1936.39042	0.17725
1934.46174	0.17745
1932.53306	0.17756
1930.60439	0.17763
1928.67571	0.17773
1926.74704	0.17788
1924.81836	0.17798
1922.88969	0.17809
1920.96101	0.17826
1919.03233	0.17843
1917.10366	0.17864
1915.17498	0.17891
1913.24631	0.17911
1911.31763	0.17924
1909.38896	0.17938
1907.46028	0.17952
1905.53160	0.17966
1903.60293	0.17983
1901.67425	0.18004
1899.74558	0.18021
1897.81690	0.18031
1895.88823	0.18039
1893.95955	0.18051
1892.03087	0.18059
1890.10220	0.18065
1888.17352	0.18088
1886.24485	0.18118
1884.31617	0.18137
1882.38750	0.18150
1880.45882	0.18162
1878.53014	0.18173
1876.60147	0.18190
1874.67279	0.18212
1872.74412	0.18227
1870.81544	0.18224
1868.88677	0.18221
1866.95809	0.18241
1865.02941	0.18276
1863.10074	0.18307
1861.17206	0.18329
1859.24339	0.18347
1857.31471	0.18362
1855.38604	0.18376
1853.45736	0.18391
1851.52868	0.18405
1849.60001	0.18408
1847.67133	0.18392
1845.74266	0.18363
1843.81398	0.18372
1841.88531	0.18437
1839.95663	0.18495
1838.02795	0.18518
1836.09928	0.18534
1834.17060	0.18549
1832.24193	0.18548
1830.31325	0.18540
1828.38458	0.18542
1826.45590	0.18552
1824.52722	0.18575
1822.59855	0.18617
1820.66987	0.18649
1818.74120	0.18661
1816.81252	0.18676
1814.88385	0.18694
1812.95517	0.18702
1811.02649	0.18705
1809.09782	0.18725
1807.16914	0.18752
1805.24047	0.18762
1803.31179	0.18755
1801.38312	0.18758
1799.45444	0.18783
1797.52576	0.18807
1795.59709	0.18813
1793.66841	0.18802
1791.73974	0.18801
1789.81106	0.18830
1787.88239	0.18868
1785.95371	0.18886
1784.02503	0.18895
1782.09636	0.18903
1780.16768	0.18912
1778.23901	0.18921
1776.31033	0.18921
1774.38166	0.18905
1772.45298	0.18888
1770.52430	0.18891
1768.59563	0.18918
1766.66695	0.18964
1764.73828	0.19001
1762.80960	0.19012
1760.88093	0.19016
1758.95225	0.19018
1757.02357	0.19018
1755.09490	0.19026
1753.16622	0.19017
1751.23755	0.18983
1749.30887	0.18967
1747.38020	0.18986
1745.45152	0.19011
1743.52284	0.19026
1741.59417	0.19032
1739.66549	0.19034
1737.73682	0.19021
1735.80814	0.18975
1733.87947	0.18942
1731.95079	0.18974
1730.02211	0.19037
1728.09344	0.19090
1726.16476	0.19122
1724.23609	0.19136
1722.30741	0.19135
1720.37874	0.19102
1718.45006	0.19061
1716.52138	0.19071
1714.59271	0.19125
1712.66403	0.19179
1710.73536	0.19211
1708.80668	0.19214
1706.87801	0.19203
1704.94933	0.19206
1703.02065	0.19198
1701.09198	0.19167
1699.16330	0.19159
1697.23463	0.19170
1695.30595	0.19198
1693.37728	0.19255
1691.44860	0.19292
1689.51992	0.19289
1687.59125	0.19258
1685.66257	0.19203
1683.73390	0.19177
1681.80522	0.19216
1679.87655	0.19269
1677.94787	0.19284
1676.01919	0.19273
1674.09052	0.19271
1672.16184	0.19268
1670.23317	0.19256
1668.30449	0.19277
1666.37582	0.19330
1664.44714	0.19357
1662.51846	0.19359
1660.58979	0.19367
1658.66111	0.19373
1656.73244	0.19326
1654.80376	0.19218
1652.87509	0.19170
1650.94641	0.19244
1649.01773	0.19308
1647.08906	0.19307
1645.16038	0.19327
1643.23171	0.19381
1641.30303	0.19409
1639.37436	0.19394
1637.44568	0.19364
1635.51700	0.19366
1633.58833	0.19409
1631.65965	0.19446
1629.73098	0.19446
1627.80230	0.19430
1625.87363	0.19406
1623.94495	0.19369
1622.01627	0.19343
1620.08760	0.19342
1618.15892	0.19366
1616.23025	0.19424
1614.30157	0.19497
1612.37290	0.19549
1610.44422	0.19577
1608.51554	0.19599
1606.58687	0.19627
1604.65819	0.19651
1602.72952	0.19672
1600.80084	0.19696
1598.87217	0.19716
1596.94349	0.19731
1595.01481	0.19744
1593.08614	0.19757
1591.15746	0.19775
1589.22879	0.19798
1587.30011	0.19821
1585.37144	0.19837
1583.44276	0.19851
1581.51408	0.19863
1579.58541	0.19855
1577.65673	0.19829
1575.72806	0.19831
1573.79938	0.19869
1571.87071	0.19878
1569.94203	0.19859
1568.01335	0.19870
1566.08468	0.19907
1564.15600	0.19937
1562.22733	0.19926
1560.29865	0.19855
1558.36998	0.19802
1556.44130	0.19851
1554.51262	0.19941
1552.58395	0.19993
1550.65527	0.20010
1548.72660	0.20031
1546.79792	0.20044
1544.86925	0.20009
1542.94057	0.19946
1541.01189	0.19915
1539.08322	0.19952
1537.15454	0.20033
1535.22587	0.20083
1533.29719	0.20095
1531.36852	0.20110
1529.43984	0.20121
1527.51116	0.20118
1525.58249	0.20116
1523.65381	0.20098
1521.72514	0.20073
1519.79646	0.20083
1517.86779	0.20113
1515.93911	0.20135
1514.01043	0.20145
1512.08176	0.20140
1510.15308	0.20113
1508.22441	0.20084
1506.29573	0.20110
1504.36706	0.20186
1502.43838	0.20235
1500.50970	0.20228
1498.58103	0.20191
1496.65235	0.20173
1494.72368	0.20195
1492.79500	0.20206
1490.86633	0.20179
1488.93765	0.20163
1487.00897	0.20179
1485.08030	0.20194
1483.15162	0.20185
1481.22295	0.20163
1479.29427	0.20140
1477.36560	0.20101
1475.43692	0.20036
1473.50824	0.19983
1471.57957	0.19975
1469.65089	0.19985
1467.72222	0.19974
1465.79354	0.19951
1463.86487	0.19936
1461.93619	0.19911
1460.00751	0.19843
1458.07884	0.19772
1456.15016	0.19764
1454.22149	0.19807
1452.29281	0.19849
1450.36414	0.19864
1448.43546	0.19865
1446.50678	0.19876
1444.57811	0.19896
1442.64943	0.19913
1440.72076	0.19920
1438.79208	0.19903
1436.86341	0.19889
1434.93473	0.19913
1433.00605	0.19950
1431.07738	0.19968
1429.14870	0.19980
1427.22003	0.19989
1425.29135	0.19985
1423.36268	0.19979
1421.43400	0.19965
1419.50532	0.19946
1417.57665	0.19955
1415.64797	0.19993
1413.71930	0.20021
1411.79062	0.20028
1409.86195	0.20027
1407.93327	0.20018
1406.00459	0.20000
1404.07592	0.19996
1402.14724	0.20006
1400.21857	0.20001
1398.28989	0.19984
1396.36122	0.19971
1394.43254	0.19971
1392.50386	0.19984
1390.57519	0.19983
1388.64651	0.19950
1386.71784	0.19914
1384.78916	0.19900
1382.86049	0.19903
1380.93181	0.19908
1379.00313	0.19906
1377.07446	0.19892
1375.14578	0.19875
1373.21711	0.19872
1371.28843	0.19887
1369.35976	0.19901
1367.43108	0.19903
1365.50240	0.19885
1363.57373	0.19865
1361.64505	0.19875
1359.71638	0.19900
1357.78770	0.19911
1355.85903	0.19912
1353.93035	0.19918
1352.00167	0.19932
1350.07300	0.19944
1348.14432	0.19948
1346.21565	0.19953
1344.28697	0.19959
1342.35830	0.19950
1340.42962	0.19929
1338.50094	0.19919
1336.57227	0.19924
1334.64359	0.19931
1332.71492	0.19930
1330.78624	0.19925
1328.85757	0.19914
1326.92889	0.19893
1325.00021	0.19870
1323.07154	0.19848
1321.14286	0.19827
1319.21419	0.19806
1317.28551	0.19787
1315.35684	0.19774
1313.42816	0.19765
1311.49948	0.19749
1309.57081	0.19723
1307.64213	0.19694
1305.71346	0.19669
1303.78478	0.19650
1301.85611	0.19632
1299.92743	0.19612
1297.99875	0.19589
1296.07008	0.19572
1294.14140	0.19559
1292.21273	0.19543
1290.28405	0.19524
1288.35538	0.19504
1286.42670	0.19480
1284.49802	0.19460
1282.56935	0.19447
1280.64067	0.19429
1278.71200	0.19398
1276.78332	0.19360
1274.85465	0.19316
1272.92597	0.19264
1270.99729	0.19200
1269.06862	0.19120
1267.13994	0.19025
1265.21127	0.18935
1263.28259	0.18875
1261.35392	0.18853
1259.42524	0.18863
1257.49656	0.18885
1255.56789	0.18903
1253.63921	0.18908
1251.71054	0.18898
1249.78186	0.18871
1247.85319	0.18837
1245.92451	0.18798
1243.99583	0.18758
1242.06716	0.18719
1240.13848	0.18687
1238.20981	0.18650
1236.28113	0.18593
1234.35246	0.18524
1232.42378	0.18460
1230.49510	0.18405
1228.56643	0.18351
1226.63775	0.18300
1224.70908	0.18251
1222.78040	0.18203
1220.85173	0.18155
1218.92305	0.18106
1216.99437	0.18054
1215.06570	0.18001
1213.13702	0.17949
1211.20835	0.17901
1209.27967	0.17850
1207.35100	0.17793
1205.42232	0.17730
1203.49364	0.17666
1201.56497	0.17609
1199.63629	0.17556
1197.70762	0.17502
1195.77894	0.17445
1193.85027	0.17380
1191.92159	0.17311
1189.99291	0.17242
1188.06424	0.17169
1186.13556	0.17093
1184.20689	0.17017
1182.27821	0.16940
1180.34954	0.16857
1178.42086	0.16768
1176.49218	0.16678
1174.56351	0.16592
1172.63483	0.16512
1170.70616	0.16435
1168.77748	0.16354
1166.84881	0.16264
1164.92013	0.16171
1162.99145	0.16085
1161.06278	0.16008
1159.13410	0.15934
1157.20543	0.15856
1155.27675	0.15772
1153.34808	0.15692
1151.41940	0.15614
1149.49072	0.15533
1147.56205	0.15454
1145.63337	0.15376
1143.70470	0.15291
1141.77602	0.15197
1139.84735	0.15098
1137.91867	0.14997
1135.98999	0.14889
1134.06132	0.14761
1132.13264	0.14601
1130.20397	0.14413
1128.27529	0.14208
1126.34662	0.13989
1124.41794	0.13759
1122.48926	0.13527
1120.56059	0.13299
1118.63191	0.13077
1116.70324	0.12870
1114.77456	0.12687
1112.84589	0.12530
1110.91721	0.12400
1108.98853	0.12299
1107.05986	0.12223
1105.13118	0.12175
1103.20251	0.12156
1101.27383	0.12168
1099.34516	0.12205
1097.41648	0.12266
1095.48780	0.12346
1093.55913	0.12430
1091.63045	0.12512
1089.70178	0.12592
1087.77310	0.12669
1085.84443	0.12740
1083.91575	0.12793
1081.98707	0.12829
1080.05840	0.12854
1078.12972	0.12870
1076.20105	0.12885
1074.27237	0.12900
1072.34370	0.12908
1070.41502	0.12915
1068.48634	0.12929
1066.55767	0.12947
1064.62899	0.12967
1062.70032	0.12990
1060.77164	0.13014
1058.84297	0.13040
1056.91429	0.13070
1054.98561	0.13098
1053.05694	0.13124
1051.12826	0.13152
1049.19959	0.13188
1047.27091	0.13225
1045.34224	0.13259
1043.41356	0.13297
1041.48488	0.13342
1039.55621	0.13386
1037.62753	0.13427
1035.69886	0.13472
1033.77018	0.13517
1031.84151	0.13552
1029.91283	0.13575
1027.98415	0.13596
1026.05548	0.13622
1024.12680	0.13656
1022.19813	0.13693
1020.26945	0.13731
1018.34078	0.13775
1016.41210	0.13827
1014.48342	0.13884
1012.55475	0.13943
1010.62607	0.14006
1008.69740	0.14069
1006.76872	0.14124
1004.84005	0.14170
1002.91137	0.14212
1000.98269	0.14247
999.05402	0.14276
997.12534	0.14298
995.19667	0.14317
993.26799	0.14334
991.33932	0.14341
989.41064	0.14342
987.48196	0.14344
985.55329	0.14348
983.62461	0.14347
981.69594	0.14339
979.76726	0.14328
977.83859	0.14309
975.90991	0.14285
973.98123	0.14265
972.05256	0.14255
970.12388	0.14249
968.19521	0.14238
966.26653	0.14220
964.33786	0.14196
962.40918	0.14172
960.48050	0.14155
958.55183	0.14140
956.62315	0.14118
954.69448	0.14096
952.76580	0.14081
950.83713	0.14072
948.90845	0.14060
946.97977	0.14043
945.05110	0.14019
943.12242	0.13985
941.19375	0.13947
939.26507	0.13909
937.33640	0.13868
935.40772	0.13822
933.47904	0.13774
931.55037	0.13727
929.62169	0.13676
927.69302	0.13621
925.76434	0.13563
923.83567	0.13499
921.90699	0.13435
919.97831	0.13376
918.04964	0.13319
916.12096	0.13255
914.19229	0.13183
912.26361	0.13104
910.33494	0.13024
908.40626	0.12948
906.47758	0.12888
904.54891	0.12839
902.62023	0.12791
900.69156	0.12735
898.76288	0.12671
896.83421	0.12605
894.90553	0.12548
892.97685	0.12504
891.04818	0.12460
889.11950	0.12413
887.19083	0.12372
885.26215	0.12337
883.33348	0.12301
881.40480	0.12265
879.47612	0.12232
877.54745	0.12199
875.61877	0.12165
873.69010	0.12139
871.76142	0.12120
869.83275	0.12100
867.90407	0.12077
865.97539	0.12063
864.04672	0.12058
862.11804	0.12049
860.18937	0.12038
858.26069	0.12032
856.33202	0.12021
854.40334	0.12002
852.47466	0.11981
850.54599	0.11956
848.61731	0.11926
846.68864	0.11894
844.75996	0.11865
842.83129	0.11836
840.90261	0.11802
838.97394	0.11761
837.04526	0.11716
835.11658	0.11663
833.18791	0.11596
831.25923	0.11511
829.33056	0.11412
827.40188	0.11304
825.47321	0.11197
823.54453	0.11102
821.61585	0.11023
819.68718	0.10958
817.75850	0.10906
815.82983	0.10863
813.90115	0.10828
811.97248	0.10805
810.04380	0.10788
808.11512	0.10770
806.18645	0.10756
804.25777	0.10747
802.32910	0.10742
800.40042	0.10721
798.47175	0.10667
796.54307	0.10603
794.61439	0.10549
792.68572	0.10510
790.75704	0.10487
788.82837	0.10472
786.89969	0.10451
784.97102	0.10426
783.04234	0.10402
781.11366	0.10378
779.18499	0.10348
777.25631	0.10312
775.32764	0.10275
773.39896	0.10244
771.47029	0.10221
769.54161	0.10197
767.61293	0.10159
765.68426	0.10112
763.75558	0.10066
761.82691	0.10021
759.89823	0.09971
757.96956	0.09918
756.04088	0.09861
754.11220	0.09794
752.18353	0.09724
750.25485	0.09661
748.32618	0.09601
746.39750	0.09529
744.46883	0.09435
742.54015	0.09335
740.61147	0.09254
738.68280	0.09205
736.75412	0.09184
734.82545	0.09175
732.89677	0.09178
730.96810	0.09189
729.03942	0.09199
727.11074	0.09209
725.18207	0.09222
723.25339	0.09236
721.32472	0.09250
719.39604	0.09269
717.46737	0.09297
715.53869	0.09337
713.61001	0.09384
711.68134	0.09426
709.75266	0.09457
707.82399	0.09465
705.89531	0.09448
703.96664	0.09420
702.03796	0.09392
700.10928	0.09361
698.18061	0.09317
696.25193	0.09250
694.32326	0.09177
692.39458	0.09121
690.46591	0.09080
688.53723	0.09037
686.60855	0.08985
684.67988	0.08934
682.75120	0.08891
680.82253	0.08844
678.89385	0.08791
676.96518	0.08739
675.03650	0.08682
673.10782	0.08608
671.17915	0.08521
669.25047	0.08429
667.32180	0.08344
665.39312	0.08266
663.46445	0.08181
661.53577	0.08093
659.60709	0.08016
657.67842	0.07949
655.74974	0.07884
653.82107	0.07811
651.89239	0.07726
649.96372	0.07636
648.03504	0.07553
646.10636	0.07473
644.17769	0.07384
642.24901	0.07284
640.32034	0.07182
638.39166	0.07077
636.46299	0.06968
634.53431	0.06855
632.60563	0.06713
630.67696	0.06490
628.74828	0.06155
626.81961	0.05722
624.89093	0.05276
622.96226	0.04926
621.03358	0.04707
619.10490	0.04584
617.17623	0.04498
615.24755	0.04410
613.31888	0.04308
611.39020	0.04206
609.46153	0.04148
607.53285	0.04157
605.60417	0.04203
603.67550	0.04262
601.74682	0.04340
599.81815	0.04434
597.88947	0.04520
595.96080	0.04584
594.03212	0.04626
592.10344	0.04647
590.17477	0.04657
588.24609	0.04660
586.31742	0.04649
584.38874	0.04621
582.46007	0.04584
580.53139	0.04551
578.60271	0.04522
576.67404	0.04483
574.74536	0.04424
572.81669	0.04351
570.88801	0.04282
568.95934	0.04221
567.03066	0.04172
565.10198	0.04139
563.17331	0.04114
561.24463	0.04084
559.31596	0.04053
557.38728	0.04030
555.45861	0.04013
553.52993	0.03991
551.60125	0.03967
549.67258	0.03949
547.74390	0.03934
545.81523	0.03919
543.88655	0.03908
541.95788	0.03896
540.02920	0.03877
538.10052	0.03851
536.17185	0.03832
534.24317	0.03822
532.31450	0.03804
530.38582	0.03769
528.45715	0.03731
526.52847	0.03701
524.59979	0.03672
522.67112	0.03646
520.74244	0.03616
518.81377	0.03560
516.88509	0.03484
514.95642	0.03422
513.02774	0.03386
511.09906	0.03360
509.17039	0.03334
507.24171	0.03315
505.31304	0.03295
503.38436	0.03264
501.45569	0.03228
499.52701	0.03189
497.59833	0.03144
495.66966	0.03090
493.74098	0.03029
491.81231	0.02967
489.88363	0.02909
487.95496	0.02857
486.02628	0.02804
484.09760	0.02747
482.16893	0.02690
480.24025	0.02637
478.31158	0.02588
476.38290	0.02536
474.45423	0.02479
472.52555	0.02426
470.59687	0.02380
468.66820	0.02338
466.73952	0.02296
464.81085	0.02267
462.88217	0.02253
460.95350	0.02248
459.02482	0.02243
457.09614	0.02240
455.16747	0.02245
453.23879	0.02249
451.31012	0.02242
449.38144	0.02223
447.45277	0.02200
445.52409	0.02179
443.59541	0.02159
441.66674	0.02138
439.73806	0.02114
437.80939	0.02077
435.88071	0.02025
433.95204	0.01971
432.02336	0.01919
430.09468	0.01868
428.16601	0.01811
426.23733	0.01746
424.30866	0.01681
422.37998	0.01615
420.45131	0.01540
418.52263	0.01460
416.59395	0.01394
414.66528	0.01344
412.73660	0.01294
410.80793	0.01236
408.87925	0.01176
406.95058	0.01119
405.02190	0.01059
403.09322	0.00990
401.16455	0.00925
399.23587	0.00876
397.30720	0.00834
395.37852	0.00782
393.44985	0.00725
391.52117	0.00677
389.59249	0.00641
387.66382	0.00603
385.73514	0.00557
383.80647	0.00511
381.87779	0.00470
379.94912	0.00431
378.02044	0.00391
376.09176	0.00351
374.16309	0.00316
372.23441	0.00288
370.30574	0.00261
368.37706	0.00239
