7496.76250	0.00116
7494.83382	0.00117
7492.90514	0.00117
7490.97647	0.00115
7489.04779	0.00115
7487.11912	0.00117
7485.19044	0.00119
7483.26177	0.00120
7481.33309	0.00119
7479.40441	0.00119
7477.47574	0.00120
7475.54706	0.00121
7473.61839	0.00121
7471.68971	0.00121
7469.76104	0.00120
7467.83236	0.00121
7465.90368	0.00122
7463.97501	0.00124
7462.04633	0.00124
7460.11766	0.00125
7458.18898	0.00126
7456.26031	0.00126
7454.33163	0.00125
7452.40295	0.00123
7450.47428	0.00122
7448.54560	0.00123
7446.61693	0.00125
7444.68825	0.00126
7442.75958	0.00127
7440.83090	0.00129
7438.90222	0.00130
7436.97355	0.00130
7435.04487	0.00129
7433.11620	0.00129
7431.18752	0.00128
7429.25885	0.00128
7427.33017	0.00130
7425.40149	0.00133
7423.47282	0.00133
7421.54414	0.00131
7419.61547	0.00130
7417.68679	0.00129
7415.75812	0.00129
7413.82944	0.00132
7411.90076	0.00134
7409.97209	0.00136
7408.04341	0.00135
7406.11474	0.00133
7404.18606	0.00131
7402.25739	0.00131
7400.32871	0.00132
7398.40003	0.00132
7396.47136	0.00132
7394.54268	0.00133
7392.61401	0.00136
7390.68533	0.00138
7388.75666	0.00139
7386.82798	0.00139
7384.89930	0.00139
7382.97063	0.00138
7381.04195	0.00138
7379.11328	0.00138
7377.18460	0.00139
7375.25593	0.00140
7373.32725	0.00141
7371.39857	0.00141
7369.46990	0.00139
7367.54122	0.00140
7365.61255	0.00141
7363.68387	0.00141
7361.75520	0.00140
7359.82652	0.00140
7357.89784	0.00142
7355.96917	0.00143
7354.04049	0.00143
7352.11182	0.00143
7350.18314	0.00143
7348.25447	0.00143
7346.32579	0.00144
7344.39711	0.00144
7342.46844	0.00143
7340.53976	0.00143
7338.61109	0.00144
7336.68241	0.00145
7334.75374	0.00145
7332.82506	0.00146
7330.89638	0.00147
7328.96771	0.00147
7327.03903	0.00147
7325.11036	0.00147
7323.18168	0.00148
7321.25301	0.00150
7319.32433	0.00151
7317.39565	0.00150
7315.46698	0.00150
7313.53830	0.00149
7311.60963	0.00149
7309.68095	0.00148
7307.75228	0.00149
7305.82360	0.00151
7303.89492	0.00151
7301.96625	0.00151
7300.03757	0.00151
7298.10890	0.00152
7296.18022	0.00153
7294.25155	0.00153
7292.32287	0.00152
7290.39419	0.00152
7288.46552	0.00153
7286.53684	0.00154
7284.60817	0.00154
7282.67949	0.00154
7280.75082	0.00155
7278.82214	0.00155
7276.89346	0.00155
7274.96479	0.00154
7273.03611	0.00155
7271.10744	0.00156
7269.17876	0.00157
7267.25009	0.00159
7265.32141	0.00160
7263.39273	0.00160
7261.46406	0.00160
7259.53538	0.00160
7257.60671	0.00159
7255.67803	0.00157
7253.74936	0.00157
7251.82068	0.00159
7249.89200	0.00162
7247.96333	0.00163
7246.03465	0.00163
7244.10598	0.00163
7242.17730	0.00162
7240.24863	0.00164
7238.31995	0.00165
7236.39127	0.00164
7234.46260	0.00162
7232.53392	0.00163
7230.60525	0.00165
7228.67657	0.00165
7226.74790	0.00165
7224.81922	0.00166
7222.89054	0.00167
7220.96187	0.00167
7219.03319	0.00168
7217.10452	0.00169
7215.17584	0.00169
7213.24717	0.00169
7211.31849	0.00169
7209.38981	0.00168
7207.46114	0.00169
7205.53246	0.00169
7203.60379	0.00169
7201.67511	0.00169
7199.74644	0.00170
7197.81776	0.00171
7195.88908	0.00171
7193.96041	0.00170
7192.03173	0.00169
7190.10306	0.00169
7188.17438	0.00171
7186.24571	0.00173
7184.31703	0.00175
7182.38835	0.00175
7180.45968	0.00174
7178.53100	0.00173
7176.60233	0.00173
7174.67365	0.00173
7172.74498	0.00175
7170.81630	0.00177
7168.88762	0.00177
7166.95895	0.00176
7165.03027	0.00176
7163.10160	0.00178
7161.17292	0.00179
7159.24425	0.00178
7157.31557	0.00177
7155.38689	0.00177
7153.45822	0.00179
7151.52954	0.00180
7149.60087	0.00181
7147.67219	0.00182
7145.74352	0.00182
7143.81484	0.00182
7141.88616	0.00181
7139.95749	0.00182
7138.02881	0.00182
7136.10014	0.00184
7134.17146	0.00186
7132.24279	0.00186
7130.31411	0.00186
7128.38543	0.00185
7126.45676	0.00185
7124.52808	0.00185
7122.59941	0.00185
7120.67073	0.00185
7118.74206	0.00186
7116.81338	0.00187
7114.88470	0.00189
7112.95603	0.00189
7111.02735	0.00188
7109.09868	0.00187
7107.17000	0.00187
7105.24133	0.00188
7103.31265	0.00190
7101.38397	0.00192
7099.45530	0.00192
7097.52662	0.00192
7095.59795	0.00193
7093.66927	0.00195
7091.74060	0.00197
7089.81192	0.00197
7087.88324	0.00197
7085.95457	0.00198
7084.02589	0.00199
7082.09722	0.00199
7080.16854	0.00199
7078.23987	0.00200
7076.31119	0.00200
7074.38251	0.00199
7072.45384	0.00198
7070.52516	0.00197
7068.59649	0.00198
7066.66781	0.00200
7064.73914	0.00202
7062.81046	0.00201
7060.88178	0.00200
7058.95311	0.00200
7057.02443	0.00201
7055.09576	0.00202
7053.16708	0.00202
7051.23841	0.00202
7049.30973	0.00204
7047.38105	0.00205
7045.45238	0.00206
7043.52370	0.00207
7041.59503	0.00207
7039.66635	0.00206
7037.73768	0.00206
7035.80900	0.00206
7033.88032	0.00205
7031.95165	0.00205
7030.02297	0.00205
7028.09430	0.00206
7026.16562	0.00207
7024.23695	0.00208
7022.30827	0.00207
7020.37959	0.00207
7018.45092	0.00208
7016.52224	0.00209
7014.59357	0.00210
7012.66489	0.00211
7010.73622	0.00213
7008.80754	0.00213
7006.87886	0.00213
7004.95019	0.00212
7003.02151	0.00213
7001.09284	0.00213
6999.16416	0.00213
6997.23549	0.00214
6995.30681	0.00215
6993.37813	0.00215
6991.44946	0.00216
6989.52078	0.00216
6987.59211	0.00217
6985.66343	0.00219
6983.73476	0.00220
6981.80608	0.00221
6979.87740	0.00220
6977.94873	0.00219
6976.02005	0.00220
6974.09138	0.00221
6972.16270	0.00220
6970.23403	0.00220
6968.30535	0.00221
6966.37667	0.00223
6964.44800	0.00223
6962.51932	0.00224
6960.59065	0.00224
6958.66197	0.00224
6956.73330	0.00224
6954.80462	0.00224
6952.87594	0.00224
6950.94727	0.00225
6949.01859	0.00226
6947.08992	0.00226
6945.16124	0.00226
6943.23257	0.00226
6941.30389	0.00228
6939.37521	0.00229
6937.44654	0.00230
6935.51786	0.00230
6933.58919	0.00230
6931.66051	0.00231
6929.73184	0.00231
6927.80316	0.00230
6925.87448	0.00231
6923.94581	0.00232
6922.01713	0.00233
6920.08846	0.00234
6918.15978	0.00235
6916.23111	0.00237
6914.30243	0.00238
6912.37375	0.00238
6910.44508	0.00237
6908.51640	0.00236
6906.58773	0.00236
6904.65905	0.00236
6902.73038	0.00236
6900.80170	0.00238
6898.87302	0.00239
6896.94435	0.00240
6895.01567	0.00239
6893.08700	0.00240
6891.15832	0.00242
6889.22965	0.00244
6887.30097	0.00244
6885.37229	0.00244
6883.44362	0.00244
6881.51494	0.00244
6879.58627	0.00245
6877.65759	0.00244
6875.72892	0.00245
6873.80024	0.00247
6871.87156	0.00248
6869.94289	0.00247
6868.01421	0.00246
6866.08554	0.00247
6864.15686	0.00250
6862.22819	0.00250
6860.29951	0.00250
6858.37083	0.00250
6856.44216	0.00251
6854.51348	0.00251
6852.58481	0.00250
6850.65613	0.00250
6848.72746	0.00252
6846.79878	0.00254
6844.87010	0.00253
6842.94143	0.00252
6841.01275	0.00252
6839.08408	0.00254
6837.15540	0.00255
6835.22673	0.00256
6833.29805	0.00257
6831.36937	0.00259
6829.44070	0.00259
6827.51202	0.00259
6825.58335	0.00260
6823.65467	0.00261
6821.72600	0.00261
6819.79732	0.00261
6817.86864	0.00260
6815.93997	0.00259
6814.01129	0.00258
6812.08262	0.00258
6810.15394	0.00261
6808.22527	0.00263
6806.29659	0.00263
6804.36791	0.00263
6802.43924	0.00263
6800.51056	0.00264
6798.58189	0.00266
6796.65321	0.00268
6794.72454	0.00269
6792.79586	0.00269
6790.86718	0.00268
6788.93851	0.00268
6787.00983	0.00268
6785.08116	0.00266
6783.15248	0.00266
6781.22381	0.00267
6779.29513	0.00269
6777.36645	0.00270
6775.43778	0.00272
6773.50910	0.00273
6771.58043	0.00274
6769.65175	0.00274
6767.72308	0.00274
6765.79440	0.00275
6763.86572	0.00276
6761.93705	0.00275
6760.00837	0.00275
6758.07970	0.00276
6756.15102	0.00277
6754.22235	0.00279
6752.29367	0.00281
6750.36499	0.00282
6748.43632	0.00282
6746.50764	0.00281
6744.57897	0.00281
6742.65029	0.00281
6740.72162	0.00282
6738.79294	0.00282
6736.86426	0.00282
6734.93559	0.00284
6733.00691	0.00285
6731.07824	0.00286
6729.14956	0.00287
6727.22089	0.00288
6725.29221	0.00288
6723.36353	0.00288
6721.43486	0.00287
6719.50618	0.00288
6717.57751	0.00289
6715.64883	0.00291
6713.72016	0.00292
6711.79148	0.00292
6709.86280	0.00291
6707.93413	0.00292
6706.00545	0.00294
6704.07678	0.00296
6702.14810	0.00297
6700.21943	0.00297
6698.29075	0.00296
6696.36207	0.00297
6694.43340	0.00299
6692.50472	0.00301
6690.57605	0.00301
6688.64737	0.00299
6686.71870	0.00298
6684.79002	0.00298
6682.86134	0.00298
6680.93267	0.00300
6679.00399	0.00301
6677.07532	0.00301
6675.14664	0.00302
6673.21797	0.00303
6671.28929	0.00304
6669.36061	0.00303
6667.43194	0.00303
6665.50326	0.00304
6663.57459	0.00305
6661.64591	0.00307
6659.71724	0.00309
6657.78856	0.00309
6655.85988	0.00311
6653.93121	0.00313
6652.00253	0.00315
6650.07386	0.00315
6648.14518	0.00315
6646.21651	0.00314
6644.28783	0.00314
6642.35915	0.00315
6640.43048	0.00316
6638.50180	0.00316
6636.57313	0.00317
6634.64445	0.00318
6632.71578	0.00318
6630.78710	0.00319
6628.85842	0.00320
6626.92975	0.00321
6625.00107	0.00321
6623.07240	0.00319
6621.14372	0.00319
6619.21505	0.00320
6617.28637	0.00322
6615.35769	0.00323
6613.42902	0.00324
6611.50034	0.00325
6609.57167	0.00327
6607.64299	0.00329
6605.71432	0.00330
6603.78564	0.00330
6601.85696	0.00329
6599.92829	0.00328
6597.99961	0.00328
6596.07094	0.00328
6594.14226	0.00327
6592.21359	0.00330
6590.28491	0.00333
6588.35623	0.00335
6586.42756	0.00336
6584.49888	0.00337
6582.57021	0.00337
6580.64153	0.00337
6578.71286	0.00337
6576.78418	0.00338
6574.85550	0.00338
6572.92683	0.00338
6570.99815	0.00338
6569.06948	0.00337
6567.14080	0.00338
6565.21213	0.00340
6563.28345	0.00341
6561.35477	0.00342
6559.42610	0.00343
6557.49742	0.00343
6555.56875	0.00345
6553.64007	0.00347
6551.71140	0.00348
6549.78272	0.00349
6547.85404	0.00350
6545.92537	0.00350
6543.99669	0.00349
6542.06802	0.00350
6540.13934	0.00351
6538.21067	0.00352
6536.28199	0.00354
6534.35331	0.00354
6532.42464	0.00354
6530.49596	0.00354
6528.56729	0.00355
6526.63861	0.00356
6524.70994	0.00357
6522.78126	0.00357
6520.85258	0.00358
6518.92391	0.00359
6516.99523	0.00360
6515.06656	0.00360
6513.13788	0.00359
6511.20921	0.00358
6509.28053	0.00360
6507.35185	0.00362
6505.42318	0.00363
6503.49450	0.00364
6501.56583	0.00363
6499.63715	0.00363
6497.70848	0.00365
6495.77980	0.00366
6493.85112	0.00366
6491.92245	0.00367
6489.99377	0.00370
6488.06510	0.00372
6486.13642	0.00372
6484.20775	0.00373
6482.27907	0.00374
6480.35039	0.00375
6478.42172	0.00375
6476.49304	0.00375
6474.56437	0.00375
6472.63569	0.00377
6470.70702	0.00380
6468.77834	0.00381
6466.84966	0.00380
6464.92099	0.00380
6462.99231	0.00380
6461.06364	0.00382
6459.13496	0.00383
6457.20629	0.00383
6455.27761	0.00385
6453.34893	0.00386
6451.42026	0.00386
6449.49158	0.00386
6447.56291	0.00387
6445.63423	0.00390
6443.70556	0.00391
6441.77688	0.00392
6439.84820	0.00392
6437.91953	0.00392
6435.99085	0.00391
6434.06218	0.00391
6432.13350	0.00393
6430.20483	0.00395
6428.27615	0.00396
6426.34747	0.00397
6424.41880	0.00397
6422.49012	0.00395
6420.56145	0.00395
6418.63277	0.00398
6416.70410	0.00402
6414.77542	0.00404
6412.84674	0.00404
6410.91807	0.00403
6408.98939	0.00403
6407.06072	0.00403
6405.13204	0.00404
6403.20337	0.00405
6401.27469	0.00406
6399.34601	0.00407
6397.41734	0.00406
6395.48866	0.00407
6393.55999	0.00408
6391.63131	0.00410
6389.70264	0.00411
6387.77396	0.00412
6385.84528	0.00412
6383.91661	0.00412
6381.98793	0.00413
6380.05926	0.00415
6378.13058	0.00417
6376.20191	0.00418
6374.27323	0.00418
6372.34455	0.00420
6370.41588	0.00421
6368.48720	0.00422
6366.55853	0.00423
6364.62985	0.00423
6362.70118	0.00423
6360.77250	0.00423
6358.84382	0.00423
6356.91515	0.00425
6354.98647	0.00427
6353.05780	0.00427
6351.12912	0.00426
6349.20045	0.00425
6347.27177	0.00427
6345.34309	0.00431
6343.41442	0.00433
6341.48574	0.00433
6339.55707	0.00434
6337.62839	0.00435
6335.69972	0.00434
6333.77104	0.00434
6331.84236	0.00435
6329.91369	0.00438
6327.98501	0.00440
6326.05634	0.00442
6324.12766	0.00442
6322.19899	0.00442
6320.27031	0.00443
6318.34163	0.00444
6316.41296	0.00444
6314.48428	0.00442
6312.55561	0.00444
6310.62693	0.00448
6308.69826	0.00449
6306.76958	0.00449
6304.84090	0.00449
6302.91223	0.00451
6300.98355	0.00454
6299.05488	0.00455
6297.12620	0.00455
6295.19753	0.00456
6293.26885	0.00457
6291.34017	0.00458
6289.41150	0.00460
6287.48282	0.00460
6285.55415	0.00459
6283.62547	0.00458
6281.69680	0.00460
6279.76812	0.00462
6277.83944	0.00462
6275.91077	0.00462
6273.98209	0.00463
6272.05342	0.00464
6270.12474	0.00465
6268.19607	0.00467
6266.26739	0.00470
6264.33871	0.00472
6262.41004	0.00473
6260.48136	0.00474
6258.55269	0.00476
6256.62401	0.00477
6254.69534	0.00477
6252.76666	0.00477
6250.83798	0.00478
6248.90931	0.00479
6246.98063	0.00481
6245.05196	0.00482
6243.12328	0.00482
6241.19461	0.00482
6239.26593	0.00485
6237.33725	0.00487
6235.40858	0.00488
6233.47990	0.00488
6231.55123	0.00488
6229.62255	0.00487
6227.69388	0.00489
6225.76520	0.00492
6223.83652	0.00493
6221.90785	0.00493
6219.97917	0.00492
6218.05050	0.00493
6216.12182	0.00495
6214.19315	0.00496
6212.26447	0.00498
6210.33579	0.00499
6208.40712	0.00498
6206.47844	0.00498
6204.54977	0.00499
6202.62109	0.00501
6200.69242	0.00503
6198.76374	0.00505
6196.83506	0.00508
6194.90639	0.00510
6192.97771	0.00512
6191.04904	0.00511
6189.12036	0.00510
6187.19169	0.00510
6185.26301	0.00512
6183.33433	0.00514
6181.40566	0.00516
6179.47698	0.00517
6177.54831	0.00517
6175.61963	0.00518
6173.69096	0.00519
6171.76228	0.00519
6169.83360	0.00520
6167.90493	0.00523
6165.97625	0.00526
6164.04758	0.00527
6162.11890	0.00527
6160.19023	0.00527
6158.26155	0.00529
6156.33287	0.00530
6154.40420	0.00530
6152.47552	0.00530
6150.54685	0.00532
6148.61817	0.00534
6146.68950	0.00534
6144.76082	0.00535
6142.83214	0.00537
6140.90347	0.00538
6138.97479	0.00539
6137.04612	0.00541
6135.11744	0.00542
6133.18877	0.00542
6131.26009	0.00543
6129.33141	0.00545
6127.40274	0.00547
6125.47406	0.00548
6123.54539	0.00548
6121.61671	0.00547
6119.68804	0.00548
6117.75936	0.00551
6115.83068	0.00554
6113.90201	0.00553
6111.97333	0.00552
6110.04466	0.00555
6108.11598	0.00558
6106.18731	0.00560
6104.25863	0.00560
6102.32995	0.00561
6100.40128	0.00562
6098.47260	0.00565
6096.54393	0.00566
6094.61525	0.00566
6092.68658	0.00567
6090.75790	0.00568
6088.82922	0.00567
6086.90055	0.00567
6084.97187	0.00568
6083.04320	0.00568
6081.11452	0.00569
6079.18585	0.00570
6077.25717	0.00571
6075.32849	0.00573
6073.39982	0.00576
6071.47114	0.00580
6069.54247	0.00582
6067.61379	0.00582
6065.68512	0.00582
6063.75644	0.00583
6061.82776	0.00584
6059.89909	0.00585
6057.97041	0.00588
6056.04174	0.00591
6054.11306	0.00592
6052.18439	0.00591
6050.25571	0.00591
6048.32703	0.00593
6046.39836	0.00594
6044.46968	0.00594
6042.54101	0.00595
6040.61233	0.00597
6038.68366	0.00599
6036.75498	0.00601
6034.82630	0.00602
6032.89763	0.00603
6030.96895	0.00606
6029.04028	0.00608
6027.11160	0.00608
6025.18293	0.00608
6023.25425	0.00609
6021.32557	0.00611
6019.39690	0.00612
6017.46822	0.00614
6015.53955	0.00615
6013.61087	0.00616
6011.68220	0.00618
6009.75352	0.00619
6007.82484	0.00620
6005.89617	0.00621
6003.96749	0.00623
6002.03882	0.00624
6000.11014	0.00626
5998.18147	0.00628
5996.25279	0.00629
5994.32411	0.00630
5992.39544	0.00633
5990.46676	0.00635
5988.53809	0.00635
5986.60941	0.00634
5984.68074	0.00634
5982.75206	0.00633
5980.82338	0.00635
5978.89471	0.00639
5976.96603	0.00642
5975.03736	0.00644
5973.10868	0.00645
5971.18001	0.00645
5969.25133	0.00644
5967.32265	0.00643
5965.39398	0.00645
5963.46530	0.00648
5961.53663	0.00650
5959.60795	0.00652
5957.67928	0.00654
5955.75060	0.00656
5953.82192	0.00657
5951.89325	0.00658
5949.96457	0.00660
5948.03590	0.00661
5946.10722	0.00662
5944.17855	0.00663
5942.24987	0.00664
5940.32119	0.00664
5938.39252	0.00665
5936.46384	0.00668
5934.53517	0.00671
5932.60649	0.00673
5930.67782	0.00674
5928.74914	0.00675
5926.82046	0.00676
5924.89179	0.00678
5922.96311	0.00679
5921.03444	0.00680
5919.10576	0.00681
5917.17709	0.00683
5915.24841	0.00686
5913.31973	0.00688
5911.39106	0.00688
5909.46238	0.00689
5907.53371	0.00691
5905.60503	0.00691
5903.67636	0.00692
5901.74768	0.00694
5899.81900	0.00695
5897.89033	0.00698
5895.96165	0.00700
5894.03298	0.00701
5892.10430	0.00702
5890.17563	0.00703
5888.24695	0.00704
5886.31827	0.00705
5884.38960	0.00706
5882.46092	0.00708
5880.53225	0.00709
5878.60357	0.00710
5876.67490	0.00712
5874.74622	0.00713
5872.81755	0.00715
5870.88887	0.00717
5868.96019	0.00719
5867.03152	0.00719
5865.10284	0.00720
5863.17417	0.00721
5861.24549	0.00723
5859.31682	0.00725
5857.38814	0.00729
5855.45946	0.00733
5853.53079	0.00735
5851.60211	0.00734
5849.67344	0.00733
5847.74476	0.00733
5845.81609	0.00736
5843.88741	0.00740
5841.95873	0.00741
5840.03006	0.00742
5838.10138	0.00744
5836.17271	0.00746
5834.24403	0.00747
5832.31536	0.00749
5830.38668	0.00751
5828.45800	0.00752
5826.52933	0.00752
5824.60065	0.00752
5822.67198	0.00753
5820.74330	0.00755
5818.81463	0.00757
5816.88595	0.00759
5814.95727	0.00761
5813.02860	0.00762
5811.09992	0.00763
5809.17125	0.00764
5807.24257	0.00766
5805.31390	0.00768
5803.38522	0.00771
5801.45654	0.00774
5799.52787	0.00774
5797.59919	0.00773
5795.67052	0.00774
5793.74184	0.00776
5791.81317	0.00779
5789.88449	0.00780
5787.95581	0.00782
5786.02714	0.00785
5784.09846	0.00788
5782.16979	0.00791
5780.24111	0.00793
5778.31244	0.00793
5776.38376	0.00792
5774.45508	0.00792
5772.52641	0.00794
5770.59773	0.00795
5768.66906	0.00795
5766.74038	0.00798
5764.81171	0.00802
5762.88303	0.00806
5760.95435	0.00807
5759.02568	0.00807
5757.09700	0.00809
5755.16833	0.00811
5753.23965	0.00811
5751.31098	0.00811
5749.38230	0.00812
5747.45362	0.00815
5745.52495	0.00819
5743.59627	0.00820
5741.66760	0.00820
5739.73892	0.00823
5737.81025	0.00826
5735.88157	0.00829
5733.95289	0.00830
5732.02422	0.00830
5730.09554	0.00831
5728.16687	0.00832
5726.23819	0.00833
5724.30952	0.00835
5722.38084	0.00838
5720.45216	0.00838
5718.52349	0.00838
5716.59481	0.00839
5714.66614	0.00843
5712.73746	0.00847
5710.80879	0.00850
5708.88011	0.00852
5706.95143	0.00854
5705.02276	0.00856
5703.09408	0.00857
5701.16541	0.00857
5699.23673	0.00857
5697.30806	0.00861
5695.37938	0.00864
5693.45070	0.00864
5691.52203	0.00865
5689.59335	0.00868
5687.66468	0.00870
5685.73600	0.00871
5683.80733	0.00872
5681.87865	0.00873
5679.94997	0.00874
5678.02130	0.00875
5676.09262	0.00878
5674.16395	0.00880
5672.23527	0.00882
5670.30660	0.00884
5668.37792	0.00885
5666.44924	0.00887
5664.52057	0.00889
5662.59189	0.00891
5660.66322	0.00892
5658.73454	0.00892
5656.80587	0.00893
5654.87719	0.00896
5652.94851	0.00900
5651.01984	0.00903
5649.09116	0.00904
5647.16249	0.00905
5645.23381	0.00907
5643.30514	0.00910
5641.37646	0.00912
5639.44778	0.00914
5637.51911	0.00916
5635.59043	0.00919
5633.66176	0.00921
5631.73308	0.00922
5629.80441	0.00924
5627.87573	0.00925
5625.94705	0.00926
5624.01838	0.00927
5622.08970	0.00927
5620.16103	0.00928
5618.23235	0.00930
5616.30368	0.00932
5614.37500	0.00934
5612.44632	0.00937
5610.51765	0.00941
5608.58897	0.00943
5606.66030	0.00944
5604.73162	0.00944
5602.80295	0.00944
5600.87427	0.00948
5598.94559	0.00952
5597.01692	0.00954
5595.08824	0.00954
5593.15957	0.00955
5591.23089	0.00957
5589.30222	0.00959
5587.37354	0.00961
5585.44486	0.00964
5583.51619	0.00965
5581.58751	0.00966
5579.65884	0.00968
5577.73016	0.00970
5575.80149	0.00971
5573.87281	0.00974
5571.94413	0.00978
5570.01546	0.00982
5568.08678	0.00983
5566.15811	0.00982
5564.22943	0.00981
5562.30076	0.00983
5560.37208	0.00986
5558.44340	0.00988
5556.51473	0.00991
5554.58605	0.00995
5552.65738	0.00999
5550.72870	0.01000
5548.80003	0.01002
5546.87135	0.01003
5544.94267	0.01004
5543.01400	0.01005
5541.08532	0.01007
5539.15665	0.01008
5537.22797	0.01010
5535.29930	0.01013
5533.37062	0.01015
5531.44194	0.01018
5529.51327	0.01020
5527.58459	0.01023
5525.65592	0.01025
5523.72724	0.01027
5521.79857	0.01028
5519.86989	0.01028
5517.94121	0.01028
5516.01254	0.01029
5514.08386	0.01032
5512.15519	0.01034
5510.22651	0.01038
5508.29784	0.01043
5506.36916	0.01046
5504.44048	0.01047
5502.51181	0.01047
5500.58313	0.01048
5498.65446	0.01049
5496.72578	0.01050
5494.79711	0.01051
5492.86843	0.01053
5490.93975	0.01055
5489.01108	0.01057
5487.08240	0.01061
5485.15373	0.01065
5483.22505	0.01067
5481.29638	0.01068
5479.36770	0.01070
5477.43902	0.01072
5475.51035	0.01073
5473.58167	0.01074
5471.65300	0.01077
5469.72432	0.01080
5467.79565	0.01081
5465.86697	0.01083
5463.93829	0.01086
5462.00962	0.01089
5460.08094	0.01090
5458.15227	0.01091
5456.22359	0.01092
5454.29492	0.01095
5452.36624	0.01098
5450.43756	0.01098
5448.50889	0.01098
5446.58021	0.01100
5444.65154	0.01104
5442.72286	0.01106
5440.79419	0.01108
5438.86551	0.01110
5436.93683	0.01111
5435.00816	0.01111
5433.07948	0.01113
5431.15081	0.01116
5429.22213	0.01118
5427.29346	0.01120
5425.36478	0.01124
5423.43610	0.01129
5421.50743	0.01132
5419.57875	0.01133
5417.65008	0.01134
5415.72140	0.01135
5413.79273	0.01137
5411.86405	0.01140
5409.93537	0.01142
5408.00670	0.01143
5406.07802	0.01144
5404.14935	0.01148
5402.22067	0.01152
5400.29200	0.01155
5398.36332	0.01157
5396.43464	0.01158
5394.50597	0.01159
5392.57729	0.01162
5390.64862	0.01166
5388.71994	0.01168
5386.79127	0.01170
5384.86259	0.01172
5382.93391	0.01173
5381.00524	0.01174
5379.07656	0.01176
5377.14789	0.01178
5375.21921	0.01179
5373.29054	0.01181
5371.36186	0.01185
5369.43318	0.01189
5367.50451	0.01191
5365.57583	0.01193
5363.64716	0.01196
5361.71848	0.01198
5359.78981	0.01200
5357.86113	0.01201
5355.93245	0.01203
5354.00378	0.01203
5352.07510	0.01206
5350.14643	0.01210
5348.21775	0.01210
5346.28908	0.01210
5344.36040	0.01211
5342.43172	0.01215
5340.50305	0.01219
5338.57437	0.01222
5336.64570	0.01224
5334.71702	0.01225
5332.78835	0.01227
5330.85967	0.01231
5328.93099	0.01234
5327.00232	0.01236
5325.07364	0.01238
5323.14497	0.01241
5321.21629	0.01243
5319.28762	0.01245
5317.35894	0.01248
5315.43026	0.01250
5313.50159	0.01253
5311.57291	0.01256
5309.64424	0.01258
5307.71556	0.01259
5305.78689	0.01261
5303.85821	0.01264
5301.92953	0.01267
5300.00086	0.01268
5298.07218	0.01270
5296.14351	0.01272
5294.21483	0.01275
5292.28616	0.01277
5290.35748	0.01279
5288.42880	0.01282
5286.50013	0.01285
5284.57145	0.01286
5282.64278	0.01289
5280.71410	0.01291
5278.78543	0.01294
5276.85675	0.01296
5274.92807	0.01299
5272.99940	0.01301
5271.07072	0.01303
5269.14205	0.01305
5267.21337	0.01307
5265.28470	0.01308
5263.35602	0.01310
5261.42734	0.01312
5259.49867	0.01314
5257.56999	0.01315
5255.64132	0.01315
5253.71264	0.01318
5251.78397	0.01322
5249.85529	0.01325
5247.92661	0.01327
5245.99794	0.01331
5244.06926	0.01335
5242.14059	0.01338
5240.21191	0.01339
5238.28324	0.01340
5236.35456	0.01341
5234.42588	0.01343
5232.49721	0.01345
5230.56853	0.01347
5228.63986	0.01351
5226.71118	0.01354
5224.78251	0.01355
5222.85383	0.01356
5220.92515	0.01360
5218.99648	0.01364
5217.06780	0.01368
5215.13913	0.01371
5213.21045	0.01374
5211.28178	0.01376
5209.35310	0.01378
5207.42442	0.01379
5205.49575	0.01380
5203.56707	0.01383
5201.63840	0.01384
5199.70972	0.01386
5197.78105	0.01388
5195.85237	0.01390
5193.92369	0.01393
5191.99502	0.01396
5190.06634	0.01398
5188.13767	0.01401
5186.20899	0.01406
5184.28032	0.01411
5182.35164	0.01414
5180.42296	0.01417
5178.49429	0.01419
5176.56561	0.01419
5174.63694	0.01419
5172.70826	0.01420
5170.77959	0.01423
5168.85091	0.01428
5166.92223	0.01433
5164.99356	0.01436
5163.06488	0.01437
5161.13621	0.01438
5159.20753	0.01438
5157.27886	0.01440
5155.35018	0.01444
5153.42150	0.01447
5151.49283	0.01449
5149.56415	0.01450
5147.63548	0.01450
5145.70680	0.01452
5143.77813	0.01456
5141.84945	0.01460
5139.92077	0.01464
5137.99210	0.01466
5136.06342	0.01467
5134.13475	0.01469
5132.20607	0.01472
5130.27740	0.01475
5128.34872	0.01477
5126.42004	0.01478
5124.49137	0.01479
5122.56269	0.01482
5120.63402	0.01485
5118.70534	0.01487
5116.77667	0.01490
5114.84799	0.01494
5112.91931	0.01499
5110.99064	0.01502
5109.06196	0.01505
5107.13329	0.01507
5105.20461	0.01511
5103.27594	0.01514
5101.34726	0.01515
5099.41858	0.01514
5097.48991	0.01515
5095.56123	0.01519
5093.63256	0.01523
5091.70388	0.01526
5089.77521	0.01529
5087.84653	0.01529
5085.91785	0.01530
5083.98918	0.01532
5082.06050	0.01536
5080.13183	0.01540
5078.20315	0.01544
5076.27448	0.01548
5074.34580	0.01551
5072.41712	0.01553
5070.48845	0.01553
5068.55977	0.01555
5066.63110	0.01559
5064.70242	0.01562
5062.77375	0.01564
5060.84507	0.01566
5058.91639	0.01570
5056.98772	0.01572
5055.05904	0.01574
5053.13037	0.01579
5051.20169	0.01584
5049.27302	0.01586
5047.34434	0.01588
5045.41566	0.01588
5043.48699	0.01588
5041.55831	0.01590
5039.62964	0.01592
5037.70096	0.01595
5035.77229	0.01599
5033.84361	0.01602
5031.91493	0.01605
5029.98626	0.01609
5028.05758	0.01612
5026.12891	0.01614
5024.20023	0.01616
5022.27156	0.01619
5020.34288	0.01624
5018.41420	0.01626
5016.48553	0.01628
5014.55685	0.01629
5012.62818	0.01631
5010.69950	0.01634
5008.77083	0.01637
5006.84215	0.01639
5004.91347	0.01642
5002.98480	0.01647
5001.05612	0.01649
4999.12745	0.01650
4997.19877	0.01652
4995.27010	0.01655
4993.34142	0.01658
4991.41274	0.01661
4989.48407	0.01663
4987.55539	0.01666
4985.62672	0.01668
4983.69804	0.01670
4981.76937	0.01672
4979.84069	0.01677
4977.91201	0.01682
4975.98334	0.01684
4974.05466	0.01683
4972.12599	0.01684
4970.19731	0.01687
4968.26864	0.01691
4966.33996	0.01695
4964.41128	0.01699
4962.48261	0.01702
4960.55393	0.01703
4958.62526	0.01705
4956.69658	0.01709
4954.76791	0.01715
4952.83923	0.01718
4950.91055	0.01719
4948.98188	0.01720
4947.05320	0.01723
4945.12453	0.01727
4943.19585	0.01731
4941.26718	0.01734
4939.33850	0.01736
4937.40982	0.01738
4935.48115	0.01740
4933.55247	0.01743
4931.62380	0.01748
4929.69512	0.01751
4927.76645	0.01750
4925.83777	0.01751
4923.90909	0.01753
4921.98042	0.01757
4920.05174	0.01760
4918.12307	0.01765
4916.19439	0.01771
4914.26572	0.01774
4912.33704	0.01773
4910.40836	0.01773
4908.47969	0.01775
4906.55101	0.01779
4904.62234	0.01783
4902.69366	0.01786
4900.76499	0.01787
4898.83631	0.01791
4896.90763	0.01795
4894.97896	0.01799
4893.05028	0.01803
4891.12161	0.01807
4889.19293	0.01810
4887.26426	0.01813
4885.33558	0.01817
4883.40690	0.01819
4881.47823	0.01818
4879.54955	0.01818
4877.62088	0.01820
4875.69220	0.01824
4873.76353	0.01828
4871.83485	0.01831
4869.90617	0.01833
4867.97750	0.01837
4866.04882	0.01843
4864.12015	0.01847
4862.19147	0.01851
4860.26280	0.01853
4858.33412	0.01853
4856.40544	0.01853
4854.47677	0.01855
4852.54809	0.01860
4850.61942	0.01864
4848.69074	0.01868
4846.76207	0.01871
4844.83339	0.01874
4842.90471	0.01876
4840.97604	0.01879
4839.04736	0.01881
4837.11869	0.01881
4835.19001	0.01884
4833.26134	0.01888
4831.33266	0.01892
4829.40398	0.01895
4827.47531	0.01898
4825.54663	0.01902
4823.61796	0.01904
4821.68928	0.01907
4819.76061	0.01910
4817.83193	0.01916
4815.90325	0.01921
4813.97458	0.01925
4812.04590	0.01928
4810.11723	0.01931
4808.18855	0.01934
4806.25988	0.01936
4804.33120	0.01938
4802.40252	0.01942
4800.47385	0.01946
4798.54517	0.01948
4796.61650	0.01948
4794.68782	0.01950
4792.75915	0.01954
4790.83047	0.01959
4788.90179	0.01964
4786.97312	0.01966
4785.04444	0.01968
4783.11577	0.01970
4781.18709	0.01973
4779.25842	0.01975
4777.32974	0.01978
4775.40106	0.01983
4773.47239	0.01987
4771.54371	0.01988
4769.61504	0.01989
4767.68636	0.01992
4765.75769	0.01997
4763.82901	0.02003
4761.90033	0.02009
4759.97166	0.02012
4758.04298	0.02012
4756.11431	0.02012
4754.18563	0.02015
4752.25696	0.02020
4750.32828	0.02024
4748.39960	0.02029
4746.47093	0.02032
4744.54225	0.02033
4742.61358	0.02035
4740.68490	0.02039
4738.75623	0.02044
4736.82755	0.02047
4734.89887	0.02049
4732.97020	0.02052
4731.04152	0.02055
4729.11285	0.02058
4727.18417	0.02063
4725.25550	0.02068
4723.32682	0.02072
4721.39814	0.02073
4719.46947	0.02075
4717.54079	0.02077
4715.61212	0.02082
4713.68344	0.02087
4711.75477	0.02092
4709.82609	0.02096
4707.89741	0.02099
4705.96874	0.02101
4704.04006	0.02103
4702.11139	0.02105
4700.18271	0.02107
4698.25404	0.02111
4696.32536	0.02115
4694.39668	0.02118
4692.46801	0.02122
4690.53933	0.02126
4688.61066	0.02130
4686.68198	0.02134
4684.75331	0.02138
4682.82463	0.02143
4680.89595	0.02146
4678.96728	0.02149
4677.03860	0.02151
4675.10993	0.02153
4673.18125	0.02156
4671.25258	0.02158
4669.32390	0.02160
4667.39522	0.02164
4665.46655	0.02169
4663.53787	0.02173
4661.60920	0.02176
4659.68052	0.02180
4657.75185	0.02186
4655.82317	0.02193
4653.89449	0.02195
4651.96582	0.02195
4650.03714	0.02197
4648.10847	0.02201
4646.17979	0.02205
4644.25112	0.02208
4642.32244	0.02213
4640.39376	0.02217
4638.46509	0.02220
4636.53641	0.02222
4634.60774	0.02225
4632.67906	0.02229
4630.75039	0.02233
4628.82171	0.02236
4626.89303	0.02240
4624.96436	0.02244
4623.03568	0.02246
4621.10701	0.02247
4619.17833	0.02250
4617.24966	0.02255
4615.32098	0.02261
4613.39230	0.02266
4611.46363	0.02271
4609.53495	0.02274
4607.60628	0.02278
4605.67760	0.02283
4603.74893	0.02286
4601.82025	0.02289
4599.89157	0.02293
4597.96290	0.02296
4596.03422	0.02299
4594.10555	0.02304
4592.17687	0.02309
4590.24820	0.02313
4588.31952	0.02315
4586.39084	0.02318
4584.46217	0.02322
4582.53349	0.02327
4580.60482	0.02329
4578.67614	0.02330
4576.74747	0.02332
4574.81879	0.02337
4572.89011	0.02344
4570.96144	0.02350
4569.03276	0.02354
4567.10409	0.02358
4565.17541	0.02363
4563.24674	0.02366
4561.31806	0.02369
4559.38938	0.02372
4557.46071	0.02376
4555.53203	0.02380
4553.60336	0.02383
4551.67468	0.02387
4549.74601	0.02392
4547.81733	0.02396
4545.88865	0.02400
4543.95998	0.02404
4542.03130	0.02408
4540.10263	0.02410
4538.17395	0.02413
4536.24528	0.02418
4534.31660	0.02423
4532.38792	0.02428
4530.45925	0.02433
4528.53057	0.02436
4526.60190	0.02440
4524.67322	0.02445
4522.74455	0.02449
4520.81587	0.02452
4518.88719	0.02454
4516.95852	0.02456
4515.02984	0.02461
4513.10117	0.02466
4511.17249	0.02471
4509.24382	0.02476
4507.31514	0.02481
4505.38646	0.02487
4503.45779	0.02492
4501.52911	0.02496
4499.60044	0.02499
4497.67176	0.02503
4495.74309	0.02508
4493.81441	0.02512
4491.88573	0.02516
4489.95706	0.02520
4488.02838	0.02525
4486.09971	0.02530
4484.17103	0.02532
4482.24236	0.02536
4480.31368	0.02540
4478.38500	0.02545
4476.45633	0.02548
4474.52765	0.02553
4472.59898	0.02559
4470.67030	0.02562
4468.74163	0.02565
4466.81295	0.02568
4464.88427	0.02573
4462.95560	0.02577
4461.02692	0.02580
4459.09825	0.02582
4457.16957	0.02585
4455.24090	0.02589
4453.31222	0.02595
4451.38354	0.02602
4449.45487	0.02609
4447.52619	0.02615
4445.59752	0.02620
4443.66884	0.02626
4441.74017	0.02632
4439.81149	0.02636
4437.88281	0.02638
4435.95414	0.02642
4434.02546	0.02647
4432.09679	0.02652
4430.16811	0.02656
4428.23944	0.02662
4426.31076	0.02666
4424.38208	0.02668
4422.45341	0.02671
4420.52473	0.02676
4418.59606	0.02682
4416.66738	0.02687
4414.73871	0.02695
4412.81003	0.02702
4410.88135	0.02706
4408.95268	0.02707
4407.02400	0.02709
4405.09533	0.02711
4403.16665	0.02716
4401.23798	0.02720
4399.30930	0.02723
4397.38062	0.02727
4395.45195	0.02734
4393.52327	0.02741
4391.59460	0.02746
4389.66592	0.02750
4387.73725	0.02756
4385.80857	0.02761
4383.87989	0.02765
4381.95122	0.02770
4380.02254	0.02775
4378.09387	0.02779
4376.16519	0.02781
4374.23652	0.02786
4372.30784	0.02792
4370.37916	0.02798
4368.45049	0.02802
4366.52181	0.02808
4364.59314	0.02813
4362.66446	0.02817
4360.73579	0.02819
4358.80711	0.02823
4356.87843	0.02831
4354.94976	0.02840
4353.02108	0.02846
4351.09241	0.02851
4349.16373	0.02856
4347.23506	0.02861
4345.30638	0.02867
4343.37770	0.02873
4341.44903	0.02879
4339.52035	0.02884
4337.59168	0.02887
4335.66300	0.02890
4333.73433	0.02893
4331.80565	0.02899
4329.87697	0.02907
4327.94830	0.02912
4326.01962	0.02914
4324.09095	0.02918
4322.16227	0.02924
4320.23360	0.02931
4318.30492	0.02938
4316.37624	0.02944
4314.44757	0.02949
4312.51889	0.02954
4310.59022	0.02958
4308.66154	0.02963
4306.73287	0.02969
4304.80419	0.02974
4302.87551	0.02977
4300.94684	0.02981
4299.01816	0.02988
4297.08949	0.02994
4295.16081	0.03001
4293.23214	0.03009
4291.30346	0.03015
4289.37478	0.03020
4287.44611	0.03024
4285.51743	0.03028
4283.58876	0.03033
4281.66008	0.03039
4279.73141	0.03045
4277.80273	0.03052
4275.87405	0.03060
4273.94538	0.03065
4272.01670	0.03069
4270.08803	0.03073
4268.15935	0.03079
4266.23068	0.03085
4264.30200	0.03089
4262.37332	0.03095
4260.44465	0.03101
4258.51597	0.03107
4256.58730	0.03112
4254.65862	0.03116
4252.72995	0.03119
4250.80127	0.03125
4248.87259	0.03133
4246.94392	0.03140
4245.01524	0.03144
4243.08657	0.03147
4241.15789	0.03150
4239.22922	0.03154
4237.30054	0.03161
4235.37186	0.03170
4233.44319	0.03178
4231.51451	0.03186
4229.58584	0.03193
4227.65716	0.03198
4225.72849	0.03205
4223.79981	0.03214
4221.87113	0.03219
4219.94246	0.03221
4218.01378	0.03224
4216.08511	0.03228
4214.15643	0.03231
4212.22776	0.03237
4210.29908	0.03246
4208.37040	0.03254
4206.44173	0.03259
4204.51305	0.03264
4202.58438	0.03272
4200.65570	0.03279
4198.72703	0.03286
4196.79835	0.03293
4194.86968	0.03300
4192.94100	0.03306
4191.01232	0.03310
4189.08365	0.03315
4187.15497	0.03320
4185.22630	0.03326
4183.29762	0.03330
4181.36895	0.03337
4179.44027	0.03344
4177.51159	0.03351
4175.58292	0.03359
4173.65424	0.03366
4171.72557	0.03372
4169.79689	0.03377
4167.86822	0.03384
4165.93954	0.03390
4164.01086	0.03395
4162.08219	0.03402
4160.15351	0.03411
4158.22484	0.03419
4156.29616	0.03424
4154.36749	0.03429
4152.43881	0.03434
4150.51013	0.03440
4148.58146	0.03445
4146.65278	0.03451
4144.72411	0.03459
4142.79543	0.03466
4140.86676	0.03471
4138.93808	0.03477
4137.00940	0.03482
4135.08073	0.03487
4133.15205	0.03493
4131.22338	0.03502
4129.29470	0.03511
4127.36603	0.03519
4125.43735	0.03525
4123.50867	0.03531
4121.58000	0.03537
4119.65132	0.03544
4117.72265	0.03551
4115.79397	0.03557
4113.86530	0.03563
4111.93662	0.03571
4110.00794	0.03579
4108.07927	0.03586
4106.15059	0.03596
4104.22192	0.03604
4102.29324	0.03606
4100.36457	0.03610
4098.43589	0.03616
4096.50721	0.03623
4094.57854	0.03631
4092.64986	0.03640
4090.72119	0.03648
4088.79251	0.03655
4086.86384	0.03660
4084.93516	0.03664
4083.00648	0.03668
4081.07781	0.03677
4079.14913	0.03688
4077.22046	0.03697
4075.29178	0.03704
4073.36311	0.03710
4071.43443	0.03717
4069.50575	0.03725
4067.57708	0.03732
4065.64840	0.03736
4063.71973	0.03739
4061.79105	0.03745
4059.86238	0.03751
4057.93370	0.03759
4056.00502	0.03769
4054.07635	0.03779
4052.14767	0.03787
4050.21900	0.03792
4048.29032	0.03796
4046.36165	0.03799
4044.43297	0.03805
4042.50429	0.03816
4040.57562	0.03827
4038.64694	0.03834
4036.71827	0.03839
4034.78959	0.03844
4032.86092	0.03853
4030.93224	0.03863
4029.00356	0.03870
4027.07489	0.03876
4025.14621	0.03883
4023.21754	0.03892
4021.28886	0.03901
4019.36019	0.03909
4017.43151	0.03915
4015.50283	0.03922
4013.57416	0.03929
4011.64548	0.03936
4009.71681	0.03943
4007.78813	0.03951
4005.85946	0.03958
4003.93078	0.03965
4002.00210	0.03972
4000.07343	0.03980
3998.14475	0.03989
3996.21608	0.03996
3994.28740	0.04003
3992.35873	0.04012
3990.43005	0.04019
3988.50137	0.04023
3986.57270	0.04025
3984.64402	0.04032
3982.71535	0.04045
3980.78667	0.04058
3978.85800	0.04067
3976.92932	0.04073
3975.00064	0.04078
3973.07197	0.04085
3971.14329	0.04093
3969.21462	0.04101
3967.28594	0.04110
3965.35727	0.04118
3963.42859	0.04125
3961.49991	0.04134
3959.57124	0.04142
3957.64256	0.04148
3955.71389	0.04157
3953.78521	0.04166
3951.85654	0.04171
3949.92786	0.04173
3947.99918	0.04178
3946.07051	0.04184
3944.14183	0.04189
3942.21316	0.04199
3940.28448	0.04211
3938.35581	0.04222
3936.42713	0.04228
3934.49845	0.04230
3932.56978	0.04233
3930.64110	0.04243
3928.71243	0.04256
3926.78375	0.04266
3924.85508	0.04271
3922.92640	0.04278
3920.99772	0.04283
3919.06905	0.04286
3917.14037	0.04292
3915.21170	0.04306
3913.28302	0.04322
3911.35435	0.04334
3909.42567	0.04340
3907.49699	0.04339
3905.56832	0.04336
3903.63964	0.04337
3901.71097	0.04345
3899.78229	0.04361
3897.85362	0.04380
3895.92494	0.04393
3893.99626	0.04397
3892.06759	0.04403
3890.13891	0.04414
3888.21024	0.04420
3886.28156	0.04421
3884.35289	0.04430
3882.42421	0.04441
3880.49553	0.04450
3878.56686	0.04465
3876.63818	0.04478
3874.70951	0.04484
3872.78083	0.04486
3870.85216	0.04487
3868.92348	0.04493
3866.99480	0.04502
3865.06613	0.04510
3863.13745	0.04523
3861.20878	0.04539
3859.28010	0.04549
3857.35143	0.04544
3855.42275	0.04528
3853.49407	0.04526
3851.56540	0.04555
3849.63672	0.04590
3847.70805	0.04607
3845.77937	0.04609
3843.85070	0.04609
3841.92202	0.04609
3839.99334	0.04608
3838.06467	0.04613
3836.13599	0.04627
3834.20732	0.04646
3832.27864	0.04663
3830.34997	0.04678
3828.42129	0.04686
3826.49261	0.04691
3824.56394	0.04696
3822.63526	0.04696
3820.70659	0.04699
3818.77791	0.04708
3816.84924	0.04717
3814.92056	0.04733
3812.99188	0.04754
3811.06321	0.04768
3809.13453	0.04769
3807.20586	0.04770
3805.27718	0.04779
3803.34851	0.04785
3801.41983	0.04789
3799.49115	0.04802
3797.56248	0.04818
3795.63380	0.04834
3793.70513	0.04850
3791.77645	0.04863
3789.84778	0.04871
3787.91910	0.04877
3785.99042	0.04882
3784.06175	0.04891
3782.13307	0.04900
3780.20440	0.04907
3778.27572	0.04917
3776.34705	0.04931
3774.41837	0.04940
3772.48969	0.04939
3770.56102	0.04937
3768.63234	0.04943
3766.70367	0.04959
3764.77499	0.04977
3762.84632	0.04990
3760.91764	0.04992
3758.98896	0.04995
3757.06029	0.05005
3755.13161	0.05009
3753.20294	0.05001
3751.27426	0.04998
3749.34559	0.05010
3747.41691	0.05014
3745.48823	0.05006
3743.55956	0.05019
3741.63088	0.05056
3739.70221	0.05075
3737.77353	0.05066
3735.84486	0.05062
3733.91618	0.05076
3731.98750	0.05103
3730.05883	0.05129
3728.13015	0.05142
3726.20148	0.05144
3724.27280	0.05149
3722.34413	0.05161
3720.41545	0.05177
3718.48677	0.05193
3716.55810	0.05204
3714.62942	0.05205
3712.70075	0.05203
3710.77207	0.05208
3708.84340	0.05225
3706.91472	0.05247
3704.98604	0.05260
3703.05737	0.05262
3701.12869	0.05270
3699.20002	0.05288
3697.27134	0.05302
3695.34267	0.05307
3693.41399	0.05304
3691.48531	0.05300
3689.55664	0.05305
3687.62796	0.05325
3685.69929	0.05349
3683.77061	0.05364
3681.84194	0.05369
3679.91326	0.05366
3677.98458	0.05356
3676.05591	0.05353
3674.12723	0.05372
3672.19856	0.05396
3670.26988	0.05406
3668.34121	0.05418
3666.41253	0.05438
3664.48385	0.05452
3662.55518	0.05461
3660.62650	0.05468
3658.69783	0.05470
3656.76915	0.05469
3654.84048	0.05475
3652.91180	0.05471
3650.98312	0.05451
3649.05445	0.05441
3647.12577	0.05458
3645.19710	0.05491
3643.26842	0.05521
3641.33975	0.05540
3639.41107	0.05551
3637.48239	0.05558
3635.55372	0.05565
3633.62504	0.05568
3631.69637	0.05562
3629.76769	0.05555
3627.83902	0.05565
3625.91034	0.05590
3623.98166	0.05608
3622.05299	0.05606
3620.12431	0.05599
3618.19564	0.05609
3616.26696	0.05624
3614.33829	0.05627
3612.40961	0.05626
3610.48093	0.05631
3608.55226	0.05641
3606.62358	0.05659
3604.69491	0.05678
3602.76623	0.05690
3600.83756	0.05694
3598.90888	0.05698
3596.98020	0.05702
3595.05153	0.05706
3593.12285	0.05712
3591.19418	0.05713
3589.26550	0.05709
3587.33683	0.05715
3585.40815	0.05737
3583.47947	0.05760
3581.55080	0.05771
3579.62212	0.05776
3577.69345	0.05781
3575.76477	0.05790
3573.83610	0.05799
3571.90742	0.05806
3569.97874	0.05802
3568.05007	0.05793
3566.12139	0.05798
3564.19272	0.05818
3562.26404	0.05836
3560.33537	0.05847
3558.40669	0.05855
3556.47801	0.05862
3554.54934	0.05866
3552.62066	0.05870
3550.69199	0.05878
3548.76331	0.05884
3546.83464	0.05888
3544.90596	0.05896
3542.97728	0.05909
3541.04861	0.05919
3539.11993	0.05923
3537.19126	0.05926
3535.26258	0.05930
3533.33391	0.05935
3531.40523	0.05938
3529.47655	0.05941
3527.54788	0.05945
3525.61920	0.05950
3523.69053	0.05956
3521.76185	0.05962
3519.83318	0.05967
3517.90450	0.05969
3515.97582	0.05971
3514.04715	0.05975
3512.11847	0.05980
3510.18980	0.05982
3508.26112	0.05986
3506.33245	0.05991
3504.40377	0.05992
3502.47509	0.05992
3500.54642	0.05998
3498.61774	0.06004
3496.68907	0.06007
3494.76039	0.06009
3492.83172	0.06011
3490.90304	0.06012
3488.97436	0.06013
3487.04569	0.06014
3485.11701	0.06019
3483.18834	0.06026
3481.25966	0.06034
3479.33099	0.06041
3477.40231	0.06045
3475.47363	0.06048
3473.54496	0.06053
3471.61628	0.06063
3469.68761	0.06071
3467.75893	0.06079
3465.83026	0.06089
3463.90158	0.06101
3461.97290	0.06112
3460.04423	0.06123
3458.11555	0.06135
3456.18688	0.06144
3454.25820	0.06154
3452.32953	0.06165
3450.40085	0.06174
3448.47217	0.06182
3446.54350	0.06190
3444.61482	0.06198
3442.68615	0.06211
3440.75747	0.06229
3438.82880	0.06246
3436.90012	0.06259
3434.97144	0.06270
3433.04277	0.06284
3431.11409	0.06303
3429.18542	0.06325
3427.25674	0.06347
3425.32807	0.06369
3423.39939	0.06387
3421.47071	0.06404
3419.54204	0.06420
3417.61336	0.06438
3415.68469	0.06454
3413.75601	0.06469
3411.82734	0.06483
3409.89866	0.06499
3407.96998	0.06515
3406.04131	0.06528
3404.11263	0.06539
3402.18396	0.06548
3400.25528	0.06560
3398.32661	0.06575
3396.39793	0.06591
3394.46925	0.06607
3392.54058	0.06619
3390.61190	0.06632
3388.68323	0.06647
3386.75455	0.06663
3384.82588	0.06678
3382.89720	0.06692
3380.96852	0.06703
3379.03985	0.06714
3377.11117	0.06728
3375.18250	0.06739
3373.25382	0.06750
3371.32515	0.06764
3369.39647	0.06779
3367.46779	0.06792
3365.53912	0.06803
3363.61044	0.06812
3361.68177	0.06821
3359.75309	0.06834
3357.82442	0.06850
3355.89574	0.06866
3353.96706	0.06880
3352.03839	0.06892
3350.10971	0.06902
3348.18104	0.06914
3346.25236	0.06925
3344.32369	0.06935
3342.39501	0.06947
3340.46633	0.06960
3338.53766	0.06974
3336.60898	0.06987
3334.68031	0.06999
3332.75163	0.07009
3330.82296	0.07019
3328.89428	0.07032
3326.96560	0.07044
3325.03693	0.07056
3323.10825	0.07070
3321.17958	0.07083
3319.25090	0.07096
3317.32223	0.07106
3315.39355	0.07116
3313.46487	0.07131
3311.53620	0.07147
3309.60752	0.07160
3307.67885	0.07171
3305.75017	0.07181
3303.82150	0.07192
3301.89282	0.07206
3299.96414	0.07221
3298.03547	0.07236
3296.10679	0.07249
3294.17812	0.07261
3292.24944	0.07274
3290.32077	0.07288
3288.39209	0.07303
3286.46341	0.07318
3284.53474	0.07332
3282.60606	0.07343
3280.67739	0.07353
3278.74871	0.07363
3276.82004	0.07375
3274.89136	0.07388
3272.96268	0.07401
3271.03401	0.07415
3269.10533	0.07431
3267.17666	0.07446
3265.24798	0.07457
3263.31931	0.07468
3261.39063	0.07481
3259.46195	0.07497
3257.53328	0.07515
3255.60460	0.07533
3253.67593	0.07548
3251.74725	0.07560
3249.81858	0.07570
3247.88990	0.07580
3245.96122	0.07592
3244.03255	0.07608
3242.10387	0.07625
3240.17520	0.07640
3238.24652	0.07650
3236.31785	0.07658
3234.38917	0.07669
3232.46049	0.07684
3230.53182	0.07700
3228.60314	0.07716
3226.67447	0.07732
3224.74579	0.07746
3222.81712	0.07760
3220.88844	0.07772
3218.95976	0.07782
3217.03109	0.07790
3215.10241	0.07800
3213.17374	0.07815
3211.24506	0.07830
3209.31639	0.07845
3207.38771	0.07859
3205.45903	0.07875
3203.53036	0.07892
3201.60168	0.07907
3199.67301	0.07919
3197.74433	0.07930
3195.81566	0.07942
3193.88698	0.07956
3191.95830	0.07971
3190.02963	0.07987
3188.10095	0.08002
3186.17228	0.08016
3184.24360	0.08031
3182.31493	0.08048
3180.38625	0.08063
3178.45757	0.08077
3176.52890	0.08091
3174.60022	0.08107
3172.67155	0.08121
3170.74287	0.08132
3168.81420	0.08144
3166.88552	0.08159
3164.95684	0.08174
3163.02817	0.08188
3161.09949	0.08201
3159.17082	0.08215
3157.24214	0.08230
3155.31347	0.08246
3153.38479	0.08262
3151.45611	0.08278
3149.52744	0.08290
3147.59876	0.08301
3145.67009	0.08313
3143.74141	0.08327
3141.81274	0.08343
3139.88406	0.08358
3137.95538	0.08371
3136.02671	0.08381
3134.09803	0.08392
3132.16936	0.08405
3130.24068	0.08421
3128.31201	0.08438
3126.38333	0.08453
3124.45465	0.08467
3122.52598	0.08479
3120.59730	0.08493
3118.66863	0.08507
3116.73995	0.08522
3114.81128	0.08535
3112.88260	0.08546
3110.95392	0.08558
3109.02525	0.08572
3107.09657	0.08587
3105.16790	0.08602
3103.23922	0.08617
3101.31055	0.08631
3099.38187	0.08644
3097.45319	0.08657
3095.52452	0.08673
3093.59584	0.08689
3091.66717	0.08704
3089.73849	0.08716
3087.80982	0.08728
3085.88114	0.08743
3083.95246	0.08761
3082.02379	0.08777
3080.09511	0.08788
3078.16644	0.08800
3076.23776	0.08814
3074.30909	0.08829
3072.38041	0.08842
3070.45173	0.08855
3068.52306	0.08866
3066.59438	0.08879
3064.66571	0.08896
3062.73703	0.08914
3060.80836	0.08930
3058.87968	0.08943
3056.95100	0.08953
3055.02233	0.08963
3053.09365	0.08973
3051.16498	0.08986
3049.23630	0.09001
3047.30763	0.09017
3045.37895	0.09032
3043.45027	0.09048
3041.52160	0.09063
3039.59292	0.09078
3037.66425	0.09089
3035.73557	0.09099
3033.80690	0.09113
3031.87822	0.09127
3029.94954	0.09140
3028.02087	0.09152
3026.09219	0.09166
3024.16352	0.09182
3022.23484	0.09198
3020.30617	0.09213
3018.37749	0.09226
3016.44881	0.09239
3014.52014	0.09254
3012.59146	0.09269
3010.66279	0.09286
3008.73411	0.09301
3006.80544	0.09313
3004.87676	0.09324
3002.94808	0.09336
3001.01941	0.09350
2999.09073	0.09363
2997.16206	0.09375
2995.23338	0.09389
2993.30471	0.09401
2991.37603	0.09412
2989.44735	0.09423
2987.51868	0.09434
2985.59000	0.09444
2983.66133	0.09453
2981.73265	0.09461
2979.80398	0.09467
2977.87530	0.09470
2975.94662	0.09472
2974.01795	0.09473
2972.08927	0.09472
2970.16060	0.09470
2968.23192	0.09471
2966.30325	0.09473
2964.37457	0.09477
2962.44589	0.09485
2960.51722	0.09499
2958.58854	0.09516
2956.65987	0.09534
2954.73119	0.09552
2952.80252	0.09569
2950.87384	0.09583
2948.94516	0.09598
2947.01649	0.09613
2945.08781	0.09624
2943.15914	0.09629
2941.23046	0.09630
2939.30179	0.09633
2937.37311	0.09636
2935.44443	0.09638
2933.51576	0.09636
2931.58708	0.09630
2929.65841	0.09624
2927.72973	0.09619
2925.80106	0.09614
2923.87238	0.09612
2921.94370	0.09615
2920.01503	0.09623
2918.08635	0.09638
2916.15768	0.09667
2914.22900	0.09712
2912.30033	0.09763
2910.37165	0.09809
2908.44297	0.09848
2906.51430	0.09877
2904.58562	0.09900
2902.65695	0.09923
2900.72827	0.09944
2898.79960	0.09962
2896.87092	0.09983
2894.94224	0.10006
2893.01357	0.10025
2891.08489	0.10042
2889.15622	0.10062
2887.22754	0.10082
2885.29887	0.10102
2883.37019	0.10120
2881.44151	0.10133
2879.51284	0.10145
2877.58416	0.10157
2875.65549	0.10170
2873.72681	0.10182
2871.79814	0.10193
2869.86946	0.10204
2867.94078	0.10216
2866.01211	0.10228
2864.08343	0.10237
2862.15476	0.10243
2860.22608	0.10249
2858.29741	0.10252
2856.36873	0.10250
2854.44005	0.10248
2852.51138	0.10249
2850.58270	0.10256
2848.65403	0.10282
2846.72535	0.10329
2844.79668	0.10378
2842.86800	0.10419
2840.93932	0.10452
2839.01065	0.10481
2837.08197	0.10506
2835.15330	0.10525
2833.22462	0.10542
2831.29595	0.10562
2829.36727	0.10584
2827.43859	0.10604
2825.50992	0.10621
2823.58124	0.10637
2821.65257	0.10652
2819.72389	0.10669
2817.79522	0.10686
2815.86654	0.10701
2813.93786	0.10718
2812.00919	0.10736
2810.08051	0.10753
2808.15184	0.10766
2806.22316	0.10778
2804.29449	0.10793
2802.36581	0.10810
2800.43713	0.10829
2798.50846	0.10844
2796.57978	0.10857
2794.65111	0.10872
2792.72243	0.10887
2790.79376	0.10900
2788.86508	0.10913
2786.93640	0.10928
2785.00773	0.10946
2783.07905	0.10964
2781.15038	0.10982
2779.22170	0.10999
2777.29303	0.11012
2775.36435	0.11023
2773.43567	0.11038
2771.50700	0.11053
2769.57832	0.11068
2767.64965	0.11081
2765.72097	0.11095
2763.79230	0.11108
2761.86362	0.11123
2759.93494	0.11141
2758.00627	0.11160
2756.07759	0.11175
2754.14892	0.11186
2752.22024	0.11199
2750.29157	0.11216
2748.36289	0.11233
2746.43421	0.11246
2744.50554	0.11258
2742.57686	0.11271
2740.64819	0.11286
2738.71951	0.11304
2736.79084	0.11322
2734.86216	0.11337
2732.93348	0.11353
2731.00481	0.11367
2729.07613	0.11375
2727.14746	0.11384
2725.21878	0.11400
2723.29011	0.11420
2721.36143	0.11437
2719.43275	0.11451
2717.50408	0.11464
2715.57540	0.11481
2713.64673	0.11497
2711.71805	0.11509
2709.78938	0.11517
2707.86070	0.11528
2705.93202	0.11542
2704.00335	0.11555
2702.07467	0.11571
2700.14600	0.11587
2698.21732	0.11602
2696.28865	0.11614
2694.35997	0.11627
2692.43129	0.11642
2690.50262	0.11657
2688.57394	0.11674
2686.64527	0.11691
2684.71659	0.11703
2682.78792	0.11713
2680.85924	0.11725
2678.93056	0.11742
2677.00189	0.11761
2675.07321	0.11779
2673.14454	0.11792
2671.21586	0.11803
2669.28719	0.11818
2667.35851	0.11835
2665.42983	0.11849
2663.50116	0.11864
2661.57248	0.11880
2659.64381	0.11894
2657.71513	0.11908
2655.78646	0.11922
2653.85778	0.11937
2651.92910	0.11952
2650.00043	0.11966
2648.07175	0.11982
2646.14308	0.12002
2644.21440	0.12018
2642.28573	0.12030
2640.35705	0.12041
2638.42837	0.12051
2636.49970	0.12064
2634.57102	0.12080
2632.64235	0.12099
2630.71367	0.12120
2628.78500	0.12139
2626.85632	0.12153
2624.92764	0.12168
2622.99897	0.12184
2621.07029	0.12199
2619.14162	0.12212
2617.21294	0.12228
2615.28427	0.12246
2613.35559	0.12263
2611.42691	0.12278
2609.49824	0.12294
2607.56956	0.12309
2605.64089	0.12324
2603.71221	0.12340
2601.78354	0.12356
2599.85486	0.12370
2597.92618	0.12387
2595.99751	0.12405
2594.06883	0.12421
2592.14016	0.12433
2590.21148	0.12444
2588.28281	0.12455
2586.35413	0.12469
2584.42545	0.12486
2582.49678	0.12504
2580.56810	0.12522
2578.63943	0.12541
2576.71075	0.12556
2574.78208	0.12569
2572.85340	0.12583
2570.92472	0.12601
2568.99605	0.12618
2567.06737	0.12631
2565.13870	0.12643
2563.21002	0.12659
2561.28135	0.12675
2559.35267	0.12689
2557.42399	0.12700
2555.49532	0.12713
2553.56664	0.12726
2551.63797	0.12742
2549.70929	0.12762
2547.78062	0.12781
2545.85194	0.12795
2543.92326	0.12805
2541.99459	0.12817
2540.06591	0.12832
2538.13724	0.12847
2536.20856	0.12864
2534.27989	0.12881
2532.35121	0.12897
2530.42253	0.12913
2528.49386	0.12928
2526.56518	0.12941
2524.63651	0.12953
2522.70783	0.12965
2520.77916	0.12980
2518.85048	0.12998
2516.92181	0.13018
2514.99313	0.13036
2513.06445	0.13050
2511.13578	0.13064
2509.20710	0.13082
2507.27843	0.13101
2505.34975	0.13117
2503.42108	0.13133
2501.49240	0.13149
2499.56372	0.13164
2497.63505	0.13180
2495.70637	0.13201
2493.77770	0.13219
2491.84902	0.13234
2489.92035	0.13250
2487.99167	0.13268
2486.06299	0.13285
2484.13432	0.13299
2482.20564	0.13313
2480.27697	0.13329
2478.34829	0.13345
2476.41962	0.13363
2474.49094	0.13380
2472.56226	0.13394
2470.63359	0.13408
2468.70491	0.13423
2466.77624	0.13440
2464.84756	0.13458
2462.91889	0.13475
2460.99021	0.13492
2459.06153	0.13507
2457.13286	0.13521
2455.20418	0.13535
2453.27551	0.13553
2451.34683	0.13573
2449.41816	0.13589
2447.48948	0.13603
2445.56080	0.13617
2443.63213	0.13635
2441.70345	0.13655
2439.77478	0.13672
2437.84610	0.13686
2435.91743	0.13702
2433.98875	0.13719
2432.06007	0.13735
2430.13140	0.13750
2428.20272	0.13766
2426.27405	0.13783
2424.34537	0.13799
2422.41670	0.13817
2420.48802	0.13835
2418.55934	0.13849
2416.63067	0.13860
2414.70199	0.13873
2412.77332	0.13889
2410.84464	0.13907
2408.91597	0.13924
2406.98729	0.13942
2405.05861	0.13960
2403.12994	0.13975
2401.20126	0.13985
2399.27259	0.13994
2397.34391	0.14010
2395.41524	0.14031
2393.48656	0.14052
2391.55788	0.14068
2389.62921	0.14080
2387.70053	0.14093
2385.77186	0.14108
2383.84318	0.14122
2381.91451	0.14137
2379.98583	0.14151
2378.05715	0.14158
2376.12848	0.14158
2374.19980	0.14158
2372.27113	0.14162
2370.34245	0.14168
2368.41378	0.14173
2366.48510	0.14177
2364.55642	0.14181
2362.62775	0.14188
2360.69907	0.14201
2358.77040	0.14220
2356.84172	0.14242
2354.91305	0.14271
2352.98437	0.14307
2351.05569	0.14343
2349.12702	0.14367
2347.19834	0.14377
2345.26967	0.14380
2343.34099	0.14383
2341.41232	0.14391
2339.48364	0.14402
2337.55496	0.14416
2335.62629	0.14432
2333.69761	0.14451
2331.76894	0.14470
2329.84026	0.14491
2327.91159	0.14513
2325.98291	0.14536
2324.05423	0.14558
2322.12556	0.14577
2320.19688	0.14596
2318.26821	0.14615
2316.33953	0.14633
2314.41086	0.14653
2312.48218	0.14678
2310.55350	0.14705
2308.62483	0.14729
2306.69615	0.14747
2304.76748	0.14763
2302.83880	0.14782
2300.91013	0.14802
2298.98145	0.14818
2297.05277	0.14834
2295.12410	0.14852
2293.19542	0.14868
2291.26675	0.14886
2289.33807	0.14904
2287.40940	0.14921
2285.48072	0.14938
2283.55204	0.14951
2281.62337	0.14964
2279.69469	0.14981
2277.76602	0.15000
2275.83734	0.15016
2273.90867	0.15032
2271.97999	0.15048
2270.05131	0.15061
2268.12264	0.15072
2266.19396	0.15089
2264.26529	0.15108
2262.33661	0.15125
2260.40794	0.15139
2258.47926	0.15156
2256.55058	0.15175
2254.62191	0.15191
2252.69323	0.15204
2250.76456	0.15219
2248.83588	0.15237
2246.90721	0.15253
2244.97853	0.15267
2243.04985	0.15280
2241.12118	0.15292
2239.19250	0.15310
2237.26383	0.15332
2235.33515	0.15351
2233.40648	0.15367
2231.47780	0.15381
2229.54912	0.15396
2227.62045	0.15408
2225.69177	0.15421
2223.76310	0.15434
2221.83442	0.15447
2219.90575	0.15465
2217.97707	0.15487
2216.04839	0.15509
2214.11972	0.15529
2212.19104	0.15544
2210.26237	0.15554
2208.33369	0.15564
2206.40502	0.15579
2204.47634	0.15595
2202.54766	0.15606
2200.61899	0.15619
2198.69031	0.15637
2196.76164	0.15655
2194.83296	0.15668
2192.90429	0.15678
2190.97561	0.15690
2189.04693	0.15708
2187.11826	0.15728
2185.18958	0.15748
2183.26091	0.15764
2181.33223	0.15778
2179.40356	0.15790
2177.47488	0.15802
2175.54620	0.15820
2173.61753	0.15841
2171.68885	0.15861
2169.76018	0.15878
2167.83150	0.15892
2165.90283	0.15907
2163.97415	0.15923
2162.04547	0.15939
2160.11680	0.15953
2158.18812	0.15970
2156.25945	0.15990
2154.33077	0.16008
2152.40210	0.16023
2150.47342	0.16037
2148.54474	0.16052
2146.61607	0.16069
2144.68739	0.16088
2142.75872	0.16105
2140.83004	0.16120
2138.90137	0.16134
2136.97269	0.16151
2135.04401	0.16168
2133.11534	0.16183
2131.18666	0.16197
2129.25799	0.16210
2127.32931	0.16224
2125.40064	0.16241
2123.47196	0.16258
2121.54328	0.16275
2119.61461	0.16291
2117.68593	0.16309
2115.75726	0.16327
2113.82858	0.16344
2111.89991	0.16359
2109.97123	0.16372
2108.04255	0.16387
2106.11388	0.16404
2104.18520	0.16421
2102.25653	0.16435
2100.32785	0.16451
2098.39918	0.16468
2096.47050	0.16483
2094.54182	0.16500
2092.61315	0.16518
2090.68447	0.16537
2088.75580	0.16553
2086.82712	0.16569
2084.89845	0.16587
2082.96977	0.16603
2081.04109	0.16619
2079.11242	0.16636
2077.18374	0.16653
2075.25507	0.16671
2073.32639	0.16689
2071.39772	0.16706
2069.46904	0.16718
2067.54036	0.16729
2065.61169	0.16744
2063.68301	0.16761
2061.75434	0.16774
2059.82566	0.16787
2057.89699	0.16802
2055.96831	0.16817
2054.03963	0.16832
2052.11096	0.16850
2050.18228	0.16871
2048.25361	0.16891
2046.32493	0.16912
2044.39626	0.16932
2042.46758	0.16946
2040.53890	0.16959
2038.61023	0.16975
2036.68155	0.16992
2034.75288	0.17010
2032.82420	0.17026
2030.89553	0.17037
2028.96685	0.17049
2027.03817	0.17069
2025.10950	0.17090
2023.18082	0.17106
2021.25215	0.17117
2019.32347	0.17129
2017.39480	0.17142
2015.46612	0.17160
2013.53744	0.17181
2011.60877	0.17201
2009.68009	0.17221
2007.75142	0.17238
2005.82274	0.17250
2003.89407	0.17264
2001.96539	0.17282
2000.03671	0.17298
1998.10804	0.17313
1996.17936	0.17330
1994.25069	0.17341
1992.32201	0.17348
1990.39334	0.17360
1988.46466	0.17377
1986.53598	0.17397
1984.60731	0.17414
1982.67863	0.17425
1980.74996	0.17437
1978.82128	0.17455
1976.89261	0.17472
1974.96393	0.17484
1973.03525	0.17496
1971.10658	0.17510
1969.17790	0.17521
1967.24923	0.17532
1965.32055	0.17547
1963.39188	0.17566
1961.46320	0.17583
1959.53452	0.17598
1957.60585	0.17612
1955.67717	0.17629
1953.74850	0.17646
1951.81982	0.17662
1949.89115	0.17676
1947.96247	0.17686
1946.03379	0.17695
1944.10512	0.17704
1942.17644	0.17722
1940.24777	0.17750
1938.31909	0.17772
1936.39042	0.17788
1934.46174	0.17804
1932.53306	0.17820
1930.60439	0.17832
1928.67571	0.17844
1926.74704	0.17857
1924.81836	0.17868
1922.88969	0.17879
1920.96101	0.17893
1919.03233	0.17906
1917.10366	0.17923
1915.17498	0.17947
1913.24631	0.17972
1911.31763	0.17989
1909.38896	0.18001
1907.46028	0.18015
1905.53160	0.18034
1903.60293	0.18055
1901.67425	0.18071
1899.74558	0.18079
1897.81690	0.18086
1895.88823	0.18100
1893.95955	0.18121
1892.03087	0.18131
1890.10220	0.18132
1888.17352	0.18148
1886.24485	0.18173
1884.31617	0.18194
1882.38750	0.18210
1880.45882	0.18226
1878.53014	0.18242
1876.60147	0.18258
1874.67279	0.18272
1872.74412	0.18277
1870.81544	0.18273
1868.88677	0.18275
1866.95809	0.18298
1865.02941	0.18336
1863.10074	0.18371
1861.17206	0.18392
1859.24339	0.18407
1857.31471	0.18421
1855.38604	0.18437
1853.45736	0.18451
1851.52868	0.18462
1849.60001	0.18468
1847.67133	0.18458
1845.74266	0.18434
1843.81398	0.18443
1841.88531	0.18501
1839.95663	0.18553
1838.02795	0.18572
1836.09928	0.18588
1834.17060	0.18609
1832.24193	0.18615
1830.31325	0.18611
1828.38458	0.18612
1826.45590	0.18620
1824.52722	0.18645
1822.59855	0.18686
1820.66987	0.18714
1818.74120	0.18724
1816.81252	0.18737
1814.88385	0.18756
1812.95517	0.18765
1811.02649	0.18771
1809.09782	0.18788
1807.16914	0.18811
1805.24047	0.18823
1803.31179	0.18817
1801.38312	0.18818
1799.45444	0.18844
1797.52576	0.18872
1795.59709	0.18880
1793.66841	0.18870
1791.73974	0.18868
1789.81106	0.18892
1787.88239	0.18924
1785.95371	0.18941
1784.02503	0.18954
1782.09636	0.18968
1780.16768	0.18979
1778.23901	0.18986
1776.31033	0.18983
1774.38166	0.18968
1772.45298	0.18953
1770.52430	0.18954
1768.59563	0.18980
1766.66695	0.19024
1764.73828	0.19058
1762.80960	0.19065
1760.88093	0.19068
1758.95225	0.19071
1757.02357	0.19070
1755.09490	0.19076
1753.16622	0.19069
1751.23755	0.19042
1749.30887	0.19030
1747.38020	0.19050
1745.45152	0.19073
1743.52284	0.19084
1741.59417	0.19085
1739.66549	0.19084
1737.73682	0.19075
1735.80814	0.19034
1733.87947	0.19001
1731.95079	0.19030
1730.02211	0.19091
1728.09344	0.19145
1726.16476	0.19184
1724.23609	0.19204
1722.30741	0.19201
1720.37874	0.19163
1718.45006	0.19120
1716.52138	0.19128
1714.59271	0.19183
1712.66403	0.19240
1710.73536	0.19270
1708.80668	0.19266
1706.87801	0.19255
1704.94933	0.19266
1703.02065	0.19264
1701.09198	0.19236
1699.16330	0.19222
1697.23463	0.19224
1695.30595	0.19248
1693.37728	0.19308
1691.44860	0.19351
1689.51992	0.19350
1687.59125	0.19320
1685.66257	0.19265
1683.73390	0.19236
1681.80522	0.19270
1679.87655	0.19320
1677.94787	0.19331
1676.01919	0.19321
1674.09052	0.19325
1672.16184	0.19326
1670.23317	0.19313
1668.30449	0.19331
1666.37582	0.19377
1664.44714	0.19400
1662.51846	0.19406
1660.58979	0.19423
1658.66111	0.19432
1656.73244	0.19384
1654.80376	0.19277
1652.87509	0.19233
1650.94641	0.19308
1649.01773	0.19370
1647.08906	0.19368
1645.16038	0.19388
1643.23171	0.19441
1641.30303	0.19468
1639.37436	0.19453
1637.44568	0.19425
1635.51700	0.19429
1633.58833	0.19471
1631.65965	0.19502
1629.73098	0.19501
1627.80230	0.19489
1625.87363	0.19464
1623.94495	0.19424
1622.01627	0.19402
1620.08760	0.19406
1618.15892	0.19428
1616.23025	0.19479
1614.30157	0.19551
1612.37290	0.19610
1610.44422	0.19642
1608.51554	0.19662
1606.58687	0.19681
1604.65819	0.19703
1602.72952	0.19729
1600.80084	0.19755
1598.87217	0.19773
1596.94349	0.19788
1595.01481	0.19806
1593.08614	0.19821
1591.15746	0.19831
1589.22879	0.19849
1587.30011	0.19875
1585.37144	0.19898
1583.44276	0.19914
1581.51408	0.19923
1579.58541	0.19910
1577.65673	0.19881
1575.72806	0.19887
1573.79938	0.19929
1571.87071	0.19941
1569.94203	0.19925
1568.01335	0.19943
1566.08468	0.19980
1564.15600	0.20002
1562.22733	0.19984
1560.29865	0.19914
1558.36998	0.19870
1556.44130	0.19919
1554.51262	0.19998
1552.58395	0.20043
1550.65527	0.20066
1548.72660	0.20090
1546.79792	0.20097
1544.86925	0.20059
1542.94057	0.20000
1541.01189	0.19976
1539.08322	0.20016
1537.15454	0.20094
1535.22587	0.20143
1533.29719	0.20161
1531.36852	0.20180
1529.43984	0.20184
1527.51116	0.20172
1525.58249	0.20169
1523.65381	0.20157
1521.72514	0.20139
1519.79646	0.20152
1517.86779	0.20180
1515.93911	0.20195
1514.01043	0.20201
1512.08176	0.20199
1510.15308	0.20178
1508.22441	0.20155
1506.29573	0.20180
1504.36706	0.20249
1502.43838	0.20295
1500.50970	0.20296
1498.58103	0.20269
1496.65235	0.20250
1494.72368	0.20264
1492.79500	0.20268
1490.86633	0.20238
1488.93765	0.20225
1487.00897	0.20247
1485.08030	0.20264
1483.15162	0.20255
1481.22295	0.20234
1479.29427	0.20212
1477.36560	0.20174
1475.43692	0.20115
1473.50824	0.20065
1471.57957	0.20050
1469.65089	0.20052
1467.72222	0.20033
1465.79354	0.20002
1463.86487	0.19983
1461.93619	0.19965
1460.00751	0.19906
1458.07884	0.19841
1456.15016	0.19839
1454.22149	0.19887
1452.29281	0.19923
1450.36414	0.19930
1448.43546	0.19929
1446.50678	0.19940
1444.57811	0.19962
1442.64943	0.19982
1440.72076	0.19990
1438.79208	0.19973
1436.86341	0.19956
1434.93473	0.19979
1433.00605	0.20020
1431.07738	0.20041
1429.14870	0.20053
1427.22003	0.20061
1425.29135	0.20055
1423.36268	0.20045
1421.43400	0.20030
1419.50532	0.20013
1417.57665	0.20031
1415.64797	0.20078
1413.71930	0.20105
1411.79062	0.20108
1409.86195	0.20104
1407.93327	0.20091
1406.00459	0.20071
1404.07592	0.20069
1402.14724	0.20078
1400.21857	0.20072
1398.28989	0.20056
1396.36122	0.20041
1394.43254	0.20039
1392.50386	0.20053
1390.57519	0.20056
1388.64651	0.20028
1386.71784	0.19992
1384.78916	0.19975
1382.86049	0.19974
1380.93181	0.19978
1379.00313	0.19975
1377.07446	0.19966
1375.14578	0.19959
1373.21711	0.19965
1371.28843	0.19979
1369.35976	0.19984
1367.43108	0.19975
1365.50240	0.19951
1363.57373	0.19923
1361.64505	0.19922
1359.71638	0.19945
1357.78770	0.19962
1355.85903	0.19970
1353.93035	0.19976
1352.00167	0.19985
1350.07300	0.19999
1348.14432	0.20012
1346.21565	0.20019
1344.28697	0.20015
1342.35830	0.20000
1340.42962	0.19984
1338.50094	0.19982
1336.57227	0.19992
1334.64359	0.20000
1332.71492	0.20000
1330.78624	0.19994
1328.85757	0.19981
1326.92889	0.19958
1325.00021	0.19934
1323.07154	0.19917
1321.14286	0.19899
1319.21419	0.19876
1317.28551	0.19860
1315.35684	0.19847
1313.42816	0.19831
1311.49948	0.19814
1309.57081	0.19795
1307.64213	0.19772
1305.71346	0.19748
1303.78478	0.19726
1301.85611	0.19704
1299.92743	0.19681
1297.99875	0.19659
1296.07008	0.19642
1294.14140	0.19629
1292.21273	0.19615
1290.28405	0.19595
1288.35538	0.19570
1286.42670	0.19549
1284.49802	0.19531
1282.56935	0.19513
1280.64067	0.19490
1278.71200	0.19458
1276.78332	0.19417
1274.85465	0.19373
1272.92597	0.19326
1270.99729	0.19264
1269.06862	0.19185
1267.13994	0.19094
1265.21127	0.19007
1263.28259	0.18945
1261.35392	0.18917
1259.42524	0.18920
1257.49656	0.18940
1255.56789	0.18956
1253.63921	0.18957
1251.71054	0.18952
1249.78186	0.18941
1247.85319	0.18915
1245.92451	0.18873
1243.99583	0.18827
1242.06716	0.18782
1240.13848	0.18734
1238.20981	0.18680
1236.28113	0.18622
1234.35246	0.18563
1232.42378	0.18509
1230.49510	0.18464
1228.56643	0.18416
1226.63775	0.18358
1224.70908	0.18299
1222.78040	0.18248
1220.85173	0.18202
1218.92305	0.18158
1216.99437	0.18114
1215.06570	0.18066
1213.13702	0.18013
1211.20835	0.17956
1209.27967	0.17895
1207.35100	0.17831
1205.42232	0.17772
1203.49364	0.17715
1201.56497	0.17658
1199.63629	0.17599
1197.70762	0.17537
1195.77894	0.17473
1193.85027	0.17406
1191.92159	0.17339
1189.99291	0.17273
1188.06424	0.17208
1186.13556	0.17136
1184.20689	0.17056
1182.27821	0.16973
1180.34954	0.16893
1178.42086	0.16813
1176.49218	0.16731
1174.56351	0.16647
1172.63483	0.16560
1170.70616	0.16475
1168.77748	0.16390
1166.84881	0.16302
1164.92013	0.16218
1162.99145	0.16140
1161.06278	0.16060
1159.13410	0.15980
1157.20543	0.15904
1155.27675	0.15826
1153.34808	0.15740
1151.41940	0.15657
1149.49072	0.15582
1147.56205	0.15507
1145.63337	0.15421
1143.70470	0.15327
1141.77602	0.15231
1139.84735	0.15135
1137.91867	0.15033
1135.98999	0.14917
1134.06132	0.14782
1132.13264	0.14627
1130.20397	0.14447
1128.27529	0.14246
1126.34662	0.14025
1124.41794	0.13790
1122.48926	0.13556
1120.56059	0.13328
1118.63191	0.13107
1116.70324	0.12904
1114.77456	0.12727
1112.84589	0.12574
1110.91721	0.12442
1108.98853	0.12336
1107.05986	0.12259
1105.13118	0.12212
1103.20251	0.12196
1101.27383	0.12213
1099.34516	0.12257
1097.41648	0.12320
1095.48780	0.12394
1093.55913	0.12474
1091.63045	0.12553
1089.70178	0.12626
1087.77310	0.12695
1085.84443	0.12766
1083.91575	0.12826
1081.98707	0.12865
1080.05840	0.12887
1078.12972	0.12902
1076.20105	0.12913
1074.27237	0.12923
1072.34370	0.12940
1070.41502	0.12960
1068.48634	0.12979
1066.55767	0.12998
1064.62899	0.13018
1062.70032	0.13037
1060.77164	0.13057
1058.84297	0.13076
1056.91429	0.13098
1054.98561	0.13127
1053.05694	0.13164
1051.12826	0.13203
1049.19959	0.13236
1047.27091	0.13264
1045.34224	0.13297
1043.41356	0.13333
1041.48488	0.13375
1039.55621	0.13423
1037.62753	0.13470
1035.69886	0.13510
1033.77018	0.13547
1031.84151	0.13577
1029.91283	0.13603
1027.98415	0.13633
1026.05548	0.13674
1024.12680	0.13715
1022.19813	0.13748
1020.26945	0.13784
1018.34078	0.13830
1016.41210	0.13881
1014.48342	0.13931
1012.55475	0.13977
1010.62607	0.14026
1008.69740	0.14089
1006.76872	0.14155
1004.84005	0.14212
1002.91137	0.14258
1000.98269	0.14293
999.05402	0.14321
997.12534	0.14346
995.19667	0.14363
993.26799	0.14373
991.33932	0.14382
989.41064	0.14389
987.48196	0.14393
985.55329	0.14397
983.62461	0.14396
981.69594	0.14389
979.76726	0.14378
977.83859	0.14363
975.90991	0.14345
973.98123	0.14329
972.05256	0.14318
970.12388	0.14308
968.19521	0.14294
966.26653	0.14270
964.33786	0.14242
962.40918	0.14221
960.48050	0.14209
958.55183	0.14197
956.62315	0.14181
954.69448	0.14160
952.76580	0.14143
950.83713	0.14135
948.90845	0.14122
946.97977	0.14098
945.05110	0.14068
943.12242	0.14039
941.19375	0.14007
939.26507	0.13967
937.33640	0.13923
935.40772	0.13876
933.47904	0.13823
931.55037	0.13768
929.62169	0.13718
927.69302	0.13667
925.76434	0.13612
923.83567	0.13558
921.90699	0.13500
919.97831	0.13438
918.04964	0.13374
916.12096	0.13313
914.19229	0.13242
912.26361	0.13153
910.33494	0.13066
908.40626	0.12996
906.47758	0.12936
904.54891	0.12876
902.62023	0.12814
900.69156	0.12756
898.76288	0.12706
896.83421	0.12661
894.90553	0.12610
892.97685	0.12559
891.04818	0.12516
889.11950	0.12479
887.19083	0.12442
885.26215	0.12398
883.33348	0.12348
881.40480	0.12303
879.47612	0.12267
877.54745	0.12241
875.61877	0.12219
873.69010	0.12195
871.76142	0.12169
869.83275	0.12150
867.90407	0.12138
865.97539	0.12125
864.04672	0.12105
862.11804	0.12085
860.18937	0.12073
858.26069	0.12071
856.33202	0.12070
854.40334	0.12060
852.47466	0.12032
850.54599	0.11993
848.61731	0.11956
846.68864	0.11933
844.75996	0.11921
842.83129	0.11904
840.90261	0.11870
838.97394	0.11824
837.04526	0.11774
835.11658	0.11718
833.18791	0.11649
831.25923	0.11560
829.33056	0.11452
827.40188	0.11344
825.47321	0.11250
823.54453	0.11165
821.61585	0.11085
819.68718	0.11016
817.75850	0.10961
815.82983	0.10916
813.90115	0.10882
811.97248	0.10853
810.04380	0.10825
808.11512	0.10804
806.18645	0.10789
804.25777	0.10778
802.32910	0.10771
800.40042	0.10753
798.47175	0.10708
796.54307	0.10645
794.61439	0.10586
792.68572	0.10544
790.75704	0.10520
788.82837	0.10506
786.89969	0.10491
784.97102	0.10468
783.04234	0.10437
781.11366	0.10404
779.18499	0.10374
777.25631	0.10340
775.32764	0.10305
773.39896	0.10278
771.47029	0.10254
769.54161	0.10226
767.61293	0.10190
765.68426	0.10145
763.75558	0.10095
761.82691	0.10042
759.89823	0.09989
757.96956	0.09941
756.04088	0.09891
754.11220	0.09832
752.18353	0.09769
750.25485	0.09704
748.32618	0.09633
746.39750	0.09555
744.46883	0.09471
742.54015	0.09383
740.61147	0.09302
738.68280	0.09248
736.75412	0.09227
734.82545	0.09222
732.89677	0.09230
730.96810	0.09243
729.03942	0.09254
727.11074	0.09261
725.18207	0.09263
723.25339	0.09267
721.32472	0.09279
719.39604	0.09296
717.46737	0.09318
715.53869	0.09352
713.61001	0.09395
711.68134	0.09437
709.75266	0.09468
707.82399	0.09481
705.89531	0.09478
703.96664	0.09467
702.03796	0.09440
700.10928	0.09397
698.18061	0.09347
696.25193	0.09292
694.32326	0.09231
692.39458	0.09166
690.46591	0.09105
688.53723	0.09057
686.60855	0.09020
684.67988	0.08982
682.75120	0.08937
680.82253	0.08885
678.89385	0.08829
676.96518	0.08761
675.03650	0.08684
673.10782	0.08613
671.17915	0.08542
669.25047	0.08460
667.32180	0.08372
665.39312	0.08289
663.46445	0.08207
661.53577	0.08126
659.60709	0.08043
657.67842	0.07961
655.74974	0.07881
653.82107	0.07800
651.89239	0.07727
649.96372	0.07658
648.03504	0.07583
646.10636	0.07498
644.17769	0.07400
642.24901	0.07291
640.32034	0.07184
638.39166	0.07085
636.46299	0.06986
634.53431	0.06873
632.60563	0.06722
630.67696	0.06492
628.74828	0.06153
626.81961	0.05721
624.89093	0.05281
622.96226	0.04933
621.03358	0.04719
619.10490	0.04605
617.17623	0.04522
615.24755	0.04427
613.31888	0.04323
611.39020	0.04227
609.46153	0.04169
607.53285	0.04172
605.60417	0.04218
603.67550	0.04281
601.74682	0.04355
599.81815	0.04445
597.88947	0.04533
595.96080	0.04595
594.03212	0.04634
592.10344	0.04662
590.17477	0.04678
588.24609	0.04677
586.31742	0.04663
584.38874	0.04639
582.46007	0.04605
580.53139	0.04562
578.60271	0.04514
576.67404	0.04459
574.74536	0.04401
572.81669	0.04345
570.88801	0.04290
568.95934	0.04233
567.03066	0.04181
565.10198	0.04140
563.17331	0.04112
561.24463	0.04090
559.31596	0.04066
557.38728	0.04034
555.45861	0.04002
553.52993	0.03973
551.60125	0.03955
549.67258	0.03951
547.74390	0.03953
545.81523	0.03954
543.88655	0.03944
541.95788	0.03920
540.02920	0.03888
538.10052	0.03861
536.17185	0.03839
534.24317	0.03812
532.31450	0.03784
530.38582	0.03759
528.45715	0.03740
526.52847	0.03718
524.59979	0.03688
522.67112	0.03654
520.74244	0.03616
518.81377	0.03567
516.88509	0.03504
514.95642	0.03439
513.02774	0.03399
511.09906	0.03389
509.17039	0.03376
507.24171	0.03349
505.31304	0.03315
503.38436	0.03272
501.45569	0.03221
499.52701	0.03173
497.59833	0.03127
495.66966	0.03078
493.74098	0.03021
491.81231	0.02962
489.88363	0.02905
487.95496	0.02851
486.02628	0.02802
484.09760	0.02755
482.16893	0.02705
480.24025	0.02648
478.31158	0.02581
476.38290	0.02517
474.45423	0.02468
472.52555	0.02425
470.59687	0.02379
468.66820	0.02336
466.73952	0.02315
464.81085	0.02312
462.88217	0.02299
460.95350	0.02271
459.02482	0.02244
457.09614	0.02227
455.16747	0.02223
453.23879	0.02230
451.31012	0.02238
449.38144	0.02236
447.45277	0.02223
445.52409	0.02199
443.59541	0.02167
441.66674	0.02140
439.73806	0.02117
437.80939	0.02079
435.88071	0.02028
433.95204	0.01985
432.02336	0.01948
430.09468	0.01901
428.16601	0.01836
426.23733	0.01760
424.30866	0.01683
422.37998	0.01615
420.45131	0.01551
418.52263	0.01482
416.59395	0.01418
414.66528	0.01365
412.73660	0.01307
410.80793	0.01239
408.87925	0.01178
406.95058	0.01126
405.02190	0.01061
403.09322	0.00987
401.16455	0.00927
399.23587	0.00883
397.30720	0.00829
395.37852	0.00762
393.44985	0.00704
391.52117	0.00662
389.59249	0.00617
387.66382	0.00565
385.73514	0.00527
383.80647	0.00501
381.87779	0.00468
379.94912	0.00437
378.02044	0.00413
376.09176	0.00383
374.16309	0.00352
372.23441	0.00323
370.30574	0.00290
368.37706	0.00260
