7496.76250	0.00116
7494.83382	0.00117
7492.90514	0.00118
7490.97647	0.00119
7489.04779	0.00119
7487.11912	0.00120
7485.19044	0.00119
7483.26177	0.00120
7481.33309	0.00121
7479.40441	0.00123
7477.47574	0.00124
7475.54706	0.00123
7473.61839	0.00121
7471.68971	0.00120
7469.76104	0.00120
7467.83236	0.00121
7465.90368	0.00122
7463.97501	0.00122
7462.04633	0.00123
7460.11766	0.00125
7458.18898	0.00126
7456.26031	0.00125
7454.33163	0.00124
7452.40295	0.00123
7450.47428	0.00123
7448.54560	0.00124
7446.61693	0.00126
7444.68825	0.00127
7442.75958	0.00127
7440.83090	0.00127
7438.90222	0.00128
7436.97355	0.00128
7435.04487	0.00128
7433.11620	0.00129
7431.18752	0.00129
7429.25885	0.00129
7427.33017	0.00129
7425.40149	0.00128
7423.47282	0.00129
7421.54414	0.00130
7419.61547	0.00130
7417.68679	0.00131
7415.75812	0.00131
7413.82944	0.00132
7411.90076	0.00133
7409.97209	0.00133
7408.04341	0.00132
7406.11474	0.00132
7404.18606	0.00134
7402.25739	0.00135
7400.32871	0.00135
7398.40003	0.00135
7396.47136	0.00136
7394.54268	0.00135
7392.61401	0.00133
7390.68533	0.00134
7388.75666	0.00135
7386.82798	0.00137
7384.89930	0.00138
7382.97063	0.00139
7381.04195	0.00138
7379.11328	0.00137
7377.18460	0.00138
7375.25593	0.00139
7373.32725	0.00139
7371.39857	0.00137
7369.46990	0.00137
7367.54122	0.00137
7365.61255	0.00139
7363.68387	0.00141
7361.75520	0.00142
7359.82652	0.00142
7357.89784	0.00141
7355.96917	0.00141
7354.04049	0.00142
7352.11182	0.00142
7350.18314	0.00142
7348.25447	0.00141
7346.32579	0.00142
7344.39711	0.00143
7342.46844	0.00143
7340.53976	0.00143
7338.61109	0.00143
7336.68241	0.00145
7334.75374	0.00146
7332.82506	0.00148
7330.89638	0.00148
7328.96771	0.00148
7327.03903	0.00147
7325.11036	0.00147
7323.18168	0.00147
7321.25301	0.00146
7319.32433	0.00146
7317.39565	0.00146
7315.46698	0.00147
7313.53830	0.00149
7311.60963	0.00150
7309.68095	0.00151
7307.75228	0.00150
7305.82360	0.00149
7303.89492	0.00149
7301.96625	0.00150
7300.03757	0.00150
7298.10890	0.00151
7296.18022	0.00152
7294.25155	0.00153
7292.32287	0.00153
7290.39419	0.00154
7288.46552	0.00153
7286.53684	0.00153
7284.60817	0.00154
7282.67949	0.00156
7280.75082	0.00157
7278.82214	0.00156
7276.89346	0.00155
7274.96479	0.00154
7273.03611	0.00155
7271.10744	0.00156
7269.17876	0.00156
7267.25009	0.00156
7265.32141	0.00156
7263.39273	0.00157
7261.46406	0.00159
7259.53538	0.00159
7257.60671	0.00159
7255.67803	0.00158
7253.74936	0.00158
7251.82068	0.00158
7249.89200	0.00160
7247.96333	0.00161
7246.03465	0.00162
7244.10598	0.00163
7242.17730	0.00164
7240.24863	0.00164
7238.31995	0.00164
7236.39127	0.00163
7234.46260	0.00163
7232.53392	0.00164
7230.60525	0.00165
7228.67657	0.00166
7226.74790	0.00166
7224.81922	0.00165
7222.89054	0.00164
7220.96187	0.00165
7219.03319	0.00166
7217.10452	0.00169
7215.17584	0.00170
7213.24717	0.00169
7211.31849	0.00168
7209.38981	0.00168
7207.46114	0.00168
7205.53246	0.00168
7203.60379	0.00167
7201.67511	0.00168
7199.74644	0.00168
7197.81776	0.00168
7195.88908	0.00169
7193.96041	0.00171
7192.03173	0.00173
7190.10306	0.00174
7188.17438	0.00173
7186.24571	0.00173
7184.31703	0.00173
7182.38835	0.00174
7180.45968	0.00174
7178.53100	0.00175
7176.60233	0.00175
7174.67365	0.00176
7172.74498	0.00177
7170.81630	0.00177
7168.88762	0.00178
7166.95895	0.00179
7165.03027	0.00180
7163.10160	0.00181
7161.17292	0.00180
7159.24425	0.00179
7157.31557	0.00179
7155.38689	0.00179
7153.45822	0.00179
7151.52954	0.00179
7149.60087	0.00180
7147.67219	0.00181
7145.74352	0.00181
7143.81484	0.00181
7141.88616	0.00183
7139.95749	0.00184
7138.02881	0.00184
7136.10014	0.00183
7134.17146	0.00183
7132.24279	0.00183
7130.31411	0.00184
7128.38543	0.00185
7126.45676	0.00185
7124.52808	0.00184
7122.59941	0.00184
7120.67073	0.00185
7118.74206	0.00187
7116.81338	0.00189
7114.88470	0.00190
7112.95603	0.00190
7111.02735	0.00190
7109.09868	0.00190
7107.17000	0.00190
7105.24133	0.00189
7103.31265	0.00189
7101.38397	0.00190
7099.45530	0.00191
7097.52662	0.00192
7095.59795	0.00192
7093.66927	0.00192
7091.74060	0.00192
7089.81192	0.00193
7087.88324	0.00193
7085.95457	0.00193
7084.02589	0.00193
7082.09722	0.00194
7080.16854	0.00196
7078.23987	0.00197
7076.31119	0.00196
7074.38251	0.00193
7072.45384	0.00193
7070.52516	0.00194
7068.59649	0.00196
7066.66781	0.00198
7064.73914	0.00199
7062.81046	0.00200
7060.88178	0.00200
7058.95311	0.00199
7057.02443	0.00199
7055.09576	0.00200
7053.16708	0.00202
7051.23841	0.00202
7049.30973	0.00202
7047.38105	0.00202
7045.45238	0.00203
7043.52370	0.00204
7041.59503	0.00206
7039.66635	0.00206
7037.73768	0.00206
7035.80900	0.00205
7033.88032	0.00206
7031.95165	0.00206
7030.02297	0.00206
7028.09430	0.00206
7026.16562	0.00205
7024.23695	0.00205
7022.30827	0.00205
7020.37959	0.00205
7018.45092	0.00206
7016.52224	0.00209
7014.59357	0.00210
7012.66489	0.00209
7010.73622	0.00208
7008.80754	0.00209
7006.87886	0.00211
7004.95019	0.00212
7003.02151	0.00213
7001.09284	0.00213
6999.16416	0.00213
6997.23549	0.00212
6995.30681	0.00212
6993.37813	0.00212
6991.44946	0.00214
6989.52078	0.00215
6987.59211	0.00215
6985.66343	0.00216
6983.73476	0.00217
6981.80608	0.00218
6979.87740	0.00218
6977.94873	0.00219
6976.02005	0.00219
6974.09138	0.00219
6972.16270	0.00219
6970.23403	0.00219
6968.30535	0.00219
6966.37667	0.00219
6964.44800	0.00220
6962.51932	0.00222
6960.59065	0.00223
6958.66197	0.00224
6956.73330	0.00224
6954.80462	0.00224
6952.87594	0.00224
6950.94727	0.00224
6949.01859	0.00225
6947.08992	0.00224
6945.16124	0.00224
6943.23257	0.00224
6941.30389	0.00226
6939.37521	0.00228
6937.44654	0.00229
6935.51786	0.00230
6933.58919	0.00230
6931.66051	0.00231
6929.73184	0.00232
6927.80316	0.00233
6925.87448	0.00233
6923.94581	0.00232
6922.01713	0.00231
6920.08846	0.00230
6918.15978	0.00229
6916.23111	0.00231
6914.30243	0.00234
6912.37375	0.00236
6910.44508	0.00237
6908.51640	0.00238
6906.58773	0.00238
6904.65905	0.00238
6902.73038	0.00238
6900.80170	0.00238
6898.87302	0.00238
6896.94435	0.00239
6895.01567	0.00240
6893.08700	0.00240
6891.15832	0.00241
6889.22965	0.00241
6887.30097	0.00242
6885.37229	0.00242
6883.44362	0.00242
6881.51494	0.00243
6879.58627	0.00243
6877.65759	0.00243
6875.72892	0.00242
6873.80024	0.00243
6871.87156	0.00243
6869.94289	0.00242
6868.01421	0.00242
6866.08554	0.00244
6864.15686	0.00245
6862.22819	0.00246
6860.29951	0.00247
6858.37083	0.00248
6856.44216	0.00250
6854.51348	0.00251
6852.58481	0.00251
6850.65613	0.00251
6848.72746	0.00251
6846.79878	0.00251
6844.87010	0.00251
6842.94143	0.00253
6841.01275	0.00254
6839.08408	0.00254
6837.15540	0.00253
6835.22673	0.00253
6833.29805	0.00252
6831.36937	0.00253
6829.44070	0.00255
6827.51202	0.00257
6825.58335	0.00257
6823.65467	0.00258
6821.72600	0.00259
6819.79732	0.00258
6817.86864	0.00258
6815.93997	0.00259
6814.01129	0.00259
6812.08262	0.00260
6810.15394	0.00262
6808.22527	0.00263
6806.29659	0.00262
6804.36791	0.00262
6802.43924	0.00263
6800.51056	0.00265
6798.58189	0.00266
6796.65321	0.00266
6794.72454	0.00267
6792.79586	0.00268
6790.86718	0.00269
6788.93851	0.00269
6787.00983	0.00269
6785.08116	0.00268
6783.15248	0.00268
6781.22381	0.00269
6779.29513	0.00270
6777.36645	0.00270
6775.43778	0.00270
6773.50910	0.00271
6771.58043	0.00272
6769.65175	0.00273
6767.72308	0.00275
6765.79440	0.00275
6763.86572	0.00275
6761.93705	0.00275
6760.00837	0.00275
6758.07970	0.00276
6756.15102	0.00275
6754.22235	0.00276
6752.29367	0.00278
6750.36499	0.00280
6748.43632	0.00282
6746.50764	0.00282
6744.57897	0.00282
6742.65029	0.00282
6740.72162	0.00282
6738.79294	0.00282
6736.86426	0.00282
6734.93559	0.00282
6733.00691	0.00284
6731.07824	0.00286
6729.14956	0.00288
6727.22089	0.00289
6725.29221	0.00288
6723.36353	0.00286
6721.43486	0.00286
6719.50618	0.00288
6717.57751	0.00289
6715.64883	0.00291
6713.72016	0.00294
6711.79148	0.00294
6709.86280	0.00293
6707.93413	0.00292
6706.00545	0.00292
6704.07678	0.00293
6702.14810	0.00295
6700.21943	0.00295
6698.29075	0.00295
6696.36207	0.00296
6694.43340	0.00298
6692.50472	0.00299
6690.57605	0.00299
6688.64737	0.00300
6686.71870	0.00299
6684.79002	0.00299
6682.86134	0.00300
6680.93267	0.00302
6679.00399	0.00303
6677.07532	0.00303
6675.14664	0.00303
6673.21797	0.00304
6671.28929	0.00305
6669.36061	0.00305
6667.43194	0.00305
6665.50326	0.00304
6663.57459	0.00303
6661.64591	0.00303
6659.71724	0.00305
6657.78856	0.00306
6655.85988	0.00307
6653.93121	0.00309
6652.00253	0.00311
6650.07386	0.00311
6648.14518	0.00311
6646.21651	0.00311
6644.28783	0.00312
6642.35915	0.00313
6640.43048	0.00314
6638.50180	0.00312
6636.57313	0.00312
6634.64445	0.00315
6632.71578	0.00317
6630.78710	0.00318
6628.85842	0.00317
6626.92975	0.00317
6625.00107	0.00317
6623.07240	0.00318
6621.14372	0.00319
6619.21505	0.00320
6617.28637	0.00320
6615.35769	0.00320
6613.42902	0.00321
6611.50034	0.00323
6609.57167	0.00324
6607.64299	0.00325
6605.71432	0.00325
6603.78564	0.00326
6601.85696	0.00327
6599.92829	0.00327
6597.99961	0.00326
6596.07094	0.00327
6594.14226	0.00329
6592.21359	0.00329
6590.28491	0.00328
6588.35623	0.00328
6586.42756	0.00328
6584.49888	0.00329
6582.57021	0.00331
6580.64153	0.00334
6578.71286	0.00336
6576.78418	0.00339
6574.85550	0.00339
6572.92683	0.00339
6570.99815	0.00338
6569.06948	0.00338
6567.14080	0.00339
6565.21213	0.00338
6563.28345	0.00338
6561.35477	0.00340
6559.42610	0.00341
6557.49742	0.00341
6555.56875	0.00342
6553.64007	0.00344
6551.71140	0.00346
6549.78272	0.00346
6547.85404	0.00345
6545.92537	0.00345
6543.99669	0.00345
6542.06802	0.00345
6540.13934	0.00347
6538.21067	0.00351
6536.28199	0.00352
6534.35331	0.00353
6532.42464	0.00354
6530.49596	0.00355
6528.56729	0.00356
6526.63861	0.00355
6524.70994	0.00355
6522.78126	0.00356
6520.85258	0.00356
6518.92391	0.00357
6516.99523	0.00358
6515.06656	0.00359
6513.13788	0.00358
6511.20921	0.00357
6509.28053	0.00358
6507.35185	0.00360
6505.42318	0.00361
6503.49450	0.00361
6501.56583	0.00361
6499.63715	0.00362
6497.70848	0.00364
6495.77980	0.00364
6493.85112	0.00365
6491.92245	0.00366
6489.99377	0.00369
6488.06510	0.00370
6486.13642	0.00372
6484.20775	0.00374
6482.27907	0.00375
6480.35039	0.00374
6478.42172	0.00373
6476.49304	0.00372
6474.56437	0.00372
6472.63569	0.00374
6470.70702	0.00377
6468.77834	0.00378
6466.84966	0.00378
6464.92099	0.00379
6462.99231	0.00380
6461.06364	0.00381
6459.13496	0.00382
6457.20629	0.00382
6455.27761	0.00384
6453.34893	0.00385
6451.42026	0.00385
6449.49158	0.00385
6447.56291	0.00385
6445.63423	0.00385
6443.70556	0.00387
6441.77688	0.00389
6439.84820	0.00390
6437.91953	0.00391
6435.99085	0.00392
6434.06218	0.00392
6432.13350	0.00393
6430.20483	0.00394
6428.27615	0.00395
6426.34747	0.00395
6424.41880	0.00397
6422.49012	0.00398
6420.56145	0.00399
6418.63277	0.00399
6416.70410	0.00399
6414.77542	0.00399
6412.84674	0.00400
6410.91807	0.00401
6408.98939	0.00402
6407.06072	0.00402
6405.13204	0.00403
6403.20337	0.00405
6401.27469	0.00407
6399.34601	0.00408
6397.41734	0.00409
6395.48866	0.00410
6393.55999	0.00411
6391.63131	0.00413
6389.70264	0.00414
6387.77396	0.00414
6385.84528	0.00414
6383.91661	0.00415
6381.98793	0.00414
6380.05926	0.00413
6378.13058	0.00413
6376.20191	0.00416
6374.27323	0.00419
6372.34455	0.00420
6370.41588	0.00418
6368.48720	0.00418
6366.55853	0.00419
6364.62985	0.00420
6362.70118	0.00421
6360.77250	0.00423
6358.84382	0.00424
6356.91515	0.00425
6354.98647	0.00426
6353.05780	0.00427
6351.12912	0.00430
6349.20045	0.00432
6347.27177	0.00431
6345.34309	0.00431
6343.41442	0.00431
6341.48574	0.00433
6339.55707	0.00433
6337.62839	0.00433
6335.69972	0.00435
6333.77104	0.00436
6331.84236	0.00436
6329.91369	0.00436
6327.98501	0.00437
6326.05634	0.00438
6324.12766	0.00440
6322.19899	0.00441
6320.27031	0.00441
6318.34163	0.00441
6316.41296	0.00442
6314.48428	0.00445
6312.55561	0.00447
6310.62693	0.00447
6308.69826	0.00448
6306.76958	0.00449
6304.84090	0.00450
6302.91223	0.00451
6300.98355	0.00452
6299.05488	0.00454
6297.12620	0.00456
6295.19753	0.00458
6293.26885	0.00459
6291.34017	0.00459
6289.41150	0.00459
6287.48282	0.00459
6285.55415	0.00460
6283.62547	0.00461
6281.69680	0.00462
6279.76812	0.00465
6277.83944	0.00467
6275.91077	0.00467
6273.98209	0.00466
6272.05342	0.00465
6270.12474	0.00465
6268.19607	0.00466
6266.26739	0.00467
6264.33871	0.00469
6262.41004	0.00471
6260.48136	0.00472
6258.55269	0.00473
6256.62401	0.00474
6254.69534	0.00475
6252.76666	0.00475
6250.83798	0.00475
6248.90931	0.00477
6246.98063	0.00479
6245.05196	0.00480
6243.12328	0.00481
6241.19461	0.00482
6239.26593	0.00482
6237.33725	0.00483
6235.40858	0.00486
6233.47990	0.00487
6231.55123	0.00487
6229.62255	0.00489
6227.69388	0.00491
6225.76520	0.00491
6223.83652	0.00492
6221.90785	0.00493
6219.97917	0.00492
6218.05050	0.00492
6216.12182	0.00494
6214.19315	0.00497
6212.26447	0.00499
6210.33579	0.00499
6208.40712	0.00500
6206.47844	0.00501
6204.54977	0.00501
6202.62109	0.00500
6200.69242	0.00500
6198.76374	0.00501
6196.83506	0.00502
6194.90639	0.00504
6192.97771	0.00507
6191.04904	0.00508
6189.12036	0.00507
6187.19169	0.00508
6185.26301	0.00509
6183.33433	0.00511
6181.40566	0.00514
6179.47698	0.00515
6177.54831	0.00515
6175.61963	0.00516
6173.69096	0.00516
6171.76228	0.00517
6169.83360	0.00520
6167.90493	0.00523
6165.97625	0.00525
6164.04758	0.00525
6162.11890	0.00523
6160.19023	0.00523
6158.26155	0.00524
6156.33287	0.00528
6154.40420	0.00530
6152.47552	0.00530
6150.54685	0.00529
6148.61817	0.00531
6146.68950	0.00532
6144.76082	0.00533
6142.83214	0.00535
6140.90347	0.00539
6138.97479	0.00541
6137.04612	0.00541
6135.11744	0.00540
6133.18877	0.00541
6131.26009	0.00542
6129.33141	0.00544
6127.40274	0.00545
6125.47406	0.00545
6123.54539	0.00545
6121.61671	0.00545
6119.68804	0.00547
6117.75936	0.00550
6115.83068	0.00553
6113.90201	0.00554
6111.97333	0.00554
6110.04466	0.00554
6108.11598	0.00556
6106.18731	0.00557
6104.25863	0.00558
6102.32995	0.00560
6100.40128	0.00563
6098.47260	0.00564
6096.54393	0.00564
6094.61525	0.00563
6092.68658	0.00563
6090.75790	0.00564
6088.82922	0.00566
6086.90055	0.00570
6084.97187	0.00573
6083.04320	0.00573
6081.11452	0.00573
6079.18585	0.00574
6077.25717	0.00575
6075.32849	0.00576
6073.39982	0.00576
6071.47114	0.00576
6069.54247	0.00577
6067.61379	0.00579
6065.68512	0.00582
6063.75644	0.00584
6061.82776	0.00583
6059.89909	0.00583
6057.97041	0.00585
6056.04174	0.00587
6054.11306	0.00590
6052.18439	0.00592
6050.25571	0.00592
6048.32703	0.00593
6046.39836	0.00593
6044.46968	0.00593
6042.54101	0.00594
6040.61233	0.00598
6038.68366	0.00600
6036.75498	0.00600
6034.82630	0.00601
6032.89763	0.00603
6030.96895	0.00605
6029.04028	0.00607
6027.11160	0.00608
6025.18293	0.00609
6023.25425	0.00609
6021.32557	0.00609
6019.39690	0.00610
6017.46822	0.00612
6015.53955	0.00615
6013.61087	0.00618
6011.68220	0.00618
6009.75352	0.00618
6007.82484	0.00618
6005.89617	0.00619
6003.96749	0.00621
6002.03882	0.00623
6000.11014	0.00624
5998.18147	0.00624
5996.25279	0.00627
5994.32411	0.00630
5992.39544	0.00631
5990.46676	0.00632
5988.53809	0.00634
5986.60941	0.00635
5984.68074	0.00635
5982.75206	0.00635
5980.82338	0.00637
5978.89471	0.00639
5976.96603	0.00641
5975.03736	0.00641
5973.10868	0.00642
5971.18001	0.00643
5969.25133	0.00646
5967.32265	0.00648
5965.39398	0.00649
5963.46530	0.00649
5961.53663	0.00650
5959.60795	0.00651
5957.67928	0.00654
5955.75060	0.00656
5953.82192	0.00657
5951.89325	0.00658
5949.96457	0.00660
5948.03590	0.00664
5946.10722	0.00665
5944.17855	0.00665
5942.24987	0.00665
5940.32119	0.00665
5938.39252	0.00665
5936.46384	0.00667
5934.53517	0.00670
5932.60649	0.00671
5930.67782	0.00672
5928.74914	0.00674
5926.82046	0.00675
5924.89179	0.00675
5922.96311	0.00675
5921.03444	0.00678
5919.10576	0.00680
5917.17709	0.00682
5915.24841	0.00684
5913.31973	0.00685
5911.39106	0.00687
5909.46238	0.00688
5907.53371	0.00688
5905.60503	0.00688
5903.67636	0.00689
5901.74768	0.00691
5899.81900	0.00694
5897.89033	0.00696
5895.96165	0.00698
5894.03298	0.00699
5892.10430	0.00699
5890.17563	0.00699
5888.24695	0.00701
5886.31827	0.00703
5884.38960	0.00705
5882.46092	0.00707
5880.53225	0.00710
5878.60357	0.00712
5876.67490	0.00713
5874.74622	0.00713
5872.81755	0.00714
5870.88887	0.00715
5868.96019	0.00716
5867.03152	0.00717
5865.10284	0.00719
5863.17417	0.00721
5861.24549	0.00723
5859.31682	0.00725
5857.38814	0.00726
5855.45946	0.00726
5853.53079	0.00727
5851.60211	0.00731
5849.67344	0.00735
5847.74476	0.00737
5845.81609	0.00735
5843.88741	0.00735
5841.95873	0.00737
5840.03006	0.00739
5838.10138	0.00742
5836.17271	0.00744
5834.24403	0.00747
5832.31536	0.00748
5830.38668	0.00749
5828.45800	0.00750
5826.52933	0.00751
5824.60065	0.00752
5822.67198	0.00752
5820.74330	0.00753
5818.81463	0.00754
5816.88595	0.00755
5814.95727	0.00757
5813.02860	0.00760
5811.09992	0.00762
5809.17125	0.00763
5807.24257	0.00766
5805.31390	0.00767
5803.38522	0.00767
5801.45654	0.00768
5799.52787	0.00771
5797.59919	0.00773
5795.67052	0.00775
5793.74184	0.00776
5791.81317	0.00777
5789.88449	0.00779
5787.95581	0.00781
5786.02714	0.00783
5784.09846	0.00784
5782.16979	0.00786
5780.24111	0.00788
5778.31244	0.00790
5776.38376	0.00791
5774.45508	0.00793
5772.52641	0.00795
5770.59773	0.00797
5768.66906	0.00799
5766.74038	0.00800
5764.81171	0.00801
5762.88303	0.00803
5760.95435	0.00805
5759.02568	0.00807
5757.09700	0.00808
5755.16833	0.00808
5753.23965	0.00809
5751.31098	0.00810
5749.38230	0.00813
5747.45362	0.00816
5745.52495	0.00816
5743.59627	0.00816
5741.66760	0.00818
5739.73892	0.00821
5737.81025	0.00823
5735.88157	0.00823
5733.95289	0.00824
5732.02422	0.00826
5730.09554	0.00829
5728.16687	0.00832
5726.23819	0.00833
5724.30952	0.00834
5722.38084	0.00836
5720.45216	0.00837
5718.52349	0.00837
5716.59481	0.00839
5714.66614	0.00842
5712.73746	0.00844
5710.80879	0.00845
5708.88011	0.00846
5706.95143	0.00846
5705.02276	0.00848
5703.09408	0.00850
5701.16541	0.00853
5699.23673	0.00856
5697.30806	0.00857
5695.37938	0.00858
5693.45070	0.00861
5691.52203	0.00865
5689.59335	0.00868
5687.66468	0.00869
5685.73600	0.00869
5683.80733	0.00869
5681.87865	0.00870
5679.94997	0.00871
5678.02130	0.00873
5676.09262	0.00874
5674.16395	0.00878
5672.23527	0.00883
5670.30660	0.00885
5668.37792	0.00886
5666.44924	0.00886
5664.52057	0.00887
5662.59189	0.00890
5660.66322	0.00892
5658.73454	0.00893
5656.80587	0.00894
5654.87719	0.00897
5652.94851	0.00898
5651.01984	0.00900
5649.09116	0.00901
5647.16249	0.00902
5645.23381	0.00904
5643.30514	0.00905
5641.37646	0.00907
5639.44778	0.00910
5637.51911	0.00913
5635.59043	0.00914
5633.66176	0.00916
5631.73308	0.00917
5629.80441	0.00919
5627.87573	0.00921
5625.94705	0.00923
5624.01838	0.00926
5622.08970	0.00928
5620.16103	0.00931
5618.23235	0.00934
5616.30368	0.00935
5614.37500	0.00935
5612.44632	0.00936
5610.51765	0.00938
5608.58897	0.00940
5606.66030	0.00943
5604.73162	0.00944
5602.80295	0.00944
5600.87427	0.00944
5598.94559	0.00947
5597.01692	0.00951
5595.08824	0.00955
5593.15957	0.00957
5591.23089	0.00956
5589.30222	0.00957
5587.37354	0.00961
5585.44486	0.00963
5583.51619	0.00964
5581.58751	0.00966
5579.65884	0.00968
5577.73016	0.00971
5575.80149	0.00972
5573.87281	0.00974
5571.94413	0.00975
5570.01546	0.00977
5568.08678	0.00979
5566.15811	0.00981
5564.22943	0.00981
5562.30076	0.00983
5560.37208	0.00987
5558.44340	0.00990
5556.51473	0.00991
5554.58605	0.00993
5552.65738	0.00996
5550.72870	0.00996
5548.80003	0.00998
5546.87135	0.01000
5544.94267	0.01003
5543.01400	0.01005
5541.08532	0.01007
5539.15665	0.01008
5537.22797	0.01007
5535.29930	0.01008
5533.37062	0.01011
5531.44194	0.01014
5529.51327	0.01016
5527.58459	0.01019
5525.65592	0.01021
5523.72724	0.01022
5521.79857	0.01023
5519.86989	0.01027
5517.94121	0.01030
5516.01254	0.01031
5514.08386	0.01031
5512.15519	0.01033
5510.22651	0.01034
5508.29784	0.01036
5506.36916	0.01039
5504.44048	0.01042
5502.51181	0.01045
5500.58313	0.01046
5498.65446	0.01047
5496.72578	0.01050
5494.79711	0.01052
5492.86843	0.01053
5490.93975	0.01055
5489.01108	0.01057
5487.08240	0.01060
5485.15373	0.01062
5483.22505	0.01063
5481.29638	0.01066
5479.36770	0.01069
5477.43902	0.01072
5475.51035	0.01073
5473.58167	0.01074
5471.65300	0.01076
5469.72432	0.01080
5467.79565	0.01082
5465.86697	0.01084
5463.93829	0.01085
5462.00962	0.01087
5460.08094	0.01089
5458.15227	0.01092
5456.22359	0.01094
5454.29492	0.01094
5452.36624	0.01094
5450.43756	0.01096
5448.50889	0.01098
5446.58021	0.01100
5444.65154	0.01100
5442.72286	0.01100
5440.79419	0.01105
5438.86551	0.01111
5436.93683	0.01113
5435.00816	0.01114
5433.07948	0.01115
5431.15081	0.01116
5429.22213	0.01118
5427.29346	0.01121
5425.36478	0.01125
5423.43610	0.01127
5421.50743	0.01130
5419.57875	0.01132
5417.65008	0.01133
5415.72140	0.01134
5413.79273	0.01135
5411.86405	0.01138
5409.93537	0.01142
5408.00670	0.01145
5406.07802	0.01147
5404.14935	0.01149
5402.22067	0.01152
5400.29200	0.01155
5398.36332	0.01155
5396.43464	0.01155
5394.50597	0.01155
5392.57729	0.01159
5390.64862	0.01162
5388.71994	0.01165
5386.79127	0.01168
5384.86259	0.01171
5382.93391	0.01174
5381.00524	0.01177
5379.07656	0.01180
5377.14789	0.01180
5375.21921	0.01181
5373.29054	0.01182
5371.36186	0.01183
5369.43318	0.01187
5367.50451	0.01191
5365.57583	0.01194
5363.64716	0.01195
5361.71848	0.01195
5359.78981	0.01197
5357.86113	0.01200
5355.93245	0.01202
5354.00378	0.01203
5352.07510	0.01205
5350.14643	0.01208
5348.21775	0.01210
5346.28908	0.01209
5344.36040	0.01210
5342.43172	0.01213
5340.50305	0.01216
5338.57437	0.01219
5336.64570	0.01221
5334.71702	0.01224
5332.78835	0.01228
5330.85967	0.01232
5328.93099	0.01235
5327.00232	0.01236
5325.07364	0.01238
5323.14497	0.01241
5321.21629	0.01244
5319.28762	0.01247
5317.35894	0.01248
5315.43026	0.01248
5313.50159	0.01250
5311.57291	0.01254
5309.64424	0.01258
5307.71556	0.01259
5305.78689	0.01261
5303.85821	0.01264
5301.92953	0.01267
5300.00086	0.01268
5298.07218	0.01268
5296.14351	0.01270
5294.21483	0.01272
5292.28616	0.01273
5290.35748	0.01274
5288.42880	0.01277
5286.50013	0.01280
5284.57145	0.01283
5282.64278	0.01286
5280.71410	0.01289
5278.78543	0.01290
5276.85675	0.01293
5274.92807	0.01297
5272.99940	0.01301
5271.07072	0.01303
5269.14205	0.01305
5267.21337	0.01307
5265.28470	0.01307
5263.35602	0.01308
5261.42734	0.01310
5259.49867	0.01312
5257.56999	0.01314
5255.64132	0.01318
5253.71264	0.01323
5251.78397	0.01326
5249.85529	0.01326
5247.92661	0.01327
5245.99794	0.01329
5244.06926	0.01334
5242.14059	0.01338
5240.21191	0.01341
5238.28324	0.01342
5236.35456	0.01343
5234.42588	0.01344
5232.49721	0.01348
5230.56853	0.01351
5228.63986	0.01352
5226.71118	0.01351
5224.78251	0.01353
5222.85383	0.01356
5220.92515	0.01359
5218.99648	0.01361
5217.06780	0.01364
5215.13913	0.01367
5213.21045	0.01370
5211.28178	0.01372
5209.35310	0.01372
5207.42442	0.01374
5205.49575	0.01378
5203.56707	0.01383
5201.63840	0.01388
5199.70972	0.01390
5197.78105	0.01391
5195.85237	0.01395
5193.92369	0.01397
5191.99502	0.01397
5190.06634	0.01398
5188.13767	0.01400
5186.20899	0.01403
5184.28032	0.01405
5182.35164	0.01408
5180.42296	0.01411
5178.49429	0.01413
5176.56561	0.01415
5174.63694	0.01417
5172.70826	0.01419
5170.77959	0.01420
5168.85091	0.01421
5166.92223	0.01424
5164.99356	0.01428
5163.06488	0.01433
5161.13621	0.01437
5159.20753	0.01441
5157.27886	0.01443
5155.35018	0.01444
5153.42150	0.01445
5151.49283	0.01447
5149.56415	0.01449
5147.63548	0.01451
5145.70680	0.01453
5143.77813	0.01456
5141.84945	0.01460
5139.92077	0.01464
5137.99210	0.01467
5136.06342	0.01469
5134.13475	0.01471
5132.20607	0.01472
5130.27740	0.01474
5128.34872	0.01476
5126.42004	0.01478
5124.49137	0.01480
5122.56269	0.01484
5120.63402	0.01487
5118.70534	0.01488
5116.77667	0.01491
5114.84799	0.01495
5112.91931	0.01498
5110.99064	0.01499
5109.06196	0.01502
5107.13329	0.01506
5105.20461	0.01509
5103.27594	0.01511
5101.34726	0.01512
5099.41858	0.01514
5097.48991	0.01517
5095.56123	0.01520
5093.63256	0.01522
5091.70388	0.01523
5089.77521	0.01524
5087.84653	0.01526
5085.91785	0.01530
5083.98918	0.01535
5082.06050	0.01537
5080.13183	0.01540
5078.20315	0.01544
5076.27448	0.01547
5074.34580	0.01548
5072.41712	0.01549
5070.48845	0.01552
5068.55977	0.01555
5066.63110	0.01559
5064.70242	0.01563
5062.77375	0.01565
5060.84507	0.01566
5058.91639	0.01567
5056.98772	0.01570
5055.05904	0.01574
5053.13037	0.01576
5051.20169	0.01577
5049.27302	0.01578
5047.34434	0.01581
5045.41566	0.01584
5043.48699	0.01586
5041.55831	0.01589
5039.62964	0.01591
5037.70096	0.01594
5035.77229	0.01597
5033.84361	0.01599
5031.91493	0.01601
5029.98626	0.01604
5028.05758	0.01607
5026.12891	0.01610
5024.20023	0.01613
5022.27156	0.01617
5020.34288	0.01620
5018.41420	0.01622
5016.48553	0.01625
5014.55685	0.01628
5012.62818	0.01631
5010.69950	0.01635
5008.77083	0.01638
5006.84215	0.01640
5004.91347	0.01641
5002.98480	0.01642
5001.05612	0.01643
4999.12745	0.01646
4997.19877	0.01650
4995.27010	0.01654
4993.34142	0.01656
4991.41274	0.01658
4989.48407	0.01661
4987.55539	0.01665
4985.62672	0.01668
4983.69804	0.01671
4981.76937	0.01674
4979.84069	0.01676
4977.91201	0.01679
4975.98334	0.01683
4974.05466	0.01687
4972.12599	0.01690
4970.19731	0.01693
4968.26864	0.01696
4966.33996	0.01698
4964.41128	0.01698
4962.48261	0.01700
4960.55393	0.01703
4958.62526	0.01707
4956.69658	0.01710
4954.76791	0.01710
4952.83923	0.01710
4950.91055	0.01712
4948.98188	0.01716
4947.05320	0.01722
4945.12453	0.01728
4943.19585	0.01731
4941.26718	0.01731
4939.33850	0.01731
4937.40982	0.01734
4935.48115	0.01737
4933.55247	0.01741
4931.62380	0.01746
4929.69512	0.01750
4927.76645	0.01753
4925.83777	0.01757
4923.90909	0.01760
4921.98042	0.01761
4920.05174	0.01760
4918.12307	0.01762
4916.19439	0.01765
4914.26572	0.01768
4912.33704	0.01770
4910.40836	0.01773
4908.47969	0.01777
4906.55101	0.01780
4904.62234	0.01782
4902.69366	0.01784
4900.76499	0.01786
4898.83631	0.01788
4896.90763	0.01790
4894.97896	0.01794
4893.05028	0.01799
4891.12161	0.01802
4889.19293	0.01805
4887.26426	0.01808
4885.33558	0.01811
4883.40690	0.01815
4881.47823	0.01819
4879.54955	0.01822
4877.62088	0.01824
4875.69220	0.01827
4873.76353	0.01831
4871.83485	0.01836
4869.90617	0.01839
4867.97750	0.01842
4866.04882	0.01843
4864.12015	0.01843
4862.19147	0.01845
4860.26280	0.01850
4858.33412	0.01854
4856.40544	0.01857
4854.47677	0.01859
4852.54809	0.01861
4850.61942	0.01862
4848.69074	0.01864
4846.76207	0.01868
4844.83339	0.01871
4842.90471	0.01873
4840.97604	0.01876
4839.04736	0.01880
4837.11869	0.01883
4835.19001	0.01885
4833.26134	0.01888
4831.33266	0.01891
4829.40398	0.01896
4827.47531	0.01901
4825.54663	0.01906
4823.61796	0.01909
4821.68928	0.01912
4819.76061	0.01915
4817.83193	0.01919
4815.90325	0.01920
4813.97458	0.01922
4812.04590	0.01925
4810.11723	0.01929
4808.18855	0.01931
4806.25988	0.01932
4804.33120	0.01935
4802.40252	0.01941
4800.47385	0.01946
4798.54517	0.01949
4796.61650	0.01953
4794.68782	0.01958
4792.75915	0.01960
4790.83047	0.01961
4788.90179	0.01962
4786.97312	0.01966
4785.04444	0.01969
4783.11577	0.01972
4781.18709	0.01974
4779.25842	0.01978
4777.32974	0.01980
4775.40106	0.01980
4773.47239	0.01983
4771.54371	0.01988
4769.61504	0.01993
4767.68636	0.01997
4765.75769	0.02000
4763.82901	0.02003
4761.90033	0.02005
4759.97166	0.02008
4758.04298	0.02011
4756.11431	0.02015
4754.18563	0.02018
4752.25696	0.02019
4750.32828	0.02022
4748.39960	0.02027
4746.47093	0.02033
4744.54225	0.02038
4742.61358	0.02041
4740.68490	0.02041
4738.75623	0.02043
4736.82755	0.02046
4734.89887	0.02048
4732.97020	0.02050
4731.04152	0.02052
4729.11285	0.02055
4727.18417	0.02060
4725.25550	0.02065
4723.32682	0.02069
4721.39814	0.02072
4719.46947	0.02076
4717.54079	0.02079
4715.61212	0.02082
4713.68344	0.02087
4711.75477	0.02092
4709.82609	0.02094
4707.89741	0.02095
4705.96874	0.02096
4704.04006	0.02099
4702.11139	0.02104
4700.18271	0.02111
4698.25404	0.02117
4696.32536	0.02120
4694.39668	0.02120
4692.46801	0.02121
4690.53933	0.02124
4688.61066	0.02128
4686.68198	0.02132
4684.75331	0.02136
4682.82463	0.02141
4680.89595	0.02146
4678.96728	0.02151
4677.03860	0.02153
4675.10993	0.02152
4673.18125	0.02154
4671.25258	0.02158
4669.32390	0.02163
4667.39522	0.02167
4665.46655	0.02170
4663.53787	0.02173
4661.60920	0.02176
4659.68052	0.02178
4657.75185	0.02182
4655.82317	0.02186
4653.89449	0.02190
4651.96582	0.02194
4650.03714	0.02198
4648.10847	0.02201
4646.17979	0.02202
4644.25112	0.02206
4642.32244	0.02211
4640.39376	0.02215
4638.46509	0.02219
4636.53641	0.02223
4634.60774	0.02227
4632.67906	0.02232
4630.75039	0.02236
4628.82171	0.02240
4626.89303	0.02244
4624.96436	0.02247
4623.03568	0.02250
4621.10701	0.02252
4619.17833	0.02254
4617.24966	0.02258
4615.32098	0.02264
4613.39230	0.02268
4611.46363	0.02269
4609.53495	0.02272
4607.60628	0.02276
4605.67760	0.02280
4603.74893	0.02284
4601.82025	0.02288
4599.89157	0.02291
4597.96290	0.02294
4596.03422	0.02299
4594.10555	0.02304
4592.17687	0.02307
4590.24820	0.02312
4588.31952	0.02318
4586.39084	0.02322
4584.46217	0.02325
4582.53349	0.02328
4580.60482	0.02333
4578.67614	0.02337
4576.74747	0.02340
4574.81879	0.02342
4572.89011	0.02345
4570.96144	0.02350
4569.03276	0.02354
4567.10409	0.02360
4565.17541	0.02367
4563.24674	0.02373
4561.31806	0.02376
4559.38938	0.02376
4557.46071	0.02376
4555.53203	0.02379
4553.60336	0.02384
4551.67468	0.02389
4549.74601	0.02392
4547.81733	0.02395
4545.88865	0.02399
4543.95998	0.02404
4542.03130	0.02408
4540.10263	0.02412
4538.17395	0.02415
4536.24528	0.02419
4534.31660	0.02424
4532.38792	0.02428
4530.45925	0.02432
4528.53057	0.02436
4526.60190	0.02439
4524.67322	0.02441
4522.74455	0.02444
4520.81587	0.02447
4518.88719	0.02453
4516.95852	0.02460
4515.02984	0.02466
4513.10117	0.02469
4511.17249	0.02472
4509.24382	0.02476
4507.31514	0.02482
4505.38646	0.02488
4503.45779	0.02493
4501.52911	0.02495
4499.60044	0.02497
4497.67176	0.02500
4495.74309	0.02506
4493.81441	0.02510
4491.88573	0.02512
4489.95706	0.02517
4488.02838	0.02522
4486.09971	0.02527
4484.17103	0.02533
4482.24236	0.02539
4480.31368	0.02545
4478.38500	0.02547
4476.45633	0.02548
4474.52765	0.02551
4472.59898	0.02554
4470.67030	0.02558
4468.74163	0.02563
4466.81295	0.02567
4464.88427	0.02573
4462.95560	0.02578
4461.02692	0.02582
4459.09825	0.02587
4457.16957	0.02591
4455.24090	0.02595
4453.31222	0.02600
4451.38354	0.02606
4449.45487	0.02611
4447.52619	0.02616
4445.59752	0.02621
4443.66884	0.02625
4441.74017	0.02628
4439.81149	0.02632
4437.88281	0.02638
4435.95414	0.02645
4434.02546	0.02650
4432.09679	0.02652
4430.16811	0.02654
4428.23944	0.02657
4426.31076	0.02660
4424.38208	0.02662
4422.45341	0.02668
4420.52473	0.02677
4418.59606	0.02685
4416.66738	0.02689
4414.73871	0.02692
4412.81003	0.02696
4410.88135	0.02698
4408.95268	0.02701
4407.02400	0.02707
4405.09533	0.02714
4403.16665	0.02720
4401.23798	0.02725
4399.30930	0.02731
4397.38062	0.02735
4395.45195	0.02739
4393.52327	0.02743
4391.59460	0.02748
4389.66592	0.02753
4387.73725	0.02756
4385.80857	0.02759
4383.87989	0.02764
4381.95122	0.02771
4380.02254	0.02775
4378.09387	0.02777
4376.16519	0.02781
4374.23652	0.02787
4372.30784	0.02793
4370.37916	0.02799
4368.45049	0.02806
4366.52181	0.02811
4364.59314	0.02815
4362.66446	0.02820
4360.73579	0.02824
4358.80711	0.02829
4356.87843	0.02834
4354.94976	0.02838
4353.02108	0.02845
4351.09241	0.02852
4349.16373	0.02857
4347.23506	0.02860
4345.30638	0.02863
4343.37770	0.02867
4341.44903	0.02871
4339.52035	0.02877
4337.59168	0.02885
4335.66300	0.02892
4333.73433	0.02898
4331.80565	0.02903
4329.87697	0.02908
4327.94830	0.02911
4326.01962	0.02914
4324.09095	0.02921
4322.16227	0.02927
4320.23360	0.02935
4318.30492	0.02942
4316.37624	0.02946
4314.44757	0.02950
4312.51889	0.02953
4310.59022	0.02957
4308.66154	0.02961
4306.73287	0.02966
4304.80419	0.02970
4302.87551	0.02976
4300.94684	0.02983
4299.01816	0.02990
4297.08949	0.02996
4295.16081	0.03001
4293.23214	0.03007
4291.30346	0.03015
4289.37478	0.03022
4287.44611	0.03026
4285.51743	0.03030
4283.58876	0.03038
4281.66008	0.03045
4279.73141	0.03050
4277.80273	0.03054
4275.87405	0.03059
4273.94538	0.03065
4272.01670	0.03072
4270.08803	0.03078
4268.15935	0.03082
4266.23068	0.03085
4264.30200	0.03089
4262.37332	0.03094
4260.44465	0.03101
4258.51597	0.03108
4256.58730	0.03113
4254.65862	0.03117
4252.72995	0.03120
4250.80127	0.03125
4248.87259	0.03130
4246.94392	0.03137
4245.01524	0.03144
4243.08657	0.03151
4241.15789	0.03158
4239.22922	0.03164
4237.30054	0.03169
4235.37186	0.03172
4233.44319	0.03176
4231.51451	0.03183
4229.58584	0.03191
4227.65716	0.03199
4225.72849	0.03207
4223.79981	0.03212
4221.87113	0.03214
4219.94246	0.03217
4218.01378	0.03224
4216.08511	0.03231
4214.15643	0.03238
4212.22776	0.03245
4210.29908	0.03252
4208.37040	0.03257
4206.44173	0.03261
4204.51305	0.03268
4202.58438	0.03277
4200.65570	0.03284
4198.72703	0.03288
4196.79835	0.03292
4194.86968	0.03298
4192.94100	0.03304
4191.01232	0.03310
4189.08365	0.03317
4187.15497	0.03325
4185.22630	0.03332
4183.29762	0.03338
4181.36895	0.03343
4179.44027	0.03347
4177.51159	0.03353
4175.58292	0.03360
4173.65424	0.03365
4171.72557	0.03372
4169.79689	0.03380
4167.86822	0.03387
4165.93954	0.03393
4164.01086	0.03399
4162.08219	0.03404
4160.15351	0.03408
4158.22484	0.03412
4156.29616	0.03418
4154.36749	0.03426
4152.43881	0.03432
4150.51013	0.03438
4148.58146	0.03445
4146.65278	0.03452
4144.72411	0.03460
4142.79543	0.03467
4140.86676	0.03472
4138.93808	0.03477
4137.00940	0.03485
4135.08073	0.03493
4133.15205	0.03500
4131.22338	0.03509
4129.29470	0.03516
4127.36603	0.03519
4125.43735	0.03522
4123.50867	0.03527
4121.58000	0.03533
4119.65132	0.03539
4117.72265	0.03549
4115.79397	0.03560
4113.86530	0.03568
4111.93662	0.03573
4110.00794	0.03578
4108.07927	0.03583
4106.15059	0.03589
4104.22192	0.03597
4102.29324	0.03607
4100.36457	0.03615
4098.43589	0.03621
4096.50721	0.03626
4094.57854	0.03632
4092.64986	0.03639
4090.72119	0.03645
4088.79251	0.03650
4086.86384	0.03658
4084.93516	0.03666
4083.00648	0.03673
4081.07781	0.03679
4079.14913	0.03687
4077.22046	0.03695
4075.29178	0.03701
4073.36311	0.03705
4071.43443	0.03710
4069.50575	0.03719
4067.57708	0.03732
4065.64840	0.03742
4063.71973	0.03747
4061.79105	0.03750
4059.86238	0.03756
4057.93370	0.03763
4056.00502	0.03771
4054.07635	0.03780
4052.14767	0.03788
4050.21900	0.03796
4048.29032	0.03803
4046.36165	0.03810
4044.43297	0.03816
4042.50429	0.03822
4040.57562	0.03828
4038.64694	0.03836
4036.71827	0.03842
4034.78959	0.03848
4032.86092	0.03855
4030.93224	0.03864
4029.00356	0.03873
4027.07489	0.03879
4025.14621	0.03884
4023.21754	0.03891
4021.28886	0.03899
4019.36019	0.03909
4017.43151	0.03916
4015.50283	0.03921
4013.57416	0.03926
4011.64548	0.03933
4009.71681	0.03943
4007.78813	0.03951
4005.85946	0.03957
4003.93078	0.03966
4002.00210	0.03977
4000.07343	0.03985
3998.14475	0.03991
3996.21608	0.03996
3994.28740	0.04003
3992.35873	0.04011
3990.43005	0.04020
3988.50137	0.04027
3986.57270	0.04033
3984.64402	0.04039
3982.71535	0.04047
3980.78667	0.04054
3978.85800	0.04062
3976.92932	0.04071
3975.00064	0.04079
3973.07197	0.04087
3971.14329	0.04095
3969.21462	0.04103
3967.28594	0.04111
3965.35727	0.04119
3963.42859	0.04125
3961.49991	0.04130
3959.57124	0.04138
3957.64256	0.04146
3955.71389	0.04152
3953.78521	0.04158
3951.85654	0.04166
3949.92786	0.04172
3947.99918	0.04177
3946.07051	0.04183
3944.14183	0.04190
3942.21316	0.04199
3940.28448	0.04212
3938.35581	0.04224
3936.42713	0.04232
3934.49845	0.04235
3932.56978	0.04238
3930.64110	0.04246
3928.71243	0.04255
3926.78375	0.04261
3924.85508	0.04267
3922.92640	0.04275
3920.99772	0.04283
3919.06905	0.04288
3917.14037	0.04297
3915.21170	0.04312
3913.28302	0.04327
3911.35435	0.04337
3909.42567	0.04343
3907.49699	0.04344
3905.56832	0.04339
3903.63964	0.04335
3901.71097	0.04340
3899.78229	0.04356
3897.85362	0.04377
3895.92494	0.04393
3893.99626	0.04398
3892.06759	0.04399
3890.13891	0.04406
3888.21024	0.04413
3886.28156	0.04417
3884.35289	0.04427
3882.42421	0.04440
3880.49553	0.04449
3878.56686	0.04460
3876.63818	0.04470
3874.70951	0.04475
3872.78083	0.04479
3870.85216	0.04485
3868.92348	0.04494
3866.99480	0.04502
3865.06613	0.04506
3863.13745	0.04516
3861.20878	0.04532
3859.28010	0.04544
3857.35143	0.04540
3855.42275	0.04522
3853.49407	0.04516
3851.56540	0.04543
3849.63672	0.04582
3847.70805	0.04606
3845.77937	0.04613
3843.85070	0.04613
3841.92202	0.04614
3839.99334	0.04614
3838.06467	0.04617
3836.13599	0.04630
3834.20732	0.04649
3832.27864	0.04666
3830.34997	0.04678
3828.42129	0.04686
3826.49261	0.04693
3824.56394	0.04697
3822.63526	0.04695
3820.70659	0.04698
3818.77791	0.04711
3816.84924	0.04722
3814.92056	0.04738
3812.99188	0.04759
3811.06321	0.04772
3809.13453	0.04772
3807.20586	0.04771
3805.27718	0.04777
3803.34851	0.04782
3801.41983	0.04789
3799.49115	0.04803
3797.56248	0.04817
3795.63380	0.04831
3793.70513	0.04850
3791.77645	0.04864
3789.84778	0.04871
3787.91910	0.04877
3785.99042	0.04882
3784.06175	0.04890
3782.13307	0.04899
3780.20440	0.04908
3778.27572	0.04919
3776.34705	0.04934
3774.41837	0.04945
3772.48969	0.04944
3770.56102	0.04942
3768.63234	0.04949
3766.70367	0.04963
3764.77499	0.04977
3762.84632	0.04989
3760.91764	0.04994
3758.98896	0.04996
3757.06029	0.05003
3755.13161	0.05006
3753.20294	0.05001
3751.27426	0.05003
3749.34559	0.05016
3747.41691	0.05017
3745.48823	0.05006
3743.55956	0.05018
3741.63088	0.05055
3739.70221	0.05076
3737.77353	0.05071
3735.84486	0.05068
3733.91618	0.05081
3731.98750	0.05104
3730.05883	0.05128
3728.13015	0.05143
3726.20148	0.05151
3724.27280	0.05161
3722.34413	0.05172
3720.41545	0.05183
3718.48677	0.05195
3716.55810	0.05205
3714.62942	0.05206
3712.70075	0.05202
3710.77207	0.05206
3708.84340	0.05226
3706.91472	0.05249
3704.98604	0.05262
3703.05737	0.05264
3701.12869	0.05271
3699.20002	0.05285
3697.27134	0.05299
3695.34267	0.05306
3693.41399	0.05303
3691.48531	0.05297
3689.55664	0.05304
3687.62796	0.05327
3685.69929	0.05350
3683.77061	0.05365
3681.84194	0.05371
3679.91326	0.05369
3677.98458	0.05358
3676.05591	0.05354
3674.12723	0.05371
3672.19856	0.05390
3670.26988	0.05397
3668.34121	0.05410
3666.41253	0.05435
3664.48385	0.05455
3662.55518	0.05467
3660.62650	0.05474
3658.69783	0.05473
3656.76915	0.05471
3654.84048	0.05476
3652.91180	0.05472
3650.98312	0.05452
3649.05445	0.05441
3647.12577	0.05456
3645.19710	0.05490
3643.26842	0.05522
3641.33975	0.05542
3639.41107	0.05551
3637.48239	0.05557
3635.55372	0.05562
3633.62504	0.05566
3631.69637	0.05561
3629.76769	0.05554
3627.83902	0.05566
3625.91034	0.05592
3623.98166	0.05607
3622.05299	0.05602
3620.12431	0.05593
3618.19564	0.05601
3616.26696	0.05618
3614.33829	0.05627
3612.40961	0.05631
3610.48093	0.05636
3608.55226	0.05646
3606.62358	0.05663
3604.69491	0.05679
3602.76623	0.05688
3600.83756	0.05692
3598.90888	0.05698
3596.98020	0.05704
3595.05153	0.05710
3593.12285	0.05717
3591.19418	0.05718
3589.26550	0.05712
3587.33683	0.05716
3585.40815	0.05735
3583.47947	0.05756
3581.55080	0.05767
3579.62212	0.05773
3577.69345	0.05781
3575.76477	0.05791
3573.83610	0.05798
3571.90742	0.05802
3569.97874	0.05800
3568.05007	0.05795
3566.12139	0.05802
3564.19272	0.05820
3562.26404	0.05838
3560.33537	0.05850
3558.40669	0.05861
3556.47801	0.05869
3554.54934	0.05874
3552.62066	0.05877
3550.69199	0.05881
3548.76331	0.05883
3546.83464	0.05887
3544.90596	0.05897
3542.97728	0.05910
3541.04861	0.05920
3539.11993	0.05926
3537.19126	0.05931
3535.26258	0.05936
3533.33391	0.05941
3531.40523	0.05942
3529.47655	0.05945
3527.54788	0.05948
3525.61920	0.05949
3523.69053	0.05952
3521.76185	0.05961
3519.83318	0.05970
3517.90450	0.05973
3515.97582	0.05975
3514.04715	0.05980
3512.11847	0.05986
3510.18980	0.05991
3508.26112	0.05996
3506.33245	0.05997
3504.40377	0.05995
3502.47509	0.05994
3500.54642	0.05999
3498.61774	0.06003
3496.68907	0.06006
3494.76039	0.06011
3492.83172	0.06015
3490.90304	0.06017
3488.97436	0.06017
3487.04569	0.06020
3485.11701	0.06026
3483.18834	0.06032
3481.25966	0.06038
3479.33099	0.06045
3477.40231	0.06052
3475.47363	0.06056
3473.54496	0.06060
3471.61628	0.06067
3469.68761	0.06077
3467.75893	0.06088
3465.83026	0.06098
3463.90158	0.06108
3461.97290	0.06119
3460.04423	0.06128
3458.11555	0.06137
3456.18688	0.06148
3454.25820	0.06159
3452.32953	0.06168
3450.40085	0.06176
3448.47217	0.06185
3446.54350	0.06194
3444.61482	0.06204
3442.68615	0.06214
3440.75747	0.06226
3438.82880	0.06240
3436.90012	0.06256
3434.97144	0.06274
3433.04277	0.06295
3431.11409	0.06314
3429.18542	0.06331
3427.25674	0.06351
3425.32807	0.06374
3423.39939	0.06396
3421.47071	0.06412
3419.54204	0.06427
3417.61336	0.06444
3415.68469	0.06462
3413.75601	0.06479
3411.82734	0.06494
3409.89866	0.06508
3407.96998	0.06521
3406.04131	0.06531
3404.11263	0.06544
3402.18396	0.06559
3400.25528	0.06572
3398.32661	0.06585
3396.39793	0.06599
3394.46925	0.06613
3392.54058	0.06626
3390.61190	0.06638
3388.68323	0.06651
3386.75455	0.06663
3384.82588	0.06675
3382.89720	0.06690
3380.96852	0.06706
3379.03985	0.06720
3377.11117	0.06733
3375.18250	0.06748
3373.25382	0.06764
3371.32515	0.06776
3369.39647	0.06783
3367.46779	0.06789
3365.53912	0.06797
3363.61044	0.06809
3361.68177	0.06822
3359.75309	0.06836
3357.82442	0.06852
3355.89574	0.06867
3353.96706	0.06877
3352.03839	0.06886
3350.10971	0.06896
3348.18104	0.06909
3346.25236	0.06921
3344.32369	0.06934
3342.39501	0.06951
3340.46633	0.06967
3338.53766	0.06980
3336.60898	0.06991
3334.68031	0.07002
3332.75163	0.07014
3330.82296	0.07027
3328.89428	0.07038
3326.96560	0.07049
3325.03693	0.07061
3323.10825	0.07072
3321.17958	0.07083
3319.25090	0.07096
3317.32223	0.07109
3315.39355	0.07122
3313.46487	0.07135
3311.53620	0.07148
3309.60752	0.07159
3307.67885	0.07172
3305.75017	0.07186
3303.82150	0.07200
3301.89282	0.07214
3299.96414	0.07227
3298.03547	0.07240
3296.10679	0.07255
3294.17812	0.07271
3292.24944	0.07284
3290.32077	0.07293
3288.39209	0.07303
3286.46341	0.07314
3284.53474	0.07328
3282.60606	0.07343
3280.67739	0.07358
3278.74871	0.07372
3276.82004	0.07384
3274.89136	0.07397
3272.96268	0.07411
3271.03401	0.07425
3269.10533	0.07439
3267.17666	0.07453
3265.24798	0.07466
3263.31931	0.07478
3261.39063	0.07489
3259.46195	0.07501
3257.53328	0.07515
3255.60460	0.07527
3253.67593	0.07540
3251.74725	0.07555
3249.81858	0.07570
3247.88990	0.07586
3245.96122	0.07601
3244.03255	0.07613
3242.10387	0.07626
3240.17520	0.07640
3238.24652	0.07655
3236.31785	0.07669
3234.38917	0.07682
3232.46049	0.07694
3230.53182	0.07706
3228.60314	0.07717
3226.67447	0.07728
3224.74579	0.07743
3222.81712	0.07760
3220.88844	0.07776
3218.95976	0.07790
3217.03109	0.07802
3215.10241	0.07813
3213.17374	0.07824
3211.24506	0.07840
3209.31639	0.07856
3207.38771	0.07870
3205.45903	0.07882
3203.53036	0.07894
3201.60168	0.07909
3199.67301	0.07925
3197.74433	0.07939
3195.81566	0.07953
3193.88698	0.07966
3191.95830	0.07981
3190.02963	0.07997
3188.10095	0.08010
3186.17228	0.08021
3184.24360	0.08033
3182.31493	0.08048
3180.38625	0.08065
3178.45757	0.08082
3176.52890	0.08099
3174.60022	0.08114
3172.67155	0.08129
3170.74287	0.08143
3168.81420	0.08154
3166.88552	0.08166
3164.95684	0.08181
3163.02817	0.08198
3161.09949	0.08213
3159.17082	0.08226
3157.24214	0.08239
3155.31347	0.08253
3153.38479	0.08268
3151.45611	0.08282
3149.52744	0.08294
3147.59876	0.08306
3145.67009	0.08321
3143.74141	0.08336
3141.81274	0.08351
3139.88406	0.08365
3137.95538	0.08378
3136.02671	0.08391
3134.09803	0.08405
3132.16936	0.08419
3130.24068	0.08432
3128.31201	0.08446
3126.38333	0.08459
3124.45465	0.08475
3122.52598	0.08491
3120.59730	0.08504
3118.66863	0.08515
3116.73995	0.08526
3114.81128	0.08538
3112.88260	0.08554
3110.95392	0.08569
3109.02525	0.08584
3107.09657	0.08598
3105.16790	0.08611
3103.23922	0.08622
3101.31055	0.08634
3099.38187	0.08650
3097.45319	0.08665
3095.52452	0.08677
3093.59584	0.08691
3091.66717	0.08708
3089.73849	0.08725
3087.80982	0.08737
3085.88114	0.08748
3083.95246	0.08762
3082.02379	0.08778
3080.09511	0.08790
3078.16644	0.08802
3076.23776	0.08815
3074.30909	0.08826
3072.38041	0.08838
3070.45173	0.08852
3068.52306	0.08871
3066.59438	0.08888
3064.66571	0.08902
3062.73703	0.08913
3060.80836	0.08926
3058.87968	0.08941
3056.95100	0.08957
3055.02233	0.08974
3053.09365	0.08988
3051.16498	0.09001
3049.23630	0.09013
3047.30763	0.09027
3045.37895	0.09041
3043.45027	0.09055
3041.52160	0.09069
3039.59292	0.09083
3037.66425	0.09093
3035.73557	0.09103
3033.80690	0.09117
3031.87822	0.09133
3029.94954	0.09147
3028.02087	0.09162
3026.09219	0.09177
3024.16352	0.09191
3022.23484	0.09204
3020.30617	0.09216
3018.37749	0.09225
3016.44881	0.09237
3014.52014	0.09255
3012.59146	0.09275
3010.66279	0.09292
3008.73411	0.09308
3006.80544	0.09319
3004.87676	0.09325
3002.94808	0.09334
3001.01941	0.09349
2999.09073	0.09366
2997.16206	0.09381
2995.23338	0.09393
2993.30471	0.09405
2991.37603	0.09419
2989.44735	0.09431
2987.51868	0.09440
2985.59000	0.09450
2983.66133	0.09462
2981.73265	0.09472
2979.80398	0.09477
2977.87530	0.09479
2975.94662	0.09481
2974.01795	0.09482
2972.08927	0.09481
2970.16060	0.09479
2968.23192	0.09477
2966.30325	0.09477
2964.37457	0.09482
2962.44589	0.09490
2960.51722	0.09502
2958.58854	0.09517
2956.65987	0.09535
2954.73119	0.09556
2952.80252	0.09575
2950.87384	0.09591
2948.94516	0.09606
2947.01649	0.09619
2945.08781	0.09627
2943.15914	0.09633
2941.23046	0.09639
2939.30179	0.09643
2937.37311	0.09642
2935.44443	0.09637
2933.51576	0.09634
2931.58708	0.09631
2929.65841	0.09627
2927.72973	0.09623
2925.80106	0.09622
2923.87238	0.09621
2921.94370	0.09624
2920.01503	0.09631
2918.08635	0.09644
2916.15768	0.09672
2914.22900	0.09717
2912.30033	0.09766
2910.37165	0.09809
2908.44297	0.09843
2906.51430	0.09873
2904.58562	0.09903
2902.65695	0.09932
2900.72827	0.09954
2898.79960	0.09974
2896.87092	0.09994
2894.94224	0.10014
2893.01357	0.10033
2891.08489	0.10052
2889.15622	0.10073
2887.22754	0.10092
2885.29887	0.10110
2883.37019	0.10129
2881.44151	0.10144
2879.51284	0.10156
2877.58416	0.10166
2875.65549	0.10175
2873.72681	0.10184
2871.79814	0.10197
2869.86946	0.10213
2867.94078	0.10226
2866.01211	0.10238
2864.08343	0.10249
2862.15476	0.10255
2860.22608	0.10256
2858.29741	0.10256
2856.36873	0.10256
2854.44005	0.10254
2852.51138	0.10252
2850.58270	0.10260
2848.65403	0.10288
2846.72535	0.10333
2844.79668	0.10382
2842.86800	0.10428
2840.93932	0.10465
2839.01065	0.10494
2837.08197	0.10517
2835.15330	0.10537
2833.22462	0.10554
2831.29595	0.10573
2829.36727	0.10590
2827.43859	0.10605
2825.50992	0.10621
2823.58124	0.10640
2821.65257	0.10659
2819.72389	0.10676
2817.79522	0.10691
2815.86654	0.10707
2813.93786	0.10723
2812.00919	0.10736
2810.08051	0.10748
2808.15184	0.10764
2806.22316	0.10786
2804.29449	0.10806
2802.36581	0.10821
2800.43713	0.10832
2798.50846	0.10844
2796.57978	0.10859
2794.65111	0.10876
2792.72243	0.10891
2790.79376	0.10908
2788.86508	0.10925
2786.93640	0.10942
2785.00773	0.10958
2783.07905	0.10974
2781.15038	0.10990
2779.22170	0.11005
2777.29303	0.11019
2775.36435	0.11034
2773.43567	0.11048
2771.50700	0.11061
2769.57832	0.11073
2767.64965	0.11088
2765.72097	0.11104
2763.79230	0.11119
2761.86362	0.11132
2759.93494	0.11146
2758.00627	0.11160
2756.07759	0.11173
2754.14892	0.11185
2752.22024	0.11199
2750.29157	0.11215
2748.36289	0.11234
2746.43421	0.11253
2744.50554	0.11268
2742.57686	0.11281
2740.64819	0.11293
2738.71951	0.11309
2736.79084	0.11325
2734.86216	0.11339
2732.93348	0.11351
2731.00481	0.11365
2729.07613	0.11381
2727.14746	0.11395
2725.21878	0.11409
2723.29011	0.11421
2721.36143	0.11435
2719.43275	0.11451
2717.50408	0.11467
2715.57540	0.11479
2713.64673	0.11489
2711.71805	0.11503
2709.78938	0.11520
2707.86070	0.11539
2705.93202	0.11556
2704.00335	0.11571
2702.07467	0.11584
2700.14600	0.11597
2698.21732	0.11609
2696.28865	0.11620
2694.35997	0.11634
2692.43129	0.11650
2690.50262	0.11665
2688.57394	0.11679
2686.64527	0.11694
2684.71659	0.11709
2682.78792	0.11723
2680.85924	0.11737
2678.93056	0.11751
2677.00189	0.11767
2675.07321	0.11781
2673.14454	0.11794
2671.21586	0.11809
2669.28719	0.11827
2667.35851	0.11845
2665.42983	0.11862
2663.50116	0.11875
2661.57248	0.11887
2659.64381	0.11900
2657.71513	0.11915
2655.78646	0.11932
2653.85778	0.11947
2651.92910	0.11963
2650.00043	0.11980
2648.07175	0.11996
2646.14308	0.12008
2644.21440	0.12022
2642.28573	0.12039
2640.35705	0.12056
2638.42837	0.12073
2636.49970	0.12089
2634.57102	0.12104
2632.64235	0.12118
2630.71367	0.12132
2628.78500	0.12143
2626.85632	0.12155
2624.92764	0.12172
2622.99897	0.12194
2621.07029	0.12214
2619.14162	0.12229
2617.21294	0.12246
2615.28427	0.12264
2613.35559	0.12281
2611.42691	0.12296
2609.49824	0.12310
2607.56956	0.12324
2605.64089	0.12342
2603.71221	0.12360
2601.78354	0.12374
2599.85486	0.12384
2597.92618	0.12395
2595.99751	0.12409
2594.06883	0.12426
2592.14016	0.12444
2590.21148	0.12463
2588.28281	0.12478
2586.35413	0.12493
2584.42545	0.12508
2582.49678	0.12521
2580.56810	0.12533
2578.63943	0.12547
2576.71075	0.12563
2574.78208	0.12582
2572.85340	0.12599
2570.92472	0.12613
2568.99605	0.12624
2567.06737	0.12635
2565.13870	0.12651
2563.21002	0.12671
2561.28135	0.12689
2559.35267	0.12702
2557.42399	0.12713
2555.49532	0.12725
2553.56664	0.12738
2551.63797	0.12751
2549.70929	0.12767
2547.78062	0.12784
2545.85194	0.12799
2543.92326	0.12812
2541.99459	0.12826
2540.06591	0.12838
2538.13724	0.12852
2536.20856	0.12868
2534.27989	0.12886
2532.35121	0.12905
2530.42253	0.12923
2528.49386	0.12941
2526.56518	0.12955
2524.63651	0.12966
2522.70783	0.12978
2520.77916	0.12990
2518.85048	0.13003
2516.92181	0.13018
2514.99313	0.13033
2513.06445	0.13052
2511.13578	0.13074
2509.20710	0.13094
2507.27843	0.13111
2505.34975	0.13127
2503.42108	0.13141
2501.49240	0.13156
2499.56372	0.13174
2497.63505	0.13192
2495.70637	0.13210
2493.77770	0.13231
2491.84902	0.13248
2489.92035	0.13263
2487.99167	0.13278
2486.06299	0.13295
2484.13432	0.13311
2482.20564	0.13328
2480.27697	0.13345
2478.34829	0.13362
2476.41962	0.13377
2474.49094	0.13390
2472.56226	0.13403
2470.63359	0.13420
2468.70491	0.13439
2466.77624	0.13456
2464.84756	0.13472
2462.91889	0.13487
2460.99021	0.13503
2459.06153	0.13518
2457.13286	0.13535
2455.20418	0.13554
2453.27551	0.13571
2451.34683	0.13586
2449.41816	0.13602
2447.48948	0.13620
2445.56080	0.13636
2443.63213	0.13650
2441.70345	0.13662
2439.77478	0.13678
2437.84610	0.13696
2435.91743	0.13710
2433.98875	0.13724
2432.06007	0.13738
2430.13140	0.13754
2428.20272	0.13773
2426.27405	0.13792
2424.34537	0.13807
2422.41670	0.13823
2420.48802	0.13842
2418.55934	0.13858
2416.63067	0.13872
2414.70199	0.13888
2412.77332	0.13901
2410.84464	0.13912
2408.91597	0.13926
2406.98729	0.13945
2405.05861	0.13966
2403.12994	0.13985
2401.20126	0.13999
2399.27259	0.14011
2397.34391	0.14025
2395.41524	0.14041
2393.48656	0.14059
2391.55788	0.14075
2389.62921	0.14088
2387.70053	0.14103
2385.77186	0.14119
2383.84318	0.14133
2381.91451	0.14142
2379.98583	0.14150
2378.05715	0.14156
2376.12848	0.14158
2374.19980	0.14158
2372.27113	0.14160
2370.34245	0.14167
2368.41378	0.14176
2366.48510	0.14186
2364.55642	0.14195
2362.62775	0.14205
2360.69907	0.14217
2358.77040	0.14233
2356.84172	0.14260
2354.91305	0.14293
2352.98437	0.14326
2351.05569	0.14357
2349.12702	0.14382
2347.19834	0.14397
2345.26967	0.14398
2343.34099	0.14397
2341.41232	0.14400
2339.48364	0.14412
2337.55496	0.14429
2335.62629	0.14448
2333.69761	0.14468
2331.76894	0.14488
2329.84026	0.14509
2327.91159	0.14529
2325.98291	0.14546
2324.05423	0.14565
2322.12556	0.14585
2320.19688	0.14608
2318.26821	0.14630
2316.33953	0.14651
2314.41086	0.14672
2312.48218	0.14693
2310.55350	0.14715
2308.62483	0.14737
2306.69615	0.14760
2304.76748	0.14778
2302.83880	0.14796
2300.91013	0.14816
2298.98145	0.14835
2297.05277	0.14850
2295.12410	0.14862
2293.19542	0.14877
2291.26675	0.14894
2289.33807	0.14912
2287.40940	0.14928
2285.48072	0.14943
2283.55204	0.14959
2281.62337	0.14979
2279.69469	0.14997
2277.76602	0.15011
2275.83734	0.15024
2273.90867	0.15040
2271.97999	0.15057
2270.05131	0.15073
2268.12264	0.15086
2266.19396	0.15101
2264.26529	0.15118
2262.33661	0.15135
2260.40794	0.15152
2258.47926	0.15169
2256.55058	0.15185
2254.62191	0.15200
2252.69323	0.15216
2250.76456	0.15231
2248.83588	0.15245
2246.90721	0.15262
2244.97853	0.15282
2243.04985	0.15302
2241.12118	0.15317
2239.19250	0.15327
2237.26383	0.15337
2235.33515	0.15352
2233.40648	0.15370
2231.47780	0.15389
2229.54912	0.15407
2227.62045	0.15424
2225.69177	0.15438
2223.76310	0.15451
2221.83442	0.15465
2219.90575	0.15482
2217.97707	0.15499
2216.04839	0.15515
2214.11972	0.15532
2212.19104	0.15548
2210.26237	0.15563
2208.33369	0.15577
2206.40502	0.15591
2204.47634	0.15602
2202.54766	0.15614
2200.61899	0.15628
2198.69031	0.15644
2196.76164	0.15660
2194.83296	0.15675
2192.90429	0.15694
2190.97561	0.15714
2189.04693	0.15731
2187.11826	0.15743
2185.18958	0.15757
2183.26091	0.15772
2181.33223	0.15788
2179.40356	0.15805
2177.47488	0.15823
2175.54620	0.15841
2173.61753	0.15858
2171.68885	0.15872
2169.76018	0.15887
2167.83150	0.15905
2165.90283	0.15921
2163.97415	0.15933
2162.04547	0.15946
2160.11680	0.15962
2158.18812	0.15982
2156.25945	0.16001
2154.33077	0.16016
2152.40210	0.16031
2150.47342	0.16048
2148.54474	0.16066
2146.61607	0.16082
2144.68739	0.16099
2142.75872	0.16117
2140.83004	0.16130
2138.90137	0.16140
2136.97269	0.16155
2135.04401	0.16175
2133.11534	0.16194
2131.18666	0.16209
2129.25799	0.16223
2127.32931	0.16236
2125.40064	0.16251
2123.47196	0.16267
2121.54328	0.16285
2119.61461	0.16300
2117.68593	0.16311
2115.75726	0.16324
2113.82858	0.16343
2111.89991	0.16361
2109.97123	0.16378
2108.04255	0.16397
2106.11388	0.16416
2104.18520	0.16433
2102.25653	0.16452
2100.32785	0.16471
2098.39918	0.16488
2096.47050	0.16500
2094.54182	0.16510
2092.61315	0.16521
2090.68447	0.16536
2088.75580	0.16555
2086.82712	0.16574
2084.89845	0.16586
2082.96977	0.16597
2081.04109	0.16615
2079.11242	0.16636
2077.18374	0.16655
2075.25507	0.16674
2073.32639	0.16692
2071.39772	0.16707
2069.46904	0.16716
2067.54036	0.16725
2065.61169	0.16740
2063.68301	0.16761
2061.75434	0.16783
2059.82566	0.16802
2057.89699	0.16820
2055.96831	0.16837
2054.03963	0.16854
2052.11096	0.16869
2050.18228	0.16882
2048.25361	0.16896
2046.32493	0.16911
2044.39626	0.16925
2042.46758	0.16943
2040.53890	0.16963
2038.61023	0.16978
2036.68155	0.16992
2034.75288	0.17010
2032.82420	0.17029
2030.89553	0.17046
2028.96685	0.17064
2027.03817	0.17084
2025.10950	0.17098
2023.18082	0.17112
2021.25215	0.17131
2019.32347	0.17150
2017.39480	0.17164
2015.46612	0.17178
2013.53744	0.17192
2011.60877	0.17205
2009.68009	0.17224
2007.75142	0.17247
2005.82274	0.17266
2003.89407	0.17282
2001.96539	0.17299
2000.03671	0.17316
1998.10804	0.17329
1996.17936	0.17339
1994.25069	0.17344
1992.32201	0.17349
1990.39334	0.17363
1988.46466	0.17388
1986.53598	0.17410
1984.60731	0.17426
1982.67863	0.17441
1980.74996	0.17457
1978.82128	0.17469
1976.89261	0.17480
1974.96393	0.17493
1973.03525	0.17508
1971.10658	0.17524
1969.17790	0.17539
1967.24923	0.17551
1965.32055	0.17566
1963.39188	0.17583
1961.46320	0.17599
1959.53452	0.17613
1957.60585	0.17626
1955.67717	0.17639
1953.74850	0.17655
1951.81982	0.17673
1949.89115	0.17690
1947.96247	0.17705
1946.03379	0.17714
1944.10512	0.17719
1942.17644	0.17733
1940.24777	0.17759
1938.31909	0.17784
1936.39042	0.17801
1934.46174	0.17816
1932.53306	0.17831
1930.60439	0.17849
1928.67571	0.17869
1926.74704	0.17888
1924.81836	0.17899
1922.88969	0.17905
1920.96101	0.17910
1919.03233	0.17918
1917.10366	0.17938
1915.17498	0.17971
1913.24631	0.17996
1911.31763	0.18006
1909.38896	0.18018
1907.46028	0.18039
1905.53160	0.18061
1903.60293	0.18077
1901.67425	0.18091
1899.74558	0.18104
1897.81690	0.18115
1895.88823	0.18127
1893.95955	0.18139
1892.03087	0.18141
1890.10220	0.18145
1888.17352	0.18171
1886.24485	0.18201
1884.31617	0.18220
1882.38750	0.18236
1880.45882	0.18254
1878.53014	0.18272
1876.60147	0.18289
1874.67279	0.18303
1872.74412	0.18309
1870.81544	0.18305
1868.88677	0.18305
1866.95809	0.18326
1865.02941	0.18362
1863.10074	0.18395
1861.17206	0.18418
1859.24339	0.18435
1857.31471	0.18449
1855.38604	0.18463
1853.45736	0.18479
1851.52868	0.18493
1849.60001	0.18500
1847.67133	0.18489
1845.74266	0.18462
1843.81398	0.18469
1841.88531	0.18531
1839.95663	0.18588
1838.02795	0.18609
1836.09928	0.18620
1834.17060	0.18631
1832.24193	0.18632
1830.31325	0.18627
1828.38458	0.18632
1826.45590	0.18640
1824.52722	0.18661
1822.59855	0.18703
1820.66987	0.18736
1818.74120	0.18750
1816.81252	0.18765
1814.88385	0.18782
1812.95517	0.18790
1811.02649	0.18795
1809.09782	0.18810
1807.16914	0.18833
1805.24047	0.18845
1803.31179	0.18837
1801.38312	0.18834
1799.45444	0.18855
1797.52576	0.18884
1795.59709	0.18896
1793.66841	0.18889
1791.73974	0.18890
1789.81106	0.18916
1787.88239	0.18946
1785.95371	0.18960
1784.02503	0.18971
1782.09636	0.18984
1780.16768	0.18994
1778.23901	0.19003
1776.31033	0.19002
1774.38166	0.18982
1772.45298	0.18960
1770.52430	0.18961
1768.59563	0.18991
1766.66695	0.19039
1764.73828	0.19075
1762.80960	0.19085
1760.88093	0.19090
1758.95225	0.19090
1757.02357	0.19086
1755.09490	0.19090
1753.16622	0.19080
1751.23755	0.19050
1749.30887	0.19039
1747.38020	0.19058
1745.45152	0.19081
1743.52284	0.19093
1741.59417	0.19093
1739.66549	0.19094
1737.73682	0.19090
1735.80814	0.19051
1733.87947	0.19015
1731.95079	0.19042
1730.02211	0.19102
1728.09344	0.19154
1726.16476	0.19185
1724.23609	0.19199
1722.30741	0.19198
1720.37874	0.19162
1718.45006	0.19117
1716.52138	0.19126
1714.59271	0.19181
1712.66403	0.19236
1710.73536	0.19269
1708.80668	0.19267
1706.87801	0.19252
1704.94933	0.19257
1703.02065	0.19257
1701.09198	0.19232
1699.16330	0.19220
1697.23463	0.19226
1695.30595	0.19252
1693.37728	0.19308
1691.44860	0.19345
1689.51992	0.19340
1687.59125	0.19311
1685.66257	0.19260
1683.73390	0.19236
1681.80522	0.19274
1679.87655	0.19326
1677.94787	0.19337
1676.01919	0.19322
1674.09052	0.19321
1672.16184	0.19321
1670.23317	0.19313
1668.30449	0.19338
1666.37582	0.19388
1664.44714	0.19409
1662.51846	0.19412
1660.58979	0.19425
1658.66111	0.19431
1656.73244	0.19380
1654.80376	0.19270
1652.87509	0.19227
1650.94641	0.19307
1649.01773	0.19376
1647.08906	0.19376
1645.16038	0.19393
1643.23171	0.19444
1641.30303	0.19473
1639.37436	0.19455
1637.44568	0.19421
1635.51700	0.19419
1633.58833	0.19464
1631.65965	0.19509
1629.73098	0.19515
1627.80230	0.19497
1625.87363	0.19466
1623.94495	0.19426
1622.01627	0.19402
1620.08760	0.19401
1618.15892	0.19424
1616.23025	0.19483
1614.30157	0.19558
1612.37290	0.19612
1610.44422	0.19637
1608.51554	0.19654
1606.58687	0.19679
1604.65819	0.19708
1602.72952	0.19735
1600.80084	0.19760
1598.87217	0.19780
1596.94349	0.19794
1595.01481	0.19807
1593.08614	0.19819
1591.15746	0.19834
1589.22879	0.19855
1587.30011	0.19879
1585.37144	0.19898
1583.44276	0.19915
1581.51408	0.19928
1579.58541	0.19922
1577.65673	0.19899
1575.72806	0.19902
1573.79938	0.19938
1571.87071	0.19941
1569.94203	0.19923
1568.01335	0.19944
1566.08468	0.19987
1564.15600	0.20017
1562.22733	0.20008
1560.29865	0.19937
1558.36998	0.19882
1556.44130	0.19924
1554.51262	0.20007
1552.58395	0.20056
1550.65527	0.20074
1548.72660	0.20096
1546.79792	0.20110
1544.86925	0.20077
1542.94057	0.20017
1541.01189	0.19990
1539.08322	0.20034
1537.15454	0.20115
1535.22587	0.20161
1533.29719	0.20172
1531.36852	0.20190
1529.43984	0.20202
1527.51116	0.20197
1525.58249	0.20190
1523.65381	0.20171
1521.72514	0.20149
1519.79646	0.20159
1517.86779	0.20187
1515.93911	0.20205
1514.01043	0.20215
1512.08176	0.20214
1510.15308	0.20188
1508.22441	0.20160
1506.29573	0.20189
1504.36706	0.20268
1502.43838	0.20322
1500.50970	0.20320
1498.58103	0.20287
1496.65235	0.20267
1494.72368	0.20288
1492.79500	0.20301
1490.86633	0.20269
1488.93765	0.20240
1487.00897	0.20254
1485.08030	0.20278
1483.15162	0.20278
1481.22295	0.20259
1479.29427	0.20236
1477.36560	0.20195
1475.43692	0.20130
1473.50824	0.20077
1471.57957	0.20067
1469.65089	0.20077
1467.72222	0.20064
1465.79354	0.20029
1463.86487	0.20007
1461.93619	0.19985
1460.00751	0.19927
1458.07884	0.19868
1456.15016	0.19872
1454.22149	0.19923
1452.29281	0.19960
1450.36414	0.19965
1448.43546	0.19958
1446.50678	0.19967
1444.57811	0.19988
1442.64943	0.20005
1440.72076	0.20008
1438.79208	0.19990
1436.86341	0.19974
1434.93473	0.20001
1433.00605	0.20047
1431.07738	0.20075
1429.14870	0.20091
1427.22003	0.20094
1425.29135	0.20084
1423.36268	0.20077
1421.43400	0.20062
1419.50532	0.20037
1417.57665	0.20048
1415.64797	0.20091
1413.71930	0.20122
1411.79062	0.20132
1409.86195	0.20131
1407.93327	0.20119
1406.00459	0.20102
1404.07592	0.20099
1402.14724	0.20107
1400.21857	0.20098
1398.28989	0.20076
1396.36122	0.20059
1394.43254	0.20059
1392.50386	0.20072
1390.57519	0.20069
1388.64651	0.20041
1386.71784	0.20008
1384.78916	0.19989
1382.86049	0.19985
1380.93181	0.19987
1379.00313	0.19988
1377.07446	0.19978
1375.14578	0.19962
1373.21711	0.19960
1371.28843	0.19974
1369.35976	0.19989
1367.43108	0.19996
1365.50240	0.19974
1363.57373	0.19936
1361.64505	0.19934
1359.71638	0.19967
1357.78770	0.19991
1355.85903	0.19997
1353.93035	0.20000
1352.00167	0.20006
1350.07300	0.20019
1348.14432	0.20036
1346.21565	0.20048
1344.28697	0.20045
1342.35830	0.20027
1340.42962	0.20007
1338.50094	0.20001
1336.57227	0.20004
1334.64359	0.20006
1332.71492	0.20000
1330.78624	0.19991
1328.85757	0.19982
1326.92889	0.19969
1325.00021	0.19951
1323.07154	0.19925
1321.14286	0.19897
1319.21419	0.19878
1317.28551	0.19870
1315.35684	0.19856
1313.42816	0.19834
1311.49948	0.19815
1309.57081	0.19798
1307.64213	0.19775
1305.71346	0.19749
1303.78478	0.19724
1301.85611	0.19705
1299.92743	0.19691
1297.99875	0.19671
1296.07008	0.19644
1294.14140	0.19622
1292.21273	0.19604
1290.28405	0.19583
1288.35538	0.19558
1286.42670	0.19538
1284.49802	0.19522
1282.56935	0.19505
1280.64067	0.19490
1278.71200	0.19468
1276.78332	0.19428
1274.85465	0.19377
1272.92597	0.19324
1270.99729	0.19262
1269.06862	0.19183
1267.13994	0.19090
1265.21127	0.18998
1263.28259	0.18932
1261.35392	0.18901
1259.42524	0.18900
1257.49656	0.18923
1255.56789	0.18951
1253.63921	0.18962
1251.71054	0.18949
1249.78186	0.18921
1247.85319	0.18888
1245.92451	0.18853
1243.99583	0.18815
1242.06716	0.18772
1240.13848	0.18727
1238.20981	0.18684
1236.28113	0.18636
1234.35246	0.18577
1232.42378	0.18514
1230.49510	0.18455
1228.56643	0.18397
1226.63775	0.18343
1224.70908	0.18295
1222.78040	0.18252
1220.85173	0.18209
1218.92305	0.18167
1216.99437	0.18121
1215.06570	0.18066
1213.13702	0.18005
1211.20835	0.17943
1209.27967	0.17887
1207.35100	0.17834
1205.42232	0.17780
1203.49364	0.17722
1201.56497	0.17662
1199.63629	0.17606
1197.70762	0.17552
1195.77894	0.17491
1193.85027	0.17423
1191.92159	0.17358
1189.99291	0.17293
1188.06424	0.17223
1186.13556	0.17145
1184.20689	0.17064
1182.27821	0.16986
1180.34954	0.16906
1178.42086	0.16819
1176.49218	0.16733
1174.56351	0.16654
1172.63483	0.16580
1170.70616	0.16506
1168.77748	0.16423
1166.84881	0.16332
1164.92013	0.16239
1162.99145	0.16153
1161.06278	0.16074
1159.13410	0.15994
1157.20543	0.15912
1155.27675	0.15832
1153.34808	0.15752
1151.41940	0.15675
1149.49072	0.15604
1147.56205	0.15528
1145.63337	0.15439
1143.70470	0.15343
1141.77602	0.15251
1139.84735	0.15161
1137.91867	0.15060
1135.98999	0.14941
1134.06132	0.14802
1132.13264	0.14643
1130.20397	0.14463
1128.27529	0.14263
1126.34662	0.14048
1124.41794	0.13821
1122.48926	0.13587
1120.56059	0.13352
1118.63191	0.13130
1116.70324	0.12929
1114.77456	0.12750
1112.84589	0.12589
1110.91721	0.12454
1108.98853	0.12354
1107.05986	0.12281
1105.13118	0.12233
1103.20251	0.12216
1101.27383	0.12233
1099.34516	0.12276
1097.41648	0.12336
1095.48780	0.12405
1093.55913	0.12484
1091.63045	0.12571
1089.70178	0.12655
1087.77310	0.12727
1085.84443	0.12789
1083.91575	0.12841
1081.98707	0.12879
1080.05840	0.12908
1078.12972	0.12932
1076.20105	0.12947
1074.27237	0.12959
1072.34370	0.12975
1070.41502	0.12987
1068.48634	0.12995
1066.55767	0.13009
1064.62899	0.13029
1062.70032	0.13050
1060.77164	0.13074
1058.84297	0.13104
1056.91429	0.13133
1054.98561	0.13165
1053.05694	0.13198
1051.12826	0.13229
1049.19959	0.13258
1047.27091	0.13287
1045.34224	0.13318
1043.41356	0.13359
1041.48488	0.13407
1039.55621	0.13455
1037.62753	0.13499
1035.69886	0.13535
1033.77018	0.13564
1031.84151	0.13595
1029.91283	0.13631
1027.98415	0.13666
1026.05548	0.13699
1024.12680	0.13733
1022.19813	0.13764
1020.26945	0.13798
1018.34078	0.13841
1016.41210	0.13890
1014.48342	0.13941
1012.55475	0.13997
1010.62607	0.14059
1008.69740	0.14121
1006.76872	0.14180
1004.84005	0.14233
1002.91137	0.14282
1000.98269	0.14322
999.05402	0.14351
997.12534	0.14371
995.19667	0.14388
993.26799	0.14400
991.33932	0.14407
989.41064	0.14409
987.48196	0.14408
985.55329	0.14408
983.62461	0.14407
981.69594	0.14404
979.76726	0.14401
977.83859	0.14396
975.90991	0.14382
973.98123	0.14361
972.05256	0.14339
970.12388	0.14318
968.19521	0.14298
966.26653	0.14277
964.33786	0.14257
962.40918	0.14237
960.48050	0.14218
958.55183	0.14203
956.62315	0.14189
954.69448	0.14171
952.76580	0.14152
950.83713	0.14137
948.90845	0.14119
946.97977	0.14092
945.05110	0.14062
943.12242	0.14036
941.19375	0.14007
939.26507	0.13967
937.33640	0.13920
935.40772	0.13872
933.47904	0.13825
931.55037	0.13779
929.62169	0.13733
927.69302	0.13683
925.76434	0.13624
923.83567	0.13560
921.90699	0.13501
919.97831	0.13443
918.04964	0.13380
916.12096	0.13308
914.19229	0.13232
912.26361	0.13151
910.33494	0.13069
908.40626	0.12994
906.47758	0.12931
904.54891	0.12874
902.62023	0.12813
900.69156	0.12750
898.76288	0.12698
896.83421	0.12654
894.90553	0.12609
892.97685	0.12560
891.04818	0.12513
889.11950	0.12470
887.19083	0.12430
885.26215	0.12387
883.33348	0.12341
881.40480	0.12295
879.47612	0.12254
877.54745	0.12227
875.61877	0.12209
873.69010	0.12190
871.76142	0.12172
869.83275	0.12158
867.90407	0.12139
865.97539	0.12111
864.04672	0.12087
862.11804	0.12080
860.18937	0.12083
858.26069	0.12077
856.33202	0.12057
854.40334	0.12031
852.47466	0.12001
850.54599	0.11974
848.61731	0.11953
846.68864	0.11933
844.75996	0.11906
842.83129	0.11873
840.90261	0.11835
838.97394	0.11794
837.04526	0.11750
835.11658	0.11696
833.18791	0.11623
831.25923	0.11536
829.33056	0.11440
827.40188	0.11337
825.47321	0.11230
823.54453	0.11135
821.61585	0.11063
819.68718	0.11010
817.75850	0.10965
815.82983	0.10920
813.90115	0.10876
811.97248	0.10841
810.04380	0.10816
808.11512	0.10797
806.18645	0.10783
804.25777	0.10774
802.32910	0.10762
800.40042	0.10735
798.47175	0.10691
796.54307	0.10636
794.61439	0.10582
792.68572	0.10545
790.75704	0.10529
788.82837	0.10512
786.89969	0.10480
784.97102	0.10447
783.04234	0.10425
781.11366	0.10404
779.18499	0.10374
777.25631	0.10343
775.32764	0.10313
773.39896	0.10281
771.47029	0.10251
769.54161	0.10220
767.61293	0.10180
765.68426	0.10141
763.75558	0.10107
761.82691	0.10067
759.89823	0.10016
757.96956	0.09958
756.04088	0.09897
754.11220	0.09838
752.18353	0.09778
750.25485	0.09713
748.32618	0.09642
746.39750	0.09565
744.46883	0.09479
742.54015	0.09391
740.61147	0.09315
738.68280	0.09265
736.75412	0.09239
734.82545	0.09231
732.89677	0.09231
730.96810	0.09234
729.03942	0.09246
727.11074	0.09267
725.18207	0.09289
723.25339	0.09303
721.32472	0.09308
719.39604	0.09314
717.46737	0.09331
715.53869	0.09366
713.61001	0.09406
711.68134	0.09444
709.75266	0.09478
707.82399	0.09498
705.89531	0.09492
703.96664	0.09474
702.03796	0.09456
700.10928	0.09430
698.18061	0.09385
696.25193	0.09322
694.32326	0.09250
692.39458	0.09186
690.46591	0.09134
688.53723	0.09085
686.60855	0.09036
684.67988	0.08987
682.75120	0.08943
680.82253	0.08900
678.89385	0.08849
676.96518	0.08785
675.03650	0.08716
673.10782	0.08650
671.17915	0.08584
669.25047	0.08508
667.32180	0.08421
665.39312	0.08333
663.46445	0.08244
661.53577	0.08159
659.60709	0.08081
657.67842	0.08003
655.74974	0.07921
653.82107	0.07838
651.89239	0.07760
649.96372	0.07689
648.03504	0.07616
646.10636	0.07528
644.17769	0.07424
642.24901	0.07316
640.32034	0.07216
638.39166	0.07123
636.46299	0.07023
634.53431	0.06911
632.60563	0.06766
630.67696	0.06533
628.74828	0.06182
626.81961	0.05739
624.89093	0.05292
622.96226	0.04939
621.03358	0.04715
619.10490	0.04595
617.17623	0.04516
615.24755	0.04433
613.31888	0.04339
611.39020	0.04247
609.46153	0.04192
607.53285	0.04192
605.60417	0.04226
603.67550	0.04273
601.74682	0.04350
599.81815	0.04459
597.88947	0.04555
595.96080	0.04609
594.03212	0.04645
592.10344	0.04680
590.17477	0.04701
588.24609	0.04702
586.31742	0.04690
584.38874	0.04667
582.46007	0.04632
580.53139	0.04586
578.60271	0.04529
576.67404	0.04470
574.74536	0.04419
572.81669	0.04365
570.88801	0.04300
568.95934	0.04238
567.03066	0.04190
565.10198	0.04156
563.17331	0.04127
561.24463	0.04099
559.31596	0.04071
557.38728	0.04049
555.45861	0.04031
553.52993	0.04011
551.60125	0.03987
549.67258	0.03962
547.74390	0.03942
545.81523	0.03925
543.88655	0.03918
541.95788	0.03920
540.02920	0.03911
538.10052	0.03886
536.17185	0.03858
534.24317	0.03839
532.31450	0.03820
530.38582	0.03791
528.45715	0.03759
526.52847	0.03734
524.59979	0.03705
522.67112	0.03665
520.74244	0.03616
518.81377	0.03556
516.88509	0.03485
514.95642	0.03421
513.02774	0.03384
511.09906	0.03376
509.17039	0.03371
507.24171	0.03355
505.31304	0.03336
503.38436	0.03306
501.45569	0.03251
499.52701	0.03183
497.59833	0.03120
495.66966	0.03063
493.74098	0.03007
491.81231	0.02954
489.88363	0.02908
487.95496	0.02866
486.02628	0.02818
484.09760	0.02764
482.16893	0.02710
480.24025	0.02658
478.31158	0.02600
476.38290	0.02532
474.45423	0.02465
472.52555	0.02416
470.59687	0.02385
468.66820	0.02357
466.73952	0.02323
464.81085	0.02293
462.88217	0.02270
460.95350	0.02254
459.02482	0.02247
457.09614	0.02246
455.16747	0.02248
453.23879	0.02249
451.31012	0.02236
449.38144	0.02211
447.45277	0.02195
445.52409	0.02191
443.59541	0.02179
441.66674	0.02149
439.73806	0.02116
437.80939	0.02080
435.88071	0.02027
433.95204	0.01969
432.02336	0.01919
430.09468	0.01868
428.16601	0.01808
426.23733	0.01747
424.30866	0.01687
422.37998	0.01622
420.45131	0.01551
418.52263	0.01479
416.59395	0.01417
414.66528	0.01351
412.73660	0.01270
410.80793	0.01199
408.87925	0.01154
406.95058	0.01110
405.02190	0.01055
403.09322	0.00995
401.16455	0.00929
399.23587	0.00862
397.30720	0.00805
395.37852	0.00757
393.44985	0.00713
391.52117	0.00672
389.59249	0.00632
387.66382	0.00588
385.73514	0.00545
383.80647	0.00501
381.87779	0.00455
379.94912	0.00418
378.02044	0.00392
376.09176	0.00358
374.16309	0.00317
372.23441	0.00285
370.30574	0.00262
368.37706	0.00242
