7496.76250	0.00118
7494.83382	0.00118
7492.90514	0.00118
7490.97647	0.00118
7489.04779	0.00118
7487.11912	0.00118
7485.19044	0.00119
7483.26177	0.00119
7481.33309	0.00120
7479.40441	0.00120
7477.47574	0.00120
7475.54706	0.00121
7473.61839	0.00122
7471.68971	0.00122
7469.76104	0.00123
7467.83236	0.00123
7465.90368	0.00124
7463.97501	0.00123
7462.04633	0.00123
7460.11766	0.00124
7458.18898	0.00124
7456.26031	0.00125
7454.33163	0.00126
7452.40295	0.00127
7450.47428	0.00128
7448.54560	0.00127
7446.61693	0.00127
7444.68825	0.00126
7442.75958	0.00124
7440.83090	0.00124
7438.90222	0.00127
7436.97355	0.00129
7435.04487	0.00128
7433.11620	0.00128
7431.18752	0.00127
7429.25885	0.00129
7427.33017	0.00130
7425.40149	0.00130
7423.47282	0.00129
7421.54414	0.00129
7419.61547	0.00127
7417.68679	0.00127
7415.75812	0.00127
7413.82944	0.00129
7411.90076	0.00132
7409.97209	0.00133
7408.04341	0.00132
7406.11474	0.00132
7404.18606	0.00133
7402.25739	0.00135
7400.32871	0.00134
7398.40003	0.00133
7396.47136	0.00132
7394.54268	0.00134
7392.61401	0.00136
7390.68533	0.00137
7388.75666	0.00136
7386.82798	0.00136
7384.89930	0.00136
7382.97063	0.00135
7381.04195	0.00134
7379.11328	0.00135
7377.18460	0.00137
7375.25593	0.00139
7373.32725	0.00140
7371.39857	0.00140
7369.46990	0.00139
7367.54122	0.00138
7365.61255	0.00136
7363.68387	0.00135
7361.75520	0.00136
7359.82652	0.00138
7357.89784	0.00139
7355.96917	0.00140
7354.04049	0.00140
7352.11182	0.00140
7350.18314	0.00140
7348.25447	0.00141
7346.32579	0.00143
7344.39711	0.00144
7342.46844	0.00145
7340.53976	0.00145
7338.61109	0.00144
7336.68241	0.00144
7334.75374	0.00145
7332.82506	0.00146
7330.89638	0.00148
7328.96771	0.00148
7327.03903	0.00148
7325.11036	0.00147
7323.18168	0.00147
7321.25301	0.00148
7319.32433	0.00148
7317.39565	0.00149
7315.46698	0.00150
7313.53830	0.00150
7311.60963	0.00151
7309.68095	0.00151
7307.75228	0.00150
7305.82360	0.00149
7303.89492	0.00150
7301.96625	0.00151
7300.03757	0.00151
7298.10890	0.00152
7296.18022	0.00152
7294.25155	0.00153
7292.32287	0.00152
7290.39419	0.00152
7288.46552	0.00151
7286.53684	0.00151
7284.60817	0.00152
7282.67949	0.00154
7280.75082	0.00156
7278.82214	0.00156
7276.89346	0.00155
7274.96479	0.00155
7273.03611	0.00157
7271.10744	0.00158
7269.17876	0.00158
7267.25009	0.00157
7265.32141	0.00158
7263.39273	0.00159
7261.46406	0.00160
7259.53538	0.00160
7257.60671	0.00159
7255.67803	0.00158
7253.74936	0.00158
7251.82068	0.00159
7249.89200	0.00161
7247.96333	0.00163
7246.03465	0.00164
7244.10598	0.00163
7242.17730	0.00163
7240.24863	0.00162
7238.31995	0.00162
7236.39127	0.00163
7234.46260	0.00164
7232.53392	0.00163
7230.60525	0.00163
7228.67657	0.00164
7226.74790	0.00165
7224.81922	0.00166
7222.89054	0.00166
7220.96187	0.00167
7219.03319	0.00169
7217.10452	0.00170
7215.17584	0.00169
7213.24717	0.00167
7211.31849	0.00166
7209.38981	0.00167
7207.46114	0.00170
7205.53246	0.00172
7203.60379	0.00172
7201.67511	0.00171
7199.74644	0.00170
7197.81776	0.00170
7195.88908	0.00170
7193.96041	0.00170
7192.03173	0.00171
7190.10306	0.00174
7188.17438	0.00175
7186.24571	0.00175
7184.31703	0.00174
7182.38835	0.00173
7180.45968	0.00174
7178.53100	0.00175
7176.60233	0.00176
7174.67365	0.00175
7172.74498	0.00175
7170.81630	0.00174
7168.88762	0.00174
7166.95895	0.00175
7165.03027	0.00178
7163.10160	0.00179
7161.17292	0.00180
7159.24425	0.00181
7157.31557	0.00181
7155.38689	0.00180
7153.45822	0.00178
7151.52954	0.00179
7149.60087	0.00182
7147.67219	0.00184
7145.74352	0.00182
7143.81484	0.00181
7141.88616	0.00181
7139.95749	0.00182
7138.02881	0.00183
7136.10014	0.00183
7134.17146	0.00183
7132.24279	0.00182
7130.31411	0.00182
7128.38543	0.00184
7126.45676	0.00186
7124.52808	0.00187
7122.59941	0.00188
7120.67073	0.00187
7118.74206	0.00186
7116.81338	0.00186
7114.88470	0.00187
7112.95603	0.00189
7111.02735	0.00190
7109.09868	0.00190
7107.17000	0.00191
7105.24133	0.00190
7103.31265	0.00190
7101.38397	0.00190
7099.45530	0.00190
7097.52662	0.00190
7095.59795	0.00191
7093.66927	0.00192
7091.74060	0.00191
7089.81192	0.00190
7087.88324	0.00190
7085.95457	0.00192
7084.02589	0.00193
7082.09722	0.00193
7080.16854	0.00193
7078.23987	0.00192
7076.31119	0.00191
7074.38251	0.00192
7072.45384	0.00194
7070.52516	0.00195
7068.59649	0.00196
7066.66781	0.00198
7064.73914	0.00198
7062.81046	0.00198
7060.88178	0.00198
7058.95311	0.00199
7057.02443	0.00201
7055.09576	0.00202
7053.16708	0.00201
7051.23841	0.00200
7049.30973	0.00200
7047.38105	0.00201
7045.45238	0.00202
7043.52370	0.00202
7041.59503	0.00203
7039.66635	0.00204
7037.73768	0.00203
7035.80900	0.00202
7033.88032	0.00204
7031.95165	0.00207
7030.02297	0.00209
7028.09430	0.00209
7026.16562	0.00208
7024.23695	0.00208
7022.30827	0.00208
7020.37959	0.00207
7018.45092	0.00207
7016.52224	0.00207
7014.59357	0.00208
7012.66489	0.00210
7010.73622	0.00210
7008.80754	0.00210
7006.87886	0.00209
7004.95019	0.00210
7003.02151	0.00212
7001.09284	0.00213
6999.16416	0.00213
6997.23549	0.00213
6995.30681	0.00213
6993.37813	0.00215
6991.44946	0.00215
6989.52078	0.00215
6987.59211	0.00215
6985.66343	0.00216
6983.73476	0.00217
6981.80608	0.00218
6979.87740	0.00219
6977.94873	0.00219
6976.02005	0.00219
6974.09138	0.00219
6972.16270	0.00219
6970.23403	0.00221
6968.30535	0.00221
6966.37667	0.00223
6964.44800	0.00223
6962.51932	0.00223
6960.59065	0.00223
6958.66197	0.00224
6956.73330	0.00224
6954.80462	0.00224
6952.87594	0.00223
6950.94727	0.00224
6949.01859	0.00226
6947.08992	0.00227
6945.16124	0.00226
6943.23257	0.00227
6941.30389	0.00229
6939.37521	0.00230
6937.44654	0.00230
6935.51786	0.00229
6933.58919	0.00228
6931.66051	0.00228
6929.73184	0.00229
6927.80316	0.00231
6925.87448	0.00232
6923.94581	0.00232
6922.01713	0.00233
6920.08846	0.00234
6918.15978	0.00235
6916.23111	0.00236
6914.30243	0.00235
6912.37375	0.00234
6910.44508	0.00234
6908.51640	0.00235
6906.58773	0.00235
6904.65905	0.00236
6902.73038	0.00238
6900.80170	0.00240
6898.87302	0.00239
6896.94435	0.00238
6895.01567	0.00238
6893.08700	0.00239
6891.15832	0.00240
6889.22965	0.00240
6887.30097	0.00241
6885.37229	0.00241
6883.44362	0.00240
6881.51494	0.00240
6879.58627	0.00241
6877.65759	0.00244
6875.72892	0.00245
6873.80024	0.00245
6871.87156	0.00246
6869.94289	0.00247
6868.01421	0.00247
6866.08554	0.00246
6864.15686	0.00245
6862.22819	0.00247
6860.29951	0.00248
6858.37083	0.00249
6856.44216	0.00249
6854.51348	0.00250
6852.58481	0.00250
6850.65613	0.00250
6848.72746	0.00249
6846.79878	0.00249
6844.87010	0.00251
6842.94143	0.00252
6841.01275	0.00253
6839.08408	0.00253
6837.15540	0.00252
6835.22673	0.00253
6833.29805	0.00255
6831.36937	0.00255
6829.44070	0.00255
6827.51202	0.00254
6825.58335	0.00254
6823.65467	0.00256
6821.72600	0.00257
6819.79732	0.00259
6817.86864	0.00261
6815.93997	0.00262
6814.01129	0.00262
6812.08262	0.00262
6810.15394	0.00260
6808.22527	0.00261
6806.29659	0.00262
6804.36791	0.00261
6802.43924	0.00261
6800.51056	0.00262
6798.58189	0.00263
6796.65321	0.00263
6794.72454	0.00264
6792.79586	0.00265
6790.86718	0.00265
6788.93851	0.00265
6787.00983	0.00268
6785.08116	0.00270
6783.15248	0.00270
6781.22381	0.00271
6779.29513	0.00272
6777.36645	0.00273
6775.43778	0.00272
6773.50910	0.00273
6771.58043	0.00275
6769.65175	0.00276
6767.72308	0.00274
6765.79440	0.00274
6763.86572	0.00275
6761.93705	0.00276
6760.00837	0.00278
6758.07970	0.00279
6756.15102	0.00278
6754.22235	0.00276
6752.29367	0.00276
6750.36499	0.00277
6748.43632	0.00278
6746.50764	0.00279
6744.57897	0.00280
6742.65029	0.00281
6740.72162	0.00281
6738.79294	0.00281
6736.86426	0.00282
6734.93559	0.00282
6733.00691	0.00283
6731.07824	0.00285
6729.14956	0.00287
6727.22089	0.00288
6725.29221	0.00287
6723.36353	0.00287
6721.43486	0.00289
6719.50618	0.00291
6717.57751	0.00291
6715.64883	0.00291
6713.72016	0.00290
6711.79148	0.00290
6709.86280	0.00291
6707.93413	0.00292
6706.00545	0.00292
6704.07678	0.00294
6702.14810	0.00295
6700.21943	0.00295
6698.29075	0.00294
6696.36207	0.00295
6694.43340	0.00296
6692.50472	0.00296
6690.57605	0.00298
6688.64737	0.00300
6686.71870	0.00301
6684.79002	0.00300
6682.86134	0.00300
6680.93267	0.00300
6679.00399	0.00300
6677.07532	0.00300
6675.14664	0.00302
6673.21797	0.00304
6671.28929	0.00304
6669.36061	0.00304
6667.43194	0.00305
6665.50326	0.00306
6663.57459	0.00308
6661.64591	0.00309
6659.71724	0.00312
6657.78856	0.00312
6655.85988	0.00311
6653.93121	0.00310
6652.00253	0.00311
6650.07386	0.00313
6648.14518	0.00314
6646.21651	0.00314
6644.28783	0.00314
6642.35915	0.00315
6640.43048	0.00318
6638.50180	0.00319
6636.57313	0.00318
6634.64445	0.00316
6632.71578	0.00315
6630.78710	0.00315
6628.85842	0.00317
6626.92975	0.00319
6625.00107	0.00320
6623.07240	0.00321
6621.14372	0.00322
6619.21505	0.00323
6617.28637	0.00324
6615.35769	0.00325
6613.42902	0.00326
6611.50034	0.00325
6609.57167	0.00323
6607.64299	0.00324
6605.71432	0.00326
6603.78564	0.00327
6601.85696	0.00327
6599.92829	0.00327
6597.99961	0.00327
6596.07094	0.00327
6594.14226	0.00327
6592.21359	0.00329
6590.28491	0.00331
6588.35623	0.00332
6586.42756	0.00332
6584.49888	0.00333
6582.57021	0.00334
6580.64153	0.00335
6578.71286	0.00335
6576.78418	0.00335
6574.85550	0.00336
6572.92683	0.00336
6570.99815	0.00338
6569.06948	0.00339
6567.14080	0.00338
6565.21213	0.00338
6563.28345	0.00340
6561.35477	0.00342
6559.42610	0.00343
6557.49742	0.00344
6555.56875	0.00344
6553.64007	0.00345
6551.71140	0.00345
6549.78272	0.00345
6547.85404	0.00346
6545.92537	0.00349
6543.99669	0.00351
6542.06802	0.00349
6540.13934	0.00348
6538.21067	0.00349
6536.28199	0.00350
6534.35331	0.00352
6532.42464	0.00353
6530.49596	0.00353
6528.56729	0.00352
6526.63861	0.00351
6524.70994	0.00351
6522.78126	0.00353
6520.85258	0.00355
6518.92391	0.00357
6516.99523	0.00359
6515.06656	0.00360
6513.13788	0.00360
6511.20921	0.00360
6509.28053	0.00361
6507.35185	0.00363
6505.42318	0.00363
6503.49450	0.00363
6501.56583	0.00364
6499.63715	0.00365
6497.70848	0.00365
6495.77980	0.00366
6493.85112	0.00368
6491.92245	0.00371
6489.99377	0.00372
6488.06510	0.00372
6486.13642	0.00371
6484.20775	0.00369
6482.27907	0.00370
6480.35039	0.00372
6478.42172	0.00375
6476.49304	0.00376
6474.56437	0.00377
6472.63569	0.00377
6470.70702	0.00376
6468.77834	0.00377
6466.84966	0.00379
6464.92099	0.00380
6462.99231	0.00380
6461.06364	0.00381
6459.13496	0.00382
6457.20629	0.00383
6455.27761	0.00384
6453.34893	0.00385
6451.42026	0.00385
6449.49158	0.00384
6447.56291	0.00385
6445.63423	0.00386
6443.70556	0.00387
6441.77688	0.00387
6439.84820	0.00388
6437.91953	0.00389
6435.99085	0.00391
6434.06218	0.00392
6432.13350	0.00393
6430.20483	0.00394
6428.27615	0.00395
6426.34747	0.00397
6424.41880	0.00398
6422.49012	0.00397
6420.56145	0.00398
6418.63277	0.00398
6416.70410	0.00397
6414.77542	0.00397
6412.84674	0.00400
6410.91807	0.00403
6408.98939	0.00405
6407.06072	0.00405
6405.13204	0.00404
6403.20337	0.00404
6401.27469	0.00405
6399.34601	0.00406
6397.41734	0.00408
6395.48866	0.00409
6393.55999	0.00410
6391.63131	0.00410
6389.70264	0.00411
6387.77396	0.00412
6385.84528	0.00412
6383.91661	0.00411
6381.98793	0.00413
6380.05926	0.00415
6378.13058	0.00418
6376.20191	0.00418
6374.27323	0.00418
6372.34455	0.00418
6370.41588	0.00419
6368.48720	0.00421
6366.55853	0.00422
6364.62985	0.00423
6362.70118	0.00423
6360.77250	0.00422
6358.84382	0.00423
6356.91515	0.00425
6354.98647	0.00426
6353.05780	0.00426
6351.12912	0.00426
6349.20045	0.00427
6347.27177	0.00428
6345.34309	0.00428
6343.41442	0.00429
6341.48574	0.00432
6339.55707	0.00434
6337.62839	0.00435
6335.69972	0.00436
6333.77104	0.00436
6331.84236	0.00436
6329.91369	0.00437
6327.98501	0.00438
6326.05634	0.00440
6324.12766	0.00442
6322.19899	0.00442
6320.27031	0.00442
6318.34163	0.00442
6316.41296	0.00443
6314.48428	0.00445
6312.55561	0.00447
6310.62693	0.00448
6308.69826	0.00448
6306.76958	0.00448
6304.84090	0.00451
6302.91223	0.00453
6300.98355	0.00453
6299.05488	0.00453
6297.12620	0.00454
6295.19753	0.00455
6293.26885	0.00457
6291.34017	0.00457
6289.41150	0.00458
6287.48282	0.00459
6285.55415	0.00459
6283.62547	0.00460
6281.69680	0.00462
6279.76812	0.00465
6277.83944	0.00465
6275.91077	0.00466
6273.98209	0.00467
6272.05342	0.00468
6270.12474	0.00468
6268.19607	0.00467
6266.26739	0.00467
6264.33871	0.00468
6262.41004	0.00470
6260.48136	0.00472
6258.55269	0.00474
6256.62401	0.00474
6254.69534	0.00475
6252.76666	0.00477
6250.83798	0.00478
6248.90931	0.00478
6246.98063	0.00479
6245.05196	0.00481
6243.12328	0.00483
6241.19461	0.00484
6239.26593	0.00484
6237.33725	0.00485
6235.40858	0.00485
6233.47990	0.00485
6231.55123	0.00486
6229.62255	0.00488
6227.69388	0.00490
6225.76520	0.00492
6223.83652	0.00493
6221.90785	0.00493
6219.97917	0.00494
6218.05050	0.00496
6216.12182	0.00497
6214.19315	0.00497
6212.26447	0.00496
6210.33579	0.00496
6208.40712	0.00498
6206.47844	0.00501
6204.54977	0.00503
6202.62109	0.00505
6200.69242	0.00506
6198.76374	0.00507
6196.83506	0.00509
6194.90639	0.00510
6192.97771	0.00511
6191.04904	0.00512
6189.12036	0.00513
6187.19169	0.00513
6185.26301	0.00515
6183.33433	0.00516
6181.40566	0.00516
6179.47698	0.00515
6177.54831	0.00516
6175.61963	0.00517
6173.69096	0.00519
6171.76228	0.00519
6169.83360	0.00520
6167.90493	0.00522
6165.97625	0.00524
6164.04758	0.00525
6162.11890	0.00525
6160.19023	0.00526
6158.26155	0.00528
6156.33287	0.00530
6154.40420	0.00533
6152.47552	0.00534
6150.54685	0.00533
6148.61817	0.00532
6146.68950	0.00532
6144.76082	0.00534
6142.83214	0.00536
6140.90347	0.00536
6138.97479	0.00536
6137.04612	0.00537
6135.11744	0.00539
6133.18877	0.00541
6131.26009	0.00542
6129.33141	0.00544
6127.40274	0.00544
6125.47406	0.00545
6123.54539	0.00547
6121.61671	0.00548
6119.68804	0.00548
6117.75936	0.00550
6115.83068	0.00551
6113.90201	0.00551
6111.97333	0.00552
6110.04466	0.00553
6108.11598	0.00555
6106.18731	0.00557
6104.25863	0.00560
6102.32995	0.00561
6100.40128	0.00562
6098.47260	0.00563
6096.54393	0.00563
6094.61525	0.00563
6092.68658	0.00563
6090.75790	0.00564
6088.82922	0.00565
6086.90055	0.00568
6084.97187	0.00571
6083.04320	0.00571
6081.11452	0.00570
6079.18585	0.00571
6077.25717	0.00573
6075.32849	0.00575
6073.39982	0.00575
6071.47114	0.00578
6069.54247	0.00582
6067.61379	0.00584
6065.68512	0.00585
6063.75644	0.00585
6061.82776	0.00585
6059.89909	0.00584
6057.97041	0.00585
6056.04174	0.00587
6054.11306	0.00590
6052.18439	0.00593
6050.25571	0.00594
6048.32703	0.00594
6046.39836	0.00594
6044.46968	0.00595
6042.54101	0.00598
6040.61233	0.00600
6038.68366	0.00601
6036.75498	0.00601
6034.82630	0.00602
6032.89763	0.00603
6030.96895	0.00604
6029.04028	0.00604
6027.11160	0.00604
6025.18293	0.00605
6023.25425	0.00607
6021.32557	0.00609
6019.39690	0.00612
6017.46822	0.00614
6015.53955	0.00615
6013.61087	0.00615
6011.68220	0.00618
6009.75352	0.00620
6007.82484	0.00620
6005.89617	0.00619
6003.96749	0.00620
6002.03882	0.00621
6000.11014	0.00620
5998.18147	0.00621
5996.25279	0.00625
5994.32411	0.00628
5992.39544	0.00629
5990.46676	0.00629
5988.53809	0.00632
5986.60941	0.00635
5984.68074	0.00636
5982.75206	0.00635
5980.82338	0.00634
5978.89471	0.00635
5976.96603	0.00635
5975.03736	0.00637
5973.10868	0.00640
5971.18001	0.00643
5969.25133	0.00645
5967.32265	0.00646
5965.39398	0.00646
5963.46530	0.00646
5961.53663	0.00648
5959.60795	0.00650
5957.67928	0.00652
5955.75060	0.00654
5953.82192	0.00657
5951.89325	0.00659
5949.96457	0.00660
5948.03590	0.00660
5946.10722	0.00660
5944.17855	0.00662
5942.24987	0.00665
5940.32119	0.00667
5938.39252	0.00667
5936.46384	0.00667
5934.53517	0.00668
5932.60649	0.00671
5930.67782	0.00674
5928.74914	0.00675
5926.82046	0.00675
5924.89179	0.00677
5922.96311	0.00680
5921.03444	0.00681
5919.10576	0.00682
5917.17709	0.00682
5915.24841	0.00682
5913.31973	0.00682
5911.39106	0.00683
5909.46238	0.00686
5907.53371	0.00689
5905.60503	0.00690
5903.67636	0.00692
5901.74768	0.00695
5899.81900	0.00696
5897.89033	0.00696
5895.96165	0.00697
5894.03298	0.00698
5892.10430	0.00700
5890.17563	0.00702
5888.24695	0.00705
5886.31827	0.00707
5884.38960	0.00707
5882.46092	0.00706
5880.53225	0.00707
5878.60357	0.00710
5876.67490	0.00712
5874.74622	0.00715
5872.81755	0.00718
5870.88887	0.00719
5868.96019	0.00719
5867.03152	0.00717
5865.10284	0.00717
5863.17417	0.00720
5861.24549	0.00722
5859.31682	0.00722
5857.38814	0.00723
5855.45946	0.00725
5853.53079	0.00727
5851.60211	0.00727
5849.67344	0.00728
5847.74476	0.00731
5845.81609	0.00736
5843.88741	0.00739
5841.95873	0.00740
5840.03006	0.00739
5838.10138	0.00738
5836.17271	0.00739
5834.24403	0.00742
5832.31536	0.00743
5830.38668	0.00744
5828.45800	0.00746
5826.52933	0.00749
5824.60065	0.00750
5822.67198	0.00750
5820.74330	0.00751
5818.81463	0.00753
5816.88595	0.00756
5814.95727	0.00759
5813.02860	0.00759
5811.09992	0.00760
5809.17125	0.00762
5807.24257	0.00766
5805.31390	0.00770
5803.38522	0.00772
5801.45654	0.00772
5799.52787	0.00771
5797.59919	0.00771
5795.67052	0.00771
5793.74184	0.00774
5791.81317	0.00778
5789.88449	0.00780
5787.95581	0.00779
5786.02714	0.00779
5784.09846	0.00782
5782.16979	0.00786
5780.24111	0.00788
5778.31244	0.00790
5776.38376	0.00790
5774.45508	0.00790
5772.52641	0.00792
5770.59773	0.00796
5768.66906	0.00798
5766.74038	0.00800
5764.81171	0.00802
5762.88303	0.00804
5760.95435	0.00805
5759.02568	0.00806
5757.09700	0.00810
5755.16833	0.00812
5753.23965	0.00812
5751.31098	0.00813
5749.38230	0.00814
5747.45362	0.00815
5745.52495	0.00817
5743.59627	0.00819
5741.66760	0.00821
5739.73892	0.00823
5737.81025	0.00824
5735.88157	0.00826
5733.95289	0.00827
5732.02422	0.00828
5730.09554	0.00829
5728.16687	0.00832
5726.23819	0.00835
5724.30952	0.00835
5722.38084	0.00835
5720.45216	0.00837
5718.52349	0.00840
5716.59481	0.00841
5714.66614	0.00841
5712.73746	0.00842
5710.80879	0.00846
5708.88011	0.00850
5706.95143	0.00852
5705.02276	0.00854
5703.09408	0.00855
5701.16541	0.00857
5699.23673	0.00857
5697.30806	0.00858
5695.37938	0.00861
5693.45070	0.00865
5691.52203	0.00868
5689.59335	0.00869
5687.66468	0.00867
5685.73600	0.00867
5683.80733	0.00868
5681.87865	0.00869
5679.94997	0.00871
5678.02130	0.00873
5676.09262	0.00875
5674.16395	0.00878
5672.23527	0.00880
5670.30660	0.00882
5668.37792	0.00884
5666.44924	0.00886
5664.52057	0.00887
5662.59189	0.00888
5660.66322	0.00888
5658.73454	0.00889
5656.80587	0.00892
5654.87719	0.00896
5652.94851	0.00898
5651.01984	0.00901
5649.09116	0.00902
5647.16249	0.00904
5645.23381	0.00906
5643.30514	0.00909
5641.37646	0.00910
5639.44778	0.00910
5637.51911	0.00911
5635.59043	0.00913
5633.66176	0.00917
5631.73308	0.00920
5629.80441	0.00921
5627.87573	0.00921
5625.94705	0.00922
5624.01838	0.00924
5622.08970	0.00927
5620.16103	0.00930
5618.23235	0.00931
5616.30368	0.00932
5614.37500	0.00933
5612.44632	0.00934
5610.51765	0.00937
5608.58897	0.00939
5606.66030	0.00941
5604.73162	0.00941
5602.80295	0.00943
5600.87427	0.00944
5598.94559	0.00947
5597.01692	0.00951
5595.08824	0.00954
5593.15957	0.00956
5591.23089	0.00959
5589.30222	0.00961
5587.37354	0.00963
5585.44486	0.00965
5583.51619	0.00966
5581.58751	0.00966
5579.65884	0.00966
5577.73016	0.00967
5575.80149	0.00970
5573.87281	0.00972
5571.94413	0.00975
5570.01546	0.00979
5568.08678	0.00982
5566.15811	0.00983
5564.22943	0.00982
5562.30076	0.00981
5560.37208	0.00984
5558.44340	0.00987
5556.51473	0.00989
5554.58605	0.00991
5552.65738	0.00993
5550.72870	0.00995
5548.80003	0.00998
5546.87135	0.00999
5544.94267	0.01001
5543.01400	0.01003
5541.08532	0.01005
5539.15665	0.01008
5537.22797	0.01009
5535.29930	0.01011
5533.37062	0.01015
5531.44194	0.01018
5529.51327	0.01019
5527.58459	0.01017
5525.65592	0.01015
5523.72724	0.01018
5521.79857	0.01022
5519.86989	0.01024
5517.94121	0.01026
5516.01254	0.01029
5514.08386	0.01031
5512.15519	0.01032
5510.22651	0.01035
5508.29784	0.01039
5506.36916	0.01040
5504.44048	0.01041
5502.51181	0.01042
5500.58313	0.01044
5498.65446	0.01049
5496.72578	0.01053
5494.79711	0.01054
5492.86843	0.01054
5490.93975	0.01054
5489.01108	0.01057
5487.08240	0.01061
5485.15373	0.01064
5483.22505	0.01065
5481.29638	0.01065
5479.36770	0.01066
5477.43902	0.01069
5475.51035	0.01072
5473.58167	0.01075
5471.65300	0.01078
5469.72432	0.01079
5467.79565	0.01080
5465.86697	0.01082
5463.93829	0.01084
5462.00962	0.01087
5460.08094	0.01090
5458.15227	0.01091
5456.22359	0.01091
5454.29492	0.01093
5452.36624	0.01097
5450.43756	0.01100
5448.50889	0.01102
5446.58021	0.01104
5444.65154	0.01106
5442.72286	0.01107
5440.79419	0.01109
5438.86551	0.01111
5436.93683	0.01113
5435.00816	0.01115
5433.07948	0.01116
5431.15081	0.01117
5429.22213	0.01119
5427.29346	0.01123
5425.36478	0.01127
5423.43610	0.01130
5421.50743	0.01133
5419.57875	0.01135
5417.65008	0.01135
5415.72140	0.01133
5413.79273	0.01134
5411.86405	0.01137
5409.93537	0.01141
5408.00670	0.01146
5406.07802	0.01149
5404.14935	0.01151
5402.22067	0.01153
5400.29200	0.01155
5398.36332	0.01157
5396.43464	0.01159
5394.50597	0.01160
5392.57729	0.01160
5390.64862	0.01162
5388.71994	0.01163
5386.79127	0.01164
5384.86259	0.01167
5382.93391	0.01172
5381.00524	0.01175
5379.07656	0.01176
5377.14789	0.01176
5375.21921	0.01179
5373.29054	0.01183
5371.36186	0.01187
5369.43318	0.01189
5367.50451	0.01190
5365.57583	0.01191
5363.64716	0.01193
5361.71848	0.01193
5359.78981	0.01194
5357.86113	0.01195
5355.93245	0.01198
5354.00378	0.01202
5352.07510	0.01205
5350.14643	0.01207
5348.21775	0.01209
5346.28908	0.01211
5344.36040	0.01212
5342.43172	0.01213
5340.50305	0.01216
5338.57437	0.01220
5336.64570	0.01224
5334.71702	0.01226
5332.78835	0.01227
5330.85967	0.01228
5328.93099	0.01231
5327.00232	0.01234
5325.07364	0.01236
5323.14497	0.01238
5321.21629	0.01241
5319.28762	0.01245
5317.35894	0.01250
5315.43026	0.01252
5313.50159	0.01253
5311.57291	0.01254
5309.64424	0.01256
5307.71556	0.01257
5305.78689	0.01258
5303.85821	0.01259
5301.92953	0.01261
5300.00086	0.01263
5298.07218	0.01266
5296.14351	0.01269
5294.21483	0.01273
5292.28616	0.01277
5290.35748	0.01279
5288.42880	0.01280
5286.50013	0.01281
5284.57145	0.01282
5282.64278	0.01285
5280.71410	0.01287
5278.78543	0.01288
5276.85675	0.01292
5274.92807	0.01297
5272.99940	0.01301
5271.07072	0.01303
5269.14205	0.01304
5267.21337	0.01305
5265.28470	0.01305
5263.35602	0.01306
5261.42734	0.01309
5259.49867	0.01312
5257.56999	0.01314
5255.64132	0.01314
5253.71264	0.01316
5251.78397	0.01320
5249.85529	0.01322
5247.92661	0.01325
5245.99794	0.01328
5244.06926	0.01330
5242.14059	0.01332
5240.21191	0.01334
5238.28324	0.01335
5236.35456	0.01338
5234.42588	0.01340
5232.49721	0.01342
5230.56853	0.01345
5228.63986	0.01349
5226.71118	0.01353
5224.78251	0.01356
5222.85383	0.01359
5220.92515	0.01361
5218.99648	0.01363
5217.06780	0.01365
5215.13913	0.01367
5213.21045	0.01369
5211.28178	0.01372
5209.35310	0.01376
5207.42442	0.01379
5205.49575	0.01381
5203.56707	0.01383
5201.63840	0.01385
5199.70972	0.01386
5197.78105	0.01386
5195.85237	0.01388
5193.92369	0.01391
5191.99502	0.01396
5190.06634	0.01400
5188.13767	0.01403
5186.20899	0.01406
5184.28032	0.01410
5182.35164	0.01412
5180.42296	0.01413
5178.49429	0.01414
5176.56561	0.01415
5174.63694	0.01416
5172.70826	0.01416
5170.77959	0.01419
5168.85091	0.01422
5166.92223	0.01426
5164.99356	0.01429
5163.06488	0.01432
5161.13621	0.01434
5159.20753	0.01437
5157.27886	0.01437
5155.35018	0.01437
5153.42150	0.01439
5151.49283	0.01444
5149.56415	0.01448
5147.63548	0.01450
5145.70680	0.01453
5143.77813	0.01457
5141.84945	0.01460
5139.92077	0.01461
5137.99210	0.01463
5136.06342	0.01466
5134.13475	0.01469
5132.20607	0.01472
5130.27740	0.01475
5128.34872	0.01478
5126.42004	0.01480
5124.49137	0.01482
5122.56269	0.01485
5120.63402	0.01486
5118.70534	0.01487
5116.77667	0.01488
5114.84799	0.01489
5112.91931	0.01493
5110.99064	0.01498
5109.06196	0.01502
5107.13329	0.01503
5105.20461	0.01503
5103.27594	0.01503
5101.34726	0.01506
5099.41858	0.01511
5097.48991	0.01513
5095.56123	0.01515
5093.63256	0.01518
5091.70388	0.01522
5089.77521	0.01524
5087.84653	0.01526
5085.91785	0.01529
5083.98918	0.01533
5082.06050	0.01536
5080.13183	0.01539
5078.20315	0.01541
5076.27448	0.01542
5074.34580	0.01545
5072.41712	0.01548
5070.48845	0.01551
5068.55977	0.01554
5066.63110	0.01557
5064.70242	0.01559
5062.77375	0.01560
5060.84507	0.01561
5058.91639	0.01564
5056.98772	0.01569
5055.05904	0.01574
5053.13037	0.01577
5051.20169	0.01579
5049.27302	0.01581
5047.34434	0.01584
5045.41566	0.01587
5043.48699	0.01588
5041.55831	0.01588
5039.62964	0.01590
5037.70096	0.01593
5035.77229	0.01596
5033.84361	0.01599
5031.91493	0.01602
5029.98626	0.01604
5028.05758	0.01605
5026.12891	0.01606
5024.20023	0.01608
5022.27156	0.01612
5020.34288	0.01615
5018.41420	0.01620
5016.48553	0.01624
5014.55685	0.01626
5012.62818	0.01627
5010.69950	0.01630
5008.77083	0.01634
5006.84215	0.01638
5004.91347	0.01640
5002.98480	0.01642
5001.05612	0.01645
4999.12745	0.01648
4997.19877	0.01650
4995.27010	0.01651
4993.34142	0.01654
4991.41274	0.01657
4989.48407	0.01661
4987.55539	0.01664
4985.62672	0.01668
4983.69804	0.01670
4981.76937	0.01672
4979.84069	0.01674
4977.91201	0.01676
4975.98334	0.01678
4974.05466	0.01681
4972.12599	0.01685
4970.19731	0.01688
4968.26864	0.01691
4966.33996	0.01693
4964.41128	0.01695
4962.48261	0.01697
4960.55393	0.01699
4958.62526	0.01703
4956.69658	0.01707
4954.76791	0.01710
4952.83923	0.01711
4950.91055	0.01713
4948.98188	0.01717
4947.05320	0.01721
4945.12453	0.01723
4943.19585	0.01726
4941.26718	0.01730
4939.33850	0.01733
4937.40982	0.01735
4935.48115	0.01736
4933.55247	0.01737
4931.62380	0.01740
4929.69512	0.01744
4927.76645	0.01748
4925.83777	0.01752
4923.90909	0.01755
4921.98042	0.01755
4920.05174	0.01757
4918.12307	0.01761
4916.19439	0.01764
4914.26572	0.01765
4912.33704	0.01767
4910.40836	0.01772
4908.47969	0.01775
4906.55101	0.01777
4904.62234	0.01779
4902.69366	0.01780
4900.76499	0.01782
4898.83631	0.01786
4896.90763	0.01791
4894.97896	0.01794
4893.05028	0.01797
4891.12161	0.01801
4889.19293	0.01805
4887.26426	0.01808
4885.33558	0.01811
4883.40690	0.01814
4881.47823	0.01818
4879.54955	0.01821
4877.62088	0.01822
4875.69220	0.01822
4873.76353	0.01823
4871.83485	0.01827
4869.90617	0.01832
4867.97750	0.01836
4866.04882	0.01837
4864.12015	0.01839
4862.19147	0.01843
4860.26280	0.01848
4858.33412	0.01852
4856.40544	0.01853
4854.47677	0.01853
4852.54809	0.01855
4850.61942	0.01858
4848.69074	0.01864
4846.76207	0.01870
4844.83339	0.01873
4842.90471	0.01875
4840.97604	0.01876
4839.04736	0.01879
4837.11869	0.01882
4835.19001	0.01884
4833.26134	0.01888
4831.33266	0.01892
4829.40398	0.01895
4827.47531	0.01898
4825.54663	0.01902
4823.61796	0.01907
4821.68928	0.01909
4819.76061	0.01910
4817.83193	0.01913
4815.90325	0.01915
4813.97458	0.01917
4812.04590	0.01922
4810.11723	0.01929
4808.18855	0.01933
4806.25988	0.01933
4804.33120	0.01933
4802.40252	0.01934
4800.47385	0.01938
4798.54517	0.01942
4796.61650	0.01946
4794.68782	0.01949
4792.75915	0.01954
4790.83047	0.01958
4788.90179	0.01962
4786.97312	0.01965
4785.04444	0.01969
4783.11577	0.01971
4781.18709	0.01973
4779.25842	0.01975
4777.32974	0.01979
4775.40106	0.01983
4773.47239	0.01985
4771.54371	0.01986
4769.61504	0.01988
4767.68636	0.01991
4765.75769	0.01995
4763.82901	0.01999
4761.90033	0.02003
4759.97166	0.02005
4758.04298	0.02008
4756.11431	0.02013
4754.18563	0.02016
4752.25696	0.02018
4750.32828	0.02021
4748.39960	0.02025
4746.47093	0.02028
4744.54225	0.02031
4742.61358	0.02036
4740.68490	0.02041
4738.75623	0.02044
4736.82755	0.02045
4734.89887	0.02047
4732.97020	0.02052
4731.04152	0.02055
4729.11285	0.02058
4727.18417	0.02061
4725.25550	0.02065
4723.32682	0.02068
4721.39814	0.02072
4719.46947	0.02076
4717.54079	0.02078
4715.61212	0.02080
4713.68344	0.02083
4711.75477	0.02087
4709.82609	0.02091
4707.89741	0.02095
4705.96874	0.02099
4704.04006	0.02102
4702.11139	0.02104
4700.18271	0.02106
4698.25404	0.02109
4696.32536	0.02113
4694.39668	0.02116
4692.46801	0.02118
4690.53933	0.02121
4688.61066	0.02125
4686.68198	0.02129
4684.75331	0.02131
4682.82463	0.02135
4680.89595	0.02139
4678.96728	0.02142
4677.03860	0.02144
4675.10993	0.02147
4673.18125	0.02151
4671.25258	0.02155
4669.32390	0.02160
4667.39522	0.02165
4665.46655	0.02168
4663.53787	0.02172
4661.60920	0.02176
4659.68052	0.02179
4657.75185	0.02183
4655.82317	0.02188
4653.89449	0.02192
4651.96582	0.02195
4650.03714	0.02197
4648.10847	0.02199
4646.17979	0.02203
4644.25112	0.02208
4642.32244	0.02213
4640.39376	0.02217
4638.46509	0.02218
4636.53641	0.02221
4634.60774	0.02225
4632.67906	0.02228
4630.75039	0.02231
4628.82171	0.02236
4626.89303	0.02240
4624.96436	0.02243
4623.03568	0.02246
4621.10701	0.02249
4619.17833	0.02253
4617.24966	0.02256
4615.32098	0.02260
4613.39230	0.02264
4611.46363	0.02269
4609.53495	0.02273
4607.60628	0.02277
4605.67760	0.02281
4603.74893	0.02283
4601.82025	0.02285
4599.89157	0.02290
4597.96290	0.02295
4596.03422	0.02299
4594.10555	0.02302
4592.17687	0.02306
4590.24820	0.02310
4588.31952	0.02316
4586.39084	0.02320
4584.46217	0.02320
4582.53349	0.02320
4580.60482	0.02323
4578.67614	0.02329
4576.74747	0.02335
4574.81879	0.02340
4572.89011	0.02344
4570.96144	0.02348
4569.03276	0.02351
4567.10409	0.02355
4565.17541	0.02359
4563.24674	0.02362
4561.31806	0.02365
4559.38938	0.02369
4557.46071	0.02375
4555.53203	0.02380
4553.60336	0.02384
4551.67468	0.02387
4549.74601	0.02390
4547.81733	0.02393
4545.88865	0.02398
4543.95998	0.02403
4542.03130	0.02407
4540.10263	0.02409
4538.17395	0.02410
4536.24528	0.02415
4534.31660	0.02419
4532.38792	0.02423
4530.45925	0.02426
4528.53057	0.02429
4526.60190	0.02434
4524.67322	0.02440
4522.74455	0.02445
4520.81587	0.02449
4518.88719	0.02453
4516.95852	0.02457
4515.02984	0.02461
4513.10117	0.02465
4511.17249	0.02469
4509.24382	0.02472
4507.31514	0.02477
4505.38646	0.02482
4503.45779	0.02485
4501.52911	0.02488
4499.60044	0.02492
4497.67176	0.02496
4495.74309	0.02501
4493.81441	0.02505
4491.88573	0.02509
4489.95706	0.02515
4488.02838	0.02521
4486.09971	0.02525
4484.17103	0.02530
4482.24236	0.02534
4480.31368	0.02537
4478.38500	0.02542
4476.45633	0.02547
4474.52765	0.02550
4472.59898	0.02552
4470.67030	0.02556
4468.74163	0.02562
4466.81295	0.02568
4464.88427	0.02572
4462.95560	0.02575
4461.02692	0.02579
4459.09825	0.02583
4457.16957	0.02588
4455.24090	0.02595
4453.31222	0.02600
4451.38354	0.02603
4449.45487	0.02604
4447.52619	0.02606
4445.59752	0.02611
4443.66884	0.02618
4441.74017	0.02624
4439.81149	0.02631
4437.88281	0.02636
4435.95414	0.02640
4434.02546	0.02644
4432.09679	0.02647
4430.16811	0.02650
4428.23944	0.02652
4426.31076	0.02656
4424.38208	0.02664
4422.45341	0.02672
4420.52473	0.02677
4418.59606	0.02679
4416.66738	0.02682
4414.73871	0.02687
4412.81003	0.02693
4410.88135	0.02697
4408.95268	0.02702
4407.02400	0.02707
4405.09533	0.02711
4403.16665	0.02716
4401.23798	0.02721
4399.30930	0.02725
4397.38062	0.02729
4395.45195	0.02733
4393.52327	0.02736
4391.59460	0.02740
4389.66592	0.02745
4387.73725	0.02752
4385.80857	0.02760
4383.87989	0.02766
4381.95122	0.02770
4380.02254	0.02774
4378.09387	0.02779
4376.16519	0.02783
4374.23652	0.02787
4372.30784	0.02792
4370.37916	0.02795
4368.45049	0.02799
4366.52181	0.02804
4364.59314	0.02810
4362.66446	0.02815
4360.73579	0.02820
4358.80711	0.02825
4356.87843	0.02829
4354.94976	0.02834
4353.02108	0.02838
4351.09241	0.02842
4349.16373	0.02846
4347.23506	0.02855
4345.30638	0.02864
4343.37770	0.02870
4341.44903	0.02873
4339.52035	0.02875
4337.59168	0.02878
4335.66300	0.02881
4333.73433	0.02886
4331.80565	0.02892
4329.87697	0.02898
4327.94830	0.02904
4326.01962	0.02909
4324.09095	0.02915
4322.16227	0.02922
4320.23360	0.02929
4318.30492	0.02935
4316.37624	0.02940
4314.44757	0.02943
4312.51889	0.02946
4310.59022	0.02951
4308.66154	0.02956
4306.73287	0.02961
4304.80419	0.02967
4302.87551	0.02974
4300.94684	0.02981
4299.01816	0.02988
4297.08949	0.02994
4295.16081	0.03000
4293.23214	0.03006
4291.30346	0.03011
4289.37478	0.03015
4287.44611	0.03019
4285.51743	0.03024
4283.58876	0.03030
4281.66008	0.03034
4279.73141	0.03039
4277.80273	0.03047
4275.87405	0.03054
4273.94538	0.03059
4272.01670	0.03062
4270.08803	0.03066
4268.15935	0.03072
4266.23068	0.03080
4264.30200	0.03087
4262.37332	0.03092
4260.44465	0.03099
4258.51597	0.03105
4256.58730	0.03110
4254.65862	0.03113
4252.72995	0.03119
4250.80127	0.03125
4248.87259	0.03131
4246.94392	0.03136
4245.01524	0.03141
4243.08657	0.03147
4241.15789	0.03155
4239.22922	0.03162
4237.30054	0.03168
4235.37186	0.03175
4233.44319	0.03181
4231.51451	0.03187
4229.58584	0.03192
4227.65716	0.03196
4225.72849	0.03201
4223.79981	0.03207
4221.87113	0.03214
4219.94246	0.03218
4218.01378	0.03223
4216.08511	0.03229
4214.15643	0.03236
4212.22776	0.03241
4210.29908	0.03245
4208.37040	0.03251
4206.44173	0.03259
4204.51305	0.03265
4202.58438	0.03272
4200.65570	0.03280
4198.72703	0.03288
4196.79835	0.03293
4194.86968	0.03297
4192.94100	0.03301
4191.01232	0.03306
4189.08365	0.03314
4187.15497	0.03321
4185.22630	0.03326
4183.29762	0.03332
4181.36895	0.03339
4179.44027	0.03346
4177.51159	0.03352
4175.58292	0.03357
4173.65424	0.03363
4171.72557	0.03371
4169.79689	0.03378
4167.86822	0.03383
4165.93954	0.03389
4164.01086	0.03396
4162.08219	0.03402
4160.15351	0.03408
4158.22484	0.03414
4156.29616	0.03420
4154.36749	0.03425
4152.43881	0.03429
4150.51013	0.03436
4148.58146	0.03444
4146.65278	0.03453
4144.72411	0.03461
4142.79543	0.03467
4140.86676	0.03471
4138.93808	0.03477
4137.00940	0.03484
4135.08073	0.03488
4133.15205	0.03491
4131.22338	0.03498
4129.29470	0.03506
4127.36603	0.03513
4125.43735	0.03519
4123.50867	0.03526
4121.58000	0.03533
4119.65132	0.03538
4117.72265	0.03542
4115.79397	0.03548
4113.86530	0.03555
4111.93662	0.03562
4110.00794	0.03570
4108.07927	0.03579
4106.15059	0.03586
4104.22192	0.03593
4102.29324	0.03602
4100.36457	0.03610
4098.43589	0.03617
4096.50721	0.03623
4094.57854	0.03630
4092.64986	0.03638
4090.72119	0.03645
4088.79251	0.03650
4086.86384	0.03657
4084.93516	0.03664
4083.00648	0.03671
4081.07781	0.03675
4079.14913	0.03681
4077.22046	0.03690
4075.29178	0.03699
4073.36311	0.03706
4071.43443	0.03711
4069.50575	0.03718
4067.57708	0.03725
4065.64840	0.03732
4063.71973	0.03738
4061.79105	0.03746
4059.86238	0.03756
4057.93370	0.03763
4056.00502	0.03769
4054.07635	0.03774
4052.14767	0.03779
4050.21900	0.03787
4048.29032	0.03795
4046.36165	0.03803
4044.43297	0.03811
4042.50429	0.03817
4040.57562	0.03822
4038.64694	0.03828
4036.71827	0.03835
4034.78959	0.03841
4032.86092	0.03849
4030.93224	0.03860
4029.00356	0.03868
4027.07489	0.03873
4025.14621	0.03881
4023.21754	0.03890
4021.28886	0.03898
4019.36019	0.03904
4017.43151	0.03911
4015.50283	0.03918
4013.57416	0.03927
4011.64548	0.03935
4009.71681	0.03941
4007.78813	0.03947
4005.85946	0.03953
4003.93078	0.03961
4002.00210	0.03969
4000.07343	0.03975
3998.14475	0.03981
3996.21608	0.03990
3994.28740	0.03999
3992.35873	0.04005
3990.43005	0.04010
3988.50137	0.04017
3986.57270	0.04028
3984.64402	0.04039
3982.71535	0.04047
3980.78667	0.04053
3978.85800	0.04058
3976.92932	0.04065
3975.00064	0.04072
3973.07197	0.04080
3971.14329	0.04088
3969.21462	0.04095
3967.28594	0.04102
3965.35727	0.04108
3963.42859	0.04117
3961.49991	0.04126
3959.57124	0.04135
3957.64256	0.04144
3955.71389	0.04155
3953.78521	0.04162
3951.85654	0.04165
3949.92786	0.04170
3947.99918	0.04178
3946.07051	0.04185
3944.14183	0.04188
3942.21316	0.04196
3940.28448	0.04208
3938.35581	0.04222
3936.42713	0.04231
3934.49845	0.04235
3932.56978	0.04238
3930.64110	0.04246
3928.71243	0.04257
3926.78375	0.04264
3924.85508	0.04271
3922.92640	0.04280
3920.99772	0.04286
3919.06905	0.04288
3917.14037	0.04294
3915.21170	0.04308
3913.28302	0.04322
3911.35435	0.04330
3909.42567	0.04336
3907.49699	0.04337
3905.56832	0.04333
3903.63964	0.04328
3901.71097	0.04335
3899.78229	0.04354
3897.85362	0.04377
3895.92494	0.04392
3893.99626	0.04393
3892.06759	0.04395
3890.13891	0.04406
3888.21024	0.04414
3886.28156	0.04416
3884.35289	0.04423
3882.42421	0.04434
3880.49553	0.04443
3878.56686	0.04457
3876.63818	0.04471
3874.70951	0.04477
3872.78083	0.04480
3870.85216	0.04484
3868.92348	0.04492
3866.99480	0.04501
3865.06613	0.04508
3863.13745	0.04519
3861.20878	0.04534
3859.28010	0.04544
3857.35143	0.04539
3855.42275	0.04523
3853.49407	0.04521
3851.56540	0.04549
3849.63672	0.04584
3847.70805	0.04604
3845.77937	0.04608
3843.85070	0.04607
3841.92202	0.04606
3839.99334	0.04604
3838.06467	0.04607
3836.13599	0.04622
3834.20732	0.04641
3832.27864	0.04657
3830.34997	0.04672
3828.42129	0.04682
3826.49261	0.04688
3824.56394	0.04693
3822.63526	0.04695
3820.70659	0.04699
3818.77791	0.04708
3816.84924	0.04714
3814.92056	0.04728
3812.99188	0.04749
3811.06321	0.04763
3809.13453	0.04766
3807.20586	0.04768
3805.27718	0.04775
3803.34851	0.04779
3801.41983	0.04783
3799.49115	0.04795
3797.56248	0.04809
3795.63380	0.04825
3793.70513	0.04844
3791.77645	0.04856
3789.84778	0.04863
3787.91910	0.04872
3785.99042	0.04880
3784.06175	0.04888
3782.13307	0.04895
3780.20440	0.04902
3778.27572	0.04913
3776.34705	0.04925
3774.41837	0.04936
3772.48969	0.04940
3770.56102	0.04941
3768.63234	0.04949
3766.70367	0.04961
3764.77499	0.04974
3762.84632	0.04983
3760.91764	0.04985
3758.98896	0.04989
3757.06029	0.04999
3755.13161	0.05005
3753.20294	0.04999
3751.27426	0.04998
3749.34559	0.05011
3747.41691	0.05012
3745.48823	0.04999
3743.55956	0.05011
3741.63088	0.05051
3739.70221	0.05071
3737.77353	0.05064
3735.84486	0.05062
3733.91618	0.05077
3731.98750	0.05101
3730.05883	0.05124
3728.13015	0.05137
3726.20148	0.05142
3724.27280	0.05149
3722.34413	0.05161
3720.41545	0.05176
3718.48677	0.05190
3716.55810	0.05201
3714.62942	0.05203
3712.70075	0.05201
3710.77207	0.05205
3708.84340	0.05223
3706.91472	0.05243
3704.98604	0.05254
3703.05737	0.05255
3701.12869	0.05262
3699.20002	0.05278
3697.27134	0.05293
3695.34267	0.05299
3693.41399	0.05295
3691.48531	0.05287
3689.55664	0.05289
3687.62796	0.05310
3685.69929	0.05339
3683.77061	0.05360
3681.84194	0.05365
3679.91326	0.05360
3677.98458	0.05350
3676.05591	0.05347
3674.12723	0.05366
3672.19856	0.05386
3670.26988	0.05393
3668.34121	0.05407
3666.41253	0.05431
3664.48385	0.05447
3662.55518	0.05457
3660.62650	0.05462
3658.69783	0.05463
3656.76915	0.05464
3654.84048	0.05470
3652.91180	0.05465
3650.98312	0.05447
3649.05445	0.05438
3647.12577	0.05454
3645.19710	0.05485
3643.26842	0.05512
3641.33975	0.05529
3639.41107	0.05539
3637.48239	0.05549
3635.55372	0.05556
3633.62504	0.05560
3631.69637	0.05558
3629.76769	0.05555
3627.83902	0.05566
3625.91034	0.05589
3623.98166	0.05603
3622.05299	0.05599
3620.12431	0.05591
3618.19564	0.05598
3616.26696	0.05615
3614.33829	0.05621
3612.40961	0.05621
3610.48093	0.05625
3608.55226	0.05637
3606.62358	0.05655
3604.69491	0.05669
3602.76623	0.05672
3600.83756	0.05676
3598.90888	0.05687
3596.98020	0.05697
3595.05153	0.05702
3593.12285	0.05706
3591.19418	0.05708
3589.26550	0.05705
3587.33683	0.05710
3585.40815	0.05727
3583.47947	0.05747
3581.55080	0.05759
3579.62212	0.05768
3577.69345	0.05776
3575.76477	0.05782
3573.83610	0.05786
3571.90742	0.05790
3569.97874	0.05788
3568.05007	0.05783
3566.12139	0.05792
3564.19272	0.05811
3562.26404	0.05828
3560.33537	0.05838
3558.40669	0.05847
3556.47801	0.05855
3554.54934	0.05861
3552.62066	0.05865
3550.69199	0.05873
3548.76331	0.05878
3546.83464	0.05881
3544.90596	0.05887
3542.97728	0.05898
3541.04861	0.05909
3539.11993	0.05917
3537.19126	0.05924
3535.26258	0.05933
3533.33391	0.05939
3531.40523	0.05940
3529.47655	0.05939
3527.54788	0.05940
3525.61920	0.05943
3523.69053	0.05946
3521.76185	0.05952
3519.83318	0.05959
3517.90450	0.05963
3515.97582	0.05967
3514.04715	0.05972
3512.11847	0.05975
3510.18980	0.05977
3508.26112	0.05980
3506.33245	0.05981
3504.40377	0.05984
3502.47509	0.05988
3500.54642	0.05992
3498.61774	0.05996
3496.68907	0.06002
3494.76039	0.06007
3492.83172	0.06010
3490.90304	0.06011
3488.97436	0.06011
3487.04569	0.06012
3485.11701	0.06015
3483.18834	0.06018
3481.25966	0.06022
3479.33099	0.06028
3477.40231	0.06036
3475.47363	0.06045
3473.54496	0.06054
3471.61628	0.06062
3469.68761	0.06071
3467.75893	0.06081
3465.83026	0.06091
3463.90158	0.06099
3461.97290	0.06109
3460.04423	0.06119
3458.11555	0.06131
3456.18688	0.06142
3454.25820	0.06151
3452.32953	0.06158
3450.40085	0.06165
3448.47217	0.06172
3446.54350	0.06179
3444.61482	0.06189
3442.68615	0.06204
3440.75747	0.06219
3438.82880	0.06231
3436.90012	0.06245
3434.97144	0.06264
3433.04277	0.06284
3431.11409	0.06303
3429.18542	0.06324
3427.25674	0.06346
3425.32807	0.06366
3423.39939	0.06384
3421.47071	0.06400
3419.54204	0.06415
3417.61336	0.06432
3415.68469	0.06452
3413.75601	0.06470
3411.82734	0.06484
3409.89866	0.06496
3407.96998	0.06510
3406.04131	0.06523
3404.11263	0.06536
3402.18396	0.06548
3400.25528	0.06561
3398.32661	0.06575
3396.39793	0.06589
3394.46925	0.06602
3392.54058	0.06613
3390.61190	0.06624
3388.68323	0.06637
3386.75455	0.06651
3384.82588	0.06664
3382.89720	0.06679
3380.96852	0.06695
3379.03985	0.06712
3377.11117	0.06725
3375.18250	0.06734
3373.25382	0.06746
3371.32515	0.06760
3369.39647	0.06772
3367.46779	0.06784
3365.53912	0.06795
3363.61044	0.06806
3361.68177	0.06816
3359.75309	0.06826
3357.82442	0.06837
3355.89574	0.06852
3353.96706	0.06868
3352.03839	0.06881
3350.10971	0.06894
3348.18104	0.06907
3346.25236	0.06919
3344.32369	0.06931
3342.39501	0.06944
3340.46633	0.06956
3338.53766	0.06966
3336.60898	0.06978
3334.68031	0.06990
3332.75163	0.07001
3330.82296	0.07012
3328.89428	0.07026
3326.96560	0.07041
3325.03693	0.07054
3323.10825	0.07066
3321.17958	0.07076
3319.25090	0.07086
3317.32223	0.07100
3315.39355	0.07115
3313.46487	0.07126
3311.53620	0.07135
3309.60752	0.07147
3307.67885	0.07163
3305.75017	0.07178
3303.82150	0.07192
3301.89282	0.07205
3299.96414	0.07218
3298.03547	0.07229
3296.10679	0.07242
3294.17812	0.07256
3292.24944	0.07270
3290.32077	0.07283
3288.39209	0.07296
3286.46341	0.07309
3284.53474	0.07321
3282.60606	0.07334
3280.67739	0.07348
3278.74871	0.07360
3276.82004	0.07372
3274.89136	0.07387
3272.96268	0.07404
3271.03401	0.07420
3269.10533	0.07433
3267.17666	0.07444
3265.24798	0.07456
3263.31931	0.07468
3261.39063	0.07478
3259.46195	0.07488
3257.53328	0.07502
3255.60460	0.07515
3253.67593	0.07530
3251.74725	0.07546
3249.81858	0.07562
3247.88990	0.07574
3245.96122	0.07587
3244.03255	0.07602
3242.10387	0.07617
3240.17520	0.07628
3238.24652	0.07641
3236.31785	0.07658
3234.38917	0.07673
3232.46049	0.07685
3230.53182	0.07696
3228.60314	0.07706
3226.67447	0.07719
3224.74579	0.07735
3222.81712	0.07750
3220.88844	0.07765
3218.95976	0.07779
3217.03109	0.07790
3215.10241	0.07800
3213.17374	0.07813
3211.24506	0.07826
3209.31639	0.07837
3207.38771	0.07850
3205.45903	0.07863
3203.53036	0.07877
3201.60168	0.07895
3199.67301	0.07915
3197.74433	0.07931
3195.81566	0.07944
3193.88698	0.07957
3191.95830	0.07970
3190.02963	0.07986
3188.10095	0.08002
3186.17228	0.08014
3184.24360	0.08025
3182.31493	0.08040
3180.38625	0.08056
3178.45757	0.08069
3176.52890	0.08083
3174.60022	0.08099
3172.67155	0.08113
3170.74287	0.08124
3168.81420	0.08136
3166.88552	0.08150
3164.95684	0.08162
3163.02817	0.08176
3161.09949	0.08193
3159.17082	0.08212
3157.24214	0.08227
3155.31347	0.08238
3153.38479	0.08251
3151.45611	0.08265
3149.52744	0.08277
3147.59876	0.08290
3145.67009	0.08306
3143.74141	0.08321
3141.81274	0.08335
3139.88406	0.08350
3137.95538	0.08365
3136.02671	0.08377
3134.09803	0.08387
3132.16936	0.08396
3130.24068	0.08411
3128.31201	0.08428
3126.38333	0.08444
3124.45465	0.08459
3122.52598	0.08473
3120.59730	0.08485
3118.66863	0.08499
3116.73995	0.08515
3114.81128	0.08529
3112.88260	0.08542
3110.95392	0.08555
3109.02525	0.08568
3107.09657	0.08580
3105.16790	0.08592
3103.23922	0.08606
3101.31055	0.08622
3099.38187	0.08639
3097.45319	0.08655
3095.52452	0.08669
3093.59584	0.08684
3091.66717	0.08701
3089.73849	0.08715
3087.80982	0.08728
3085.88114	0.08741
3083.95246	0.08753
3082.02379	0.08765
3080.09511	0.08778
3078.16644	0.08791
3076.23776	0.08805
3074.30909	0.08819
3072.38041	0.08832
3070.45173	0.08846
3068.52306	0.08861
3066.59438	0.08874
3064.66571	0.08885
3062.73703	0.08898
3060.80836	0.08911
3058.87968	0.08925
3056.95100	0.08939
3055.02233	0.08954
3053.09365	0.08968
3051.16498	0.08982
3049.23630	0.08996
3047.30763	0.09010
3045.37895	0.09024
3043.45027	0.09036
3041.52160	0.09049
3039.59292	0.09065
3037.66425	0.09080
3035.73557	0.09093
3033.80690	0.09103
3031.87822	0.09114
3029.94954	0.09129
3028.02087	0.09146
3026.09219	0.09160
3024.16352	0.09174
3022.23484	0.09190
3020.30617	0.09205
3018.37749	0.09216
3016.44881	0.09227
3014.52014	0.09240
3012.59146	0.09256
3010.66279	0.09272
3008.73411	0.09287
3006.80544	0.09301
3004.87676	0.09316
3002.94808	0.09330
3001.01941	0.09342
2999.09073	0.09353
2997.16206	0.09365
2995.23338	0.09375
2993.30471	0.09386
2991.37603	0.09399
2989.44735	0.09412
2987.51868	0.09424
2985.59000	0.09435
2983.66133	0.09445
2981.73265	0.09454
2979.80398	0.09459
2977.87530	0.09462
2975.94662	0.09463
2974.01795	0.09464
2972.08927	0.09464
2970.16060	0.09463
2968.23192	0.09461
2966.30325	0.09459
2964.37457	0.09462
2962.44589	0.09472
2960.51722	0.09487
2958.58854	0.09502
2956.65987	0.09518
2954.73119	0.09538
2952.80252	0.09557
2950.87384	0.09575
2948.94516	0.09592
2947.01649	0.09605
2945.08781	0.09614
2943.15914	0.09621
2941.23046	0.09626
2939.30179	0.09628
2937.37311	0.09627
2935.44443	0.09622
2933.51576	0.09616
2931.58708	0.09613
2929.65841	0.09611
2927.72973	0.09609
2925.80106	0.09607
2923.87238	0.09609
2921.94370	0.09616
2920.01503	0.09627
2918.08635	0.09642
2916.15768	0.09669
2914.22900	0.09709
2912.30033	0.09753
2910.37165	0.09795
2908.44297	0.09833
2906.51430	0.09867
2904.58562	0.09896
2902.65695	0.09917
2900.72827	0.09933
2898.79960	0.09949
2896.87092	0.09969
2894.94224	0.09991
2893.01357	0.10014
2891.08489	0.10036
2889.15622	0.10053
2887.22754	0.10069
2885.29887	0.10087
2883.37019	0.10105
2881.44151	0.10118
2879.51284	0.10132
2877.58416	0.10147
2875.65549	0.10160
2873.72681	0.10174
2871.79814	0.10190
2869.86946	0.10204
2867.94078	0.10213
2866.01211	0.10222
2864.08343	0.10232
2862.15476	0.10241
2860.22608	0.10247
2858.29741	0.10249
2856.36873	0.10244
2854.44005	0.10236
2852.51138	0.10234
2850.58270	0.10242
2848.65403	0.10268
2846.72535	0.10314
2844.79668	0.10367
2842.86800	0.10412
2840.93932	0.10446
2839.01065	0.10469
2837.08197	0.10489
2835.15330	0.10508
2833.22462	0.10530
2831.29595	0.10552
2829.36727	0.10572
2827.43859	0.10589
2825.50992	0.10603
2823.58124	0.10618
2821.65257	0.10636
2819.72389	0.10653
2817.79522	0.10669
2815.86654	0.10684
2813.93786	0.10698
2812.00919	0.10713
2810.08051	0.10731
2808.15184	0.10748
2806.22316	0.10763
2804.29449	0.10778
2802.36581	0.10793
2800.43713	0.10808
2798.50846	0.10821
2796.57978	0.10836
2794.65111	0.10853
2792.72243	0.10870
2790.79376	0.10887
2788.86508	0.10901
2786.93640	0.10917
2785.00773	0.10933
2783.07905	0.10946
2781.15038	0.10959
2779.22170	0.10976
2777.29303	0.10997
2775.36435	0.11016
2773.43567	0.11031
2771.50700	0.11046
2769.57832	0.11060
2767.64965	0.11074
2765.72097	0.11088
2763.79230	0.11103
2761.86362	0.11117
2759.93494	0.11133
2758.00627	0.11150
2756.07759	0.11164
2754.14892	0.11177
2752.22024	0.11191
2750.29157	0.11202
2748.36289	0.11214
2746.43421	0.11227
2744.50554	0.11242
2742.57686	0.11260
2740.64819	0.11277
2738.71951	0.11292
2736.79084	0.11307
2734.86216	0.11323
2732.93348	0.11337
2731.00481	0.11347
2729.07613	0.11358
2727.14746	0.11373
2725.21878	0.11389
2723.29011	0.11406
2721.36143	0.11422
2719.43275	0.11437
2717.50408	0.11450
2715.57540	0.11463
2713.64673	0.11477
2711.71805	0.11489
2709.78938	0.11501
2707.86070	0.11514
2705.93202	0.11531
2704.00335	0.11547
2702.07467	0.11562
2700.14600	0.11576
2698.21732	0.11590
2696.28865	0.11605
2694.35997	0.11621
2692.43129	0.11636
2690.50262	0.11649
2688.57394	0.11662
2686.64527	0.11676
2684.71659	0.11689
2682.78792	0.11704
2680.85924	0.11722
2678.93056	0.11738
2677.00189	0.11749
2675.07321	0.11761
2673.14454	0.11774
2671.21586	0.11789
2669.28719	0.11804
2667.35851	0.11816
2665.42983	0.11828
2663.50116	0.11845
2661.57248	0.11867
2659.64381	0.11884
2657.71513	0.11896
2655.78646	0.11908
2653.85778	0.11923
2651.92910	0.11939
2650.00043	0.11952
2648.07175	0.11964
2646.14308	0.11981
2644.21440	0.11996
2642.28573	0.12009
2640.35705	0.12023
2638.42837	0.12042
2636.49970	0.12062
2634.57102	0.12078
2632.64235	0.12093
2630.71367	0.12107
2628.78500	0.12120
2626.85632	0.12135
2624.92764	0.12153
2622.99897	0.12170
2621.07029	0.12186
2619.14162	0.12204
2617.21294	0.12224
2615.28427	0.12242
2613.35559	0.12256
2611.42691	0.12269
2609.49824	0.12285
2607.56956	0.12301
2605.64089	0.12316
2603.71221	0.12330
2601.78354	0.12342
2599.85486	0.12355
2597.92618	0.12369
2595.99751	0.12385
2594.06883	0.12403
2592.14016	0.12420
2590.21148	0.12434
2588.28281	0.12447
2586.35413	0.12463
2584.42545	0.12478
2582.49678	0.12493
2580.56810	0.12510
2578.63943	0.12528
2576.71075	0.12541
2574.78208	0.12555
2572.85340	0.12570
2570.92472	0.12583
2568.99605	0.12597
2567.06737	0.12613
2565.13870	0.12631
2563.21002	0.12647
2561.28135	0.12662
2559.35267	0.12675
2557.42399	0.12687
2555.49532	0.12698
2553.56664	0.12714
2551.63797	0.12733
2549.70929	0.12750
2547.78062	0.12765
2545.85194	0.12779
2543.92326	0.12791
2541.99459	0.12804
2540.06591	0.12819
2538.13724	0.12833
2536.20856	0.12847
2534.27989	0.12863
2532.35121	0.12882
2530.42253	0.12901
2528.49386	0.12914
2526.56518	0.12927
2524.63651	0.12945
2522.70783	0.12964
2520.77916	0.12982
2518.85048	0.12998
2516.92181	0.13011
2514.99313	0.13023
2513.06445	0.13036
2511.13578	0.13051
2509.20710	0.13069
2507.27843	0.13088
2505.34975	0.13106
2503.42108	0.13123
2501.49240	0.13141
2499.56372	0.13160
2497.63505	0.13176
2495.70637	0.13192
2493.77770	0.13208
2491.84902	0.13224
2489.92035	0.13238
2487.99167	0.13252
2486.06299	0.13266
2484.13432	0.13283
2482.20564	0.13301
2480.27697	0.13318
2478.34829	0.13334
2476.41962	0.13352
2474.49094	0.13370
2472.56226	0.13388
2470.63359	0.13406
2468.70491	0.13422
2466.77624	0.13433
2464.84756	0.13445
2462.91889	0.13461
2460.99021	0.13479
2459.06153	0.13496
2457.13286	0.13512
2455.20418	0.13527
2453.27551	0.13543
2451.34683	0.13561
2449.41816	0.13577
2447.48948	0.13590
2445.56080	0.13603
2443.63213	0.13620
2441.70345	0.13639
2439.77478	0.13656
2437.84610	0.13670
2435.91743	0.13686
2433.98875	0.13704
2432.06007	0.13721
2430.13140	0.13738
2428.20272	0.13756
2426.27405	0.13772
2424.34537	0.13787
2422.41670	0.13801
2420.48802	0.13817
2418.55934	0.13834
2416.63067	0.13848
2414.70199	0.13863
2412.77332	0.13881
2410.84464	0.13900
2408.91597	0.13914
2406.98729	0.13926
2405.05861	0.13940
2403.12994	0.13956
2401.20126	0.13973
2399.27259	0.13989
2397.34391	0.14005
2395.41524	0.14022
2393.48656	0.14039
2391.55788	0.14054
2389.62921	0.14068
2387.70053	0.14085
2385.77186	0.14102
2383.84318	0.14114
2381.91451	0.14123
2379.98583	0.14129
2378.05715	0.14133
2376.12848	0.14137
2374.19980	0.14141
2372.27113	0.14142
2370.34245	0.14143
2368.41378	0.14145
2366.48510	0.14151
2364.55642	0.14162
2362.62775	0.14175
2360.69907	0.14190
2358.77040	0.14210
2356.84172	0.14237
2354.91305	0.14265
2352.98437	0.14295
2351.05569	0.14328
2349.12702	0.14353
2347.19834	0.14365
2345.26967	0.14370
2343.34099	0.14372
2341.41232	0.14376
2339.48364	0.14385
2337.55496	0.14399
2335.62629	0.14416
2333.69761	0.14435
2331.76894	0.14454
2329.84026	0.14474
2327.91159	0.14496
2325.98291	0.14516
2324.05423	0.14533
2322.12556	0.14553
2320.19688	0.14577
2318.26821	0.14601
2316.33953	0.14625
2314.41086	0.14647
2312.48218	0.14668
2310.55350	0.14688
2308.62483	0.14707
2306.69615	0.14726
2304.76748	0.14745
2302.83880	0.14763
2300.91013	0.14781
2298.98145	0.14798
2297.05277	0.14816
2295.12410	0.14835
2293.19542	0.14854
2291.26675	0.14873
2289.33807	0.14891
2287.40940	0.14905
2285.48072	0.14917
2283.55204	0.14931
2281.62337	0.14947
2279.69469	0.14965
2277.76602	0.14981
2275.83734	0.14995
2273.90867	0.15010
2271.97999	0.15028
2270.05131	0.15046
2268.12264	0.15063
2266.19396	0.15078
2264.26529	0.15092
2262.33661	0.15108
2260.40794	0.15124
2258.47926	0.15139
2256.55058	0.15152
2254.62191	0.15167
2252.69323	0.15183
2250.76456	0.15200
2248.83588	0.15218
2246.90721	0.15235
2244.97853	0.15249
2243.04985	0.15261
2241.12118	0.15277
2239.19250	0.15296
2237.26383	0.15314
2235.33515	0.15330
2233.40648	0.15344
2231.47780	0.15357
2229.54912	0.15372
2227.62045	0.15388
2225.69177	0.15402
2223.76310	0.15416
2221.83442	0.15431
2219.90575	0.15446
2217.97707	0.15462
2216.04839	0.15481
2214.11972	0.15502
2212.19104	0.15519
2210.26237	0.15530
2208.33369	0.15543
2206.40502	0.15560
2204.47634	0.15578
2202.54766	0.15591
2200.61899	0.15604
2198.69031	0.15620
2196.76164	0.15639
2194.83296	0.15657
2192.90429	0.15672
2190.97561	0.15683
2189.04693	0.15692
2187.11826	0.15703
2185.18958	0.15718
2183.26091	0.15736
2181.33223	0.15753
2179.40356	0.15770
2177.47488	0.15787
2175.54620	0.15799
2173.61753	0.15810
2171.68885	0.15826
2169.76018	0.15849
2167.83150	0.15872
2165.90283	0.15889
2163.97415	0.15899
2162.04547	0.15910
2160.11680	0.15926
2158.18812	0.15947
2156.25945	0.15968
2154.33077	0.15986
2152.40210	0.16004
2150.47342	0.16019
2148.54474	0.16034
2146.61607	0.16053
2144.68739	0.16072
2142.75872	0.16088
2140.83004	0.16101
2138.90137	0.16112
2136.97269	0.16125
2135.04401	0.16144
2133.11534	0.16164
2131.18666	0.16181
2129.25799	0.16195
2127.32931	0.16208
2125.40064	0.16225
2123.47196	0.16244
2121.54328	0.16263
2119.61461	0.16277
2117.68593	0.16291
2115.75726	0.16306
2113.82858	0.16322
2111.89991	0.16338
2109.97123	0.16353
2108.04255	0.16367
2106.11388	0.16379
2104.18520	0.16394
2102.25653	0.16411
2100.32785	0.16430
2098.39918	0.16449
2096.47050	0.16468
2094.54182	0.16488
2092.61315	0.16502
2090.68447	0.16515
2088.75580	0.16528
2086.82712	0.16541
2084.89845	0.16554
2082.96977	0.16571
2081.04109	0.16592
2079.11242	0.16611
2077.18374	0.16624
2075.25507	0.16638
2073.32639	0.16657
2071.39772	0.16675
2069.46904	0.16690
2067.54036	0.16702
2065.61169	0.16716
2063.68301	0.16736
2061.75434	0.16758
2059.82566	0.16774
2057.89699	0.16788
2055.96831	0.16804
2054.03963	0.16820
2052.11096	0.16835
2050.18228	0.16851
2048.25361	0.16867
2046.32493	0.16884
2044.39626	0.16900
2042.46758	0.16914
2040.53890	0.16926
2038.61023	0.16937
2036.68155	0.16952
2034.75288	0.16972
2032.82420	0.16995
2030.89553	0.17016
2028.96685	0.17033
2027.03817	0.17048
2025.10950	0.17065
2023.18082	0.17083
2021.25215	0.17100
2019.32347	0.17117
2017.39480	0.17133
2015.46612	0.17148
2013.53744	0.17165
2011.60877	0.17181
2009.68009	0.17196
2007.75142	0.17212
2005.82274	0.17231
2003.89407	0.17250
2001.96539	0.17263
2000.03671	0.17277
1998.10804	0.17294
1996.17936	0.17307
1994.25069	0.17312
1992.32201	0.17321
1990.39334	0.17342
1988.46466	0.17367
1986.53598	0.17385
1984.60731	0.17398
1982.67863	0.17411
1980.74996	0.17425
1978.82128	0.17437
1976.89261	0.17449
1974.96393	0.17462
1973.03525	0.17476
1971.10658	0.17489
1969.17790	0.17496
1967.24923	0.17503
1965.32055	0.17520
1963.39188	0.17546
1961.46320	0.17569
1959.53452	0.17585
1957.60585	0.17596
1955.67717	0.17610
1953.74850	0.17626
1951.81982	0.17641
1949.89115	0.17652
1947.96247	0.17665
1946.03379	0.17678
1944.10512	0.17687
1942.17644	0.17700
1940.24777	0.17724
1938.31909	0.17747
1936.39042	0.17763
1934.46174	0.17775
1932.53306	0.17791
1930.60439	0.17810
1928.67571	0.17826
1926.74704	0.17838
1924.81836	0.17849
1922.88969	0.17865
1920.96101	0.17879
1919.03233	0.17887
1917.10366	0.17900
1915.17498	0.17921
1913.24631	0.17941
1911.31763	0.17958
1909.38896	0.17976
1907.46028	0.17996
1905.53160	0.18013
1903.60293	0.18027
1901.67425	0.18042
1899.74558	0.18057
1897.81690	0.18070
1895.88823	0.18085
1893.95955	0.18100
1892.03087	0.18108
1890.10220	0.18113
1888.17352	0.18128
1886.24485	0.18151
1884.31617	0.18171
1882.38750	0.18188
1880.45882	0.18205
1878.53014	0.18223
1876.60147	0.18243
1874.67279	0.18258
1872.74412	0.18264
1870.81544	0.18263
1868.88677	0.18267
1866.95809	0.18289
1865.02941	0.18321
1863.10074	0.18345
1861.17206	0.18362
1859.24339	0.18377
1857.31471	0.18393
1855.38604	0.18414
1853.45736	0.18438
1851.52868	0.18456
1849.60001	0.18460
1847.67133	0.18446
1845.74266	0.18415
1843.81398	0.18418
1841.88531	0.18476
1839.95663	0.18533
1838.02795	0.18559
1836.09928	0.18574
1834.17060	0.18586
1832.24193	0.18586
1830.31325	0.18583
1828.38458	0.18587
1826.45590	0.18596
1824.52722	0.18618
1822.59855	0.18660
1820.66987	0.18693
1818.74120	0.18705
1816.81252	0.18720
1814.88385	0.18743
1812.95517	0.18758
1811.02649	0.18767
1809.09782	0.18784
1807.16914	0.18805
1805.24047	0.18812
1803.31179	0.18805
1801.38312	0.18806
1799.45444	0.18830
1797.52576	0.18855
1795.59709	0.18861
1793.66841	0.18853
1791.73974	0.18853
1789.81106	0.18883
1787.88239	0.18923
1785.95371	0.18940
1784.02503	0.18943
1782.09636	0.18948
1780.16768	0.18956
1778.23901	0.18962
1776.31033	0.18959
1774.38166	0.18943
1772.45298	0.18929
1770.52430	0.18931
1768.59563	0.18954
1766.66695	0.19003
1764.73828	0.19047
1762.80960	0.19062
1760.88093	0.19068
1758.95225	0.19068
1757.02357	0.19066
1755.09490	0.19074
1753.16622	0.19067
1751.23755	0.19034
1749.30887	0.19016
1747.38020	0.19033
1745.45152	0.19057
1743.52284	0.19065
1741.59417	0.19066
1739.66549	0.19069
1737.73682	0.19059
1735.80814	0.19016
1733.87947	0.18983
1731.95079	0.19014
1730.02211	0.19073
1728.09344	0.19119
1726.16476	0.19153
1724.23609	0.19173
1722.30741	0.19173
1720.37874	0.19141
1718.45006	0.19104
1716.52138	0.19112
1714.59271	0.19163
1712.66403	0.19219
1710.73536	0.19254
1708.80668	0.19255
1706.87801	0.19245
1704.94933	0.19253
1703.02065	0.19251
1701.09198	0.19223
1699.16330	0.19207
1697.23463	0.19206
1695.30595	0.19226
1693.37728	0.19284
1691.44860	0.19328
1689.51992	0.19326
1687.59125	0.19295
1685.66257	0.19241
1683.73390	0.19216
1681.80522	0.19255
1679.87655	0.19306
1677.94787	0.19321
1676.01919	0.19316
1674.09052	0.19324
1672.16184	0.19327
1670.23317	0.19314
1668.30449	0.19329
1666.37582	0.19371
1664.44714	0.19390
1662.51846	0.19389
1660.58979	0.19399
1658.66111	0.19411
1656.73244	0.19367
1654.80376	0.19255
1652.87509	0.19207
1650.94641	0.19284
1649.01773	0.19352
1647.08906	0.19356
1645.16038	0.19378
1643.23171	0.19431
1641.30303	0.19457
1639.37436	0.19437
1637.44568	0.19400
1635.51700	0.19395
1633.58833	0.19435
1631.65965	0.19476
1629.73098	0.19487
1627.80230	0.19480
1625.87363	0.19457
1623.94495	0.19415
1622.01627	0.19388
1620.08760	0.19389
1618.15892	0.19414
1616.23025	0.19468
1614.30157	0.19536
1612.37290	0.19589
1610.44422	0.19621
1608.51554	0.19641
1606.58687	0.19660
1604.65819	0.19684
1602.72952	0.19713
1600.80084	0.19743
1598.87217	0.19769
1596.94349	0.19783
1595.01481	0.19791
1593.08614	0.19803
1591.15746	0.19821
1589.22879	0.19840
1587.30011	0.19856
1585.37144	0.19867
1583.44276	0.19878
1581.51408	0.19892
1579.58541	0.19893
1577.65673	0.19878
1575.72806	0.19887
1573.79938	0.19921
1571.87071	0.19924
1569.94203	0.19909
1568.01335	0.19927
1566.08468	0.19963
1564.15600	0.19989
1562.22733	0.19978
1560.29865	0.19911
1558.36998	0.19861
1556.44130	0.19898
1554.51262	0.19972
1552.58395	0.20018
1550.65527	0.20037
1548.72660	0.20060
1546.79792	0.20076
1544.86925	0.20052
1542.94057	0.20000
1541.01189	0.19969
1539.08322	0.19998
1537.15454	0.20066
1535.22587	0.20107
1533.29719	0.20123
1531.36852	0.20147
1529.43984	0.20159
1527.51116	0.20155
1525.58249	0.20155
1523.65381	0.20137
1521.72514	0.20110
1519.79646	0.20117
1517.86779	0.20145
1515.93911	0.20164
1514.01043	0.20174
1512.08176	0.20175
1510.15308	0.20155
1508.22441	0.20126
1506.29573	0.20147
1504.36706	0.20222
1502.43838	0.20275
1500.50970	0.20272
1498.58103	0.20239
1496.65235	0.20221
1494.72368	0.20238
1492.79500	0.20248
1490.86633	0.20219
1488.93765	0.20198
1487.00897	0.20214
1485.08030	0.20229
1483.15162	0.20219
1481.22295	0.20201
1479.29427	0.20180
1477.36560	0.20141
1475.43692	0.20080
1473.50824	0.20035
1471.57957	0.20029
1469.65089	0.20031
1467.72222	0.20008
1465.79354	0.19975
1463.86487	0.19957
1461.93619	0.19934
1460.00751	0.19873
1458.07884	0.19808
1456.15016	0.19805
1454.22149	0.19851
1452.29281	0.19892
1450.36414	0.19903
1448.43546	0.19899
1446.50678	0.19904
1444.57811	0.19923
1442.64943	0.19942
1440.72076	0.19947
1438.79208	0.19929
1436.86341	0.19914
1434.93473	0.19942
1433.00605	0.19986
1431.07738	0.20007
1429.14870	0.20014
1427.22003	0.20017
1425.29135	0.20012
1423.36268	0.20007
1421.43400	0.19994
1419.50532	0.19978
1417.57665	0.19999
1415.64797	0.20042
1413.71930	0.20066
1411.79062	0.20068
1409.86195	0.20064
1407.93327	0.20053
1406.00459	0.20038
1404.07592	0.20041
1402.14724	0.20052
1400.21857	0.20043
1398.28989	0.20022
1396.36122	0.20010
1394.43254	0.20011
1392.50386	0.20022
1390.57519	0.20017
1388.64651	0.19986
1386.71784	0.19951
1384.78916	0.19935
1382.86049	0.19936
1380.93181	0.19939
1379.00313	0.19936
1377.07446	0.19923
1375.14578	0.19912
1373.21711	0.19917
1371.28843	0.19931
1369.35976	0.19936
1367.43108	0.19928
1365.50240	0.19904
1363.57373	0.19880
1361.64505	0.19893
1359.71638	0.19928
1357.78770	0.19944
1355.85903	0.19946
1353.93035	0.19956
1352.00167	0.19971
1350.07300	0.19984
1348.14432	0.19995
1346.21565	0.20005
1344.28697	0.20006
1342.35830	0.19988
1340.42962	0.19960
1338.50094	0.19946
1336.57227	0.19951
1334.64359	0.19958
1332.71492	0.19959
1330.78624	0.19954
1328.85757	0.19940
1326.92889	0.19920
1325.00021	0.19902
1323.07154	0.19889
1321.14286	0.19874
1319.21419	0.19852
1317.28551	0.19830
1315.35684	0.19816
1313.42816	0.19802
1311.49948	0.19779
1309.57081	0.19756
1307.64213	0.19739
1305.71346	0.19720
1303.78478	0.19699
1301.85611	0.19680
1299.92743	0.19662
1297.99875	0.19643
1296.07008	0.19623
1294.14140	0.19603
1292.21273	0.19583
1290.28405	0.19563
1288.35538	0.19546
1286.42670	0.19528
1284.49802	0.19506
1282.56935	0.19482
1280.64067	0.19456
1278.71200	0.19424
1276.78332	0.19385
1274.85465	0.19340
1272.92597	0.19288
1270.99729	0.19224
1269.06862	0.19146
1267.13994	0.19058
1265.21127	0.18972
1263.28259	0.18913
1261.35392	0.18894
1259.42524	0.18900
1257.49656	0.18916
1255.56789	0.18933
1253.63921	0.18941
1251.71054	0.18935
1249.78186	0.18910
1247.85319	0.18875
1245.92451	0.18834
1243.99583	0.18791
1242.06716	0.18752
1240.13848	0.18713
1238.20981	0.18669
1236.28113	0.18618
1234.35246	0.18562
1232.42378	0.18505
1230.49510	0.18449
1228.56643	0.18395
1226.63775	0.18343
1224.70908	0.18288
1222.78040	0.18235
1220.85173	0.18185
1218.92305	0.18137
1216.99437	0.18090
1215.06570	0.18043
1213.13702	0.17993
1211.20835	0.17937
1209.27967	0.17877
1207.35100	0.17821
1205.42232	0.17769
1203.49364	0.17715
1201.56497	0.17657
1199.63629	0.17602
1197.70762	0.17548
1195.77894	0.17490
1193.85027	0.17422
1191.92159	0.17351
1189.99291	0.17283
1188.06424	0.17216
1186.13556	0.17145
1184.20689	0.17062
1182.27821	0.16971
1180.34954	0.16882
1178.42086	0.16797
1176.49218	0.16717
1174.56351	0.16640
1172.63483	0.16562
1170.70616	0.16482
1168.77748	0.16395
1166.84881	0.16302
1164.92013	0.16214
1162.99145	0.16136
1161.06278	0.16058
1159.13410	0.15977
1157.20543	0.15895
1155.27675	0.15814
1153.34808	0.15734
1151.41940	0.15656
1149.49072	0.15581
1147.56205	0.15501
1145.63337	0.15417
1143.70470	0.15330
1141.77602	0.15234
1139.84735	0.15128
1137.91867	0.15021
1135.98999	0.14909
1134.06132	0.14782
1132.13264	0.14628
1130.20397	0.14447
1128.27529	0.14247
1126.34662	0.14028
1124.41794	0.13792
1122.48926	0.13556
1120.56059	0.13329
1118.63191	0.13104
1116.70324	0.12892
1114.77456	0.12706
1112.84589	0.12554
1110.91721	0.12428
1108.98853	0.12325
1107.05986	0.12248
1105.13118	0.12204
1103.20251	0.12196
1101.27383	0.12216
1099.34516	0.12256
1097.41648	0.12311
1095.48780	0.12380
1093.55913	0.12461
1091.63045	0.12548
1089.70178	0.12630
1087.77310	0.12703
1085.84443	0.12765
1083.91575	0.12818
1081.98707	0.12863
1080.05840	0.12896
1078.12972	0.12915
1076.20105	0.12927
1074.27237	0.12940
1072.34370	0.12948
1070.41502	0.12953
1068.48634	0.12965
1066.55767	0.12985
1064.62899	0.13009
1062.70032	0.13030
1060.77164	0.13046
1058.84297	0.13068
1056.91429	0.13100
1054.98561	0.13130
1053.05694	0.13160
1051.12826	0.13197
1049.19959	0.13234
1047.27091	0.13266
1045.34224	0.13298
1043.41356	0.13330
1041.48488	0.13365
1039.55621	0.13406
1037.62753	0.13451
1035.69886	0.13493
1033.77018	0.13534
1031.84151	0.13570
1029.91283	0.13600
1027.98415	0.13629
1026.05548	0.13665
1024.12680	0.13705
1022.19813	0.13744
1020.26945	0.13781
1018.34078	0.13819
1016.41210	0.13866
1014.48342	0.13923
1012.55475	0.13984
1010.62607	0.14046
1008.69740	0.14107
1006.76872	0.14156
1004.84005	0.14197
1002.91137	0.14237
1000.98269	0.14273
999.05402	0.14307
997.12534	0.14336
995.19667	0.14355
993.26799	0.14363
991.33932	0.14367
989.41064	0.14371
987.48196	0.14372
985.55329	0.14373
983.62461	0.14378
981.69594	0.14382
979.76726	0.14374
977.83859	0.14351
975.90991	0.14324
973.98123	0.14304
972.05256	0.14289
970.12388	0.14274
968.19521	0.14262
966.26653	0.14252
964.33786	0.14236
962.40918	0.14216
960.48050	0.14198
958.55183	0.14183
956.62315	0.14168
954.69448	0.14151
952.76580	0.14128
950.83713	0.14102
948.90845	0.14078
946.97977	0.14061
945.05110	0.14047
943.12242	0.14025
941.19375	0.13991
939.26507	0.13946
937.33640	0.13892
935.40772	0.13844
933.47904	0.13800
931.55037	0.13752
929.62169	0.13697
927.69302	0.13637
925.76434	0.13572
923.83567	0.13512
921.90699	0.13465
919.97831	0.13418
918.04964	0.13359
916.12096	0.13291
914.19229	0.13216
912.26361	0.13129
910.33494	0.13041
908.40626	0.12970
906.47758	0.12913
904.54891	0.12859
902.62023	0.12803
900.69156	0.12744
898.76288	0.12683
896.83421	0.12626
894.90553	0.12576
892.97685	0.12528
891.04818	0.12482
889.11950	0.12445
887.19083	0.12413
885.26215	0.12369
883.33348	0.12316
881.40480	0.12272
879.47612	0.12239
877.54745	0.12212
875.61877	0.12186
873.69010	0.12162
871.76142	0.12148
869.83275	0.12137
867.90407	0.12114
865.97539	0.12088
864.04672	0.12070
862.11804	0.12055
860.18937	0.12044
858.26069	0.12040
856.33202	0.12034
854.40334	0.12019
852.47466	0.11996
850.54599	0.11969
848.61731	0.11939
846.68864	0.11906
844.75996	0.11872
842.83129	0.11845
840.90261	0.11822
838.97394	0.11790
837.04526	0.11744
835.11658	0.11686
833.18791	0.11613
831.25923	0.11523
829.33056	0.11424
827.40188	0.11320
825.47321	0.11220
823.54453	0.11130
821.61585	0.11047
819.68718	0.10974
817.75850	0.10916
815.82983	0.10877
813.90115	0.10851
811.97248	0.10826
810.04380	0.10797
808.11512	0.10774
806.18645	0.10760
804.25777	0.10754
802.32910	0.10755
800.40042	0.10743
798.47175	0.10696
796.54307	0.10623
794.61439	0.10558
792.68572	0.10519
790.75704	0.10497
788.82837	0.10471
786.89969	0.10447
784.97102	0.10425
783.04234	0.10401
781.11366	0.10369
779.18499	0.10331
777.25631	0.10298
775.32764	0.10275
773.39896	0.10252
771.47029	0.10223
769.54161	0.10188
767.61293	0.10150
765.68426	0.10113
763.75558	0.10074
761.82691	0.10027
759.89823	0.09980
757.96956	0.09931
756.04088	0.09873
754.11220	0.09812
752.18353	0.09748
750.25485	0.09676
748.32618	0.09600
746.39750	0.09526
744.46883	0.09445
742.54015	0.09349
740.61147	0.09262
738.68280	0.09213
736.75412	0.09200
734.82545	0.09200
732.89677	0.09204
730.96810	0.09208
729.03942	0.09215
727.11074	0.09226
725.18207	0.09241
723.25339	0.09259
721.32472	0.09275
719.39604	0.09293
717.46737	0.09317
715.53869	0.09351
713.61001	0.09391
711.68134	0.09427
709.75266	0.09449
707.82399	0.09457
705.89531	0.09454
703.96664	0.09444
702.03796	0.09421
700.10928	0.09376
698.18061	0.09319
696.25193	0.09260
694.32326	0.09202
692.39458	0.09151
690.46591	0.09110
688.53723	0.09067
686.60855	0.09013
684.67988	0.08950
682.75120	0.08891
680.82253	0.08842
678.89385	0.08793
676.96518	0.08737
675.03650	0.08669
673.10782	0.08594
671.17915	0.08513
669.25047	0.08431
667.32180	0.08361
665.39312	0.08296
663.46445	0.08221
661.53577	0.08130
659.60709	0.08035
657.67842	0.07953
655.74974	0.07879
653.82107	0.07807
651.89239	0.07737
649.96372	0.07664
648.03504	0.07582
646.10636	0.07487
644.17769	0.07386
642.24901	0.07283
640.32034	0.07180
638.39166	0.07075
636.46299	0.06972
634.53431	0.06868
632.60563	0.06728
630.67696	0.06494
628.74828	0.06146
626.81961	0.05712
624.89093	0.05277
622.96226	0.04929
621.03358	0.04699
619.10490	0.04573
617.17623	0.04503
615.24755	0.04434
613.31888	0.04339
611.39020	0.04231
609.46153	0.04165
607.53285	0.04169
605.60417	0.04211
603.67550	0.04262
601.74682	0.04331
599.81815	0.04427
597.88947	0.04516
595.96080	0.04578
594.03212	0.04626
592.10344	0.04662
590.17477	0.04679
588.24609	0.04674
586.31742	0.04658
584.38874	0.04632
582.46007	0.04596
580.53139	0.04556
578.60271	0.04515
576.67404	0.04469
574.74536	0.04417
572.81669	0.04358
570.88801	0.04293
568.95934	0.04231
567.03066	0.04182
565.10198	0.04146
563.17331	0.04114
561.24463	0.04086
559.31596	0.04062
557.38728	0.04033
555.45861	0.04007
553.52993	0.03989
551.60125	0.03972
549.67258	0.03955
547.74390	0.03935
545.81523	0.03917
543.88655	0.03908
541.95788	0.03902
540.02920	0.03886
538.10052	0.03863
536.17185	0.03835
534.24317	0.03808
532.31450	0.03785
530.38582	0.03760
528.45715	0.03733
526.52847	0.03706
524.59979	0.03671
522.67112	0.03629
520.74244	0.03587
518.81377	0.03536
516.88509	0.03473
514.95642	0.03412
513.02774	0.03374
511.09906	0.03362
509.17039	0.03352
507.24171	0.03329
505.31304	0.03298
503.38436	0.03269
501.45569	0.03241
499.52701	0.03202
497.59833	0.03146
495.66966	0.03078
493.74098	0.03015
491.81231	0.02965
489.88363	0.02918
487.95496	0.02862
486.02628	0.02802
484.09760	0.02749
482.16893	0.02699
480.24025	0.02649
478.31158	0.02600
476.38290	0.02550
474.45423	0.02491
472.52555	0.02432
470.59687	0.02387
468.66820	0.02348
466.73952	0.02303
464.81085	0.02262
462.88217	0.02241
460.95350	0.02239
459.02482	0.02247
457.09614	0.02257
455.16747	0.02260
453.23879	0.02246
451.31012	0.02231
449.38144	0.02227
447.45277	0.02219
445.52409	0.02201
443.59541	0.02179
441.66674	0.02152
439.73806	0.02118
437.80939	0.02080
435.88071	0.02032
433.95204	0.01977
432.02336	0.01919
430.09468	0.01860
428.16601	0.01794
426.23733	0.01723
424.30866	0.01663
422.37998	0.01611
420.45131	0.01546
418.52263	0.01474
416.59395	0.01408
414.66528	0.01348
412.73660	0.01291
410.80793	0.01237
408.87925	0.01179
406.95058	0.01116
405.02190	0.01048
403.09322	0.00981
401.16455	0.00925
399.23587	0.00872
397.30720	0.00819
395.37852	0.00764
393.44985	0.00703
391.52117	0.00646
389.59249	0.00603
387.66382	0.00572
385.73514	0.00541
383.80647	0.00505
381.87779	0.00462
379.94912	0.00415
378.02044	0.00374
376.09176	0.00349
374.16309	0.00330
372.23441	0.00301
370.30574	0.00266
368.37706	0.00237
