7496.76250	0.00113
7494.83382	0.00113
7492.90514	0.00113
7490.97647	0.00114
7489.04779	0.00116
7487.11912	0.00116
7485.19044	0.00116
7483.26177	0.00117
7481.33309	0.00118
7479.40441	0.00118
7477.47574	0.00118
7475.54706	0.00117
7473.61839	0.00117
7471.68971	0.00118
7469.76104	0.00119
7467.83236	0.00120
7465.90368	0.00119
7463.97501	0.00120
7462.04633	0.00121
7460.11766	0.00122
7458.18898	0.00123
7456.26031	0.00124
7454.33163	0.00123
7452.40295	0.00123
7450.47428	0.00122
7448.54560	0.00122
7446.61693	0.00122
7444.68825	0.00122
7442.75958	0.00123
7440.83090	0.00125
7438.90222	0.00125
7436.97355	0.00125
7435.04487	0.00124
7433.11620	0.00125
7431.18752	0.00126
7429.25885	0.00126
7427.33017	0.00127
7425.40149	0.00129
7423.47282	0.00129
7421.54414	0.00128
7419.61547	0.00127
7417.68679	0.00127
7415.75812	0.00128
7413.82944	0.00129
7411.90076	0.00130
7409.97209	0.00131
7408.04341	0.00130
7406.11474	0.00128
7404.18606	0.00128
7402.25739	0.00128
7400.32871	0.00129
7398.40003	0.00130
7396.47136	0.00133
7394.54268	0.00134
7392.61401	0.00133
7390.68533	0.00133
7388.75666	0.00133
7386.82798	0.00135
7384.89930	0.00135
7382.97063	0.00135
7381.04195	0.00135
7379.11328	0.00136
7377.18460	0.00137
7375.25593	0.00138
7373.32725	0.00138
7371.39857	0.00137
7369.46990	0.00137
7367.54122	0.00137
7365.61255	0.00138
7363.68387	0.00140
7361.75520	0.00141
7359.82652	0.00140
7357.89784	0.00139
7355.96917	0.00139
7354.04049	0.00139
7352.11182	0.00140
7350.18314	0.00141
7348.25447	0.00140
7346.32579	0.00139
7344.39711	0.00139
7342.46844	0.00140
7340.53976	0.00142
7338.61109	0.00143
7336.68241	0.00144
7334.75374	0.00145
7332.82506	0.00145
7330.89638	0.00144
7328.96771	0.00144
7327.03903	0.00144
7325.11036	0.00144
7323.18168	0.00144
7321.25301	0.00145
7319.32433	0.00146
7317.39565	0.00146
7315.46698	0.00146
7313.53830	0.00147
7311.60963	0.00149
7309.68095	0.00150
7307.75228	0.00149
7305.82360	0.00149
7303.89492	0.00149
7301.96625	0.00149
7300.03757	0.00149
7298.10890	0.00150
7296.18022	0.00150
7294.25155	0.00151
7292.32287	0.00151
7290.39419	0.00152
7288.46552	0.00152
7286.53684	0.00154
7284.60817	0.00154
7282.67949	0.00152
7280.75082	0.00152
7278.82214	0.00152
7276.89346	0.00152
7274.96479	0.00152
7273.03611	0.00153
7271.10744	0.00152
7269.17876	0.00152
7267.25009	0.00152
7265.32141	0.00153
7263.39273	0.00155
7261.46406	0.00155
7259.53538	0.00155
7257.60671	0.00156
7255.67803	0.00156
7253.74936	0.00157
7251.82068	0.00160
7249.89200	0.00161
7247.96333	0.00161
7246.03465	0.00161
7244.10598	0.00161
7242.17730	0.00161
7240.24863	0.00161
7238.31995	0.00161
7236.39127	0.00161
7234.46260	0.00161
7232.53392	0.00162
7230.60525	0.00164
7228.67657	0.00164
7226.74790	0.00164
7224.81922	0.00163
7222.89054	0.00163
7220.96187	0.00161
7219.03319	0.00161
7217.10452	0.00163
7215.17584	0.00165
7213.24717	0.00164
7211.31849	0.00164
7209.38981	0.00164
7207.46114	0.00164
7205.53246	0.00164
7203.60379	0.00164
7201.67511	0.00165
7199.74644	0.00167
7197.81776	0.00168
7195.88908	0.00170
7193.96041	0.00170
7192.03173	0.00169
7190.10306	0.00167
7188.17438	0.00168
7186.24571	0.00169
7184.31703	0.00170
7182.38835	0.00170
7180.45968	0.00171
7178.53100	0.00173
7176.60233	0.00174
7174.67365	0.00173
7172.74498	0.00171
7170.81630	0.00170
7168.88762	0.00170
7166.95895	0.00172
7165.03027	0.00175
7163.10160	0.00176
7161.17292	0.00176
7159.24425	0.00176
7157.31557	0.00175
7155.38689	0.00175
7153.45822	0.00175
7151.52954	0.00174
7149.60087	0.00174
7147.67219	0.00176
7145.74352	0.00178
7143.81484	0.00181
7141.88616	0.00181
7139.95749	0.00181
7138.02881	0.00179
7136.10014	0.00179
7134.17146	0.00179
7132.24279	0.00180
7130.31411	0.00182
7128.38543	0.00183
7126.45676	0.00184
7124.52808	0.00183
7122.59941	0.00182
7120.67073	0.00181
7118.74206	0.00181
7116.81338	0.00181
7114.88470	0.00182
7112.95603	0.00183
7111.02735	0.00185
7109.09868	0.00186
7107.17000	0.00186
7105.24133	0.00187
7103.31265	0.00187
7101.38397	0.00187
7099.45530	0.00186
7097.52662	0.00185
7095.59795	0.00185
7093.66927	0.00185
7091.74060	0.00187
7089.81192	0.00189
7087.88324	0.00189
7085.95457	0.00189
7084.02589	0.00190
7082.09722	0.00191
7080.16854	0.00192
7078.23987	0.00192
7076.31119	0.00192
7074.38251	0.00192
7072.45384	0.00194
7070.52516	0.00195
7068.59649	0.00195
7066.66781	0.00196
7064.73914	0.00196
7062.81046	0.00196
7060.88178	0.00196
7058.95311	0.00197
7057.02443	0.00199
7055.09576	0.00201
7053.16708	0.00202
7051.23841	0.00202
7049.30973	0.00202
7047.38105	0.00200
7045.45238	0.00199
7043.52370	0.00198
7041.59503	0.00199
7039.66635	0.00200
7037.73768	0.00201
7035.80900	0.00201
7033.88032	0.00200
7031.95165	0.00199
7030.02297	0.00200
7028.09430	0.00202
7026.16562	0.00203
7024.23695	0.00204
7022.30827	0.00206
7020.37959	0.00207
7018.45092	0.00207
7016.52224	0.00205
7014.59357	0.00205
7012.66489	0.00206
7010.73622	0.00207
7008.80754	0.00208
7006.87886	0.00208
7004.95019	0.00210
7003.02151	0.00212
7001.09284	0.00211
6999.16416	0.00209
6997.23549	0.00208
6995.30681	0.00208
6993.37813	0.00210
6991.44946	0.00211
6989.52078	0.00212
6987.59211	0.00212
6985.66343	0.00213
6983.73476	0.00214
6981.80608	0.00215
6979.87740	0.00216
6977.94873	0.00216
6976.02005	0.00216
6974.09138	0.00216
6972.16270	0.00217
6970.23403	0.00217
6968.30535	0.00217
6966.37667	0.00216
6964.44800	0.00216
6962.51932	0.00215
6960.59065	0.00216
6958.66197	0.00218
6956.73330	0.00220
6954.80462	0.00221
6952.87594	0.00222
6950.94727	0.00221
6949.01859	0.00221
6947.08992	0.00221
6945.16124	0.00221
6943.23257	0.00223
6941.30389	0.00226
6939.37521	0.00226
6937.44654	0.00227
6935.51786	0.00228
6933.58919	0.00228
6931.66051	0.00228
6929.73184	0.00227
6927.80316	0.00228
6925.87448	0.00229
6923.94581	0.00228
6922.01713	0.00228
6920.08846	0.00230
6918.15978	0.00232
6916.23111	0.00233
6914.30243	0.00233
6912.37375	0.00232
6910.44508	0.00231
6908.51640	0.00232
6906.58773	0.00232
6904.65905	0.00233
6902.73038	0.00234
6900.80170	0.00234
6898.87302	0.00234
6896.94435	0.00235
6895.01567	0.00236
6893.08700	0.00238
6891.15832	0.00239
6889.22965	0.00238
6887.30097	0.00237
6885.37229	0.00237
6883.44362	0.00238
6881.51494	0.00240
6879.58627	0.00241
6877.65759	0.00241
6875.72892	0.00241
6873.80024	0.00241
6871.87156	0.00240
6869.94289	0.00240
6868.01421	0.00241
6866.08554	0.00243
6864.15686	0.00244
6862.22819	0.00245
6860.29951	0.00245
6858.37083	0.00245
6856.44216	0.00245
6854.51348	0.00245
6852.58481	0.00244
6850.65613	0.00245
6848.72746	0.00246
6846.79878	0.00247
6844.87010	0.00247
6842.94143	0.00247
6841.01275	0.00248
6839.08408	0.00249
6837.15540	0.00249
6835.22673	0.00249
6833.29805	0.00250
6831.36937	0.00250
6829.44070	0.00250
6827.51202	0.00251
6825.58335	0.00252
6823.65467	0.00253
6821.72600	0.00253
6819.79732	0.00253
6817.86864	0.00255
6815.93997	0.00255
6814.01129	0.00256
6812.08262	0.00258
6810.15394	0.00259
6808.22527	0.00259
6806.29659	0.00259
6804.36791	0.00259
6802.43924	0.00260
6800.51056	0.00260
6798.58189	0.00262
6796.65321	0.00263
6794.72454	0.00263
6792.79586	0.00265
6790.86718	0.00267
6788.93851	0.00266
6787.00983	0.00265
6785.08116	0.00266
6783.15248	0.00266
6781.22381	0.00266
6779.29513	0.00265
6777.36645	0.00265
6775.43778	0.00267
6773.50910	0.00268
6771.58043	0.00268
6769.65175	0.00268
6767.72308	0.00268
6765.79440	0.00269
6763.86572	0.00270
6761.93705	0.00272
6760.00837	0.00272
6758.07970	0.00272
6756.15102	0.00272
6754.22235	0.00273
6752.29367	0.00275
6750.36499	0.00275
6748.43632	0.00275
6746.50764	0.00277
6744.57897	0.00278
6742.65029	0.00278
6740.72162	0.00278
6738.79294	0.00278
6736.86426	0.00277
6734.93559	0.00276
6733.00691	0.00278
6731.07824	0.00281
6729.14956	0.00282
6727.22089	0.00282
6725.29221	0.00283
6723.36353	0.00285
6721.43486	0.00287
6719.50618	0.00288
6717.57751	0.00288
6715.64883	0.00287
6713.72016	0.00287
6711.79148	0.00288
6709.86280	0.00288
6707.93413	0.00288
6706.00545	0.00288
6704.07678	0.00290
6702.14810	0.00291
6700.21943	0.00292
6698.29075	0.00291
6696.36207	0.00290
6694.43340	0.00290
6692.50472	0.00290
6690.57605	0.00292
6688.64737	0.00293
6686.71870	0.00294
6684.79002	0.00296
6682.86134	0.00297
6680.93267	0.00297
6679.00399	0.00296
6677.07532	0.00297
6675.14664	0.00300
6673.21797	0.00301
6671.28929	0.00300
6669.36061	0.00299
6667.43194	0.00299
6665.50326	0.00300
6663.57459	0.00301
6661.64591	0.00302
6659.71724	0.00303
6657.78856	0.00304
6655.85988	0.00305
6653.93121	0.00305
6652.00253	0.00305
6650.07386	0.00305
6648.14518	0.00305
6646.21651	0.00307
6644.28783	0.00309
6642.35915	0.00309
6640.43048	0.00310
6638.50180	0.00311
6636.57313	0.00313
6634.64445	0.00314
6632.71578	0.00315
6630.78710	0.00314
6628.85842	0.00314
6626.92975	0.00314
6625.00107	0.00314
6623.07240	0.00314
6621.14372	0.00315
6619.21505	0.00316
6617.28637	0.00317
6615.35769	0.00317
6613.42902	0.00318
6611.50034	0.00319
6609.57167	0.00319
6607.64299	0.00320
6605.71432	0.00320
6603.78564	0.00321
6601.85696	0.00322
6599.92829	0.00323
6597.99961	0.00324
6596.07094	0.00324
6594.14226	0.00323
6592.21359	0.00323
6590.28491	0.00325
6588.35623	0.00327
6586.42756	0.00327
6584.49888	0.00328
6582.57021	0.00329
6580.64153	0.00328
6578.71286	0.00327
6576.78418	0.00328
6574.85550	0.00330
6572.92683	0.00331
6570.99815	0.00331
6569.06948	0.00332
6567.14080	0.00333
6565.21213	0.00334
6563.28345	0.00335
6561.35477	0.00337
6559.42610	0.00339
6557.49742	0.00340
6555.56875	0.00339
6553.64007	0.00337
6551.71140	0.00337
6549.78272	0.00338
6547.85404	0.00339
6545.92537	0.00340
6543.99669	0.00341
6542.06802	0.00341
6540.13934	0.00342
6538.21067	0.00345
6536.28199	0.00346
6534.35331	0.00347
6532.42464	0.00347
6530.49596	0.00346
6528.56729	0.00347
6526.63861	0.00348
6524.70994	0.00349
6522.78126	0.00349
6520.85258	0.00352
6518.92391	0.00354
6516.99523	0.00354
6515.06656	0.00355
6513.13788	0.00355
6511.20921	0.00355
6509.28053	0.00354
6507.35185	0.00354
6505.42318	0.00354
6503.49450	0.00354
6501.56583	0.00356
6499.63715	0.00360
6497.70848	0.00362
6495.77980	0.00363
6493.85112	0.00362
6491.92245	0.00362
6489.99377	0.00363
6488.06510	0.00364
6486.13642	0.00363
6484.20775	0.00363
6482.27907	0.00364
6480.35039	0.00365
6478.42172	0.00366
6476.49304	0.00368
6474.56437	0.00370
6472.63569	0.00370
6470.70702	0.00369
6468.77834	0.00370
6466.84966	0.00371
6464.92099	0.00372
6462.99231	0.00373
6461.06364	0.00374
6459.13496	0.00375
6457.20629	0.00377
6455.27761	0.00378
6453.34893	0.00380
6451.42026	0.00380
6449.49158	0.00381
6447.56291	0.00383
6445.63423	0.00384
6443.70556	0.00383
6441.77688	0.00383
6439.84820	0.00384
6437.91953	0.00385
6435.99085	0.00385
6434.06218	0.00384
6432.13350	0.00384
6430.20483	0.00384
6428.27615	0.00385
6426.34747	0.00386
6424.41880	0.00387
6422.49012	0.00388
6420.56145	0.00389
6418.63277	0.00391
6416.70410	0.00394
6414.77542	0.00397
6412.84674	0.00397
6410.91807	0.00399
6408.98939	0.00399
6407.06072	0.00400
6405.13204	0.00400
6403.20337	0.00401
6401.27469	0.00401
6399.34601	0.00401
6397.41734	0.00400
6395.48866	0.00400
6393.55999	0.00401
6391.63131	0.00402
6389.70264	0.00402
6387.77396	0.00403
6385.84528	0.00406
6383.91661	0.00409
6381.98793	0.00411
6380.05926	0.00411
6378.13058	0.00411
6376.20191	0.00411
6374.27323	0.00411
6372.34455	0.00411
6370.41588	0.00411
6368.48720	0.00411
6366.55853	0.00412
6364.62985	0.00414
6362.70118	0.00417
6360.77250	0.00418
6358.84382	0.00419
6356.91515	0.00420
6354.98647	0.00421
6353.05780	0.00422
6351.12912	0.00424
6349.20045	0.00426
6347.27177	0.00427
6345.34309	0.00427
6343.41442	0.00429
6341.48574	0.00429
6339.55707	0.00429
6337.62839	0.00429
6335.69972	0.00429
6333.77104	0.00430
6331.84236	0.00431
6329.91369	0.00433
6327.98501	0.00434
6326.05634	0.00434
6324.12766	0.00435
6322.19899	0.00436
6320.27031	0.00438
6318.34163	0.00439
6316.41296	0.00439
6314.48428	0.00438
6312.55561	0.00438
6310.62693	0.00439
6308.69826	0.00441
6306.76958	0.00442
6304.84090	0.00444
6302.91223	0.00446
6300.98355	0.00448
6299.05488	0.00449
6297.12620	0.00450
6295.19753	0.00449
6293.26885	0.00449
6291.34017	0.00450
6289.41150	0.00450
6287.48282	0.00450
6285.55415	0.00450
6283.62547	0.00450
6281.69680	0.00452
6279.76812	0.00455
6277.83944	0.00457
6275.91077	0.00459
6273.98209	0.00461
6272.05342	0.00463
6270.12474	0.00464
6268.19607	0.00463
6266.26739	0.00463
6264.33871	0.00463
6262.41004	0.00463
6260.48136	0.00464
6258.55269	0.00466
6256.62401	0.00467
6254.69534	0.00469
6252.76666	0.00470
6250.83798	0.00470
6248.90931	0.00469
6246.98063	0.00469
6245.05196	0.00471
6243.12328	0.00474
6241.19461	0.00476
6239.26593	0.00477
6237.33725	0.00478
6235.40858	0.00478
6233.47990	0.00479
6231.55123	0.00481
6229.62255	0.00483
6227.69388	0.00484
6225.76520	0.00485
6223.83652	0.00486
6221.90785	0.00487
6219.97917	0.00489
6218.05050	0.00492
6216.12182	0.00492
6214.19315	0.00491
6212.26447	0.00489
6210.33579	0.00490
6208.40712	0.00492
6206.47844	0.00494
6204.54977	0.00495
6202.62109	0.00495
6200.69242	0.00495
6198.76374	0.00496
6196.83506	0.00497
6194.90639	0.00498
6192.97771	0.00500
6191.04904	0.00502
6189.12036	0.00504
6187.19169	0.00505
6185.26301	0.00505
6183.33433	0.00504
6181.40566	0.00505
6179.47698	0.00506
6177.54831	0.00508
6175.61963	0.00511
6173.69096	0.00512
6171.76228	0.00513
6169.83360	0.00514
6167.90493	0.00516
6165.97625	0.00518
6164.04758	0.00519
6162.11890	0.00520
6160.19023	0.00520
6158.26155	0.00521
6156.33287	0.00521
6154.40420	0.00520
6152.47552	0.00520
6150.54685	0.00521
6148.61817	0.00522
6146.68950	0.00523
6144.76082	0.00524
6142.83214	0.00527
6140.90347	0.00530
6138.97479	0.00532
6137.04612	0.00533
6135.11744	0.00532
6133.18877	0.00532
6131.26009	0.00534
6129.33141	0.00537
6127.40274	0.00538
6125.47406	0.00538
6123.54539	0.00540
6121.61671	0.00542
6119.68804	0.00544
6117.75936	0.00546
6115.83068	0.00547
6113.90201	0.00546
6111.97333	0.00546
6110.04466	0.00546
6108.11598	0.00548
6106.18731	0.00550
6104.25863	0.00551
6102.32995	0.00551
6100.40128	0.00551
6098.47260	0.00552
6096.54393	0.00554
6094.61525	0.00555
6092.68658	0.00557
6090.75790	0.00559
6088.82922	0.00561
6086.90055	0.00563
6084.97187	0.00564
6083.04320	0.00564
6081.11452	0.00564
6079.18585	0.00564
6077.25717	0.00565
6075.32849	0.00567
6073.39982	0.00568
6071.47114	0.00568
6069.54247	0.00569
6067.61379	0.00571
6065.68512	0.00574
6063.75644	0.00576
6061.82776	0.00579
6059.89909	0.00581
6057.97041	0.00583
6056.04174	0.00583
6054.11306	0.00583
6052.18439	0.00583
6050.25571	0.00584
6048.32703	0.00586
6046.39836	0.00587
6044.46968	0.00587
6042.54101	0.00588
6040.61233	0.00589
6038.68366	0.00590
6036.75498	0.00591
6034.82630	0.00593
6032.89763	0.00596
6030.96895	0.00597
6029.04028	0.00597
6027.11160	0.00595
6025.18293	0.00596
6023.25425	0.00598
6021.32557	0.00601
6019.39690	0.00602
6017.46822	0.00603
6015.53955	0.00605
6013.61087	0.00607
6011.68220	0.00609
6009.75352	0.00612
6007.82484	0.00614
6005.89617	0.00614
6003.96749	0.00613
6002.03882	0.00614
6000.11014	0.00617
5998.18147	0.00618
5996.25279	0.00618
5994.32411	0.00619
5992.39544	0.00620
5990.46676	0.00622
5988.53809	0.00625
5986.60941	0.00627
5984.68074	0.00628
5982.75206	0.00628
5980.82338	0.00628
5978.89471	0.00629
5976.96603	0.00633
5975.03736	0.00636
5973.10868	0.00638
5971.18001	0.00637
5969.25133	0.00636
5967.32265	0.00635
5965.39398	0.00637
5963.46530	0.00639
5961.53663	0.00641
5959.60795	0.00643
5957.67928	0.00645
5955.75060	0.00645
5953.82192	0.00646
5951.89325	0.00647
5949.96457	0.00648
5948.03590	0.00649
5946.10722	0.00649
5944.17855	0.00650
5942.24987	0.00652
5940.32119	0.00655
5938.39252	0.00657
5936.46384	0.00658
5934.53517	0.00659
5932.60649	0.00660
5930.67782	0.00662
5928.74914	0.00663
5926.82046	0.00665
5924.89179	0.00667
5922.96311	0.00669
5921.03444	0.00671
5919.10576	0.00673
5917.17709	0.00673
5915.24841	0.00672
5913.31973	0.00673
5911.39106	0.00675
5909.46238	0.00679
5907.53371	0.00682
5905.60503	0.00683
5903.67636	0.00683
5901.74768	0.00685
5899.81900	0.00687
5897.89033	0.00688
5895.96165	0.00689
5894.03298	0.00693
5892.10430	0.00697
5890.17563	0.00697
5888.24695	0.00697
5886.31827	0.00697
5884.38960	0.00697
5882.46092	0.00698
5880.53225	0.00699
5878.60357	0.00701
5876.67490	0.00704
5874.74622	0.00705
5872.81755	0.00705
5870.88887	0.00706
5868.96019	0.00707
5867.03152	0.00709
5865.10284	0.00711
5863.17417	0.00712
5861.24549	0.00712
5859.31682	0.00711
5857.38814	0.00711
5855.45946	0.00714
5853.53079	0.00719
5851.60211	0.00721
5849.67344	0.00723
5847.74476	0.00723
5845.81609	0.00725
5843.88741	0.00728
5841.95873	0.00730
5840.03006	0.00731
5838.10138	0.00732
5836.17271	0.00733
5834.24403	0.00734
5832.31536	0.00736
5830.38668	0.00737
5828.45800	0.00738
5826.52933	0.00741
5824.60065	0.00743
5822.67198	0.00743
5820.74330	0.00745
5818.81463	0.00747
5816.88595	0.00748
5814.95727	0.00749
5813.02860	0.00749
5811.09992	0.00750
5809.17125	0.00753
5807.24257	0.00755
5805.31390	0.00756
5803.38522	0.00758
5801.45654	0.00760
5799.52787	0.00762
5797.59919	0.00764
5795.67052	0.00766
5793.74184	0.00768
5791.81317	0.00769
5789.88449	0.00768
5787.95581	0.00770
5786.02714	0.00773
5784.09846	0.00776
5782.16979	0.00778
5780.24111	0.00778
5778.31244	0.00779
5776.38376	0.00781
5774.45508	0.00784
5772.52641	0.00786
5770.59773	0.00786
5768.66906	0.00786
5766.74038	0.00785
5764.81171	0.00786
5762.88303	0.00790
5760.95435	0.00793
5759.02568	0.00795
5757.09700	0.00795
5755.16833	0.00796
5753.23965	0.00799
5751.31098	0.00801
5749.38230	0.00802
5747.45362	0.00802
5745.52495	0.00803
5743.59627	0.00806
5741.66760	0.00809
5739.73892	0.00811
5737.81025	0.00811
5735.88157	0.00812
5733.95289	0.00814
5732.02422	0.00817
5730.09554	0.00819
5728.16687	0.00820
5726.23819	0.00822
5724.30952	0.00823
5722.38084	0.00825
5720.45216	0.00828
5718.52349	0.00829
5716.59481	0.00830
5714.66614	0.00832
5712.73746	0.00834
5710.80879	0.00834
5708.88011	0.00834
5706.95143	0.00835
5705.02276	0.00837
5703.09408	0.00840
5701.16541	0.00844
5699.23673	0.00848
5697.30806	0.00852
5695.37938	0.00853
5693.45070	0.00853
5691.52203	0.00853
5689.59335	0.00854
5687.66468	0.00855
5685.73600	0.00857
5683.80733	0.00859
5681.87865	0.00859
5679.94997	0.00862
5678.02130	0.00865
5676.09262	0.00866
5674.16395	0.00868
5672.23527	0.00872
5670.30660	0.00875
5668.37792	0.00875
5666.44924	0.00875
5664.52057	0.00875
5662.59189	0.00878
5660.66322	0.00880
5658.73454	0.00881
5656.80587	0.00883
5654.87719	0.00885
5652.94851	0.00885
5651.01984	0.00886
5649.09116	0.00888
5647.16249	0.00890
5645.23381	0.00892
5643.30514	0.00894
5641.37646	0.00897
5639.44778	0.00900
5637.51911	0.00902
5635.59043	0.00904
5633.66176	0.00905
5631.73308	0.00907
5629.80441	0.00909
5627.87573	0.00909
5625.94705	0.00910
5624.01838	0.00913
5622.08970	0.00915
5620.16103	0.00916
5618.23235	0.00917
5616.30368	0.00919
5614.37500	0.00922
5612.44632	0.00924
5610.51765	0.00926
5608.58897	0.00927
5606.66030	0.00928
5604.73162	0.00929
5602.80295	0.00932
5600.87427	0.00933
5598.94559	0.00934
5597.01692	0.00937
5595.08824	0.00941
5593.15957	0.00942
5591.23089	0.00942
5589.30222	0.00943
5587.37354	0.00946
5585.44486	0.00950
5583.51619	0.00952
5581.58751	0.00954
5579.65884	0.00955
5577.73016	0.00957
5575.80149	0.00958
5573.87281	0.00961
5571.94413	0.00962
5570.01546	0.00964
5568.08678	0.00965
5566.15811	0.00967
5564.22943	0.00969
5562.30076	0.00971
5560.37208	0.00974
5558.44340	0.00976
5556.51473	0.00980
5554.58605	0.00982
5552.65738	0.00984
5550.72870	0.00984
5548.80003	0.00985
5546.87135	0.00986
5544.94267	0.00989
5543.01400	0.00992
5541.08532	0.00995
5539.15665	0.00997
5537.22797	0.00997
5535.29930	0.00998
5533.37062	0.01000
5531.44194	0.01001
5529.51327	0.01004
5527.58459	0.01008
5525.65592	0.01012
5523.72724	0.01014
5521.79857	0.01015
5519.86989	0.01014
5517.94121	0.01015
5516.01254	0.01018
5514.08386	0.01021
5512.15519	0.01022
5510.22651	0.01023
5508.29784	0.01025
5506.36916	0.01028
5504.44048	0.01029
5502.51181	0.01031
5500.58313	0.01034
5498.65446	0.01038
5496.72578	0.01042
5494.79711	0.01043
5492.86843	0.01043
5490.93975	0.01044
5489.01108	0.01045
5487.08240	0.01047
5485.15373	0.01050
5483.22505	0.01054
5481.29638	0.01057
5479.36770	0.01056
5477.43902	0.01056
5475.51035	0.01058
5473.58167	0.01062
5471.65300	0.01066
5469.72432	0.01066
5467.79565	0.01066
5465.86697	0.01067
5463.93829	0.01069
5462.00962	0.01071
5460.08094	0.01073
5458.15227	0.01075
5456.22359	0.01077
5454.29492	0.01080
5452.36624	0.01084
5450.43756	0.01085
5448.50889	0.01084
5446.58021	0.01083
5444.65154	0.01087
5442.72286	0.01092
5440.79419	0.01096
5438.86551	0.01098
5436.93683	0.01099
5435.00816	0.01102
5433.07948	0.01104
5431.15081	0.01105
5429.22213	0.01105
5427.29346	0.01108
5425.36478	0.01112
5423.43610	0.01116
5421.50743	0.01118
5419.57875	0.01118
5417.65008	0.01119
5415.72140	0.01120
5413.79273	0.01121
5411.86405	0.01123
5409.93537	0.01125
5408.00670	0.01127
5406.07802	0.01131
5404.14935	0.01135
5402.22067	0.01138
5400.29200	0.01142
5398.36332	0.01145
5396.43464	0.01146
5394.50597	0.01145
5392.57729	0.01145
5390.64862	0.01146
5388.71994	0.01150
5386.79127	0.01153
5384.86259	0.01154
5382.93391	0.01156
5381.00524	0.01157
5379.07656	0.01159
5377.14789	0.01162
5375.21921	0.01164
5373.29054	0.01166
5371.36186	0.01170
5369.43318	0.01173
5367.50451	0.01174
5365.57583	0.01176
5363.64716	0.01178
5361.71848	0.01181
5359.78981	0.01185
5357.86113	0.01189
5355.93245	0.01190
5354.00378	0.01191
5352.07510	0.01192
5350.14643	0.01193
5348.21775	0.01195
5346.28908	0.01196
5344.36040	0.01199
5342.43172	0.01202
5340.50305	0.01205
5338.57437	0.01206
5336.64570	0.01209
5334.71702	0.01210
5332.78835	0.01212
5330.85967	0.01215
5328.93099	0.01219
5327.00232	0.01223
5325.07364	0.01226
5323.14497	0.01227
5321.21629	0.01228
5319.28762	0.01231
5317.35894	0.01234
5315.43026	0.01235
5313.50159	0.01235
5311.57291	0.01237
5309.64424	0.01239
5307.71556	0.01241
5305.78689	0.01243
5303.85821	0.01246
5301.92953	0.01249
5300.00086	0.01252
5298.07218	0.01255
5296.14351	0.01257
5294.21483	0.01258
5292.28616	0.01259
5290.35748	0.01261
5288.42880	0.01262
5286.50013	0.01265
5284.57145	0.01269
5282.64278	0.01272
5280.71410	0.01272
5278.78543	0.01273
5276.85675	0.01275
5274.92807	0.01278
5272.99940	0.01280
5271.07072	0.01283
5269.14205	0.01285
5267.21337	0.01287
5265.28470	0.01291
5263.35602	0.01294
5261.42734	0.01294
5259.49867	0.01295
5257.56999	0.01297
5255.64132	0.01299
5253.71264	0.01303
5251.78397	0.01309
5249.85529	0.01311
5247.92661	0.01312
5245.99794	0.01314
5244.06926	0.01316
5242.14059	0.01319
5240.21191	0.01320
5238.28324	0.01320
5236.35456	0.01323
5234.42588	0.01328
5232.49721	0.01332
5230.56853	0.01334
5228.63986	0.01333
5226.71118	0.01333
5224.78251	0.01336
5222.85383	0.01339
5220.92515	0.01342
5218.99648	0.01345
5217.06780	0.01346
5215.13913	0.01348
5213.21045	0.01352
5211.28178	0.01355
5209.35310	0.01356
5207.42442	0.01357
5205.49575	0.01360
5203.56707	0.01364
5201.63840	0.01366
5199.70972	0.01368
5197.78105	0.01372
5195.85237	0.01375
5193.92369	0.01376
5191.99502	0.01377
5190.06634	0.01380
5188.13767	0.01383
5186.20899	0.01386
5184.28032	0.01390
5182.35164	0.01394
5180.42296	0.01396
5178.49429	0.01399
5176.56561	0.01401
5174.63694	0.01403
5172.70826	0.01404
5170.77959	0.01405
5168.85091	0.01407
5166.92223	0.01410
5164.99356	0.01414
5163.06488	0.01417
5161.13621	0.01420
5159.20753	0.01422
5157.27886	0.01422
5155.35018	0.01424
5153.42150	0.01425
5151.49283	0.01426
5149.56415	0.01427
5147.63548	0.01432
5145.70680	0.01436
5143.77813	0.01439
5141.84945	0.01443
5139.92077	0.01447
5137.99210	0.01450
5136.06342	0.01451
5134.13475	0.01453
5132.20607	0.01455
5130.27740	0.01458
5128.34872	0.01460
5126.42004	0.01462
5124.49137	0.01465
5122.56269	0.01467
5120.63402	0.01468
5118.70534	0.01470
5116.77667	0.01473
5114.84799	0.01476
5112.91931	0.01478
5110.99064	0.01479
5109.06196	0.01481
5107.13329	0.01484
5105.20461	0.01486
5103.27594	0.01490
5101.34726	0.01494
5099.41858	0.01497
5097.48991	0.01499
5095.56123	0.01502
5093.63256	0.01504
5091.70388	0.01507
5089.77521	0.01510
5087.84653	0.01512
5085.91785	0.01516
5083.98918	0.01519
5082.06050	0.01521
5080.13183	0.01523
5078.20315	0.01525
5076.27448	0.01526
5074.34580	0.01528
5072.41712	0.01532
5070.48845	0.01537
5068.55977	0.01538
5066.63110	0.01537
5064.70242	0.01538
5062.77375	0.01542
5060.84507	0.01544
5058.91639	0.01547
5056.98772	0.01550
5055.05904	0.01554
5053.13037	0.01558
5051.20169	0.01561
5049.27302	0.01562
5047.34434	0.01564
5045.41566	0.01568
5043.48699	0.01571
5041.55831	0.01572
5039.62964	0.01575
5037.70096	0.01578
5035.77229	0.01581
5033.84361	0.01583
5031.91493	0.01585
5029.98626	0.01587
5028.05758	0.01589
5026.12891	0.01591
5024.20023	0.01594
5022.27156	0.01596
5020.34288	0.01598
5018.41420	0.01600
5016.48553	0.01603
5014.55685	0.01606
5012.62818	0.01610
5010.69950	0.01615
5008.77083	0.01617
5006.84215	0.01618
5004.91347	0.01619
5002.98480	0.01622
5001.05612	0.01626
4999.12745	0.01628
4997.19877	0.01629
4995.27010	0.01631
4993.34142	0.01633
4991.41274	0.01635
4989.48407	0.01640
4987.55539	0.01645
4985.62672	0.01647
4983.69804	0.01649
4981.76937	0.01652
4979.84069	0.01658
4977.91201	0.01663
4975.98334	0.01665
4974.05466	0.01666
4972.12599	0.01668
4970.19731	0.01671
4968.26864	0.01675
4966.33996	0.01676
4964.41128	0.01677
4962.48261	0.01679
4960.55393	0.01683
4958.62526	0.01687
4956.69658	0.01689
4954.76791	0.01690
4952.83923	0.01691
4950.91055	0.01694
4948.98188	0.01698
4947.05320	0.01701
4945.12453	0.01702
4943.19585	0.01704
4941.26718	0.01708
4939.33850	0.01711
4937.40982	0.01713
4935.48115	0.01716
4933.55247	0.01721
4931.62380	0.01724
4929.69512	0.01726
4927.76645	0.01728
4925.83777	0.01730
4923.90909	0.01732
4921.98042	0.01735
4920.05174	0.01739
4918.12307	0.01743
4916.19439	0.01748
4914.26572	0.01751
4912.33704	0.01752
4910.40836	0.01752
4908.47969	0.01754
4906.55101	0.01759
4904.62234	0.01763
4902.69366	0.01764
4900.76499	0.01766
4898.83631	0.01770
4896.90763	0.01772
4894.97896	0.01774
4893.05028	0.01778
4891.12161	0.01781
4889.19293	0.01783
4887.26426	0.01786
4885.33558	0.01789
4883.40690	0.01792
4881.47823	0.01796
4879.54955	0.01798
4877.62088	0.01800
4875.69220	0.01802
4873.76353	0.01805
4871.83485	0.01809
4869.90617	0.01812
4867.97750	0.01814
4866.04882	0.01818
4864.12015	0.01821
4862.19147	0.01823
4860.26280	0.01826
4858.33412	0.01828
4856.40544	0.01831
4854.47677	0.01835
4852.54809	0.01840
4850.61942	0.01844
4848.69074	0.01848
4846.76207	0.01850
4844.83339	0.01851
4842.90471	0.01852
4840.97604	0.01855
4839.04736	0.01860
4837.11869	0.01865
4835.19001	0.01868
4833.26134	0.01870
4831.33266	0.01872
4829.40398	0.01873
4827.47531	0.01877
4825.54663	0.01880
4823.61796	0.01884
4821.68928	0.01886
4819.76061	0.01888
4817.83193	0.01891
4815.90325	0.01893
4813.97458	0.01895
4812.04590	0.01899
4810.11723	0.01905
4808.18855	0.01909
4806.25988	0.01912
4804.33120	0.01915
4802.40252	0.01917
4800.47385	0.01919
4798.54517	0.01923
4796.61650	0.01926
4794.68782	0.01932
4792.75915	0.01939
4790.83047	0.01941
4788.90179	0.01940
4786.97312	0.01940
4785.04444	0.01942
4783.11577	0.01945
4781.18709	0.01949
4779.25842	0.01951
4777.32974	0.01953
4775.40106	0.01957
4773.47239	0.01961
4771.54371	0.01966
4769.61504	0.01969
4767.68636	0.01972
4765.75769	0.01976
4763.82901	0.01980
4761.90033	0.01983
4759.97166	0.01985
4758.04298	0.01986
4756.11431	0.01989
4754.18563	0.01994
4752.25696	0.01998
4750.32828	0.02001
4748.39960	0.02001
4746.47093	0.02002
4744.54225	0.02007
4742.61358	0.02012
4740.68490	0.02016
4738.75623	0.02017
4736.82755	0.02019
4734.89887	0.02023
4732.97020	0.02027
4731.04152	0.02031
4729.11285	0.02033
4727.18417	0.02037
4725.25550	0.02044
4723.32682	0.02049
4721.39814	0.02049
4719.46947	0.02048
4717.54079	0.02050
4715.61212	0.02056
4713.68344	0.02061
4711.75477	0.02064
4709.82609	0.02067
4707.89741	0.02069
4705.96874	0.02071
4704.04006	0.02073
4702.11139	0.02078
4700.18271	0.02082
4698.25404	0.02086
4696.32536	0.02090
4694.39668	0.02094
4692.46801	0.02098
4690.53933	0.02102
4688.61066	0.02104
4686.68198	0.02106
4684.75331	0.02111
4682.82463	0.02115
4680.89595	0.02118
4678.96728	0.02119
4677.03860	0.02120
4675.10993	0.02122
4673.18125	0.02125
4671.25258	0.02128
4669.32390	0.02132
4667.39522	0.02136
4665.46655	0.02140
4663.53787	0.02146
4661.60920	0.02152
4659.68052	0.02156
4657.75185	0.02158
4655.82317	0.02161
4653.89449	0.02164
4651.96582	0.02167
4650.03714	0.02170
4648.10847	0.02174
4646.17979	0.02178
4644.25112	0.02181
4642.32244	0.02184
4640.39376	0.02188
4638.46509	0.02193
4636.53641	0.02197
4634.60774	0.02201
4632.67906	0.02202
4630.75039	0.02203
4628.82171	0.02206
4626.89303	0.02211
4624.96436	0.02216
4623.03568	0.02221
4621.10701	0.02224
4619.17833	0.02226
4617.24966	0.02228
4615.32098	0.02231
4613.39230	0.02236
4611.46363	0.02241
4609.53495	0.02247
4607.60628	0.02251
4605.67760	0.02255
4603.74893	0.02261
4601.82025	0.02266
4599.89157	0.02269
4597.96290	0.02271
4596.03422	0.02273
4594.10555	0.02275
4592.17687	0.02278
4590.24820	0.02284
4588.31952	0.02288
4586.39084	0.02290
4584.46217	0.02294
4582.53349	0.02299
4580.60482	0.02303
4578.67614	0.02304
4576.74747	0.02306
4574.81879	0.02312
4572.89011	0.02318
4570.96144	0.02322
4569.03276	0.02325
4567.10409	0.02330
4565.17541	0.02336
4563.24674	0.02341
4561.31806	0.02344
4559.38938	0.02345
4557.46071	0.02349
4555.53203	0.02353
4553.60336	0.02357
4551.67468	0.02360
4549.74601	0.02363
4547.81733	0.02367
4545.88865	0.02373
4543.95998	0.02377
4542.03130	0.02380
4540.10263	0.02384
4538.17395	0.02387
4536.24528	0.02391
4534.31660	0.02396
4532.38792	0.02399
4530.45925	0.02402
4528.53057	0.02405
4526.60190	0.02409
4524.67322	0.02414
4522.74455	0.02419
4520.81587	0.02426
4518.88719	0.02432
4516.95852	0.02435
4515.02984	0.02435
4513.10117	0.02437
4511.17249	0.02440
4509.24382	0.02444
4507.31514	0.02448
4505.38646	0.02453
4503.45779	0.02458
4501.52911	0.02463
4499.60044	0.02467
4497.67176	0.02471
4495.74309	0.02477
4493.81441	0.02481
4491.88573	0.02483
4489.95706	0.02485
4488.02838	0.02488
4486.09971	0.02493
4484.17103	0.02499
4482.24236	0.02503
4480.31368	0.02507
4478.38500	0.02513
4476.45633	0.02518
4474.52765	0.02523
4472.59898	0.02527
4470.67030	0.02530
4468.74163	0.02533
4466.81295	0.02538
4464.88427	0.02543
4462.95560	0.02547
4461.02692	0.02552
4459.09825	0.02556
4457.16957	0.02562
4455.24090	0.02566
4453.31222	0.02569
4451.38354	0.02570
4449.45487	0.02573
4447.52619	0.02581
4445.59752	0.02591
4443.66884	0.02595
4441.74017	0.02595
4439.81149	0.02596
4437.88281	0.02602
4435.95414	0.02610
4434.02546	0.02616
4432.09679	0.02620
4430.16811	0.02625
4428.23944	0.02631
4426.31076	0.02635
4424.38208	0.02638
4422.45341	0.02641
4420.52473	0.02647
4418.59606	0.02652
4416.66738	0.02656
4414.73871	0.02658
4412.81003	0.02662
4410.88135	0.02667
4408.95268	0.02671
4407.02400	0.02676
4405.09533	0.02681
4403.16665	0.02685
4401.23798	0.02690
4399.30930	0.02695
4397.38062	0.02700
4395.45195	0.02705
4393.52327	0.02708
4391.59460	0.02712
4389.66592	0.02718
4387.73725	0.02726
4385.80857	0.02731
4383.87989	0.02735
4381.95122	0.02740
4380.02254	0.02746
4378.09387	0.02752
4376.16519	0.02755
4374.23652	0.02757
4372.30784	0.02759
4370.37916	0.02763
4368.45049	0.02767
4366.52181	0.02774
4364.59314	0.02781
4362.66446	0.02787
4360.73579	0.02793
4358.80711	0.02797
4356.87843	0.02801
4354.94976	0.02807
4353.02108	0.02814
4351.09241	0.02818
4349.16373	0.02820
4347.23506	0.02824
4345.30638	0.02831
4343.37770	0.02837
4341.44903	0.02839
4339.52035	0.02840
4337.59168	0.02846
4335.66300	0.02853
4333.73433	0.02859
4331.80565	0.02866
4329.87697	0.02872
4327.94830	0.02877
4326.01962	0.02881
4324.09095	0.02886
4322.16227	0.02892
4320.23360	0.02899
4318.30492	0.02904
4316.37624	0.02908
4314.44757	0.02913
4312.51889	0.02918
4310.59022	0.02922
4308.66154	0.02927
4306.73287	0.02932
4304.80419	0.02938
4302.87551	0.02942
4300.94684	0.02945
4299.01816	0.02951
4297.08949	0.02958
4295.16081	0.02963
4293.23214	0.02969
4291.30346	0.02975
4289.37478	0.02980
4287.44611	0.02986
4285.51743	0.02992
4283.58876	0.02998
4281.66008	0.03004
4279.73141	0.03006
4277.80273	0.03009
4275.87405	0.03015
4273.94538	0.03022
4272.01670	0.03027
4270.08803	0.03035
4268.15935	0.03042
4266.23068	0.03045
4264.30200	0.03048
4262.37332	0.03053
4260.44465	0.03059
4258.51597	0.03067
4256.58730	0.03074
4254.65862	0.03079
4252.72995	0.03084
4250.80127	0.03090
4248.87259	0.03097
4246.94392	0.03104
4245.01524	0.03109
4243.08657	0.03113
4241.15789	0.03118
4239.22922	0.03124
4237.30054	0.03130
4235.37186	0.03135
4233.44319	0.03138
4231.51451	0.03145
4229.58584	0.03152
4227.65716	0.03156
4225.72849	0.03161
4223.79981	0.03167
4221.87113	0.03173
4219.94246	0.03181
4218.01378	0.03188
4216.08511	0.03196
4214.15643	0.03202
4212.22776	0.03206
4210.29908	0.03209
4208.37040	0.03213
4206.44173	0.03219
4204.51305	0.03226
4202.58438	0.03233
4200.65570	0.03237
4198.72703	0.03241
4196.79835	0.03248
4194.86968	0.03254
4192.94100	0.03261
4191.01232	0.03270
4189.08365	0.03278
4187.15497	0.03284
4185.22630	0.03289
4183.29762	0.03295
4181.36895	0.03300
4179.44027	0.03304
4177.51159	0.03309
4175.58292	0.03316
4173.65424	0.03324
4171.72557	0.03332
4169.79689	0.03339
4167.86822	0.03346
4165.93954	0.03352
4164.01086	0.03357
4162.08219	0.03360
4160.15351	0.03366
4158.22484	0.03373
4156.29616	0.03379
4154.36749	0.03386
4152.43881	0.03393
4150.51013	0.03400
4148.58146	0.03407
4146.65278	0.03413
4144.72411	0.03416
4142.79543	0.03420
4140.86676	0.03426
4138.93808	0.03432
4137.00940	0.03441
4135.08073	0.03450
4133.15205	0.03457
4131.22338	0.03463
4129.29470	0.03471
4127.36603	0.03480
4125.43735	0.03486
4123.50867	0.03491
4121.58000	0.03497
4119.65132	0.03505
4117.72265	0.03514
4115.79397	0.03519
4113.86530	0.03523
4111.93662	0.03527
4110.00794	0.03534
4108.07927	0.03540
4106.15059	0.03546
4104.22192	0.03552
4102.29324	0.03559
4100.36457	0.03566
4098.43589	0.03575
4096.50721	0.03584
4094.57854	0.03590
4092.64986	0.03595
4090.72119	0.03600
4088.79251	0.03604
4086.86384	0.03609
4084.93516	0.03618
4083.00648	0.03628
4081.07781	0.03635
4079.14913	0.03639
4077.22046	0.03644
4075.29178	0.03651
4073.36311	0.03658
4071.43443	0.03664
4069.50575	0.03671
4067.57708	0.03681
4065.64840	0.03690
4063.71973	0.03697
4061.79105	0.03704
4059.86238	0.03712
4057.93370	0.03719
4056.00502	0.03726
4054.07635	0.03731
4052.14767	0.03737
4050.21900	0.03743
4048.29032	0.03751
4046.36165	0.03760
4044.43297	0.03767
4042.50429	0.03774
4040.57562	0.03782
4038.64694	0.03790
4036.71827	0.03795
4034.78959	0.03801
4032.86092	0.03807
4030.93224	0.03812
4029.00356	0.03820
4027.07489	0.03829
4025.14621	0.03836
4023.21754	0.03842
4021.28886	0.03849
4019.36019	0.03857
4017.43151	0.03866
4015.50283	0.03874
4013.57416	0.03879
4011.64548	0.03884
4009.71681	0.03892
4007.78813	0.03900
4005.85946	0.03907
4003.93078	0.03915
4002.00210	0.03925
4000.07343	0.03934
3998.14475	0.03941
3996.21608	0.03948
3994.28740	0.03954
3992.35873	0.03961
3990.43005	0.03969
3988.50137	0.03976
3986.57270	0.03982
3984.64402	0.03989
3982.71535	0.03997
3980.78667	0.04006
3978.85800	0.04014
3976.92932	0.04020
3975.00064	0.04026
3973.07197	0.04034
3971.14329	0.04042
3969.21462	0.04049
3967.28594	0.04057
3965.35727	0.04065
3963.42859	0.04073
3961.49991	0.04083
3959.57124	0.04091
3957.64256	0.04097
3955.71389	0.04104
3953.78521	0.04111
3951.85654	0.04116
3949.92786	0.04121
3947.99918	0.04130
3946.07051	0.04140
3944.14183	0.04148
3942.21316	0.04154
3940.28448	0.04163
3938.35581	0.04172
3936.42713	0.04177
3934.49845	0.04181
3932.56978	0.04186
3930.64110	0.04194
3928.71243	0.04205
3926.78375	0.04213
3924.85508	0.04220
3922.92640	0.04226
3920.99772	0.04231
3919.06905	0.04233
3917.14037	0.04241
3915.21170	0.04255
3913.28302	0.04271
3911.35435	0.04284
3909.42567	0.04290
3907.49699	0.04286
3905.56832	0.04280
3903.63964	0.04280
3901.71097	0.04288
3899.78229	0.04302
3897.85362	0.04319
3895.92494	0.04334
3893.99626	0.04342
3892.06759	0.04348
3890.13891	0.04357
3888.21024	0.04364
3886.28156	0.04365
3884.35289	0.04372
3882.42421	0.04381
3880.49553	0.04390
3878.56686	0.04406
3876.63818	0.04418
3874.70951	0.04419
3872.78083	0.04421
3870.85216	0.04425
3868.92348	0.04434
3866.99480	0.04446
3865.06613	0.04454
3863.13745	0.04465
3861.20878	0.04481
3859.28010	0.04491
3857.35143	0.04483
3855.42275	0.04463
3853.49407	0.04461
3851.56540	0.04490
3849.63672	0.04524
3847.70805	0.04544
3845.77937	0.04554
3843.85070	0.04558
3841.92202	0.04556
3839.99334	0.04554
3838.06467	0.04562
3836.13599	0.04578
3834.20732	0.04593
3832.27864	0.04606
3830.34997	0.04619
3828.42129	0.04628
3826.49261	0.04635
3824.56394	0.04638
3822.63526	0.04634
3820.70659	0.04639
3818.77791	0.04654
3816.84924	0.04666
3814.92056	0.04682
3812.99188	0.04703
3811.06321	0.04717
3809.13453	0.04717
3807.20586	0.04716
3805.27718	0.04721
3803.34851	0.04725
3801.41983	0.04731
3799.49115	0.04746
3797.56248	0.04762
3795.63380	0.04777
3793.70513	0.04792
3791.77645	0.04805
3789.84778	0.04812
3787.91910	0.04817
3785.99042	0.04823
3784.06175	0.04834
3782.13307	0.04842
3780.20440	0.04845
3778.27572	0.04854
3776.34705	0.04868
3774.41837	0.04880
3772.48969	0.04883
3770.56102	0.04884
3768.63234	0.04890
3766.70367	0.04900
3764.77499	0.04914
3762.84632	0.04927
3760.91764	0.04931
3758.98896	0.04934
3757.06029	0.04942
3755.13161	0.04945
3753.20294	0.04938
3751.27426	0.04932
3749.34559	0.04943
3747.41691	0.04952
3745.48823	0.04949
3743.55956	0.04964
3741.63088	0.04999
3739.70221	0.05014
3737.77353	0.05005
3735.84486	0.05000
3733.91618	0.05016
3731.98750	0.05044
3730.05883	0.05067
3728.13015	0.05077
3726.20148	0.05083
3724.27280	0.05092
3722.34413	0.05104
3720.41545	0.05119
3718.48677	0.05132
3716.55810	0.05140
3714.62942	0.05139
3712.70075	0.05135
3710.77207	0.05143
3708.84340	0.05167
3706.91472	0.05187
3704.98604	0.05193
3703.05737	0.05193
3701.12869	0.05201
3699.20002	0.05219
3697.27134	0.05234
3695.34267	0.05240
3693.41399	0.05240
3691.48531	0.05238
3689.55664	0.05241
3687.62796	0.05257
3685.69929	0.05279
3683.77061	0.05293
3681.84194	0.05298
3679.91326	0.05298
3677.98458	0.05291
3676.05591	0.05288
3674.12723	0.05303
3672.19856	0.05320
3670.26988	0.05330
3668.34121	0.05345
3666.41253	0.05366
3664.48385	0.05383
3662.55518	0.05393
3660.62650	0.05398
3658.69783	0.05398
3656.76915	0.05398
3654.84048	0.05405
3652.91180	0.05404
3650.98312	0.05388
3649.05445	0.05378
3647.12577	0.05394
3645.19710	0.05424
3643.26842	0.05451
3641.33975	0.05469
3639.41107	0.05482
3637.48239	0.05489
3635.55372	0.05493
3633.62504	0.05495
3631.69637	0.05490
3629.76769	0.05483
3627.83902	0.05493
3625.91034	0.05519
3623.98166	0.05537
3622.05299	0.05538
3620.12431	0.05533
3618.19564	0.05537
3616.26696	0.05547
3614.33829	0.05556
3612.40961	0.05560
3610.48093	0.05560
3608.55226	0.05567
3606.62358	0.05585
3604.69491	0.05603
3602.76623	0.05615
3600.83756	0.05622
3598.90888	0.05628
3596.98020	0.05632
3595.05153	0.05636
3593.12285	0.05645
3591.19418	0.05651
3589.26550	0.05644
3587.33683	0.05644
3585.40815	0.05663
3583.47947	0.05684
3581.55080	0.05697
3579.62212	0.05706
3577.69345	0.05712
3575.76477	0.05719
3573.83610	0.05727
3571.90742	0.05732
3569.97874	0.05726
3568.05007	0.05721
3566.12139	0.05728
3564.19272	0.05747
3562.26404	0.05764
3560.33537	0.05773
3558.40669	0.05782
3556.47801	0.05792
3554.54934	0.05799
3552.62066	0.05805
3550.69199	0.05812
3548.76331	0.05816
3546.83464	0.05819
3544.90596	0.05828
3542.97728	0.05838
3541.04861	0.05846
3539.11993	0.05853
3537.19126	0.05859
3535.26258	0.05865
3533.33391	0.05869
3531.40523	0.05869
3529.47655	0.05867
3527.54788	0.05869
3525.61920	0.05875
3523.69053	0.05883
3521.76185	0.05890
3519.83318	0.05896
3517.90450	0.05902
3515.97582	0.05907
3514.04715	0.05912
3512.11847	0.05918
3510.18980	0.05920
3508.26112	0.05921
3506.33245	0.05921
3504.40377	0.05920
3502.47509	0.05919
3500.54642	0.05924
3498.61774	0.05930
3496.68907	0.05934
3494.76039	0.05938
3492.83172	0.05940
3490.90304	0.05942
3488.97436	0.05944
3487.04569	0.05946
3485.11701	0.05948
3483.18834	0.05952
3481.25966	0.05958
3479.33099	0.05967
3477.40231	0.05976
3475.47363	0.05983
3473.54496	0.05989
3471.61628	0.05995
3469.68761	0.06004
3467.75893	0.06014
3465.83026	0.06023
3463.90158	0.06031
3461.97290	0.06041
3460.04423	0.06053
3458.11555	0.06064
3456.18688	0.06073
3454.25820	0.06082
3452.32953	0.06092
3450.40085	0.06100
3448.47217	0.06106
3446.54350	0.06114
3444.61482	0.06127
3442.68615	0.06139
3440.75747	0.06151
3438.82880	0.06164
3436.90012	0.06178
3434.97144	0.06193
3433.04277	0.06212
3431.11409	0.06231
3429.18542	0.06251
3427.25674	0.06273
3425.32807	0.06294
3423.39939	0.06313
3421.47071	0.06330
3419.54204	0.06347
3417.61336	0.06367
3415.68469	0.06385
3413.75601	0.06397
3411.82734	0.06407
3409.89866	0.06418
3407.96998	0.06432
3406.04131	0.06445
3404.11263	0.06458
3402.18396	0.06472
3400.25528	0.06488
3398.32661	0.06504
3396.39793	0.06520
3394.46925	0.06534
3392.54058	0.06545
3390.61190	0.06556
3388.68323	0.06570
3386.75455	0.06582
3384.82588	0.06593
3382.89720	0.06607
3380.96852	0.06621
3379.03985	0.06633
3377.11117	0.06646
3375.18250	0.06658
3373.25382	0.06671
3371.32515	0.06686
3369.39647	0.06698
3367.46779	0.06707
3365.53912	0.06716
3363.61044	0.06726
3361.68177	0.06739
3359.75309	0.06753
3357.82442	0.06766
3355.89574	0.06780
3353.96706	0.06794
3352.03839	0.06805
3350.10971	0.06816
3348.18104	0.06828
3346.25236	0.06840
3344.32369	0.06853
3342.39501	0.06866
3340.46633	0.06879
3338.53766	0.06894
3336.60898	0.06906
3334.68031	0.06916
3332.75163	0.06927
3330.82296	0.06940
3328.89428	0.06952
3326.96560	0.06964
3325.03693	0.06979
3323.10825	0.06994
3321.17958	0.07007
3319.25090	0.07017
3317.32223	0.07026
3315.39355	0.07038
3313.46487	0.07049
3311.53620	0.07060
3309.60752	0.07074
3307.67885	0.07089
3305.75017	0.07103
3303.82150	0.07115
3301.89282	0.07125
3299.96414	0.07137
3298.03547	0.07149
3296.10679	0.07162
3294.17812	0.07175
3292.24944	0.07189
3290.32077	0.07199
3288.39209	0.07211
3286.46341	0.07225
3284.53474	0.07239
3282.60606	0.07254
3280.67739	0.07269
3278.74871	0.07283
3276.82004	0.07297
3274.89136	0.07311
3272.96268	0.07323
3271.03401	0.07336
3269.10533	0.07348
3267.17666	0.07360
3265.24798	0.07371
3263.31931	0.07381
3261.39063	0.07392
3259.46195	0.07407
3257.53328	0.07421
3255.60460	0.07435
3253.67593	0.07450
3251.74725	0.07466
3249.81858	0.07479
3247.88990	0.07489
3245.96122	0.07498
3244.03255	0.07513
3242.10387	0.07530
3240.17520	0.07545
3238.24652	0.07557
3236.31785	0.07570
3234.38917	0.07584
3232.46049	0.07599
3230.53182	0.07613
3228.60314	0.07626
3226.67447	0.07640
3224.74579	0.07653
3222.81712	0.07666
3220.88844	0.07680
3218.95976	0.07693
3217.03109	0.07705
3215.10241	0.07719
3213.17374	0.07733
3211.24506	0.07744
3209.31639	0.07755
3207.38771	0.07769
3205.45903	0.07782
3203.53036	0.07794
3201.60168	0.07805
3199.67301	0.07819
3197.74433	0.07836
3195.81566	0.07852
3193.88698	0.07868
3191.95830	0.07883
3190.02963	0.07895
3188.10095	0.07907
3186.17228	0.07922
3184.24360	0.07939
3182.31493	0.07956
3180.38625	0.07971
3178.45757	0.07983
3176.52890	0.07997
3174.60022	0.08012
3172.67155	0.08025
3170.74287	0.08038
3168.81420	0.08052
3166.88552	0.08065
3164.95684	0.08079
3163.02817	0.08094
3161.09949	0.08106
3159.17082	0.08119
3157.24214	0.08132
3155.31347	0.08144
3153.38479	0.08156
3151.45611	0.08168
3149.52744	0.08184
3147.59876	0.08200
3145.67009	0.08214
3143.74141	0.08227
3141.81274	0.08240
3139.88406	0.08253
3137.95538	0.08267
3136.02671	0.08283
3134.09803	0.08298
3132.16936	0.08312
3130.24068	0.08325
3128.31201	0.08339
3126.38333	0.08352
3124.45465	0.08365
3122.52598	0.08378
3120.59730	0.08392
3118.66863	0.08405
3116.73995	0.08418
3114.81128	0.08432
3112.88260	0.08447
3110.95392	0.08461
3109.02525	0.08475
3107.09657	0.08486
3105.16790	0.08497
3103.23922	0.08511
3101.31055	0.08525
3099.38187	0.08540
3097.45319	0.08556
3095.52452	0.08571
3093.59584	0.08583
3091.66717	0.08598
3089.73849	0.08615
3087.80982	0.08629
3085.88114	0.08641
3083.95246	0.08652
3082.02379	0.08666
3080.09511	0.08682
3078.16644	0.08697
3076.23776	0.08713
3074.30909	0.08728
3072.38041	0.08740
3070.45173	0.08750
3068.52306	0.08763
3066.59438	0.08777
3064.66571	0.08793
3062.73703	0.08808
3060.80836	0.08820
3058.87968	0.08830
3056.95100	0.08843
3055.02233	0.08858
3053.09365	0.08874
3051.16498	0.08888
3049.23630	0.08901
3047.30763	0.08914
3045.37895	0.08926
3043.45027	0.08938
3041.52160	0.08952
3039.59292	0.08968
3037.66425	0.08982
3035.73557	0.08994
3033.80690	0.09007
3031.87822	0.09021
3029.94954	0.09035
3028.02087	0.09047
3026.09219	0.09059
3024.16352	0.09074
3022.23484	0.09089
3020.30617	0.09102
3018.37749	0.09117
3016.44881	0.09133
3014.52014	0.09146
3012.59146	0.09158
3010.66279	0.09169
3008.73411	0.09181
3006.80544	0.09195
3004.87676	0.09208
3002.94808	0.09218
3001.01941	0.09231
2999.09073	0.09245
2997.16206	0.09261
2995.23338	0.09276
2993.30471	0.09288
2991.37603	0.09301
2989.44735	0.09314
2987.51868	0.09326
2985.59000	0.09335
2983.66133	0.09344
2981.73265	0.09352
2979.80398	0.09359
2977.87530	0.09362
2975.94662	0.09361
2974.01795	0.09362
2972.08927	0.09365
2970.16060	0.09366
2968.23192	0.09363
2966.30325	0.09360
2964.37457	0.09361
2962.44589	0.09370
2960.51722	0.09382
2958.58854	0.09396
2956.65987	0.09416
2954.73119	0.09436
2952.80252	0.09454
2950.87384	0.09471
2948.94516	0.09487
2947.01649	0.09499
2945.08781	0.09511
2943.15914	0.09519
2941.23046	0.09525
2939.30179	0.09527
2937.37311	0.09526
2935.44443	0.09524
2933.51576	0.09521
2931.58708	0.09517
2929.65841	0.09512
2927.72973	0.09508
2925.80106	0.09504
2923.87238	0.09504
2921.94370	0.09508
2920.01503	0.09517
2918.08635	0.09534
2916.15768	0.09563
2914.22900	0.09604
2912.30033	0.09653
2910.37165	0.09698
2908.44297	0.09733
2906.51430	0.09759
2904.58562	0.09783
2902.65695	0.09806
2900.72827	0.09829
2898.79960	0.09850
2896.87092	0.09869
2894.94224	0.09885
2893.01357	0.09903
2891.08489	0.09925
2889.15622	0.09948
2887.22754	0.09967
2885.29887	0.09982
2883.37019	0.09996
2881.44151	0.10010
2879.51284	0.10028
2877.58416	0.10047
2875.65549	0.10059
2873.72681	0.10069
2871.79814	0.10081
2869.86946	0.10092
2867.94078	0.10104
2866.01211	0.10114
2864.08343	0.10122
2862.15476	0.10128
2860.22608	0.10133
2858.29741	0.10136
2856.36873	0.10135
2854.44005	0.10132
2852.51138	0.10129
2850.58270	0.10138
2848.65403	0.10166
2846.72535	0.10208
2844.79668	0.10254
2842.86800	0.10298
2840.93932	0.10334
2839.01065	0.10362
2837.08197	0.10385
2835.15330	0.10409
2833.22462	0.10429
2831.29595	0.10444
2829.36727	0.10462
2827.43859	0.10483
2825.50992	0.10502
2823.58124	0.10517
2821.65257	0.10530
2819.72389	0.10543
2817.79522	0.10558
2815.86654	0.10577
2813.93786	0.10596
2812.00919	0.10612
2810.08051	0.10625
2808.15184	0.10640
2806.22316	0.10656
2804.29449	0.10672
2802.36581	0.10684
2800.43713	0.10696
2798.50846	0.10713
2796.57978	0.10732
2794.65111	0.10749
2792.72243	0.10762
2790.79376	0.10774
2788.86508	0.10791
2786.93640	0.10807
2785.00773	0.10819
2783.07905	0.10834
2781.15038	0.10850
2779.22170	0.10865
2777.29303	0.10882
2775.36435	0.10896
2773.43567	0.10909
2771.50700	0.10924
2769.57832	0.10939
2767.64965	0.10954
2765.72097	0.10969
2763.79230	0.10982
2761.86362	0.10995
2759.93494	0.11011
2758.00627	0.11027
2756.07759	0.11044
2754.14892	0.11058
2752.22024	0.11072
2750.29157	0.11088
2748.36289	0.11104
2746.43421	0.11117
2744.50554	0.11129
2742.57686	0.11142
2740.64819	0.11154
2738.71951	0.11169
2736.79084	0.11187
2734.86216	0.11203
2732.93348	0.11215
2731.00481	0.11226
2729.07613	0.11237
2727.14746	0.11255
2725.21878	0.11274
2723.29011	0.11287
2721.36143	0.11297
2719.43275	0.11310
2717.50408	0.11328
2715.57540	0.11346
2713.64673	0.11361
2711.71805	0.11373
2709.78938	0.11386
2707.86070	0.11397
2705.93202	0.11412
2704.00335	0.11430
2702.07467	0.11445
2700.14600	0.11458
2698.21732	0.11470
2696.28865	0.11483
2694.35997	0.11496
2692.43129	0.11512
2690.50262	0.11527
2688.57394	0.11540
2686.64527	0.11554
2684.71659	0.11568
2682.78792	0.11585
2680.85924	0.11601
2678.93056	0.11613
2677.00189	0.11624
2675.07321	0.11638
2673.14454	0.11653
2671.21586	0.11669
2669.28719	0.11686
2667.35851	0.11703
2665.42983	0.11718
2663.50116	0.11734
2661.57248	0.11748
2659.64381	0.11761
2657.71513	0.11772
2655.78646	0.11785
2653.85778	0.11798
2651.92910	0.11811
2650.00043	0.11826
2648.07175	0.11843
2646.14308	0.11862
2644.21440	0.11878
2642.28573	0.11891
2640.35705	0.11903
2638.42837	0.11917
2636.49970	0.11933
2634.57102	0.11950
2632.64235	0.11967
2630.71367	0.11984
2628.78500	0.11998
2626.85632	0.12011
2624.92764	0.12024
2622.99897	0.12040
2621.07029	0.12059
2619.14162	0.12076
2617.21294	0.12090
2615.28427	0.12103
2613.35559	0.12116
2611.42691	0.12128
2609.49824	0.12145
2607.56956	0.12165
2605.64089	0.12185
2603.71221	0.12202
2601.78354	0.12213
2599.85486	0.12223
2597.92618	0.12238
2595.99751	0.12257
2594.06883	0.12274
2592.14016	0.12289
2590.21148	0.12303
2588.28281	0.12319
2586.35413	0.12340
2584.42545	0.12358
2582.49678	0.12367
2580.56810	0.12373
2578.63943	0.12380
2576.71075	0.12394
2574.78208	0.12412
2572.85340	0.12429
2570.92472	0.12445
2568.99605	0.12462
2567.06737	0.12478
2565.13870	0.12491
2563.21002	0.12504
2561.28135	0.12518
2559.35267	0.12536
2557.42399	0.12554
2555.49532	0.12569
2553.56664	0.12581
2551.63797	0.12595
2549.70929	0.12611
2547.78062	0.12626
2545.85194	0.12641
2543.92326	0.12653
2541.99459	0.12668
2540.06591	0.12683
2538.13724	0.12698
2536.20856	0.12717
2534.27989	0.12733
2532.35121	0.12744
2530.42253	0.12758
2528.49386	0.12774
2526.56518	0.12791
2524.63651	0.12808
2522.70783	0.12823
2520.77916	0.12839
2518.85048	0.12854
2516.92181	0.12868
2514.99313	0.12881
2513.06445	0.12898
2511.13578	0.12916
2509.20710	0.12936
2507.27843	0.12956
2505.34975	0.12972
2503.42108	0.12986
2501.49240	0.13000
2499.56372	0.13015
2497.63505	0.13032
2495.70637	0.13048
2493.77770	0.13064
2491.84902	0.13081
2489.92035	0.13097
2487.99167	0.13114
2486.06299	0.13132
2484.13432	0.13148
2482.20564	0.13163
2480.27697	0.13180
2478.34829	0.13197
2476.41962	0.13211
2474.49094	0.13226
2472.56226	0.13242
2470.63359	0.13259
2468.70491	0.13280
2466.77624	0.13297
2464.84756	0.13310
2462.91889	0.13324
2460.99021	0.13338
2459.06153	0.13352
2457.13286	0.13369
2455.20418	0.13385
2453.27551	0.13399
2451.34683	0.13416
2449.41816	0.13433
2447.48948	0.13448
2445.56080	0.13463
2443.63213	0.13478
2441.70345	0.13495
2439.77478	0.13512
2437.84610	0.13530
2435.91743	0.13549
2433.98875	0.13566
2432.06007	0.13579
2430.13140	0.13592
2428.20272	0.13608
2426.27405	0.13624
2424.34537	0.13642
2422.41670	0.13660
2420.48802	0.13675
2418.55934	0.13689
2416.63067	0.13703
2414.70199	0.13717
2412.77332	0.13733
2410.84464	0.13751
2408.91597	0.13769
2406.98729	0.13782
2405.05861	0.13793
2403.12994	0.13807
2401.20126	0.13826
2399.27259	0.13840
2397.34391	0.13853
2395.41524	0.13868
2393.48656	0.13883
2391.55788	0.13898
2389.62921	0.13913
2387.70053	0.13928
2385.77186	0.13943
2383.84318	0.13957
2381.91451	0.13966
2379.98583	0.13975
2378.05715	0.13984
2376.12848	0.13991
2374.19980	0.13994
2372.27113	0.13996
2370.34245	0.13998
2368.41378	0.14003
2366.48510	0.14006
2364.55642	0.14010
2362.62775	0.14025
2360.69907	0.14043
2358.77040	0.14062
2356.84172	0.14088
2354.91305	0.14117
2352.98437	0.14147
2351.05569	0.14178
2349.12702	0.14204
2347.19834	0.14215
2345.26967	0.14215
2343.34099	0.14216
2341.41232	0.14225
2339.48364	0.14242
2337.55496	0.14260
2335.62629	0.14274
2333.69761	0.14289
2331.76894	0.14306
2329.84026	0.14324
2327.91159	0.14343
2325.98291	0.14363
2324.05423	0.14386
2322.12556	0.14408
2320.19688	0.14426
2318.26821	0.14445
2316.33953	0.14468
2314.41086	0.14490
2312.48218	0.14511
2310.55350	0.14533
2308.62483	0.14553
2306.69615	0.14572
2304.76748	0.14592
2302.83880	0.14611
2300.91013	0.14632
2298.98145	0.14649
2297.05277	0.14661
2295.12410	0.14674
2293.19542	0.14688
2291.26675	0.14704
2289.33807	0.14723
2287.40940	0.14741
2285.48072	0.14756
2283.55204	0.14771
2281.62337	0.14788
2279.69469	0.14805
2277.76602	0.14825
2275.83734	0.14843
2273.90867	0.14858
2271.97999	0.14871
2270.05131	0.14885
2268.12264	0.14902
2266.19396	0.14920
2264.26529	0.14935
2262.33661	0.14951
2260.40794	0.14965
2258.47926	0.14977
2256.55058	0.14992
2254.62191	0.15011
2252.69323	0.15029
2250.76456	0.15045
2248.83588	0.15061
2246.90721	0.15078
2244.97853	0.15094
2243.04985	0.15108
2241.12118	0.15121
2239.19250	0.15138
2237.26383	0.15154
2235.33515	0.15168
2233.40648	0.15187
2231.47780	0.15206
2229.54912	0.15221
2227.62045	0.15235
2225.69177	0.15249
2223.76310	0.15263
2221.83442	0.15280
2219.90575	0.15296
2217.97707	0.15312
2216.04839	0.15329
2214.11972	0.15342
2212.19104	0.15354
2210.26237	0.15370
2208.33369	0.15385
2206.40502	0.15398
2204.47634	0.15414
2202.54766	0.15431
2200.61899	0.15449
2198.69031	0.15469
2196.76164	0.15489
2194.83296	0.15501
2192.90429	0.15511
2190.97561	0.15520
2189.04693	0.15533
2187.11826	0.15550
2185.18958	0.15568
2183.26091	0.15585
2181.33223	0.15600
2179.40356	0.15616
2177.47488	0.15634
2175.54620	0.15652
2173.61753	0.15668
2171.68885	0.15684
2169.76018	0.15699
2167.83150	0.15714
2165.90283	0.15733
2163.97415	0.15750
2162.04547	0.15765
2160.11680	0.15782
2158.18812	0.15798
2156.25945	0.15811
2154.33077	0.15825
2152.40210	0.15841
2150.47342	0.15858
2148.54474	0.15873
2146.61607	0.15887
2144.68739	0.15903
2142.75872	0.15921
2140.83004	0.15938
2138.90137	0.15955
2136.97269	0.15974
2135.04401	0.15989
2133.11534	0.16002
2131.18666	0.16017
2129.25799	0.16031
2127.32931	0.16046
2125.40064	0.16065
2123.47196	0.16085
2121.54328	0.16101
2119.61461	0.16114
2117.68593	0.16127
2115.75726	0.16145
2113.82858	0.16165
2111.89991	0.16180
2109.97123	0.16195
2108.04255	0.16208
2106.11388	0.16218
2104.18520	0.16231
2102.25653	0.16252
2100.32785	0.16275
2098.39918	0.16297
2096.47050	0.16311
2094.54182	0.16324
2092.61315	0.16339
2090.68447	0.16353
2088.75580	0.16366
2086.82712	0.16384
2084.89845	0.16404
2082.96977	0.16422
2081.04109	0.16438
2079.11242	0.16452
2077.18374	0.16466
2075.25507	0.16480
2073.32639	0.16492
2071.39772	0.16506
2069.46904	0.16525
2067.54036	0.16543
2065.61169	0.16559
2063.68301	0.16576
2061.75434	0.16590
2059.82566	0.16606
2057.89699	0.16623
2055.96831	0.16638
2054.03963	0.16652
2052.11096	0.16666
2050.18228	0.16682
2048.25361	0.16702
2046.32493	0.16721
2044.39626	0.16739
2042.46758	0.16755
2040.53890	0.16764
2038.61023	0.16776
2036.68155	0.16798
2034.75288	0.16822
2032.82420	0.16839
2030.89553	0.16852
2028.96685	0.16864
2027.03817	0.16881
2025.10950	0.16901
2023.18082	0.16914
2021.25215	0.16926
2019.32347	0.16943
2017.39480	0.16960
2015.46612	0.16975
2013.53744	0.16990
2011.60877	0.17008
2009.68009	0.17028
2007.75142	0.17048
2005.82274	0.17066
2003.89407	0.17083
2001.96539	0.17098
2000.03671	0.17109
1998.10804	0.17123
1996.17936	0.17139
1994.25069	0.17148
1992.32201	0.17157
1990.39334	0.17172
1988.46466	0.17188
1986.53598	0.17204
1984.60731	0.17220
1982.67863	0.17236
1980.74996	0.17251
1978.82128	0.17265
1976.89261	0.17277
1974.96393	0.17294
1973.03525	0.17310
1971.10658	0.17316
1969.17790	0.17320
1967.24923	0.17329
1965.32055	0.17347
1963.39188	0.17368
1961.46320	0.17385
1959.53452	0.17399
1957.60585	0.17413
1955.67717	0.17429
1953.74850	0.17449
1951.81982	0.17471
1949.89115	0.17487
1947.96247	0.17500
1946.03379	0.17510
1944.10512	0.17515
1942.17644	0.17526
1940.24777	0.17548
1938.31909	0.17573
1936.39042	0.17595
1934.46174	0.17610
1932.53306	0.17620
1930.60439	0.17634
1928.67571	0.17656
1926.74704	0.17674
1924.81836	0.17682
1922.88969	0.17689
1920.96101	0.17697
1919.03233	0.17706
1917.10366	0.17725
1915.17498	0.17758
1913.24631	0.17785
1911.31763	0.17795
1909.38896	0.17803
1907.46028	0.17820
1905.53160	0.17840
1903.60293	0.17857
1901.67425	0.17873
1899.74558	0.17884
1897.81690	0.17893
1895.88823	0.17903
1893.95955	0.17916
1892.03087	0.17929
1890.10220	0.17940
1888.17352	0.17958
1886.24485	0.17982
1884.31617	0.18002
1882.38750	0.18015
1880.45882	0.18029
1878.53014	0.18043
1876.60147	0.18057
1874.67279	0.18072
1872.74412	0.18079
1870.81544	0.18072
1868.88677	0.18073
1866.95809	0.18102
1865.02941	0.18143
1863.10074	0.18174
1861.17206	0.18193
1859.24339	0.18209
1857.31471	0.18228
1855.38604	0.18247
1853.45736	0.18263
1851.52868	0.18278
1849.60001	0.18287
1847.67133	0.18283
1845.74266	0.18275
1843.81398	0.18287
1841.88531	0.18327
1839.95663	0.18366
1838.02795	0.18386
1836.09928	0.18398
1834.17060	0.18407
1832.24193	0.18404
1830.31325	0.18404
1828.38458	0.18422
1826.45590	0.18441
1824.52722	0.18461
1822.59855	0.18490
1820.66987	0.18514
1818.74120	0.18531
1816.81252	0.18547
1814.88385	0.18559
1812.95517	0.18565
1811.02649	0.18570
1809.09782	0.18587
1807.16914	0.18611
1805.24047	0.18625
1803.31179	0.18621
1801.38312	0.18620
1799.45444	0.18638
1797.52576	0.18663
1795.59709	0.18675
1793.66841	0.18666
1791.73974	0.18670
1789.81106	0.18706
1787.88239	0.18733
1785.95371	0.18735
1784.02503	0.18740
1782.09636	0.18753
1780.16768	0.18768
1778.23901	0.18786
1776.31033	0.18788
1774.38166	0.18768
1772.45298	0.18758
1770.52430	0.18775
1768.59563	0.18803
1766.66695	0.18837
1764.73828	0.18859
1762.80960	0.18859
1760.88093	0.18861
1758.95225	0.18870
1757.02357	0.18880
1755.09490	0.18888
1753.16622	0.18869
1751.23755	0.18841
1749.30887	0.18845
1747.38020	0.18870
1745.45152	0.18886
1743.52284	0.18884
1741.59417	0.18875
1739.66549	0.18881
1737.73682	0.18878
1735.80814	0.18838
1733.87947	0.18816
1731.95079	0.18856
1730.02211	0.18913
1728.09344	0.18954
1726.16476	0.18978
1724.23609	0.18991
1722.30741	0.18997
1720.37874	0.18980
1718.45006	0.18954
1716.52138	0.18962
1714.59271	0.19007
1712.66403	0.19058
1710.73536	0.19092
1708.80668	0.19095
1706.87801	0.19082
1704.94933	0.19072
1703.02065	0.19038
1701.09198	0.18990
1699.16330	0.18993
1697.23463	0.19032
1695.30595	0.19077
1693.37728	0.19131
1691.44860	0.19155
1689.51992	0.19141
1687.59125	0.19111
1685.66257	0.19071
1683.73390	0.19066
1681.80522	0.19111
1679.87655	0.19156
1677.94787	0.19165
1676.01919	0.19151
1674.09052	0.19141
1672.16184	0.19134
1670.23317	0.19123
1668.30449	0.19147
1666.37582	0.19192
1664.44714	0.19202
1662.51846	0.19199
1660.58979	0.19220
1658.66111	0.19236
1656.73244	0.19199
1654.80376	0.19123
1652.87509	0.19099
1650.94641	0.19156
1649.01773	0.19198
1647.08906	0.19193
1645.16038	0.19210
1643.23171	0.19250
1641.30303	0.19272
1639.37436	0.19260
1637.44568	0.19225
1635.51700	0.19213
1633.58833	0.19257
1631.65965	0.19305
1629.73098	0.19308
1627.80230	0.19288
1625.87363	0.19261
1623.94495	0.19227
1622.01627	0.19207
1620.08760	0.19207
1618.15892	0.19219
1616.23025	0.19270
1614.30157	0.19353
1612.37290	0.19416
1610.44422	0.19449
1608.51554	0.19473
1606.58687	0.19495
1604.65819	0.19518
1602.72952	0.19539
1600.80084	0.19563
1598.87217	0.19589
1596.94349	0.19602
1595.01481	0.19608
1593.08614	0.19621
1591.15746	0.19638
1589.22879	0.19657
1587.30011	0.19674
1585.37144	0.19686
1583.44276	0.19701
1581.51408	0.19721
1579.58541	0.19725
1577.65673	0.19713
1575.72806	0.19720
1573.79938	0.19749
1571.87071	0.19756
1569.94203	0.19747
1568.01335	0.19765
1566.08468	0.19800
1564.15600	0.19819
1562.22733	0.19790
1560.29865	0.19719
1558.36998	0.19692
1556.44130	0.19751
1554.51262	0.19828
1552.58395	0.19871
1550.65527	0.19891
1548.72660	0.19910
1546.79792	0.19915
1544.86925	0.19887
1542.94057	0.19843
1541.01189	0.19816
1539.08322	0.19847
1537.15454	0.19911
1535.22587	0.19934
1533.29719	0.19932
1531.36852	0.19953
1529.43984	0.19967
1527.51116	0.19962
1525.58249	0.19954
1523.65381	0.19926
1521.72514	0.19896
1519.79646	0.19910
1517.86779	0.19943
1515.93911	0.19976
1514.01043	0.20007
1512.08176	0.20010
1510.15308	0.19979
1508.22441	0.19942
1506.29573	0.19952
1504.36706	0.20018
1502.43838	0.20066
1500.50970	0.20056
1498.58103	0.20036
1496.65235	0.20046
1494.72368	0.20069
1492.79500	0.20059
1490.86633	0.20015
1488.93765	0.19995
1487.00897	0.20022
1485.08030	0.20052
1483.15162	0.20057
1481.22295	0.20045
1479.29427	0.20019
1477.36560	0.19973
1475.43692	0.19914
1473.50824	0.19858
1471.57957	0.19834
1469.65089	0.19837
1467.72222	0.19820
1465.79354	0.19786
1463.86487	0.19775
1461.93619	0.19766
1460.00751	0.19707
1458.07884	0.19625
1456.15016	0.19604
1454.22149	0.19658
1452.29281	0.19712
1450.36414	0.19720
1448.43546	0.19713
1446.50678	0.19724
1444.57811	0.19748
1442.64943	0.19769
1440.72076	0.19772
1438.79208	0.19740
1436.86341	0.19722
1434.93473	0.19763
1433.00605	0.19815
1431.07738	0.19834
1429.14870	0.19845
1427.22003	0.19861
1425.29135	0.19866
1423.36268	0.19855
1421.43400	0.19827
1419.50532	0.19806
1417.57665	0.19824
1415.64797	0.19866
1413.71930	0.19890
1411.79062	0.19890
1409.86195	0.19884
1407.93327	0.19880
1406.00459	0.19873
1404.07592	0.19872
1402.14724	0.19867
1400.21857	0.19841
1398.28989	0.19814
1396.36122	0.19803
1394.43254	0.19809
1392.50386	0.19828
1390.57519	0.19825
1388.64651	0.19785
1386.71784	0.19751
1384.78916	0.19745
1382.86049	0.19754
1380.93181	0.19766
1379.00313	0.19766
1377.07446	0.19750
1375.14578	0.19739
1373.21711	0.19743
1371.28843	0.19755
1369.35976	0.19763
1367.43108	0.19763
1365.50240	0.19753
1363.57373	0.19741
1361.64505	0.19739
1359.71638	0.19750
1357.78770	0.19768
1355.85903	0.19777
1353.93035	0.19778
1352.00167	0.19783
1350.07300	0.19793
1348.14432	0.19806
1346.21565	0.19817
1344.28697	0.19819
1342.35830	0.19806
1340.42962	0.19784
1338.50094	0.19768
1336.57227	0.19772
1334.64359	0.19783
1332.71492	0.19782
1330.78624	0.19768
1328.85757	0.19749
1326.92889	0.19731
1325.00021	0.19722
1323.07154	0.19712
1321.14286	0.19691
1319.21419	0.19671
1317.28551	0.19658
1315.35684	0.19641
1313.42816	0.19623
1311.49948	0.19606
1309.57081	0.19583
1307.64213	0.19559
1305.71346	0.19538
1303.78478	0.19517
1301.85611	0.19496
1299.92743	0.19472
1297.99875	0.19448
1296.07008	0.19430
1294.14140	0.19410
1292.21273	0.19390
1290.28405	0.19370
1288.35538	0.19347
1286.42670	0.19331
1284.49802	0.19322
1282.56935	0.19303
1280.64067	0.19272
1278.71200	0.19240
1276.78332	0.19204
1274.85465	0.19167
1272.92597	0.19124
1270.99729	0.19065
1269.06862	0.18986
1267.13994	0.18893
1265.21127	0.18803
1263.28259	0.18745
1261.35392	0.18724
1259.42524	0.18729
1257.49656	0.18751
1255.56789	0.18772
1253.63921	0.18769
1251.71054	0.18747
1249.78186	0.18719
1247.85319	0.18689
1245.92451	0.18659
1243.99583	0.18626
1242.06716	0.18587
1240.13848	0.18547
1238.20981	0.18504
1236.28113	0.18455
1234.35246	0.18402
1232.42378	0.18342
1230.49510	0.18278
1228.56643	0.18221
1226.63775	0.18169
1224.70908	0.18120
1222.78040	0.18079
1220.85173	0.18035
1218.92305	0.17983
1216.99437	0.17928
1215.06570	0.17875
1213.13702	0.17825
1211.20835	0.17773
1209.27967	0.17719
1207.35100	0.17663
1205.42232	0.17604
1203.49364	0.17539
1201.56497	0.17481
1199.63629	0.17426
1197.70762	0.17364
1195.77894	0.17302
1193.85027	0.17240
1191.92159	0.17177
1189.99291	0.17113
1188.06424	0.17044
1186.13556	0.16967
1184.20689	0.16890
1182.27821	0.16813
1180.34954	0.16731
1178.42086	0.16648
1176.49218	0.16563
1174.56351	0.16477
1172.63483	0.16395
1170.70616	0.16315
1168.77748	0.16237
1166.84881	0.16158
1164.92013	0.16073
1162.99145	0.15985
1161.06278	0.15901
1159.13410	0.15820
1157.20543	0.15744
1155.27675	0.15671
1153.34808	0.15591
1151.41940	0.15509
1149.49072	0.15430
1147.56205	0.15350
1145.63337	0.15272
1143.70470	0.15194
1141.77602	0.15104
1139.84735	0.15002
1137.91867	0.14895
1135.98999	0.14778
1134.06132	0.14647
1132.13264	0.14499
1130.20397	0.14324
1128.27529	0.14122
1126.34662	0.13898
1124.41794	0.13667
1122.48926	0.13440
1120.56059	0.13215
1118.63191	0.12997
1116.70324	0.12799
1114.77456	0.12620
1112.84589	0.12462
1110.91721	0.12334
1108.98853	0.12228
1107.05986	0.12147
1105.13118	0.12102
1103.20251	0.12089
1101.27383	0.12103
1099.34516	0.12142
1097.41648	0.12197
1095.48780	0.12268
1093.55913	0.12352
1091.63045	0.12436
1089.70178	0.12518
1087.77310	0.12596
1085.84443	0.12659
1083.91575	0.12707
1081.98707	0.12743
1080.05840	0.12771
1078.12972	0.12795
1076.20105	0.12812
1074.27237	0.12826
1072.34370	0.12846
1070.41502	0.12865
1068.48634	0.12878
1066.55767	0.12894
1064.62899	0.12912
1062.70032	0.12927
1060.77164	0.12943
1058.84297	0.12964
1056.91429	0.12990
1054.98561	0.13019
1053.05694	0.13044
1051.12826	0.13067
1049.19959	0.13099
1047.27091	0.13139
1045.34224	0.13185
1043.41356	0.13232
1041.48488	0.13270
1039.55621	0.13306
1037.62753	0.13346
1035.69886	0.13383
1033.77018	0.13420
1031.84151	0.13460
1029.91283	0.13492
1027.98415	0.13521
1026.05548	0.13551
1024.12680	0.13584
1022.19813	0.13625
1020.26945	0.13668
1018.34078	0.13705
1016.41210	0.13748
1014.48342	0.13798
1012.55475	0.13850
1010.62607	0.13913
1008.69740	0.13977
1006.76872	0.14031
1004.84005	0.14084
1002.91137	0.14128
1000.98269	0.14157
999.05402	0.14182
997.12534	0.14204
995.19667	0.14221
993.26799	0.14242
991.33932	0.14255
989.41064	0.14257
987.48196	0.14261
985.55329	0.14264
983.62461	0.14265
981.69594	0.14266
979.76726	0.14258
977.83859	0.14243
975.90991	0.14229
973.98123	0.14212
972.05256	0.14198
970.12388	0.14180
968.19521	0.14154
966.26653	0.14134
964.33786	0.14123
962.40918	0.14110
960.48050	0.14095
958.55183	0.14079
956.62315	0.14055
954.69448	0.14033
952.76580	0.14014
950.83713	0.13992
948.90845	0.13975
946.97977	0.13960
945.05110	0.13935
943.12242	0.13906
941.19375	0.13868
939.26507	0.13823
937.33640	0.13785
935.40772	0.13746
933.47904	0.13703
931.55037	0.13657
929.62169	0.13598
927.69302	0.13531
925.76434	0.13478
923.83567	0.13427
921.90699	0.13365
919.97831	0.13307
918.04964	0.13256
916.12096	0.13205
914.19229	0.13140
912.26361	0.13053
910.33494	0.12963
908.40626	0.12889
906.47758	0.12826
904.54891	0.12769
902.62023	0.12709
900.69156	0.12643
898.76288	0.12580
896.83421	0.12526
894.90553	0.12477
892.97685	0.12429
891.04818	0.12381
889.11950	0.12338
887.19083	0.12303
885.26215	0.12270
883.33348	0.12239
881.40480	0.12212
879.47612	0.12182
877.54745	0.12145
875.61877	0.12117
873.69010	0.12095
871.76142	0.12071
869.83275	0.12057
867.90407	0.12045
865.97539	0.12022
864.04672	0.11995
862.11804	0.11969
860.18937	0.11952
858.26069	0.11947
856.33202	0.11941
854.40334	0.11925
852.47466	0.11910
850.54599	0.11889
848.61731	0.11859
846.68864	0.11826
844.75996	0.11791
842.83129	0.11761
840.90261	0.11733
838.97394	0.11695
837.04526	0.11652
835.11658	0.11600
833.18791	0.11529
831.25923	0.11444
829.33056	0.11344
827.40188	0.11236
825.47321	0.11142
823.54453	0.11058
821.61585	0.10976
819.68718	0.10908
817.75850	0.10850
815.82983	0.10799
813.90115	0.10765
811.97248	0.10740
810.04380	0.10720
808.11512	0.10710
806.18645	0.10703
804.25777	0.10695
802.32910	0.10688
800.40042	0.10666
798.47175	0.10619
796.54307	0.10558
794.61439	0.10495
792.68572	0.10451
790.75704	0.10432
788.82837	0.10415
786.89969	0.10394
784.97102	0.10375
783.04234	0.10349
781.11366	0.10315
779.18499	0.10283
777.25631	0.10254
775.32764	0.10230
773.39896	0.10199
771.47029	0.10152
769.54161	0.10109
767.61293	0.10075
765.68426	0.10041
763.75558	0.10011
761.82691	0.09973
759.89823	0.09918
757.96956	0.09865
756.04088	0.09811
754.11220	0.09747
752.18353	0.09685
750.25485	0.09624
748.32618	0.09555
746.39750	0.09482
744.46883	0.09400
742.54015	0.09313
740.61147	0.09236
738.68280	0.09174
736.75412	0.09139
734.82545	0.09134
732.89677	0.09143
730.96810	0.09151
729.03942	0.09155
727.11074	0.09151
725.18207	0.09155
723.25339	0.09176
721.32472	0.09192
719.39604	0.09205
717.46737	0.09232
715.53869	0.09272
713.61001	0.09318
711.68134	0.09354
709.75266	0.09369
707.82399	0.09381
705.89531	0.09386
703.96664	0.09366
702.03796	0.09333
700.10928	0.09293
698.18061	0.09242
696.25193	0.09194
694.32326	0.09149
692.39458	0.09094
690.46591	0.09032
688.53723	0.08974
686.60855	0.08924
684.67988	0.08887
682.75120	0.08849
680.82253	0.08801
678.89385	0.08744
676.96518	0.08682
675.03650	0.08616
673.10782	0.08544
671.17915	0.08450
669.25047	0.08350
667.32180	0.08278
665.39312	0.08217
663.46445	0.08142
661.53577	0.08064
659.60709	0.07989
657.67842	0.07914
655.74974	0.07836
653.82107	0.07750
651.89239	0.07667
649.96372	0.07588
648.03504	0.07503
646.10636	0.07415
644.17769	0.07328
642.24901	0.07230
640.32034	0.07128
638.39166	0.07029
636.46299	0.06929
634.53431	0.06828
632.60563	0.06686
630.67696	0.06456
628.74828	0.06119
626.81961	0.05688
624.89093	0.05242
622.96226	0.04892
621.03358	0.04682
619.10490	0.04577
617.17623	0.04503
615.24755	0.04410
613.31888	0.04296
611.39020	0.04195
609.46153	0.04139
607.53285	0.04136
605.60417	0.04164
603.67550	0.04210
601.74682	0.04297
599.81815	0.04412
597.88947	0.04502
595.96080	0.04557
594.03212	0.04595
592.10344	0.04616
590.17477	0.04632
588.24609	0.04644
586.31742	0.04629
584.38874	0.04601
582.46007	0.04574
580.53139	0.04543
578.60271	0.04508
576.67404	0.04468
574.74536	0.04409
572.81669	0.04342
570.88801	0.04272
568.95934	0.04202
567.03066	0.04151
565.10198	0.04114
563.17331	0.04072
561.24463	0.04037
559.31596	0.04014
557.38728	0.03998
555.45861	0.03986
553.52993	0.03967
551.60125	0.03943
549.67258	0.03932
547.74390	0.03917
545.81523	0.03890
543.88655	0.03871
541.95788	0.03855
540.02920	0.03838
538.10052	0.03828
536.17185	0.03806
534.24317	0.03776
532.31450	0.03755
530.38582	0.03735
528.45715	0.03713
526.52847	0.03689
524.59979	0.03656
522.67112	0.03627
520.74244	0.03592
518.81377	0.03523
516.88509	0.03446
514.95642	0.03388
513.02774	0.03345
511.09906	0.03326
509.17039	0.03319
507.24171	0.03305
505.31304	0.03283
503.38436	0.03249
501.45569	0.03205
499.52701	0.03168
497.59833	0.03119
495.66966	0.03057
493.74098	0.03014
491.81231	0.02972
489.88363	0.02909
487.95496	0.02846
486.02628	0.02791
484.09760	0.02745
482.16893	0.02702
480.24025	0.02643
478.31158	0.02577
476.38290	0.02522
474.45423	0.02467
472.52555	0.02417
470.59687	0.02378
468.66820	0.02335
466.73952	0.02299
464.81085	0.02277
462.88217	0.02255
460.95350	0.02238
459.02482	0.02228
457.09614	0.02216
455.16747	0.02211
453.23879	0.02209
451.31012	0.02204
449.38144	0.02208
447.45277	0.02207
445.52409	0.02182
443.59541	0.02161
441.66674	0.02143
439.73806	0.02101
437.80939	0.02058
435.88071	0.02020
433.95204	0.01972
432.02336	0.01922
430.09468	0.01873
428.16601	0.01810
426.23733	0.01733
424.30866	0.01650
422.37998	0.01577
420.45131	0.01523
418.52263	0.01470
416.59395	0.01410
414.66528	0.01343
412.73660	0.01272
410.80793	0.01212
408.87925	0.01158
406.95058	0.01093
405.02190	0.01032
403.09322	0.00985
401.16455	0.00930
399.23587	0.00878
397.30720	0.00835
395.37852	0.00778
393.44985	0.00720
391.52117	0.00685
389.59249	0.00658
387.66382	0.00621
385.73514	0.00566
383.80647	0.00505
381.87779	0.00466
379.94912	0.00443
378.02044	0.00411
376.09176	0.00375
374.16309	0.00331
372.23441	0.00284
370.30574	0.00262
368.37706	0.00248
