7496.76250	0.00115
7494.83382	0.00114
7492.90514	0.00114
7490.97647	0.00115
7489.04779	0.00115
7487.11912	0.00115
7485.19044	0.00116
7483.26177	0.00118
7481.33309	0.00119
7479.40441	0.00119
7477.47574	0.00118
7475.54706	0.00118
7473.61839	0.00119
7471.68971	0.00121
7469.76104	0.00122
7467.83236	0.00123
7465.90368	0.00123
7463.97501	0.00123
7462.04633	0.00122
7460.11766	0.00122
7458.18898	0.00120
7456.26031	0.00120
7454.33163	0.00120
7452.40295	0.00121
7450.47428	0.00123
7448.54560	0.00124
7446.61693	0.00124
7444.68825	0.00124
7442.75958	0.00124
7440.83090	0.00125
7438.90222	0.00125
7436.97355	0.00125
7435.04487	0.00125
7433.11620	0.00126
7431.18752	0.00126
7429.25885	0.00124
7427.33017	0.00124
7425.40149	0.00126
7423.47282	0.00128
7421.54414	0.00130
7419.61547	0.00130
7417.68679	0.00129
7415.75812	0.00129
7413.82944	0.00131
7411.90076	0.00133
7409.97209	0.00132
7408.04341	0.00131
7406.11474	0.00130
7404.18606	0.00130
7402.25739	0.00129
7400.32871	0.00130
7398.40003	0.00130
7396.47136	0.00130
7394.54268	0.00131
7392.61401	0.00132
7390.68533	0.00132
7388.75666	0.00134
7386.82798	0.00134
7384.89930	0.00134
7382.97063	0.00135
7381.04195	0.00135
7379.11328	0.00137
7377.18460	0.00137
7375.25593	0.00136
7373.32725	0.00136
7371.39857	0.00136
7369.46990	0.00137
7367.54122	0.00136
7365.61255	0.00136
7363.68387	0.00137
7361.75520	0.00139
7359.82652	0.00140
7357.89784	0.00141
7355.96917	0.00140
7354.04049	0.00140
7352.11182	0.00141
7350.18314	0.00142
7348.25447	0.00143
7346.32579	0.00142
7344.39711	0.00141
7342.46844	0.00139
7340.53976	0.00139
7338.61109	0.00140
7336.68241	0.00143
7334.75374	0.00145
7332.82506	0.00146
7330.89638	0.00146
7328.96771	0.00145
7327.03903	0.00144
7325.11036	0.00145
7323.18168	0.00145
7321.25301	0.00145
7319.32433	0.00145
7317.39565	0.00146
7315.46698	0.00147
7313.53830	0.00148
7311.60963	0.00149
7309.68095	0.00150
7307.75228	0.00150
7305.82360	0.00148
7303.89492	0.00148
7301.96625	0.00149
7300.03757	0.00151
7298.10890	0.00152
7296.18022	0.00152
7294.25155	0.00153
7292.32287	0.00153
7290.39419	0.00152
7288.46552	0.00152
7286.53684	0.00153
7284.60817	0.00153
7282.67949	0.00153
7280.75082	0.00153
7278.82214	0.00153
7276.89346	0.00152
7274.96479	0.00152
7273.03611	0.00152
7271.10744	0.00152
7269.17876	0.00152
7267.25009	0.00152
7265.32141	0.00153
7263.39273	0.00155
7261.46406	0.00156
7259.53538	0.00157
7257.60671	0.00159
7255.67803	0.00161
7253.74936	0.00161
7251.82068	0.00159
7249.89200	0.00159
7247.96333	0.00159
7246.03465	0.00159
7244.10598	0.00159
7242.17730	0.00160
7240.24863	0.00162
7238.31995	0.00162
7236.39127	0.00161
7234.46260	0.00161
7232.53392	0.00163
7230.60525	0.00165
7228.67657	0.00166
7226.74790	0.00165
7224.81922	0.00163
7222.89054	0.00162
7220.96187	0.00163
7219.03319	0.00164
7217.10452	0.00165
7215.17584	0.00166
7213.24717	0.00166
7211.31849	0.00165
7209.38981	0.00165
7207.46114	0.00165
7205.53246	0.00166
7203.60379	0.00167
7201.67511	0.00167
7199.74644	0.00166
7197.81776	0.00166
7195.88908	0.00168
7193.96041	0.00170
7192.03173	0.00170
7190.10306	0.00169
7188.17438	0.00169
7186.24571	0.00169
7184.31703	0.00170
7182.38835	0.00171
7180.45968	0.00172
7178.53100	0.00172
7176.60233	0.00173
7174.67365	0.00173
7172.74498	0.00173
7170.81630	0.00174
7168.88762	0.00174
7166.95895	0.00174
7165.03027	0.00175
7163.10160	0.00175
7161.17292	0.00176
7159.24425	0.00176
7157.31557	0.00175
7155.38689	0.00176
7153.45822	0.00176
7151.52954	0.00176
7149.60087	0.00176
7147.67219	0.00175
7145.74352	0.00175
7143.81484	0.00177
7141.88616	0.00179
7139.95749	0.00179
7138.02881	0.00179
7136.10014	0.00179
7134.17146	0.00180
7132.24279	0.00180
7130.31411	0.00179
7128.38543	0.00179
7126.45676	0.00181
7124.52808	0.00181
7122.59941	0.00182
7120.67073	0.00183
7118.74206	0.00183
7116.81338	0.00183
7114.88470	0.00184
7112.95603	0.00186
7111.02735	0.00186
7109.09868	0.00185
7107.17000	0.00186
7105.24133	0.00187
7103.31265	0.00187
7101.38397	0.00188
7099.45530	0.00188
7097.52662	0.00189
7095.59795	0.00187
7093.66927	0.00187
7091.74060	0.00187
7089.81192	0.00188
7087.88324	0.00189
7085.95457	0.00190
7084.02589	0.00192
7082.09722	0.00192
7080.16854	0.00191
7078.23987	0.00190
7076.31119	0.00189
7074.38251	0.00191
7072.45384	0.00193
7070.52516	0.00194
7068.59649	0.00195
7066.66781	0.00195
7064.73914	0.00196
7062.81046	0.00197
7060.88178	0.00198
7058.95311	0.00197
7057.02443	0.00196
7055.09576	0.00195
7053.16708	0.00195
7051.23841	0.00195
7049.30973	0.00196
7047.38105	0.00197
7045.45238	0.00198
7043.52370	0.00200
7041.59503	0.00202
7039.66635	0.00202
7037.73768	0.00203
7035.80900	0.00205
7033.88032	0.00204
7031.95165	0.00203
7030.02297	0.00203
7028.09430	0.00202
7026.16562	0.00201
7024.23695	0.00203
7022.30827	0.00205
7020.37959	0.00206
7018.45092	0.00205
7016.52224	0.00205
7014.59357	0.00205
7012.66489	0.00206
7010.73622	0.00207
7008.80754	0.00208
7006.87886	0.00210
7004.95019	0.00210
7003.02151	0.00210
7001.09284	0.00210
6999.16416	0.00210
6997.23549	0.00211
6995.30681	0.00212
6993.37813	0.00213
6991.44946	0.00212
6989.52078	0.00212
6987.59211	0.00212
6985.66343	0.00212
6983.73476	0.00213
6981.80608	0.00213
6979.87740	0.00214
6977.94873	0.00215
6976.02005	0.00215
6974.09138	0.00214
6972.16270	0.00214
6970.23403	0.00216
6968.30535	0.00217
6966.37667	0.00217
6964.44800	0.00217
6962.51932	0.00218
6960.59065	0.00219
6958.66197	0.00220
6956.73330	0.00220
6954.80462	0.00220
6952.87594	0.00221
6950.94727	0.00223
6949.01859	0.00225
6947.08992	0.00225
6945.16124	0.00224
6943.23257	0.00224
6941.30389	0.00224
6939.37521	0.00224
6937.44654	0.00224
6935.51786	0.00224
6933.58919	0.00224
6931.66051	0.00226
6929.73184	0.00226
6927.80316	0.00227
6925.87448	0.00227
6923.94581	0.00227
6922.01713	0.00227
6920.08846	0.00228
6918.15978	0.00230
6916.23111	0.00232
6914.30243	0.00232
6912.37375	0.00231
6910.44508	0.00232
6908.51640	0.00234
6906.58773	0.00235
6904.65905	0.00235
6902.73038	0.00234
6900.80170	0.00235
6898.87302	0.00234
6896.94435	0.00235
6895.01567	0.00236
6893.08700	0.00236
6891.15832	0.00235
6889.22965	0.00234
6887.30097	0.00234
6885.37229	0.00236
6883.44362	0.00238
6881.51494	0.00239
6879.58627	0.00239
6877.65759	0.00238
6875.72892	0.00239
6873.80024	0.00239
6871.87156	0.00242
6869.94289	0.00244
6868.01421	0.00245
6866.08554	0.00244
6864.15686	0.00243
6862.22819	0.00243
6860.29951	0.00243
6858.37083	0.00243
6856.44216	0.00244
6854.51348	0.00245
6852.58481	0.00246
6850.65613	0.00246
6848.72746	0.00246
6846.79878	0.00247
6844.87010	0.00249
6842.94143	0.00250
6841.01275	0.00250
6839.08408	0.00250
6837.15540	0.00250
6835.22673	0.00251
6833.29805	0.00250
6831.36937	0.00251
6829.44070	0.00252
6827.51202	0.00254
6825.58335	0.00254
6823.65467	0.00253
6821.72600	0.00254
6819.79732	0.00255
6817.86864	0.00256
6815.93997	0.00256
6814.01129	0.00255
6812.08262	0.00255
6810.15394	0.00255
6808.22527	0.00256
6806.29659	0.00258
6804.36791	0.00259
6802.43924	0.00258
6800.51056	0.00258
6798.58189	0.00260
6796.65321	0.00261
6794.72454	0.00261
6792.79586	0.00261
6790.86718	0.00261
6788.93851	0.00262
6787.00983	0.00263
6785.08116	0.00264
6783.15248	0.00264
6781.22381	0.00264
6779.29513	0.00266
6777.36645	0.00267
6775.43778	0.00267
6773.50910	0.00267
6771.58043	0.00268
6769.65175	0.00269
6767.72308	0.00270
6765.79440	0.00271
6763.86572	0.00273
6761.93705	0.00273
6760.00837	0.00272
6758.07970	0.00272
6756.15102	0.00274
6754.22235	0.00275
6752.29367	0.00275
6750.36499	0.00276
6748.43632	0.00277
6746.50764	0.00277
6744.57897	0.00277
6742.65029	0.00279
6740.72162	0.00281
6738.79294	0.00281
6736.86426	0.00281
6734.93559	0.00281
6733.00691	0.00282
6731.07824	0.00283
6729.14956	0.00283
6727.22089	0.00282
6725.29221	0.00282
6723.36353	0.00282
6721.43486	0.00283
6719.50618	0.00284
6717.57751	0.00285
6715.64883	0.00285
6713.72016	0.00286
6711.79148	0.00286
6709.86280	0.00285
6707.93413	0.00285
6706.00545	0.00286
6704.07678	0.00288
6702.14810	0.00288
6700.21943	0.00289
6698.29075	0.00291
6696.36207	0.00293
6694.43340	0.00294
6692.50472	0.00293
6690.57605	0.00294
6688.64737	0.00294
6686.71870	0.00295
6684.79002	0.00295
6682.86134	0.00295
6680.93267	0.00295
6679.00399	0.00295
6677.07532	0.00295
6675.14664	0.00296
6673.21797	0.00297
6671.28929	0.00297
6669.36061	0.00297
6667.43194	0.00298
6665.50326	0.00298
6663.57459	0.00298
6661.64591	0.00299
6659.71724	0.00300
6657.78856	0.00301
6655.85988	0.00302
6653.93121	0.00302
6652.00253	0.00302
6650.07386	0.00303
6648.14518	0.00305
6646.21651	0.00306
6644.28783	0.00308
6642.35915	0.00309
6640.43048	0.00309
6638.50180	0.00309
6636.57313	0.00312
6634.64445	0.00313
6632.71578	0.00312
6630.78710	0.00312
6628.85842	0.00313
6626.92975	0.00313
6625.00107	0.00314
6623.07240	0.00314
6621.14372	0.00314
6619.21505	0.00314
6617.28637	0.00314
6615.35769	0.00314
6613.42902	0.00316
6611.50034	0.00318
6609.57167	0.00319
6607.64299	0.00320
6605.71432	0.00321
6603.78564	0.00322
6601.85696	0.00323
6599.92829	0.00325
6597.99961	0.00326
6596.07094	0.00326
6594.14226	0.00325
6592.21359	0.00324
6590.28491	0.00324
6588.35623	0.00323
6586.42756	0.00325
6584.49888	0.00327
6582.57021	0.00328
6580.64153	0.00329
6578.71286	0.00331
6576.78418	0.00332
6574.85550	0.00331
6572.92683	0.00329
6570.99815	0.00330
6569.06948	0.00333
6567.14080	0.00336
6565.21213	0.00337
6563.28345	0.00336
6561.35477	0.00334
6559.42610	0.00333
6557.49742	0.00334
6555.56875	0.00336
6553.64007	0.00339
6551.71140	0.00341
6549.78272	0.00342
6547.85404	0.00342
6545.92537	0.00342
6543.99669	0.00342
6542.06802	0.00343
6540.13934	0.00344
6538.21067	0.00344
6536.28199	0.00345
6534.35331	0.00346
6532.42464	0.00347
6530.49596	0.00348
6528.56729	0.00350
6526.63861	0.00350
6524.70994	0.00349
6522.78126	0.00349
6520.85258	0.00350
6518.92391	0.00352
6516.99523	0.00353
6515.06656	0.00353
6513.13788	0.00354
6511.20921	0.00355
6509.28053	0.00355
6507.35185	0.00355
6505.42318	0.00357
6503.49450	0.00358
6501.56583	0.00359
6499.63715	0.00359
6497.70848	0.00360
6495.77980	0.00360
6493.85112	0.00360
6491.92245	0.00360
6489.99377	0.00361
6488.06510	0.00363
6486.13642	0.00364
6484.20775	0.00365
6482.27907	0.00365
6480.35039	0.00365
6478.42172	0.00365
6476.49304	0.00366
6474.56437	0.00368
6472.63569	0.00368
6470.70702	0.00369
6468.77834	0.00371
6466.84966	0.00373
6464.92099	0.00374
6462.99231	0.00373
6461.06364	0.00372
6459.13496	0.00371
6457.20629	0.00372
6455.27761	0.00375
6453.34893	0.00377
6451.42026	0.00378
6449.49158	0.00379
6447.56291	0.00379
6445.63423	0.00380
6443.70556	0.00381
6441.77688	0.00381
6439.84820	0.00381
6437.91953	0.00382
6435.99085	0.00384
6434.06218	0.00387
6432.13350	0.00389
6430.20483	0.00390
6428.27615	0.00388
6426.34747	0.00387
6424.41880	0.00388
6422.49012	0.00389
6420.56145	0.00390
6418.63277	0.00392
6416.70410	0.00393
6414.77542	0.00393
6412.84674	0.00394
6410.91807	0.00396
6408.98939	0.00397
6407.06072	0.00398
6405.13204	0.00398
6403.20337	0.00399
6401.27469	0.00399
6399.34601	0.00400
6397.41734	0.00401
6395.48866	0.00402
6393.55999	0.00404
6391.63131	0.00404
6389.70264	0.00403
6387.77396	0.00404
6385.84528	0.00406
6383.91661	0.00408
6381.98793	0.00409
6380.05926	0.00408
6378.13058	0.00407
6376.20191	0.00408
6374.27323	0.00410
6372.34455	0.00411
6370.41588	0.00412
6368.48720	0.00413
6366.55853	0.00413
6364.62985	0.00414
6362.70118	0.00415
6360.77250	0.00416
6358.84382	0.00416
6356.91515	0.00416
6354.98647	0.00417
6353.05780	0.00416
6351.12912	0.00417
6349.20045	0.00421
6347.27177	0.00423
6345.34309	0.00424
6343.41442	0.00423
6341.48574	0.00423
6339.55707	0.00424
6337.62839	0.00427
6335.69972	0.00428
6333.77104	0.00429
6331.84236	0.00430
6329.91369	0.00429
6327.98501	0.00429
6326.05634	0.00430
6324.12766	0.00432
6322.19899	0.00433
6320.27031	0.00433
6318.34163	0.00435
6316.41296	0.00437
6314.48428	0.00440
6312.55561	0.00442
6310.62693	0.00442
6308.69826	0.00441
6306.76958	0.00441
6304.84090	0.00442
6302.91223	0.00444
6300.98355	0.00446
6299.05488	0.00445
6297.12620	0.00444
6295.19753	0.00445
6293.26885	0.00446
6291.34017	0.00448
6289.41150	0.00450
6287.48282	0.00451
6285.55415	0.00451
6283.62547	0.00452
6281.69680	0.00453
6279.76812	0.00455
6277.83944	0.00457
6275.91077	0.00458
6273.98209	0.00458
6272.05342	0.00458
6270.12474	0.00459
6268.19607	0.00460
6266.26739	0.00462
6264.33871	0.00464
6262.41004	0.00464
6260.48136	0.00463
6258.55269	0.00463
6256.62401	0.00465
6254.69534	0.00465
6252.76666	0.00465
6250.83798	0.00467
6248.90931	0.00470
6246.98063	0.00472
6245.05196	0.00473
6243.12328	0.00472
6241.19461	0.00473
6239.26593	0.00475
6237.33725	0.00475
6235.40858	0.00475
6233.47990	0.00476
6231.55123	0.00479
6229.62255	0.00483
6227.69388	0.00485
6225.76520	0.00484
6223.83652	0.00483
6221.90785	0.00483
6219.97917	0.00483
6218.05050	0.00484
6216.12182	0.00485
6214.19315	0.00486
6212.26447	0.00487
6210.33579	0.00487
6208.40712	0.00488
6206.47844	0.00489
6204.54977	0.00491
6202.62109	0.00493
6200.69242	0.00495
6198.76374	0.00496
6196.83506	0.00497
6194.90639	0.00498
6192.97771	0.00499
6191.04904	0.00500
6189.12036	0.00500
6187.19169	0.00500
6185.26301	0.00500
6183.33433	0.00500
6181.40566	0.00499
6179.47698	0.00501
6177.54831	0.00504
6175.61963	0.00507
6173.69096	0.00509
6171.76228	0.00510
6169.83360	0.00510
6167.90493	0.00510
6165.97625	0.00511
6164.04758	0.00513
6162.11890	0.00516
6160.19023	0.00518
6158.26155	0.00517
6156.33287	0.00516
6154.40420	0.00518
6152.47552	0.00519
6150.54685	0.00520
6148.61817	0.00522
6146.68950	0.00524
6144.76082	0.00526
6142.83214	0.00526
6140.90347	0.00525
6138.97479	0.00526
6137.04612	0.00528
6135.11744	0.00530
6133.18877	0.00531
6131.26009	0.00532
6129.33141	0.00533
6127.40274	0.00534
6125.47406	0.00535
6123.54539	0.00537
6121.61671	0.00538
6119.68804	0.00538
6117.75936	0.00539
6115.83068	0.00540
6113.90201	0.00542
6111.97333	0.00546
6110.04466	0.00547
6108.11598	0.00548
6106.18731	0.00548
6104.25863	0.00549
6102.32995	0.00549
6100.40128	0.00550
6098.47260	0.00552
6096.54393	0.00554
6094.61525	0.00554
6092.68658	0.00555
6090.75790	0.00557
6088.82922	0.00559
6086.90055	0.00560
6084.97187	0.00561
6083.04320	0.00562
6081.11452	0.00562
6079.18585	0.00561
6077.25717	0.00562
6075.32849	0.00564
6073.39982	0.00567
6071.47114	0.00569
6069.54247	0.00570
6067.61379	0.00571
6065.68512	0.00572
6063.75644	0.00571
6061.82776	0.00571
6059.89909	0.00572
6057.97041	0.00575
6056.04174	0.00578
6054.11306	0.00580
6052.18439	0.00579
6050.25571	0.00579
6048.32703	0.00582
6046.39836	0.00586
6044.46968	0.00588
6042.54101	0.00589
6040.61233	0.00588
6038.68366	0.00588
6036.75498	0.00588
6034.82630	0.00590
6032.89763	0.00592
6030.96895	0.00594
6029.04028	0.00595
6027.11160	0.00595
6025.18293	0.00596
6023.25425	0.00598
6021.32557	0.00598
6019.39690	0.00600
6017.46822	0.00603
6015.53955	0.00605
6013.61087	0.00605
6011.68220	0.00606
6009.75352	0.00608
6007.82484	0.00609
6005.89617	0.00610
6003.96749	0.00611
6002.03882	0.00613
6000.11014	0.00613
5998.18147	0.00614
5996.25279	0.00617
5994.32411	0.00620
5992.39544	0.00619
5990.46676	0.00618
5988.53809	0.00618
5986.60941	0.00621
5984.68074	0.00624
5982.75206	0.00625
5980.82338	0.00625
5978.89471	0.00627
5976.96603	0.00630
5975.03736	0.00632
5973.10868	0.00634
5971.18001	0.00636
5969.25133	0.00638
5967.32265	0.00639
5965.39398	0.00640
5963.46530	0.00639
5961.53663	0.00638
5959.60795	0.00639
5957.67928	0.00642
5955.75060	0.00643
5953.82192	0.00643
5951.89325	0.00644
5949.96457	0.00646
5948.03590	0.00649
5946.10722	0.00650
5944.17855	0.00651
5942.24987	0.00652
5940.32119	0.00653
5938.39252	0.00655
5936.46384	0.00655
5934.53517	0.00656
5932.60649	0.00657
5930.67782	0.00660
5928.74914	0.00663
5926.82046	0.00662
5924.89179	0.00663
5922.96311	0.00664
5921.03444	0.00667
5919.10576	0.00669
5917.17709	0.00671
5915.24841	0.00672
5913.31973	0.00673
5911.39106	0.00674
5909.46238	0.00674
5907.53371	0.00675
5905.60503	0.00677
5903.67636	0.00678
5901.74768	0.00679
5899.81900	0.00680
5897.89033	0.00681
5895.96165	0.00682
5894.03298	0.00685
5892.10430	0.00687
5890.17563	0.00688
5888.24695	0.00689
5886.31827	0.00690
5884.38960	0.00692
5882.46092	0.00694
5880.53225	0.00697
5878.60357	0.00699
5876.67490	0.00701
5874.74622	0.00702
5872.81755	0.00704
5870.88887	0.00705
5868.96019	0.00705
5867.03152	0.00707
5865.10284	0.00710
5863.17417	0.00712
5861.24549	0.00713
5859.31682	0.00713
5857.38814	0.00713
5855.45946	0.00714
5853.53079	0.00715
5851.60211	0.00717
5849.67344	0.00719
5847.74476	0.00719
5845.81609	0.00720
5843.88741	0.00722
5841.95873	0.00724
5840.03006	0.00727
5838.10138	0.00730
5836.17271	0.00732
5834.24403	0.00733
5832.31536	0.00733
5830.38668	0.00734
5828.45800	0.00737
5826.52933	0.00739
5824.60065	0.00740
5822.67198	0.00741
5820.74330	0.00741
5818.81463	0.00741
5816.88595	0.00741
5814.95727	0.00744
5813.02860	0.00746
5811.09992	0.00748
5809.17125	0.00749
5807.24257	0.00751
5805.31390	0.00753
5803.38522	0.00754
5801.45654	0.00756
5799.52787	0.00757
5797.59919	0.00759
5795.67052	0.00761
5793.74184	0.00763
5791.81317	0.00764
5789.88449	0.00765
5787.95581	0.00766
5786.02714	0.00768
5784.09846	0.00771
5782.16979	0.00774
5780.24111	0.00776
5778.31244	0.00777
5776.38376	0.00777
5774.45508	0.00779
5772.52641	0.00782
5770.59773	0.00784
5768.66906	0.00783
5766.74038	0.00782
5764.81171	0.00785
5762.88303	0.00788
5760.95435	0.00790
5759.02568	0.00790
5757.09700	0.00792
5755.16833	0.00794
5753.23965	0.00795
5751.31098	0.00796
5749.38230	0.00797
5747.45362	0.00800
5745.52495	0.00800
5743.59627	0.00800
5741.66760	0.00800
5739.73892	0.00802
5737.81025	0.00805
5735.88157	0.00808
5733.95289	0.00810
5732.02422	0.00812
5730.09554	0.00815
5728.16687	0.00817
5726.23819	0.00818
5724.30952	0.00820
5722.38084	0.00821
5720.45216	0.00823
5718.52349	0.00825
5716.59481	0.00828
5714.66614	0.00830
5712.73746	0.00829
5710.80879	0.00829
5708.88011	0.00829
5706.95143	0.00831
5705.02276	0.00834
5703.09408	0.00839
5701.16541	0.00841
5699.23673	0.00842
5697.30806	0.00842
5695.37938	0.00842
5693.45070	0.00844
5691.52203	0.00846
5689.59335	0.00849
5687.66468	0.00852
5685.73600	0.00854
5683.80733	0.00855
5681.87865	0.00856
5679.94997	0.00858
5678.02130	0.00859
5676.09262	0.00861
5674.16395	0.00863
5672.23527	0.00866
5670.30660	0.00868
5668.37792	0.00870
5666.44924	0.00871
5664.52057	0.00871
5662.59189	0.00872
5660.66322	0.00874
5658.73454	0.00876
5656.80587	0.00878
5654.87719	0.00881
5652.94851	0.00884
5651.01984	0.00886
5649.09116	0.00885
5647.16249	0.00885
5645.23381	0.00886
5643.30514	0.00889
5641.37646	0.00892
5639.44778	0.00894
5637.51911	0.00895
5635.59043	0.00897
5633.66176	0.00900
5631.73308	0.00901
5629.80441	0.00903
5627.87573	0.00905
5625.94705	0.00908
5624.01838	0.00910
5622.08970	0.00911
5620.16103	0.00911
5618.23235	0.00912
5616.30368	0.00914
5614.37500	0.00917
5612.44632	0.00920
5610.51765	0.00922
5608.58897	0.00923
5606.66030	0.00924
5604.73162	0.00927
5602.80295	0.00929
5600.87427	0.00930
5598.94559	0.00930
5597.01692	0.00933
5595.08824	0.00937
5593.15957	0.00939
5591.23089	0.00940
5589.30222	0.00941
5587.37354	0.00942
5585.44486	0.00944
5583.51619	0.00947
5581.58751	0.00949
5579.65884	0.00950
5577.73016	0.00951
5575.80149	0.00953
5573.87281	0.00955
5571.94413	0.00956
5570.01546	0.00957
5568.08678	0.00958
5566.15811	0.00960
5564.22943	0.00962
5562.30076	0.00966
5560.37208	0.00970
5558.44340	0.00972
5556.51473	0.00973
5554.58605	0.00975
5552.65738	0.00976
5550.72870	0.00977
5548.80003	0.00977
5546.87135	0.00979
5544.94267	0.00982
5543.01400	0.00984
5541.08532	0.00985
5539.15665	0.00986
5537.22797	0.00989
5535.29930	0.00993
5533.37062	0.00998
5531.44194	0.01001
5529.51327	0.01002
5527.58459	0.01003
5525.65592	0.01004
5523.72724	0.01004
5521.79857	0.01006
5519.86989	0.01007
5517.94121	0.01008
5516.01254	0.01009
5514.08386	0.01012
5512.15519	0.01015
5510.22651	0.01019
5508.29784	0.01020
5506.36916	0.01020
5504.44048	0.01021
5502.51181	0.01025
5500.58313	0.01028
5498.65446	0.01030
5496.72578	0.01032
5494.79711	0.01033
5492.86843	0.01034
5490.93975	0.01036
5489.01108	0.01038
5487.08240	0.01039
5485.15373	0.01041
5483.22505	0.01044
5481.29638	0.01048
5479.36770	0.01049
5477.43902	0.01049
5475.51035	0.01050
5473.58167	0.01053
5471.65300	0.01057
5469.72432	0.01060
5467.79565	0.01063
5465.86697	0.01065
5463.93829	0.01065
5462.00962	0.01065
5460.08094	0.01067
5458.15227	0.01070
5456.22359	0.01072
5454.29492	0.01074
5452.36624	0.01076
5450.43756	0.01078
5448.50889	0.01080
5446.58021	0.01081
5444.65154	0.01082
5442.72286	0.01082
5440.79419	0.01083
5438.86551	0.01087
5436.93683	0.01091
5435.00816	0.01094
5433.07948	0.01096
5431.15081	0.01098
5429.22213	0.01099
5427.29346	0.01101
5425.36478	0.01104
5423.43610	0.01108
5421.50743	0.01110
5419.57875	0.01112
5417.65008	0.01115
5415.72140	0.01116
5413.79273	0.01117
5411.86405	0.01118
5409.93537	0.01120
5408.00670	0.01124
5406.07802	0.01127
5404.14935	0.01129
5402.22067	0.01130
5400.29200	0.01130
5398.36332	0.01132
5396.43464	0.01135
5394.50597	0.01138
5392.57729	0.01140
5390.64862	0.01142
5388.71994	0.01145
5386.79127	0.01148
5384.86259	0.01150
5382.93391	0.01150
5381.00524	0.01149
5379.07656	0.01150
5377.14789	0.01153
5375.21921	0.01156
5373.29054	0.01160
5371.36186	0.01162
5369.43318	0.01164
5367.50451	0.01167
5365.57583	0.01169
5363.64716	0.01170
5361.71848	0.01171
5359.78981	0.01173
5357.86113	0.01176
5355.93245	0.01177
5354.00378	0.01178
5352.07510	0.01180
5350.14643	0.01184
5348.21775	0.01186
5346.28908	0.01188
5344.36040	0.01189
5342.43172	0.01191
5340.50305	0.01194
5338.57437	0.01197
5336.64570	0.01201
5334.71702	0.01204
5332.78835	0.01207
5330.85967	0.01207
5328.93099	0.01207
5327.00232	0.01208
5325.07364	0.01211
5323.14497	0.01215
5321.21629	0.01217
5319.28762	0.01219
5317.35894	0.01221
5315.43026	0.01223
5313.50159	0.01226
5311.57291	0.01229
5309.64424	0.01231
5307.71556	0.01233
5305.78689	0.01236
5303.85821	0.01238
5301.92953	0.01240
5300.00086	0.01243
5298.07218	0.01247
5296.14351	0.01250
5294.21483	0.01251
5292.28616	0.01251
5290.35748	0.01251
5288.42880	0.01252
5286.50013	0.01255
5284.57145	0.01259
5282.64278	0.01264
5280.71410	0.01267
5278.78543	0.01269
5276.85675	0.01270
5274.92807	0.01273
5272.99940	0.01276
5271.07072	0.01278
5269.14205	0.01278
5267.21337	0.01279
5265.28470	0.01281
5263.35602	0.01284
5261.42734	0.01286
5259.49867	0.01288
5257.56999	0.01289
5255.64132	0.01291
5253.71264	0.01293
5251.78397	0.01297
5249.85529	0.01301
5247.92661	0.01303
5245.99794	0.01304
5244.06926	0.01306
5242.14059	0.01308
5240.21191	0.01310
5238.28324	0.01312
5236.35456	0.01316
5234.42588	0.01320
5232.49721	0.01322
5230.56853	0.01324
5228.63986	0.01326
5226.71118	0.01329
5224.78251	0.01330
5222.85383	0.01332
5220.92515	0.01335
5218.99648	0.01337
5217.06780	0.01339
5215.13913	0.01341
5213.21045	0.01344
5211.28178	0.01345
5209.35310	0.01346
5207.42442	0.01347
5205.49575	0.01349
5203.56707	0.01355
5201.63840	0.01360
5199.70972	0.01362
5197.78105	0.01364
5195.85237	0.01366
5193.92369	0.01370
5191.99502	0.01373
5190.06634	0.01374
5188.13767	0.01374
5186.20899	0.01375
5184.28032	0.01378
5182.35164	0.01382
5180.42296	0.01385
5178.49429	0.01386
5176.56561	0.01385
5174.63694	0.01386
5172.70826	0.01390
5170.77959	0.01394
5168.85091	0.01399
5166.92223	0.01403
5164.99356	0.01406
5163.06488	0.01408
5161.13621	0.01411
5159.20753	0.01413
5157.27886	0.01415
5155.35018	0.01415
5153.42150	0.01415
5151.49283	0.01417
5149.56415	0.01421
5147.63548	0.01425
5145.70680	0.01428
5143.77813	0.01429
5141.84945	0.01431
5139.92077	0.01433
5137.99210	0.01435
5136.06342	0.01437
5134.13475	0.01441
5132.20607	0.01444
5130.27740	0.01445
5128.34872	0.01447
5126.42004	0.01450
5124.49137	0.01454
5122.56269	0.01457
5120.63402	0.01459
5118.70534	0.01461
5116.77667	0.01464
5114.84799	0.01465
5112.91931	0.01466
5110.99064	0.01469
5109.06196	0.01474
5107.13329	0.01478
5105.20461	0.01479
5103.27594	0.01479
5101.34726	0.01478
5099.41858	0.01480
5097.48991	0.01485
5095.56123	0.01489
5093.63256	0.01492
5091.70388	0.01494
5089.77521	0.01497
5087.84653	0.01500
5085.91785	0.01503
5083.98918	0.01505
5082.06050	0.01508
5080.13183	0.01510
5078.20315	0.01512
5076.27448	0.01515
5074.34580	0.01519
5072.41712	0.01521
5070.48845	0.01523
5068.55977	0.01524
5066.63110	0.01525
5064.70242	0.01527
5062.77375	0.01529
5060.84507	0.01531
5058.91639	0.01534
5056.98772	0.01538
5055.05904	0.01542
5053.13037	0.01545
5051.20169	0.01548
5049.27302	0.01549
5047.34434	0.01548
5045.41566	0.01551
5043.48699	0.01555
5041.55831	0.01558
5039.62964	0.01560
5037.70096	0.01562
5035.77229	0.01564
5033.84361	0.01566
5031.91493	0.01569
5029.98626	0.01574
5028.05758	0.01577
5026.12891	0.01580
5024.20023	0.01582
5022.27156	0.01585
5020.34288	0.01589
5018.41420	0.01593
5016.48553	0.01596
5014.55685	0.01599
5012.62818	0.01601
5010.69950	0.01604
5008.77083	0.01606
5006.84215	0.01608
5004.91347	0.01610
5002.98480	0.01612
5001.05612	0.01614
4999.12745	0.01616
4997.19877	0.01618
4995.27010	0.01621
4993.34142	0.01623
4991.41274	0.01627
4989.48407	0.01631
4987.55539	0.01634
4985.62672	0.01636
4983.69804	0.01637
4981.76937	0.01639
4979.84069	0.01640
4977.91201	0.01643
4975.98334	0.01646
4974.05466	0.01649
4972.12599	0.01652
4970.19731	0.01654
4968.26864	0.01656
4966.33996	0.01656
4964.41128	0.01659
4962.48261	0.01664
4960.55393	0.01668
4958.62526	0.01670
4956.69658	0.01672
4954.76791	0.01676
4952.83923	0.01680
4950.91055	0.01682
4948.98188	0.01685
4947.05320	0.01688
4945.12453	0.01690
4943.19585	0.01692
4941.26718	0.01695
4939.33850	0.01697
4937.40982	0.01698
4935.48115	0.01700
4933.55247	0.01704
4931.62380	0.01710
4929.69512	0.01716
4927.76645	0.01719
4925.83777	0.01721
4923.90909	0.01724
4921.98042	0.01727
4920.05174	0.01731
4918.12307	0.01734
4916.19439	0.01735
4914.26572	0.01737
4912.33704	0.01738
4910.40836	0.01740
4908.47969	0.01742
4906.55101	0.01746
4904.62234	0.01749
4902.69366	0.01752
4900.76499	0.01756
4898.83631	0.01760
4896.90763	0.01760
4894.97896	0.01762
4893.05028	0.01765
4891.12161	0.01768
4889.19293	0.01772
4887.26426	0.01777
4885.33558	0.01780
4883.40690	0.01781
4881.47823	0.01780
4879.54955	0.01782
4877.62088	0.01784
4875.69220	0.01786
4873.76353	0.01787
4871.83485	0.01789
4869.90617	0.01794
4867.97750	0.01799
4866.04882	0.01804
4864.12015	0.01807
4862.19147	0.01810
4860.26280	0.01812
4858.33412	0.01815
4856.40544	0.01816
4854.47677	0.01819
4852.54809	0.01823
4850.61942	0.01826
4848.69074	0.01827
4846.76207	0.01830
4844.83339	0.01834
4842.90471	0.01838
4840.97604	0.01842
4839.04736	0.01844
4837.11869	0.01846
4835.19001	0.01848
4833.26134	0.01853
4831.33266	0.01857
4829.40398	0.01859
4827.47531	0.01860
4825.54663	0.01863
4823.61796	0.01867
4821.68928	0.01870
4819.76061	0.01873
4817.83193	0.01876
4815.90325	0.01879
4813.97458	0.01881
4812.04590	0.01882
4810.11723	0.01884
4808.18855	0.01887
4806.25988	0.01890
4804.33120	0.01895
4802.40252	0.01900
4800.47385	0.01904
4798.54517	0.01906
4796.61650	0.01907
4794.68782	0.01912
4792.75915	0.01918
4790.83047	0.01923
4788.90179	0.01926
4786.97312	0.01928
4785.04444	0.01928
4783.11577	0.01930
4781.18709	0.01934
4779.25842	0.01940
4777.32974	0.01946
4775.40106	0.01949
4773.47239	0.01951
4771.54371	0.01953
4769.61504	0.01954
4767.68636	0.01956
4765.75769	0.01958
4763.82901	0.01962
4761.90033	0.01965
4759.97166	0.01969
4758.04298	0.01971
4756.11431	0.01974
4754.18563	0.01976
4752.25696	0.01979
4750.32828	0.01983
4748.39960	0.01988
4746.47093	0.01992
4744.54225	0.01994
4742.61358	0.01994
4740.68490	0.01996
4738.75623	0.02000
4736.82755	0.02006
4734.89887	0.02011
4732.97020	0.02013
4731.04152	0.02014
4729.11285	0.02018
4727.18417	0.02022
4725.25550	0.02024
4723.32682	0.02026
4721.39814	0.02030
4719.46947	0.02034
4717.54079	0.02036
4715.61212	0.02037
4713.68344	0.02039
4711.75477	0.02042
4709.82609	0.02047
4707.89741	0.02051
4705.96874	0.02056
4704.04006	0.02061
4702.11139	0.02065
4700.18271	0.02067
4698.25404	0.02069
4696.32536	0.02072
4694.39668	0.02075
4692.46801	0.02080
4690.53933	0.02085
4688.61066	0.02089
4686.68198	0.02092
4684.75331	0.02095
4682.82463	0.02099
4680.89595	0.02101
4678.96728	0.02102
4677.03860	0.02104
4675.10993	0.02109
4673.18125	0.02115
4671.25258	0.02118
4669.32390	0.02118
4667.39522	0.02120
4665.46655	0.02123
4663.53787	0.02128
4661.60920	0.02133
4659.68052	0.02139
4657.75185	0.02144
4655.82317	0.02145
4653.89449	0.02146
4651.96582	0.02148
4650.03714	0.02151
4648.10847	0.02155
4646.17979	0.02162
4644.25112	0.02166
4642.32244	0.02167
4640.39376	0.02169
4638.46509	0.02171
4636.53641	0.02174
4634.60774	0.02177
4632.67906	0.02182
4630.75039	0.02187
4628.82171	0.02192
4626.89303	0.02196
4624.96436	0.02199
4623.03568	0.02202
4621.10701	0.02205
4619.17833	0.02211
4617.24966	0.02216
4615.32098	0.02217
4613.39230	0.02219
4611.46363	0.02226
4609.53495	0.02233
4607.60628	0.02237
4605.67760	0.02240
4603.74893	0.02243
4601.82025	0.02245
4599.89157	0.02246
4597.96290	0.02248
4596.03422	0.02250
4594.10555	0.02254
4592.17687	0.02258
4590.24820	0.02262
4588.31952	0.02266
4586.39084	0.02268
4584.46217	0.02272
4582.53349	0.02278
4580.60482	0.02283
4578.67614	0.02287
4576.74747	0.02291
4574.81879	0.02294
4572.89011	0.02296
4570.96144	0.02300
4569.03276	0.02305
4567.10409	0.02309
4565.17541	0.02314
4563.24674	0.02317
4561.31806	0.02320
4559.38938	0.02323
4557.46071	0.02327
4555.53203	0.02332
4553.60336	0.02336
4551.67468	0.02340
4549.74601	0.02342
4547.81733	0.02343
4545.88865	0.02346
4543.95998	0.02351
4542.03130	0.02356
4540.10263	0.02360
4538.17395	0.02364
4536.24528	0.02369
4534.31660	0.02375
4532.38792	0.02381
4530.45925	0.02386
4528.53057	0.02390
4526.60190	0.02394
4524.67322	0.02395
4522.74455	0.02396
4520.81587	0.02400
4518.88719	0.02406
4516.95852	0.02410
4515.02984	0.02413
4513.10117	0.02418
4511.17249	0.02424
4509.24382	0.02428
4507.31514	0.02429
4505.38646	0.02431
4503.45779	0.02436
4501.52911	0.02443
4499.60044	0.02448
4497.67176	0.02450
4495.74309	0.02451
4493.81441	0.02456
4491.88573	0.02462
4489.95706	0.02468
4488.02838	0.02471
4486.09971	0.02474
4484.17103	0.02476
4482.24236	0.02480
4480.31368	0.02485
4478.38500	0.02489
4476.45633	0.02494
4474.52765	0.02499
4472.59898	0.02504
4470.67030	0.02509
4468.74163	0.02514
4466.81295	0.02518
4464.88427	0.02519
4462.95560	0.02520
4461.02692	0.02525
4459.09825	0.02531
4457.16957	0.02537
4455.24090	0.02542
4453.31222	0.02548
4451.38354	0.02554
4449.45487	0.02559
4447.52619	0.02564
4445.59752	0.02568
4443.66884	0.02571
4441.74017	0.02575
4439.81149	0.02578
4437.88281	0.02583
4435.95414	0.02588
4434.02546	0.02592
4432.09679	0.02594
4430.16811	0.02597
4428.23944	0.02601
4426.31076	0.02607
4424.38208	0.02614
4422.45341	0.02620
4420.52473	0.02624
4418.59606	0.02628
4416.66738	0.02634
4414.73871	0.02638
4412.81003	0.02643
4410.88135	0.02649
4408.95268	0.02653
4407.02400	0.02655
4405.09533	0.02658
4403.16665	0.02663
4401.23798	0.02668
4399.30930	0.02673
4397.38062	0.02677
4395.45195	0.02680
4393.52327	0.02682
4391.59460	0.02686
4389.66592	0.02689
4387.73725	0.02694
4385.80857	0.02701
4383.87989	0.02708
4381.95122	0.02714
4380.02254	0.02719
4378.09387	0.02724
4376.16519	0.02729
4374.23652	0.02733
4372.30784	0.02737
4370.37916	0.02742
4368.45049	0.02746
4366.52181	0.02751
4364.59314	0.02757
4362.66446	0.02761
4360.73579	0.02767
4358.80711	0.02773
4356.87843	0.02778
4354.94976	0.02781
4353.02108	0.02784
4351.09241	0.02788
4349.16373	0.02793
4347.23506	0.02798
4345.30638	0.02805
4343.37770	0.02812
4341.44903	0.02819
4339.52035	0.02827
4337.59168	0.02834
4335.66300	0.02837
4333.73433	0.02839
4331.80565	0.02842
4329.87697	0.02848
4327.94830	0.02853
4326.01962	0.02857
4324.09095	0.02861
4322.16227	0.02865
4320.23360	0.02870
4318.30492	0.02876
4316.37624	0.02882
4314.44757	0.02888
4312.51889	0.02895
4310.59022	0.02900
4308.66154	0.02903
4306.73287	0.02907
4304.80419	0.02912
4302.87551	0.02918
4300.94684	0.02926
4299.01816	0.02931
4297.08949	0.02934
4295.16081	0.02937
4293.23214	0.02943
4291.30346	0.02951
4289.37478	0.02958
4287.44611	0.02962
4285.51743	0.02967
4283.58876	0.02972
4281.66008	0.02977
4279.73141	0.02983
4277.80273	0.02989
4275.87405	0.02995
4273.94538	0.03000
4272.01670	0.03003
4270.08803	0.03008
4268.15935	0.03013
4266.23068	0.03020
4264.30200	0.03026
4262.37332	0.03031
4260.44465	0.03038
4258.51597	0.03044
4256.58730	0.03048
4254.65862	0.03053
4252.72995	0.03059
4250.80127	0.03066
4248.87259	0.03072
4246.94392	0.03079
4245.01524	0.03085
4243.08657	0.03089
4241.15789	0.03093
4239.22922	0.03096
4237.30054	0.03100
4235.37186	0.03106
4233.44319	0.03114
4231.51451	0.03121
4229.58584	0.03127
4227.65716	0.03134
4225.72849	0.03139
4223.79981	0.03143
4221.87113	0.03149
4219.94246	0.03157
4218.01378	0.03165
4216.08511	0.03171
4214.15643	0.03175
4212.22776	0.03180
4210.29908	0.03186
4208.37040	0.03191
4206.44173	0.03195
4204.51305	0.03199
4202.58438	0.03205
4200.65570	0.03212
4198.72703	0.03218
4196.79835	0.03227
4194.86968	0.03234
4192.94100	0.03240
4191.01232	0.03244
4189.08365	0.03249
4187.15497	0.03254
4185.22630	0.03262
4183.29762	0.03270
4181.36895	0.03278
4179.44027	0.03283
4177.51159	0.03286
4175.58292	0.03290
4173.65424	0.03297
4171.72557	0.03306
4169.79689	0.03313
4167.86822	0.03316
4165.93954	0.03318
4164.01086	0.03323
4162.08219	0.03330
4160.15351	0.03338
4158.22484	0.03346
4156.29616	0.03354
4154.36749	0.03361
4152.43881	0.03368
4150.51013	0.03374
4148.58146	0.03377
4146.65278	0.03380
4144.72411	0.03387
4142.79543	0.03395
4140.86676	0.03403
4138.93808	0.03410
4137.00940	0.03417
4135.08073	0.03423
4133.15205	0.03430
4131.22338	0.03438
4129.29470	0.03447
4127.36603	0.03454
4125.43735	0.03459
4123.50867	0.03462
4121.58000	0.03465
4119.65132	0.03468
4117.72265	0.03475
4115.79397	0.03483
4113.86530	0.03491
4111.93662	0.03497
4110.00794	0.03505
4108.07927	0.03513
4106.15059	0.03519
4104.22192	0.03525
4102.29324	0.03530
4100.36457	0.03535
4098.43589	0.03542
4096.50721	0.03550
4094.57854	0.03558
4092.64986	0.03565
4090.72119	0.03569
4088.79251	0.03576
4086.86384	0.03582
4084.93516	0.03589
4083.00648	0.03597
4081.07781	0.03605
4079.14913	0.03612
4077.22046	0.03619
4075.29178	0.03628
4073.36311	0.03636
4071.43443	0.03641
4069.50575	0.03647
4067.57708	0.03653
4065.64840	0.03659
4063.71973	0.03667
4061.79105	0.03675
4059.86238	0.03681
4057.93370	0.03688
4056.00502	0.03696
4054.07635	0.03703
4052.14767	0.03708
4050.21900	0.03713
4048.29032	0.03720
4046.36165	0.03728
4044.43297	0.03734
4042.50429	0.03741
4040.57562	0.03749
4038.64694	0.03755
4036.71827	0.03761
4034.78959	0.03770
4032.86092	0.03778
4030.93224	0.03785
4029.00356	0.03793
4027.07489	0.03801
4025.14621	0.03808
4023.21754	0.03816
4021.28886	0.03822
4019.36019	0.03826
4017.43151	0.03831
4015.50283	0.03840
4013.57416	0.03849
4011.64548	0.03854
4009.71681	0.03859
4007.78813	0.03867
4005.85946	0.03877
4003.93078	0.03887
4002.00210	0.03896
4000.07343	0.03901
3998.14475	0.03905
3996.21608	0.03911
3994.28740	0.03919
3992.35873	0.03928
3990.43005	0.03938
3988.50137	0.03946
3986.57270	0.03954
3984.64402	0.03960
3982.71535	0.03967
3980.78667	0.03974
3978.85800	0.03980
3976.92932	0.03986
3975.00064	0.03993
3973.07197	0.04002
3971.14329	0.04007
3969.21462	0.04013
3967.28594	0.04021
3965.35727	0.04030
3963.42859	0.04039
3961.49991	0.04047
3959.57124	0.04056
3957.64256	0.04063
3955.71389	0.04072
3953.78521	0.04079
3951.85654	0.04085
3949.92786	0.04089
3947.99918	0.04096
3946.07051	0.04104
3944.14183	0.04111
3942.21316	0.04119
3940.28448	0.04129
3938.35581	0.04138
3936.42713	0.04144
3934.49845	0.04145
3932.56978	0.04148
3930.64110	0.04158
3928.71243	0.04171
3926.78375	0.04180
3924.85508	0.04186
3922.92640	0.04193
3920.99772	0.04200
3919.06905	0.04205
3917.14037	0.04213
3915.21170	0.04228
3913.28302	0.04242
3911.35435	0.04252
3909.42567	0.04257
3907.49699	0.04257
3905.56832	0.04253
3903.63964	0.04253
3901.71097	0.04259
3899.78229	0.04270
3897.85362	0.04287
3895.92494	0.04301
3893.99626	0.04307
3892.06759	0.04312
3890.13891	0.04323
3888.21024	0.04329
3886.28156	0.04332
3884.35289	0.04340
3882.42421	0.04347
3880.49553	0.04354
3878.56686	0.04369
3876.63818	0.04382
3874.70951	0.04386
3872.78083	0.04386
3870.85216	0.04387
3868.92348	0.04397
3866.99480	0.04412
3865.06613	0.04423
3863.13745	0.04433
3861.20878	0.04447
3859.28010	0.04458
3857.35143	0.04452
3855.42275	0.04433
3853.49407	0.04429
3851.56540	0.04459
3849.63672	0.04498
3847.70805	0.04518
3845.77937	0.04522
3843.85070	0.04520
3841.92202	0.04519
3839.99334	0.04518
3838.06467	0.04519
3836.13599	0.04533
3834.20732	0.04552
3832.27864	0.04566
3830.34997	0.04579
3828.42129	0.04590
3826.49261	0.04598
3824.56394	0.04602
3822.63526	0.04599
3820.70659	0.04603
3818.77791	0.04616
3816.84924	0.04628
3814.92056	0.04644
3812.99188	0.04665
3811.06321	0.04677
3809.13453	0.04675
3807.20586	0.04675
3805.27718	0.04683
3803.34851	0.04689
3801.41983	0.04695
3799.49115	0.04711
3797.56248	0.04725
3795.63380	0.04737
3793.70513	0.04752
3791.77645	0.04765
3789.84778	0.04774
3787.91910	0.04782
3785.99042	0.04791
3784.06175	0.04799
3782.13307	0.04805
3780.20440	0.04808
3778.27572	0.04817
3776.34705	0.04832
3774.41837	0.04844
3772.48969	0.04846
3770.56102	0.04846
3768.63234	0.04853
3766.70367	0.04866
3764.77499	0.04881
3762.84632	0.04890
3760.91764	0.04891
3758.98896	0.04896
3757.06029	0.04907
3755.13161	0.04912
3753.20294	0.04902
3751.27426	0.04892
3749.34559	0.04902
3747.41691	0.04914
3745.48823	0.04914
3743.55956	0.04928
3741.63088	0.04959
3739.70221	0.04975
3737.77353	0.04968
3735.84486	0.04965
3733.91618	0.04980
3731.98750	0.05007
3730.05883	0.05030
3728.13015	0.05041
3726.20148	0.05045
3724.27280	0.05052
3722.34413	0.05062
3720.41545	0.05074
3718.48677	0.05090
3716.55810	0.05101
3714.62942	0.05100
3712.70075	0.05097
3710.77207	0.05107
3708.84340	0.05129
3706.91472	0.05149
3704.98604	0.05159
3703.05737	0.05161
3701.12869	0.05168
3699.20002	0.05183
3697.27134	0.05195
3695.34267	0.05201
3693.41399	0.05201
3691.48531	0.05199
3689.55664	0.05204
3687.62796	0.05225
3685.69929	0.05249
3683.77061	0.05264
3681.84194	0.05268
3679.91326	0.05266
3677.98458	0.05257
3676.05591	0.05250
3674.12723	0.05261
3672.19856	0.05277
3670.26988	0.05289
3668.34121	0.05309
3666.41253	0.05334
3664.48385	0.05351
3662.55518	0.05361
3660.62650	0.05365
3658.69783	0.05364
3656.76915	0.05363
3654.84048	0.05367
3652.91180	0.05363
3650.98312	0.05346
3649.05445	0.05338
3647.12577	0.05354
3645.19710	0.05385
3643.26842	0.05414
3641.33975	0.05433
3639.41107	0.05444
3637.48239	0.05453
3635.55372	0.05459
3633.62504	0.05461
3631.69637	0.05455
3629.76769	0.05445
3627.83902	0.05455
3625.91034	0.05483
3623.98166	0.05501
3622.05299	0.05501
3620.12431	0.05494
3618.19564	0.05496
3616.26696	0.05506
3614.33829	0.05514
3612.40961	0.05519
3610.48093	0.05521
3608.55226	0.05528
3606.62358	0.05545
3604.69491	0.05560
3602.76623	0.05568
3600.83756	0.05574
3598.90888	0.05582
3596.98020	0.05587
3595.05153	0.05593
3593.12285	0.05600
3591.19418	0.05604
3589.26550	0.05602
3587.33683	0.05607
3585.40815	0.05625
3583.47947	0.05642
3581.55080	0.05651
3579.62212	0.05657
3577.69345	0.05666
3575.76477	0.05676
3573.83610	0.05685
3571.90742	0.05690
3569.97874	0.05686
3568.05007	0.05681
3566.12139	0.05689
3564.19272	0.05707
3562.26404	0.05725
3560.33537	0.05737
3558.40669	0.05745
3556.47801	0.05751
3554.54934	0.05755
3552.62066	0.05761
3550.69199	0.05767
3548.76331	0.05771
3546.83464	0.05770
3544.90596	0.05774
3542.97728	0.05785
3541.04861	0.05799
3539.11993	0.05808
3537.19126	0.05813
3535.26258	0.05816
3533.33391	0.05819
3531.40523	0.05822
3529.47655	0.05826
3527.54788	0.05830
3525.61920	0.05832
3523.69053	0.05835
3521.76185	0.05844
3519.83318	0.05854
3517.90450	0.05860
3515.97582	0.05861
3514.04715	0.05863
3512.11847	0.05864
3510.18980	0.05865
3508.26112	0.05871
3506.33245	0.05876
3504.40377	0.05877
3502.47509	0.05878
3500.54642	0.05884
3498.61774	0.05890
3496.68907	0.05893
3494.76039	0.05896
3492.83172	0.05897
3490.90304	0.05896
3488.97436	0.05894
3487.04569	0.05895
3485.11701	0.05900
3483.18834	0.05905
3481.25966	0.05910
3479.33099	0.05918
3477.40231	0.05925
3475.47363	0.05932
3473.54496	0.05941
3471.61628	0.05951
3469.68761	0.05960
3467.75893	0.05970
3465.83026	0.05977
3463.90158	0.05983
3461.97290	0.05989
3460.04423	0.06002
3458.11555	0.06016
3456.18688	0.06028
3454.25820	0.06037
3452.32953	0.06044
3450.40085	0.06052
3448.47217	0.06060
3446.54350	0.06070
3444.61482	0.06083
3442.68615	0.06096
3440.75747	0.06108
3438.82880	0.06119
3436.90012	0.06135
3434.97144	0.06151
3433.04277	0.06167
3431.11409	0.06185
3429.18542	0.06208
3427.25674	0.06231
3425.32807	0.06249
3423.39939	0.06263
3421.47071	0.06280
3419.54204	0.06299
3417.61336	0.06318
3415.68469	0.06334
3413.75601	0.06347
3411.82734	0.06358
3409.89866	0.06370
3407.96998	0.06383
3406.04131	0.06397
3404.11263	0.06412
3402.18396	0.06427
3400.25528	0.06438
3398.32661	0.06450
3396.39793	0.06465
3394.46925	0.06479
3392.54058	0.06490
3390.61190	0.06501
3388.68323	0.06514
3386.75455	0.06529
3384.82588	0.06544
3382.89720	0.06558
3380.96852	0.06570
3379.03985	0.06581
3377.11117	0.06593
3375.18250	0.06608
3373.25382	0.06623
3371.32515	0.06632
3369.39647	0.06640
3367.46779	0.06651
3365.53912	0.06665
3363.61044	0.06678
3361.68177	0.06690
3359.75309	0.06700
3357.82442	0.06711
3355.89574	0.06725
3353.96706	0.06740
3352.03839	0.06753
3350.10971	0.06764
3348.18104	0.06775
3346.25236	0.06787
3344.32369	0.06799
3342.39501	0.06812
3340.46633	0.06822
3338.53766	0.06833
3336.60898	0.06846
3334.68031	0.06859
3332.75163	0.06872
3330.82296	0.06885
3328.89428	0.06897
3326.96560	0.06908
3325.03693	0.06920
3323.10825	0.06935
3321.17958	0.06948
3319.25090	0.06959
3317.32223	0.06970
3315.39355	0.06982
3313.46487	0.06994
3311.53620	0.07007
3309.60752	0.07018
3307.67885	0.07030
3305.75017	0.07044
3303.82150	0.07057
3301.89282	0.07068
3299.96414	0.07079
3298.03547	0.07092
3296.10679	0.07105
3294.17812	0.07118
3292.24944	0.07131
3290.32077	0.07147
3288.39209	0.07162
3286.46341	0.07174
3284.53474	0.07185
3282.60606	0.07197
3280.67739	0.07210
3278.74871	0.07224
3276.82004	0.07237
3274.89136	0.07248
3272.96268	0.07261
3271.03401	0.07275
3269.10533	0.07289
3267.17666	0.07300
3265.24798	0.07310
3263.31931	0.07324
3261.39063	0.07342
3259.46195	0.07359
3257.53328	0.07372
3255.60460	0.07382
3253.67593	0.07393
3251.74725	0.07406
3249.81858	0.07419
3247.88990	0.07432
3245.96122	0.07445
3244.03255	0.07460
3242.10387	0.07474
3240.17520	0.07486
3238.24652	0.07498
3236.31785	0.07510
3234.38917	0.07522
3232.46049	0.07534
3230.53182	0.07549
3228.60314	0.07564
3226.67447	0.07579
3224.74579	0.07592
3222.81712	0.07604
3220.88844	0.07617
3218.95976	0.07630
3217.03109	0.07645
3215.10241	0.07660
3213.17374	0.07673
3211.24506	0.07684
3209.31639	0.07695
3207.38771	0.07710
3205.45903	0.07727
3203.53036	0.07741
3201.60168	0.07755
3199.67301	0.07771
3197.74433	0.07786
3195.81566	0.07798
3193.88698	0.07809
3191.95830	0.07822
3190.02963	0.07837
3188.10095	0.07852
3186.17228	0.07867
3184.24360	0.07883
3182.31493	0.07895
3180.38625	0.07905
3178.45757	0.07916
3176.52890	0.07933
3174.60022	0.07949
3172.67155	0.07960
3170.74287	0.07967
3168.81420	0.07978
3166.88552	0.07993
3164.95684	0.08010
3163.02817	0.08027
3161.09949	0.08042
3159.17082	0.08057
3157.24214	0.08071
3155.31347	0.08084
3153.38479	0.08098
3151.45611	0.08114
3149.52744	0.08128
3147.59876	0.08140
3145.67009	0.08151
3143.74141	0.08165
3141.81274	0.08180
3139.88406	0.08195
3137.95538	0.08209
3136.02671	0.08221
3134.09803	0.08233
3132.16936	0.08247
3130.24068	0.08263
3128.31201	0.08276
3126.38333	0.08288
3124.45465	0.08300
3122.52598	0.08313
3120.59730	0.08327
3118.66863	0.08340
3116.73995	0.08353
3114.81128	0.08369
3112.88260	0.08385
3110.95392	0.08397
3109.02525	0.08409
3107.09657	0.08424
3105.16790	0.08441
3103.23922	0.08456
3101.31055	0.08469
3099.38187	0.08481
3097.45319	0.08493
3095.52452	0.08507
3093.59584	0.08523
3091.66717	0.08539
3089.73849	0.08553
3087.80982	0.08565
3085.88114	0.08574
3083.95246	0.08585
3082.02379	0.08599
3080.09511	0.08616
3078.16644	0.08636
3076.23776	0.08653
3074.30909	0.08665
3072.38041	0.08675
3070.45173	0.08687
3068.52306	0.08699
3066.59438	0.08710
3064.66571	0.08723
3062.73703	0.08738
3060.80836	0.08752
3058.87968	0.08765
3056.95100	0.08778
3055.02233	0.08792
3053.09365	0.08805
3051.16498	0.08817
3049.23630	0.08830
3047.30763	0.08846
3045.37895	0.08860
3043.45027	0.08875
3041.52160	0.08889
3039.59292	0.08901
3037.66425	0.08910
3035.73557	0.08921
3033.80690	0.08936
3031.87822	0.08951
3029.94954	0.08966
3028.02087	0.08981
3026.09219	0.08995
3024.16352	0.09010
3022.23484	0.09024
3020.30617	0.09037
3018.37749	0.09048
3016.44881	0.09060
3014.52014	0.09076
3012.59146	0.09093
3010.66279	0.09107
3008.73411	0.09118
3006.80544	0.09129
3004.87676	0.09144
3002.94808	0.09159
3001.01941	0.09174
2999.09073	0.09186
2997.16206	0.09199
2995.23338	0.09211
2993.30471	0.09223
2991.37603	0.09234
2989.44735	0.09244
2987.51868	0.09251
2985.59000	0.09258
2983.66133	0.09269
2981.73265	0.09281
2979.80398	0.09290
2977.87530	0.09297
2975.94662	0.09301
2974.01795	0.09303
2972.08927	0.09304
2970.16060	0.09301
2968.23192	0.09296
2966.30325	0.09296
2964.37457	0.09300
2962.44589	0.09308
2960.51722	0.09321
2958.58854	0.09339
2956.65987	0.09358
2954.73119	0.09376
2952.80252	0.09394
2950.87384	0.09412
2948.94516	0.09428
2947.01649	0.09441
2945.08781	0.09448
2943.15914	0.09452
2941.23046	0.09456
2939.30179	0.09458
2937.37311	0.09457
2935.44443	0.09456
2933.51576	0.09455
2931.58708	0.09452
2929.65841	0.09445
2927.72973	0.09439
2925.80106	0.09433
2923.87238	0.09431
2921.94370	0.09436
2920.01503	0.09448
2918.08635	0.09467
2916.15768	0.09498
2914.22900	0.09538
2912.30033	0.09582
2910.37165	0.09624
2908.44297	0.09660
2906.51430	0.09691
2904.58562	0.09718
2902.65695	0.09741
2900.72827	0.09760
2898.79960	0.09781
2896.87092	0.09803
2894.94224	0.09822
2893.01357	0.09838
2891.08489	0.09854
2889.15622	0.09874
2887.22754	0.09893
2885.29887	0.09911
2883.37019	0.09928
2881.44151	0.09945
2879.51284	0.09959
2877.58416	0.09972
2875.65549	0.09986
2873.72681	0.09999
2871.79814	0.10010
2869.86946	0.10022
2867.94078	0.10034
2866.01211	0.10045
2864.08343	0.10053
2862.15476	0.10056
2860.22608	0.10057
2858.29741	0.10059
2856.36873	0.10062
2854.44005	0.10062
2852.51138	0.10061
2850.58270	0.10069
2848.65403	0.10093
2846.72535	0.10133
2844.79668	0.10181
2842.86800	0.10225
2840.93932	0.10260
2839.01065	0.10286
2837.08197	0.10308
2835.15330	0.10330
2833.22462	0.10349
2831.29595	0.10367
2829.36727	0.10386
2827.43859	0.10403
2825.50992	0.10417
2823.58124	0.10430
2821.65257	0.10445
2819.72389	0.10461
2817.79522	0.10478
2815.86654	0.10495
2813.93786	0.10509
2812.00919	0.10522
2810.08051	0.10538
2808.15184	0.10556
2806.22316	0.10575
2804.29449	0.10592
2802.36581	0.10608
2800.43713	0.10624
2798.50846	0.10639
2796.57978	0.10651
2794.65111	0.10662
2792.72243	0.10677
2790.79376	0.10694
2788.86508	0.10709
2786.93640	0.10724
2785.00773	0.10739
2783.07905	0.10755
2781.15038	0.10771
2779.22170	0.10786
2777.29303	0.10800
2775.36435	0.10814
2773.43567	0.10830
2771.50700	0.10845
2769.57832	0.10862
2767.64965	0.10878
2765.72097	0.10893
2763.79230	0.10908
2761.86362	0.10921
2759.93494	0.10933
2758.00627	0.10947
2756.07759	0.10962
2754.14892	0.10975
2752.22024	0.10987
2750.29157	0.11001
2748.36289	0.11017
2746.43421	0.11035
2744.50554	0.11050
2742.57686	0.11062
2740.64819	0.11075
2738.71951	0.11089
2736.79084	0.11102
2734.86216	0.11113
2732.93348	0.11127
2731.00481	0.11144
2729.07613	0.11159
2727.14746	0.11172
2725.21878	0.11186
2723.29011	0.11201
2721.36143	0.11215
2719.43275	0.11227
2717.50408	0.11236
2715.57540	0.11246
2713.64673	0.11262
2711.71805	0.11283
2709.78938	0.11303
2707.86070	0.11320
2705.93202	0.11335
2704.00335	0.11347
2702.07467	0.11357
2700.14600	0.11370
2698.21732	0.11386
2696.28865	0.11400
2694.35997	0.11413
2692.43129	0.11428
2690.50262	0.11442
2688.57394	0.11453
2686.64527	0.11464
2684.71659	0.11477
2682.78792	0.11490
2680.85924	0.11505
2678.93056	0.11522
2677.00189	0.11537
2675.07321	0.11551
2673.14454	0.11570
2671.21586	0.11586
2669.28719	0.11599
2667.35851	0.11611
2665.42983	0.11625
2663.50116	0.11639
2661.57248	0.11650
2659.64381	0.11662
2657.71513	0.11679
2655.78646	0.11696
2653.85778	0.11711
2651.92910	0.11726
2650.00043	0.11740
2648.07175	0.11753
2646.14308	0.11768
2644.21440	0.11785
2642.28573	0.11801
2640.35705	0.11817
2638.42837	0.11832
2636.49970	0.11847
2634.57102	0.11863
2632.64235	0.11879
2630.71367	0.11894
2628.78500	0.11907
2626.85632	0.11923
2624.92764	0.11942
2622.99897	0.11960
2621.07029	0.11976
2619.14162	0.11991
2617.21294	0.12005
2615.28427	0.12016
2613.35559	0.12028
2611.42691	0.12043
2609.49824	0.12060
2607.56956	0.12077
2605.64089	0.12092
2603.71221	0.12107
2601.78354	0.12122
2599.85486	0.12136
2597.92618	0.12149
2595.99751	0.12163
2594.06883	0.12179
2592.14016	0.12197
2590.21148	0.12214
2588.28281	0.12231
2586.35413	0.12247
2584.42545	0.12262
2582.49678	0.12274
2580.56810	0.12282
2578.63943	0.12291
2576.71075	0.12308
2574.78208	0.12329
2572.85340	0.12349
2570.92472	0.12365
2568.99605	0.12379
2567.06737	0.12393
2565.13870	0.12406
2563.21002	0.12418
2561.28135	0.12431
2559.35267	0.12445
2557.42399	0.12459
2555.49532	0.12473
2553.56664	0.12488
2551.63797	0.12502
2549.70929	0.12517
2547.78062	0.12534
2545.85194	0.12550
2543.92326	0.12560
2541.99459	0.12574
2540.06591	0.12594
2538.13724	0.12611
2536.20856	0.12623
2534.27989	0.12636
2532.35121	0.12653
2530.42253	0.12672
2528.49386	0.12686
2526.56518	0.12696
2524.63651	0.12708
2522.70783	0.12724
2520.77916	0.12745
2518.85048	0.12763
2516.92181	0.12778
2514.99313	0.12795
2513.06445	0.12813
2511.13578	0.12826
2509.20710	0.12838
2507.27843	0.12854
2505.34975	0.12871
2503.42108	0.12886
2501.49240	0.12899
2499.56372	0.12915
2497.63505	0.12934
2495.70637	0.12951
2493.77770	0.12967
2491.84902	0.12982
2489.92035	0.12997
2487.99167	0.13015
2486.06299	0.13035
2484.13432	0.13053
2482.20564	0.13069
2480.27697	0.13084
2478.34829	0.13101
2476.41962	0.13118
2474.49094	0.13134
2472.56226	0.13148
2470.63359	0.13162
2468.70491	0.13177
2466.77624	0.13194
2464.84756	0.13209
2462.91889	0.13225
2460.99021	0.13243
2459.06153	0.13260
2457.13286	0.13277
2455.20418	0.13293
2453.27551	0.13307
2451.34683	0.13321
2449.41816	0.13338
2447.48948	0.13357
2445.56080	0.13375
2443.63213	0.13391
2441.70345	0.13406
2439.77478	0.13424
2437.84610	0.13438
2435.91743	0.13450
2433.98875	0.13464
2432.06007	0.13482
2430.13140	0.13499
2428.20272	0.13513
2426.27405	0.13526
2424.34537	0.13540
2422.41670	0.13555
2420.48802	0.13573
2418.55934	0.13591
2416.63067	0.13604
2414.70199	0.13618
2412.77332	0.13637
2410.84464	0.13654
2408.91597	0.13668
2406.98729	0.13682
2405.05861	0.13699
2403.12994	0.13717
2401.20126	0.13734
2399.27259	0.13749
2397.34391	0.13763
2395.41524	0.13777
2393.48656	0.13789
2391.55788	0.13799
2389.62921	0.13814
2387.70053	0.13834
2385.77186	0.13853
2383.84318	0.13866
2381.91451	0.13876
2379.98583	0.13884
2378.05715	0.13888
2376.12848	0.13891
2374.19980	0.13895
2372.27113	0.13898
2370.34245	0.13900
2368.41378	0.13904
2366.48510	0.13911
2364.55642	0.13919
2362.62775	0.13928
2360.69907	0.13942
2358.77040	0.13961
2356.84172	0.13987
2354.91305	0.14019
2352.98437	0.14054
2351.05569	0.14085
2349.12702	0.14103
2347.19834	0.14110
2345.26967	0.14114
2343.34099	0.14121
2341.41232	0.14132
2339.48364	0.14145
2337.55496	0.14159
2335.62629	0.14173
2333.69761	0.14189
2331.76894	0.14208
2329.84026	0.14227
2327.91159	0.14245
2325.98291	0.14261
2324.05423	0.14279
2322.12556	0.14301
2320.19688	0.14325
2318.26821	0.14349
2316.33953	0.14374
2314.41086	0.14397
2312.48218	0.14416
2310.55350	0.14430
2308.62483	0.14446
2306.69615	0.14467
2304.76748	0.14489
2302.83880	0.14509
2300.91013	0.14525
2298.98145	0.14539
2297.05277	0.14556
2295.12410	0.14573
2293.19542	0.14588
2291.26675	0.14603
2289.33807	0.14618
2287.40940	0.14633
2285.48072	0.14650
2283.55204	0.14666
2281.62337	0.14683
2279.69469	0.14701
2277.76602	0.14717
2275.83734	0.14730
2273.90867	0.14742
2271.97999	0.14757
2270.05131	0.14775
2268.12264	0.14796
2266.19396	0.14815
2264.26529	0.14829
2262.33661	0.14843
2260.40794	0.14861
2258.47926	0.14880
2256.55058	0.14894
2254.62191	0.14907
2252.69323	0.14923
2250.76456	0.14939
2248.83588	0.14954
2246.90721	0.14969
2244.97853	0.14986
2243.04985	0.15005
2241.12118	0.15022
2239.19250	0.15035
2237.26383	0.15045
2235.33515	0.15061
2233.40648	0.15081
2231.47780	0.15100
2229.54912	0.15112
2227.62045	0.15121
2225.69177	0.15134
2223.76310	0.15150
2221.83442	0.15164
2219.90575	0.15182
2217.97707	0.15205
2216.04839	0.15227
2214.11972	0.15242
2212.19104	0.15254
2210.26237	0.15265
2208.33369	0.15278
2206.40502	0.15296
2204.47634	0.15312
2202.54766	0.15326
2200.61899	0.15342
2198.69031	0.15358
2196.76164	0.15370
2194.83296	0.15382
2192.90429	0.15394
2190.97561	0.15408
2189.04693	0.15423
2187.11826	0.15440
2185.18958	0.15458
2183.26091	0.15473
2181.33223	0.15487
2179.40356	0.15501
2177.47488	0.15516
2175.54620	0.15532
2173.61753	0.15549
2171.68885	0.15567
2169.76018	0.15583
2167.83150	0.15602
2165.90283	0.15621
2163.97415	0.15636
2162.04547	0.15648
2160.11680	0.15661
2158.18812	0.15676
2156.25945	0.15693
2154.33077	0.15711
2152.40210	0.15727
2150.47342	0.15743
2148.54474	0.15761
2146.61607	0.15779
2144.68739	0.15793
2142.75872	0.15803
2140.83004	0.15812
2138.90137	0.15826
2136.97269	0.15844
2135.04401	0.15865
2133.11534	0.15883
2131.18666	0.15898
2129.25799	0.15914
2127.32931	0.15932
2125.40064	0.15951
2123.47196	0.15968
2121.54328	0.15982
2119.61461	0.15996
2117.68593	0.16013
2115.75726	0.16031
2113.82858	0.16048
2111.89991	0.16062
2109.97123	0.16075
2108.04255	0.16089
2106.11388	0.16106
2104.18520	0.16124
2102.25653	0.16140
2100.32785	0.16155
2098.39918	0.16167
2096.47050	0.16181
2094.54182	0.16199
2092.61315	0.16217
2090.68447	0.16233
2088.75580	0.16247
2086.82712	0.16257
2084.89845	0.16268
2082.96977	0.16287
2081.04109	0.16312
2079.11242	0.16334
2077.18374	0.16347
2075.25507	0.16357
2073.32639	0.16372
2071.39772	0.16390
2069.46904	0.16406
2067.54036	0.16421
2065.61169	0.16437
2063.68301	0.16452
2061.75434	0.16467
2059.82566	0.16484
2057.89699	0.16501
2055.96831	0.16517
2054.03963	0.16530
2052.11096	0.16543
2050.18228	0.16559
2048.25361	0.16578
2046.32493	0.16593
2044.39626	0.16605
2042.46758	0.16621
2040.53890	0.16642
2038.61023	0.16661
2036.68155	0.16676
2034.75288	0.16689
2032.82420	0.16706
2030.89553	0.16723
2028.96685	0.16739
2027.03817	0.16755
2025.10950	0.16772
2023.18082	0.16789
2021.25215	0.16803
2019.32347	0.16813
2017.39480	0.16823
2015.46612	0.16842
2013.53744	0.16866
2011.60877	0.16888
2009.68009	0.16904
2007.75142	0.16917
2005.82274	0.16932
2003.89407	0.16946
2001.96539	0.16959
2000.03671	0.16971
1998.10804	0.16986
1996.17936	0.17002
1994.25069	0.17013
1992.32201	0.17022
1990.39334	0.17038
1988.46466	0.17061
1986.53598	0.17081
1984.60731	0.17098
1982.67863	0.17112
1980.74996	0.17125
1978.82128	0.17137
1976.89261	0.17151
1974.96393	0.17168
1973.03525	0.17183
1971.10658	0.17192
1969.17790	0.17199
1967.24923	0.17206
1965.32055	0.17220
1963.39188	0.17237
1961.46320	0.17254
1959.53452	0.17273
1957.60585	0.17289
1955.67717	0.17302
1953.74850	0.17316
1951.81982	0.17333
1949.89115	0.17348
1947.96247	0.17361
1946.03379	0.17369
1944.10512	0.17373
1942.17644	0.17386
1940.24777	0.17413
1938.31909	0.17442
1936.39042	0.17461
1934.46174	0.17476
1932.53306	0.17489
1930.60439	0.17502
1928.67571	0.17516
1926.74704	0.17530
1924.81836	0.17539
1922.88969	0.17548
1920.96101	0.17558
1919.03233	0.17566
1917.10366	0.17587
1915.17498	0.17622
1913.24631	0.17648
1911.31763	0.17662
1909.38896	0.17676
1907.46028	0.17694
1905.53160	0.17712
1903.60293	0.17725
1901.67425	0.17736
1899.74558	0.17750
1897.81690	0.17765
1895.88823	0.17777
1893.95955	0.17788
1892.03087	0.17797
1890.10220	0.17807
1888.17352	0.17828
1886.24485	0.17853
1884.31617	0.17874
1882.38750	0.17893
1880.45882	0.17910
1878.53014	0.17925
1876.60147	0.17939
1874.67279	0.17953
1872.74412	0.17958
1870.81544	0.17948
1868.88677	0.17945
1866.95809	0.17970
1865.02941	0.18008
1863.10074	0.18039
1861.17206	0.18059
1859.24339	0.18076
1857.31471	0.18093
1855.38604	0.18108
1853.45736	0.18125
1851.52868	0.18142
1849.60001	0.18153
1847.67133	0.18148
1845.74266	0.18132
1843.81398	0.18141
1841.88531	0.18184
1839.95663	0.18226
1838.02795	0.18250
1836.09928	0.18268
1834.17060	0.18283
1832.24193	0.18285
1830.31325	0.18282
1828.38458	0.18292
1826.45590	0.18309
1824.52722	0.18329
1822.59855	0.18359
1820.66987	0.18385
1818.74120	0.18400
1816.81252	0.18416
1814.88385	0.18432
1812.95517	0.18440
1811.02649	0.18447
1809.09782	0.18463
1807.16914	0.18480
1805.24047	0.18485
1803.31179	0.18478
1801.38312	0.18480
1799.45444	0.18500
1797.52576	0.18522
1795.59709	0.18529
1793.66841	0.18523
1791.73974	0.18531
1789.81106	0.18564
1787.88239	0.18594
1785.95371	0.18603
1784.02503	0.18607
1782.09636	0.18614
1780.16768	0.18627
1778.23901	0.18647
1776.31033	0.18654
1774.38166	0.18639
1772.45298	0.18625
1770.52430	0.18634
1768.59563	0.18660
1766.66695	0.18697
1764.73828	0.18725
1762.80960	0.18731
1760.88093	0.18736
1758.95225	0.18742
1757.02357	0.18744
1755.09490	0.18749
1753.16622	0.18733
1751.23755	0.18701
1749.30887	0.18696
1747.38020	0.18720
1745.45152	0.18737
1743.52284	0.18738
1741.59417	0.18735
1739.66549	0.18742
1737.73682	0.18743
1735.80814	0.18711
1733.87947	0.18688
1731.95079	0.18723
1730.02211	0.18781
1728.09344	0.18825
1726.16476	0.18848
1724.23609	0.18856
1722.30741	0.18857
1720.37874	0.18837
1718.45006	0.18804
1716.52138	0.18807
1714.59271	0.18856
1712.66403	0.18913
1710.73536	0.18948
1708.80668	0.18951
1706.87801	0.18939
1704.94933	0.18932
1703.02065	0.18910
1701.09198	0.18874
1699.16330	0.18873
1697.23463	0.18901
1695.30595	0.18933
1693.37728	0.18976
1691.44860	0.19003
1689.51992	0.19002
1687.59125	0.18981
1685.66257	0.18938
1683.73390	0.18923
1681.80522	0.18963
1679.87655	0.19008
1677.94787	0.19012
1676.01919	0.18998
1674.09052	0.18998
1672.16184	0.18995
1670.23317	0.18985
1668.30449	0.19009
1666.37582	0.19051
1664.44714	0.19065
1662.51846	0.19068
1660.58979	0.19088
1658.66111	0.19097
1656.73244	0.19055
1654.80376	0.18972
1652.87509	0.18941
1650.94641	0.18994
1649.01773	0.19033
1647.08906	0.19035
1645.16038	0.19065
1643.23171	0.19109
1641.30303	0.19128
1639.37436	0.19115
1637.44568	0.19078
1635.51700	0.19065
1633.58833	0.19110
1631.65965	0.19159
1629.73098	0.19165
1627.80230	0.19148
1625.87363	0.19125
1623.94495	0.19091
1622.01627	0.19065
1620.08760	0.19060
1618.15892	0.19073
1616.23025	0.19125
1614.30157	0.19206
1612.37290	0.19268
1610.44422	0.19298
1608.51554	0.19321
1606.58687	0.19350
1604.65819	0.19378
1602.72952	0.19403
1600.80084	0.19423
1598.87217	0.19436
1596.94349	0.19445
1595.01481	0.19458
1593.08614	0.19479
1591.15746	0.19498
1589.22879	0.19511
1587.30011	0.19526
1585.37144	0.19544
1583.44276	0.19560
1581.51408	0.19569
1579.58541	0.19560
1577.65673	0.19544
1575.72806	0.19554
1573.79938	0.19588
1571.87071	0.19596
1569.94203	0.19586
1568.01335	0.19602
1566.08468	0.19633
1564.15600	0.19647
1562.22733	0.19621
1560.29865	0.19558
1558.36998	0.19540
1556.44130	0.19605
1554.51262	0.19683
1552.58395	0.19728
1550.65527	0.19747
1548.72660	0.19761
1546.79792	0.19759
1544.86925	0.19726
1542.94057	0.19684
1541.01189	0.19669
1539.08322	0.19700
1537.15454	0.19756
1535.22587	0.19782
1533.29719	0.19792
1531.36852	0.19819
1529.43984	0.19837
1527.51116	0.19828
1525.58249	0.19813
1523.65381	0.19786
1521.72514	0.19758
1519.79646	0.19766
1517.86779	0.19791
1515.93911	0.19815
1514.01043	0.19843
1512.08176	0.19855
1510.15308	0.19825
1508.22441	0.19783
1506.29573	0.19797
1504.36706	0.19871
1502.43838	0.19921
1500.50970	0.19913
1498.58103	0.19886
1496.65235	0.19885
1494.72368	0.19911
1492.79500	0.19914
1490.86633	0.19881
1488.93765	0.19865
1487.00897	0.19883
1485.08030	0.19897
1483.15162	0.19888
1481.22295	0.19870
1479.29427	0.19844
1477.36560	0.19801
1475.43692	0.19748
1473.50824	0.19706
1471.57957	0.19695
1469.65089	0.19703
1467.72222	0.19683
1465.79354	0.19642
1463.86487	0.19623
1461.93619	0.19615
1460.00751	0.19565
1458.07884	0.19494
1456.15016	0.19481
1454.22149	0.19530
1452.29281	0.19567
1450.36414	0.19570
1448.43546	0.19569
1446.50678	0.19589
1444.57811	0.19619
1442.64943	0.19636
1440.72076	0.19634
1438.79208	0.19608
1436.86341	0.19587
1434.93473	0.19610
1433.00605	0.19650
1431.07738	0.19675
1429.14870	0.19696
1427.22003	0.19713
1425.29135	0.19716
1423.36268	0.19708
1421.43400	0.19681
1419.50532	0.19651
1417.57665	0.19664
1415.64797	0.19707
1413.71930	0.19735
1411.79062	0.19742
1409.86195	0.19742
1407.93327	0.19733
1406.00459	0.19719
1404.07592	0.19718
1402.14724	0.19721
1400.21857	0.19709
1398.28989	0.19685
1396.36122	0.19669
1394.43254	0.19674
1392.50386	0.19692
1390.57519	0.19685
1388.64651	0.19644
1386.71784	0.19609
1384.78916	0.19602
1382.86049	0.19612
1380.93181	0.19621
1379.00313	0.19622
1377.07446	0.19613
1375.14578	0.19597
1373.21711	0.19592
1371.28843	0.19603
1369.35976	0.19616
1367.43108	0.19621
1365.50240	0.19611
1363.57373	0.19593
1361.64505	0.19586
1359.71638	0.19597
1357.78770	0.19611
1355.85903	0.19625
1353.93035	0.19635
1352.00167	0.19640
1350.07300	0.19644
1348.14432	0.19656
1346.21565	0.19670
1344.28697	0.19675
1342.35830	0.19659
1340.42962	0.19635
1338.50094	0.19621
1336.57227	0.19623
1334.64359	0.19630
1332.71492	0.19633
1330.78624	0.19624
1328.85757	0.19604
1326.92889	0.19587
1325.00021	0.19577
1323.07154	0.19566
1321.14286	0.19543
1319.21419	0.19516
1317.28551	0.19499
1315.35684	0.19491
1313.42816	0.19479
1311.49948	0.19462
1309.57081	0.19444
1307.64213	0.19426
1305.71346	0.19404
1303.78478	0.19382
1301.85611	0.19362
1299.92743	0.19337
1297.99875	0.19308
1296.07008	0.19285
1294.14140	0.19270
1292.21273	0.19256
1290.28405	0.19237
1288.35538	0.19216
1286.42670	0.19198
1284.49802	0.19179
1282.56935	0.19155
1280.64067	0.19129
1278.71200	0.19102
1276.78332	0.19072
1274.85465	0.19037
1272.92597	0.18991
1270.99729	0.18927
1269.06862	0.18846
1267.13994	0.18752
1265.21127	0.18662
1263.28259	0.18603
1261.35392	0.18586
1259.42524	0.18595
1257.49656	0.18615
1255.56789	0.18631
1253.63921	0.18633
1251.71054	0.18619
1249.78186	0.18597
1247.85319	0.18570
1245.92451	0.18536
1243.99583	0.18495
1242.06716	0.18450
1240.13848	0.18407
1238.20981	0.18360
1236.28113	0.18308
1234.35246	0.18254
1232.42378	0.18200
1230.49510	0.18145
1228.56643	0.18091
1226.63775	0.18042
1224.70908	0.17993
1222.78040	0.17939
1220.85173	0.17886
1218.92305	0.17844
1216.99437	0.17804
1215.06570	0.17756
1213.13702	0.17698
1211.20835	0.17639
1209.27967	0.17583
1207.35100	0.17529
1205.42232	0.17476
1203.49364	0.17424
1201.56497	0.17369
1199.63629	0.17311
1197.70762	0.17251
1195.77894	0.17189
1193.85027	0.17127
1191.92159	0.17064
1189.99291	0.16993
1188.06424	0.16918
1186.13556	0.16842
1184.20689	0.16768
1182.27821	0.16692
1180.34954	0.16615
1178.42086	0.16536
1176.49218	0.16454
1174.56351	0.16372
1172.63483	0.16292
1170.70616	0.16209
1168.77748	0.16122
1166.84881	0.16033
1164.92013	0.15946
1162.99145	0.15866
1161.06278	0.15791
1159.13410	0.15716
1157.20543	0.15639
1155.27675	0.15562
1153.34808	0.15485
1151.41940	0.15408
1149.49072	0.15332
1147.56205	0.15252
1145.63337	0.15170
1143.70470	0.15087
1141.77602	0.15002
1139.84735	0.14913
1137.91867	0.14815
1135.98999	0.14700
1134.06132	0.14561
1132.13264	0.14400
1130.20397	0.14221
1128.27529	0.14026
1126.34662	0.13810
1124.41794	0.13582
1122.48926	0.13353
1120.56059	0.13127
1118.63191	0.12910
1116.70324	0.12713
1114.77456	0.12535
1112.84589	0.12376
1110.91721	0.12243
1108.98853	0.12141
1107.05986	0.12068
1105.13118	0.12028
1103.20251	0.12023
1101.27383	0.12043
1099.34516	0.12079
1097.41648	0.12132
1095.48780	0.12200
1093.55913	0.12280
1091.63045	0.12364
1089.70178	0.12446
1087.77310	0.12521
1085.84443	0.12585
1083.91575	0.12636
1081.98707	0.12676
1080.05840	0.12703
1078.12972	0.12716
1076.20105	0.12721
1074.27237	0.12730
1072.34370	0.12746
1070.41502	0.12761
1068.48634	0.12770
1066.55767	0.12778
1064.62899	0.12794
1062.70032	0.12818
1060.77164	0.12845
1058.84297	0.12873
1056.91429	0.12902
1054.98561	0.12932
1053.05694	0.12958
1051.12826	0.12985
1049.19959	0.13022
1047.27091	0.13063
1045.34224	0.13102
1043.41356	0.13142
1041.48488	0.13184
1039.55621	0.13224
1037.62753	0.13261
1035.69886	0.13300
1033.77018	0.13342
1031.84151	0.13379
1029.91283	0.13405
1027.98415	0.13435
1026.05548	0.13472
1024.12680	0.13504
1022.19813	0.13534
1020.26945	0.13571
1018.34078	0.13617
1016.41210	0.13666
1014.48342	0.13713
1012.55475	0.13759
1010.62607	0.13814
1008.69740	0.13875
1006.76872	0.13937
1004.84005	0.13994
1002.91137	0.14039
1000.98269	0.14073
999.05402	0.14102
997.12534	0.14123
995.19667	0.14140
993.26799	0.14155
991.33932	0.14166
989.41064	0.14171
987.48196	0.14169
985.55329	0.14169
983.62461	0.14172
981.69594	0.14169
979.76726	0.14154
977.83859	0.14133
975.90991	0.14115
973.98123	0.14101
972.05256	0.14088
970.12388	0.14073
968.19521	0.14056
966.26653	0.14040
964.33786	0.14027
962.40918	0.14012
960.48050	0.13993
958.55183	0.13974
956.62315	0.13963
954.69448	0.13954
952.76580	0.13936
950.83713	0.13910
948.90845	0.13880
946.97977	0.13852
945.05110	0.13825
943.12242	0.13799
941.19375	0.13774
939.26507	0.13746
937.33640	0.13711
935.40772	0.13669
933.47904	0.13621
931.55037	0.13568
929.62169	0.13514
927.69302	0.13458
925.76434	0.13403
923.83567	0.13347
921.90699	0.13294
919.97831	0.13241
918.04964	0.13174
916.12096	0.13096
914.19229	0.13018
912.26361	0.12946
910.33494	0.12877
908.40626	0.12808
906.47758	0.12738
904.54891	0.12672
902.62023	0.12618
900.69156	0.12572
898.76288	0.12522
896.83421	0.12463
894.90553	0.12403
892.97685	0.12353
891.04818	0.12311
889.11950	0.12270
887.19083	0.12224
885.26215	0.12180
883.33348	0.12146
881.40480	0.12122
879.47612	0.12095
877.54745	0.12063
875.61877	0.12038
873.69010	0.12015
871.76142	0.11989
869.83275	0.11963
867.90407	0.11943
865.97539	0.11924
864.04672	0.11907
862.11804	0.11896
860.18937	0.11888
858.26069	0.11881
856.33202	0.11871
854.40334	0.11858
852.47466	0.11839
850.54599	0.11810
848.61731	0.11772
846.68864	0.11736
844.75996	0.11709
842.83129	0.11683
840.90261	0.11652
838.97394	0.11615
837.04526	0.11573
835.11658	0.11525
833.18791	0.11464
831.25923	0.11381
829.33056	0.11278
827.40188	0.11171
825.47321	0.11073
823.54453	0.10988
821.61585	0.10910
819.68718	0.10839
817.75850	0.10783
815.82983	0.10743
813.90115	0.10705
811.97248	0.10664
810.04380	0.10633
808.11512	0.10619
806.18645	0.10618
804.25777	0.10625
802.32910	0.10625
800.40042	0.10596
798.47175	0.10536
796.54307	0.10467
794.61439	0.10412
792.68572	0.10376
790.75704	0.10353
788.82837	0.10335
786.89969	0.10315
784.97102	0.10291
783.04234	0.10261
781.11366	0.10232
779.18499	0.10211
777.25631	0.10193
775.32764	0.10165
773.39896	0.10129
771.47029	0.10094
769.54161	0.10068
767.61293	0.10044
765.68426	0.10009
763.75558	0.09960
761.82691	0.09909
759.89823	0.09856
757.96956	0.09797
756.04088	0.09739
754.11220	0.09683
752.18353	0.09616
750.25485	0.09539
748.32618	0.09464
746.39750	0.09393
744.46883	0.09312
742.54015	0.09224
740.61147	0.09150
738.68280	0.09102
736.75412	0.09076
734.82545	0.09072
732.89677	0.09083
730.96810	0.09096
729.03942	0.09107
727.11074	0.09117
725.18207	0.09123
723.25339	0.09133
721.32472	0.09150
719.39604	0.09167
717.46737	0.09187
715.53869	0.09222
713.61001	0.09268
711.68134	0.09308
709.75266	0.09328
707.82399	0.09328
705.89531	0.09316
703.96664	0.09302
702.03796	0.09281
700.10928	0.09244
698.18061	0.09194
696.25193	0.09140
694.32326	0.09085
692.39458	0.09027
690.46591	0.08971
688.53723	0.08922
686.60855	0.08880
684.67988	0.08838
682.75120	0.08788
680.82253	0.08735
678.89385	0.08678
676.96518	0.08611
675.03650	0.08537
673.10782	0.08469
671.17915	0.08400
669.25047	0.08319
667.32180	0.08236
665.39312	0.08159
663.46445	0.08086
661.53577	0.08014
659.60709	0.07942
657.67842	0.07863
655.74974	0.07781
653.82107	0.07700
651.89239	0.07618
649.96372	0.07536
648.03504	0.07454
646.10636	0.07369
644.17769	0.07284
642.24901	0.07191
640.32034	0.07096
638.39166	0.07003
636.46299	0.06906
634.53431	0.06792
632.60563	0.06638
630.67696	0.06405
628.74828	0.06067
626.81961	0.05644
624.89093	0.05210
622.96226	0.04866
621.03358	0.04670
619.10490	0.04572
617.17623	0.04492
615.24755	0.04394
613.31888	0.04278
611.39020	0.04171
609.46153	0.04123
607.53285	0.04140
605.60417	0.04180
603.67550	0.04222
601.74682	0.04285
599.81815	0.04369
597.88947	0.04451
595.96080	0.04520
594.03212	0.04576
592.10344	0.04609
590.17477	0.04613
588.24609	0.04604
586.31742	0.04595
584.38874	0.04579
582.46007	0.04554
580.53139	0.04526
578.60271	0.04489
576.67404	0.04438
574.74536	0.04379
572.81669	0.04314
570.88801	0.04244
568.95934	0.04180
567.03066	0.04134
565.10198	0.04101
563.17331	0.04068
561.24463	0.04030
559.31596	0.03995
557.38728	0.03976
555.45861	0.03968
553.52993	0.03955
551.60125	0.03937
549.67258	0.03920
547.74390	0.03900
545.81523	0.03880
543.88655	0.03870
541.95788	0.03863
540.02920	0.03850
538.10052	0.03829
536.17185	0.03799
534.24317	0.03767
532.31450	0.03746
530.38582	0.03733
528.45715	0.03708
526.52847	0.03672
524.59979	0.03638
522.67112	0.03600
520.74244	0.03553
518.81377	0.03503
516.88509	0.03450
514.95642	0.03397
513.02774	0.03349
511.09906	0.03314
509.17039	0.03289
507.24171	0.03268
505.31304	0.03245
503.38436	0.03220
501.45569	0.03182
499.52701	0.03136
497.59833	0.03089
495.66966	0.03043
493.74098	0.02991
491.81231	0.02933
489.88363	0.02874
487.95496	0.02818
486.02628	0.02765
484.09760	0.02715
482.16893	0.02657
480.24025	0.02593
478.31158	0.02531
476.38290	0.02477
474.45423	0.02430
472.52555	0.02393
470.59687	0.02367
468.66820	0.02334
466.73952	0.02292
464.81085	0.02265
462.88217	0.02254
460.95350	0.02237
459.02482	0.02215
457.09614	0.02208
455.16747	0.02217
453.23879	0.02226
451.31012	0.02226
449.38144	0.02217
447.45277	0.02202
445.52409	0.02172
443.59541	0.02132
441.66674	0.02100
439.73806	0.02069
437.80939	0.02027
435.88071	0.01986
433.95204	0.01951
432.02336	0.01904
430.09468	0.01842
428.16601	0.01784
426.23733	0.01728
424.30866	0.01661
422.37998	0.01592
420.45131	0.01530
418.52263	0.01463
416.59395	0.01384
414.66528	0.01311
412.73660	0.01252
410.80793	0.01199
408.87925	0.01139
406.95058	0.01077
405.02190	0.01025
403.09322	0.00981
401.16455	0.00941
399.23587	0.00895
397.30720	0.00839
395.37852	0.00785
393.44985	0.00733
391.52117	0.00680
389.59249	0.00635
387.66382	0.00596
385.73514	0.00554
383.80647	0.00508
381.87779	0.00463
379.94912	0.00418
378.02044	0.00375
376.09176	0.00337
374.16309	0.00299
372.23441	0.00268
370.30574	0.00260
368.37706	0.00252
