7496.76250	0.00116
7494.83382	0.00116
7492.90514	0.00115
7490.97647	0.00115
7489.04779	0.00115
7487.11912	0.00116
7485.19044	0.00116
7483.26177	0.00116
7481.33309	0.00117
7479.40441	0.00118
7477.47574	0.00118
7475.54706	0.00118
7473.61839	0.00117
7471.68971	0.00119
7469.76104	0.00120
7467.83236	0.00120
7465.90368	0.00120
7463.97501	0.00121
7462.04633	0.00122
7460.11766	0.00122
7458.18898	0.00121
7456.26031	0.00121
7454.33163	0.00121
7452.40295	0.00122
7450.47428	0.00123
7448.54560	0.00123
7446.61693	0.00122
7444.68825	0.00122
7442.75958	0.00123
7440.83090	0.00124
7438.90222	0.00126
7436.97355	0.00126
7435.04487	0.00125
7433.11620	0.00123
7431.18752	0.00123
7429.25885	0.00123
7427.33017	0.00125
7425.40149	0.00128
7423.47282	0.00130
7421.54414	0.00130
7419.61547	0.00130
7417.68679	0.00129
7415.75812	0.00128
7413.82944	0.00129
7411.90076	0.00131
7409.97209	0.00131
7408.04341	0.00130
7406.11474	0.00129
7404.18606	0.00129
7402.25739	0.00130
7400.32871	0.00129
7398.40003	0.00129
7396.47136	0.00131
7394.54268	0.00132
7392.61401	0.00132
7390.68533	0.00131
7388.75666	0.00132
7386.82798	0.00133
7384.89930	0.00132
7382.97063	0.00132
7381.04195	0.00132
7379.11328	0.00134
7377.18460	0.00134
7375.25593	0.00134
7373.32725	0.00135
7371.39857	0.00137
7369.46990	0.00138
7367.54122	0.00139
7365.61255	0.00139
7363.68387	0.00138
7361.75520	0.00136
7359.82652	0.00135
7357.89784	0.00137
7355.96917	0.00139
7354.04049	0.00140
7352.11182	0.00138
7350.18314	0.00137
7348.25447	0.00138
7346.32579	0.00140
7344.39711	0.00141
7342.46844	0.00141
7340.53976	0.00140
7338.61109	0.00140
7336.68241	0.00141
7334.75374	0.00142
7332.82506	0.00144
7330.89638	0.00144
7328.96771	0.00144
7327.03903	0.00144
7325.11036	0.00145
7323.18168	0.00145
7321.25301	0.00145
7319.32433	0.00145
7317.39565	0.00145
7315.46698	0.00145
7313.53830	0.00146
7311.60963	0.00148
7309.68095	0.00149
7307.75228	0.00150
7305.82360	0.00149
7303.89492	0.00149
7301.96625	0.00148
7300.03757	0.00148
7298.10890	0.00148
7296.18022	0.00148
7294.25155	0.00150
7292.32287	0.00151
7290.39419	0.00150
7288.46552	0.00149
7286.53684	0.00150
7284.60817	0.00151
7282.67949	0.00152
7280.75082	0.00152
7278.82214	0.00153
7276.89346	0.00154
7274.96479	0.00154
7273.03611	0.00154
7271.10744	0.00154
7269.17876	0.00154
7267.25009	0.00154
7265.32141	0.00154
7263.39273	0.00154
7261.46406	0.00154
7259.53538	0.00154
7257.60671	0.00154
7255.67803	0.00155
7253.74936	0.00155
7251.82068	0.00155
7249.89200	0.00155
7247.96333	0.00155
7246.03465	0.00157
7244.10598	0.00158
7242.17730	0.00159
7240.24863	0.00159
7238.31995	0.00161
7236.39127	0.00161
7234.46260	0.00161
7232.53392	0.00161
7230.60525	0.00161
7228.67657	0.00161
7226.74790	0.00161
7224.81922	0.00163
7222.89054	0.00163
7220.96187	0.00162
7219.03319	0.00162
7217.10452	0.00162
7215.17584	0.00162
7213.24717	0.00162
7211.31849	0.00163
7209.38981	0.00164
7207.46114	0.00165
7205.53246	0.00166
7203.60379	0.00168
7201.67511	0.00168
7199.74644	0.00168
7197.81776	0.00167
7195.88908	0.00166
7193.96041	0.00167
7192.03173	0.00169
7190.10306	0.00171
7188.17438	0.00172
7186.24571	0.00171
7184.31703	0.00170
7182.38835	0.00169
7180.45968	0.00170
7178.53100	0.00171
7176.60233	0.00172
7174.67365	0.00173
7172.74498	0.00174
7170.81630	0.00174
7168.88762	0.00174
7166.95895	0.00175
7165.03027	0.00176
7163.10160	0.00175
7161.17292	0.00176
7159.24425	0.00177
7157.31557	0.00178
7155.38689	0.00177
7153.45822	0.00176
7151.52954	0.00176
7149.60087	0.00175
7147.67219	0.00176
7145.74352	0.00178
7143.81484	0.00180
7141.88616	0.00181
7139.95749	0.00182
7138.02881	0.00182
7136.10014	0.00180
7134.17146	0.00180
7132.24279	0.00182
7130.31411	0.00184
7128.38543	0.00186
7126.45676	0.00186
7124.52808	0.00185
7122.59941	0.00185
7120.67073	0.00186
7118.74206	0.00186
7116.81338	0.00186
7114.88470	0.00185
7112.95603	0.00185
7111.02735	0.00186
7109.09868	0.00187
7107.17000	0.00187
7105.24133	0.00188
7103.31265	0.00187
7101.38397	0.00187
7099.45530	0.00187
7097.52662	0.00187
7095.59795	0.00188
7093.66927	0.00189
7091.74060	0.00190
7089.81192	0.00190
7087.88324	0.00190
7085.95457	0.00190
7084.02589	0.00188
7082.09722	0.00188
7080.16854	0.00190
7078.23987	0.00193
7076.31119	0.00195
7074.38251	0.00196
7072.45384	0.00194
7070.52516	0.00194
7068.59649	0.00194
7066.66781	0.00194
7064.73914	0.00195
7062.81046	0.00196
7060.88178	0.00196
7058.95311	0.00196
7057.02443	0.00196
7055.09576	0.00197
7053.16708	0.00198
7051.23841	0.00199
7049.30973	0.00197
7047.38105	0.00195
7045.45238	0.00195
7043.52370	0.00197
7041.59503	0.00199
7039.66635	0.00200
7037.73768	0.00201
7035.80900	0.00202
7033.88032	0.00202
7031.95165	0.00202
7030.02297	0.00202
7028.09430	0.00202
7026.16562	0.00203
7024.23695	0.00202
7022.30827	0.00203
7020.37959	0.00206
7018.45092	0.00208
7016.52224	0.00208
7014.59357	0.00206
7012.66489	0.00206
7010.73622	0.00206
7008.80754	0.00208
7006.87886	0.00209
7004.95019	0.00211
7003.02151	0.00211
7001.09284	0.00210
6999.16416	0.00211
6997.23549	0.00210
6995.30681	0.00209
6993.37813	0.00208
6991.44946	0.00209
6989.52078	0.00211
6987.59211	0.00213
6985.66343	0.00212
6983.73476	0.00211
6981.80608	0.00212
6979.87740	0.00213
6977.94873	0.00214
6976.02005	0.00216
6974.09138	0.00217
6972.16270	0.00216
6970.23403	0.00215
6968.30535	0.00216
6966.37667	0.00216
6964.44800	0.00217
6962.51932	0.00217
6960.59065	0.00218
6958.66197	0.00219
6956.73330	0.00220
6954.80462	0.00220
6952.87594	0.00221
6950.94727	0.00222
6949.01859	0.00224
6947.08992	0.00225
6945.16124	0.00225
6943.23257	0.00225
6941.30389	0.00224
6939.37521	0.00224
6937.44654	0.00224
6935.51786	0.00224
6933.58919	0.00224
6931.66051	0.00224
6929.73184	0.00225
6927.80316	0.00226
6925.87448	0.00226
6923.94581	0.00227
6922.01713	0.00228
6920.08846	0.00228
6918.15978	0.00227
6916.23111	0.00228
6914.30243	0.00230
6912.37375	0.00232
6910.44508	0.00232
6908.51640	0.00232
6906.58773	0.00232
6904.65905	0.00232
6902.73038	0.00232
6900.80170	0.00232
6898.87302	0.00232
6896.94435	0.00232
6895.01567	0.00233
6893.08700	0.00235
6891.15832	0.00236
6889.22965	0.00238
6887.30097	0.00238
6885.37229	0.00239
6883.44362	0.00240
6881.51494	0.00240
6879.58627	0.00239
6877.65759	0.00240
6875.72892	0.00242
6873.80024	0.00244
6871.87156	0.00244
6869.94289	0.00244
6868.01421	0.00243
6866.08554	0.00243
6864.15686	0.00244
6862.22819	0.00244
6860.29951	0.00243
6858.37083	0.00242
6856.44216	0.00242
6854.51348	0.00245
6852.58481	0.00247
6850.65613	0.00248
6848.72746	0.00247
6846.79878	0.00247
6844.87010	0.00248
6842.94143	0.00249
6841.01275	0.00249
6839.08408	0.00251
6837.15540	0.00253
6835.22673	0.00253
6833.29805	0.00252
6831.36937	0.00251
6829.44070	0.00250
6827.51202	0.00251
6825.58335	0.00251
6823.65467	0.00252
6821.72600	0.00253
6819.79732	0.00253
6817.86864	0.00254
6815.93997	0.00255
6814.01129	0.00256
6812.08262	0.00256
6810.15394	0.00256
6808.22527	0.00257
6806.29659	0.00258
6804.36791	0.00260
6802.43924	0.00261
6800.51056	0.00262
6798.58189	0.00262
6796.65321	0.00261
6794.72454	0.00261
6792.79586	0.00261
6790.86718	0.00262
6788.93851	0.00262
6787.00983	0.00264
6785.08116	0.00266
6783.15248	0.00267
6781.22381	0.00267
6779.29513	0.00268
6777.36645	0.00268
6775.43778	0.00269
6773.50910	0.00269
6771.58043	0.00268
6769.65175	0.00269
6767.72308	0.00271
6765.79440	0.00272
6763.86572	0.00272
6761.93705	0.00271
6760.00837	0.00271
6758.07970	0.00271
6756.15102	0.00271
6754.22235	0.00273
6752.29367	0.00274
6750.36499	0.00275
6748.43632	0.00276
6746.50764	0.00275
6744.57897	0.00275
6742.65029	0.00277
6740.72162	0.00280
6738.79294	0.00281
6736.86426	0.00280
6734.93559	0.00280
6733.00691	0.00280
6731.07824	0.00280
6729.14956	0.00281
6727.22089	0.00282
6725.29221	0.00281
6723.36353	0.00281
6721.43486	0.00282
6719.50618	0.00283
6717.57751	0.00284
6715.64883	0.00285
6713.72016	0.00285
6711.79148	0.00284
6709.86280	0.00284
6707.93413	0.00285
6706.00545	0.00288
6704.07678	0.00289
6702.14810	0.00290
6700.21943	0.00290
6698.29075	0.00291
6696.36207	0.00292
6694.43340	0.00291
6692.50472	0.00292
6690.57605	0.00294
6688.64737	0.00295
6686.71870	0.00295
6684.79002	0.00295
6682.86134	0.00295
6680.93267	0.00295
6679.00399	0.00295
6677.07532	0.00296
6675.14664	0.00296
6673.21797	0.00297
6671.28929	0.00297
6669.36061	0.00298
6667.43194	0.00298
6665.50326	0.00298
6663.57459	0.00299
6661.64591	0.00299
6659.71724	0.00300
6657.78856	0.00302
6655.85988	0.00303
6653.93121	0.00304
6652.00253	0.00305
6650.07386	0.00304
6648.14518	0.00303
6646.21651	0.00304
6644.28783	0.00305
6642.35915	0.00306
6640.43048	0.00307
6638.50180	0.00309
6636.57313	0.00310
6634.64445	0.00311
6632.71578	0.00311
6630.78710	0.00310
6628.85842	0.00311
6626.92975	0.00313
6625.00107	0.00315
6623.07240	0.00316
6621.14372	0.00316
6619.21505	0.00316
6617.28637	0.00318
6615.35769	0.00320
6613.42902	0.00319
6611.50034	0.00317
6609.57167	0.00316
6607.64299	0.00318
6605.71432	0.00321
6603.78564	0.00323
6601.85696	0.00323
6599.92829	0.00322
6597.99961	0.00322
6596.07094	0.00322
6594.14226	0.00324
6592.21359	0.00325
6590.28491	0.00326
6588.35623	0.00328
6586.42756	0.00329
6584.49888	0.00329
6582.57021	0.00329
6580.64153	0.00328
6578.71286	0.00328
6576.78418	0.00328
6574.85550	0.00330
6572.92683	0.00332
6570.99815	0.00332
6569.06948	0.00332
6567.14080	0.00333
6565.21213	0.00334
6563.28345	0.00335
6561.35477	0.00335
6559.42610	0.00336
6557.49742	0.00337
6555.56875	0.00337
6553.64007	0.00337
6551.71140	0.00337
6549.78272	0.00338
6547.85404	0.00341
6545.92537	0.00344
6543.99669	0.00344
6542.06802	0.00343
6540.13934	0.00343
6538.21067	0.00344
6536.28199	0.00344
6534.35331	0.00344
6532.42464	0.00345
6530.49596	0.00346
6528.56729	0.00348
6526.63861	0.00350
6524.70994	0.00350
6522.78126	0.00348
6520.85258	0.00346
6518.92391	0.00346
6516.99523	0.00348
6515.06656	0.00350
6513.13788	0.00353
6511.20921	0.00355
6509.28053	0.00357
6507.35185	0.00358
6505.42318	0.00359
6503.49450	0.00358
6501.56583	0.00358
6499.63715	0.00358
6497.70848	0.00359
6495.77980	0.00360
6493.85112	0.00362
6491.92245	0.00363
6489.99377	0.00364
6488.06510	0.00364
6486.13642	0.00363
6484.20775	0.00363
6482.27907	0.00364
6480.35039	0.00366
6478.42172	0.00367
6476.49304	0.00366
6474.56437	0.00366
6472.63569	0.00368
6470.70702	0.00372
6468.77834	0.00373
6466.84966	0.00372
6464.92099	0.00370
6462.99231	0.00371
6461.06364	0.00373
6459.13496	0.00373
6457.20629	0.00372
6455.27761	0.00372
6453.34893	0.00373
6451.42026	0.00375
6449.49158	0.00377
6447.56291	0.00378
6445.63423	0.00380
6443.70556	0.00382
6441.77688	0.00384
6439.84820	0.00386
6437.91953	0.00385
6435.99085	0.00385
6434.06218	0.00386
6432.13350	0.00387
6430.20483	0.00387
6428.27615	0.00387
6426.34747	0.00388
6424.41880	0.00387
6422.49012	0.00387
6420.56145	0.00388
6418.63277	0.00392
6416.70410	0.00395
6414.77542	0.00397
6412.84674	0.00397
6410.91807	0.00397
6408.98939	0.00395
6407.06072	0.00395
6405.13204	0.00397
6403.20337	0.00399
6401.27469	0.00400
6399.34601	0.00399
6397.41734	0.00398
6395.48866	0.00398
6393.55999	0.00400
6391.63131	0.00402
6389.70264	0.00403
6387.77396	0.00403
6385.84528	0.00404
6383.91661	0.00405
6381.98793	0.00407
6380.05926	0.00409
6378.13058	0.00409
6376.20191	0.00409
6374.27323	0.00411
6372.34455	0.00413
6370.41588	0.00413
6368.48720	0.00414
6366.55853	0.00414
6364.62985	0.00413
6362.70118	0.00414
6360.77250	0.00416
6358.84382	0.00418
6356.91515	0.00418
6354.98647	0.00419
6353.05780	0.00419
6351.12912	0.00420
6349.20045	0.00421
6347.27177	0.00422
6345.34309	0.00423
6343.41442	0.00425
6341.48574	0.00426
6339.55707	0.00426
6337.62839	0.00426
6335.69972	0.00428
6333.77104	0.00431
6331.84236	0.00432
6329.91369	0.00432
6327.98501	0.00432
6326.05634	0.00432
6324.12766	0.00432
6322.19899	0.00432
6320.27031	0.00433
6318.34163	0.00434
6316.41296	0.00435
6314.48428	0.00437
6312.55561	0.00439
6310.62693	0.00440
6308.69826	0.00441
6306.76958	0.00443
6304.84090	0.00445
6302.91223	0.00446
6300.98355	0.00445
6299.05488	0.00444
6297.12620	0.00445
6295.19753	0.00446
6293.26885	0.00447
6291.34017	0.00449
6289.41150	0.00448
6287.48282	0.00448
6285.55415	0.00450
6283.62547	0.00453
6281.69680	0.00454
6279.76812	0.00453
6277.83944	0.00453
6275.91077	0.00454
6273.98209	0.00457
6272.05342	0.00458
6270.12474	0.00459
6268.19607	0.00458
6266.26739	0.00457
6264.33871	0.00458
6262.41004	0.00460
6260.48136	0.00463
6258.55269	0.00464
6256.62401	0.00464
6254.69534	0.00465
6252.76666	0.00467
6250.83798	0.00469
6248.90931	0.00470
6246.98063	0.00470
6245.05196	0.00471
6243.12328	0.00471
6241.19461	0.00473
6239.26593	0.00475
6237.33725	0.00477
6235.40858	0.00478
6233.47990	0.00478
6231.55123	0.00478
6229.62255	0.00478
6227.69388	0.00479
6225.76520	0.00481
6223.83652	0.00482
6221.90785	0.00483
6219.97917	0.00484
6218.05050	0.00485
6216.12182	0.00486
6214.19315	0.00487
6212.26447	0.00487
6210.33579	0.00488
6208.40712	0.00489
6206.47844	0.00492
6204.54977	0.00493
6202.62109	0.00493
6200.69242	0.00492
6198.76374	0.00493
6196.83506	0.00496
6194.90639	0.00498
6192.97771	0.00499
6191.04904	0.00499
6189.12036	0.00499
6187.19169	0.00499
6185.26301	0.00500
6183.33433	0.00502
6181.40566	0.00504
6179.47698	0.00506
6177.54831	0.00507
6175.61963	0.00509
6173.69096	0.00509
6171.76228	0.00510
6169.83360	0.00510
6167.90493	0.00510
6165.97625	0.00511
6164.04758	0.00513
6162.11890	0.00514
6160.19023	0.00516
6158.26155	0.00517
6156.33287	0.00519
6154.40420	0.00520
6152.47552	0.00521
6150.54685	0.00521
6148.61817	0.00522
6146.68950	0.00524
6144.76082	0.00526
6142.83214	0.00527
6140.90347	0.00528
6138.97479	0.00528
6137.04612	0.00527
6135.11744	0.00527
6133.18877	0.00529
6131.26009	0.00532
6129.33141	0.00534
6127.40274	0.00536
6125.47406	0.00537
6123.54539	0.00536
6121.61671	0.00535
6119.68804	0.00536
6117.75936	0.00538
6115.83068	0.00540
6113.90201	0.00541
6111.97333	0.00543
6110.04466	0.00546
6108.11598	0.00547
6106.18731	0.00546
6104.25863	0.00544
6102.32995	0.00545
6100.40128	0.00547
6098.47260	0.00548
6096.54393	0.00549
6094.61525	0.00552
6092.68658	0.00554
6090.75790	0.00555
6088.82922	0.00555
6086.90055	0.00556
6084.97187	0.00557
6083.04320	0.00559
6081.11452	0.00561
6079.18585	0.00562
6077.25717	0.00564
6075.32849	0.00565
6073.39982	0.00567
6071.47114	0.00568
6069.54247	0.00569
6067.61379	0.00571
6065.68512	0.00573
6063.75644	0.00573
6061.82776	0.00574
6059.89909	0.00576
6057.97041	0.00577
6056.04174	0.00578
6054.11306	0.00578
6052.18439	0.00577
6050.25571	0.00577
6048.32703	0.00578
6046.39836	0.00580
6044.46968	0.00581
6042.54101	0.00582
6040.61233	0.00584
6038.68366	0.00587
6036.75498	0.00588
6034.82630	0.00588
6032.89763	0.00589
6030.96895	0.00591
6029.04028	0.00592
6027.11160	0.00593
6025.18293	0.00594
6023.25425	0.00596
6021.32557	0.00597
6019.39690	0.00599
6017.46822	0.00602
6015.53955	0.00604
6013.61087	0.00604
6011.68220	0.00604
6009.75352	0.00606
6007.82484	0.00608
6005.89617	0.00610
6003.96749	0.00611
6002.03882	0.00611
6000.11014	0.00611
5998.18147	0.00612
5996.25279	0.00613
5994.32411	0.00614
5992.39544	0.00617
5990.46676	0.00619
5988.53809	0.00621
5986.60941	0.00621
5984.68074	0.00621
5982.75206	0.00623
5980.82338	0.00626
5978.89471	0.00628
5976.96603	0.00631
5975.03736	0.00633
5973.10868	0.00631
5971.18001	0.00630
5969.25133	0.00631
5967.32265	0.00633
5965.39398	0.00634
5963.46530	0.00635
5961.53663	0.00637
5959.60795	0.00638
5957.67928	0.00639
5955.75060	0.00642
5953.82192	0.00644
5951.89325	0.00646
5949.96457	0.00646
5948.03590	0.00646
5946.10722	0.00647
5944.17855	0.00648
5942.24987	0.00649
5940.32119	0.00651
5938.39252	0.00652
5936.46384	0.00654
5934.53517	0.00656
5932.60649	0.00658
5930.67782	0.00659
5928.74914	0.00659
5926.82046	0.00660
5924.89179	0.00662
5922.96311	0.00664
5921.03444	0.00666
5919.10576	0.00668
5917.17709	0.00669
5915.24841	0.00670
5913.31973	0.00671
5911.39106	0.00673
5909.46238	0.00675
5907.53371	0.00675
5905.60503	0.00674
5903.67636	0.00675
5901.74768	0.00677
5899.81900	0.00679
5897.89033	0.00681
5895.96165	0.00683
5894.03298	0.00685
5892.10430	0.00686
5890.17563	0.00687
5888.24695	0.00689
5886.31827	0.00692
5884.38960	0.00692
5882.46092	0.00692
5880.53225	0.00693
5878.60357	0.00695
5876.67490	0.00696
5874.74622	0.00696
5872.81755	0.00697
5870.88887	0.00699
5868.96019	0.00702
5867.03152	0.00705
5865.10284	0.00706
5863.17417	0.00706
5861.24549	0.00708
5859.31682	0.00709
5857.38814	0.00711
5855.45946	0.00713
5853.53079	0.00713
5851.60211	0.00715
5849.67344	0.00718
5847.74476	0.00719
5845.81609	0.00719
5843.88741	0.00721
5841.95873	0.00723
5840.03006	0.00725
5838.10138	0.00727
5836.17271	0.00731
5834.24403	0.00734
5832.31536	0.00735
5830.38668	0.00734
5828.45800	0.00733
5826.52933	0.00733
5824.60065	0.00735
5822.67198	0.00737
5820.74330	0.00739
5818.81463	0.00740
5816.88595	0.00740
5814.95727	0.00742
5813.02860	0.00746
5811.09992	0.00748
5809.17125	0.00750
5807.24257	0.00751
5805.31390	0.00751
5803.38522	0.00751
5801.45654	0.00754
5799.52787	0.00758
5797.59919	0.00760
5795.67052	0.00762
5793.74184	0.00763
5791.81317	0.00763
5789.88449	0.00763
5787.95581	0.00765
5786.02714	0.00767
5784.09846	0.00768
5782.16979	0.00770
5780.24111	0.00772
5778.31244	0.00773
5776.38376	0.00773
5774.45508	0.00775
5772.52641	0.00777
5770.59773	0.00779
5768.66906	0.00781
5766.74038	0.00783
5764.81171	0.00785
5762.88303	0.00787
5760.95435	0.00788
5759.02568	0.00789
5757.09700	0.00790
5755.16833	0.00791
5753.23965	0.00794
5751.31098	0.00796
5749.38230	0.00798
5747.45362	0.00799
5745.52495	0.00800
5743.59627	0.00802
5741.66760	0.00804
5739.73892	0.00805
5737.81025	0.00805
5735.88157	0.00807
5733.95289	0.00809
5732.02422	0.00812
5730.09554	0.00813
5728.16687	0.00814
5726.23819	0.00814
5724.30952	0.00816
5722.38084	0.00819
5720.45216	0.00823
5718.52349	0.00826
5716.59481	0.00827
5714.66614	0.00828
5712.73746	0.00828
5710.80879	0.00828
5708.88011	0.00830
5706.95143	0.00835
5705.02276	0.00837
5703.09408	0.00838
5701.16541	0.00837
5699.23673	0.00837
5697.30806	0.00839
5695.37938	0.00841
5693.45070	0.00843
5691.52203	0.00846
5689.59335	0.00848
5687.66468	0.00851
5685.73600	0.00852
5683.80733	0.00854
5681.87865	0.00856
5679.94997	0.00856
5678.02130	0.00857
5676.09262	0.00859
5674.16395	0.00861
5672.23527	0.00864
5670.30660	0.00866
5668.37792	0.00868
5666.44924	0.00868
5664.52057	0.00870
5662.59189	0.00872
5660.66322	0.00872
5658.73454	0.00873
5656.80587	0.00875
5654.87719	0.00876
5652.94851	0.00878
5651.01984	0.00882
5649.09116	0.00886
5647.16249	0.00890
5645.23381	0.00891
5643.30514	0.00889
5641.37646	0.00888
5639.44778	0.00889
5637.51911	0.00892
5635.59043	0.00895
5633.66176	0.00898
5631.73308	0.00901
5629.80441	0.00904
5627.87573	0.00905
5625.94705	0.00906
5624.01838	0.00906
5622.08970	0.00907
5620.16103	0.00910
5618.23235	0.00912
5616.30368	0.00914
5614.37500	0.00915
5612.44632	0.00915
5610.51765	0.00916
5608.58897	0.00917
5606.66030	0.00920
5604.73162	0.00923
5602.80295	0.00925
5600.87427	0.00926
5598.94559	0.00929
5597.01692	0.00931
5595.08824	0.00934
5593.15957	0.00937
5591.23089	0.00941
5589.30222	0.00943
5587.37354	0.00943
5585.44486	0.00943
5583.51619	0.00944
5581.58751	0.00945
5579.65884	0.00946
5577.73016	0.00947
5575.80149	0.00948
5573.87281	0.00951
5571.94413	0.00954
5570.01546	0.00958
5568.08678	0.00961
5566.15811	0.00961
5564.22943	0.00960
5562.30076	0.00962
5560.37208	0.00964
5558.44340	0.00967
5556.51473	0.00971
5554.58605	0.00974
5552.65738	0.00975
5550.72870	0.00977
5548.80003	0.00978
5546.87135	0.00980
5544.94267	0.00982
5543.01400	0.00982
5541.08532	0.00983
5539.15665	0.00987
5537.22797	0.00990
5535.29930	0.00992
5533.37062	0.00993
5531.44194	0.00993
5529.51327	0.00994
5527.58459	0.00997
5525.65592	0.01002
5523.72724	0.01005
5521.79857	0.01007
5519.86989	0.01007
5517.94121	0.01007
5516.01254	0.01008
5514.08386	0.01008
5512.15519	0.01010
5510.22651	0.01013
5508.29784	0.01018
5506.36916	0.01022
5504.44048	0.01023
5502.51181	0.01025
5500.58313	0.01026
5498.65446	0.01028
5496.72578	0.01029
5494.79711	0.01031
5492.86843	0.01035
5490.93975	0.01037
5489.01108	0.01038
5487.08240	0.01039
5485.15373	0.01040
5483.22505	0.01041
5481.29638	0.01043
5479.36770	0.01045
5477.43902	0.01047
5475.51035	0.01048
5473.58167	0.01050
5471.65300	0.01053
5469.72432	0.01055
5467.79565	0.01058
5465.86697	0.01060
5463.93829	0.01061
5462.00962	0.01063
5460.08094	0.01066
5458.15227	0.01069
5456.22359	0.01071
5454.29492	0.01073
5452.36624	0.01075
5450.43756	0.01077
5448.50889	0.01078
5446.58021	0.01079
5444.65154	0.01081
5442.72286	0.01084
5440.79419	0.01087
5438.86551	0.01089
5436.93683	0.01090
5435.00816	0.01091
5433.07948	0.01092
5431.15081	0.01092
5429.22213	0.01092
5427.29346	0.01093
5425.36478	0.01096
5423.43610	0.01101
5421.50743	0.01105
5419.57875	0.01107
5417.65008	0.01107
5415.72140	0.01108
5413.79273	0.01110
5411.86405	0.01113
5409.93537	0.01116
5408.00670	0.01119
5406.07802	0.01122
5404.14935	0.01126
5402.22067	0.01129
5400.29200	0.01131
5398.36332	0.01133
5396.43464	0.01134
5394.50597	0.01135
5392.57729	0.01137
5390.64862	0.01139
5388.71994	0.01140
5386.79127	0.01141
5384.86259	0.01144
5382.93391	0.01147
5381.00524	0.01150
5379.07656	0.01151
5377.14789	0.01154
5375.21921	0.01157
5373.29054	0.01160
5371.36186	0.01162
5369.43318	0.01164
5367.50451	0.01165
5365.57583	0.01168
5363.64716	0.01171
5361.71848	0.01174
5359.78981	0.01175
5357.86113	0.01175
5355.93245	0.01176
5354.00378	0.01177
5352.07510	0.01179
5350.14643	0.01181
5348.21775	0.01182
5346.28908	0.01183
5344.36040	0.01186
5342.43172	0.01189
5340.50305	0.01192
5338.57437	0.01194
5336.64570	0.01196
5334.71702	0.01199
5332.78835	0.01201
5330.85967	0.01204
5328.93099	0.01207
5327.00232	0.01210
5325.07364	0.01212
5323.14497	0.01214
5321.21629	0.01217
5319.28762	0.01220
5317.35894	0.01220
5315.43026	0.01223
5313.50159	0.01225
5311.57291	0.01227
5309.64424	0.01228
5307.71556	0.01230
5305.78689	0.01232
5303.85821	0.01236
5301.92953	0.01239
5300.00086	0.01240
5298.07218	0.01241
5296.14351	0.01242
5294.21483	0.01245
5292.28616	0.01247
5290.35748	0.01249
5288.42880	0.01253
5286.50013	0.01255
5284.57145	0.01256
5282.64278	0.01259
5280.71410	0.01263
5278.78543	0.01265
5276.85675	0.01266
5274.92807	0.01268
5272.99940	0.01271
5271.07072	0.01272
5269.14205	0.01274
5267.21337	0.01276
5265.28470	0.01278
5263.35602	0.01281
5261.42734	0.01284
5259.49867	0.01286
5257.56999	0.01287
5255.64132	0.01290
5253.71264	0.01293
5251.78397	0.01294
5249.85529	0.01295
5247.92661	0.01298
5245.99794	0.01301
5244.06926	0.01305
5242.14059	0.01309
5240.21191	0.01313
5238.28324	0.01315
5236.35456	0.01317
5234.42588	0.01318
5232.49721	0.01320
5230.56853	0.01322
5228.63986	0.01322
5226.71118	0.01323
5224.78251	0.01325
5222.85383	0.01327
5220.92515	0.01329
5218.99648	0.01331
5217.06780	0.01334
5215.13913	0.01337
5213.21045	0.01339
5211.28178	0.01340
5209.35310	0.01342
5207.42442	0.01343
5205.49575	0.01345
5203.56707	0.01350
5201.63840	0.01354
5199.70972	0.01357
5197.78105	0.01359
5195.85237	0.01360
5193.92369	0.01361
5191.99502	0.01363
5190.06634	0.01366
5188.13767	0.01368
5186.20899	0.01370
5184.28032	0.01371
5182.35164	0.01373
5180.42296	0.01376
5178.49429	0.01380
5176.56561	0.01383
5174.63694	0.01387
5172.70826	0.01389
5170.77959	0.01391
5168.85091	0.01392
5166.92223	0.01393
5164.99356	0.01395
5163.06488	0.01399
5161.13621	0.01404
5159.20753	0.01408
5157.27886	0.01410
5155.35018	0.01412
5153.42150	0.01414
5151.49283	0.01417
5149.56415	0.01421
5147.63548	0.01424
5145.70680	0.01426
5143.77813	0.01426
5141.84945	0.01427
5139.92077	0.01429
5137.99210	0.01431
5136.06342	0.01433
5134.13475	0.01436
5132.20607	0.01439
5130.27740	0.01442
5128.34872	0.01445
5126.42004	0.01446
5124.49137	0.01449
5122.56269	0.01453
5120.63402	0.01457
5118.70534	0.01457
5116.77667	0.01457
5114.84799	0.01458
5112.91931	0.01460
5110.99064	0.01463
5109.06196	0.01467
5107.13329	0.01472
5105.20461	0.01476
5103.27594	0.01479
5101.34726	0.01481
5099.41858	0.01484
5097.48991	0.01486
5095.56123	0.01488
5093.63256	0.01490
5091.70388	0.01491
5089.77521	0.01491
5087.84653	0.01493
5085.91785	0.01495
5083.98918	0.01498
5082.06050	0.01501
5080.13183	0.01505
5078.20315	0.01508
5076.27448	0.01509
5074.34580	0.01511
5072.41712	0.01514
5070.48845	0.01517
5068.55977	0.01521
5066.63110	0.01525
5064.70242	0.01528
5062.77375	0.01529
5060.84507	0.01530
5058.91639	0.01532
5056.98772	0.01535
5055.05904	0.01538
5053.13037	0.01541
5051.20169	0.01544
5049.27302	0.01547
5047.34434	0.01549
5045.41566	0.01550
5043.48699	0.01550
5041.55831	0.01552
5039.62964	0.01556
5037.70096	0.01559
5035.77229	0.01560
5033.84361	0.01562
5031.91493	0.01566
5029.98626	0.01569
5028.05758	0.01572
5026.12891	0.01575
5024.20023	0.01577
5022.27156	0.01580
5020.34288	0.01583
5018.41420	0.01587
5016.48553	0.01589
5014.55685	0.01590
5012.62818	0.01593
5010.69950	0.01598
5008.77083	0.01601
5006.84215	0.01602
5004.91347	0.01604
5002.98480	0.01608
5001.05612	0.01610
4999.12745	0.01613
4997.19877	0.01616
4995.27010	0.01618
4993.34142	0.01619
4991.41274	0.01622
4989.48407	0.01626
4987.55539	0.01628
4985.62672	0.01630
4983.69804	0.01633
4981.76937	0.01637
4979.84069	0.01640
4977.91201	0.01643
4975.98334	0.01645
4974.05466	0.01647
4972.12599	0.01647
4970.19731	0.01648
4968.26864	0.01652
4966.33996	0.01657
4964.41128	0.01659
4962.48261	0.01661
4960.55393	0.01664
4958.62526	0.01666
4956.69658	0.01669
4954.76791	0.01673
4952.83923	0.01677
4950.91055	0.01678
4948.98188	0.01679
4947.05320	0.01682
4945.12453	0.01685
4943.19585	0.01689
4941.26718	0.01691
4939.33850	0.01694
4937.40982	0.01697
4935.48115	0.01700
4933.55247	0.01702
4931.62380	0.01702
4929.69512	0.01704
4927.76645	0.01709
4925.83777	0.01714
4923.90909	0.01719
4921.98042	0.01722
4920.05174	0.01724
4918.12307	0.01725
4916.19439	0.01727
4914.26572	0.01728
4912.33704	0.01729
4910.40836	0.01731
4908.47969	0.01736
4906.55101	0.01741
4904.62234	0.01744
4902.69366	0.01746
4900.76499	0.01748
4898.83631	0.01750
4896.90763	0.01753
4894.97896	0.01757
4893.05028	0.01760
4891.12161	0.01763
4889.19293	0.01767
4887.26426	0.01770
4885.33558	0.01771
4883.40690	0.01773
4881.47823	0.01775
4879.54955	0.01779
4877.62088	0.01783
4875.69220	0.01785
4873.76353	0.01787
4871.83485	0.01790
4869.90617	0.01793
4867.97750	0.01795
4866.04882	0.01798
4864.12015	0.01800
4862.19147	0.01803
4860.26280	0.01808
4858.33412	0.01813
4856.40544	0.01817
4854.47677	0.01819
4852.54809	0.01821
4850.61942	0.01822
4848.69074	0.01824
4846.76207	0.01828
4844.83339	0.01832
4842.90471	0.01837
4840.97604	0.01841
4839.04736	0.01841
4837.11869	0.01841
4835.19001	0.01844
4833.26134	0.01847
4831.33266	0.01850
4829.40398	0.01854
4827.47531	0.01856
4825.54663	0.01858
4823.61796	0.01861
4821.68928	0.01864
4819.76061	0.01867
4817.83193	0.01868
4815.90325	0.01870
4813.97458	0.01875
4812.04590	0.01879
4810.11723	0.01882
4808.18855	0.01883
4806.25988	0.01886
4804.33120	0.01889
4802.40252	0.01892
4800.47385	0.01894
4798.54517	0.01896
4796.61650	0.01899
4794.68782	0.01904
4792.75915	0.01909
4790.83047	0.01911
4788.90179	0.01912
4786.97312	0.01916
4785.04444	0.01922
4783.11577	0.01926
4781.18709	0.01928
4779.25842	0.01930
4777.32974	0.01931
4775.40106	0.01933
4773.47239	0.01936
4771.54371	0.01940
4769.61504	0.01944
4767.68636	0.01949
4765.75769	0.01954
4763.82901	0.01957
4761.90033	0.01958
4759.97166	0.01960
4758.04298	0.01963
4756.11431	0.01967
4754.18563	0.01970
4752.25696	0.01972
4750.32828	0.01974
4748.39960	0.01977
4746.47093	0.01980
4744.54225	0.01984
4742.61358	0.01988
4740.68490	0.01992
4738.75623	0.01994
4736.82755	0.01997
4734.89887	0.02003
4732.97020	0.02008
4731.04152	0.02013
4729.11285	0.02016
4727.18417	0.02018
4725.25550	0.02020
4723.32682	0.02021
4721.39814	0.02023
4719.46947	0.02026
4717.54079	0.02029
4715.61212	0.02034
4713.68344	0.02041
4711.75477	0.02046
4709.82609	0.02048
4707.89741	0.02049
4705.96874	0.02051
4704.04006	0.02055
4702.11139	0.02059
4700.18271	0.02063
4698.25404	0.02065
4696.32536	0.02066
4694.39668	0.02069
4692.46801	0.02073
4690.53933	0.02076
4688.61066	0.02080
4686.68198	0.02083
4684.75331	0.02085
4682.82463	0.02087
4680.89595	0.02092
4678.96728	0.02097
4677.03860	0.02101
4675.10993	0.02103
4673.18125	0.02104
4671.25258	0.02107
4669.32390	0.02110
4667.39522	0.02112
4665.46655	0.02115
4663.53787	0.02121
4661.60920	0.02127
4659.68052	0.02130
4657.75185	0.02132
4655.82317	0.02134
4653.89449	0.02140
4651.96582	0.02146
4650.03714	0.02151
4648.10847	0.02154
4646.17979	0.02156
4644.25112	0.02157
4642.32244	0.02158
4640.39376	0.02158
4638.46509	0.02161
4636.53641	0.02168
4634.60774	0.02175
4632.67906	0.02178
4630.75039	0.02180
4628.82171	0.02184
4626.89303	0.02189
4624.96436	0.02193
4623.03568	0.02196
4621.10701	0.02200
4619.17833	0.02204
4617.24966	0.02206
4615.32098	0.02208
4613.39230	0.02211
4611.46363	0.02216
4609.53495	0.02221
4607.60628	0.02227
4605.67760	0.02232
4603.74893	0.02235
4601.82025	0.02237
4599.89157	0.02239
4597.96290	0.02242
4596.03422	0.02245
4594.10555	0.02250
4592.17687	0.02254
4590.24820	0.02257
4588.31952	0.02261
4586.39084	0.02265
4584.46217	0.02271
4582.53349	0.02276
4580.60482	0.02281
4578.67614	0.02283
4576.74747	0.02283
4574.81879	0.02285
4572.89011	0.02288
4570.96144	0.02292
4569.03276	0.02296
4567.10409	0.02300
4565.17541	0.02303
4563.24674	0.02306
4561.31806	0.02310
4559.38938	0.02313
4557.46071	0.02317
4555.53203	0.02321
4553.60336	0.02325
4551.67468	0.02329
4549.74601	0.02333
4547.81733	0.02337
4545.88865	0.02340
4543.95998	0.02343
4542.03130	0.02349
4540.10263	0.02356
4538.17395	0.02361
4536.24528	0.02361
4534.31660	0.02362
4532.38792	0.02367
4530.45925	0.02375
4528.53057	0.02380
4526.60190	0.02384
4524.67322	0.02390
4522.74455	0.02394
4520.81587	0.02396
4518.88719	0.02398
4516.95852	0.02400
4515.02984	0.02402
4513.10117	0.02408
4511.17249	0.02416
4509.24382	0.02422
4507.31514	0.02426
4505.38646	0.02430
4503.45779	0.02432
4501.52911	0.02433
4499.60044	0.02436
4497.67176	0.02441
4495.74309	0.02448
4493.81441	0.02453
4491.88573	0.02458
4489.95706	0.02462
4488.02838	0.02466
4486.09971	0.02468
4484.17103	0.02471
4482.24236	0.02474
4480.31368	0.02478
4478.38500	0.02482
4476.45633	0.02485
4474.52765	0.02489
4472.59898	0.02495
4470.67030	0.02501
4468.74163	0.02504
4466.81295	0.02507
4464.88427	0.02511
4462.95560	0.02517
4461.02692	0.02521
4459.09825	0.02525
4457.16957	0.02529
4455.24090	0.02535
4453.31222	0.02541
4451.38354	0.02546
4449.45487	0.02549
4447.52619	0.02552
4445.59752	0.02555
4443.66884	0.02559
4441.74017	0.02564
4439.81149	0.02570
4437.88281	0.02575
4435.95414	0.02580
4434.02546	0.02585
4432.09679	0.02590
4430.16811	0.02596
4428.23944	0.02600
4426.31076	0.02603
4424.38208	0.02607
4422.45341	0.02610
4420.52473	0.02611
4418.59606	0.02617
4416.66738	0.02623
4414.73871	0.02629
4412.81003	0.02634
4410.88135	0.02640
4408.95268	0.02645
4407.02400	0.02650
4405.09533	0.02654
4403.16665	0.02658
4401.23798	0.02663
4399.30930	0.02668
4397.38062	0.02673
4395.45195	0.02676
4393.52327	0.02680
4391.59460	0.02684
4389.66592	0.02688
4387.73725	0.02692
4385.80857	0.02695
4383.87989	0.02699
4381.95122	0.02705
4380.02254	0.02713
4378.09387	0.02719
4376.16519	0.02721
4374.23652	0.02722
4372.30784	0.02724
4370.37916	0.02728
4368.45049	0.02735
4366.52181	0.02743
4364.59314	0.02749
4362.66446	0.02754
4360.73579	0.02758
4358.80711	0.02763
4356.87843	0.02769
4354.94976	0.02777
4353.02108	0.02782
4351.09241	0.02786
4349.16373	0.02789
4347.23506	0.02793
4345.30638	0.02798
4343.37770	0.02804
4341.44903	0.02808
4339.52035	0.02812
4337.59168	0.02816
4335.66300	0.02821
4333.73433	0.02825
4331.80565	0.02831
4329.87697	0.02838
4327.94830	0.02843
4326.01962	0.02848
4324.09095	0.02854
4322.16227	0.02860
4320.23360	0.02865
4318.30492	0.02869
4316.37624	0.02874
4314.44757	0.02878
4312.51889	0.02882
4310.59022	0.02887
4308.66154	0.02892
4306.73287	0.02898
4304.80419	0.02906
4302.87551	0.02913
4300.94684	0.02918
4299.01816	0.02922
4297.08949	0.02928
4295.16081	0.02934
4293.23214	0.02940
4291.30346	0.02946
4289.37478	0.02950
4287.44611	0.02954
4285.51743	0.02959
4283.58876	0.02965
4281.66008	0.02970
4279.73141	0.02977
4277.80273	0.02984
4275.87405	0.02990
4273.94538	0.02996
4272.01670	0.03002
4270.08803	0.03007
4268.15935	0.03010
4266.23068	0.03012
4264.30200	0.03016
4262.37332	0.03021
4260.44465	0.03027
4258.51597	0.03033
4256.58730	0.03037
4254.65862	0.03042
4252.72995	0.03046
4250.80127	0.03052
4248.87259	0.03060
4246.94392	0.03066
4245.01524	0.03070
4243.08657	0.03075
4241.15789	0.03081
4239.22922	0.03087
4237.30054	0.03091
4235.37186	0.03095
4233.44319	0.03101
4231.51451	0.03109
4229.58584	0.03117
4227.65716	0.03123
4225.72849	0.03127
4223.79981	0.03132
4221.87113	0.03137
4219.94246	0.03143
4218.01378	0.03151
4216.08511	0.03158
4214.15643	0.03164
4212.22776	0.03171
4210.29908	0.03180
4208.37040	0.03186
4206.44173	0.03189
4204.51305	0.03193
4202.58438	0.03195
4200.65570	0.03198
4198.72703	0.03203
4196.79835	0.03209
4194.86968	0.03216
4192.94100	0.03224
4191.01232	0.03231
4189.08365	0.03236
4187.15497	0.03239
4185.22630	0.03245
4183.29762	0.03254
4181.36895	0.03264
4179.44027	0.03273
4177.51159	0.03280
4175.58292	0.03285
4173.65424	0.03290
4171.72557	0.03295
4169.79689	0.03300
4167.86822	0.03305
4165.93954	0.03310
4164.01086	0.03316
4162.08219	0.03322
4160.15351	0.03328
4158.22484	0.03335
4156.29616	0.03344
4154.36749	0.03352
4152.43881	0.03358
4150.51013	0.03362
4148.58146	0.03366
4146.65278	0.03371
4144.72411	0.03378
4142.79543	0.03386
4140.86676	0.03391
4138.93808	0.03395
4137.00940	0.03399
4135.08073	0.03407
4133.15205	0.03417
4131.22338	0.03423
4129.29470	0.03425
4127.36603	0.03428
4125.43735	0.03436
4123.50867	0.03447
4121.58000	0.03458
4119.65132	0.03465
4117.72265	0.03469
4115.79397	0.03476
4113.86530	0.03486
4111.93662	0.03493
4110.00794	0.03497
4108.07927	0.03501
4106.15059	0.03506
4104.22192	0.03513
4102.29324	0.03519
4100.36457	0.03526
4098.43589	0.03532
4096.50721	0.03539
4094.57854	0.03547
4092.64986	0.03556
4090.72119	0.03563
4088.79251	0.03569
4086.86384	0.03575
4084.93516	0.03584
4083.00648	0.03592
4081.07781	0.03597
4079.14913	0.03601
4077.22046	0.03607
4075.29178	0.03615
4073.36311	0.03621
4071.43443	0.03627
4069.50575	0.03632
4067.57708	0.03639
4065.64840	0.03648
4063.71973	0.03659
4061.79105	0.03668
4059.86238	0.03673
4057.93370	0.03679
4056.00502	0.03688
4054.07635	0.03695
4052.14767	0.03701
4050.21900	0.03706
4048.29032	0.03711
4046.36165	0.03718
4044.43297	0.03725
4042.50429	0.03732
4040.57562	0.03738
4038.64694	0.03745
4036.71827	0.03752
4034.78959	0.03761
4032.86092	0.03769
4030.93224	0.03776
4029.00356	0.03780
4027.07489	0.03786
4025.14621	0.03794
4023.21754	0.03804
4021.28886	0.03812
4019.36019	0.03821
4017.43151	0.03829
4015.50283	0.03835
4013.57416	0.03839
4011.64548	0.03843
4009.71681	0.03848
4007.78813	0.03856
4005.85946	0.03865
4003.93078	0.03874
4002.00210	0.03882
4000.07343	0.03889
3998.14475	0.03895
3996.21608	0.03902
3994.28740	0.03911
3992.35873	0.03920
3990.43005	0.03927
3988.50137	0.03935
3986.57270	0.03943
3984.64402	0.03948
3982.71535	0.03954
3980.78667	0.03961
3978.85800	0.03968
3976.92932	0.03974
3975.00064	0.03980
3973.07197	0.03987
3971.14329	0.03997
3969.21462	0.04006
3967.28594	0.04013
3965.35727	0.04018
3963.42859	0.04024
3961.49991	0.04031
3959.57124	0.04038
3957.64256	0.04047
3955.71389	0.04057
3953.78521	0.04065
3951.85654	0.04070
3949.92786	0.04076
3947.99918	0.04086
3946.07051	0.04097
3944.14183	0.04104
3942.21316	0.04110
3940.28448	0.04119
3938.35581	0.04128
3936.42713	0.04134
3934.49845	0.04135
3932.56978	0.04138
3930.64110	0.04147
3928.71243	0.04158
3926.78375	0.04166
3924.85508	0.04174
3922.92640	0.04183
3920.99772	0.04189
3919.06905	0.04192
3917.14037	0.04197
3915.21170	0.04211
3913.28302	0.04226
3911.35435	0.04237
3909.42567	0.04245
3907.49699	0.04246
3905.56832	0.04240
3903.63964	0.04236
3901.71097	0.04243
3899.78229	0.04258
3897.85362	0.04276
3895.92494	0.04291
3893.99626	0.04296
3892.06759	0.04300
3890.13891	0.04308
3888.21024	0.04310
3886.28156	0.04310
3884.35289	0.04320
3882.42421	0.04332
3880.49553	0.04343
3878.56686	0.04359
3876.63818	0.04371
3874.70951	0.04374
3872.78083	0.04376
3870.85216	0.04377
3868.92348	0.04386
3866.99480	0.04398
3865.06613	0.04407
3863.13745	0.04416
3861.20878	0.04430
3859.28010	0.04440
3857.35143	0.04434
3855.42275	0.04414
3853.49407	0.04412
3851.56540	0.04442
3849.63672	0.04478
3847.70805	0.04497
3845.77937	0.04504
3843.85070	0.04506
3841.92202	0.04505
3839.99334	0.04504
3838.06467	0.04510
3836.13599	0.04525
3834.20732	0.04540
3832.27864	0.04554
3830.34997	0.04568
3828.42129	0.04577
3826.49261	0.04582
3824.56394	0.04585
3822.63526	0.04584
3820.70659	0.04588
3818.77791	0.04600
3816.84924	0.04613
3814.92056	0.04632
3812.99188	0.04654
3811.06321	0.04665
3809.13453	0.04665
3807.20586	0.04665
3805.27718	0.04672
3803.34851	0.04674
3801.41983	0.04678
3799.49115	0.04694
3797.56248	0.04713
3795.63380	0.04728
3793.70513	0.04743
3791.77645	0.04756
3789.84778	0.04766
3787.91910	0.04772
3785.99042	0.04775
3784.06175	0.04780
3782.13307	0.04784
3780.20440	0.04788
3778.27572	0.04799
3776.34705	0.04815
3774.41837	0.04825
3772.48969	0.04827
3770.56102	0.04829
3768.63234	0.04838
3766.70367	0.04851
3764.77499	0.04865
3762.84632	0.04879
3760.91764	0.04883
3758.98896	0.04884
3757.06029	0.04889
3755.13161	0.04892
3753.20294	0.04886
3751.27426	0.04884
3749.34559	0.04895
3747.41691	0.04900
3745.48823	0.04894
3743.55956	0.04907
3741.63088	0.04942
3739.70221	0.04961
3737.77353	0.04954
3735.84486	0.04949
3733.91618	0.04964
3731.98750	0.04992
3730.05883	0.05016
3728.13015	0.05028
3726.20148	0.05033
3724.27280	0.05041
3722.34413	0.05051
3720.41545	0.05062
3718.48677	0.05075
3716.55810	0.05083
3714.62942	0.05084
3712.70075	0.05081
3710.77207	0.05091
3708.84340	0.05111
3706.91472	0.05130
3704.98604	0.05141
3703.05737	0.05145
3701.12869	0.05154
3699.20002	0.05170
3697.27134	0.05184
3695.34267	0.05189
3693.41399	0.05187
3691.48531	0.05182
3689.55664	0.05184
3687.62796	0.05202
3685.69929	0.05228
3683.77061	0.05245
3681.84194	0.05251
3679.91326	0.05248
3677.98458	0.05236
3676.05591	0.05230
3674.12723	0.05244
3672.19856	0.05261
3670.26988	0.05269
3668.34121	0.05286
3666.41253	0.05311
3664.48385	0.05329
3662.55518	0.05339
3660.62650	0.05344
3658.69783	0.05341
3656.76915	0.05340
3654.84048	0.05346
3652.91180	0.05344
3650.98312	0.05327
3649.05445	0.05319
3647.12577	0.05336
3645.19710	0.05366
3643.26842	0.05392
3641.33975	0.05412
3639.41107	0.05428
3637.48239	0.05438
3635.55372	0.05443
3633.62504	0.05444
3631.69637	0.05436
3629.76769	0.05426
3627.83902	0.05437
3625.91034	0.05464
3623.98166	0.05481
3622.05299	0.05481
3620.12431	0.05476
3618.19564	0.05481
3616.26696	0.05491
3614.33829	0.05499
3612.40961	0.05504
3610.48093	0.05509
3608.55226	0.05518
3606.62358	0.05535
3604.69491	0.05550
3602.76623	0.05556
3600.83756	0.05562
3598.90888	0.05569
3596.98020	0.05574
3595.05153	0.05579
3593.12285	0.05584
3591.19418	0.05585
3589.26550	0.05582
3587.33683	0.05587
3585.40815	0.05603
3583.47947	0.05620
3581.55080	0.05630
3579.62212	0.05639
3577.69345	0.05648
3575.76477	0.05656
3573.83610	0.05665
3571.90742	0.05670
3569.97874	0.05666
3568.05007	0.05661
3566.12139	0.05670
3564.19272	0.05688
3562.26404	0.05703
3560.33537	0.05712
3558.40669	0.05721
3556.47801	0.05729
3554.54934	0.05735
3552.62066	0.05740
3550.69199	0.05745
3548.76331	0.05748
3546.83464	0.05749
3544.90596	0.05758
3542.97728	0.05771
3541.04861	0.05783
3539.11993	0.05790
3537.19126	0.05794
3535.26258	0.05799
3533.33391	0.05805
3531.40523	0.05808
3529.47655	0.05809
3527.54788	0.05812
3525.61920	0.05815
3523.69053	0.05817
3521.76185	0.05821
3519.83318	0.05828
3517.90450	0.05833
3515.97582	0.05837
3514.04715	0.05840
3512.11847	0.05842
3510.18980	0.05844
3508.26112	0.05848
3506.33245	0.05853
3504.40377	0.05855
3502.47509	0.05858
3500.54642	0.05864
3498.61774	0.05869
3496.68907	0.05870
3494.76039	0.05870
3492.83172	0.05874
3490.90304	0.05879
3488.97436	0.05880
3487.04569	0.05881
3485.11701	0.05884
3483.18834	0.05887
3481.25966	0.05893
3479.33099	0.05902
3477.40231	0.05910
3475.47363	0.05916
3473.54496	0.05922
3471.61628	0.05929
3469.68761	0.05937
3467.75893	0.05945
3465.83026	0.05952
3463.90158	0.05961
3461.97290	0.05975
3460.04423	0.05989
3458.11555	0.05999
3456.18688	0.06006
3454.25820	0.06017
3452.32953	0.06030
3450.40085	0.06039
3448.47217	0.06043
3446.54350	0.06045
3444.61482	0.06052
3442.68615	0.06065
3440.75747	0.06083
3438.82880	0.06102
3436.90012	0.06119
3434.97144	0.06136
3433.04277	0.06151
3431.11409	0.06164
3429.18542	0.06181
3427.25674	0.06205
3425.32807	0.06228
3423.39939	0.06247
3421.47071	0.06263
3419.54204	0.06279
3417.61336	0.06294
3415.68469	0.06309
3413.75601	0.06324
3411.82734	0.06338
3409.89866	0.06353
3407.96998	0.06367
3406.04131	0.06380
3404.11263	0.06391
3402.18396	0.06402
3400.25528	0.06416
3398.32661	0.06432
3396.39793	0.06447
3394.46925	0.06460
3392.54058	0.06473
3390.61190	0.06485
3388.68323	0.06496
3386.75455	0.06508
3384.82588	0.06520
3382.89720	0.06532
3380.96852	0.06543
3379.03985	0.06557
3377.11117	0.06572
3375.18250	0.06587
3373.25382	0.06599
3371.32515	0.06611
3369.39647	0.06623
3367.46779	0.06637
3365.53912	0.06650
3363.61044	0.06660
3361.68177	0.06668
3359.75309	0.06680
3357.82442	0.06694
3355.89574	0.06708
3353.96706	0.06721
3352.03839	0.06732
3350.10971	0.06744
3348.18104	0.06758
3346.25236	0.06771
3344.32369	0.06785
3342.39501	0.06797
3340.46633	0.06806
3338.53766	0.06814
3336.60898	0.06825
3334.68031	0.06836
3332.75163	0.06845
3330.82296	0.06857
3328.89428	0.06871
3326.96560	0.06888
3325.03693	0.06901
3323.10825	0.06911
3321.17958	0.06921
3319.25090	0.06935
3317.32223	0.06950
3315.39355	0.06963
3313.46487	0.06976
3311.53620	0.06988
3309.60752	0.06998
3307.67885	0.07008
3305.75017	0.07020
3303.82150	0.07034
3301.89282	0.07049
3299.96414	0.07063
3298.03547	0.07075
3296.10679	0.07088
3294.17812	0.07099
3292.24944	0.07111
3290.32077	0.07122
3288.39209	0.07137
3286.46341	0.07154
3284.53474	0.07169
3282.60606	0.07180
3280.67739	0.07189
3278.74871	0.07200
3276.82004	0.07212
3274.89136	0.07224
3272.96268	0.07236
3271.03401	0.07248
3269.10533	0.07264
3267.17666	0.07282
3265.24798	0.07299
3263.31931	0.07312
3261.39063	0.07324
3259.46195	0.07335
3257.53328	0.07347
3255.60460	0.07358
3253.67593	0.07369
3251.74725	0.07381
3249.81858	0.07395
3247.88990	0.07413
3245.96122	0.07429
3244.03255	0.07443
3242.10387	0.07455
3240.17520	0.07466
3238.24652	0.07477
3236.31785	0.07488
3234.38917	0.07500
3232.46049	0.07513
3230.53182	0.07526
3228.60314	0.07540
3226.67447	0.07554
3224.74579	0.07569
3222.81712	0.07583
3220.88844	0.07596
3218.95976	0.07610
3217.03109	0.07624
3215.10241	0.07636
3213.17374	0.07648
3211.24506	0.07659
3209.31639	0.07670
3207.38771	0.07679
3205.45903	0.07690
3203.53036	0.07707
3201.60168	0.07725
3199.67301	0.07741
3197.74433	0.07753
3195.81566	0.07766
3193.88698	0.07783
3191.95830	0.07801
3190.02963	0.07818
3188.10095	0.07832
3186.17228	0.07844
3184.24360	0.07857
3182.31493	0.07870
3180.38625	0.07884
3178.45757	0.07898
3176.52890	0.07913
3174.60022	0.07927
3172.67155	0.07938
3170.74287	0.07951
3168.81420	0.07968
3166.88552	0.07982
3164.95684	0.07992
3163.02817	0.08004
3161.09949	0.08017
3159.17082	0.08031
3157.24214	0.08044
3155.31347	0.08059
3153.38479	0.08076
3151.45611	0.08092
3149.52744	0.08104
3147.59876	0.08115
3145.67009	0.08130
3143.74141	0.08144
3141.81274	0.08156
3139.88406	0.08167
3137.95538	0.08181
3136.02671	0.08196
3134.09803	0.08211
3132.16936	0.08225
3130.24068	0.08239
3128.31201	0.08252
3126.38333	0.08266
3124.45465	0.08279
3122.52598	0.08292
3120.59730	0.08305
3118.66863	0.08317
3116.73995	0.08329
3114.81128	0.08343
3112.88260	0.08359
3110.95392	0.08376
3109.02525	0.08389
3107.09657	0.08403
3105.16790	0.08417
3103.23922	0.08430
3101.31055	0.08441
3099.38187	0.08453
3097.45319	0.08466
3095.52452	0.08479
3093.59584	0.08494
3091.66717	0.08510
3089.73849	0.08524
3087.80982	0.08538
3085.88114	0.08553
3083.95246	0.08567
3082.02379	0.08581
3080.09511	0.08594
3078.16644	0.08605
3076.23776	0.08619
3074.30909	0.08635
3072.38041	0.08649
3070.45173	0.08659
3068.52306	0.08673
3066.59438	0.08689
3064.66571	0.08702
3062.73703	0.08713
3060.80836	0.08727
3058.87968	0.08739
3056.95100	0.08750
3055.02233	0.08765
3053.09365	0.08779
3051.16498	0.08794
3049.23630	0.08809
3047.30763	0.08824
3045.37895	0.08836
3043.45027	0.08851
3041.52160	0.08866
3039.59292	0.08879
3037.66425	0.08892
3035.73557	0.08906
3033.80690	0.08918
3031.87822	0.08929
3029.94954	0.08942
3028.02087	0.08957
3026.09219	0.08972
3024.16352	0.08988
3022.23484	0.09002
3020.30617	0.09011
3018.37749	0.09020
3016.44881	0.09032
3014.52014	0.09049
3012.59146	0.09067
3010.66279	0.09083
3008.73411	0.09095
3006.80544	0.09104
3004.87676	0.09115
3002.94808	0.09130
3001.01941	0.09144
2999.09073	0.09155
2997.16206	0.09167
2995.23338	0.09182
2993.30471	0.09198
2991.37603	0.09212
2989.44735	0.09222
2987.51868	0.09229
2985.59000	0.09236
2983.66133	0.09245
2981.73265	0.09256
2979.80398	0.09263
2977.87530	0.09264
2975.94662	0.09264
2974.01795	0.09266
2972.08927	0.09268
2970.16060	0.09266
2968.23192	0.09260
2966.30325	0.09260
2964.37457	0.09268
2962.44589	0.09277
2960.51722	0.09287
2958.58854	0.09302
2956.65987	0.09321
2954.73119	0.09343
2952.80252	0.09363
2950.87384	0.09378
2948.94516	0.09392
2947.01649	0.09404
2945.08781	0.09412
2943.15914	0.09414
2941.23046	0.09419
2939.30179	0.09424
2937.37311	0.09428
2935.44443	0.09430
2933.51576	0.09428
2931.58708	0.09421
2929.65841	0.09413
2927.72973	0.09409
2925.80106	0.09411
2923.87238	0.09415
2921.94370	0.09421
2920.01503	0.09428
2918.08635	0.09444
2916.15768	0.09473
2914.22900	0.09514
2912.30033	0.09559
2910.37165	0.09600
2908.44297	0.09632
2906.51430	0.09658
2904.58562	0.09683
2902.65695	0.09706
2900.72827	0.09727
2898.79960	0.09746
2896.87092	0.09765
2894.94224	0.09786
2893.01357	0.09806
2891.08489	0.09824
2889.15622	0.09843
2887.22754	0.09864
2885.29887	0.09884
2883.37019	0.09899
2881.44151	0.09913
2879.51284	0.09927
2877.58416	0.09939
2875.65549	0.09949
2873.72681	0.09961
2871.79814	0.09974
2869.86946	0.09988
2867.94078	0.10002
2866.01211	0.10012
2864.08343	0.10019
2862.15476	0.10026
2860.22608	0.10030
2858.29741	0.10028
2856.36873	0.10025
2854.44005	0.10024
2852.51138	0.10027
2850.58270	0.10036
2848.65403	0.10058
2846.72535	0.10099
2844.79668	0.10148
2842.86800	0.10193
2840.93932	0.10228
2839.01065	0.10256
2837.08197	0.10280
2835.15330	0.10300
2833.22462	0.10318
2831.29595	0.10334
2829.36727	0.10350
2827.43859	0.10367
2825.50992	0.10385
2823.58124	0.10401
2821.65257	0.10419
2819.72389	0.10435
2817.79522	0.10451
2815.86654	0.10465
2813.93786	0.10478
2812.00919	0.10492
2810.08051	0.10510
2808.15184	0.10527
2806.22316	0.10542
2804.29449	0.10556
2802.36581	0.10569
2800.43713	0.10583
2798.50846	0.10597
2796.57978	0.10614
2794.65111	0.10633
2792.72243	0.10651
2790.79376	0.10667
2788.86508	0.10680
2786.93640	0.10691
2785.00773	0.10704
2783.07905	0.10720
2781.15038	0.10738
2779.22170	0.10754
2777.29303	0.10769
2775.36435	0.10784
2773.43567	0.10798
2771.50700	0.10813
2769.57832	0.10830
2767.64965	0.10849
2765.72097	0.10864
2763.79230	0.10875
2761.86362	0.10891
2759.93494	0.10908
2758.00627	0.10920
2756.07759	0.10929
2754.14892	0.10943
2752.22024	0.10959
2750.29157	0.10972
2748.36289	0.10984
2746.43421	0.10997
2744.50554	0.11011
2742.57686	0.11026
2740.64819	0.11042
2738.71951	0.11056
2736.79084	0.11068
2734.86216	0.11081
2732.93348	0.11095
2731.00481	0.11112
2729.07613	0.11129
2727.14746	0.11144
2725.21878	0.11156
2723.29011	0.11169
2721.36143	0.11183
2719.43275	0.11198
2717.50408	0.11213
2715.57540	0.11226
2713.64673	0.11238
2711.71805	0.11253
2709.78938	0.11269
2707.86070	0.11285
2705.93202	0.11300
2704.00335	0.11312
2702.07467	0.11322
2700.14600	0.11335
2698.21732	0.11353
2696.28865	0.11371
2694.35997	0.11383
2692.43129	0.11394
2690.50262	0.11408
2688.57394	0.11423
2686.64527	0.11438
2684.71659	0.11451
2682.78792	0.11462
2680.85924	0.11472
2678.93056	0.11486
2677.00189	0.11504
2675.07321	0.11521
2673.14454	0.11536
2671.21586	0.11548
2669.28719	0.11559
2667.35851	0.11570
2665.42983	0.11583
2663.50116	0.11600
2661.57248	0.11618
2659.64381	0.11633
2657.71513	0.11645
2655.78646	0.11658
2653.85778	0.11672
2651.92910	0.11688
2650.00043	0.11704
2648.07175	0.11721
2646.14308	0.11737
2644.21440	0.11750
2642.28573	0.11764
2640.35705	0.11782
2638.42837	0.11799
2636.49970	0.11813
2634.57102	0.11828
2632.64235	0.11848
2630.71367	0.11868
2628.78500	0.11880
2626.85632	0.11886
2624.92764	0.11895
2622.99897	0.11909
2621.07029	0.11926
2619.14162	0.11943
2617.21294	0.11958
2615.28427	0.11974
2613.35559	0.11992
2611.42691	0.12009
2609.49824	0.12023
2607.56956	0.12037
2605.64089	0.12052
2603.71221	0.12069
2601.78354	0.12087
2599.85486	0.12103
2597.92618	0.12120
2595.99751	0.12134
2594.06883	0.12146
2592.14016	0.12161
2590.21148	0.12177
2588.28281	0.12193
2586.35413	0.12208
2584.42545	0.12223
2582.49678	0.12237
2580.56810	0.12252
2578.63943	0.12271
2576.71075	0.12287
2574.78208	0.12296
2572.85340	0.12307
2570.92472	0.12326
2568.99605	0.12347
2567.06737	0.12362
2565.13870	0.12374
2563.21002	0.12389
2561.28135	0.12405
2559.35267	0.12419
2557.42399	0.12429
2555.49532	0.12440
2553.56664	0.12454
2551.63797	0.12470
2549.70929	0.12485
2547.78062	0.12498
2545.85194	0.12512
2543.92326	0.12530
2541.99459	0.12545
2540.06591	0.12554
2538.13724	0.12564
2536.20856	0.12579
2534.27989	0.12595
2532.35121	0.12610
2530.42253	0.12626
2528.49386	0.12641
2526.56518	0.12655
2524.63651	0.12670
2522.70783	0.12688
2520.77916	0.12706
2518.85048	0.12723
2516.92181	0.12740
2514.99313	0.12755
2513.06445	0.12767
2511.13578	0.12782
2509.20710	0.12799
2507.27843	0.12815
2505.34975	0.12828
2503.42108	0.12842
2501.49240	0.12860
2499.56372	0.12879
2497.63505	0.12898
2495.70637	0.12913
2493.77770	0.12926
2491.84902	0.12942
2489.92035	0.12961
2487.99167	0.12979
2486.06299	0.12995
2484.13432	0.13012
2482.20564	0.13030
2480.27697	0.13049
2478.34829	0.13063
2476.41962	0.13074
2474.49094	0.13088
2472.56226	0.13107
2470.63359	0.13125
2468.70491	0.13139
2466.77624	0.13150
2464.84756	0.13164
2462.91889	0.13180
2460.99021	0.13197
2459.06153	0.13214
2457.13286	0.13229
2455.20418	0.13244
2453.27551	0.13261
2451.34683	0.13280
2449.41816	0.13299
2447.48948	0.13317
2445.56080	0.13332
2443.63213	0.13345
2441.70345	0.13361
2439.77478	0.13378
2437.84610	0.13394
2435.91743	0.13412
2433.98875	0.13429
2432.06007	0.13442
2430.13140	0.13453
2428.20272	0.13464
2426.27405	0.13477
2424.34537	0.13490
2422.41670	0.13507
2420.48802	0.13529
2418.55934	0.13548
2416.63067	0.13562
2414.70199	0.13574
2412.77332	0.13589
2410.84464	0.13606
2408.91597	0.13624
2406.98729	0.13641
2405.05861	0.13660
2403.12994	0.13676
2401.20126	0.13689
2399.27259	0.13701
2397.34391	0.13713
2395.41524	0.13725
2393.48656	0.13736
2391.55788	0.13750
2389.62921	0.13770
2387.70053	0.13792
2385.77186	0.13809
2383.84318	0.13821
2381.91451	0.13833
2379.98583	0.13844
2378.05715	0.13849
2376.12848	0.13850
2374.19980	0.13850
2372.27113	0.13851
2370.34245	0.13855
2368.41378	0.13861
2366.48510	0.13871
2364.55642	0.13881
2362.62775	0.13892
2360.69907	0.13907
2358.77040	0.13927
2356.84172	0.13948
2354.91305	0.13973
2352.98437	0.14004
2351.05569	0.14034
2349.12702	0.14055
2347.19834	0.14064
2345.26967	0.14067
2343.34099	0.14070
2341.41232	0.14080
2339.48364	0.14095
2337.55496	0.14110
2335.62629	0.14129
2333.69761	0.14149
2331.76894	0.14165
2329.84026	0.14180
2327.91159	0.14201
2325.98291	0.14221
2324.05423	0.14241
2322.12556	0.14265
2320.19688	0.14289
2318.26821	0.14310
2316.33953	0.14329
2314.41086	0.14348
2312.48218	0.14367
2310.55350	0.14386
2308.62483	0.14405
2306.69615	0.14425
2304.76748	0.14445
2302.83880	0.14462
2300.91013	0.14476
2298.98145	0.14490
2297.05277	0.14505
2295.12410	0.14521
2293.19542	0.14538
2291.26675	0.14557
2289.33807	0.14573
2287.40940	0.14587
2285.48072	0.14604
2283.55204	0.14624
2281.62337	0.14640
2279.69469	0.14654
2277.76602	0.14669
2275.83734	0.14686
2273.90867	0.14704
2271.97999	0.14717
2270.05131	0.14729
2268.12264	0.14745
2266.19396	0.14762
2264.26529	0.14778
2262.33661	0.14796
2260.40794	0.14816
2258.47926	0.14831
2256.55058	0.14840
2254.62191	0.14850
2252.69323	0.14863
2250.76456	0.14880
2248.83588	0.14898
2246.90721	0.14916
2244.97853	0.14933
2243.04985	0.14949
2241.12118	0.14963
2239.19250	0.14977
2237.26383	0.14991
2235.33515	0.15004
2233.40648	0.15019
2231.47780	0.15035
2229.54912	0.15052
2227.62045	0.15071
2225.69177	0.15089
2223.76310	0.15105
2221.83442	0.15120
2219.90575	0.15135
2217.97707	0.15149
2216.04839	0.15163
2214.11972	0.15178
2212.19104	0.15195
2210.26237	0.15209
2208.33369	0.15222
2206.40502	0.15235
2204.47634	0.15253
2202.54766	0.15273
2200.61899	0.15294
2198.69031	0.15311
2196.76164	0.15322
2194.83296	0.15329
2192.90429	0.15340
2190.97561	0.15357
2189.04693	0.15376
2187.11826	0.15395
2185.18958	0.15411
2183.26091	0.15422
2181.33223	0.15434
2179.40356	0.15449
2177.47488	0.15468
2175.54620	0.15489
2173.61753	0.15505
2171.68885	0.15518
2169.76018	0.15533
2167.83150	0.15551
2165.90283	0.15569
2163.97415	0.15585
2162.04547	0.15600
2160.11680	0.15615
2158.18812	0.15631
2156.25945	0.15644
2154.33077	0.15659
2152.40210	0.15678
2150.47342	0.15697
2148.54474	0.15715
2146.61607	0.15729
2144.68739	0.15743
2142.75872	0.15758
2140.83004	0.15773
2138.90137	0.15788
2136.97269	0.15803
2135.04401	0.15819
2133.11534	0.15834
2131.18666	0.15849
2129.25799	0.15866
2127.32931	0.15883
2125.40064	0.15898
2123.47196	0.15912
2121.54328	0.15924
2119.61461	0.15935
2117.68593	0.15947
2115.75726	0.15966
2113.82858	0.15989
2111.89991	0.16010
2109.97123	0.16026
2108.04255	0.16040
2106.11388	0.16052
2104.18520	0.16067
2102.25653	0.16084
2100.32785	0.16100
2098.39918	0.16116
2096.47050	0.16134
2094.54182	0.16151
2092.61315	0.16167
2090.68447	0.16183
2088.75580	0.16199
2086.82712	0.16214
2084.89845	0.16229
2082.96977	0.16246
2081.04109	0.16262
2079.11242	0.16277
2077.18374	0.16293
2075.25507	0.16312
2073.32639	0.16333
2071.39772	0.16351
2069.46904	0.16363
2067.54036	0.16373
2065.61169	0.16385
2063.68301	0.16399
2061.75434	0.16413
2059.82566	0.16428
2057.89699	0.16444
2055.96831	0.16462
2054.03963	0.16481
2052.11096	0.16497
2050.18228	0.16510
2048.25361	0.16522
2046.32493	0.16540
2044.39626	0.16563
2042.46758	0.16585
2040.53890	0.16600
2038.61023	0.16613
2036.68155	0.16627
2034.75288	0.16641
2032.82420	0.16656
2030.89553	0.16670
2028.96685	0.16685
2027.03817	0.16703
2025.10950	0.16723
2023.18082	0.16740
2021.25215	0.16752
2019.32347	0.16760
2017.39480	0.16770
2015.46612	0.16789
2013.53744	0.16812
2011.60877	0.16833
2009.68009	0.16852
2007.75142	0.16870
2005.82274	0.16884
2003.89407	0.16899
2001.96539	0.16916
2000.03671	0.16933
1998.10804	0.16946
1996.17936	0.16957
1994.25069	0.16966
1992.32201	0.16976
1990.39334	0.16993
1988.46466	0.17013
1986.53598	0.17029
1984.60731	0.17044
1982.67863	0.17058
1980.74996	0.17073
1978.82128	0.17090
1976.89261	0.17105
1974.96393	0.17117
1973.03525	0.17128
1971.10658	0.17138
1969.17790	0.17146
1967.24923	0.17158
1965.32055	0.17177
1963.39188	0.17196
1961.46320	0.17210
1959.53452	0.17220
1957.60585	0.17230
1955.67717	0.17245
1953.74850	0.17266
1951.81982	0.17285
1949.89115	0.17300
1947.96247	0.17314
1946.03379	0.17324
1944.10512	0.17331
1942.17644	0.17345
1940.24777	0.17369
1938.31909	0.17390
1936.39042	0.17404
1934.46174	0.17419
1932.53306	0.17434
1930.60439	0.17446
1928.67571	0.17460
1926.74704	0.17477
1924.81836	0.17491
1922.88969	0.17500
1920.96101	0.17507
1919.03233	0.17513
1917.10366	0.17530
1915.17498	0.17559
1913.24631	0.17586
1911.31763	0.17603
1909.38896	0.17615
1907.46028	0.17626
1905.53160	0.17642
1903.60293	0.17663
1901.67425	0.17682
1899.74558	0.17697
1897.81690	0.17708
1895.88823	0.17717
1893.95955	0.17731
1892.03087	0.17744
1890.10220	0.17753
1888.17352	0.17772
1886.24485	0.17795
1884.31617	0.17811
1882.38750	0.17821
1880.45882	0.17833
1878.53014	0.17853
1876.60147	0.17878
1874.67279	0.17898
1872.74412	0.17903
1870.81544	0.17895
1868.88677	0.17892
1866.95809	0.17916
1865.02941	0.17955
1863.10074	0.17986
1861.17206	0.18007
1859.24339	0.18024
1857.31471	0.18038
1855.38604	0.18053
1853.45736	0.18072
1851.52868	0.18088
1849.60001	0.18091
1847.67133	0.18083
1845.74266	0.18071
1843.81398	0.18082
1841.88531	0.18125
1839.95663	0.18165
1838.02795	0.18185
1836.09928	0.18203
1834.17060	0.18217
1832.24193	0.18213
1830.31325	0.18210
1828.38458	0.18226
1826.45590	0.18248
1824.52722	0.18271
1822.59855	0.18302
1820.66987	0.18330
1818.74120	0.18351
1816.81252	0.18368
1814.88385	0.18376
1812.95517	0.18376
1811.02649	0.18383
1809.09782	0.18401
1807.16914	0.18418
1805.24047	0.18425
1803.31179	0.18420
1801.38312	0.18416
1799.45444	0.18430
1797.52576	0.18455
1795.59709	0.18467
1793.66841	0.18459
1791.73974	0.18465
1789.81106	0.18502
1787.88239	0.18534
1785.95371	0.18542
1784.02503	0.18550
1782.09636	0.18562
1780.16768	0.18572
1778.23901	0.18584
1776.31033	0.18586
1774.38166	0.18568
1772.45298	0.18553
1770.52430	0.18564
1768.59563	0.18596
1766.66695	0.18637
1764.73828	0.18663
1762.80960	0.18662
1760.88093	0.18664
1758.95225	0.18676
1757.02357	0.18686
1755.09490	0.18692
1753.16622	0.18675
1751.23755	0.18642
1749.30887	0.18633
1747.38020	0.18649
1745.45152	0.18664
1743.52284	0.18669
1741.59417	0.18666
1739.66549	0.18666
1737.73682	0.18662
1735.80814	0.18632
1733.87947	0.18615
1731.95079	0.18653
1730.02211	0.18711
1728.09344	0.18752
1726.16476	0.18775
1724.23609	0.18789
1722.30741	0.18791
1720.37874	0.18764
1718.45006	0.18727
1716.52138	0.18732
1714.59271	0.18784
1712.66403	0.18844
1710.73536	0.18882
1708.80668	0.18887
1706.87801	0.18873
1704.94933	0.18863
1703.02065	0.18839
1701.09198	0.18799
1699.16330	0.18795
1697.23463	0.18823
1695.30595	0.18860
1693.37728	0.18910
1691.44860	0.18938
1689.51992	0.18933
1687.59125	0.18907
1685.66257	0.18864
1683.73390	0.18852
1681.80522	0.18895
1679.87655	0.18937
1677.94787	0.18939
1676.01919	0.18921
1674.09052	0.18919
1672.16184	0.18918
1670.23317	0.18910
1668.30449	0.18938
1666.37582	0.18985
1664.44714	0.18999
1662.51846	0.18994
1660.58979	0.19009
1658.66111	0.19021
1656.73244	0.18983
1654.80376	0.18904
1652.87509	0.18880
1650.94641	0.18937
1649.01773	0.18970
1647.08906	0.18963
1645.16038	0.18992
1643.23171	0.19044
1641.30303	0.19065
1639.37436	0.19046
1637.44568	0.19007
1635.51700	0.18998
1633.58833	0.19042
1631.65965	0.19090
1629.73098	0.19094
1627.80230	0.19074
1625.87363	0.19048
1623.94495	0.19014
1622.01627	0.18989
1620.08760	0.18987
1618.15892	0.19004
1616.23025	0.19058
1614.30157	0.19135
1612.37290	0.19189
1610.44422	0.19217
1608.51554	0.19242
1606.58687	0.19270
1604.65819	0.19294
1602.72952	0.19314
1600.80084	0.19334
1598.87217	0.19356
1596.94349	0.19374
1595.01481	0.19390
1593.08614	0.19408
1591.15746	0.19424
1589.22879	0.19439
1587.30011	0.19456
1585.37144	0.19474
1583.44276	0.19493
1581.51408	0.19507
1579.58541	0.19504
1577.65673	0.19482
1575.72806	0.19483
1573.79938	0.19519
1571.87071	0.19536
1569.94203	0.19533
1568.01335	0.19551
1566.08468	0.19579
1564.15600	0.19593
1562.22733	0.19567
1560.29865	0.19502
1558.36998	0.19483
1556.44130	0.19546
1554.51262	0.19617
1552.58395	0.19652
1550.65527	0.19668
1548.72660	0.19684
1546.79792	0.19685
1544.86925	0.19651
1542.94057	0.19602
1541.01189	0.19581
1539.08322	0.19621
1537.15454	0.19690
1535.22587	0.19721
1533.29719	0.19725
1531.36852	0.19750
1529.43984	0.19767
1527.51116	0.19758
1525.58249	0.19745
1523.65381	0.19716
1521.72514	0.19687
1519.79646	0.19701
1517.86779	0.19735
1515.93911	0.19765
1514.01043	0.19792
1512.08176	0.19795
1510.15308	0.19756
1508.22441	0.19706
1506.29573	0.19716
1504.36706	0.19793
1502.43838	0.19852
1500.50970	0.19846
1498.58103	0.19822
1496.65235	0.19824
1494.72368	0.19848
1492.79500	0.19847
1490.86633	0.19813
1488.93765	0.19797
1487.00897	0.19819
1485.08030	0.19844
1483.15162	0.19841
1481.22295	0.19823
1479.29427	0.19795
1477.36560	0.19747
1475.43692	0.19687
1473.50824	0.19644
1471.57957	0.19634
1469.65089	0.19641
1467.72222	0.19624
1465.79354	0.19583
1463.86487	0.19561
1461.93619	0.19550
1460.00751	0.19498
1458.07884	0.19422
1456.15016	0.19408
1454.22149	0.19457
1452.29281	0.19499
1450.36414	0.19511
1448.43546	0.19516
1446.50678	0.19531
1444.57811	0.19554
1442.64943	0.19573
1440.72076	0.19575
1438.79208	0.19548
1436.86341	0.19527
1434.93473	0.19552
1433.00605	0.19591
1431.07738	0.19608
1429.14870	0.19625
1427.22003	0.19646
1425.29135	0.19651
1423.36268	0.19643
1421.43400	0.19614
1419.50532	0.19583
1417.57665	0.19598
1415.64797	0.19645
1413.71930	0.19676
1411.79062	0.19686
1409.86195	0.19688
1407.93327	0.19680
1406.00459	0.19666
1404.07592	0.19662
1402.14724	0.19661
1400.21857	0.19644
1398.28989	0.19623
1396.36122	0.19609
1394.43254	0.19608
1392.50386	0.19622
1390.57519	0.19624
1388.64651	0.19592
1386.71784	0.19554
1384.78916	0.19542
1382.86049	0.19550
1380.93181	0.19561
1379.00313	0.19566
1377.07446	0.19557
1375.14578	0.19542
1373.21711	0.19541
1371.28843	0.19550
1369.35976	0.19554
1367.43108	0.19553
1365.50240	0.19544
1363.57373	0.19525
1361.64505	0.19521
1359.71638	0.19539
1357.78770	0.19559
1355.85903	0.19569
1353.93035	0.19576
1352.00167	0.19586
1350.07300	0.19597
1348.14432	0.19611
1346.21565	0.19626
1344.28697	0.19632
1342.35830	0.19618
1340.42962	0.19593
1338.50094	0.19580
1336.57227	0.19583
1334.64359	0.19586
1332.71492	0.19581
1330.78624	0.19571
1328.85757	0.19559
1326.92889	0.19547
1325.00021	0.19531
1323.07154	0.19511
1321.14286	0.19488
1319.21419	0.19469
1317.28551	0.19452
1315.35684	0.19434
1313.42816	0.19417
1311.49948	0.19405
1309.57081	0.19393
1307.64213	0.19376
1305.71346	0.19351
1303.78478	0.19326
1301.85611	0.19308
1299.92743	0.19293
1297.99875	0.19271
1296.07008	0.19246
1294.14140	0.19226
1292.21273	0.19208
1290.28405	0.19188
1288.35538	0.19169
1286.42670	0.19154
1284.49802	0.19138
1282.56935	0.19112
1280.64067	0.19079
1278.71200	0.19045
1276.78332	0.19015
1274.85465	0.18986
1272.92597	0.18948
1270.99729	0.18889
1269.06862	0.18806
1267.13994	0.18711
1265.21127	0.18624
1263.28259	0.18565
1261.35392	0.18539
1259.42524	0.18543
1257.49656	0.18563
1255.56789	0.18580
1253.63921	0.18581
1251.71054	0.18564
1249.78186	0.18537
1247.85319	0.18509
1245.92451	0.18480
1243.99583	0.18446
1242.06716	0.18408
1240.13848	0.18366
1238.20981	0.18314
1236.28113	0.18259
1234.35246	0.18210
1232.42378	0.18161
1230.49510	0.18103
1228.56643	0.18042
1226.63775	0.17984
1224.70908	0.17930
1222.78040	0.17882
1220.85173	0.17837
1218.92305	0.17792
1216.99437	0.17744
1215.06570	0.17693
1213.13702	0.17640
1211.20835	0.17583
1209.27967	0.17525
1207.35100	0.17465
1205.42232	0.17401
1203.49364	0.17343
1201.56497	0.17292
1199.63629	0.17239
1197.70762	0.17183
1195.77894	0.17127
1193.85027	0.17071
1191.92159	0.17012
1189.99291	0.16945
1188.06424	0.16869
1186.13556	0.16793
1184.20689	0.16719
1182.27821	0.16637
1180.34954	0.16554
1178.42086	0.16476
1176.49218	0.16396
1174.56351	0.16313
1172.63483	0.16230
1170.70616	0.16143
1168.77748	0.16051
1166.84881	0.15964
1164.92013	0.15889
1162.99145	0.15816
1161.06278	0.15738
1159.13410	0.15659
1157.20543	0.15580
1155.27675	0.15499
1153.34808	0.15417
1151.41940	0.15339
1149.49072	0.15265
1147.56205	0.15190
1145.63337	0.15105
1143.70470	0.15016
1141.77602	0.14928
1139.84735	0.14834
1137.91867	0.14732
1135.98999	0.14619
1134.06132	0.14489
1132.13264	0.14338
1130.20397	0.14164
1128.27529	0.13966
1126.34662	0.13749
1124.41794	0.13518
1122.48926	0.13289
1120.56059	0.13067
1118.63191	0.12853
1116.70324	0.12655
1114.77456	0.12483
1112.84589	0.12335
1110.91721	0.12210
1108.98853	0.12108
1107.05986	0.12031
1105.13118	0.11980
1103.20251	0.11963
1101.27383	0.11984
1099.34516	0.12032
1097.41648	0.12092
1095.48780	0.12160
1093.55913	0.12235
1091.63045	0.12313
1089.70178	0.12392
1087.77310	0.12465
1085.84443	0.12524
1083.91575	0.12569
1081.98707	0.12604
1080.05840	0.12633
1078.12972	0.12650
1076.20105	0.12657
1074.27237	0.12662
1072.34370	0.12673
1070.41502	0.12686
1068.48634	0.12702
1066.55767	0.12727
1064.62899	0.12754
1062.70032	0.12775
1060.77164	0.12792
1058.84297	0.12810
1056.91429	0.12831
1054.98561	0.12860
1053.05694	0.12893
1051.12826	0.12926
1049.19959	0.12959
1047.27091	0.12995
1045.34224	0.13036
1043.41356	0.13079
1041.48488	0.13119
1039.55621	0.13155
1037.62753	0.13189
1035.69886	0.13223
1033.77018	0.13260
1031.84151	0.13300
1029.91283	0.13338
1027.98415	0.13374
1026.05548	0.13411
1024.12680	0.13444
1022.19813	0.13478
1020.26945	0.13516
1018.34078	0.13554
1016.41210	0.13592
1014.48342	0.13634
1012.55475	0.13688
1010.62607	0.13756
1008.69740	0.13827
1006.76872	0.13887
1004.84005	0.13941
1002.91137	0.13987
1000.98269	0.14021
999.05402	0.14044
997.12534	0.14059
995.19667	0.14072
993.26799	0.14089
991.33932	0.14099
989.41064	0.14099
987.48196	0.14102
985.55329	0.14109
983.62461	0.14107
981.69594	0.14099
979.76726	0.14094
977.83859	0.14084
975.90991	0.14066
973.98123	0.14051
972.05256	0.14037
970.12388	0.14020
968.19521	0.14001
966.26653	0.13984
964.33786	0.13968
962.40918	0.13950
960.48050	0.13927
958.55183	0.13909
956.62315	0.13898
954.69448	0.13884
952.76580	0.13864
950.83713	0.13845
948.90845	0.13828
946.97977	0.13806
945.05110	0.13786
943.12242	0.13767
941.19375	0.13734
939.26507	0.13690
937.33640	0.13647
935.40772	0.13605
933.47904	0.13556
931.55037	0.13499
929.62169	0.13446
927.69302	0.13395
925.76434	0.13342
923.83567	0.13288
921.90699	0.13234
919.97831	0.13180
918.04964	0.13123
916.12096	0.13059
914.19229	0.12983
912.26361	0.12906
910.33494	0.12837
908.40626	0.12771
906.47758	0.12705
904.54891	0.12644
902.62023	0.12582
900.69156	0.12520
898.76288	0.12466
896.83421	0.12417
894.90553	0.12370
892.97685	0.12323
891.04818	0.12279
889.11950	0.12239
887.19083	0.12194
885.26215	0.12144
883.33348	0.12105
881.40480	0.12078
879.47612	0.12050
877.54745	0.12021
875.61877	0.11995
873.69010	0.11966
871.76142	0.11941
869.83275	0.11925
867.90407	0.11906
865.97539	0.11876
864.04672	0.11852
862.11804	0.11843
860.18937	0.11842
858.26069	0.11839
856.33202	0.11829
854.40334	0.11806
852.47466	0.11777
850.54599	0.11753
848.61731	0.11734
846.68864	0.11714
844.75996	0.11688
842.83129	0.11661
840.90261	0.11637
838.97394	0.11605
837.04526	0.11559
835.11658	0.11492
833.18791	0.11406
831.25923	0.11312
829.33056	0.11219
827.40188	0.11126
825.47321	0.11031
823.54453	0.10943
821.61585	0.10866
819.68718	0.10794
817.75850	0.10735
815.82983	0.10693
813.90115	0.10661
811.97248	0.10633
810.04380	0.10613
808.11512	0.10598
806.18645	0.10587
804.25777	0.10582
802.32910	0.10570
800.40042	0.10540
798.47175	0.10489
796.54307	0.10427
794.61439	0.10376
792.68572	0.10347
790.75704	0.10332
788.82837	0.10314
786.89969	0.10289
784.97102	0.10267
783.04234	0.10245
781.11366	0.10219
779.18499	0.10190
777.25631	0.10162
775.32764	0.10134
773.39896	0.10107
771.47029	0.10077
769.54161	0.10044
767.61293	0.10008
765.68426	0.09966
763.75558	0.09920
761.82691	0.09868
759.89823	0.09815
757.96956	0.09761
756.04088	0.09707
754.11220	0.09650
752.18353	0.09585
750.25485	0.09517
748.32618	0.09447
746.39750	0.09373
744.46883	0.09292
742.54015	0.09208
740.61147	0.09134
738.68280	0.09082
736.75412	0.09060
734.82545	0.09061
732.89677	0.09071
730.96810	0.09080
729.03942	0.09089
727.11074	0.09099
725.18207	0.09103
723.25339	0.09102
721.32472	0.09109
719.39604	0.09126
717.46737	0.09151
715.53869	0.09189
713.61001	0.09236
711.68134	0.09281
709.75266	0.09314
707.82399	0.09324
705.89531	0.09308
703.96664	0.09281
702.03796	0.09251
700.10928	0.09214
698.18061	0.09167
696.25193	0.09116
694.32326	0.09062
692.39458	0.09010
690.46591	0.08960
688.53723	0.08907
686.60855	0.08855
684.67988	0.08810
682.75120	0.08765
680.82253	0.08708
678.89385	0.08644
676.96518	0.08586
675.03650	0.08535
673.10782	0.08479
671.17915	0.08411
669.25047	0.08326
667.32180	0.08236
665.39312	0.08156
663.46445	0.08080
661.53577	0.07999
659.60709	0.07919
657.67842	0.07838
655.74974	0.07760
653.82107	0.07687
651.89239	0.07613
649.96372	0.07534
648.03504	0.07445
646.10636	0.07353
644.17769	0.07267
642.24901	0.07178
640.32034	0.07084
638.39166	0.06988
636.46299	0.06894
634.53431	0.06785
632.60563	0.06630
630.67696	0.06390
628.74828	0.06043
626.81961	0.05619
624.89093	0.05188
622.96226	0.04838
621.03358	0.04624
619.10490	0.04517
617.17623	0.04447
615.24755	0.04363
613.31888	0.04255
611.39020	0.04159
609.46153	0.04113
607.53285	0.04120
605.60417	0.04157
603.67550	0.04209
601.74682	0.04281
599.81815	0.04370
597.88947	0.04452
595.96080	0.04511
594.03212	0.04547
592.10344	0.04569
590.17477	0.04587
588.24609	0.04596
586.31742	0.04589
584.38874	0.04573
582.46007	0.04549
580.53139	0.04510
578.60271	0.04458
576.67404	0.04397
574.74536	0.04330
572.81669	0.04268
570.88801	0.04204
568.95934	0.04141
567.03066	0.04098
565.10198	0.04071
563.17331	0.04050
561.24463	0.04028
559.31596	0.04003
557.38728	0.03983
555.45861	0.03966
553.52993	0.03942
551.60125	0.03909
549.67258	0.03886
547.74390	0.03871
545.81523	0.03856
543.88655	0.03841
541.95788	0.03830
540.02920	0.03825
538.10052	0.03818
536.17185	0.03799
534.24317	0.03766
532.31450	0.03729
530.38582	0.03701
528.45715	0.03680
526.52847	0.03654
524.59979	0.03622
522.67112	0.03584
520.74244	0.03540
518.81377	0.03494
516.88509	0.03443
514.95642	0.03391
513.02774	0.03350
511.09906	0.03323
509.17039	0.03302
507.24171	0.03282
505.31304	0.03257
503.38436	0.03227
501.45569	0.03196
499.52701	0.03154
497.59833	0.03091
495.66966	0.03020
493.74098	0.02957
491.81231	0.02904
489.88363	0.02860
487.95496	0.02820
486.02628	0.02769
484.09760	0.02708
482.16893	0.02651
480.24025	0.02599
478.31158	0.02539
476.38290	0.02469
474.45423	0.02410
472.52555	0.02372
470.59687	0.02344
468.66820	0.02315
466.73952	0.02289
464.81085	0.02264
462.88217	0.02238
460.95350	0.02204
459.02482	0.02178
457.09614	0.02179
455.16747	0.02193
453.23879	0.02196
451.31012	0.02190
449.38144	0.02187
447.45277	0.02189
445.52409	0.02183
443.59541	0.02161
441.66674	0.02129
439.73806	0.02089
437.80939	0.02044
435.88071	0.01999
433.95204	0.01952
432.02336	0.01900
430.09468	0.01844
428.16601	0.01786
426.23733	0.01724
424.30866	0.01660
422.37998	0.01599
420.45131	0.01532
418.52263	0.01465
416.59395	0.01405
414.66528	0.01345
412.73660	0.01282
410.80793	0.01225
408.87925	0.01170
406.95058	0.01113
405.02190	0.01054
403.09322	0.00987
401.16455	0.00921
399.23587	0.00873
397.30720	0.00834
395.37852	0.00783
393.44985	0.00723
391.52117	0.00668
389.59249	0.00617
387.66382	0.00573
385.73514	0.00536
383.80647	0.00501
381.87779	0.00465
379.94912	0.00436
378.02044	0.00408
376.09176	0.00372
374.16309	0.00331
372.23441	0.00294
370.30574	0.00262
368.37706	0.00237
