7496.76250	0.00112
7494.83382	0.00112
7492.90514	0.00113
7490.97647	0.00115
7489.04779	0.00116
7487.11912	0.00117
7485.19044	0.00117
7483.26177	0.00118
7481.33309	0.00118
7479.40441	0.00118
7477.47574	0.00117
7475.54706	0.00118
7473.61839	0.00120
7471.68971	0.00122
7469.76104	0.00122
7467.83236	0.00121
7465.90368	0.00120
7463.97501	0.00119
7462.04633	0.00120
7460.11766	0.00122
7458.18898	0.00124
7456.26031	0.00124
7454.33163	0.00124
7452.40295	0.00124
7450.47428	0.00123
7448.54560	0.00122
7446.61693	0.00121
7444.68825	0.00121
7442.75958	0.00121
7440.83090	0.00122
7438.90222	0.00122
7436.97355	0.00123
7435.04487	0.00123
7433.11620	0.00123
7431.18752	0.00124
7429.25885	0.00124
7427.33017	0.00124
7425.40149	0.00125
7423.47282	0.00126
7421.54414	0.00127
7419.61547	0.00127
7417.68679	0.00127
7415.75812	0.00127
7413.82944	0.00129
7411.90076	0.00129
7409.97209	0.00130
7408.04341	0.00130
7406.11474	0.00130
7404.18606	0.00131
7402.25739	0.00134
7400.32871	0.00136
7398.40003	0.00135
7396.47136	0.00133
7394.54268	0.00132
7392.61401	0.00132
7390.68533	0.00133
7388.75666	0.00133
7386.82798	0.00133
7384.89930	0.00133
7382.97063	0.00135
7381.04195	0.00137
7379.11328	0.00137
7377.18460	0.00135
7375.25593	0.00133
7373.32725	0.00133
7371.39857	0.00135
7369.46990	0.00136
7367.54122	0.00137
7365.61255	0.00137
7363.68387	0.00137
7361.75520	0.00137
7359.82652	0.00138
7357.89784	0.00140
7355.96917	0.00140
7354.04049	0.00139
7352.11182	0.00138
7350.18314	0.00139
7348.25447	0.00140
7346.32579	0.00140
7344.39711	0.00139
7342.46844	0.00139
7340.53976	0.00140
7338.61109	0.00140
7336.68241	0.00140
7334.75374	0.00140
7332.82506	0.00140
7330.89638	0.00141
7328.96771	0.00141
7327.03903	0.00142
7325.11036	0.00143
7323.18168	0.00144
7321.25301	0.00144
7319.32433	0.00144
7317.39565	0.00145
7315.46698	0.00146
7313.53830	0.00145
7311.60963	0.00145
7309.68095	0.00145
7307.75228	0.00145
7305.82360	0.00147
7303.89492	0.00147
7301.96625	0.00147
7300.03757	0.00148
7298.10890	0.00149
7296.18022	0.00149
7294.25155	0.00149
7292.32287	0.00150
7290.39419	0.00151
7288.46552	0.00151
7286.53684	0.00151
7284.60817	0.00152
7282.67949	0.00153
7280.75082	0.00153
7278.82214	0.00153
7276.89346	0.00152
7274.96479	0.00151
7273.03611	0.00151
7271.10744	0.00152
7269.17876	0.00153
7267.25009	0.00154
7265.32141	0.00156
7263.39273	0.00157
7261.46406	0.00157
7259.53538	0.00156
7257.60671	0.00154
7255.67803	0.00153
7253.74936	0.00154
7251.82068	0.00154
7249.89200	0.00155
7247.96333	0.00156
7246.03465	0.00157
7244.10598	0.00158
7242.17730	0.00158
7240.24863	0.00158
7238.31995	0.00159
7236.39127	0.00159
7234.46260	0.00159
7232.53392	0.00158
7230.60525	0.00159
7228.67657	0.00160
7226.74790	0.00161
7224.81922	0.00160
7222.89054	0.00160
7220.96187	0.00161
7219.03319	0.00161
7217.10452	0.00162
7215.17584	0.00164
7213.24717	0.00166
7211.31849	0.00167
7209.38981	0.00167
7207.46114	0.00167
7205.53246	0.00166
7203.60379	0.00166
7201.67511	0.00166
7199.74644	0.00167
7197.81776	0.00167
7195.88908	0.00168
7193.96041	0.00168
7192.03173	0.00168
7190.10306	0.00168
7188.17438	0.00168
7186.24571	0.00169
7184.31703	0.00169
7182.38835	0.00168
7180.45968	0.00168
7178.53100	0.00169
7176.60233	0.00170
7174.67365	0.00171
7172.74498	0.00171
7170.81630	0.00172
7168.88762	0.00173
7166.95895	0.00173
7165.03027	0.00173
7163.10160	0.00174
7161.17292	0.00174
7159.24425	0.00173
7157.31557	0.00174
7155.38689	0.00176
7153.45822	0.00177
7151.52954	0.00177
7149.60087	0.00176
7147.67219	0.00175
7145.74352	0.00176
7143.81484	0.00178
7141.88616	0.00178
7139.95749	0.00177
7138.02881	0.00177
7136.10014	0.00178
7134.17146	0.00179
7132.24279	0.00180
7130.31411	0.00181
7128.38543	0.00182
7126.45676	0.00182
7124.52808	0.00183
7122.59941	0.00182
7120.67073	0.00181
7118.74206	0.00182
7116.81338	0.00184
7114.88470	0.00185
7112.95603	0.00184
7111.02735	0.00184
7109.09868	0.00185
7107.17000	0.00186
7105.24133	0.00186
7103.31265	0.00187
7101.38397	0.00188
7099.45530	0.00188
7097.52662	0.00187
7095.59795	0.00187
7093.66927	0.00186
7091.74060	0.00187
7089.81192	0.00189
7087.88324	0.00191
7085.95457	0.00191
7084.02589	0.00190
7082.09722	0.00191
7080.16854	0.00190
7078.23987	0.00190
7076.31119	0.00190
7074.38251	0.00191
7072.45384	0.00190
7070.52516	0.00190
7068.59649	0.00190
7066.66781	0.00192
7064.73914	0.00194
7062.81046	0.00194
7060.88178	0.00195
7058.95311	0.00196
7057.02443	0.00196
7055.09576	0.00196
7053.16708	0.00198
7051.23841	0.00199
7049.30973	0.00199
7047.38105	0.00199
7045.45238	0.00201
7043.52370	0.00204
7041.59503	0.00205
7039.66635	0.00203
7037.73768	0.00200
7035.80900	0.00199
7033.88032	0.00201
7031.95165	0.00201
7030.02297	0.00200
7028.09430	0.00200
7026.16562	0.00201
7024.23695	0.00202
7022.30827	0.00204
7020.37959	0.00204
7018.45092	0.00203
7016.52224	0.00203
7014.59357	0.00204
7012.66489	0.00205
7010.73622	0.00207
7008.80754	0.00207
7006.87886	0.00206
7004.95019	0.00206
7003.02151	0.00208
7001.09284	0.00210
6999.16416	0.00211
6997.23549	0.00209
6995.30681	0.00207
6993.37813	0.00206
6991.44946	0.00208
6989.52078	0.00210
6987.59211	0.00212
6985.66343	0.00213
6983.73476	0.00214
6981.80608	0.00213
6979.87740	0.00213
6977.94873	0.00214
6976.02005	0.00215
6974.09138	0.00215
6972.16270	0.00215
6970.23403	0.00216
6968.30535	0.00216
6966.37667	0.00215
6964.44800	0.00215
6962.51932	0.00215
6960.59065	0.00216
6958.66197	0.00216
6956.73330	0.00217
6954.80462	0.00218
6952.87594	0.00220
6950.94727	0.00220
6949.01859	0.00221
6947.08992	0.00223
6945.16124	0.00224
6943.23257	0.00224
6941.30389	0.00224
6939.37521	0.00224
6937.44654	0.00225
6935.51786	0.00224
6933.58919	0.00223
6931.66051	0.00223
6929.73184	0.00223
6927.80316	0.00224
6925.87448	0.00224
6923.94581	0.00225
6922.01713	0.00226
6920.08846	0.00226
6918.15978	0.00227
6916.23111	0.00227
6914.30243	0.00228
6912.37375	0.00229
6910.44508	0.00230
6908.51640	0.00230
6906.58773	0.00230
6904.65905	0.00230
6902.73038	0.00230
6900.80170	0.00229
6898.87302	0.00227
6896.94435	0.00229
6895.01567	0.00231
6893.08700	0.00233
6891.15832	0.00235
6889.22965	0.00237
6887.30097	0.00237
6885.37229	0.00236
6883.44362	0.00236
6881.51494	0.00236
6879.58627	0.00236
6877.65759	0.00236
6875.72892	0.00237
6873.80024	0.00237
6871.87156	0.00238
6869.94289	0.00239
6868.01421	0.00240
6866.08554	0.00242
6864.15686	0.00242
6862.22819	0.00242
6860.29951	0.00242
6858.37083	0.00241
6856.44216	0.00241
6854.51348	0.00243
6852.58481	0.00244
6850.65613	0.00244
6848.72746	0.00246
6846.79878	0.00248
6844.87010	0.00251
6842.94143	0.00251
6841.01275	0.00249
6839.08408	0.00247
6837.15540	0.00248
6835.22673	0.00250
6833.29805	0.00251
6831.36937	0.00250
6829.44070	0.00250
6827.51202	0.00250
6825.58335	0.00250
6823.65467	0.00252
6821.72600	0.00254
6819.79732	0.00256
6817.86864	0.00257
6815.93997	0.00258
6814.01129	0.00258
6812.08262	0.00257
6810.15394	0.00256
6808.22527	0.00256
6806.29659	0.00257
6804.36791	0.00258
6802.43924	0.00259
6800.51056	0.00260
6798.58189	0.00261
6796.65321	0.00261
6794.72454	0.00261
6792.79586	0.00261
6790.86718	0.00261
6788.93851	0.00261
6787.00983	0.00262
6785.08116	0.00264
6783.15248	0.00265
6781.22381	0.00265
6779.29513	0.00265
6777.36645	0.00266
6775.43778	0.00267
6773.50910	0.00267
6771.58043	0.00267
6769.65175	0.00268
6767.72308	0.00270
6765.79440	0.00269
6763.86572	0.00269
6761.93705	0.00270
6760.00837	0.00271
6758.07970	0.00272
6756.15102	0.00273
6754.22235	0.00273
6752.29367	0.00273
6750.36499	0.00274
6748.43632	0.00275
6746.50764	0.00276
6744.57897	0.00277
6742.65029	0.00276
6740.72162	0.00275
6738.79294	0.00274
6736.86426	0.00275
6734.93559	0.00275
6733.00691	0.00275
6731.07824	0.00278
6729.14956	0.00281
6727.22089	0.00283
6725.29221	0.00281
6723.36353	0.00280
6721.43486	0.00280
6719.50618	0.00280
6717.57751	0.00280
6715.64883	0.00280
6713.72016	0.00281
6711.79148	0.00283
6709.86280	0.00285
6707.93413	0.00287
6706.00545	0.00286
6704.07678	0.00286
6702.14810	0.00287
6700.21943	0.00289
6698.29075	0.00290
6696.36207	0.00291
6694.43340	0.00290
6692.50472	0.00289
6690.57605	0.00289
6688.64737	0.00289
6686.71870	0.00289
6684.79002	0.00290
6682.86134	0.00292
6680.93267	0.00292
6679.00399	0.00293
6677.07532	0.00293
6675.14664	0.00294
6673.21797	0.00296
6671.28929	0.00295
6669.36061	0.00294
6667.43194	0.00295
6665.50326	0.00299
6663.57459	0.00301
6661.64591	0.00302
6659.71724	0.00301
6657.78856	0.00301
6655.85988	0.00302
6653.93121	0.00304
6652.00253	0.00305
6650.07386	0.00305
6648.14518	0.00305
6646.21651	0.00305
6644.28783	0.00306
6642.35915	0.00306
6640.43048	0.00308
6638.50180	0.00309
6636.57313	0.00309
6634.64445	0.00308
6632.71578	0.00309
6630.78710	0.00311
6628.85842	0.00313
6626.92975	0.00314
6625.00107	0.00313
6623.07240	0.00312
6621.14372	0.00310
6619.21505	0.00311
6617.28637	0.00312
6615.35769	0.00313
6613.42902	0.00315
6611.50034	0.00317
6609.57167	0.00319
6607.64299	0.00321
6605.71432	0.00322
6603.78564	0.00322
6601.85696	0.00323
6599.92829	0.00322
6597.99961	0.00320
6596.07094	0.00321
6594.14226	0.00322
6592.21359	0.00323
6590.28491	0.00324
6588.35623	0.00326
6586.42756	0.00327
6584.49888	0.00327
6582.57021	0.00328
6580.64153	0.00329
6578.71286	0.00329
6576.78418	0.00330
6574.85550	0.00331
6572.92683	0.00331
6570.99815	0.00331
6569.06948	0.00330
6567.14080	0.00331
6565.21213	0.00334
6563.28345	0.00336
6561.35477	0.00336
6559.42610	0.00336
6557.49742	0.00336
6555.56875	0.00336
6553.64007	0.00336
6551.71140	0.00336
6549.78272	0.00336
6547.85404	0.00337
6545.92537	0.00339
6543.99669	0.00340
6542.06802	0.00340
6540.13934	0.00341
6538.21067	0.00344
6536.28199	0.00345
6534.35331	0.00345
6532.42464	0.00345
6530.49596	0.00346
6528.56729	0.00348
6526.63861	0.00349
6524.70994	0.00350
6522.78126	0.00349
6520.85258	0.00349
6518.92391	0.00349
6516.99523	0.00350
6515.06656	0.00351
6513.13788	0.00351
6511.20921	0.00351
6509.28053	0.00352
6507.35185	0.00354
6505.42318	0.00356
6503.49450	0.00357
6501.56583	0.00357
6499.63715	0.00355
6497.70848	0.00357
6495.77980	0.00360
6493.85112	0.00361
6491.92245	0.00360
6489.99377	0.00359
6488.06510	0.00359
6486.13642	0.00360
6484.20775	0.00361
6482.27907	0.00361
6480.35039	0.00362
6478.42172	0.00363
6476.49304	0.00364
6474.56437	0.00365
6472.63569	0.00367
6470.70702	0.00369
6468.77834	0.00369
6466.84966	0.00369
6464.92099	0.00370
6462.99231	0.00371
6461.06364	0.00373
6459.13496	0.00374
6457.20629	0.00374
6455.27761	0.00373
6453.34893	0.00374
6451.42026	0.00376
6449.49158	0.00377
6447.56291	0.00380
6445.63423	0.00381
6443.70556	0.00381
6441.77688	0.00380
6439.84820	0.00381
6437.91953	0.00382
6435.99085	0.00382
6434.06218	0.00382
6432.13350	0.00382
6430.20483	0.00382
6428.27615	0.00384
6426.34747	0.00387
6424.41880	0.00389
6422.49012	0.00389
6420.56145	0.00390
6418.63277	0.00389
6416.70410	0.00389
6414.77542	0.00388
6412.84674	0.00388
6410.91807	0.00389
6408.98939	0.00391
6407.06072	0.00394
6405.13204	0.00395
6403.20337	0.00395
6401.27469	0.00395
6399.34601	0.00397
6397.41734	0.00399
6395.48866	0.00400
6393.55999	0.00401
6391.63131	0.00402
6389.70264	0.00404
6387.77396	0.00404
6385.84528	0.00404
6383.91661	0.00404
6381.98793	0.00406
6380.05926	0.00407
6378.13058	0.00408
6376.20191	0.00410
6374.27323	0.00411
6372.34455	0.00411
6370.41588	0.00412
6368.48720	0.00412
6366.55853	0.00411
6364.62985	0.00411
6362.70118	0.00413
6360.77250	0.00414
6358.84382	0.00416
6356.91515	0.00416
6354.98647	0.00415
6353.05780	0.00417
6351.12912	0.00419
6349.20045	0.00420
6347.27177	0.00420
6345.34309	0.00421
6343.41442	0.00423
6341.48574	0.00425
6339.55707	0.00425
6337.62839	0.00425
6335.69972	0.00426
6333.77104	0.00427
6331.84236	0.00430
6329.91369	0.00431
6327.98501	0.00430
6326.05634	0.00429
6324.12766	0.00430
6322.19899	0.00431
6320.27031	0.00432
6318.34163	0.00434
6316.41296	0.00436
6314.48428	0.00436
6312.55561	0.00436
6310.62693	0.00436
6308.69826	0.00437
6306.76958	0.00439
6304.84090	0.00442
6302.91223	0.00442
6300.98355	0.00442
6299.05488	0.00444
6297.12620	0.00446
6295.19753	0.00446
6293.26885	0.00446
6291.34017	0.00446
6289.41150	0.00447
6287.48282	0.00449
6285.55415	0.00450
6283.62547	0.00450
6281.69680	0.00450
6279.76812	0.00451
6277.83944	0.00452
6275.91077	0.00454
6273.98209	0.00456
6272.05342	0.00456
6270.12474	0.00457
6268.19607	0.00458
6266.26739	0.00459
6264.33871	0.00459
6262.41004	0.00460
6260.48136	0.00462
6258.55269	0.00463
6256.62401	0.00463
6254.69534	0.00464
6252.76666	0.00467
6250.83798	0.00470
6248.90931	0.00471
6246.98063	0.00473
6245.05196	0.00474
6243.12328	0.00474
6241.19461	0.00473
6239.26593	0.00473
6237.33725	0.00474
6235.40858	0.00475
6233.47990	0.00475
6231.55123	0.00475
6229.62255	0.00476
6227.69388	0.00477
6225.76520	0.00480
6223.83652	0.00481
6221.90785	0.00482
6219.97917	0.00483
6218.05050	0.00484
6216.12182	0.00485
6214.19315	0.00487
6212.26447	0.00488
6210.33579	0.00489
6208.40712	0.00490
6206.47844	0.00491
6204.54977	0.00492
6202.62109	0.00494
6200.69242	0.00496
6198.76374	0.00497
6196.83506	0.00497
6194.90639	0.00497
6192.97771	0.00497
6191.04904	0.00498
6189.12036	0.00500
6187.19169	0.00501
6185.26301	0.00502
6183.33433	0.00502
6181.40566	0.00504
6179.47698	0.00505
6177.54831	0.00505
6175.61963	0.00507
6173.69096	0.00508
6171.76228	0.00510
6169.83360	0.00512
6167.90493	0.00513
6165.97625	0.00514
6164.04758	0.00515
6162.11890	0.00515
6160.19023	0.00515
6158.26155	0.00517
6156.33287	0.00518
6154.40420	0.00518
6152.47552	0.00518
6150.54685	0.00519
6148.61817	0.00520
6146.68950	0.00522
6144.76082	0.00524
6142.83214	0.00525
6140.90347	0.00525
6138.97479	0.00526
6137.04612	0.00529
6135.11744	0.00529
6133.18877	0.00529
6131.26009	0.00529
6129.33141	0.00531
6127.40274	0.00533
6125.47406	0.00534
6123.54539	0.00535
6121.61671	0.00535
6119.68804	0.00536
6117.75936	0.00538
6115.83068	0.00541
6113.90201	0.00543
6111.97333	0.00544
6110.04466	0.00545
6108.11598	0.00546
6106.18731	0.00546
6104.25863	0.00546
6102.32995	0.00546
6100.40128	0.00547
6098.47260	0.00550
6096.54393	0.00554
6094.61525	0.00556
6092.68658	0.00556
6090.75790	0.00555
6088.82922	0.00556
6086.90055	0.00558
6084.97187	0.00559
6083.04320	0.00560
6081.11452	0.00561
6079.18585	0.00563
6077.25717	0.00565
6075.32849	0.00566
6073.39982	0.00566
6071.47114	0.00566
6069.54247	0.00568
6067.61379	0.00570
6065.68512	0.00571
6063.75644	0.00571
6061.82776	0.00573
6059.89909	0.00575
6057.97041	0.00576
6056.04174	0.00577
6054.11306	0.00578
6052.18439	0.00578
6050.25571	0.00580
6048.32703	0.00581
6046.39836	0.00582
6044.46968	0.00584
6042.54101	0.00586
6040.61233	0.00586
6038.68366	0.00585
6036.75498	0.00585
6034.82630	0.00588
6032.89763	0.00590
6030.96895	0.00591
6029.04028	0.00592
6027.11160	0.00593
6025.18293	0.00594
6023.25425	0.00596
6021.32557	0.00598
6019.39690	0.00599
6017.46822	0.00600
6015.53955	0.00602
6013.61087	0.00603
6011.68220	0.00603
6009.75352	0.00603
6007.82484	0.00606
6005.89617	0.00609
6003.96749	0.00612
6002.03882	0.00613
6000.11014	0.00613
5998.18147	0.00613
5996.25279	0.00615
5994.32411	0.00615
5992.39544	0.00615
5990.46676	0.00615
5988.53809	0.00618
5986.60941	0.00621
5984.68074	0.00623
5982.75206	0.00623
5980.82338	0.00623
5978.89471	0.00624
5976.96603	0.00625
5975.03736	0.00627
5973.10868	0.00629
5971.18001	0.00632
5969.25133	0.00634
5967.32265	0.00635
5965.39398	0.00636
5963.46530	0.00637
5961.53663	0.00638
5959.60795	0.00639
5957.67928	0.00641
5955.75060	0.00642
5953.82192	0.00642
5951.89325	0.00643
5949.96457	0.00644
5948.03590	0.00646
5946.10722	0.00649
5944.17855	0.00651
5942.24987	0.00652
5940.32119	0.00652
5938.39252	0.00653
5936.46384	0.00654
5934.53517	0.00655
5932.60649	0.00658
5930.67782	0.00661
5928.74914	0.00663
5926.82046	0.00664
5924.89179	0.00663
5922.96311	0.00664
5921.03444	0.00664
5919.10576	0.00664
5917.17709	0.00664
5915.24841	0.00665
5913.31973	0.00667
5911.39106	0.00670
5909.46238	0.00673
5907.53371	0.00674
5905.60503	0.00675
5903.67636	0.00676
5901.74768	0.00679
5899.81900	0.00681
5897.89033	0.00682
5895.96165	0.00682
5894.03298	0.00683
5892.10430	0.00685
5890.17563	0.00686
5888.24695	0.00688
5886.31827	0.00691
5884.38960	0.00692
5882.46092	0.00693
5880.53225	0.00695
5878.60357	0.00698
5876.67490	0.00701
5874.74622	0.00703
5872.81755	0.00704
5870.88887	0.00705
5868.96019	0.00705
5867.03152	0.00704
5865.10284	0.00706
5863.17417	0.00708
5861.24549	0.00709
5859.31682	0.00709
5857.38814	0.00711
5855.45946	0.00715
5853.53079	0.00717
5851.60211	0.00717
5849.67344	0.00717
5847.74476	0.00718
5845.81609	0.00719
5843.88741	0.00721
5841.95873	0.00722
5840.03006	0.00724
5838.10138	0.00725
5836.17271	0.00726
5834.24403	0.00728
5832.31536	0.00731
5830.38668	0.00733
5828.45800	0.00734
5826.52933	0.00735
5824.60065	0.00737
5822.67198	0.00739
5820.74330	0.00740
5818.81463	0.00742
5816.88595	0.00742
5814.95727	0.00742
5813.02860	0.00744
5811.09992	0.00746
5809.17125	0.00748
5807.24257	0.00750
5805.31390	0.00752
5803.38522	0.00753
5801.45654	0.00754
5799.52787	0.00755
5797.59919	0.00756
5795.67052	0.00758
5793.74184	0.00761
5791.81317	0.00764
5789.88449	0.00766
5787.95581	0.00767
5786.02714	0.00768
5784.09846	0.00770
5782.16979	0.00771
5780.24111	0.00774
5778.31244	0.00775
5776.38376	0.00775
5774.45508	0.00774
5772.52641	0.00777
5770.59773	0.00779
5768.66906	0.00779
5766.74038	0.00781
5764.81171	0.00785
5762.88303	0.00789
5760.95435	0.00790
5759.02568	0.00791
5757.09700	0.00793
5755.16833	0.00794
5753.23965	0.00794
5751.31098	0.00794
5749.38230	0.00794
5747.45362	0.00796
5745.52495	0.00798
5743.59627	0.00800
5741.66760	0.00802
5739.73892	0.00806
5737.81025	0.00810
5735.88157	0.00812
5733.95289	0.00811
5732.02422	0.00811
5730.09554	0.00812
5728.16687	0.00814
5726.23819	0.00817
5724.30952	0.00818
5722.38084	0.00818
5720.45216	0.00821
5718.52349	0.00823
5716.59481	0.00823
5714.66614	0.00825
5712.73746	0.00828
5710.80879	0.00829
5708.88011	0.00829
5706.95143	0.00829
5705.02276	0.00831
5703.09408	0.00834
5701.16541	0.00839
5699.23673	0.00841
5697.30806	0.00842
5695.37938	0.00844
5693.45070	0.00846
5691.52203	0.00850
5689.59335	0.00851
5687.66468	0.00852
5685.73600	0.00853
5683.80733	0.00854
5681.87865	0.00854
5679.94997	0.00854
5678.02130	0.00856
5676.09262	0.00860
5674.16395	0.00863
5672.23527	0.00864
5670.30660	0.00866
5668.37792	0.00869
5666.44924	0.00871
5664.52057	0.00873
5662.59189	0.00874
5660.66322	0.00876
5658.73454	0.00878
5656.80587	0.00881
5654.87719	0.00883
5652.94851	0.00884
5651.01984	0.00884
5649.09116	0.00882
5647.16249	0.00883
5645.23381	0.00887
5643.30514	0.00890
5641.37646	0.00893
5639.44778	0.00897
5637.51911	0.00899
5635.59043	0.00900
5633.66176	0.00901
5631.73308	0.00903
5629.80441	0.00904
5627.87573	0.00905
5625.94705	0.00905
5624.01838	0.00907
5622.08970	0.00911
5620.16103	0.00915
5618.23235	0.00915
5616.30368	0.00915
5614.37500	0.00917
5612.44632	0.00919
5610.51765	0.00920
5608.58897	0.00922
5606.66030	0.00923
5604.73162	0.00924
5602.80295	0.00926
5600.87427	0.00927
5598.94559	0.00929
5597.01692	0.00931
5595.08824	0.00934
5593.15957	0.00937
5591.23089	0.00940
5589.30222	0.00941
5587.37354	0.00942
5585.44486	0.00945
5583.51619	0.00946
5581.58751	0.00947
5579.65884	0.00950
5577.73016	0.00953
5575.80149	0.00955
5573.87281	0.00957
5571.94413	0.00959
5570.01546	0.00962
5568.08678	0.00963
5566.15811	0.00964
5564.22943	0.00964
5562.30076	0.00966
5560.37208	0.00968
5558.44340	0.00971
5556.51473	0.00972
5554.58605	0.00974
5552.65738	0.00976
5550.72870	0.00978
5548.80003	0.00979
5546.87135	0.00981
5544.94267	0.00983
5543.01400	0.00985
5541.08532	0.00985
5539.15665	0.00986
5537.22797	0.00987
5535.29930	0.00990
5533.37062	0.00994
5531.44194	0.00997
5529.51327	0.00997
5527.58459	0.00996
5525.65592	0.00996
5523.72724	0.00997
5521.79857	0.00999
5519.86989	0.01002
5517.94121	0.01007
5516.01254	0.01012
5514.08386	0.01016
5512.15519	0.01018
5510.22651	0.01018
5508.29784	0.01019
5506.36916	0.01020
5504.44048	0.01023
5502.51181	0.01026
5500.58313	0.01028
5498.65446	0.01029
5496.72578	0.01029
5494.79711	0.01031
5492.86843	0.01032
5490.93975	0.01035
5489.01108	0.01037
5487.08240	0.01037
5485.15373	0.01039
5483.22505	0.01042
5481.29638	0.01046
5479.36770	0.01049
5477.43902	0.01051
5475.51035	0.01051
5473.58167	0.01053
5471.65300	0.01055
5469.72432	0.01056
5467.79565	0.01058
5465.86697	0.01062
5463.93829	0.01064
5462.00962	0.01065
5460.08094	0.01067
5458.15227	0.01071
5456.22359	0.01074
5454.29492	0.01075
5452.36624	0.01076
5450.43756	0.01078
5448.50889	0.01079
5446.58021	0.01082
5444.65154	0.01085
5442.72286	0.01087
5440.79419	0.01089
5438.86551	0.01091
5436.93683	0.01093
5435.00816	0.01093
5433.07948	0.01094
5431.15081	0.01098
5429.22213	0.01101
5427.29346	0.01104
5425.36478	0.01105
5423.43610	0.01107
5421.50743	0.01109
5419.57875	0.01112
5417.65008	0.01114
5415.72140	0.01115
5413.79273	0.01116
5411.86405	0.01119
5409.93537	0.01121
5408.00670	0.01125
5406.07802	0.01128
5404.14935	0.01131
5402.22067	0.01131
5400.29200	0.01133
5398.36332	0.01135
5396.43464	0.01137
5394.50597	0.01138
5392.57729	0.01140
5390.64862	0.01143
5388.71994	0.01144
5386.79127	0.01146
5384.86259	0.01148
5382.93391	0.01150
5381.00524	0.01151
5379.07656	0.01154
5377.14789	0.01157
5375.21921	0.01160
5373.29054	0.01163
5371.36186	0.01165
5369.43318	0.01166
5367.50451	0.01168
5365.57583	0.01170
5363.64716	0.01171
5361.71848	0.01172
5359.78981	0.01174
5357.86113	0.01176
5355.93245	0.01179
5354.00378	0.01182
5352.07510	0.01185
5350.14643	0.01189
5348.21775	0.01190
5346.28908	0.01189
5344.36040	0.01188
5342.43172	0.01191
5340.50305	0.01194
5338.57437	0.01196
5336.64570	0.01199
5334.71702	0.01204
5332.78835	0.01209
5330.85967	0.01211
5328.93099	0.01213
5327.00232	0.01214
5325.07364	0.01217
5323.14497	0.01219
5321.21629	0.01221
5319.28762	0.01223
5317.35894	0.01225
5315.43026	0.01228
5313.50159	0.01230
5311.57291	0.01231
5309.64424	0.01232
5307.71556	0.01235
5305.78689	0.01240
5303.85821	0.01241
5301.92953	0.01240
5300.00086	0.01240
5298.07218	0.01243
5296.14351	0.01245
5294.21483	0.01249
5292.28616	0.01253
5290.35748	0.01255
5288.42880	0.01256
5286.50013	0.01256
5284.57145	0.01258
5282.64278	0.01262
5280.71410	0.01266
5278.78543	0.01267
5276.85675	0.01268
5274.92807	0.01271
5272.99940	0.01276
5271.07072	0.01281
5269.14205	0.01282
5267.21337	0.01280
5265.28470	0.01280
5263.35602	0.01281
5261.42734	0.01284
5259.49867	0.01287
5257.56999	0.01290
5255.64132	0.01293
5253.71264	0.01297
5251.78397	0.01300
5249.85529	0.01301
5247.92661	0.01301
5245.99794	0.01302
5244.06926	0.01306
5242.14059	0.01311
5240.21191	0.01313
5238.28324	0.01314
5236.35456	0.01315
5234.42588	0.01317
5232.49721	0.01320
5230.56853	0.01323
5228.63986	0.01327
5226.71118	0.01329
5224.78251	0.01331
5222.85383	0.01335
5220.92515	0.01340
5218.99648	0.01340
5217.06780	0.01339
5215.13913	0.01338
5213.21045	0.01342
5211.28178	0.01345
5209.35310	0.01346
5207.42442	0.01347
5205.49575	0.01351
5203.56707	0.01356
5201.63840	0.01359
5199.70972	0.01361
5197.78105	0.01365
5195.85237	0.01367
5193.92369	0.01368
5191.99502	0.01369
5190.06634	0.01371
5188.13767	0.01372
5186.20899	0.01374
5184.28032	0.01378
5182.35164	0.01381
5180.42296	0.01383
5178.49429	0.01386
5176.56561	0.01391
5174.63694	0.01394
5172.70826	0.01396
5170.77959	0.01398
5168.85091	0.01400
5166.92223	0.01403
5164.99356	0.01404
5163.06488	0.01405
5161.13621	0.01407
5159.20753	0.01410
5157.27886	0.01413
5155.35018	0.01416
5153.42150	0.01418
5151.49283	0.01418
5149.56415	0.01418
5147.63548	0.01420
5145.70680	0.01425
5143.77813	0.01430
5141.84945	0.01433
5139.92077	0.01435
5137.99210	0.01437
5136.06342	0.01440
5134.13475	0.01442
5132.20607	0.01444
5130.27740	0.01447
5128.34872	0.01451
5126.42004	0.01455
5124.49137	0.01455
5122.56269	0.01457
5120.63402	0.01459
5118.70534	0.01462
5116.77667	0.01465
5114.84799	0.01469
5112.91931	0.01471
5110.99064	0.01471
5109.06196	0.01473
5107.13329	0.01476
5105.20461	0.01478
5103.27594	0.01481
5101.34726	0.01485
5099.41858	0.01488
5097.48991	0.01489
5095.56123	0.01491
5093.63256	0.01494
5091.70388	0.01497
5089.77521	0.01500
5087.84653	0.01503
5085.91785	0.01505
5083.98918	0.01506
5082.06050	0.01509
5080.13183	0.01512
5078.20315	0.01515
5076.27448	0.01516
5074.34580	0.01519
5072.41712	0.01523
5070.48845	0.01525
5068.55977	0.01528
5066.63110	0.01531
5064.70242	0.01533
5062.77375	0.01534
5060.84507	0.01536
5058.91639	0.01538
5056.98772	0.01540
5055.05904	0.01544
5053.13037	0.01547
5051.20169	0.01551
5049.27302	0.01555
5047.34434	0.01558
5045.41566	0.01561
5043.48699	0.01562
5041.55831	0.01563
5039.62964	0.01565
5037.70096	0.01566
5035.77229	0.01569
5033.84361	0.01572
5031.91493	0.01575
5029.98626	0.01577
5028.05758	0.01579
5026.12891	0.01583
5024.20023	0.01586
5022.27156	0.01590
5020.34288	0.01593
5018.41420	0.01595
5016.48553	0.01598
5014.55685	0.01600
5012.62818	0.01602
5010.69950	0.01605
5008.77083	0.01608
5006.84215	0.01611
5004.91347	0.01613
5002.98480	0.01616
5001.05612	0.01618
4999.12745	0.01620
4997.19877	0.01623
4995.27010	0.01625
4993.34142	0.01627
4991.41274	0.01631
4989.48407	0.01634
4987.55539	0.01637
4985.62672	0.01640
4983.69804	0.01644
4981.76937	0.01648
4979.84069	0.01649
4977.91201	0.01651
4975.98334	0.01653
4974.05466	0.01654
4972.12599	0.01655
4970.19731	0.01659
4968.26864	0.01663
4966.33996	0.01665
4964.41128	0.01667
4962.48261	0.01669
4960.55393	0.01672
4958.62526	0.01675
4956.69658	0.01679
4954.76791	0.01683
4952.83923	0.01686
4950.91055	0.01687
4948.98188	0.01691
4947.05320	0.01696
4945.12453	0.01699
4943.19585	0.01700
4941.26718	0.01702
4939.33850	0.01706
4937.40982	0.01710
4935.48115	0.01713
4933.55247	0.01714
4931.62380	0.01714
4929.69512	0.01714
4927.76645	0.01714
4925.83777	0.01716
4923.90909	0.01720
4921.98042	0.01724
4920.05174	0.01726
4918.12307	0.01729
4916.19439	0.01733
4914.26572	0.01737
4912.33704	0.01741
4910.40836	0.01745
4908.47969	0.01747
4906.55101	0.01749
4904.62234	0.01750
4902.69366	0.01752
4900.76499	0.01756
4898.83631	0.01761
4896.90763	0.01764
4894.97896	0.01767
4893.05028	0.01770
4891.12161	0.01773
4889.19293	0.01774
4887.26426	0.01775
4885.33558	0.01778
4883.40690	0.01781
4881.47823	0.01784
4879.54955	0.01789
4877.62088	0.01793
4875.69220	0.01796
4873.76353	0.01799
4871.83485	0.01802
4869.90617	0.01805
4867.97750	0.01807
4866.04882	0.01808
4864.12015	0.01810
4862.19147	0.01813
4860.26280	0.01817
4858.33412	0.01820
4856.40544	0.01822
4854.47677	0.01825
4852.54809	0.01828
4850.61942	0.01830
4848.69074	0.01833
4846.76207	0.01836
4844.83339	0.01838
4842.90471	0.01841
4840.97604	0.01844
4839.04736	0.01848
4837.11869	0.01853
4835.19001	0.01858
4833.26134	0.01860
4831.33266	0.01861
4829.40398	0.01861
4827.47531	0.01865
4825.54663	0.01870
4823.61796	0.01875
4821.68928	0.01878
4819.76061	0.01880
4817.83193	0.01881
4815.90325	0.01884
4813.97458	0.01887
4812.04590	0.01889
4810.11723	0.01891
4808.18855	0.01895
4806.25988	0.01901
4804.33120	0.01903
4802.40252	0.01903
4800.47385	0.01903
4798.54517	0.01907
4796.61650	0.01913
4794.68782	0.01918
4792.75915	0.01920
4790.83047	0.01923
4788.90179	0.01926
4786.97312	0.01930
4785.04444	0.01934
4783.11577	0.01936
4781.18709	0.01938
4779.25842	0.01941
4777.32974	0.01944
4775.40106	0.01947
4773.47239	0.01950
4771.54371	0.01954
4769.61504	0.01958
4767.68636	0.01962
4765.75769	0.01965
4763.82901	0.01968
4761.90033	0.01971
4759.97166	0.01976
4758.04298	0.01978
4756.11431	0.01979
4754.18563	0.01980
4752.25696	0.01984
4750.32828	0.01989
4748.39960	0.01994
4746.47093	0.01997
4744.54225	0.02000
4742.61358	0.02003
4740.68490	0.02006
4738.75623	0.02008
4736.82755	0.02011
4734.89887	0.02014
4732.97020	0.02016
4731.04152	0.02018
4729.11285	0.02022
4727.18417	0.02028
4725.25550	0.02033
4723.32682	0.02036
4721.39814	0.02040
4719.46947	0.02044
4717.54079	0.02047
4715.61212	0.02050
4713.68344	0.02055
4711.75477	0.02060
4709.82609	0.02062
4707.89741	0.02061
4705.96874	0.02062
4704.04006	0.02065
4702.11139	0.02069
4700.18271	0.02074
4698.25404	0.02076
4696.32536	0.02079
4694.39668	0.02083
4692.46801	0.02088
4690.53933	0.02092
4688.61066	0.02096
4686.68198	0.02097
4684.75331	0.02098
4682.82463	0.02100
4680.89595	0.02105
4678.96728	0.02110
4677.03860	0.02114
4675.10993	0.02117
4673.18125	0.02120
4671.25258	0.02124
4669.32390	0.02128
4667.39522	0.02133
4665.46655	0.02137
4663.53787	0.02139
4661.60920	0.02140
4659.68052	0.02143
4657.75185	0.02146
4655.82317	0.02149
4653.89449	0.02153
4651.96582	0.02157
4650.03714	0.02162
4648.10847	0.02166
4646.17979	0.02168
4644.25112	0.02169
4642.32244	0.02172
4640.39376	0.02178
4638.46509	0.02181
4636.53641	0.02183
4634.60774	0.02187
4632.67906	0.02192
4630.75039	0.02196
4628.82171	0.02200
4626.89303	0.02203
4624.96436	0.02205
4623.03568	0.02206
4621.10701	0.02209
4619.17833	0.02215
4617.24966	0.02222
4615.32098	0.02226
4613.39230	0.02228
4611.46363	0.02231
4609.53495	0.02235
4607.60628	0.02239
4605.67760	0.02244
4603.74893	0.02247
4601.82025	0.02250
4599.89157	0.02253
4597.96290	0.02258
4596.03422	0.02262
4594.10555	0.02266
4592.17687	0.02270
4590.24820	0.02274
4588.31952	0.02277
4586.39084	0.02278
4584.46217	0.02279
4582.53349	0.02283
4580.60482	0.02290
4578.67614	0.02297
4576.74747	0.02301
4574.81879	0.02303
4572.89011	0.02308
4570.96144	0.02312
4569.03276	0.02313
4567.10409	0.02315
4565.17541	0.02318
4563.24674	0.02322
4561.31806	0.02326
4559.38938	0.02330
4557.46071	0.02336
4555.53203	0.02341
4553.60336	0.02346
4551.67468	0.02349
4549.74601	0.02352
4547.81733	0.02356
4545.88865	0.02360
4543.95998	0.02364
4542.03130	0.02367
4540.10263	0.02372
4538.17395	0.02377
4536.24528	0.02380
4534.31660	0.02382
4532.38792	0.02386
4530.45925	0.02391
4528.53057	0.02395
4526.60190	0.02397
4524.67322	0.02400
4522.74455	0.02405
4520.81587	0.02410
4518.88719	0.02413
4516.95852	0.02417
4515.02984	0.02421
4513.10117	0.02427
4511.17249	0.02435
4509.24382	0.02443
4507.31514	0.02447
4505.38646	0.02449
4503.45779	0.02450
4501.52911	0.02453
4499.60044	0.02456
4497.67176	0.02459
4495.74309	0.02462
4493.81441	0.02465
4491.88573	0.02470
4489.95706	0.02475
4488.02838	0.02480
4486.09971	0.02483
4484.17103	0.02487
4482.24236	0.02491
4480.31368	0.02496
4478.38500	0.02501
4476.45633	0.02505
4474.52765	0.02509
4472.59898	0.02514
4470.67030	0.02520
4468.74163	0.02524
4466.81295	0.02528
4464.88427	0.02531
4462.95560	0.02535
4461.02692	0.02541
4459.09825	0.02546
4457.16957	0.02548
4455.24090	0.02550
4453.31222	0.02555
4451.38354	0.02561
4449.45487	0.02565
4447.52619	0.02567
4445.59752	0.02570
4443.66884	0.02577
4441.74017	0.02584
4439.81149	0.02590
4437.88281	0.02596
4435.95414	0.02601
4434.02546	0.02604
4432.09679	0.02609
4430.16811	0.02614
4428.23944	0.02617
4426.31076	0.02619
4424.38208	0.02621
4422.45341	0.02625
4420.52473	0.02629
4418.59606	0.02634
4416.66738	0.02638
4414.73871	0.02643
4412.81003	0.02649
4410.88135	0.02655
4408.95268	0.02660
4407.02400	0.02664
4405.09533	0.02668
4403.16665	0.02673
4401.23798	0.02677
4399.30930	0.02681
4397.38062	0.02687
4395.45195	0.02692
4393.52327	0.02696
4391.59460	0.02698
4389.66592	0.02701
4387.73725	0.02706
4385.80857	0.02714
4383.87989	0.02720
4381.95122	0.02723
4380.02254	0.02728
4378.09387	0.02734
4376.16519	0.02740
4374.23652	0.02746
4372.30784	0.02749
4370.37916	0.02752
4368.45049	0.02756
4366.52181	0.02763
4364.59314	0.02767
4362.66446	0.02770
4360.73579	0.02774
4358.80711	0.02779
4356.87843	0.02785
4354.94976	0.02793
4353.02108	0.02799
4351.09241	0.02803
4349.16373	0.02808
4347.23506	0.02814
4345.30638	0.02818
4343.37770	0.02819
4341.44903	0.02823
4339.52035	0.02829
4337.59168	0.02836
4335.66300	0.02842
4333.73433	0.02847
4331.80565	0.02851
4329.87697	0.02857
4327.94830	0.02862
4326.01962	0.02867
4324.09095	0.02873
4322.16227	0.02880
4320.23360	0.02885
4318.30492	0.02890
4316.37624	0.02895
4314.44757	0.02899
4312.51889	0.02903
4310.59022	0.02907
4308.66154	0.02911
4306.73287	0.02918
4304.80419	0.02926
4302.87551	0.02932
4300.94684	0.02937
4299.01816	0.02943
4297.08949	0.02947
4295.16081	0.02950
4293.23214	0.02954
4291.30346	0.02959
4289.37478	0.02964
4287.44611	0.02972
4285.51743	0.02980
4283.58876	0.02987
4281.66008	0.02993
4279.73141	0.02996
4277.80273	0.02998
4275.87405	0.03002
4273.94538	0.03009
4272.01670	0.03014
4270.08803	0.03017
4268.15935	0.03022
4266.23068	0.03030
4264.30200	0.03037
4262.37332	0.03044
4260.44465	0.03049
4258.51597	0.03053
4256.58730	0.03059
4254.65862	0.03065
4252.72995	0.03071
4250.80127	0.03076
4248.87259	0.03081
4246.94392	0.03088
4245.01524	0.03093
4243.08657	0.03099
4241.15789	0.03105
4239.22922	0.03110
4237.30054	0.03116
4235.37186	0.03122
4233.44319	0.03129
4231.51451	0.03135
4229.58584	0.03141
4227.65716	0.03146
4225.72849	0.03150
4223.79981	0.03152
4221.87113	0.03156
4219.94246	0.03162
4218.01378	0.03167
4216.08511	0.03173
4214.15643	0.03182
4212.22776	0.03191
4210.29908	0.03196
4208.37040	0.03200
4206.44173	0.03205
4204.51305	0.03212
4202.58438	0.03216
4200.65570	0.03220
4198.72703	0.03226
4196.79835	0.03232
4194.86968	0.03239
4192.94100	0.03248
4191.01232	0.03256
4189.08365	0.03262
4187.15497	0.03266
4185.22630	0.03272
4183.29762	0.03279
4181.36895	0.03286
4179.44027	0.03292
4177.51159	0.03296
4175.58292	0.03301
4173.65424	0.03308
4171.72557	0.03316
4169.79689	0.03320
4167.86822	0.03323
4165.93954	0.03327
4164.01086	0.03333
4162.08219	0.03341
4160.15351	0.03349
4158.22484	0.03356
4156.29616	0.03361
4154.36749	0.03366
4152.43881	0.03373
4150.51013	0.03385
4148.58146	0.03394
4146.65278	0.03396
4144.72411	0.03399
4142.79543	0.03407
4140.86676	0.03415
4138.93808	0.03420
4137.00940	0.03423
4135.08073	0.03426
4133.15205	0.03432
4131.22338	0.03442
4129.29470	0.03452
4127.36603	0.03461
4125.43735	0.03469
4123.50867	0.03476
4121.58000	0.03480
4119.65132	0.03485
4117.72265	0.03490
4115.79397	0.03495
4113.86530	0.03501
4111.93662	0.03510
4110.00794	0.03518
4108.07927	0.03523
4106.15059	0.03528
4104.22192	0.03533
4102.29324	0.03540
4100.36457	0.03548
4098.43589	0.03556
4096.50721	0.03563
4094.57854	0.03571
4092.64986	0.03577
4090.72119	0.03583
4088.79251	0.03589
4086.86384	0.03596
4084.93516	0.03602
4083.00648	0.03611
4081.07781	0.03619
4079.14913	0.03625
4077.22046	0.03630
4075.29178	0.03635
4073.36311	0.03641
4071.43443	0.03648
4069.50575	0.03655
4067.57708	0.03662
4065.64840	0.03670
4063.71973	0.03679
4061.79105	0.03688
4059.86238	0.03694
4057.93370	0.03699
4056.00502	0.03705
4054.07635	0.03712
4052.14767	0.03720
4050.21900	0.03728
4048.29032	0.03736
4046.36165	0.03744
4044.43297	0.03751
4042.50429	0.03758
4040.57562	0.03765
4038.64694	0.03770
4036.71827	0.03775
4034.78959	0.03782
4032.86092	0.03790
4030.93224	0.03798
4029.00356	0.03806
4027.07489	0.03812
4025.14621	0.03819
4023.21754	0.03827
4021.28886	0.03834
4019.36019	0.03840
4017.43151	0.03847
4015.50283	0.03854
4013.57416	0.03861
4011.64548	0.03867
4009.71681	0.03873
4007.78813	0.03879
4005.85946	0.03886
4003.93078	0.03895
4002.00210	0.03904
4000.07343	0.03913
3998.14475	0.03919
3996.21608	0.03924
3994.28740	0.03931
3992.35873	0.03938
3990.43005	0.03946
3988.50137	0.03956
3986.57270	0.03965
3984.64402	0.03973
3982.71535	0.03980
3980.78667	0.03988
3978.85800	0.03994
3976.92932	0.03998
3975.00064	0.04004
3973.07197	0.04013
3971.14329	0.04023
3969.21462	0.04032
3967.28594	0.04042
3965.35727	0.04048
3963.42859	0.04053
3961.49991	0.04058
3959.57124	0.04064
3957.64256	0.04072
3955.71389	0.04081
3953.78521	0.04089
3951.85654	0.04095
3949.92786	0.04099
3947.99918	0.04106
3946.07051	0.04115
3944.14183	0.04124
3942.21316	0.04134
3940.28448	0.04145
3938.35581	0.04156
3936.42713	0.04160
3934.49845	0.04159
3932.56978	0.04162
3930.64110	0.04173
3928.71243	0.04184
3926.78375	0.04192
3924.85508	0.04198
3922.92640	0.04207
3920.99772	0.04214
3919.06905	0.04218
3917.14037	0.04225
3915.21170	0.04239
3913.28302	0.04254
3911.35435	0.04264
3909.42567	0.04270
3907.49699	0.04271
3905.56832	0.04266
3903.63964	0.04264
3901.71097	0.04271
3899.78229	0.04284
3897.85362	0.04301
3895.92494	0.04317
3893.99626	0.04323
3892.06759	0.04326
3890.13891	0.04336
3888.21024	0.04342
3886.28156	0.04342
3884.35289	0.04348
3882.42421	0.04358
3880.49553	0.04367
3878.56686	0.04382
3876.63818	0.04394
3874.70951	0.04397
3872.78083	0.04397
3870.85216	0.04398
3868.92348	0.04409
3866.99480	0.04422
3865.06613	0.04429
3863.13745	0.04436
3861.20878	0.04449
3859.28010	0.04461
3857.35143	0.04458
3855.42275	0.04440
3853.49407	0.04438
3851.56540	0.04471
3849.63672	0.04508
3847.70805	0.04528
3845.77937	0.04533
3843.85070	0.04532
3841.92202	0.04531
3839.99334	0.04533
3838.06467	0.04540
3836.13599	0.04553
3834.20732	0.04566
3832.27864	0.04578
3830.34997	0.04593
3828.42129	0.04607
3826.49261	0.04615
3824.56394	0.04617
3822.63526	0.04614
3820.70659	0.04620
3818.77791	0.04634
3816.84924	0.04645
3814.92056	0.04661
3812.99188	0.04682
3811.06321	0.04696
3809.13453	0.04696
3807.20586	0.04694
3805.27718	0.04698
3803.34851	0.04702
3801.41983	0.04707
3799.49115	0.04723
3797.56248	0.04740
3795.63380	0.04753
3793.70513	0.04767
3791.77645	0.04779
3789.84778	0.04788
3787.91910	0.04797
3785.99042	0.04803
3784.06175	0.04808
3782.13307	0.04814
3780.20440	0.04819
3778.27572	0.04830
3776.34705	0.04844
3774.41837	0.04854
3772.48969	0.04854
3770.56102	0.04855
3768.63234	0.04866
3766.70367	0.04881
3764.77499	0.04894
3762.84632	0.04904
3760.91764	0.04909
3758.98896	0.04913
3757.06029	0.04920
3755.13161	0.04920
3753.20294	0.04911
3751.27426	0.04907
3749.34559	0.04920
3747.41691	0.04929
3745.48823	0.04926
3743.55956	0.04941
3741.63088	0.04975
3739.70221	0.04991
3737.77353	0.04984
3735.84486	0.04981
3733.91618	0.04996
3731.98750	0.05018
3730.05883	0.05037
3728.13015	0.05049
3726.20148	0.05059
3724.27280	0.05069
3722.34413	0.05080
3720.41545	0.05094
3718.48677	0.05107
3716.55810	0.05115
3714.62942	0.05115
3712.70075	0.05112
3710.77207	0.05118
3708.84340	0.05137
3706.91472	0.05159
3704.98604	0.05169
3703.05737	0.05170
3701.12869	0.05175
3699.20002	0.05190
3697.27134	0.05205
3695.34267	0.05215
3693.41399	0.05219
3691.48531	0.05217
3689.55664	0.05218
3687.62796	0.05230
3685.69929	0.05251
3683.77061	0.05266
3681.84194	0.05274
3679.91326	0.05276
3677.98458	0.05268
3676.05591	0.05262
3674.12723	0.05274
3672.19856	0.05291
3670.26988	0.05301
3668.34121	0.05320
3666.41253	0.05344
3664.48385	0.05359
3662.55518	0.05366
3660.62650	0.05370
3658.69783	0.05371
3656.76915	0.05371
3654.84048	0.05379
3652.91180	0.05380
3650.98312	0.05366
3649.05445	0.05358
3647.12577	0.05373
3645.19710	0.05404
3643.26842	0.05430
3641.33975	0.05447
3639.41107	0.05457
3637.48239	0.05463
3635.55372	0.05468
3633.62504	0.05470
3631.69637	0.05462
3629.76769	0.05453
3627.83902	0.05466
3625.91034	0.05493
3623.98166	0.05510
3622.05299	0.05511
3620.12431	0.05508
3618.19564	0.05514
3616.26696	0.05524
3614.33829	0.05529
3612.40961	0.05531
3610.48093	0.05536
3608.55226	0.05547
3606.62358	0.05564
3604.69491	0.05578
3602.76623	0.05585
3600.83756	0.05591
3598.90888	0.05600
3596.98020	0.05605
3595.05153	0.05608
3593.12285	0.05614
3591.19418	0.05617
3589.26550	0.05612
3587.33683	0.05613
3585.40815	0.05630
3583.47947	0.05651
3581.55080	0.05664
3579.62212	0.05673
3577.69345	0.05681
3575.76477	0.05690
3573.83610	0.05698
3571.90742	0.05704
3569.97874	0.05701
3568.05007	0.05694
3566.12139	0.05699
3564.19272	0.05717
3562.26404	0.05735
3560.33537	0.05748
3558.40669	0.05759
3556.47801	0.05767
3554.54934	0.05771
3552.62066	0.05774
3550.69199	0.05778
3548.76331	0.05780
3546.83464	0.05783
3544.90596	0.05793
3542.97728	0.05808
3541.04861	0.05819
3539.11993	0.05826
3537.19126	0.05829
3535.26258	0.05833
3533.33391	0.05836
3531.40523	0.05838
3529.47655	0.05842
3527.54788	0.05845
3525.61920	0.05848
3523.69053	0.05852
3521.76185	0.05858
3519.83318	0.05864
3517.90450	0.05870
3515.97582	0.05876
3514.04715	0.05878
3512.11847	0.05877
3510.18980	0.05879
3508.26112	0.05886
3506.33245	0.05892
3504.40377	0.05894
3502.47509	0.05896
3500.54642	0.05900
3498.61774	0.05904
3496.68907	0.05908
3494.76039	0.05910
3492.83172	0.05910
3490.90304	0.05910
3488.97436	0.05912
3487.04569	0.05916
3485.11701	0.05919
3483.18834	0.05921
3481.25966	0.05927
3479.33099	0.05936
3477.40231	0.05944
3475.47363	0.05952
3473.54496	0.05958
3471.61628	0.05965
3469.68761	0.05975
3467.75893	0.05983
3465.83026	0.05989
3463.90158	0.05999
3461.97290	0.06013
3460.04423	0.06026
3458.11555	0.06038
3456.18688	0.06050
3454.25820	0.06060
3452.32953	0.06067
3450.40085	0.06070
3448.47217	0.06073
3446.54350	0.06079
3444.61482	0.06089
3442.68615	0.06102
3440.75747	0.06116
3438.82880	0.06132
3436.90012	0.06149
3434.97144	0.06167
3433.04277	0.06186
3431.11409	0.06206
3429.18542	0.06225
3427.25674	0.06242
3425.32807	0.06258
3423.39939	0.06278
3421.47071	0.06301
3419.54204	0.06322
3417.61336	0.06336
3415.68469	0.06349
3413.75601	0.06364
3411.82734	0.06378
3409.89866	0.06389
3407.96998	0.06401
3406.04131	0.06416
3404.11263	0.06429
3402.18396	0.06441
3400.25528	0.06453
3398.32661	0.06467
3396.39793	0.06482
3394.46925	0.06497
3392.54058	0.06512
3390.61190	0.06527
3388.68323	0.06538
3386.75455	0.06547
3384.82588	0.06560
3382.89720	0.06576
3380.96852	0.06591
3379.03985	0.06604
3377.11117	0.06618
3375.18250	0.06629
3373.25382	0.06639
3371.32515	0.06650
3369.39647	0.06662
3367.46779	0.06673
3365.53912	0.06685
3363.61044	0.06698
3361.68177	0.06711
3359.75309	0.06722
3357.82442	0.06732
3355.89574	0.06743
3353.96706	0.06757
3352.03839	0.06771
3350.10971	0.06783
3348.18104	0.06794
3346.25236	0.06806
3344.32369	0.06819
3342.39501	0.06831
3340.46633	0.06844
3338.53766	0.06855
3336.60898	0.06865
3334.68031	0.06877
3332.75163	0.06889
3330.82296	0.06902
3328.89428	0.06914
3326.96560	0.06926
3325.03693	0.06937
3323.10825	0.06950
3321.17958	0.06963
3319.25090	0.06977
3317.32223	0.06989
3315.39355	0.07001
3313.46487	0.07012
3311.53620	0.07024
3309.60752	0.07038
3307.67885	0.07051
3305.75017	0.07064
3303.82150	0.07075
3301.89282	0.07088
3299.96414	0.07103
3298.03547	0.07118
3296.10679	0.07130
3294.17812	0.07141
3292.24944	0.07154
3290.32077	0.07167
3288.39209	0.07178
3286.46341	0.07190
3284.53474	0.07205
3282.60606	0.07221
3280.67739	0.07236
3278.74871	0.07250
3276.82004	0.07260
3274.89136	0.07270
3272.96268	0.07280
3271.03401	0.07293
3269.10533	0.07308
3267.17666	0.07324
3265.24798	0.07338
3263.31931	0.07352
3261.39063	0.07366
3259.46195	0.07377
3257.53328	0.07389
3255.60460	0.07403
3253.67593	0.07418
3251.74725	0.07430
3249.81858	0.07441
3247.88990	0.07453
3245.96122	0.07468
3244.03255	0.07483
3242.10387	0.07494
3240.17520	0.07504
3238.24652	0.07516
3236.31785	0.07530
3234.38917	0.07542
3232.46049	0.07555
3230.53182	0.07571
3228.60314	0.07589
3226.67447	0.07606
3224.74579	0.07620
3222.81712	0.07632
3220.88844	0.07642
3218.95976	0.07650
3217.03109	0.07662
3215.10241	0.07678
3213.17374	0.07691
3211.24506	0.07702
3209.31639	0.07715
3207.38771	0.07729
3205.45903	0.07743
3203.53036	0.07756
3201.60168	0.07769
3199.67301	0.07782
3197.74433	0.07798
3195.81566	0.07813
3193.88698	0.07828
3191.95830	0.07844
3190.02963	0.07859
3188.10095	0.07870
3186.17228	0.07882
3184.24360	0.07896
3182.31493	0.07910
3180.38625	0.07923
3178.45757	0.07939
3176.52890	0.07958
3174.60022	0.07975
3172.67155	0.07987
3170.74287	0.07997
3168.81420	0.08008
3166.88552	0.08021
3164.95684	0.08035
3163.02817	0.08048
3161.09949	0.08061
3159.17082	0.08078
3157.24214	0.08096
3155.31347	0.08112
3153.38479	0.08126
3151.45611	0.08140
3149.52744	0.08153
3147.59876	0.08164
3145.67009	0.08175
3143.74141	0.08190
3141.81274	0.08206
3139.88406	0.08221
3137.95538	0.08233
3136.02671	0.08243
3134.09803	0.08254
3132.16936	0.08269
3130.24068	0.08286
3128.31201	0.08304
3126.38333	0.08318
3124.45465	0.08327
3122.52598	0.08338
3120.59730	0.08351
3118.66863	0.08362
3116.73995	0.08374
3114.81128	0.08388
3112.88260	0.08403
3110.95392	0.08416
3109.02525	0.08429
3107.09657	0.08444
3105.16790	0.08460
3103.23922	0.08474
3101.31055	0.08485
3099.38187	0.08497
3097.45319	0.08512
3095.52452	0.08528
3093.59584	0.08541
3091.66717	0.08555
3089.73849	0.08571
3087.80982	0.08588
3085.88114	0.08603
3083.95246	0.08616
3082.02379	0.08629
3080.09511	0.08643
3078.16644	0.08656
3076.23776	0.08669
3074.30909	0.08683
3072.38041	0.08696
3070.45173	0.08706
3068.52306	0.08716
3066.59438	0.08728
3064.66571	0.08745
3062.73703	0.08763
3060.80836	0.08778
3058.87968	0.08789
3056.95100	0.08800
3055.02233	0.08815
3053.09365	0.08830
3051.16498	0.08845
3049.23630	0.08859
3047.30763	0.08872
3045.37895	0.08884
3043.45027	0.08897
3041.52160	0.08914
3039.59292	0.08929
3037.66425	0.08942
3035.73557	0.08954
3033.80690	0.08966
3031.87822	0.08978
3029.94954	0.08991
3028.02087	0.09005
3026.09219	0.09020
3024.16352	0.09035
3022.23484	0.09049
3020.30617	0.09062
3018.37749	0.09073
3016.44881	0.09084
3014.52014	0.09095
3012.59146	0.09108
3010.66279	0.09123
3008.73411	0.09138
3006.80544	0.09151
3004.87676	0.09165
3002.94808	0.09180
3001.01941	0.09195
2999.09073	0.09211
2997.16206	0.09222
2995.23338	0.09230
2993.30471	0.09242
2991.37603	0.09256
2989.44735	0.09267
2987.51868	0.09277
2985.59000	0.09287
2983.66133	0.09297
2981.73265	0.09304
2979.80398	0.09309
2977.87530	0.09313
2975.94662	0.09316
2974.01795	0.09319
2972.08927	0.09320
2970.16060	0.09319
2968.23192	0.09316
2966.30325	0.09316
2964.37457	0.09321
2962.44589	0.09330
2960.51722	0.09341
2958.58854	0.09354
2956.65987	0.09372
2954.73119	0.09391
2952.80252	0.09408
2950.87384	0.09424
2948.94516	0.09439
2947.01649	0.09452
2945.08781	0.09461
2943.15914	0.09466
2941.23046	0.09470
2939.30179	0.09471
2937.37311	0.09472
2935.44443	0.09471
2933.51576	0.09469
2931.58708	0.09467
2929.65841	0.09464
2927.72973	0.09462
2925.80106	0.09459
2923.87238	0.09458
2921.94370	0.09461
2920.01503	0.09470
2918.08635	0.09488
2916.15768	0.09516
2914.22900	0.09555
2912.30033	0.09600
2910.37165	0.09645
2908.44297	0.09683
2906.51430	0.09713
2904.58562	0.09739
2902.65695	0.09762
2900.72827	0.09782
2898.79960	0.09801
2896.87092	0.09818
2894.94224	0.09837
2893.01357	0.09857
2891.08489	0.09876
2889.15622	0.09893
2887.22754	0.09910
2885.29887	0.09928
2883.37019	0.09946
2881.44151	0.09963
2879.51284	0.09978
2877.58416	0.09990
2875.65549	0.10002
2873.72681	0.10013
2871.79814	0.10025
2869.86946	0.10038
2867.94078	0.10052
2866.01211	0.10065
2864.08343	0.10074
2862.15476	0.10077
2860.22608	0.10076
2858.29741	0.10075
2856.36873	0.10075
2854.44005	0.10075
2852.51138	0.10076
2850.58270	0.10086
2848.65403	0.10114
2846.72535	0.10159
2844.79668	0.10207
2842.86800	0.10245
2840.93932	0.10276
2839.01065	0.10303
2837.08197	0.10326
2835.15330	0.10346
2833.22462	0.10361
2831.29595	0.10379
2829.36727	0.10401
2827.43859	0.10423
2825.50992	0.10441
2823.58124	0.10457
2821.65257	0.10476
2819.72389	0.10494
2817.79522	0.10511
2815.86654	0.10527
2813.93786	0.10543
2812.00919	0.10557
2810.08051	0.10569
2808.15184	0.10579
2806.22316	0.10591
2804.29449	0.10607
2802.36581	0.10628
2800.43713	0.10646
2798.50846	0.10660
2796.57978	0.10673
2794.65111	0.10686
2792.72243	0.10701
2790.79376	0.10719
2788.86508	0.10735
2786.93640	0.10748
2785.00773	0.10761
2783.07905	0.10776
2781.15038	0.10793
2779.22170	0.10809
2777.29303	0.10823
2775.36435	0.10838
2773.43567	0.10851
2771.50700	0.10865
2769.57832	0.10878
2767.64965	0.10892
2765.72097	0.10908
2763.79230	0.10925
2761.86362	0.10943
2759.93494	0.10960
2758.00627	0.10974
2756.07759	0.10986
2754.14892	0.10998
2752.22024	0.11012
2750.29157	0.11027
2748.36289	0.11042
2746.43421	0.11057
2744.50554	0.11071
2742.57686	0.11084
2740.64819	0.11097
2738.71951	0.11110
2736.79084	0.11123
2734.86216	0.11137
2732.93348	0.11152
2731.00481	0.11167
2729.07613	0.11183
2727.14746	0.11199
2725.21878	0.11213
2723.29011	0.11227
2721.36143	0.11241
2719.43275	0.11254
2717.50408	0.11268
2715.57540	0.11282
2713.64673	0.11297
2711.71805	0.11313
2709.78938	0.11331
2707.86070	0.11348
2705.93202	0.11363
2704.00335	0.11376
2702.07467	0.11390
2700.14600	0.11403
2698.21732	0.11417
2696.28865	0.11429
2694.35997	0.11439
2692.43129	0.11451
2690.50262	0.11468
2688.57394	0.11484
2686.64527	0.11496
2684.71659	0.11508
2682.78792	0.11522
2680.85924	0.11538
2678.93056	0.11552
2677.00189	0.11563
2675.07321	0.11576
2673.14454	0.11591
2671.21586	0.11608
2669.28719	0.11624
2667.35851	0.11640
2665.42983	0.11655
2663.50116	0.11671
2661.57248	0.11687
2659.64381	0.11700
2657.71513	0.11710
2655.78646	0.11723
2653.85778	0.11740
2651.92910	0.11758
2650.00043	0.11773
2648.07175	0.11785
2646.14308	0.11798
2644.21440	0.11815
2642.28573	0.11832
2640.35705	0.11846
2638.42837	0.11858
2636.49970	0.11874
2634.57102	0.11895
2632.64235	0.11915
2630.71367	0.11930
2628.78500	0.11944
2626.85632	0.11959
2624.92764	0.11972
2622.99897	0.11985
2621.07029	0.11999
2619.14162	0.12014
2617.21294	0.12032
2615.28427	0.12051
2613.35559	0.12070
2611.42691	0.12086
2609.49824	0.12100
2607.56956	0.12112
2605.64089	0.12125
2603.71221	0.12140
2601.78354	0.12153
2599.85486	0.12167
2597.92618	0.12181
2595.99751	0.12198
2594.06883	0.12215
2592.14016	0.12231
2590.21148	0.12247
2588.28281	0.12262
2586.35413	0.12275
2584.42545	0.12291
2582.49678	0.12309
2580.56810	0.12325
2578.63943	0.12339
2576.71075	0.12353
2574.78208	0.12367
2572.85340	0.12380
2570.92472	0.12392
2568.99605	0.12404
2567.06737	0.12417
2565.13870	0.12432
2563.21002	0.12448
2561.28135	0.12465
2559.35267	0.12482
2557.42399	0.12498
2555.49532	0.12512
2553.56664	0.12525
2551.63797	0.12542
2549.70929	0.12559
2547.78062	0.12573
2545.85194	0.12587
2543.92326	0.12600
2541.99459	0.12613
2540.06591	0.12626
2538.13724	0.12641
2536.20856	0.12659
2534.27989	0.12678
2532.35121	0.12692
2530.42253	0.12704
2528.49386	0.12717
2526.56518	0.12735
2524.63651	0.12754
2522.70783	0.12769
2520.77916	0.12779
2518.85048	0.12787
2516.92181	0.12800
2514.99313	0.12819
2513.06445	0.12839
2511.13578	0.12858
2509.20710	0.12877
2507.27843	0.12892
2505.34975	0.12906
2503.42108	0.12922
2501.49240	0.12942
2499.56372	0.12958
2497.63505	0.12971
2495.70637	0.12985
2493.77770	0.13003
2491.84902	0.13022
2489.92035	0.13039
2487.99167	0.13054
2486.06299	0.13069
2484.13432	0.13084
2482.20564	0.13099
2480.27697	0.13114
2478.34829	0.13128
2476.41962	0.13143
2474.49094	0.13160
2472.56226	0.13180
2470.63359	0.13199
2468.70491	0.13215
2466.77624	0.13227
2464.84756	0.13241
2462.91889	0.13261
2460.99021	0.13280
2459.06153	0.13298
2457.13286	0.13312
2455.20418	0.13326
2453.27551	0.13341
2451.34683	0.13356
2449.41816	0.13371
2447.48948	0.13387
2445.56080	0.13405
2443.63213	0.13427
2441.70345	0.13448
2439.77478	0.13464
2437.84610	0.13474
2435.91743	0.13484
2433.98875	0.13498
2432.06007	0.13514
2430.13140	0.13529
2428.20272	0.13544
2426.27405	0.13560
2424.34537	0.13578
2422.41670	0.13595
2420.48802	0.13611
2418.55934	0.13628
2416.63067	0.13643
2414.70199	0.13658
2412.77332	0.13675
2410.84464	0.13691
2408.91597	0.13707
2406.98729	0.13721
2405.05861	0.13735
2403.12994	0.13752
2401.20126	0.13768
2399.27259	0.13782
2397.34391	0.13795
2395.41524	0.13812
2393.48656	0.13833
2391.55788	0.13851
2389.62921	0.13867
2387.70053	0.13881
2385.77186	0.13892
2383.84318	0.13900
2381.91451	0.13906
2379.98583	0.13912
2378.05715	0.13917
2376.12848	0.13924
2374.19980	0.13930
2372.27113	0.13934
2370.34245	0.13933
2368.41378	0.13934
2366.48510	0.13941
2364.55642	0.13951
2362.62775	0.13964
2360.69907	0.13983
2358.77040	0.14006
2356.84172	0.14031
2354.91305	0.14058
2352.98437	0.14089
2351.05569	0.14119
2349.12702	0.14140
2347.19834	0.14147
2345.26967	0.14150
2343.34099	0.14156
2341.41232	0.14164
2339.48364	0.14175
2337.55496	0.14190
2335.62629	0.14207
2333.69761	0.14224
2331.76894	0.14240
2329.84026	0.14258
2327.91159	0.14278
2325.98291	0.14301
2324.05423	0.14324
2322.12556	0.14345
2320.19688	0.14364
2318.26821	0.14380
2316.33953	0.14396
2314.41086	0.14415
2312.48218	0.14440
2310.55350	0.14464
2308.62483	0.14484
2306.69615	0.14503
2304.76748	0.14523
2302.83880	0.14543
2300.91013	0.14558
2298.98145	0.14573
2297.05277	0.14593
2295.12410	0.14615
2293.19542	0.14633
2291.26675	0.14647
2289.33807	0.14661
2287.40940	0.14677
2285.48072	0.14692
2283.55204	0.14708
2281.62337	0.14726
2279.69469	0.14743
2277.76602	0.14758
2275.83734	0.14772
2273.90867	0.14787
2271.97999	0.14801
2270.05131	0.14813
2268.12264	0.14828
2266.19396	0.14848
2264.26529	0.14865
2262.33661	0.14879
2260.40794	0.14896
2258.47926	0.14917
2256.55058	0.14933
2254.62191	0.14947
2252.69323	0.14961
2250.76456	0.14976
2248.83588	0.14992
2246.90721	0.15008
2244.97853	0.15025
2243.04985	0.15042
2241.12118	0.15061
2239.19250	0.15077
2237.26383	0.15087
2235.33515	0.15099
2233.40648	0.15113
2231.47780	0.15126
2229.54912	0.15144
2227.62045	0.15164
2225.69177	0.15179
2223.76310	0.15194
2221.83442	0.15211
2219.90575	0.15228
2217.97707	0.15241
2216.04839	0.15253
2214.11972	0.15268
2212.19104	0.15283
2210.26237	0.15299
2208.33369	0.15315
2206.40502	0.15331
2204.47634	0.15346
2202.54766	0.15360
2200.61899	0.15372
2198.69031	0.15387
2196.76164	0.15406
2194.83296	0.15425
2192.90429	0.15443
2190.97561	0.15460
2189.04693	0.15475
2187.11826	0.15489
2185.18958	0.15503
2183.26091	0.15518
2181.33223	0.15532
2179.40356	0.15545
2177.47488	0.15562
2175.54620	0.15581
2173.61753	0.15597
2171.68885	0.15607
2169.76018	0.15615
2167.83150	0.15629
2165.90283	0.15650
2163.97415	0.15672
2162.04547	0.15688
2160.11680	0.15698
2158.18812	0.15709
2156.25945	0.15726
2154.33077	0.15746
2152.40210	0.15764
2150.47342	0.15777
2148.54474	0.15795
2146.61607	0.15816
2144.68739	0.15832
2142.75872	0.15845
2140.83004	0.15860
2138.90137	0.15876
2136.97269	0.15889
2135.04401	0.15900
2133.11534	0.15914
2131.18666	0.15933
2129.25799	0.15955
2127.32931	0.15974
2125.40064	0.15991
2123.47196	0.16006
2121.54328	0.16022
2119.61461	0.16037
2117.68593	0.16048
2115.75726	0.16057
2113.82858	0.16068
2111.89991	0.16087
2109.97123	0.16109
2108.04255	0.16132
2106.11388	0.16151
2104.18520	0.16163
2102.25653	0.16174
2100.32785	0.16191
2098.39918	0.16208
2096.47050	0.16225
2094.54182	0.16242
2092.61315	0.16258
2090.68447	0.16271
2088.75580	0.16283
2086.82712	0.16300
2084.89845	0.16320
2082.96977	0.16338
2081.04109	0.16353
2079.11242	0.16370
2077.18374	0.16389
2075.25507	0.16403
2073.32639	0.16417
2071.39772	0.16436
2069.46904	0.16457
2067.54036	0.16472
2065.61169	0.16481
2063.68301	0.16491
2061.75434	0.16505
2059.82566	0.16520
2057.89699	0.16534
2055.96831	0.16548
2054.03963	0.16564
2052.11096	0.16583
2050.18228	0.16602
2048.25361	0.16619
2046.32493	0.16637
2044.39626	0.16653
2042.46758	0.16665
2040.53890	0.16680
2038.61023	0.16698
2036.68155	0.16716
2034.75288	0.16735
2032.82420	0.16754
2030.89553	0.16769
2028.96685	0.16784
2027.03817	0.16804
2025.10950	0.16824
2023.18082	0.16839
2021.25215	0.16853
2019.32347	0.16864
2017.39480	0.16876
2015.46612	0.16893
2013.53744	0.16912
2011.60877	0.16930
2009.68009	0.16950
2007.75142	0.16971
2005.82274	0.16986
2003.89407	0.17000
2001.96539	0.17017
2000.03671	0.17030
1998.10804	0.17039
1996.17936	0.17046
1994.25069	0.17054
1992.32201	0.17068
1990.39334	0.17087
1988.46466	0.17108
1986.53598	0.17128
1984.60731	0.17144
1982.67863	0.17154
1980.74996	0.17165
1978.82128	0.17179
1976.89261	0.17197
1974.96393	0.17214
1973.03525	0.17226
1971.10658	0.17235
1969.17790	0.17245
1967.24923	0.17260
1965.32055	0.17280
1963.39188	0.17298
1961.46320	0.17310
1959.53452	0.17320
1957.60585	0.17333
1955.67717	0.17350
1953.74850	0.17368
1951.81982	0.17385
1949.89115	0.17402
1947.96247	0.17417
1946.03379	0.17425
1944.10512	0.17430
1942.17644	0.17442
1940.24777	0.17467
1938.31909	0.17492
1936.39042	0.17510
1934.46174	0.17527
1932.53306	0.17543
1930.60439	0.17555
1928.67571	0.17565
1926.74704	0.17580
1924.81836	0.17594
1922.88969	0.17607
1920.96101	0.17618
1919.03233	0.17624
1917.10366	0.17635
1915.17498	0.17660
1913.24631	0.17685
1911.31763	0.17702
1909.38896	0.17714
1907.46028	0.17730
1905.53160	0.17751
1903.60293	0.17771
1901.67425	0.17790
1899.74558	0.17807
1897.81690	0.17819
1895.88823	0.17829
1893.95955	0.17842
1892.03087	0.17854
1890.10220	0.17862
1888.17352	0.17877
1886.24485	0.17897
1884.31617	0.17915
1882.38750	0.17932
1880.45882	0.17949
1878.53014	0.17965
1876.60147	0.17982
1874.67279	0.18003
1872.74412	0.18014
1870.81544	0.18008
1868.88677	0.18002
1866.95809	0.18020
1865.02941	0.18053
1863.10074	0.18081
1861.17206	0.18100
1859.24339	0.18115
1857.31471	0.18129
1855.38604	0.18146
1853.45736	0.18170
1851.52868	0.18193
1849.60001	0.18205
1847.67133	0.18203
1845.74266	0.18194
1843.81398	0.18204
1841.88531	0.18244
1839.95663	0.18281
1838.02795	0.18299
1836.09928	0.18316
1834.17060	0.18331
1832.24193	0.18329
1830.31325	0.18321
1828.38458	0.18332
1826.45590	0.18353
1824.52722	0.18378
1822.59855	0.18411
1820.66987	0.18435
1818.74120	0.18445
1816.81252	0.18458
1814.88385	0.18474
1812.95517	0.18484
1811.02649	0.18492
1809.09782	0.18509
1807.16914	0.18530
1805.24047	0.18541
1803.31179	0.18538
1801.38312	0.18536
1799.45444	0.18553
1797.52576	0.18577
1795.59709	0.18584
1793.66841	0.18572
1791.73974	0.18574
1789.81106	0.18607
1787.88239	0.18636
1785.95371	0.18643
1784.02503	0.18652
1782.09636	0.18667
1780.16768	0.18684
1778.23901	0.18700
1776.31033	0.18702
1774.38166	0.18685
1772.45298	0.18672
1770.52430	0.18686
1768.59563	0.18717
1766.66695	0.18752
1764.73828	0.18777
1762.80960	0.18783
1760.88093	0.18788
1758.95225	0.18794
1757.02357	0.18796
1755.09490	0.18797
1753.16622	0.18779
1751.23755	0.18748
1749.30887	0.18746
1747.38020	0.18769
1745.45152	0.18786
1743.52284	0.18789
1741.59417	0.18786
1739.66549	0.18791
1737.73682	0.18794
1735.80814	0.18768
1733.87947	0.18750
1731.95079	0.18782
1730.02211	0.18830
1728.09344	0.18868
1726.16476	0.18894
1724.23609	0.18908
1722.30741	0.18907
1720.37874	0.18881
1718.45006	0.18849
1716.52138	0.18858
1714.59271	0.18909
1712.66403	0.18965
1710.73536	0.18997
1708.80668	0.18999
1706.87801	0.18987
1704.94933	0.18981
1703.02065	0.18955
1701.09198	0.18915
1699.16330	0.18915
1697.23463	0.18945
1695.30595	0.18979
1693.37728	0.19025
1691.44860	0.19050
1689.51992	0.19044
1687.59125	0.19024
1685.66257	0.18988
1683.73390	0.18977
1681.80522	0.19015
1679.87655	0.19056
1677.94787	0.19059
1676.01919	0.19040
1674.09052	0.19037
1672.16184	0.19041
1670.23317	0.19038
1668.30449	0.19060
1666.37582	0.19099
1664.44714	0.19113
1662.51846	0.19116
1660.58979	0.19136
1658.66111	0.19145
1656.73244	0.19103
1654.80376	0.19021
1652.87509	0.18988
1650.94641	0.19035
1649.01773	0.19068
1647.08906	0.19071
1645.16038	0.19105
1643.23171	0.19151
1641.30303	0.19169
1639.37436	0.19155
1637.44568	0.19126
1635.51700	0.19122
1633.58833	0.19165
1631.65965	0.19210
1629.73098	0.19215
1627.80230	0.19194
1625.87363	0.19162
1623.94495	0.19122
1622.01627	0.19099
1620.08760	0.19097
1618.15892	0.19111
1616.23025	0.19164
1614.30157	0.19247
1612.37290	0.19309
1610.44422	0.19339
1608.51554	0.19366
1606.58687	0.19394
1604.65819	0.19412
1602.72952	0.19429
1600.80084	0.19454
1598.87217	0.19480
1596.94349	0.19493
1595.01481	0.19501
1593.08614	0.19513
1591.15746	0.19529
1589.22879	0.19546
1587.30011	0.19566
1585.37144	0.19588
1583.44276	0.19608
1581.51408	0.19623
1579.58541	0.19621
1577.65673	0.19602
1575.72806	0.19606
1573.79938	0.19639
1571.87071	0.19650
1569.94203	0.19647
1568.01335	0.19670
1566.08468	0.19698
1564.15600	0.19705
1562.22733	0.19674
1560.29865	0.19614
1558.36998	0.19597
1556.44130	0.19649
1554.51262	0.19715
1552.58395	0.19760
1550.65527	0.19786
1548.72660	0.19799
1546.79792	0.19791
1544.86925	0.19755
1542.94057	0.19714
1541.01189	0.19700
1539.08322	0.19739
1537.15454	0.19801
1535.22587	0.19831
1533.29719	0.19843
1531.36852	0.19870
1529.43984	0.19883
1527.51116	0.19869
1525.58249	0.19853
1523.65381	0.19825
1521.72514	0.19797
1519.79646	0.19808
1517.86779	0.19844
1515.93911	0.19883
1514.01043	0.19917
1512.08176	0.19925
1510.15308	0.19893
1508.22441	0.19848
1506.29573	0.19856
1504.36706	0.19925
1502.43838	0.19977
1500.50970	0.19967
1498.58103	0.19938
1496.65235	0.19937
1494.72368	0.19963
1492.79500	0.19964
1490.86633	0.19930
1488.93765	0.19910
1487.00897	0.19926
1485.08030	0.19949
1483.15162	0.19951
1481.22295	0.19933
1479.29427	0.19900
1477.36560	0.19851
1475.43692	0.19789
1473.50824	0.19740
1471.57957	0.19729
1469.65089	0.19743
1467.72222	0.19729
1465.79354	0.19688
1463.86487	0.19667
1461.93619	0.19655
1460.00751	0.19597
1458.07884	0.19517
1456.15016	0.19508
1454.22149	0.19572
1452.29281	0.19620
1450.36414	0.19622
1448.43546	0.19617
1446.50678	0.19634
1444.57811	0.19661
1442.64943	0.19679
1440.72076	0.19679
1438.79208	0.19650
1436.86341	0.19626
1434.93473	0.19655
1433.00605	0.19701
1431.07738	0.19721
1429.14870	0.19736
1427.22003	0.19754
1425.29135	0.19761
1423.36268	0.19753
1421.43400	0.19728
1419.50532	0.19700
1417.57665	0.19713
1415.64797	0.19758
1413.71930	0.19786
1411.79062	0.19793
1409.86195	0.19795
1407.93327	0.19792
1406.00459	0.19784
1404.07592	0.19782
1402.14724	0.19775
1400.21857	0.19751
1398.28989	0.19729
1396.36122	0.19724
1394.43254	0.19738
1392.50386	0.19759
1390.57519	0.19751
1388.64651	0.19708
1386.71784	0.19673
1384.78916	0.19668
1382.86049	0.19675
1380.93181	0.19678
1379.00313	0.19676
1377.07446	0.19663
1375.14578	0.19647
1373.21711	0.19648
1371.28843	0.19660
1369.35976	0.19665
1367.43108	0.19664
1365.50240	0.19653
1363.57373	0.19634
1361.64505	0.19634
1359.71638	0.19657
1357.78770	0.19674
1355.85903	0.19681
1353.93035	0.19688
1352.00167	0.19698
1350.07300	0.19708
1348.14432	0.19721
1346.21565	0.19729
1344.28697	0.19727
1342.35830	0.19714
1340.42962	0.19696
1338.50094	0.19688
1336.57227	0.19696
1334.64359	0.19709
1332.71492	0.19708
1330.78624	0.19691
1328.85757	0.19669
1326.92889	0.19650
1325.00021	0.19630
1323.07154	0.19610
1321.14286	0.19591
1319.21419	0.19575
1317.28551	0.19564
1315.35684	0.19558
1313.42816	0.19548
1311.49948	0.19528
1309.57081	0.19500
1307.64213	0.19476
1305.71346	0.19458
1303.78478	0.19438
1301.85611	0.19414
1299.92743	0.19391
1297.99875	0.19371
1296.07008	0.19355
1294.14140	0.19343
1292.21273	0.19327
1290.28405	0.19306
1288.35538	0.19283
1286.42670	0.19263
1284.49802	0.19247
1282.56935	0.19229
1280.64067	0.19205
1278.71200	0.19176
1276.78332	0.19143
1274.85465	0.19103
1272.92597	0.19055
1270.99729	0.18996
1269.06862	0.18915
1267.13994	0.18814
1265.21127	0.18720
1263.28259	0.18661
1261.35392	0.18644
1259.42524	0.18654
1257.49656	0.18673
1255.56789	0.18693
1253.63921	0.18700
1251.71054	0.18687
1249.78186	0.18660
1247.85319	0.18623
1245.92451	0.18584
1243.99583	0.18550
1242.06716	0.18517
1240.13848	0.18475
1238.20981	0.18422
1236.28113	0.18369
1234.35246	0.18319
1232.42378	0.18264
1230.49510	0.18203
1228.56643	0.18142
1226.63775	0.18090
1224.70908	0.18044
1222.78040	0.18000
1220.85173	0.17950
1218.92305	0.17897
1216.99437	0.17843
1215.06570	0.17791
1213.13702	0.17739
1211.20835	0.17689
1209.27967	0.17637
1207.35100	0.17582
1205.42232	0.17521
1203.49364	0.17457
1201.56497	0.17396
1199.63629	0.17343
1197.70762	0.17293
1195.77894	0.17241
1193.85027	0.17185
1191.92159	0.17121
1189.99291	0.17048
1188.06424	0.16969
1186.13556	0.16889
1184.20689	0.16813
1182.27821	0.16733
1180.34954	0.16648
1178.42086	0.16567
1176.49218	0.16494
1174.56351	0.16420
1172.63483	0.16343
1170.70616	0.16262
1168.77748	0.16175
1166.84881	0.16082
1164.92013	0.15991
1162.99145	0.15908
1161.06278	0.15833
1159.13410	0.15757
1157.20543	0.15678
1155.27675	0.15604
1153.34808	0.15535
1151.41940	0.15462
1149.49072	0.15380
1147.56205	0.15294
1145.63337	0.15210
1143.70470	0.15126
1141.77602	0.15041
1139.84735	0.14950
1137.91867	0.14847
1135.98999	0.14727
1134.06132	0.14585
1132.13264	0.14425
1130.20397	0.14249
1128.27529	0.14055
1126.34662	0.13841
1124.41794	0.13611
1122.48926	0.13379
1120.56059	0.13154
1118.63191	0.12941
1116.70324	0.12743
1114.77456	0.12565
1112.84589	0.12408
1110.91721	0.12276
1108.98853	0.12174
1107.05986	0.12105
1105.13118	0.12066
1103.20251	0.12050
1101.27383	0.12061
1099.34516	0.12100
1097.41648	0.12157
1095.48780	0.12225
1093.55913	0.12306
1091.63045	0.12391
1089.70178	0.12471
1087.77310	0.12536
1085.84443	0.12590
1083.91575	0.12642
1081.98707	0.12689
1080.05840	0.12722
1078.12972	0.12743
1076.20105	0.12757
1074.27237	0.12767
1072.34370	0.12778
1070.41502	0.12786
1068.48634	0.12791
1066.55767	0.12801
1064.62899	0.12823
1062.70032	0.12852
1060.77164	0.12881
1058.84297	0.12905
1056.91429	0.12930
1054.98561	0.12960
1053.05694	0.12988
1051.12826	0.13015
1049.19959	0.13051
1047.27091	0.13096
1045.34224	0.13136
1043.41356	0.13169
1041.48488	0.13204
1039.55621	0.13245
1037.62753	0.13283
1035.69886	0.13319
1033.77018	0.13361
1031.84151	0.13401
1029.91283	0.13432
1027.98415	0.13461
1026.05548	0.13489
1024.12680	0.13518
1022.19813	0.13552
1020.26945	0.13588
1018.34078	0.13630
1016.41210	0.13680
1014.48342	0.13730
1012.55475	0.13784
1010.62607	0.13847
1008.69740	0.13911
1006.76872	0.13969
1004.84005	0.14016
1002.91137	0.14053
1000.98269	0.14084
999.05402	0.14114
997.12534	0.14140
995.19667	0.14159
993.26799	0.14170
991.33932	0.14179
989.41064	0.14185
987.48196	0.14191
985.55329	0.14196
983.62461	0.14195
981.69594	0.14191
979.76726	0.14187
977.83859	0.14173
975.90991	0.14149
973.98123	0.14125
972.05256	0.14104
970.12388	0.14090
968.19521	0.14080
966.26653	0.14069
964.33786	0.14050
962.40918	0.14025
960.48050	0.14003
958.55183	0.13992
956.62315	0.13980
954.69448	0.13962
952.76580	0.13946
950.83713	0.13937
948.90845	0.13923
946.97977	0.13898
945.05110	0.13868
943.12242	0.13838
941.19375	0.13805
939.26507	0.13768
937.33640	0.13724
935.40772	0.13676
933.47904	0.13624
931.55037	0.13571
929.62169	0.13520
927.69302	0.13470
925.76434	0.13419
923.83567	0.13365
921.90699	0.13306
919.97831	0.13242
918.04964	0.13178
916.12096	0.13114
914.19229	0.13043
912.26361	0.12965
910.33494	0.12886
908.40626	0.12817
906.47758	0.12759
904.54891	0.12702
902.62023	0.12640
900.69156	0.12584
898.76288	0.12533
896.83421	0.12479
894.90553	0.12425
892.97685	0.12377
891.04818	0.12332
889.11950	0.12289
887.19083	0.12251
885.26215	0.12216
883.33348	0.12182
881.40480	0.12150
879.47612	0.12119
877.54745	0.12092
875.61877	0.12069
873.69010	0.12041
871.76142	0.12011
869.83275	0.11980
867.90407	0.11953
865.97539	0.11939
864.04672	0.11931
862.11804	0.11920
860.18937	0.11909
858.26069	0.11904
856.33202	0.11896
854.40334	0.11875
852.47466	0.11841
850.54599	0.11808
848.61731	0.11785
846.68864	0.11761
844.75996	0.11731
842.83129	0.11705
840.90261	0.11682
838.97394	0.11651
837.04526	0.11602
835.11658	0.11539
833.18791	0.11466
831.25923	0.11379
829.33056	0.11278
827.40188	0.11174
825.47321	0.11078
823.54453	0.10992
821.61585	0.10915
819.68718	0.10847
817.75850	0.10789
815.82983	0.10742
813.90115	0.10706
811.97248	0.10677
810.04380	0.10651
808.11512	0.10629
806.18645	0.10617
804.25777	0.10615
802.32910	0.10612
800.40042	0.10592
798.47175	0.10543
796.54307	0.10476
794.61439	0.10416
792.68572	0.10377
790.75704	0.10357
788.82837	0.10340
786.89969	0.10323
784.97102	0.10305
783.04234	0.10277
781.11366	0.10244
779.18499	0.10219
777.25631	0.10194
775.32764	0.10162
773.39896	0.10129
771.47029	0.10097
769.54161	0.10066
767.61293	0.10036
765.68426	0.10001
763.75558	0.09956
761.82691	0.09910
759.89823	0.09863
757.96956	0.09811
756.04088	0.09755
754.11220	0.09696
752.18353	0.09638
750.25485	0.09579
748.32618	0.09513
746.39750	0.09439
744.46883	0.09355
742.54015	0.09264
740.61147	0.09177
738.68280	0.09114
736.75412	0.09084
734.82545	0.09080
732.89677	0.09091
730.96810	0.09107
729.03942	0.09125
727.11074	0.09139
725.18207	0.09141
723.25339	0.09140
721.32472	0.09147
719.39604	0.09167
717.46737	0.09200
715.53869	0.09242
713.61001	0.09285
711.68134	0.09323
709.75266	0.09349
707.82399	0.09356
705.89531	0.09346
703.96664	0.09329
702.03796	0.09305
700.10928	0.09261
698.18061	0.09204
696.25193	0.09148
694.32326	0.09095
692.39458	0.09038
690.46591	0.08986
688.53723	0.08944
686.60855	0.08901
684.67988	0.08852
682.75120	0.08802
680.82253	0.08750
678.89385	0.08692
676.96518	0.08629
675.03650	0.08563
673.10782	0.08491
671.17915	0.08408
669.25047	0.08317
667.32180	0.08240
665.39312	0.08180
663.46445	0.08120
661.53577	0.08047
659.60709	0.07960
657.67842	0.07870
655.74974	0.07788
653.82107	0.07714
651.89239	0.07643
649.96372	0.07566
648.03504	0.07481
646.10636	0.07392
644.17769	0.07295
642.24901	0.07185
640.32034	0.07085
638.39166	0.07000
636.46299	0.06910
634.53431	0.06801
632.60563	0.06659
630.67696	0.06441
628.74828	0.06106
626.81961	0.05677
624.89093	0.05237
622.96226	0.04878
621.03358	0.04654
619.10490	0.04538
617.17623	0.04461
615.24755	0.04378
613.31888	0.04273
611.39020	0.04174
609.46153	0.04129
607.53285	0.04141
605.60417	0.04173
603.67550	0.04220
601.74682	0.04294
599.81815	0.04389
597.88947	0.04475
595.96080	0.04539
594.03212	0.04584
592.10344	0.04615
590.17477	0.04630
588.24609	0.04622
586.31742	0.04598
584.38874	0.04574
582.46007	0.04548
580.53139	0.04504
578.60271	0.04452
576.67404	0.04408
574.74536	0.04362
572.81669	0.04297
570.88801	0.04219
568.95934	0.04153
567.03066	0.04112
565.10198	0.04084
563.17331	0.04060
561.24463	0.04039
559.31596	0.04019
557.38728	0.03996
555.45861	0.03974
553.52993	0.03953
551.60125	0.03931
549.67258	0.03909
547.74390	0.03898
545.81523	0.03898
543.88655	0.03893
541.95788	0.03877
540.02920	0.03859
538.10052	0.03841
536.17185	0.03818
534.24317	0.03788
532.31450	0.03752
530.38582	0.03720
528.45715	0.03696
526.52847	0.03672
524.59979	0.03644
522.67112	0.03612
520.74244	0.03566
518.81377	0.03502
516.88509	0.03439
514.95642	0.03387
513.02774	0.03349
511.09906	0.03331
509.17039	0.03323
507.24171	0.03310
505.31304	0.03285
503.38436	0.03249
501.45569	0.03205
499.52701	0.03158
497.59833	0.03102
495.66966	0.03038
493.74098	0.02983
491.81231	0.02932
489.88363	0.02874
487.95496	0.02820
486.02628	0.02773
484.09760	0.02720
482.16893	0.02665
480.24025	0.02618
478.31158	0.02571
476.38290	0.02514
474.45423	0.02451
472.52555	0.02399
470.59687	0.02360
468.66820	0.02329
466.73952	0.02302
464.81085	0.02271
462.88217	0.02242
460.95350	0.02224
459.02482	0.02217
457.09614	0.02213
455.16747	0.02205
453.23879	0.02190
451.31012	0.02176
449.38144	0.02178
447.45277	0.02183
445.52409	0.02173
443.59541	0.02155
441.66674	0.02138
439.73806	0.02114
437.80939	0.02076
435.88071	0.02031
433.95204	0.01979
432.02336	0.01917
430.09468	0.01853
428.16601	0.01790
426.23733	0.01721
424.30866	0.01656
422.37998	0.01600
420.45131	0.01546
418.52263	0.01485
416.59395	0.01416
414.66528	0.01340
412.73660	0.01266
410.80793	0.01200
408.87925	0.01137
406.95058	0.01077
405.02190	0.01025
403.09322	0.00974
401.16455	0.00922
399.23587	0.00877
397.30720	0.00823
395.37852	0.00757
393.44985	0.00705
391.52117	0.00670
389.59249	0.00634
387.66382	0.00600
385.73514	0.00560
383.80647	0.00509
381.87779	0.00462
379.94912	0.00432
378.02044	0.00413
376.09176	0.00387
374.16309	0.00342
372.23441	0.00290
370.30574	0.00254
368.37706	0.00232
