7496.76250	0.00115
7494.83382	0.00115
7492.90514	0.00116
7490.97647	0.00116
7489.04779	0.00116
7487.11912	0.00117
7485.19044	0.00118
7483.26177	0.00119
7481.33309	0.00119
7479.40441	0.00118
7477.47574	0.00119
7475.54706	0.00121
7473.61839	0.00121
7471.68971	0.00121
7469.76104	0.00123
7467.83236	0.00124
7465.90368	0.00123
7463.97501	0.00121
7462.04633	0.00121
7460.11766	0.00121
7458.18898	0.00121
7456.26031	0.00121
7454.33163	0.00122
7452.40295	0.00123
7450.47428	0.00123
7448.54560	0.00123
7446.61693	0.00123
7444.68825	0.00123
7442.75958	0.00124
7440.83090	0.00125
7438.90222	0.00126
7436.97355	0.00127
7435.04487	0.00128
7433.11620	0.00128
7431.18752	0.00128
7429.25885	0.00127
7427.33017	0.00128
7425.40149	0.00129
7423.47282	0.00131
7421.54414	0.00131
7419.61547	0.00130
7417.68679	0.00128
7415.75812	0.00128
7413.82944	0.00129
7411.90076	0.00131
7409.97209	0.00130
7408.04341	0.00130
7406.11474	0.00130
7404.18606	0.00131
7402.25739	0.00132
7400.32871	0.00134
7398.40003	0.00133
7396.47136	0.00133
7394.54268	0.00133
7392.61401	0.00135
7390.68533	0.00137
7388.75666	0.00137
7386.82798	0.00136
7384.89930	0.00136
7382.97063	0.00136
7381.04195	0.00136
7379.11328	0.00135
7377.18460	0.00133
7375.25593	0.00133
7373.32725	0.00135
7371.39857	0.00138
7369.46990	0.00139
7367.54122	0.00139
7365.61255	0.00139
7363.68387	0.00139
7361.75520	0.00139
7359.82652	0.00139
7357.89784	0.00141
7355.96917	0.00141
7354.04049	0.00140
7352.11182	0.00139
7350.18314	0.00139
7348.25447	0.00140
7346.32579	0.00141
7344.39711	0.00141
7342.46844	0.00140
7340.53976	0.00141
7338.61109	0.00143
7336.68241	0.00144
7334.75374	0.00145
7332.82506	0.00145
7330.89638	0.00144
7328.96771	0.00144
7327.03903	0.00145
7325.11036	0.00145
7323.18168	0.00145
7321.25301	0.00146
7319.32433	0.00147
7317.39565	0.00148
7315.46698	0.00150
7313.53830	0.00150
7311.60963	0.00149
7309.68095	0.00149
7307.75228	0.00148
7305.82360	0.00149
7303.89492	0.00149
7301.96625	0.00150
7300.03757	0.00149
7298.10890	0.00148
7296.18022	0.00148
7294.25155	0.00148
7292.32287	0.00149
7290.39419	0.00151
7288.46552	0.00152
7286.53684	0.00152
7284.60817	0.00153
7282.67949	0.00154
7280.75082	0.00154
7278.82214	0.00155
7276.89346	0.00155
7274.96479	0.00155
7273.03611	0.00155
7271.10744	0.00155
7269.17876	0.00154
7267.25009	0.00155
7265.32141	0.00157
7263.39273	0.00157
7261.46406	0.00158
7259.53538	0.00158
7257.60671	0.00158
7255.67803	0.00158
7253.74936	0.00158
7251.82068	0.00159
7249.89200	0.00160
7247.96333	0.00160
7246.03465	0.00160
7244.10598	0.00159
7242.17730	0.00159
7240.24863	0.00160
7238.31995	0.00161
7236.39127	0.00163
7234.46260	0.00164
7232.53392	0.00165
7230.60525	0.00165
7228.67657	0.00165
7226.74790	0.00163
7224.81922	0.00161
7222.89054	0.00161
7220.96187	0.00162
7219.03319	0.00164
7217.10452	0.00165
7215.17584	0.00165
7213.24717	0.00166
7211.31849	0.00167
7209.38981	0.00168
7207.46114	0.00167
7205.53246	0.00167
7203.60379	0.00168
7201.67511	0.00168
7199.74644	0.00168
7197.81776	0.00168
7195.88908	0.00169
7193.96041	0.00171
7192.03173	0.00172
7190.10306	0.00171
7188.17438	0.00171
7186.24571	0.00171
7184.31703	0.00171
7182.38835	0.00171
7180.45968	0.00172
7178.53100	0.00174
7176.60233	0.00176
7174.67365	0.00176
7172.74498	0.00174
7170.81630	0.00173
7168.88762	0.00172
7166.95895	0.00173
7165.03027	0.00174
7163.10160	0.00174
7161.17292	0.00174
7159.24425	0.00175
7157.31557	0.00176
7155.38689	0.00177
7153.45822	0.00179
7151.52954	0.00179
7149.60087	0.00179
7147.67219	0.00179
7145.74352	0.00179
7143.81484	0.00180
7141.88616	0.00180
7139.95749	0.00181
7138.02881	0.00182
7136.10014	0.00182
7134.17146	0.00181
7132.24279	0.00181
7130.31411	0.00182
7128.38543	0.00183
7126.45676	0.00183
7124.52808	0.00184
7122.59941	0.00184
7120.67073	0.00184
7118.74206	0.00184
7116.81338	0.00185
7114.88470	0.00186
7112.95603	0.00186
7111.02735	0.00186
7109.09868	0.00185
7107.17000	0.00185
7105.24133	0.00188
7103.31265	0.00190
7101.38397	0.00190
7099.45530	0.00190
7097.52662	0.00190
7095.59795	0.00191
7093.66927	0.00193
7091.74060	0.00194
7089.81192	0.00194
7087.88324	0.00194
7085.95457	0.00194
7084.02589	0.00195
7082.09722	0.00197
7080.16854	0.00197
7078.23987	0.00195
7076.31119	0.00195
7074.38251	0.00196
7072.45384	0.00197
7070.52516	0.00197
7068.59649	0.00196
7066.66781	0.00196
7064.73914	0.00196
7062.81046	0.00196
7060.88178	0.00197
7058.95311	0.00198
7057.02443	0.00199
7055.09576	0.00198
7053.16708	0.00199
7051.23841	0.00200
7049.30973	0.00201
7047.38105	0.00202
7045.45238	0.00204
7043.52370	0.00204
7041.59503	0.00203
7039.66635	0.00202
7037.73768	0.00202
7035.80900	0.00203
7033.88032	0.00205
7031.95165	0.00205
7030.02297	0.00205
7028.09430	0.00205
7026.16562	0.00205
7024.23695	0.00206
7022.30827	0.00208
7020.37959	0.00209
7018.45092	0.00209
7016.52224	0.00207
7014.59357	0.00207
7012.66489	0.00207
7010.73622	0.00208
7008.80754	0.00209
7006.87886	0.00210
7004.95019	0.00211
7003.02151	0.00212
7001.09284	0.00212
6999.16416	0.00212
6997.23549	0.00212
6995.30681	0.00214
6993.37813	0.00215
6991.44946	0.00215
6989.52078	0.00216
6987.59211	0.00217
6985.66343	0.00217
6983.73476	0.00216
6981.80608	0.00216
6979.87740	0.00217
6977.94873	0.00218
6976.02005	0.00218
6974.09138	0.00218
6972.16270	0.00218
6970.23403	0.00219
6968.30535	0.00218
6966.37667	0.00218
6964.44800	0.00219
6962.51932	0.00221
6960.59065	0.00221
6958.66197	0.00222
6956.73330	0.00222
6954.80462	0.00222
6952.87594	0.00222
6950.94727	0.00222
6949.01859	0.00223
6947.08992	0.00222
6945.16124	0.00222
6943.23257	0.00225
6941.30389	0.00226
6939.37521	0.00226
6937.44654	0.00226
6935.51786	0.00226
6933.58919	0.00227
6931.66051	0.00228
6929.73184	0.00229
6927.80316	0.00231
6925.87448	0.00232
6923.94581	0.00232
6922.01713	0.00231
6920.08846	0.00231
6918.15978	0.00233
6916.23111	0.00233
6914.30243	0.00233
6912.37375	0.00233
6910.44508	0.00235
6908.51640	0.00236
6906.58773	0.00237
6904.65905	0.00238
6902.73038	0.00238
6900.80170	0.00238
6898.87302	0.00237
6896.94435	0.00236
6895.01567	0.00237
6893.08700	0.00238
6891.15832	0.00238
6889.22965	0.00238
6887.30097	0.00239
6885.37229	0.00241
6883.44362	0.00242
6881.51494	0.00241
6879.58627	0.00240
6877.65759	0.00241
6875.72892	0.00242
6873.80024	0.00244
6871.87156	0.00244
6869.94289	0.00243
6868.01421	0.00243
6866.08554	0.00243
6864.15686	0.00243
6862.22819	0.00244
6860.29951	0.00245
6858.37083	0.00246
6856.44216	0.00247
6854.51348	0.00247
6852.58481	0.00247
6850.65613	0.00246
6848.72746	0.00246
6846.79878	0.00246
6844.87010	0.00247
6842.94143	0.00249
6841.01275	0.00251
6839.08408	0.00250
6837.15540	0.00251
6835.22673	0.00253
6833.29805	0.00255
6831.36937	0.00257
6829.44070	0.00257
6827.51202	0.00256
6825.58335	0.00256
6823.65467	0.00257
6821.72600	0.00258
6819.79732	0.00258
6817.86864	0.00258
6815.93997	0.00257
6814.01129	0.00257
6812.08262	0.00258
6810.15394	0.00260
6808.22527	0.00261
6806.29659	0.00260
6804.36791	0.00261
6802.43924	0.00262
6800.51056	0.00262
6798.58189	0.00261
6796.65321	0.00261
6794.72454	0.00261
6792.79586	0.00263
6790.86718	0.00267
6788.93851	0.00269
6787.00983	0.00269
6785.08116	0.00267
6783.15248	0.00265
6781.22381	0.00265
6779.29513	0.00266
6777.36645	0.00269
6775.43778	0.00271
6773.50910	0.00271
6771.58043	0.00271
6769.65175	0.00271
6767.72308	0.00272
6765.79440	0.00272
6763.86572	0.00272
6761.93705	0.00272
6760.00837	0.00274
6758.07970	0.00275
6756.15102	0.00276
6754.22235	0.00277
6752.29367	0.00277
6750.36499	0.00277
6748.43632	0.00279
6746.50764	0.00280
6744.57897	0.00281
6742.65029	0.00280
6740.72162	0.00278
6738.79294	0.00278
6736.86426	0.00280
6734.93559	0.00283
6733.00691	0.00284
6731.07824	0.00283
6729.14956	0.00283
6727.22089	0.00284
6725.29221	0.00285
6723.36353	0.00285
6721.43486	0.00285
6719.50618	0.00286
6717.57751	0.00288
6715.64883	0.00291
6713.72016	0.00292
6711.79148	0.00290
6709.86280	0.00289
6707.93413	0.00290
6706.00545	0.00291
6704.07678	0.00292
6702.14810	0.00291
6700.21943	0.00290
6698.29075	0.00290
6696.36207	0.00291
6694.43340	0.00293
6692.50472	0.00295
6690.57605	0.00296
6688.64737	0.00296
6686.71870	0.00296
6684.79002	0.00296
6682.86134	0.00298
6680.93267	0.00299
6679.00399	0.00300
6677.07532	0.00301
6675.14664	0.00300
6673.21797	0.00300
6671.28929	0.00300
6669.36061	0.00300
6667.43194	0.00301
6665.50326	0.00302
6663.57459	0.00303
6661.64591	0.00303
6659.71724	0.00304
6657.78856	0.00305
6655.85988	0.00306
6653.93121	0.00306
6652.00253	0.00306
6650.07386	0.00306
6648.14518	0.00308
6646.21651	0.00309
6644.28783	0.00309
6642.35915	0.00309
6640.43048	0.00311
6638.50180	0.00312
6636.57313	0.00313
6634.64445	0.00314
6632.71578	0.00315
6630.78710	0.00316
6628.85842	0.00316
6626.92975	0.00317
6625.00107	0.00318
6623.07240	0.00317
6621.14372	0.00317
6619.21505	0.00319
6617.28637	0.00320
6615.35769	0.00319
6613.42902	0.00318
6611.50034	0.00318
6609.57167	0.00319
6607.64299	0.00320
6605.71432	0.00320
6603.78564	0.00320
6601.85696	0.00322
6599.92829	0.00324
6597.99961	0.00326
6596.07094	0.00326
6594.14226	0.00325
6592.21359	0.00326
6590.28491	0.00329
6588.35623	0.00330
6586.42756	0.00329
6584.49888	0.00330
6582.57021	0.00331
6580.64153	0.00332
6578.71286	0.00333
6576.78418	0.00334
6574.85550	0.00335
6572.92683	0.00336
6570.99815	0.00338
6569.06948	0.00338
6567.14080	0.00337
6565.21213	0.00337
6563.28345	0.00339
6561.35477	0.00340
6559.42610	0.00340
6557.49742	0.00339
6555.56875	0.00339
6553.64007	0.00340
6551.71140	0.00342
6549.78272	0.00342
6547.85404	0.00341
6545.92537	0.00341
6543.99669	0.00342
6542.06802	0.00344
6540.13934	0.00347
6538.21067	0.00350
6536.28199	0.00351
6534.35331	0.00351
6532.42464	0.00352
6530.49596	0.00354
6528.56729	0.00355
6526.63861	0.00355
6524.70994	0.00356
6522.78126	0.00356
6520.85258	0.00357
6518.92391	0.00355
6516.99523	0.00353
6515.06656	0.00354
6513.13788	0.00355
6511.20921	0.00356
6509.28053	0.00357
6507.35185	0.00359
6505.42318	0.00361
6503.49450	0.00361
6501.56583	0.00361
6499.63715	0.00361
6497.70848	0.00364
6495.77980	0.00365
6493.85112	0.00364
6491.92245	0.00364
6489.99377	0.00365
6488.06510	0.00366
6486.13642	0.00368
6484.20775	0.00370
6482.27907	0.00370
6480.35039	0.00370
6478.42172	0.00371
6476.49304	0.00373
6474.56437	0.00375
6472.63569	0.00375
6470.70702	0.00375
6468.77834	0.00376
6466.84966	0.00376
6464.92099	0.00376
6462.99231	0.00376
6461.06364	0.00377
6459.13496	0.00379
6457.20629	0.00380
6455.27761	0.00381
6453.34893	0.00383
6451.42026	0.00383
6449.49158	0.00382
6447.56291	0.00380
6445.63423	0.00381
6443.70556	0.00382
6441.77688	0.00384
6439.84820	0.00386
6437.91953	0.00386
6435.99085	0.00386
6434.06218	0.00386
6432.13350	0.00388
6430.20483	0.00388
6428.27615	0.00390
6426.34747	0.00393
6424.41880	0.00395
6422.49012	0.00395
6420.56145	0.00396
6418.63277	0.00397
6416.70410	0.00396
6414.77542	0.00395
6412.84674	0.00395
6410.91807	0.00397
6408.98939	0.00399
6407.06072	0.00401
6405.13204	0.00402
6403.20337	0.00403
6401.27469	0.00403
6399.34601	0.00405
6397.41734	0.00407
6395.48866	0.00410
6393.55999	0.00410
6391.63131	0.00408
6389.70264	0.00406
6387.77396	0.00408
6385.84528	0.00411
6383.91661	0.00413
6381.98793	0.00413
6380.05926	0.00414
6378.13058	0.00415
6376.20191	0.00416
6374.27323	0.00415
6372.34455	0.00414
6370.41588	0.00415
6368.48720	0.00416
6366.55853	0.00417
6364.62985	0.00418
6362.70118	0.00421
6360.77250	0.00423
6358.84382	0.00423
6356.91515	0.00422
6354.98647	0.00422
6353.05780	0.00423
6351.12912	0.00425
6349.20045	0.00427
6347.27177	0.00427
6345.34309	0.00427
6343.41442	0.00428
6341.48574	0.00429
6339.55707	0.00430
6337.62839	0.00430
6335.69972	0.00431
6333.77104	0.00431
6331.84236	0.00432
6329.91369	0.00432
6327.98501	0.00434
6326.05634	0.00436
6324.12766	0.00439
6322.19899	0.00440
6320.27031	0.00441
6318.34163	0.00442
6316.41296	0.00442
6314.48428	0.00442
6312.55561	0.00443
6310.62693	0.00445
6308.69826	0.00446
6306.76958	0.00447
6304.84090	0.00449
6302.91223	0.00449
6300.98355	0.00449
6299.05488	0.00450
6297.12620	0.00451
6295.19753	0.00452
6293.26885	0.00453
6291.34017	0.00453
6289.41150	0.00452
6287.48282	0.00453
6285.55415	0.00455
6283.62547	0.00457
6281.69680	0.00459
6279.76812	0.00461
6277.83944	0.00463
6275.91077	0.00466
6273.98209	0.00466
6272.05342	0.00465
6270.12474	0.00465
6268.19607	0.00466
6266.26739	0.00466
6264.33871	0.00467
6262.41004	0.00468
6260.48136	0.00469
6258.55269	0.00469
6256.62401	0.00470
6254.69534	0.00470
6252.76666	0.00471
6250.83798	0.00473
6248.90931	0.00475
6246.98063	0.00476
6245.05196	0.00477
6243.12328	0.00479
6241.19461	0.00480
6239.26593	0.00482
6237.33725	0.00482
6235.40858	0.00482
6233.47990	0.00482
6231.55123	0.00484
6229.62255	0.00487
6227.69388	0.00490
6225.76520	0.00492
6223.83652	0.00492
6221.90785	0.00491
6219.97917	0.00490
6218.05050	0.00490
6216.12182	0.00491
6214.19315	0.00491
6212.26447	0.00491
6210.33579	0.00492
6208.40712	0.00493
6206.47844	0.00494
6204.54977	0.00496
6202.62109	0.00497
6200.69242	0.00498
6198.76374	0.00498
6196.83506	0.00501
6194.90639	0.00504
6192.97771	0.00504
6191.04904	0.00504
6189.12036	0.00506
6187.19169	0.00508
6185.26301	0.00510
6183.33433	0.00512
6181.40566	0.00514
6179.47698	0.00515
6177.54831	0.00514
6175.61963	0.00514
6173.69096	0.00514
6171.76228	0.00514
6169.83360	0.00515
6167.90493	0.00517
6165.97625	0.00520
6164.04758	0.00521
6162.11890	0.00521
6160.19023	0.00520
6158.26155	0.00520
6156.33287	0.00522
6154.40420	0.00525
6152.47552	0.00526
6150.54685	0.00528
6148.61817	0.00531
6146.68950	0.00532
6144.76082	0.00533
6142.83214	0.00533
6140.90347	0.00533
6138.97479	0.00533
6137.04612	0.00533
6135.11744	0.00534
6133.18877	0.00536
6131.26009	0.00538
6129.33141	0.00539
6127.40274	0.00540
6125.47406	0.00541
6123.54539	0.00543
6121.61671	0.00545
6119.68804	0.00545
6117.75936	0.00546
6115.83068	0.00547
6113.90201	0.00548
6111.97333	0.00550
6110.04466	0.00552
6108.11598	0.00553
6106.18731	0.00555
6104.25863	0.00556
6102.32995	0.00557
6100.40128	0.00558
6098.47260	0.00558
6096.54393	0.00560
6094.61525	0.00560
6092.68658	0.00561
6090.75790	0.00563
6088.82922	0.00566
6086.90055	0.00566
6084.97187	0.00565
6083.04320	0.00565
6081.11452	0.00565
6079.18585	0.00568
6077.25717	0.00570
6075.32849	0.00572
6073.39982	0.00574
6071.47114	0.00576
6069.54247	0.00577
6067.61379	0.00577
6065.68512	0.00578
6063.75644	0.00580
6061.82776	0.00582
6059.89909	0.00584
6057.97041	0.00587
6056.04174	0.00588
6054.11306	0.00587
6052.18439	0.00587
6050.25571	0.00588
6048.32703	0.00589
6046.39836	0.00590
6044.46968	0.00590
6042.54101	0.00591
6040.61233	0.00593
6038.68366	0.00596
6036.75498	0.00598
6034.82630	0.00599
6032.89763	0.00599
6030.96895	0.00599
6029.04028	0.00599
6027.11160	0.00601
6025.18293	0.00604
6023.25425	0.00605
6021.32557	0.00606
6019.39690	0.00606
6017.46822	0.00607
6015.53955	0.00609
6013.61087	0.00611
6011.68220	0.00612
6009.75352	0.00614
6007.82484	0.00617
6005.89617	0.00618
6003.96749	0.00618
6002.03882	0.00619
6000.11014	0.00621
5998.18147	0.00621
5996.25279	0.00621
5994.32411	0.00622
5992.39544	0.00625
5990.46676	0.00628
5988.53809	0.00629
5986.60941	0.00630
5984.68074	0.00631
5982.75206	0.00631
5980.82338	0.00631
5978.89471	0.00631
5976.96603	0.00633
5975.03736	0.00635
5973.10868	0.00636
5971.18001	0.00639
5969.25133	0.00640
5967.32265	0.00641
5965.39398	0.00643
5963.46530	0.00643
5961.53663	0.00643
5959.60795	0.00645
5957.67928	0.00650
5955.75060	0.00653
5953.82192	0.00654
5951.89325	0.00655
5949.96457	0.00655
5948.03590	0.00655
5946.10722	0.00655
5944.17855	0.00656
5942.24987	0.00658
5940.32119	0.00659
5938.39252	0.00661
5936.46384	0.00661
5934.53517	0.00662
5932.60649	0.00665
5930.67782	0.00668
5928.74914	0.00669
5926.82046	0.00671
5924.89179	0.00672
5922.96311	0.00673
5921.03444	0.00672
5919.10576	0.00671
5917.17709	0.00675
5915.24841	0.00680
5913.31973	0.00682
5911.39106	0.00682
5909.46238	0.00683
5907.53371	0.00684
5905.60503	0.00684
5903.67636	0.00685
5901.74768	0.00687
5899.81900	0.00689
5897.89033	0.00691
5895.96165	0.00693
5894.03298	0.00694
5892.10430	0.00696
5890.17563	0.00697
5888.24695	0.00698
5886.31827	0.00698
5884.38960	0.00698
5882.46092	0.00699
5880.53225	0.00701
5878.60357	0.00703
5876.67490	0.00705
5874.74622	0.00707
5872.81755	0.00709
5870.88887	0.00709
5868.96019	0.00709
5867.03152	0.00711
5865.10284	0.00714
5863.17417	0.00717
5861.24549	0.00718
5859.31682	0.00718
5857.38814	0.00718
5855.45946	0.00720
5853.53079	0.00722
5851.60211	0.00726
5849.67344	0.00729
5847.74476	0.00731
5845.81609	0.00731
5843.88741	0.00733
5841.95873	0.00736
5840.03006	0.00738
5838.10138	0.00739
5836.17271	0.00739
5834.24403	0.00739
5832.31536	0.00739
5830.38668	0.00740
5828.45800	0.00744
5826.52933	0.00746
5824.60065	0.00746
5822.67198	0.00746
5820.74330	0.00747
5818.81463	0.00749
5816.88595	0.00751
5814.95727	0.00753
5813.02860	0.00754
5811.09992	0.00756
5809.17125	0.00758
5807.24257	0.00760
5805.31390	0.00762
5803.38522	0.00762
5801.45654	0.00763
5799.52787	0.00765
5797.59919	0.00769
5795.67052	0.00770
5793.74184	0.00771
5791.81317	0.00771
5789.88449	0.00773
5787.95581	0.00776
5786.02714	0.00779
5784.09846	0.00780
5782.16979	0.00780
5780.24111	0.00779
5778.31244	0.00780
5776.38376	0.00782
5774.45508	0.00783
5772.52641	0.00786
5770.59773	0.00788
5768.66906	0.00789
5766.74038	0.00790
5764.81171	0.00793
5762.88303	0.00795
5760.95435	0.00796
5759.02568	0.00798
5757.09700	0.00801
5755.16833	0.00803
5753.23965	0.00804
5751.31098	0.00805
5749.38230	0.00807
5747.45362	0.00809
5745.52495	0.00809
5743.59627	0.00810
5741.66760	0.00812
5739.73892	0.00815
5737.81025	0.00817
5735.88157	0.00819
5733.95289	0.00821
5732.02422	0.00822
5730.09554	0.00821
5728.16687	0.00822
5726.23819	0.00824
5724.30952	0.00825
5722.38084	0.00827
5720.45216	0.00829
5718.52349	0.00831
5716.59481	0.00833
5714.66614	0.00836
5712.73746	0.00838
5710.80879	0.00840
5708.88011	0.00842
5706.95143	0.00844
5705.02276	0.00845
5703.09408	0.00846
5701.16541	0.00846
5699.23673	0.00849
5697.30806	0.00851
5695.37938	0.00853
5693.45070	0.00855
5691.52203	0.00857
5689.59335	0.00856
5687.66468	0.00857
5685.73600	0.00861
5683.80733	0.00865
5681.87865	0.00867
5679.94997	0.00867
5678.02130	0.00867
5676.09262	0.00868
5674.16395	0.00871
5672.23527	0.00874
5670.30660	0.00876
5668.37792	0.00877
5666.44924	0.00879
5664.52057	0.00881
5662.59189	0.00882
5660.66322	0.00884
5658.73454	0.00886
5656.80587	0.00888
5654.87719	0.00890
5652.94851	0.00892
5651.01984	0.00894
5649.09116	0.00896
5647.16249	0.00898
5645.23381	0.00899
5643.30514	0.00900
5641.37646	0.00901
5639.44778	0.00904
5637.51911	0.00907
5635.59043	0.00908
5633.66176	0.00909
5631.73308	0.00910
5629.80441	0.00912
5627.87573	0.00913
5625.94705	0.00914
5624.01838	0.00916
5622.08970	0.00918
5620.16103	0.00920
5618.23235	0.00921
5616.30368	0.00924
5614.37500	0.00926
5612.44632	0.00928
5610.51765	0.00929
5608.58897	0.00931
5606.66030	0.00935
5604.73162	0.00939
5602.80295	0.00941
5600.87427	0.00942
5598.94559	0.00944
5597.01692	0.00945
5595.08824	0.00946
5593.15957	0.00946
5591.23089	0.00946
5589.30222	0.00948
5587.37354	0.00951
5585.44486	0.00954
5583.51619	0.00957
5581.58751	0.00959
5579.65884	0.00961
5577.73016	0.00962
5575.80149	0.00962
5573.87281	0.00963
5571.94413	0.00966
5570.01546	0.00970
5568.08678	0.00973
5566.15811	0.00975
5564.22943	0.00977
5562.30076	0.00976
5560.37208	0.00975
5558.44340	0.00977
5556.51473	0.00982
5554.58605	0.00986
5552.65738	0.00988
5550.72870	0.00989
5548.80003	0.00990
5546.87135	0.00993
5544.94267	0.00994
5543.01400	0.00996
5541.08532	0.00998
5539.15665	0.01001
5537.22797	0.01001
5535.29930	0.01001
5533.37062	0.01002
5531.44194	0.01004
5529.51327	0.01006
5527.58459	0.01009
5525.65592	0.01011
5523.72724	0.01013
5521.79857	0.01015
5519.86989	0.01018
5517.94121	0.01022
5516.01254	0.01025
5514.08386	0.01025
5512.15519	0.01026
5510.22651	0.01028
5508.29784	0.01030
5506.36916	0.01032
5504.44048	0.01035
5502.51181	0.01035
5500.58313	0.01034
5498.65446	0.01034
5496.72578	0.01036
5494.79711	0.01038
5492.86843	0.01040
5490.93975	0.01043
5489.01108	0.01047
5487.08240	0.01050
5485.15373	0.01053
5483.22505	0.01055
5481.29638	0.01057
5479.36770	0.01059
5477.43902	0.01061
5475.51035	0.01063
5473.58167	0.01066
5471.65300	0.01070
5469.72432	0.01071
5467.79565	0.01071
5465.86697	0.01072
5463.93829	0.01074
5462.00962	0.01074
5460.08094	0.01075
5458.15227	0.01077
5456.22359	0.01079
5454.29492	0.01082
5452.36624	0.01085
5450.43756	0.01088
5448.50889	0.01088
5446.58021	0.01088
5444.65154	0.01091
5442.72286	0.01093
5440.79419	0.01095
5438.86551	0.01099
5436.93683	0.01104
5435.00816	0.01108
5433.07948	0.01111
5431.15081	0.01111
5429.22213	0.01111
5427.29346	0.01114
5425.36478	0.01118
5423.43610	0.01121
5421.50743	0.01121
5419.57875	0.01120
5417.65008	0.01121
5415.72140	0.01124
5413.79273	0.01127
5411.86405	0.01130
5409.93537	0.01133
5408.00670	0.01135
5406.07802	0.01136
5404.14935	0.01138
5402.22067	0.01140
5400.29200	0.01143
5398.36332	0.01145
5396.43464	0.01146
5394.50597	0.01146
5392.57729	0.01147
5390.64862	0.01152
5388.71994	0.01157
5386.79127	0.01157
5384.86259	0.01158
5382.93391	0.01160
5381.00524	0.01164
5379.07656	0.01167
5377.14789	0.01168
5375.21921	0.01170
5373.29054	0.01173
5371.36186	0.01175
5369.43318	0.01177
5367.50451	0.01179
5365.57583	0.01181
5363.64716	0.01183
5361.71848	0.01184
5359.78981	0.01186
5357.86113	0.01189
5355.93245	0.01190
5354.00378	0.01191
5352.07510	0.01194
5350.14643	0.01198
5348.21775	0.01199
5346.28908	0.01197
5344.36040	0.01198
5342.43172	0.01202
5340.50305	0.01204
5338.57437	0.01205
5336.64570	0.01209
5334.71702	0.01214
5332.78835	0.01217
5330.85967	0.01218
5328.93099	0.01219
5327.00232	0.01221
5325.07364	0.01223
5323.14497	0.01225
5321.21629	0.01229
5319.28762	0.01235
5317.35894	0.01238
5315.43026	0.01241
5313.50159	0.01243
5311.57291	0.01244
5309.64424	0.01245
5307.71556	0.01247
5305.78689	0.01248
5303.85821	0.01250
5301.92953	0.01251
5300.00086	0.01254
5298.07218	0.01258
5296.14351	0.01262
5294.21483	0.01264
5292.28616	0.01265
5290.35748	0.01266
5288.42880	0.01268
5286.50013	0.01271
5284.57145	0.01275
5282.64278	0.01278
5280.71410	0.01280
5278.78543	0.01282
5276.85675	0.01284
5274.92807	0.01287
5272.99940	0.01289
5271.07072	0.01289
5269.14205	0.01290
5267.21337	0.01291
5265.28470	0.01294
5263.35602	0.01297
5261.42734	0.01300
5259.49867	0.01303
5257.56999	0.01305
5255.64132	0.01305
5253.71264	0.01306
5251.78397	0.01307
5249.85529	0.01310
5247.92661	0.01314
5245.99794	0.01318
5244.06926	0.01320
5242.14059	0.01324
5240.21191	0.01327
5238.28324	0.01331
5236.35456	0.01332
5234.42588	0.01332
5232.49721	0.01333
5230.56853	0.01334
5228.63986	0.01337
5226.71118	0.01338
5224.78251	0.01340
5222.85383	0.01345
5220.92515	0.01349
5218.99648	0.01351
5217.06780	0.01352
5215.13913	0.01354
5213.21045	0.01357
5211.28178	0.01359
5209.35310	0.01360
5207.42442	0.01362
5205.49575	0.01366
5203.56707	0.01370
5201.63840	0.01373
5199.70972	0.01375
5197.78105	0.01376
5195.85237	0.01377
5193.92369	0.01381
5191.99502	0.01385
5190.06634	0.01386
5188.13767	0.01387
5186.20899	0.01388
5184.28032	0.01391
5182.35164	0.01394
5180.42296	0.01398
5178.49429	0.01402
5176.56561	0.01404
5174.63694	0.01405
5172.70826	0.01405
5170.77959	0.01406
5168.85091	0.01410
5166.92223	0.01414
5164.99356	0.01417
5163.06488	0.01420
5161.13621	0.01421
5159.20753	0.01423
5157.27886	0.01427
5155.35018	0.01431
5153.42150	0.01433
5151.49283	0.01433
5149.56415	0.01434
5147.63548	0.01435
5145.70680	0.01437
5143.77813	0.01441
5141.84945	0.01445
5139.92077	0.01447
5137.99210	0.01449
5136.06342	0.01453
5134.13475	0.01456
5132.20607	0.01457
5130.27740	0.01458
5128.34872	0.01460
5126.42004	0.01462
5124.49137	0.01465
5122.56269	0.01469
5120.63402	0.01472
5118.70534	0.01474
5116.77667	0.01477
5114.84799	0.01482
5112.91931	0.01485
5110.99064	0.01487
5109.06196	0.01488
5107.13329	0.01489
5105.20461	0.01491
5103.27594	0.01493
5101.34726	0.01497
5099.41858	0.01501
5097.48991	0.01503
5095.56123	0.01504
5093.63256	0.01506
5091.70388	0.01510
5089.77521	0.01513
5087.84653	0.01516
5085.91785	0.01519
5083.98918	0.01523
5082.06050	0.01525
5080.13183	0.01527
5078.20315	0.01528
5076.27448	0.01530
5074.34580	0.01533
5072.41712	0.01537
5070.48845	0.01540
5068.55977	0.01541
5066.63110	0.01542
5064.70242	0.01544
5062.77375	0.01547
5060.84507	0.01550
5058.91639	0.01552
5056.98772	0.01555
5055.05904	0.01558
5053.13037	0.01560
5051.20169	0.01560
5049.27302	0.01563
5047.34434	0.01568
5045.41566	0.01573
5043.48699	0.01575
5041.55831	0.01576
5039.62964	0.01579
5037.70096	0.01581
5035.77229	0.01582
5033.84361	0.01584
5031.91493	0.01588
5029.98626	0.01592
5028.05758	0.01596
5026.12891	0.01598
5024.20023	0.01601
5022.27156	0.01603
5020.34288	0.01605
5018.41420	0.01607
5016.48553	0.01609
5014.55685	0.01611
5012.62818	0.01614
5010.69950	0.01618
5008.77083	0.01622
5006.84215	0.01625
5004.91347	0.01628
5002.98480	0.01630
5001.05612	0.01633
4999.12745	0.01634
4997.19877	0.01634
4995.27010	0.01637
4993.34142	0.01642
4991.41274	0.01646
4989.48407	0.01648
4987.55539	0.01650
4985.62672	0.01652
4983.69804	0.01653
4981.76937	0.01655
4979.84069	0.01658
4977.91201	0.01661
4975.98334	0.01664
4974.05466	0.01668
4972.12599	0.01672
4970.19731	0.01675
4968.26864	0.01676
4966.33996	0.01679
4964.41128	0.01682
4962.48261	0.01685
4960.55393	0.01688
4958.62526	0.01690
4956.69658	0.01693
4954.76791	0.01695
4952.83923	0.01699
4950.91055	0.01703
4948.98188	0.01707
4947.05320	0.01709
4945.12453	0.01710
4943.19585	0.01712
4941.26718	0.01714
4939.33850	0.01717
4937.40982	0.01719
4935.48115	0.01721
4933.55247	0.01724
4931.62380	0.01729
4929.69512	0.01732
4927.76645	0.01735
4925.83777	0.01737
4923.90909	0.01738
4921.98042	0.01738
4920.05174	0.01741
4918.12307	0.01745
4916.19439	0.01750
4914.26572	0.01755
4912.33704	0.01759
4910.40836	0.01761
4908.47969	0.01763
4906.55101	0.01762
4904.62234	0.01762
4902.69366	0.01765
4900.76499	0.01771
4898.83631	0.01774
4896.90763	0.01776
4894.97896	0.01780
4893.05028	0.01784
4891.12161	0.01788
4889.19293	0.01791
4887.26426	0.01795
4885.33558	0.01796
4883.40690	0.01795
4881.47823	0.01797
4879.54955	0.01801
4877.62088	0.01806
4875.69220	0.01809
4873.76353	0.01811
4871.83485	0.01814
4869.90617	0.01815
4867.97750	0.01817
4866.04882	0.01822
4864.12015	0.01827
4862.19147	0.01831
4860.26280	0.01833
4858.33412	0.01834
4856.40544	0.01836
4854.47677	0.01839
4852.54809	0.01843
4850.61942	0.01848
4848.69074	0.01851
4846.76207	0.01852
4844.83339	0.01854
4842.90471	0.01857
4840.97604	0.01861
4839.04736	0.01863
4837.11869	0.01867
4835.19001	0.01870
4833.26134	0.01873
4831.33266	0.01876
4829.40398	0.01879
4827.47531	0.01882
4825.54663	0.01885
4823.61796	0.01888
4821.68928	0.01892
4819.76061	0.01895
4817.83193	0.01897
4815.90325	0.01899
4813.97458	0.01901
4812.04590	0.01904
4810.11723	0.01907
4808.18855	0.01912
4806.25988	0.01916
4804.33120	0.01919
4802.40252	0.01922
4800.47385	0.01925
4798.54517	0.01928
4796.61650	0.01930
4794.68782	0.01932
4792.75915	0.01933
4790.83047	0.01936
4788.90179	0.01940
4786.97312	0.01944
4785.04444	0.01947
4783.11577	0.01950
4781.18709	0.01954
4779.25842	0.01958
4777.32974	0.01962
4775.40106	0.01965
4773.47239	0.01969
4771.54371	0.01972
4769.61504	0.01975
4767.68636	0.01977
4765.75769	0.01979
4763.82901	0.01982
4761.90033	0.01986
4759.97166	0.01987
4758.04298	0.01988
4756.11431	0.01993
4754.18563	0.01998
4752.25696	0.02003
4750.32828	0.02007
4748.39960	0.02009
4746.47093	0.02011
4744.54225	0.02014
4742.61358	0.02018
4740.68490	0.02021
4738.75623	0.02025
4736.82755	0.02028
4734.89887	0.02030
4732.97020	0.02033
4731.04152	0.02037
4729.11285	0.02040
4727.18417	0.02043
4725.25550	0.02048
4723.32682	0.02053
4721.39814	0.02055
4719.46947	0.02056
4717.54079	0.02060
4715.61212	0.02063
4713.68344	0.02065
4711.75477	0.02066
4709.82609	0.02068
4707.89741	0.02072
4705.96874	0.02078
4704.04006	0.02083
4702.11139	0.02086
4700.18271	0.02088
4698.25404	0.02091
4696.32536	0.02094
4694.39668	0.02096
4692.46801	0.02101
4690.53933	0.02108
4688.61066	0.02112
4686.68198	0.02115
4684.75331	0.02117
4682.82463	0.02120
4680.89595	0.02124
4678.96728	0.02128
4677.03860	0.02131
4675.10993	0.02135
4673.18125	0.02138
4671.25258	0.02141
4669.32390	0.02144
4667.39522	0.02147
4665.46655	0.02150
4663.53787	0.02152
4661.60920	0.02154
4659.68052	0.02156
4657.75185	0.02160
4655.82317	0.02162
4653.89449	0.02165
4651.96582	0.02168
4650.03714	0.02173
4648.10847	0.02178
4646.17979	0.02185
4644.25112	0.02191
4642.32244	0.02194
4640.39376	0.02196
4638.46509	0.02199
4636.53641	0.02203
4634.60774	0.02207
4632.67906	0.02210
4630.75039	0.02212
4628.82171	0.02214
4626.89303	0.02218
4624.96436	0.02223
4623.03568	0.02227
4621.10701	0.02231
4619.17833	0.02234
4617.24966	0.02237
4615.32098	0.02240
4613.39230	0.02243
4611.46363	0.02246
4609.53495	0.02251
4607.60628	0.02256
4605.67760	0.02261
4603.74893	0.02263
4601.82025	0.02264
4599.89157	0.02268
4597.96290	0.02273
4596.03422	0.02277
4594.10555	0.02279
4592.17687	0.02281
4590.24820	0.02286
4588.31952	0.02291
4586.39084	0.02294
4584.46217	0.02298
4582.53349	0.02302
4580.60482	0.02307
4578.67614	0.02310
4576.74747	0.02313
4574.81879	0.02317
4572.89011	0.02322
4570.96144	0.02327
4569.03276	0.02333
4567.10409	0.02339
4565.17541	0.02342
4563.24674	0.02345
4561.31806	0.02348
4559.38938	0.02351
4557.46071	0.02353
4555.53203	0.02356
4553.60336	0.02360
4551.67468	0.02366
4549.74601	0.02372
4547.81733	0.02377
4545.88865	0.02380
4543.95998	0.02381
4542.03130	0.02383
4540.10263	0.02388
4538.17395	0.02392
4536.24528	0.02397
4534.31660	0.02399
4532.38792	0.02401
4530.45925	0.02404
4528.53057	0.02407
4526.60190	0.02412
4524.67322	0.02418
4522.74455	0.02424
4520.81587	0.02429
4518.88719	0.02432
4516.95852	0.02434
4515.02984	0.02437
4513.10117	0.02441
4511.17249	0.02446
4509.24382	0.02451
4507.31514	0.02455
4505.38646	0.02458
4503.45779	0.02462
4501.52911	0.02467
4499.60044	0.02473
4497.67176	0.02479
4495.74309	0.02483
4493.81441	0.02486
4491.88573	0.02489
4489.95706	0.02492
4488.02838	0.02495
4486.09971	0.02499
4484.17103	0.02504
4482.24236	0.02511
4480.31368	0.02516
4478.38500	0.02517
4476.45633	0.02519
4474.52765	0.02525
4472.59898	0.02531
4470.67030	0.02536
4468.74163	0.02539
4466.81295	0.02544
4464.88427	0.02549
4462.95560	0.02553
4461.02692	0.02557
4459.09825	0.02562
4457.16957	0.02568
4455.24090	0.02572
4453.31222	0.02577
4451.38354	0.02582
4449.45487	0.02586
4447.52619	0.02591
4445.59752	0.02596
4443.66884	0.02601
4441.74017	0.02607
4439.81149	0.02612
4437.88281	0.02616
4435.95414	0.02620
4434.02546	0.02622
4432.09679	0.02624
4430.16811	0.02626
4428.23944	0.02629
4426.31076	0.02635
4424.38208	0.02643
4422.45341	0.02651
4420.52473	0.02656
4418.59606	0.02660
4416.66738	0.02663
4414.73871	0.02668
4412.81003	0.02673
4410.88135	0.02677
4408.95268	0.02680
4407.02400	0.02682
4405.09533	0.02687
4403.16665	0.02692
4401.23798	0.02697
4399.30930	0.02700
4397.38062	0.02705
4395.45195	0.02711
4393.52327	0.02717
4391.59460	0.02722
4389.66592	0.02727
4387.73725	0.02733
4385.80857	0.02737
4383.87989	0.02739
4381.95122	0.02743
4380.02254	0.02748
4378.09387	0.02754
4376.16519	0.02759
4374.23652	0.02764
4372.30784	0.02769
4370.37916	0.02776
4368.45049	0.02783
4366.52181	0.02787
4364.59314	0.02790
4362.66446	0.02794
4360.73579	0.02799
4358.80711	0.02804
4356.87843	0.02810
4354.94976	0.02815
4353.02108	0.02819
4351.09241	0.02822
4349.16373	0.02825
4347.23506	0.02831
4345.30638	0.02837
4343.37770	0.02843
4341.44903	0.02849
4339.52035	0.02854
4337.59168	0.02860
4335.66300	0.02866
4333.73433	0.02870
4331.80565	0.02874
4329.87697	0.02879
4327.94830	0.02886
4326.01962	0.02891
4324.09095	0.02894
4322.16227	0.02897
4320.23360	0.02903
4318.30492	0.02909
4316.37624	0.02915
4314.44757	0.02923
4312.51889	0.02930
4310.59022	0.02934
4308.66154	0.02936
4306.73287	0.02940
4304.80419	0.02945
4302.87551	0.02950
4300.94684	0.02956
4299.01816	0.02964
4297.08949	0.02972
4295.16081	0.02978
4293.23214	0.02982
4291.30346	0.02986
4289.37478	0.02991
4287.44611	0.02996
4285.51743	0.03001
4283.58876	0.03006
4281.66008	0.03013
4279.73141	0.03019
4277.80273	0.03024
4275.87405	0.03029
4273.94538	0.03035
4272.01670	0.03041
4270.08803	0.03047
4268.15935	0.03051
4266.23068	0.03056
4264.30200	0.03062
4262.37332	0.03068
4260.44465	0.03073
4258.51597	0.03079
4256.58730	0.03085
4254.65862	0.03090
4252.72995	0.03095
4250.80127	0.03100
4248.87259	0.03105
4246.94392	0.03111
4245.01524	0.03119
4243.08657	0.03124
4241.15789	0.03128
4239.22922	0.03135
4237.30054	0.03142
4235.37186	0.03149
4233.44319	0.03153
4231.51451	0.03159
4229.58584	0.03167
4227.65716	0.03173
4225.72849	0.03177
4223.79981	0.03181
4221.87113	0.03188
4219.94246	0.03195
4218.01378	0.03200
4216.08511	0.03205
4214.15643	0.03211
4212.22776	0.03219
4210.29908	0.03226
4208.37040	0.03231
4206.44173	0.03235
4204.51305	0.03241
4202.58438	0.03248
4200.65570	0.03254
4198.72703	0.03260
4196.79835	0.03267
4194.86968	0.03273
4192.94100	0.03275
4191.01232	0.03280
4189.08365	0.03288
4187.15497	0.03295
4185.22630	0.03299
4183.29762	0.03302
4181.36895	0.03308
4179.44027	0.03316
4177.51159	0.03323
4175.58292	0.03330
4173.65424	0.03337
4171.72557	0.03343
4169.79689	0.03349
4167.86822	0.03355
4165.93954	0.03361
4164.01086	0.03368
4162.08219	0.03375
4160.15351	0.03380
4158.22484	0.03385
4156.29616	0.03390
4154.36749	0.03398
4152.43881	0.03408
4150.51013	0.03417
4148.58146	0.03423
4146.65278	0.03429
4144.72411	0.03434
4142.79543	0.03440
4140.86676	0.03447
4138.93808	0.03454
4137.00940	0.03462
4135.08073	0.03468
4133.15205	0.03474
4131.22338	0.03480
4129.29470	0.03484
4127.36603	0.03488
4125.43735	0.03493
4123.50867	0.03499
4121.58000	0.03506
4119.65132	0.03513
4117.72265	0.03523
4115.79397	0.03531
4113.86530	0.03536
4111.93662	0.03542
4110.00794	0.03549
4108.07927	0.03556
4106.15059	0.03562
4104.22192	0.03570
4102.29324	0.03578
4100.36457	0.03586
4098.43589	0.03594
4096.50721	0.03602
4094.57854	0.03611
4092.64986	0.03617
4090.72119	0.03621
4088.79251	0.03627
4086.86384	0.03636
4084.93516	0.03646
4083.00648	0.03650
4081.07781	0.03652
4079.14913	0.03657
4077.22046	0.03663
4075.29178	0.03668
4073.36311	0.03674
4071.43443	0.03684
4069.50575	0.03694
4067.57708	0.03701
4065.64840	0.03707
4063.71973	0.03716
4061.79105	0.03725
4059.86238	0.03733
4057.93370	0.03738
4056.00502	0.03742
4054.07635	0.03746
4052.14767	0.03752
4050.21900	0.03761
4048.29032	0.03770
4046.36165	0.03777
4044.43297	0.03784
4042.50429	0.03791
4040.57562	0.03797
4038.64694	0.03803
4036.71827	0.03811
4034.78959	0.03817
4032.86092	0.03822
4030.93224	0.03830
4029.00356	0.03841
4027.07489	0.03850
4025.14621	0.03855
4023.21754	0.03860
4021.28886	0.03868
4019.36019	0.03878
4017.43151	0.03888
4015.50283	0.03894
4013.57416	0.03897
4011.64548	0.03901
4009.71681	0.03908
4007.78813	0.03917
4005.85946	0.03926
4003.93078	0.03933
4002.00210	0.03940
4000.07343	0.03948
3998.14475	0.03957
3996.21608	0.03966
3994.28740	0.03974
3992.35873	0.03982
3990.43005	0.03990
3988.50137	0.03996
3986.57270	0.04003
3984.64402	0.04011
3982.71535	0.04019
3980.78667	0.04027
3978.85800	0.04035
3976.92932	0.04042
3975.00064	0.04047
3973.07197	0.04053
3971.14329	0.04062
3969.21462	0.04071
3967.28594	0.04078
3965.35727	0.04085
3963.42859	0.04092
3961.49991	0.04099
3959.57124	0.04108
3957.64256	0.04118
3955.71389	0.04127
3953.78521	0.04134
3951.85654	0.04140
3949.92786	0.04145
3947.99918	0.04150
3946.07051	0.04156
3944.14183	0.04161
3942.21316	0.04169
3940.28448	0.04181
3938.35581	0.04193
3936.42713	0.04201
3934.49845	0.04205
3932.56978	0.04207
3930.64110	0.04213
3928.71243	0.04222
3926.78375	0.04229
3924.85508	0.04236
3922.92640	0.04246
3920.99772	0.04253
3919.06905	0.04258
3917.14037	0.04267
3915.21170	0.04283
3913.28302	0.04301
3911.35435	0.04313
3909.42567	0.04316
3907.49699	0.04311
3905.56832	0.04304
3903.63964	0.04301
3901.71097	0.04304
3899.78229	0.04317
3897.85362	0.04341
3895.92494	0.04363
3893.99626	0.04368
3892.06759	0.04367
3890.13891	0.04377
3888.21024	0.04389
3886.28156	0.04393
3884.35289	0.04395
3882.42421	0.04397
3880.49553	0.04404
3878.56686	0.04426
3876.63818	0.04444
3874.70951	0.04447
3872.78083	0.04443
3870.85216	0.04441
3868.92348	0.04447
3866.99480	0.04459
3865.06613	0.04468
3863.13745	0.04480
3861.20878	0.04498
3859.28010	0.04511
3857.35143	0.04497
3855.42275	0.04463
3853.49407	0.04462
3851.56540	0.04509
3849.63672	0.04554
3847.70805	0.04573
3845.77937	0.04577
3843.85070	0.04577
3841.92202	0.04579
3839.99334	0.04585
3838.06467	0.04592
3836.13599	0.04600
3834.20732	0.04608
3832.27864	0.04619
3830.34997	0.04634
3828.42129	0.04648
3826.49261	0.04658
3824.56394	0.04662
3822.63526	0.04655
3820.70659	0.04653
3818.77791	0.04667
3816.84924	0.04684
3814.92056	0.04705
3812.99188	0.04730
3811.06321	0.04742
3809.13453	0.04743
3807.20586	0.04746
3805.27718	0.04750
3803.34851	0.04746
3801.41983	0.04746
3799.49115	0.04765
3797.56248	0.04788
3795.63380	0.04806
3793.70513	0.04822
3791.77645	0.04832
3789.84778	0.04839
3787.91910	0.04845
3785.99042	0.04853
3784.06175	0.04861
3782.13307	0.04866
3780.20440	0.04869
3778.27572	0.04880
3776.34705	0.04899
3774.41837	0.04912
3772.48969	0.04916
3770.56102	0.04917
3768.63234	0.04922
3766.70367	0.04931
3764.77499	0.04940
3762.84632	0.04947
3760.91764	0.04948
3758.98896	0.04952
3757.06029	0.04962
3755.13161	0.04962
3753.20294	0.04946
3751.27426	0.04935
3749.34559	0.04945
3747.41691	0.04954
3745.48823	0.04952
3743.55956	0.04974
3741.63088	0.05020
3739.70221	0.05042
3737.77353	0.05033
3735.84486	0.05029
3733.91618	0.05050
3731.98750	0.05082
3730.05883	0.05102
3728.13015	0.05106
3726.20148	0.05106
3724.27280	0.05114
3722.34413	0.05126
3720.41545	0.05142
3718.48677	0.05159
3716.55810	0.05170
3714.62942	0.05170
3712.70075	0.05166
3710.77207	0.05174
3708.84340	0.05197
3706.91472	0.05222
3704.98604	0.05234
3703.05737	0.05238
3701.12869	0.05245
3699.20002	0.05256
3697.27134	0.05269
3695.34267	0.05279
3693.41399	0.05279
3691.48531	0.05270
3689.55664	0.05264
3687.62796	0.05280
3685.69929	0.05311
3683.77061	0.05332
3681.84194	0.05340
3679.91326	0.05340
3677.98458	0.05335
3676.05591	0.05331
3674.12723	0.05339
3672.19856	0.05350
3670.26988	0.05356
3668.34121	0.05373
3666.41253	0.05400
3664.48385	0.05419
3662.55518	0.05429
3660.62650	0.05434
3658.69783	0.05435
3656.76915	0.05439
3654.84048	0.05442
3652.91180	0.05431
3650.98312	0.05407
3649.05445	0.05392
3647.12577	0.05406
3645.19710	0.05445
3643.26842	0.05483
3641.33975	0.05506
3639.41107	0.05521
3637.48239	0.05531
3635.55372	0.05537
3633.62504	0.05540
3631.69637	0.05529
3629.76769	0.05512
3627.83902	0.05522
3625.91034	0.05558
3623.98166	0.05579
3622.05299	0.05575
3620.12431	0.05565
3618.19564	0.05567
3616.26696	0.05579
3614.33829	0.05588
3612.40961	0.05589
3610.48093	0.05586
3608.55226	0.05593
3606.62358	0.05617
3604.69491	0.05638
3602.76623	0.05646
3600.83756	0.05650
3598.90888	0.05657
3596.98020	0.05664
3595.05153	0.05672
3593.12285	0.05683
3591.19418	0.05685
3589.26550	0.05672
3587.33683	0.05666
3585.40815	0.05685
3583.47947	0.05712
3581.55080	0.05726
3579.62212	0.05733
3577.69345	0.05741
3575.76477	0.05750
3573.83610	0.05759
3571.90742	0.05761
3569.97874	0.05748
3568.05007	0.05738
3566.12139	0.05751
3564.19272	0.05778
3562.26404	0.05797
3560.33537	0.05808
3558.40669	0.05819
3556.47801	0.05828
3554.54934	0.05832
3552.62066	0.05837
3550.69199	0.05847
3548.76331	0.05851
3546.83464	0.05850
3544.90596	0.05856
3542.97728	0.05869
3541.04861	0.05882
3539.11993	0.05887
3537.19126	0.05889
3535.26258	0.05894
3533.33391	0.05902
3531.40523	0.05906
3529.47655	0.05905
3527.54788	0.05905
3525.61920	0.05906
3523.69053	0.05909
3521.76185	0.05918
3519.83318	0.05927
3517.90450	0.05934
3515.97582	0.05939
3514.04715	0.05944
3512.11847	0.05945
3510.18980	0.05946
3508.26112	0.05948
3506.33245	0.05950
3504.40377	0.05949
3502.47509	0.05952
3500.54642	0.05959
3498.61774	0.05964
3496.68907	0.05965
3494.76039	0.05967
3492.83172	0.05971
3490.90304	0.05973
3488.97436	0.05974
3487.04569	0.05973
3485.11701	0.05977
3483.18834	0.05983
3481.25966	0.05989
3479.33099	0.05997
3477.40231	0.06005
3475.47363	0.06012
3473.54496	0.06020
3471.61628	0.06029
3469.68761	0.06036
3467.75893	0.06045
3465.83026	0.06056
3463.90158	0.06068
3461.97290	0.06081
3460.04423	0.06092
3458.11555	0.06100
3456.18688	0.06107
3454.25820	0.06115
3452.32953	0.06124
3450.40085	0.06131
3448.47217	0.06137
3446.54350	0.06148
3444.61482	0.06165
3442.68615	0.06180
3440.75747	0.06191
3438.82880	0.06202
3436.90012	0.06217
3434.97144	0.06233
3433.04277	0.06252
3431.11409	0.06273
3429.18542	0.06293
3427.25674	0.06314
3425.32807	0.06333
3423.39939	0.06350
3421.47071	0.06366
3419.54204	0.06382
3417.61336	0.06400
3415.68469	0.06417
3413.75601	0.06432
3411.82734	0.06447
3409.89866	0.06463
3407.96998	0.06478
3406.04131	0.06489
3404.11263	0.06500
3402.18396	0.06513
3400.25528	0.06528
3398.32661	0.06541
3396.39793	0.06553
3394.46925	0.06567
3392.54058	0.06581
3390.61190	0.06597
3388.68323	0.06613
3386.75455	0.06626
3384.82588	0.06635
3382.89720	0.06648
3380.96852	0.06665
3379.03985	0.06681
3377.11117	0.06693
3375.18250	0.06705
3373.25382	0.06718
3371.32515	0.06728
3369.39647	0.06739
3367.46779	0.06751
3365.53912	0.06764
3363.61044	0.06776
3361.68177	0.06789
3359.75309	0.06802
3357.82442	0.06813
3355.89574	0.06823
3353.96706	0.06835
3352.03839	0.06849
3350.10971	0.06862
3348.18104	0.06877
3346.25236	0.06889
3344.32369	0.06900
3342.39501	0.06911
3340.46633	0.06923
3338.53766	0.06935
3336.60898	0.06946
3334.68031	0.06957
3332.75163	0.06970
3330.82296	0.06983
3328.89428	0.06995
3326.96560	0.07007
3325.03693	0.07021
3323.10825	0.07038
3321.17958	0.07053
3319.25090	0.07066
3317.32223	0.07077
3315.39355	0.07086
3313.46487	0.07096
3311.53620	0.07109
3309.60752	0.07123
3307.67885	0.07138
3305.75017	0.07151
3303.82150	0.07165
3301.89282	0.07178
3299.96414	0.07190
3298.03547	0.07199
3296.10679	0.07208
3294.17812	0.07221
3292.24944	0.07235
3290.32077	0.07250
3288.39209	0.07265
3286.46341	0.07277
3284.53474	0.07291
3282.60606	0.07306
3280.67739	0.07319
3278.74871	0.07328
3276.82004	0.07340
3274.89136	0.07354
3272.96268	0.07370
3271.03401	0.07387
3269.10533	0.07403
3267.17666	0.07419
3265.24798	0.07432
3263.31931	0.07443
3261.39063	0.07454
3259.46195	0.07466
3257.53328	0.07480
3255.60460	0.07494
3253.67593	0.07508
3251.74725	0.07519
3249.81858	0.07532
3247.88990	0.07548
3245.96122	0.07564
3244.03255	0.07578
3242.10387	0.07591
3240.17520	0.07604
3238.24652	0.07616
3236.31785	0.07628
3234.38917	0.07644
3232.46049	0.07662
3230.53182	0.07676
3228.60314	0.07687
3226.67447	0.07699
3224.74579	0.07710
3222.81712	0.07720
3220.88844	0.07732
3218.95976	0.07748
3217.03109	0.07761
3215.10241	0.07772
3213.17374	0.07784
3211.24506	0.07796
3209.31639	0.07811
3207.38771	0.07829
3205.45903	0.07846
3203.53036	0.07860
3201.60168	0.07872
3199.67301	0.07884
3197.74433	0.07898
3195.81566	0.07914
3193.88698	0.07932
3191.95830	0.07948
3190.02963	0.07959
3188.10095	0.07969
3186.17228	0.07981
3184.24360	0.07996
3182.31493	0.08012
3180.38625	0.08023
3178.45757	0.08037
3176.52890	0.08056
3174.60022	0.08074
3172.67155	0.08089
3170.74287	0.08102
3168.81420	0.08115
3166.88552	0.08128
3164.95684	0.08143
3163.02817	0.08160
3161.09949	0.08177
3159.17082	0.08192
3157.24214	0.08205
3155.31347	0.08216
3153.38479	0.08227
3151.45611	0.08237
3149.52744	0.08250
3147.59876	0.08267
3145.67009	0.08284
3143.74141	0.08299
3141.81274	0.08312
3139.88406	0.08324
3137.95538	0.08336
3136.02671	0.08350
3134.09803	0.08365
3132.16936	0.08380
3130.24068	0.08396
3128.31201	0.08410
3126.38333	0.08421
3124.45465	0.08433
3122.52598	0.08447
3120.59730	0.08465
3118.66863	0.08480
3116.73995	0.08490
3114.81128	0.08499
3112.88260	0.08513
3110.95392	0.08527
3109.02525	0.08540
3107.09657	0.08556
3105.16790	0.08572
3103.23922	0.08585
3101.31055	0.08599
3099.38187	0.08613
3097.45319	0.08629
3095.52452	0.08643
3093.59584	0.08655
3091.66717	0.08669
3089.73849	0.08686
3087.80982	0.08702
3085.88114	0.08717
3083.95246	0.08733
3082.02379	0.08748
3080.09511	0.08758
3078.16644	0.08767
3076.23776	0.08780
3074.30909	0.08794
3072.38041	0.08807
3070.45173	0.08822
3068.52306	0.08837
3066.59438	0.08851
3064.66571	0.08867
3062.73703	0.08883
3060.80836	0.08899
3058.87968	0.08911
3056.95100	0.08921
3055.02233	0.08937
3053.09365	0.08954
3051.16498	0.08969
3049.23630	0.08979
3047.30763	0.08988
3045.37895	0.09000
3043.45027	0.09015
3041.52160	0.09032
3039.59292	0.09048
3037.66425	0.09064
3035.73557	0.09078
3033.80690	0.09089
3031.87822	0.09099
3029.94954	0.09112
3028.02087	0.09126
3026.09219	0.09140
3024.16352	0.09158
3022.23484	0.09175
3020.30617	0.09188
3018.37749	0.09199
3016.44881	0.09211
3014.52014	0.09223
3012.59146	0.09235
3010.66279	0.09251
3008.73411	0.09268
3006.80544	0.09279
3004.87676	0.09288
3002.94808	0.09302
3001.01941	0.09319
2999.09073	0.09335
2997.16206	0.09349
2995.23338	0.09361
2993.30471	0.09373
2991.37603	0.09385
2989.44735	0.09399
2987.51868	0.09409
2985.59000	0.09417
2983.66133	0.09423
2981.73265	0.09430
2979.80398	0.09437
2977.87530	0.09440
2975.94662	0.09439
2974.01795	0.09439
2972.08927	0.09441
2970.16060	0.09443
2968.23192	0.09445
2966.30325	0.09447
2964.37457	0.09450
2962.44589	0.09458
2960.51722	0.09470
2958.58854	0.09486
2956.65987	0.09500
2954.73119	0.09516
2952.80252	0.09538
2950.87384	0.09560
2948.94516	0.09578
2947.01649	0.09593
2945.08781	0.09603
2943.15914	0.09608
2941.23046	0.09612
2939.30179	0.09613
2937.37311	0.09612
2935.44443	0.09611
2933.51576	0.09610
2931.58708	0.09609
2929.65841	0.09604
2927.72973	0.09596
2925.80106	0.09593
2923.87238	0.09595
2921.94370	0.09599
2920.01503	0.09603
2918.08635	0.09616
2916.15768	0.09644
2914.22900	0.09689
2912.30033	0.09742
2910.37165	0.09791
2908.44297	0.09826
2906.51430	0.09853
2904.58562	0.09879
2902.65695	0.09905
2900.72827	0.09930
2898.79960	0.09951
2896.87092	0.09969
2894.94224	0.09986
2893.01357	0.10003
2891.08489	0.10022
2889.15622	0.10041
2887.22754	0.10057
2885.29887	0.10074
2883.37019	0.10091
2881.44151	0.10107
2879.51284	0.10120
2877.58416	0.10132
2875.65549	0.10145
2873.72681	0.10158
2871.79814	0.10169
2869.86946	0.10183
2867.94078	0.10199
2866.01211	0.10212
2864.08343	0.10220
2862.15476	0.10225
2860.22608	0.10227
2858.29741	0.10228
2856.36873	0.10226
2854.44005	0.10225
2852.51138	0.10226
2850.58270	0.10236
2848.65403	0.10264
2846.72535	0.10309
2844.79668	0.10356
2842.86800	0.10398
2840.93932	0.10434
2839.01065	0.10465
2837.08197	0.10491
2835.15330	0.10509
2833.22462	0.10526
2831.29595	0.10548
2829.36727	0.10569
2827.43859	0.10585
2825.50992	0.10598
2823.58124	0.10612
2821.65257	0.10625
2819.72389	0.10637
2817.79522	0.10653
2815.86654	0.10672
2813.93786	0.10692
2812.00919	0.10709
2810.08051	0.10723
2808.15184	0.10738
2806.22316	0.10753
2804.29449	0.10770
2802.36581	0.10788
2800.43713	0.10804
2798.50846	0.10817
2796.57978	0.10830
2794.65111	0.10846
2792.72243	0.10864
2790.79376	0.10880
2788.86508	0.10894
2786.93640	0.10906
2785.00773	0.10922
2783.07905	0.10939
2781.15038	0.10956
2779.22170	0.10971
2777.29303	0.10984
2775.36435	0.11001
2773.43567	0.11016
2771.50700	0.11027
2769.57832	0.11039
2767.64965	0.11056
2765.72097	0.11075
2763.79230	0.11091
2761.86362	0.11103
2759.93494	0.11116
2758.00627	0.11133
2756.07759	0.11151
2754.14892	0.11167
2752.22024	0.11180
2750.29157	0.11193
2748.36289	0.11205
2746.43421	0.11218
2744.50554	0.11231
2742.57686	0.11244
2740.64819	0.11258
2738.71951	0.11274
2736.79084	0.11289
2734.86216	0.11303
2732.93348	0.11318
2731.00481	0.11334
2729.07613	0.11350
2727.14746	0.11365
2725.21878	0.11375
2723.29011	0.11387
2721.36143	0.11405
2719.43275	0.11422
2717.50408	0.11435
2715.57540	0.11450
2713.64673	0.11464
2711.71805	0.11475
2709.78938	0.11488
2707.86070	0.11506
2705.93202	0.11523
2704.00335	0.11538
2702.07467	0.11551
2700.14600	0.11565
2698.21732	0.11577
2696.28865	0.11588
2694.35997	0.11599
2692.43129	0.11616
2690.50262	0.11633
2688.57394	0.11648
2686.64527	0.11660
2684.71659	0.11675
2682.78792	0.11690
2680.85924	0.11703
2678.93056	0.11717
2677.00189	0.11732
2675.07321	0.11748
2673.14454	0.11765
2671.21586	0.11781
2669.28719	0.11795
2667.35851	0.11806
2665.42983	0.11816
2663.50116	0.11829
2661.57248	0.11847
2659.64381	0.11867
2657.71513	0.11885
2655.78646	0.11900
2653.85778	0.11914
2651.92910	0.11929
2650.00043	0.11943
2648.07175	0.11960
2646.14308	0.11977
2644.21440	0.11992
2642.28573	0.12006
2640.35705	0.12022
2638.42837	0.12039
2636.49970	0.12057
2634.57102	0.12072
2632.64235	0.12083
2630.71367	0.12096
2628.78500	0.12114
2626.85632	0.12131
2624.92764	0.12145
2622.99897	0.12160
2621.07029	0.12176
2619.14162	0.12190
2617.21294	0.12203
2615.28427	0.12220
2613.35559	0.12242
2611.42691	0.12261
2609.49824	0.12275
2607.56956	0.12286
2605.64089	0.12299
2603.71221	0.12318
2601.78354	0.12335
2599.85486	0.12350
2597.92618	0.12364
2595.99751	0.12378
2594.06883	0.12392
2592.14016	0.12406
2590.21148	0.12420
2588.28281	0.12435
2586.35413	0.12451
2584.42545	0.12468
2582.49678	0.12480
2580.56810	0.12492
2578.63943	0.12507
2576.71075	0.12525
2574.78208	0.12544
2572.85340	0.12561
2570.92472	0.12576
2568.99605	0.12590
2567.06737	0.12604
2565.13870	0.12620
2563.21002	0.12634
2561.28135	0.12647
2559.35267	0.12660
2557.42399	0.12674
2555.49532	0.12691
2553.56664	0.12704
2551.63797	0.12716
2549.70929	0.12733
2547.78062	0.12753
2545.85194	0.12772
2543.92326	0.12787
2541.99459	0.12801
2540.06591	0.12816
2538.13724	0.12831
2536.20856	0.12847
2534.27989	0.12863
2532.35121	0.12877
2530.42253	0.12888
2528.49386	0.12899
2526.56518	0.12913
2524.63651	0.12930
2522.70783	0.12945
2520.77916	0.12960
2518.85048	0.12976
2516.92181	0.12992
2514.99313	0.13010
2513.06445	0.13029
2511.13578	0.13046
2509.20710	0.13061
2507.27843	0.13076
2505.34975	0.13093
2503.42108	0.13110
2501.49240	0.13127
2499.56372	0.13143
2497.63505	0.13156
2495.70637	0.13168
2493.77770	0.13184
2491.84902	0.13205
2489.92035	0.13226
2487.99167	0.13243
2486.06299	0.13258
2484.13432	0.13271
2482.20564	0.13283
2480.27697	0.13296
2478.34829	0.13314
2476.41962	0.13336
2474.49094	0.13360
2472.56226	0.13380
2470.63359	0.13397
2468.70491	0.13410
2466.77624	0.13420
2464.84756	0.13432
2462.91889	0.13451
2460.99021	0.13471
2459.06153	0.13489
2457.13286	0.13505
2455.20418	0.13520
2453.27551	0.13534
2451.34683	0.13551
2449.41816	0.13569
2447.48948	0.13586
2445.56080	0.13603
2443.63213	0.13620
2441.70345	0.13638
2439.77478	0.13655
2437.84610	0.13669
2435.91743	0.13683
2433.98875	0.13701
2432.06007	0.13719
2430.13140	0.13734
2428.20272	0.13748
2426.27405	0.13761
2424.34537	0.13774
2422.41670	0.13788
2420.48802	0.13803
2418.55934	0.13822
2416.63067	0.13841
2414.70199	0.13856
2412.77332	0.13871
2410.84464	0.13891
2408.91597	0.13911
2406.98729	0.13926
2405.05861	0.13939
2403.12994	0.13956
2401.20126	0.13976
2399.27259	0.13990
2397.34391	0.13998
2395.41524	0.14008
2393.48656	0.14024
2391.55788	0.14041
2389.62921	0.14057
2387.70053	0.14072
2385.77186	0.14086
2383.84318	0.14102
2381.91451	0.14118
2379.98583	0.14128
2378.05715	0.14132
2376.12848	0.14136
2374.19980	0.14141
2372.27113	0.14147
2370.34245	0.14152
2368.41378	0.14156
2366.48510	0.14160
2364.55642	0.14166
2362.62775	0.14175
2360.69907	0.14191
2358.77040	0.14214
2356.84172	0.14240
2354.91305	0.14266
2352.98437	0.14295
2351.05569	0.14327
2349.12702	0.14355
2347.19834	0.14368
2345.26967	0.14372
2343.34099	0.14379
2341.41232	0.14391
2339.48364	0.14402
2337.55496	0.14413
2335.62629	0.14428
2333.69761	0.14445
2331.76894	0.14461
2329.84026	0.14475
2327.91159	0.14490
2325.98291	0.14509
2324.05423	0.14533
2322.12556	0.14560
2320.19688	0.14586
2318.26821	0.14606
2316.33953	0.14625
2314.41086	0.14647
2312.48218	0.14669
2310.55350	0.14690
2308.62483	0.14709
2306.69615	0.14730
2304.76748	0.14749
2302.83880	0.14767
2300.91013	0.14786
2298.98145	0.14803
2297.05277	0.14818
2295.12410	0.14833
2293.19542	0.14849
2291.26675	0.14864
2289.33807	0.14879
2287.40940	0.14896
2285.48072	0.14915
2283.55204	0.14930
2281.62337	0.14941
2279.69469	0.14957
2277.76602	0.14977
2275.83734	0.14995
2273.90867	0.15010
2271.97999	0.15026
2270.05131	0.15044
2268.12264	0.15062
2266.19396	0.15079
2264.26529	0.15096
2262.33661	0.15110
2260.40794	0.15122
2258.47926	0.15135
2256.55058	0.15152
2254.62191	0.15169
2252.69323	0.15186
2250.76456	0.15201
2248.83588	0.15215
2246.90721	0.15229
2244.97853	0.15244
2243.04985	0.15261
2241.12118	0.15276
2239.19250	0.15288
2237.26383	0.15300
2235.33515	0.15315
2233.40648	0.15333
2231.47780	0.15352
2229.54912	0.15369
2227.62045	0.15385
2225.69177	0.15401
2223.76310	0.15420
2221.83442	0.15439
2219.90575	0.15456
2217.97707	0.15471
2216.04839	0.15487
2214.11972	0.15502
2212.19104	0.15515
2210.26237	0.15528
2208.33369	0.15542
2206.40502	0.15555
2204.47634	0.15566
2202.54766	0.15577
2200.61899	0.15594
2198.69031	0.15615
2196.76164	0.15635
2194.83296	0.15650
2192.90429	0.15663
2190.97561	0.15678
2189.04693	0.15692
2187.11826	0.15704
2185.18958	0.15720
2183.26091	0.15738
2181.33223	0.15753
2179.40356	0.15766
2177.47488	0.15781
2175.54620	0.15799
2173.61753	0.15818
2171.68885	0.15836
2169.76018	0.15855
2167.83150	0.15870
2165.90283	0.15881
2163.97415	0.15893
2162.04547	0.15910
2160.11680	0.15930
2158.18812	0.15947
2156.25945	0.15966
2154.33077	0.15985
2152.40210	0.15999
2150.47342	0.16009
2148.54474	0.16025
2146.61607	0.16043
2144.68739	0.16062
2142.75872	0.16080
2140.83004	0.16096
2138.90137	0.16108
2136.97269	0.16120
2135.04401	0.16137
2133.11534	0.16157
2131.18666	0.16176
2129.25799	0.16194
2127.32931	0.16210
2125.40064	0.16227
2123.47196	0.16244
2121.54328	0.16261
2119.61461	0.16273
2117.68593	0.16283
2115.75726	0.16298
2113.82858	0.16318
2111.89991	0.16336
2109.97123	0.16351
2108.04255	0.16370
2106.11388	0.16391
2104.18520	0.16409
2102.25653	0.16422
2100.32785	0.16433
2098.39918	0.16446
2096.47050	0.16465
2094.54182	0.16484
2092.61315	0.16500
2090.68447	0.16512
2088.75580	0.16526
2086.82712	0.16544
2084.89845	0.16563
2082.96977	0.16581
2081.04109	0.16594
2079.11242	0.16606
2077.18374	0.16624
2075.25507	0.16642
2073.32639	0.16657
2071.39772	0.16672
2069.46904	0.16687
2067.54036	0.16701
2065.61169	0.16720
2063.68301	0.16744
2061.75434	0.16764
2059.82566	0.16775
2057.89699	0.16786
2055.96831	0.16801
2054.03963	0.16817
2052.11096	0.16832
2050.18228	0.16851
2048.25361	0.16870
2046.32493	0.16889
2044.39626	0.16909
2042.46758	0.16927
2040.53890	0.16942
2038.61023	0.16959
2036.68155	0.16975
2034.75288	0.16989
2032.82420	0.17002
2030.89553	0.17018
2028.96685	0.17036
2027.03817	0.17053
2025.10950	0.17068
2023.18082	0.17083
2021.25215	0.17102
2019.32347	0.17119
2017.39480	0.17132
2015.46612	0.17150
2013.53744	0.17171
2011.60877	0.17186
2009.68009	0.17199
2007.75142	0.17214
2005.82274	0.17231
2003.89407	0.17249
2001.96539	0.17266
2000.03671	0.17281
1998.10804	0.17293
1996.17936	0.17305
1994.25069	0.17314
1992.32201	0.17322
1990.39334	0.17333
1988.46466	0.17349
1986.53598	0.17371
1984.60731	0.17391
1982.67863	0.17407
1980.74996	0.17420
1978.82128	0.17435
1976.89261	0.17451
1974.96393	0.17465
1973.03525	0.17476
1971.10658	0.17487
1969.17790	0.17498
1967.24923	0.17509
1965.32055	0.17526
1963.39188	0.17544
1961.46320	0.17562
1959.53452	0.17579
1957.60585	0.17596
1955.67717	0.17613
1953.74850	0.17630
1951.81982	0.17647
1949.89115	0.17665
1947.96247	0.17678
1946.03379	0.17685
1944.10512	0.17693
1942.17644	0.17707
1940.24777	0.17730
1938.31909	0.17756
1936.39042	0.17775
1934.46174	0.17790
1932.53306	0.17803
1930.60439	0.17817
1928.67571	0.17834
1926.74704	0.17850
1924.81836	0.17861
1922.88969	0.17868
1920.96101	0.17875
1919.03233	0.17883
1917.10366	0.17906
1915.17498	0.17942
1913.24631	0.17964
1911.31763	0.17972
1909.38896	0.17984
1907.46028	0.18003
1905.53160	0.18024
1903.60293	0.18041
1901.67425	0.18058
1899.74558	0.18076
1897.81690	0.18091
1895.88823	0.18105
1893.95955	0.18121
1892.03087	0.18132
1890.10220	0.18141
1888.17352	0.18160
1886.24485	0.18182
1884.31617	0.18198
1882.38750	0.18214
1880.45882	0.18231
1878.53014	0.18245
1876.60147	0.18261
1874.67279	0.18279
1872.74412	0.18287
1870.81544	0.18275
1868.88677	0.18267
1866.95809	0.18294
1865.02941	0.18342
1863.10074	0.18373
1861.17206	0.18387
1859.24339	0.18403
1857.31471	0.18422
1855.38604	0.18443
1853.45736	0.18463
1851.52868	0.18476
1849.60001	0.18479
1847.67133	0.18465
1845.74266	0.18436
1843.81398	0.18439
1841.88531	0.18494
1839.95663	0.18547
1838.02795	0.18570
1836.09928	0.18590
1834.17060	0.18605
1832.24193	0.18598
1830.31325	0.18582
1828.38458	0.18587
1826.45590	0.18608
1824.52722	0.18641
1822.59855	0.18687
1820.66987	0.18719
1818.74120	0.18730
1816.81252	0.18742
1814.88385	0.18758
1812.95517	0.18761
1811.02649	0.18760
1809.09782	0.18783
1807.16914	0.18816
1805.24047	0.18824
1803.31179	0.18807
1801.38312	0.18800
1799.45444	0.18823
1797.52576	0.18851
1795.59709	0.18861
1793.66841	0.18855
1791.73974	0.18856
1789.81106	0.18887
1787.88239	0.18926
1785.95371	0.18945
1784.02503	0.18950
1782.09636	0.18954
1780.16768	0.18966
1778.23901	0.18987
1776.31033	0.18986
1774.38166	0.18959
1772.45298	0.18940
1770.52430	0.18943
1768.59563	0.18965
1766.66695	0.19013
1764.73828	0.19057
1762.80960	0.19068
1760.88093	0.19070
1758.95225	0.19065
1757.02357	0.19058
1755.09490	0.19070
1753.16622	0.19070
1751.23755	0.19040
1749.30887	0.19024
1747.38020	0.19040
1745.45152	0.19063
1743.52284	0.19074
1741.59417	0.19078
1739.66549	0.19080
1737.73682	0.19062
1735.80814	0.19005
1733.87947	0.18972
1731.95079	0.19012
1730.02211	0.19076
1728.09344	0.19134
1726.16476	0.19175
1724.23609	0.19190
1722.30741	0.19179
1720.37874	0.19133
1718.45006	0.19090
1716.52138	0.19102
1714.59271	0.19162
1712.66403	0.19232
1710.73536	0.19275
1708.80668	0.19272
1706.87801	0.19255
1704.94933	0.19251
1703.02065	0.19221
1701.09198	0.19157
1699.16330	0.19133
1697.23463	0.19145
1695.30595	0.19185
1693.37728	0.19269
1691.44860	0.19325
1689.51992	0.19316
1687.59125	0.19274
1685.66257	0.19218
1683.73390	0.19206
1681.80522	0.19258
1679.87655	0.19314
1677.94787	0.19339
1676.01919	0.19345
1674.09052	0.19345
1672.16184	0.19319
1670.23317	0.19276
1668.30449	0.19293
1666.37582	0.19358
1664.44714	0.19388
1662.51846	0.19392
1660.58979	0.19408
1658.66111	0.19416
1656.73244	0.19363
1654.80376	0.19261
1652.87509	0.19235
1650.94641	0.19316
1649.01773	0.19359
1647.08906	0.19334
1645.16038	0.19350
1643.23171	0.19410
1641.30303	0.19443
1639.37436	0.19427
1637.44568	0.19377
1635.51700	0.19354
1633.58833	0.19404
1631.65965	0.19465
1629.73098	0.19470
1627.80230	0.19448
1625.87363	0.19415
1623.94495	0.19371
1622.01627	0.19355
1620.08760	0.19369
1618.15892	0.19397
1616.23025	0.19456
1614.30157	0.19533
1612.37290	0.19587
1610.44422	0.19612
1608.51554	0.19627
1606.58687	0.19651
1604.65819	0.19684
1602.72952	0.19715
1600.80084	0.19743
1598.87217	0.19766
1596.94349	0.19773
1595.01481	0.19775
1593.08614	0.19789
1591.15746	0.19811
1589.22879	0.19833
1587.30011	0.19852
1585.37144	0.19869
1583.44276	0.19886
1581.51408	0.19903
1579.58541	0.19905
1577.65673	0.19890
1575.72806	0.19892
1573.79938	0.19914
1571.87071	0.19906
1569.94203	0.19888
1568.01335	0.19919
1566.08468	0.19972
1564.15600	0.19997
1562.22733	0.19963
1560.29865	0.19869
1558.36998	0.19812
1556.44130	0.19865
1554.51262	0.19953
1552.58395	0.20011
1550.65527	0.20042
1548.72660	0.20068
1546.79792	0.20080
1544.86925	0.20053
1542.94057	0.20000
1541.01189	0.19955
1539.08322	0.19972
1537.15454	0.20053
1535.22587	0.20112
1533.29719	0.20126
1531.36852	0.20137
1529.43984	0.20145
1527.51116	0.20145
1525.58249	0.20145
1523.65381	0.20115
1521.72514	0.20062
1519.79646	0.20052
1517.86779	0.20085
1515.93911	0.20122
1514.01043	0.20145
1512.08176	0.20143
1510.15308	0.20119
1508.22441	0.20100
1506.29573	0.20134
1504.36706	0.20211
1502.43838	0.20262
1500.50970	0.20264
1498.58103	0.20247
1496.65235	0.20249
1494.72368	0.20265
1492.79500	0.20248
1490.86633	0.20192
1488.93765	0.20169
1487.00897	0.20202
1485.08030	0.20238
1483.15162	0.20239
1481.22295	0.20220
1479.29427	0.20197
1477.36560	0.20159
1475.43692	0.20099
1473.50824	0.20048
1471.57957	0.20036
1469.65089	0.20043
1467.72222	0.20027
1465.79354	0.19996
1463.86487	0.19974
1461.93619	0.19944
1460.00751	0.19877
1458.07884	0.19810
1456.15016	0.19803
1454.22149	0.19853
1452.29281	0.19897
1450.36414	0.19905
1448.43546	0.19901
1446.50678	0.19919
1444.57811	0.19950
1442.64943	0.19973
1440.72076	0.19973
1438.79208	0.19935
1436.86341	0.19905
1434.93473	0.19939
1433.00605	0.19996
1431.07738	0.20028
1429.14870	0.20052
1427.22003	0.20065
1425.29135	0.20056
1423.36268	0.20042
1421.43400	0.20023
1419.50532	0.19999
1417.57665	0.20011
1415.64797	0.20064
1413.71930	0.20101
1411.79062	0.20106
1409.86195	0.20104
1407.93327	0.20096
1406.00459	0.20079
1404.07592	0.20076
1402.14724	0.20083
1400.21857	0.20066
1398.28989	0.20031
1396.36122	0.20010
1394.43254	0.20017
1392.50386	0.20046
1390.57519	0.20053
1388.64651	0.20015
1386.71784	0.19977
1384.78916	0.19973
1382.86049	0.19985
1380.93181	0.19991
1379.00313	0.19983
1377.07446	0.19962
1375.14578	0.19948
1373.21711	0.19954
1371.28843	0.19971
1369.35976	0.19980
1367.43108	0.19977
1365.50240	0.19954
1363.57373	0.19929
1361.64505	0.19939
1359.71638	0.19972
1357.78770	0.19992
1355.85903	0.19999
1353.93035	0.20004
1352.00167	0.20010
1350.07300	0.20020
1348.14432	0.20038
1346.21565	0.20054
1344.28697	0.20052
1342.35830	0.20026
1340.42962	0.19994
1338.50094	0.19984
1336.57227	0.19993
1334.64359	0.20008
1332.71492	0.20014
1330.78624	0.20009
1328.85757	0.20000
1326.92889	0.19988
1325.00021	0.19967
1323.07154	0.19942
1321.14286	0.19919
1319.21419	0.19898
1317.28551	0.19882
1315.35684	0.19867
1313.42816	0.19847
1311.49948	0.19830
1309.57081	0.19818
1307.64213	0.19802
1305.71346	0.19780
1303.78478	0.19754
1301.85611	0.19727
1299.92743	0.19706
1297.99875	0.19689
1296.07008	0.19669
1294.14140	0.19649
1292.21273	0.19633
1290.28405	0.19615
1288.35538	0.19591
1286.42670	0.19569
1284.49802	0.19552
1282.56935	0.19533
1280.64067	0.19509
1278.71200	0.19479
1276.78332	0.19441
1274.85465	0.19395
1272.92597	0.19342
1270.99729	0.19279
1269.06862	0.19205
1267.13994	0.19116
1265.21127	0.19026
1263.28259	0.18960
1261.35392	0.18933
1259.42524	0.18937
1257.49656	0.18961
1255.56789	0.18986
1253.63921	0.18998
1251.71054	0.18989
1249.78186	0.18961
1247.85319	0.18927
1245.92451	0.18893
1243.99583	0.18853
1242.06716	0.18805
1240.13848	0.18758
1238.20981	0.18713
1236.28113	0.18663
1234.35246	0.18607
1232.42378	0.18545
1230.49510	0.18485
1228.56643	0.18429
1226.63775	0.18377
1224.70908	0.18323
1222.78040	0.18270
1220.85173	0.18227
1218.92305	0.18189
1216.99437	0.18142
1215.06570	0.18087
1213.13702	0.18032
1211.20835	0.17980
1209.27967	0.17926
1207.35100	0.17867
1205.42232	0.17805
1203.49364	0.17744
1201.56497	0.17687
1199.63629	0.17632
1197.70762	0.17576
1195.77894	0.17513
1193.85027	0.17446
1191.92159	0.17378
1189.99291	0.17309
1188.06424	0.17231
1186.13556	0.17149
1184.20689	0.17064
1182.27821	0.16981
1180.34954	0.16900
1178.42086	0.16818
1176.49218	0.16738
1174.56351	0.16659
1172.63483	0.16578
1170.70616	0.16499
1168.77748	0.16417
1166.84881	0.16325
1164.92013	0.16227
1162.99145	0.16132
1161.06278	0.16048
1159.13410	0.15974
1157.20543	0.15900
1155.27675	0.15818
1153.34808	0.15737
1151.41940	0.15660
1149.49072	0.15583
1147.56205	0.15504
1145.63337	0.15419
1143.70470	0.15328
1141.77602	0.15236
1139.84735	0.15145
1137.91867	0.15046
1135.98999	0.14927
1134.06132	0.14786
1132.13264	0.14625
1130.20397	0.14441
1128.27529	0.14235
1126.34662	0.14011
1124.41794	0.13778
1122.48926	0.13544
1120.56059	0.13319
1118.63191	0.13101
1116.70324	0.12892
1114.77456	0.12703
1112.84589	0.12549
1110.91721	0.12426
1108.98853	0.12327
1107.05986	0.12255
1105.13118	0.12212
1103.20251	0.12194
1101.27383	0.12202
1099.34516	0.12238
1097.41648	0.12299
1095.48780	0.12373
1093.55913	0.12459
1091.63045	0.12549
1089.70178	0.12625
1087.77310	0.12686
1085.84443	0.12745
1083.91575	0.12798
1081.98707	0.12841
1080.05840	0.12875
1078.12972	0.12898
1076.20105	0.12914
1074.27237	0.12927
1072.34370	0.12936
1070.41502	0.12945
1068.48634	0.12957
1066.55767	0.12975
1064.62899	0.12996
1062.70032	0.13013
1060.77164	0.13031
1058.84297	0.13059
1056.91429	0.13095
1054.98561	0.13127
1053.05694	0.13154
1051.12826	0.13189
1049.19959	0.13222
1047.27091	0.13249
1045.34224	0.13283
1043.41356	0.13329
1041.48488	0.13374
1039.55621	0.13409
1037.62753	0.13443
1035.69886	0.13480
1033.77018	0.13517
1031.84151	0.13556
1029.91283	0.13595
1027.98415	0.13630
1026.05548	0.13662
1024.12680	0.13693
1022.19813	0.13726
1020.26945	0.13766
1018.34078	0.13812
1016.41210	0.13866
1014.48342	0.13919
1012.55475	0.13971
1010.62607	0.14027
1008.69740	0.14089
1006.76872	0.14148
1004.84005	0.14201
1002.91137	0.14243
1000.98269	0.14270
999.05402	0.14288
997.12534	0.14308
995.19667	0.14335
993.26799	0.14357
991.33932	0.14364
989.41064	0.14371
987.48196	0.14382
985.55329	0.14390
983.62461	0.14391
981.69594	0.14383
979.76726	0.14364
977.83859	0.14347
975.90991	0.14336
973.98123	0.14325
972.05256	0.14309
970.12388	0.14295
968.19521	0.14283
966.26653	0.14269
964.33786	0.14246
962.40918	0.14218
960.48050	0.14195
958.55183	0.14184
956.62315	0.14180
954.69448	0.14166
952.76580	0.14143
950.83713	0.14125
948.90845	0.14111
946.97977	0.14091
945.05110	0.14065
943.12242	0.14032
941.19375	0.13995
939.26507	0.13956
937.33640	0.13915
935.40772	0.13872
933.47904	0.13827
931.55037	0.13780
929.62169	0.13729
927.69302	0.13675
925.76434	0.13619
923.83567	0.13559
921.90699	0.13498
919.97831	0.13437
918.04964	0.13376
916.12096	0.13311
914.19229	0.13234
912.26361	0.13154
910.33494	0.13082
908.40626	0.13010
906.47758	0.12938
904.54891	0.12880
902.62023	0.12827
900.69156	0.12768
898.76288	0.12708
896.83421	0.12654
894.90553	0.12603
892.97685	0.12558
891.04818	0.12516
889.11950	0.12471
887.19083	0.12425
885.26215	0.12380
883.33348	0.12339
881.40480	0.12307
879.47612	0.12285
877.54745	0.12262
875.61877	0.12238
873.69010	0.12213
871.76142	0.12183
869.83275	0.12155
867.90407	0.12134
865.97539	0.12115
864.04672	0.12095
862.11804	0.12082
860.18937	0.12076
858.26069	0.12070
856.33202	0.12058
854.40334	0.12038
852.47466	0.12016
850.54599	0.11998
848.61731	0.11977
846.68864	0.11944
844.75996	0.11906
842.83129	0.11881
840.90261	0.11863
838.97394	0.11837
837.04526	0.11794
835.11658	0.11735
833.18791	0.11662
831.25923	0.11571
829.33056	0.11466
827.40188	0.11360
825.47321	0.11260
823.54453	0.11169
821.61585	0.11086
819.68718	0.11013
817.75850	0.10956
815.82983	0.10920
813.90115	0.10893
811.97248	0.10864
810.04380	0.10832
808.11512	0.10811
806.18645	0.10800
804.25777	0.10792
802.32910	0.10783
800.40042	0.10759
798.47175	0.10711
796.54307	0.10651
794.61439	0.10596
792.68572	0.10557
790.75704	0.10536
788.82837	0.10524
786.89969	0.10509
784.97102	0.10483
783.04234	0.10452
781.11366	0.10421
779.18499	0.10387
777.25631	0.10351
775.32764	0.10319
773.39896	0.10291
771.47029	0.10263
769.54161	0.10231
767.61293	0.10195
765.68426	0.10153
763.75558	0.10110
761.82691	0.10069
759.89823	0.10025
757.96956	0.09974
756.04088	0.09917
754.11220	0.09854
752.18353	0.09787
750.25485	0.09721
748.32618	0.09649
746.39750	0.09568
744.46883	0.09482
742.54015	0.09392
740.61147	0.09312
738.68280	0.09262
736.75412	0.09240
734.82545	0.09232
732.89677	0.09241
730.96810	0.09257
729.03942	0.09269
727.11074	0.09274
725.18207	0.09272
723.25339	0.09277
721.32472	0.09293
719.39604	0.09314
717.46737	0.09337
715.53869	0.09377
713.61001	0.09428
711.68134	0.09468
709.75266	0.09486
707.82399	0.09498
705.89531	0.09510
703.96664	0.09502
702.03796	0.09467
700.10928	0.09418
698.18061	0.09364
696.25193	0.09304
694.32326	0.09240
692.39458	0.09178
690.46591	0.09123
688.53723	0.09076
686.60855	0.09037
684.67988	0.08998
682.75120	0.08949
680.82253	0.08886
678.89385	0.08822
676.96518	0.08766
675.03650	0.08711
673.10782	0.08642
671.17915	0.08557
669.25047	0.08466
667.32180	0.08381
665.39312	0.08307
663.46445	0.08233
661.53577	0.08153
659.60709	0.08067
657.67842	0.07982
655.74974	0.07901
653.82107	0.07824
651.89239	0.07743
649.96372	0.07656
648.03504	0.07566
646.10636	0.07485
644.17769	0.07401
642.24901	0.07301
640.32034	0.07191
638.39166	0.07087
636.46299	0.06988
634.53431	0.06882
632.60563	0.06737
630.67696	0.06509
628.74828	0.06170
626.81961	0.05736
624.89093	0.05293
622.96226	0.04937
621.03358	0.04706
619.10490	0.04586
617.17623	0.04516
615.24755	0.04437
613.31888	0.04336
611.39020	0.04233
609.46153	0.04182
607.53285	0.04197
605.60417	0.04238
603.67550	0.04287
601.74682	0.04359
599.81815	0.04459
597.88947	0.04556
595.96080	0.04617
594.03212	0.04641
592.10344	0.04654
590.17477	0.04672
588.24609	0.04682
586.31742	0.04669
584.38874	0.04637
582.46007	0.04599
580.53139	0.04566
578.60271	0.04531
576.67404	0.04486
574.74536	0.04429
572.81669	0.04369
570.88801	0.04309
568.95934	0.04248
567.03066	0.04190
565.10198	0.04149
563.17331	0.04117
561.24463	0.04086
559.31596	0.04064
557.38728	0.04046
555.45861	0.04021
553.52993	0.03995
551.60125	0.03979
549.67258	0.03967
547.74390	0.03953
545.81523	0.03939
543.88655	0.03925
541.95788	0.03905
540.02920	0.03883
538.10052	0.03870
536.17185	0.03870
534.24317	0.03861
532.31450	0.03826
530.38582	0.03780
528.45715	0.03741
526.52847	0.03712
524.59979	0.03687
522.67112	0.03653
520.74244	0.03604
518.81377	0.03545
516.88509	0.03482
514.95642	0.03425
513.02774	0.03388
511.09906	0.03371
509.17039	0.03359
507.24171	0.03341
505.31304	0.03310
503.38436	0.03263
501.45569	0.03211
499.52701	0.03164
497.59833	0.03121
495.66966	0.03078
493.74098	0.03023
491.81231	0.02962
489.88363	0.02912
487.95496	0.02869
486.02628	0.02815
484.09760	0.02753
482.16893	0.02696
480.24025	0.02644
478.31158	0.02596
476.38290	0.02550
474.45423	0.02499
472.52555	0.02447
470.59687	0.02404
468.66820	0.02365
466.73952	0.02321
464.81085	0.02279
462.88217	0.02251
460.95350	0.02237
459.02482	0.02233
457.09614	0.02234
455.16747	0.02238
453.23879	0.02243
451.31012	0.02240
449.38144	0.02222
447.45277	0.02202
445.52409	0.02194
443.59541	0.02179
441.66674	0.02143
439.73806	0.02100
437.80939	0.02062
435.88071	0.02023
433.95204	0.01984
432.02336	0.01946
430.09468	0.01895
428.16601	0.01826
426.23733	0.01748
424.30866	0.01679
422.37998	0.01616
420.45131	0.01542
418.52263	0.01468
416.59395	0.01409
414.66528	0.01352
412.73660	0.01293
410.80793	0.01237
408.87925	0.01181
406.95058	0.01120
405.02190	0.01060
403.09322	0.01002
401.16455	0.00942
399.23587	0.00881
397.30720	0.00823
395.37852	0.00783
393.44985	0.00751
391.52117	0.00703
389.59249	0.00644
387.66382	0.00586
385.73514	0.00537
383.80647	0.00497
381.87779	0.00467
379.94912	0.00441
378.02044	0.00407
376.09176	0.00367
374.16309	0.00328
372.23441	0.00292
370.30574	0.00255
368.37706	0.00232
