7496.76250	0.00118
7494.83382	0.00118
7492.90514	0.00118
7490.97647	0.00118
7489.04779	0.00119
7487.11912	0.00118
7485.19044	0.00117
7483.26177	0.00117
7481.33309	0.00118
7479.40441	0.00118
7477.47574	0.00120
7475.54706	0.00121
7473.61839	0.00122
7471.68971	0.00123
7469.76104	0.00123
7467.83236	0.00122
7465.90368	0.00123
7463.97501	0.00124
7462.04633	0.00124
7460.11766	0.00123
7458.18898	0.00124
7456.26031	0.00124
7454.33163	0.00124
7452.40295	0.00125
7450.47428	0.00125
7448.54560	0.00124
7446.61693	0.00125
7444.68825	0.00126
7442.75958	0.00127
7440.83090	0.00128
7438.90222	0.00128
7436.97355	0.00127
7435.04487	0.00126
7433.11620	0.00126
7431.18752	0.00128
7429.25885	0.00129
7427.33017	0.00130
7425.40149	0.00131
7423.47282	0.00130
7421.54414	0.00129
7419.61547	0.00130
7417.68679	0.00130
7415.75812	0.00131
7413.82944	0.00132
7411.90076	0.00133
7409.97209	0.00133
7408.04341	0.00132
7406.11474	0.00132
7404.18606	0.00133
7402.25739	0.00133
7400.32871	0.00131
7398.40003	0.00130
7396.47136	0.00131
7394.54268	0.00135
7392.61401	0.00136
7390.68533	0.00136
7388.75666	0.00135
7386.82798	0.00135
7384.89930	0.00135
7382.97063	0.00136
7381.04195	0.00136
7379.11328	0.00137
7377.18460	0.00138
7375.25593	0.00138
7373.32725	0.00138
7371.39857	0.00139
7369.46990	0.00140
7367.54122	0.00141
7365.61255	0.00142
7363.68387	0.00143
7361.75520	0.00142
7359.82652	0.00141
7357.89784	0.00140
7355.96917	0.00140
7354.04049	0.00141
7352.11182	0.00142
7350.18314	0.00142
7348.25447	0.00143
7346.32579	0.00145
7344.39711	0.00147
7342.46844	0.00147
7340.53976	0.00146
7338.61109	0.00146
7336.68241	0.00146
7334.75374	0.00145
7332.82506	0.00145
7330.89638	0.00145
7328.96771	0.00147
7327.03903	0.00148
7325.11036	0.00147
7323.18168	0.00147
7321.25301	0.00147
7319.32433	0.00147
7317.39565	0.00146
7315.46698	0.00145
7313.53830	0.00146
7311.60963	0.00148
7309.68095	0.00149
7307.75228	0.00150
7305.82360	0.00151
7303.89492	0.00152
7301.96625	0.00153
7300.03757	0.00154
7298.10890	0.00154
7296.18022	0.00154
7294.25155	0.00153
7292.32287	0.00154
7290.39419	0.00154
7288.46552	0.00154
7286.53684	0.00155
7284.60817	0.00156
7282.67949	0.00156
7280.75082	0.00157
7278.82214	0.00158
7276.89346	0.00157
7274.96479	0.00156
7273.03611	0.00155
7271.10744	0.00156
7269.17876	0.00158
7267.25009	0.00159
7265.32141	0.00160
7263.39273	0.00160
7261.46406	0.00159
7259.53538	0.00158
7257.60671	0.00157
7255.67803	0.00158
7253.74936	0.00159
7251.82068	0.00162
7249.89200	0.00163
7247.96333	0.00163
7246.03465	0.00161
7244.10598	0.00160
7242.17730	0.00160
7240.24863	0.00161
7238.31995	0.00162
7236.39127	0.00162
7234.46260	0.00162
7232.53392	0.00162
7230.60525	0.00163
7228.67657	0.00164
7226.74790	0.00166
7224.81922	0.00167
7222.89054	0.00168
7220.96187	0.00167
7219.03319	0.00166
7217.10452	0.00166
7215.17584	0.00168
7213.24717	0.00169
7211.31849	0.00169
7209.38981	0.00170
7207.46114	0.00171
7205.53246	0.00170
7203.60379	0.00168
7201.67511	0.00168
7199.74644	0.00169
7197.81776	0.00170
7195.88908	0.00170
7193.96041	0.00170
7192.03173	0.00171
7190.10306	0.00172
7188.17438	0.00172
7186.24571	0.00172
7184.31703	0.00173
7182.38835	0.00173
7180.45968	0.00173
7178.53100	0.00173
7176.60233	0.00172
7174.67365	0.00173
7172.74498	0.00175
7170.81630	0.00176
7168.88762	0.00176
7166.95895	0.00177
7165.03027	0.00177
7163.10160	0.00176
7161.17292	0.00176
7159.24425	0.00177
7157.31557	0.00179
7155.38689	0.00182
7153.45822	0.00182
7151.52954	0.00182
7149.60087	0.00182
7147.67219	0.00181
7145.74352	0.00179
7143.81484	0.00180
7141.88616	0.00182
7139.95749	0.00183
7138.02881	0.00184
7136.10014	0.00185
7134.17146	0.00186
7132.24279	0.00186
7130.31411	0.00185
7128.38543	0.00186
7126.45676	0.00187
7124.52808	0.00187
7122.59941	0.00187
7120.67073	0.00186
7118.74206	0.00186
7116.81338	0.00186
7114.88470	0.00187
7112.95603	0.00189
7111.02735	0.00192
7109.09868	0.00193
7107.17000	0.00192
7105.24133	0.00191
7103.31265	0.00190
7101.38397	0.00192
7099.45530	0.00193
7097.52662	0.00194
7095.59795	0.00193
7093.66927	0.00193
7091.74060	0.00192
7089.81192	0.00192
7087.88324	0.00193
7085.95457	0.00194
7084.02589	0.00195
7082.09722	0.00194
7080.16854	0.00194
7078.23987	0.00195
7076.31119	0.00196
7074.38251	0.00196
7072.45384	0.00197
7070.52516	0.00197
7068.59649	0.00197
7066.66781	0.00197
7064.73914	0.00198
7062.81046	0.00198
7060.88178	0.00199
7058.95311	0.00200
7057.02443	0.00203
7055.09576	0.00203
7053.16708	0.00202
7051.23841	0.00202
7049.30973	0.00203
7047.38105	0.00203
7045.45238	0.00202
7043.52370	0.00202
7041.59503	0.00204
7039.66635	0.00205
7037.73768	0.00206
7035.80900	0.00206
7033.88032	0.00205
7031.95165	0.00205
7030.02297	0.00205
7028.09430	0.00204
7026.16562	0.00205
7024.23695	0.00206
7022.30827	0.00208
7020.37959	0.00209
7018.45092	0.00210
7016.52224	0.00210
7014.59357	0.00210
7012.66489	0.00208
7010.73622	0.00208
7008.80754	0.00210
7006.87886	0.00212
7004.95019	0.00214
7003.02151	0.00214
7001.09284	0.00214
6999.16416	0.00214
6997.23549	0.00214
6995.30681	0.00215
6993.37813	0.00216
6991.44946	0.00217
6989.52078	0.00219
6987.59211	0.00219
6985.66343	0.00219
6983.73476	0.00219
6981.80608	0.00220
6979.87740	0.00220
6977.94873	0.00220
6976.02005	0.00221
6974.09138	0.00221
6972.16270	0.00221
6970.23403	0.00220
6968.30535	0.00220
6966.37667	0.00220
6964.44800	0.00220
6962.51932	0.00221
6960.59065	0.00222
6958.66197	0.00223
6956.73330	0.00224
6954.80462	0.00226
6952.87594	0.00225
6950.94727	0.00224
6949.01859	0.00225
6947.08992	0.00226
6945.16124	0.00226
6943.23257	0.00226
6941.30389	0.00227
6939.37521	0.00229
6937.44654	0.00229
6935.51786	0.00228
6933.58919	0.00229
6931.66051	0.00230
6929.73184	0.00231
6927.80316	0.00232
6925.87448	0.00233
6923.94581	0.00234
6922.01713	0.00233
6920.08846	0.00233
6918.15978	0.00233
6916.23111	0.00232
6914.30243	0.00231
6912.37375	0.00232
6910.44508	0.00235
6908.51640	0.00237
6906.58773	0.00235
6904.65905	0.00234
6902.73038	0.00234
6900.80170	0.00236
6898.87302	0.00238
6896.94435	0.00239
6895.01567	0.00239
6893.08700	0.00239
6891.15832	0.00239
6889.22965	0.00239
6887.30097	0.00240
6885.37229	0.00242
6883.44362	0.00243
6881.51494	0.00243
6879.58627	0.00243
6877.65759	0.00243
6875.72892	0.00244
6873.80024	0.00245
6871.87156	0.00246
6869.94289	0.00246
6868.01421	0.00247
6866.08554	0.00248
6864.15686	0.00249
6862.22819	0.00250
6860.29951	0.00249
6858.37083	0.00249
6856.44216	0.00250
6854.51348	0.00250
6852.58481	0.00249
6850.65613	0.00249
6848.72746	0.00250
6846.79878	0.00253
6844.87010	0.00253
6842.94143	0.00252
6841.01275	0.00252
6839.08408	0.00254
6837.15540	0.00255
6835.22673	0.00255
6833.29805	0.00256
6831.36937	0.00257
6829.44070	0.00258
6827.51202	0.00258
6825.58335	0.00258
6823.65467	0.00258
6821.72600	0.00259
6819.79732	0.00261
6817.86864	0.00262
6815.93997	0.00262
6814.01129	0.00261
6812.08262	0.00260
6810.15394	0.00259
6808.22527	0.00260
6806.29659	0.00260
6804.36791	0.00261
6802.43924	0.00263
6800.51056	0.00266
6798.58189	0.00267
6796.65321	0.00268
6794.72454	0.00266
6792.79586	0.00265
6790.86718	0.00266
6788.93851	0.00267
6787.00983	0.00268
6785.08116	0.00270
6783.15248	0.00269
6781.22381	0.00268
6779.29513	0.00268
6777.36645	0.00269
6775.43778	0.00272
6773.50910	0.00274
6771.58043	0.00274
6769.65175	0.00273
6767.72308	0.00273
6765.79440	0.00274
6763.86572	0.00276
6761.93705	0.00278
6760.00837	0.00279
6758.07970	0.00279
6756.15102	0.00279
6754.22235	0.00280
6752.29367	0.00280
6750.36499	0.00279
6748.43632	0.00279
6746.50764	0.00280
6744.57897	0.00282
6742.65029	0.00283
6740.72162	0.00282
6738.79294	0.00282
6736.86426	0.00282
6734.93559	0.00283
6733.00691	0.00284
6731.07824	0.00284
6729.14956	0.00284
6727.22089	0.00284
6725.29221	0.00284
6723.36353	0.00287
6721.43486	0.00290
6719.50618	0.00291
6717.57751	0.00291
6715.64883	0.00291
6713.72016	0.00292
6711.79148	0.00293
6709.86280	0.00294
6707.93413	0.00295
6706.00545	0.00295
6704.07678	0.00296
6702.14810	0.00297
6700.21943	0.00297
6698.29075	0.00295
6696.36207	0.00295
6694.43340	0.00296
6692.50472	0.00297
6690.57605	0.00297
6688.64737	0.00297
6686.71870	0.00298
6684.79002	0.00299
6682.86134	0.00300
6680.93267	0.00301
6679.00399	0.00301
6677.07532	0.00302
6675.14664	0.00303
6673.21797	0.00304
6671.28929	0.00306
6669.36061	0.00306
6667.43194	0.00306
6665.50326	0.00305
6663.57459	0.00306
6661.64591	0.00306
6659.71724	0.00307
6657.78856	0.00308
6655.85988	0.00308
6653.93121	0.00310
6652.00253	0.00311
6650.07386	0.00313
6648.14518	0.00314
6646.21651	0.00316
6644.28783	0.00315
6642.35915	0.00314
6640.43048	0.00313
6638.50180	0.00314
6636.57313	0.00315
6634.64445	0.00317
6632.71578	0.00317
6630.78710	0.00317
6628.85842	0.00318
6626.92975	0.00319
6625.00107	0.00319
6623.07240	0.00319
6621.14372	0.00319
6619.21505	0.00319
6617.28637	0.00321
6615.35769	0.00323
6613.42902	0.00325
6611.50034	0.00325
6609.57167	0.00325
6607.64299	0.00325
6605.71432	0.00327
6603.78564	0.00329
6601.85696	0.00330
6599.92829	0.00329
6597.99961	0.00329
6596.07094	0.00329
6594.14226	0.00330
6592.21359	0.00330
6590.28491	0.00331
6588.35623	0.00333
6586.42756	0.00334
6584.49888	0.00335
6582.57021	0.00334
6580.64153	0.00334
6578.71286	0.00334
6576.78418	0.00336
6574.85550	0.00338
6572.92683	0.00339
6570.99815	0.00339
6569.06948	0.00338
6567.14080	0.00337
6565.21213	0.00338
6563.28345	0.00339
6561.35477	0.00341
6559.42610	0.00343
6557.49742	0.00344
6555.56875	0.00345
6553.64007	0.00347
6551.71140	0.00349
6549.78272	0.00349
6547.85404	0.00347
6545.92537	0.00345
6543.99669	0.00347
6542.06802	0.00350
6540.13934	0.00352
6538.21067	0.00352
6536.28199	0.00351
6534.35331	0.00352
6532.42464	0.00353
6530.49596	0.00355
6528.56729	0.00354
6526.63861	0.00353
6524.70994	0.00354
6522.78126	0.00355
6520.85258	0.00356
6518.92391	0.00357
6516.99523	0.00358
6515.06656	0.00359
6513.13788	0.00359
6511.20921	0.00360
6509.28053	0.00362
6507.35185	0.00364
6505.42318	0.00365
6503.49450	0.00365
6501.56583	0.00366
6499.63715	0.00367
6497.70848	0.00368
6495.77980	0.00369
6493.85112	0.00370
6491.92245	0.00370
6489.99377	0.00370
6488.06510	0.00371
6486.13642	0.00371
6484.20775	0.00371
6482.27907	0.00372
6480.35039	0.00373
6478.42172	0.00375
6476.49304	0.00376
6474.56437	0.00377
6472.63569	0.00378
6470.70702	0.00377
6468.77834	0.00376
6466.84966	0.00377
6464.92099	0.00379
6462.99231	0.00378
6461.06364	0.00378
6459.13496	0.00379
6457.20629	0.00381
6455.27761	0.00384
6453.34893	0.00385
6451.42026	0.00385
6449.49158	0.00385
6447.56291	0.00385
6445.63423	0.00385
6443.70556	0.00385
6441.77688	0.00388
6439.84820	0.00390
6437.91953	0.00391
6435.99085	0.00391
6434.06218	0.00391
6432.13350	0.00393
6430.20483	0.00393
6428.27615	0.00393
6426.34747	0.00393
6424.41880	0.00395
6422.49012	0.00397
6420.56145	0.00397
6418.63277	0.00398
6416.70410	0.00400
6414.77542	0.00402
6412.84674	0.00403
6410.91807	0.00403
6408.98939	0.00404
6407.06072	0.00404
6405.13204	0.00404
6403.20337	0.00403
6401.27469	0.00404
6399.34601	0.00406
6397.41734	0.00410
6395.48866	0.00411
6393.55999	0.00410
6391.63131	0.00410
6389.70264	0.00411
6387.77396	0.00413
6385.84528	0.00414
6383.91661	0.00414
6381.98793	0.00415
6380.05926	0.00415
6378.13058	0.00415
6376.20191	0.00414
6374.27323	0.00416
6372.34455	0.00419
6370.41588	0.00421
6368.48720	0.00422
6366.55853	0.00422
6364.62985	0.00423
6362.70118	0.00424
6360.77250	0.00426
6358.84382	0.00425
6356.91515	0.00426
6354.98647	0.00428
6353.05780	0.00431
6351.12912	0.00431
6349.20045	0.00431
6347.27177	0.00431
6345.34309	0.00431
6343.41442	0.00431
6341.48574	0.00430
6339.55707	0.00431
6337.62839	0.00433
6335.69972	0.00435
6333.77104	0.00436
6331.84236	0.00437
6329.91369	0.00438
6327.98501	0.00439
6326.05634	0.00439
6324.12766	0.00440
6322.19899	0.00441
6320.27031	0.00442
6318.34163	0.00444
6316.41296	0.00445
6314.48428	0.00445
6312.55561	0.00445
6310.62693	0.00446
6308.69826	0.00447
6306.76958	0.00447
6304.84090	0.00448
6302.91223	0.00450
6300.98355	0.00452
6299.05488	0.00453
6297.12620	0.00455
6295.19753	0.00456
6293.26885	0.00457
6291.34017	0.00458
6289.41150	0.00458
6287.48282	0.00459
6285.55415	0.00460
6283.62547	0.00460
6281.69680	0.00461
6279.76812	0.00462
6277.83944	0.00464
6275.91077	0.00465
6273.98209	0.00465
6272.05342	0.00466
6270.12474	0.00468
6268.19607	0.00470
6266.26739	0.00471
6264.33871	0.00471
6262.41004	0.00470
6260.48136	0.00471
6258.55269	0.00474
6256.62401	0.00476
6254.69534	0.00477
6252.76666	0.00478
6250.83798	0.00478
6248.90931	0.00479
6246.98063	0.00480
6245.05196	0.00481
6243.12328	0.00480
6241.19461	0.00480
6239.26593	0.00481
6237.33725	0.00483
6235.40858	0.00483
6233.47990	0.00483
6231.55123	0.00485
6229.62255	0.00488
6227.69388	0.00490
6225.76520	0.00492
6223.83652	0.00492
6221.90785	0.00492
6219.97917	0.00492
6218.05050	0.00493
6216.12182	0.00495
6214.19315	0.00497
6212.26447	0.00498
6210.33579	0.00499
6208.40712	0.00499
6206.47844	0.00499
6204.54977	0.00500
6202.62109	0.00500
6200.69242	0.00502
6198.76374	0.00504
6196.83506	0.00507
6194.90639	0.00509
6192.97771	0.00510
6191.04904	0.00511
6189.12036	0.00510
6187.19169	0.00511
6185.26301	0.00512
6183.33433	0.00514
6181.40566	0.00516
6179.47698	0.00518
6177.54831	0.00519
6175.61963	0.00520
6173.69096	0.00520
6171.76228	0.00520
6169.83360	0.00521
6167.90493	0.00523
6165.97625	0.00523
6164.04758	0.00522
6162.11890	0.00523
6160.19023	0.00525
6158.26155	0.00527
6156.33287	0.00530
6154.40420	0.00532
6152.47552	0.00533
6150.54685	0.00534
6148.61817	0.00534
6146.68950	0.00533
6144.76082	0.00534
6142.83214	0.00534
6140.90347	0.00535
6138.97479	0.00538
6137.04612	0.00539
6135.11744	0.00540
6133.18877	0.00540
6131.26009	0.00540
6129.33141	0.00540
6127.40274	0.00541
6125.47406	0.00544
6123.54539	0.00547
6121.61671	0.00548
6119.68804	0.00549
6117.75936	0.00551
6115.83068	0.00553
6113.90201	0.00555
6111.97333	0.00556
6110.04466	0.00557
6108.11598	0.00558
6106.18731	0.00559
6104.25863	0.00559
6102.32995	0.00559
6100.40128	0.00562
6098.47260	0.00564
6096.54393	0.00563
6094.61525	0.00563
6092.68658	0.00565
6090.75790	0.00567
6088.82922	0.00568
6086.90055	0.00569
6084.97187	0.00570
6083.04320	0.00571
6081.11452	0.00572
6079.18585	0.00573
6077.25717	0.00575
6075.32849	0.00576
6073.39982	0.00577
6071.47114	0.00580
6069.54247	0.00583
6067.61379	0.00585
6065.68512	0.00585
6063.75644	0.00584
6061.82776	0.00584
6059.89909	0.00585
6057.97041	0.00587
6056.04174	0.00588
6054.11306	0.00588
6052.18439	0.00589
6050.25571	0.00589
6048.32703	0.00590
6046.39836	0.00592
6044.46968	0.00595
6042.54101	0.00597
6040.61233	0.00598
6038.68366	0.00600
6036.75498	0.00602
6034.82630	0.00602
6032.89763	0.00601
6030.96895	0.00601
6029.04028	0.00603
6027.11160	0.00606
6025.18293	0.00609
6023.25425	0.00610
6021.32557	0.00611
6019.39690	0.00611
6017.46822	0.00612
6015.53955	0.00614
6013.61087	0.00615
6011.68220	0.00615
6009.75352	0.00616
6007.82484	0.00618
6005.89617	0.00619
6003.96749	0.00621
6002.03882	0.00622
6000.11014	0.00624
5998.18147	0.00627
5996.25279	0.00630
5994.32411	0.00631
5992.39544	0.00629
5990.46676	0.00628
5988.53809	0.00630
5986.60941	0.00634
5984.68074	0.00637
5982.75206	0.00638
5980.82338	0.00639
5978.89471	0.00641
5976.96603	0.00642
5975.03736	0.00642
5973.10868	0.00643
5971.18001	0.00645
5969.25133	0.00647
5967.32265	0.00647
5965.39398	0.00646
5963.46530	0.00646
5961.53663	0.00648
5959.60795	0.00649
5957.67928	0.00652
5955.75060	0.00655
5953.82192	0.00657
5951.89325	0.00658
5949.96457	0.00658
5948.03590	0.00658
5946.10722	0.00660
5944.17855	0.00662
5942.24987	0.00663
5940.32119	0.00663
5938.39252	0.00664
5936.46384	0.00665
5934.53517	0.00666
5932.60649	0.00668
5930.67782	0.00670
5928.74914	0.00674
5926.82046	0.00678
5924.89179	0.00678
5922.96311	0.00677
5921.03444	0.00678
5919.10576	0.00680
5917.17709	0.00681
5915.24841	0.00683
5913.31973	0.00685
5911.39106	0.00687
5909.46238	0.00688
5907.53371	0.00691
5905.60503	0.00693
5903.67636	0.00694
5901.74768	0.00694
5899.81900	0.00694
5897.89033	0.00695
5895.96165	0.00696
5894.03298	0.00696
5892.10430	0.00697
5890.17563	0.00700
5888.24695	0.00703
5886.31827	0.00704
5884.38960	0.00706
5882.46092	0.00709
5880.53225	0.00711
5878.60357	0.00712
5876.67490	0.00711
5874.74622	0.00711
5872.81755	0.00712
5870.88887	0.00713
5868.96019	0.00715
5867.03152	0.00717
5865.10284	0.00720
5863.17417	0.00721
5861.24549	0.00723
5859.31682	0.00725
5857.38814	0.00726
5855.45946	0.00726
5853.53079	0.00726
5851.60211	0.00728
5849.67344	0.00732
5847.74476	0.00734
5845.81609	0.00735
5843.88741	0.00736
5841.95873	0.00738
5840.03006	0.00740
5838.10138	0.00740
5836.17271	0.00742
5834.24403	0.00746
5832.31536	0.00748
5830.38668	0.00748
5828.45800	0.00748
5826.52933	0.00748
5824.60065	0.00750
5822.67198	0.00753
5820.74330	0.00758
5818.81463	0.00759
5816.88595	0.00758
5814.95727	0.00757
5813.02860	0.00759
5811.09992	0.00762
5809.17125	0.00765
5807.24257	0.00768
5805.31390	0.00772
5803.38522	0.00774
5801.45654	0.00775
5799.52787	0.00775
5797.59919	0.00775
5795.67052	0.00775
5793.74184	0.00776
5791.81317	0.00778
5789.88449	0.00779
5787.95581	0.00780
5786.02714	0.00782
5784.09846	0.00784
5782.16979	0.00785
5780.24111	0.00787
5778.31244	0.00789
5776.38376	0.00791
5774.45508	0.00792
5772.52641	0.00793
5770.59773	0.00795
5768.66906	0.00796
5766.74038	0.00799
5764.81171	0.00801
5762.88303	0.00803
5760.95435	0.00805
5759.02568	0.00805
5757.09700	0.00807
5755.16833	0.00808
5753.23965	0.00809
5751.31098	0.00812
5749.38230	0.00814
5747.45362	0.00813
5745.52495	0.00812
5743.59627	0.00815
5741.66760	0.00819
5739.73892	0.00822
5737.81025	0.00824
5735.88157	0.00825
5733.95289	0.00825
5732.02422	0.00827
5730.09554	0.00831
5728.16687	0.00834
5726.23819	0.00835
5724.30952	0.00835
5722.38084	0.00837
5720.45216	0.00838
5718.52349	0.00838
5716.59481	0.00838
5714.66614	0.00839
5712.73746	0.00842
5710.80879	0.00843
5708.88011	0.00844
5706.95143	0.00848
5705.02276	0.00852
5703.09408	0.00855
5701.16541	0.00857
5699.23673	0.00857
5697.30806	0.00858
5695.37938	0.00860
5693.45070	0.00863
5691.52203	0.00864
5689.59335	0.00864
5687.66468	0.00865
5685.73600	0.00866
5683.80733	0.00869
5681.87865	0.00871
5679.94997	0.00875
5678.02130	0.00878
5676.09262	0.00880
5674.16395	0.00879
5672.23527	0.00880
5670.30660	0.00883
5668.37792	0.00884
5666.44924	0.00884
5664.52057	0.00884
5662.59189	0.00885
5660.66322	0.00888
5658.73454	0.00893
5656.80587	0.00896
5654.87719	0.00897
5652.94851	0.00897
5651.01984	0.00898
5649.09116	0.00900
5647.16249	0.00902
5645.23381	0.00904
5643.30514	0.00905
5641.37646	0.00905
5639.44778	0.00905
5637.51911	0.00906
5635.59043	0.00909
5633.66176	0.00911
5631.73308	0.00914
5629.80441	0.00916
5627.87573	0.00919
5625.94705	0.00921
5624.01838	0.00923
5622.08970	0.00923
5620.16103	0.00923
5618.23235	0.00923
5616.30368	0.00925
5614.37500	0.00929
5612.44632	0.00933
5610.51765	0.00935
5608.58897	0.00936
5606.66030	0.00938
5604.73162	0.00942
5602.80295	0.00947
5600.87427	0.00951
5598.94559	0.00954
5597.01692	0.00953
5595.08824	0.00952
5593.15957	0.00953
5591.23089	0.00956
5589.30222	0.00958
5587.37354	0.00960
5585.44486	0.00961
5583.51619	0.00964
5581.58751	0.00966
5579.65884	0.00967
5577.73016	0.00967
5575.80149	0.00968
5573.87281	0.00970
5571.94413	0.00971
5570.01546	0.00973
5568.08678	0.00975
5566.15811	0.00979
5564.22943	0.00982
5562.30076	0.00985
5560.37208	0.00989
5558.44340	0.00991
5556.51473	0.00991
5554.58605	0.00992
5552.65738	0.00993
5550.72870	0.00994
5548.80003	0.00995
5546.87135	0.00997
5544.94267	0.00998
5543.01400	0.01000
5541.08532	0.01004
5539.15665	0.01006
5537.22797	0.01007
5535.29930	0.01009
5533.37062	0.01011
5531.44194	0.01013
5529.51327	0.01015
5527.58459	0.01017
5525.65592	0.01020
5523.72724	0.01023
5521.79857	0.01024
5519.86989	0.01025
5517.94121	0.01026
5516.01254	0.01028
5514.08386	0.01030
5512.15519	0.01032
5510.22651	0.01033
5508.29784	0.01034
5506.36916	0.01036
5504.44048	0.01039
5502.51181	0.01043
5500.58313	0.01046
5498.65446	0.01047
5496.72578	0.01047
5494.79711	0.01049
5492.86843	0.01051
5490.93975	0.01053
5489.01108	0.01054
5487.08240	0.01056
5485.15373	0.01060
5483.22505	0.01062
5481.29638	0.01064
5479.36770	0.01067
5477.43902	0.01069
5475.51035	0.01072
5473.58167	0.01076
5471.65300	0.01078
5469.72432	0.01079
5467.79565	0.01079
5465.86697	0.01081
5463.93829	0.01082
5462.00962	0.01082
5460.08094	0.01082
5458.15227	0.01083
5456.22359	0.01085
5454.29492	0.01087
5452.36624	0.01090
5450.43756	0.01094
5448.50889	0.01097
5446.58021	0.01100
5444.65154	0.01102
5442.72286	0.01103
5440.79419	0.01103
5438.86551	0.01106
5436.93683	0.01109
5435.00816	0.01110
5433.07948	0.01112
5431.15081	0.01113
5429.22213	0.01113
5427.29346	0.01116
5425.36478	0.01120
5423.43610	0.01124
5421.50743	0.01128
5419.57875	0.01131
5417.65008	0.01133
5415.72140	0.01132
5413.79273	0.01133
5411.86405	0.01136
5409.93537	0.01140
5408.00670	0.01143
5406.07802	0.01145
5404.14935	0.01146
5402.22067	0.01147
5400.29200	0.01148
5398.36332	0.01151
5396.43464	0.01155
5394.50597	0.01159
5392.57729	0.01161
5390.64862	0.01164
5388.71994	0.01166
5386.79127	0.01166
5384.86259	0.01166
5382.93391	0.01168
5381.00524	0.01169
5379.07656	0.01171
5377.14789	0.01174
5375.21921	0.01176
5373.29054	0.01176
5371.36186	0.01178
5369.43318	0.01183
5367.50451	0.01187
5365.57583	0.01188
5363.64716	0.01189
5361.71848	0.01191
5359.78981	0.01194
5357.86113	0.01197
5355.93245	0.01201
5354.00378	0.01203
5352.07510	0.01205
5350.14643	0.01207
5348.21775	0.01209
5346.28908	0.01208
5344.36040	0.01209
5342.43172	0.01212
5340.50305	0.01215
5338.57437	0.01217
5336.64570	0.01220
5334.71702	0.01223
5332.78835	0.01226
5330.85967	0.01228
5328.93099	0.01229
5327.00232	0.01230
5325.07364	0.01232
5323.14497	0.01235
5321.21629	0.01239
5319.28762	0.01241
5317.35894	0.01243
5315.43026	0.01245
5313.50159	0.01248
5311.57291	0.01250
5309.64424	0.01252
5307.71556	0.01255
5305.78689	0.01258
5303.85821	0.01259
5301.92953	0.01259
5300.00086	0.01261
5298.07218	0.01265
5296.14351	0.01268
5294.21483	0.01270
5292.28616	0.01271
5290.35748	0.01271
5288.42880	0.01274
5286.50013	0.01277
5284.57145	0.01279
5282.64278	0.01282
5280.71410	0.01284
5278.78543	0.01286
5276.85675	0.01288
5274.92807	0.01293
5272.99940	0.01297
5271.07072	0.01298
5269.14205	0.01298
5267.21337	0.01300
5265.28470	0.01301
5263.35602	0.01303
5261.42734	0.01304
5259.49867	0.01306
5257.56999	0.01309
5255.64132	0.01312
5253.71264	0.01315
5251.78397	0.01317
5249.85529	0.01320
5247.92661	0.01322
5245.99794	0.01325
5244.06926	0.01328
5242.14059	0.01331
5240.21191	0.01334
5238.28324	0.01336
5236.35456	0.01338
5234.42588	0.01339
5232.49721	0.01340
5230.56853	0.01343
5228.63986	0.01348
5226.71118	0.01351
5224.78251	0.01353
5222.85383	0.01355
5220.92515	0.01358
5218.99648	0.01360
5217.06780	0.01360
5215.13913	0.01362
5213.21045	0.01363
5211.28178	0.01365
5209.35310	0.01367
5207.42442	0.01371
5205.49575	0.01375
5203.56707	0.01379
5201.63840	0.01380
5199.70972	0.01381
5197.78105	0.01382
5195.85237	0.01386
5193.92369	0.01389
5191.99502	0.01393
5190.06634	0.01398
5188.13767	0.01402
5186.20899	0.01404
5184.28032	0.01407
5182.35164	0.01409
5180.42296	0.01408
5178.49429	0.01407
5176.56561	0.01409
5174.63694	0.01412
5172.70826	0.01414
5170.77959	0.01416
5168.85091	0.01419
5166.92223	0.01422
5164.99356	0.01425
5163.06488	0.01428
5161.13621	0.01430
5159.20753	0.01432
5157.27886	0.01434
5155.35018	0.01439
5153.42150	0.01441
5151.49283	0.01442
5149.56415	0.01444
5147.63548	0.01448
5145.70680	0.01451
5143.77813	0.01453
5141.84945	0.01454
5139.92077	0.01455
5137.99210	0.01457
5136.06342	0.01459
5134.13475	0.01461
5132.20607	0.01464
5130.27740	0.01468
5128.34872	0.01471
5126.42004	0.01473
5124.49137	0.01475
5122.56269	0.01477
5120.63402	0.01480
5118.70534	0.01483
5116.77667	0.01483
5114.84799	0.01485
5112.91931	0.01490
5110.99064	0.01494
5109.06196	0.01496
5107.13329	0.01496
5105.20461	0.01497
5103.27594	0.01499
5101.34726	0.01503
5099.41858	0.01507
5097.48991	0.01512
5095.56123	0.01517
5093.63256	0.01520
5091.70388	0.01520
5089.77521	0.01521
5087.84653	0.01525
5085.91785	0.01528
5083.98918	0.01531
5082.06050	0.01532
5080.13183	0.01532
5078.20315	0.01533
5076.27448	0.01535
5074.34580	0.01539
5072.41712	0.01542
5070.48845	0.01543
5068.55977	0.01545
5066.63110	0.01549
5064.70242	0.01553
5062.77375	0.01555
5060.84507	0.01557
5058.91639	0.01561
5056.98772	0.01565
5055.05904	0.01568
5053.13037	0.01570
5051.20169	0.01571
5049.27302	0.01574
5047.34434	0.01576
5045.41566	0.01578
5043.48699	0.01581
5041.55831	0.01583
5039.62964	0.01584
5037.70096	0.01585
5035.77229	0.01588
5033.84361	0.01593
5031.91493	0.01599
5029.98626	0.01603
5028.05758	0.01606
5026.12891	0.01607
5024.20023	0.01610
5022.27156	0.01613
5020.34288	0.01616
5018.41420	0.01616
5016.48553	0.01616
5014.55685	0.01620
5012.62818	0.01624
5010.69950	0.01627
5008.77083	0.01628
5006.84215	0.01630
5004.91347	0.01635
5002.98480	0.01639
5001.05612	0.01640
4999.12745	0.01642
4997.19877	0.01644
4995.27010	0.01646
4993.34142	0.01649
4991.41274	0.01652
4989.48407	0.01655
4987.55539	0.01658
4985.62672	0.01662
4983.69804	0.01663
4981.76937	0.01663
4979.84069	0.01667
4977.91201	0.01672
4975.98334	0.01676
4974.05466	0.01679
4972.12599	0.01679
4970.19731	0.01680
4968.26864	0.01683
4966.33996	0.01686
4964.41128	0.01689
4962.48261	0.01693
4960.55393	0.01696
4958.62526	0.01697
4956.69658	0.01697
4954.76791	0.01701
4952.83923	0.01707
4950.91055	0.01712
4948.98188	0.01716
4947.05320	0.01719
4945.12453	0.01723
4943.19585	0.01726
4941.26718	0.01727
4939.33850	0.01727
4937.40982	0.01728
4935.48115	0.01730
4933.55247	0.01732
4931.62380	0.01735
4929.69512	0.01738
4927.76645	0.01740
4925.83777	0.01743
4923.90909	0.01746
4921.98042	0.01747
4920.05174	0.01749
4918.12307	0.01754
4916.19439	0.01758
4914.26572	0.01762
4912.33704	0.01765
4910.40836	0.01769
4908.47969	0.01774
4906.55101	0.01777
4904.62234	0.01778
4902.69366	0.01779
4900.76499	0.01782
4898.83631	0.01788
4896.90763	0.01794
4894.97896	0.01795
4893.05028	0.01793
4891.12161	0.01792
4889.19293	0.01795
4887.26426	0.01800
4885.33558	0.01804
4883.40690	0.01808
4881.47823	0.01810
4879.54955	0.01813
4877.62088	0.01816
4875.69220	0.01818
4873.76353	0.01819
4871.83485	0.01823
4869.90617	0.01828
4867.97750	0.01832
4866.04882	0.01835
4864.12015	0.01837
4862.19147	0.01839
4860.26280	0.01843
4858.33412	0.01846
4856.40544	0.01848
4854.47677	0.01850
4852.54809	0.01853
4850.61942	0.01855
4848.69074	0.01858
4846.76207	0.01861
4844.83339	0.01862
4842.90471	0.01864
4840.97604	0.01867
4839.04736	0.01870
4837.11869	0.01873
4835.19001	0.01878
4833.26134	0.01884
4831.33266	0.01888
4829.40398	0.01890
4827.47531	0.01892
4825.54663	0.01894
4823.61796	0.01897
4821.68928	0.01900
4819.76061	0.01905
4817.83193	0.01911
4815.90325	0.01914
4813.97458	0.01914
4812.04590	0.01914
4810.11723	0.01917
4808.18855	0.01923
4806.25988	0.01928
4804.33120	0.01930
4802.40252	0.01933
4800.47385	0.01935
4798.54517	0.01938
4796.61650	0.01942
4794.68782	0.01945
4792.75915	0.01948
4790.83047	0.01949
4788.90179	0.01952
4786.97312	0.01955
4785.04444	0.01958
4783.11577	0.01962
4781.18709	0.01965
4779.25842	0.01967
4777.32974	0.01969
4775.40106	0.01972
4773.47239	0.01976
4771.54371	0.01979
4769.61504	0.01981
4767.68636	0.01982
4765.75769	0.01985
4763.82901	0.01991
4761.90033	0.01995
4759.97166	0.01998
4758.04298	0.01999
4756.11431	0.02000
4754.18563	0.02002
4752.25696	0.02007
4750.32828	0.02013
4748.39960	0.02019
4746.47093	0.02024
4744.54225	0.02027
4742.61358	0.02029
4740.68490	0.02032
4738.75623	0.02035
4736.82755	0.02038
4734.89887	0.02041
4732.97020	0.02044
4731.04152	0.02046
4729.11285	0.02048
4727.18417	0.02050
4725.25550	0.02055
4723.32682	0.02060
4721.39814	0.02064
4719.46947	0.02067
4717.54079	0.02069
4715.61212	0.02072
4713.68344	0.02077
4711.75477	0.02080
4709.82609	0.02083
4707.89741	0.02086
4705.96874	0.02090
4704.04006	0.02094
4702.11139	0.02095
4700.18271	0.02097
4698.25404	0.02104
4696.32536	0.02111
4694.39668	0.02114
4692.46801	0.02115
4690.53933	0.02118
4688.61066	0.02121
4686.68198	0.02124
4684.75331	0.02127
4682.82463	0.02130
4680.89595	0.02132
4678.96728	0.02134
4677.03860	0.02136
4675.10993	0.02141
4673.18125	0.02148
4671.25258	0.02153
4669.32390	0.02156
4667.39522	0.02158
4665.46655	0.02161
4663.53787	0.02165
4661.60920	0.02168
4659.68052	0.02171
4657.75185	0.02174
4655.82317	0.02175
4653.89449	0.02177
4651.96582	0.02183
4650.03714	0.02187
4648.10847	0.02189
4646.17979	0.02191
4644.25112	0.02196
4642.32244	0.02202
4640.39376	0.02206
4638.46509	0.02208
4636.53641	0.02211
4634.60774	0.02213
4632.67906	0.02217
4630.75039	0.02222
4628.82171	0.02228
4626.89303	0.02233
4624.96436	0.02236
4623.03568	0.02237
4621.10701	0.02239
4619.17833	0.02244
4617.24966	0.02247
4615.32098	0.02250
4613.39230	0.02254
4611.46363	0.02259
4609.53495	0.02262
4607.60628	0.02266
4605.67760	0.02271
4603.74893	0.02275
4601.82025	0.02278
4599.89157	0.02281
4597.96290	0.02287
4596.03422	0.02292
4594.10555	0.02295
4592.17687	0.02296
4590.24820	0.02298
4588.31952	0.02303
4586.39084	0.02307
4584.46217	0.02311
4582.53349	0.02315
4580.60482	0.02320
4578.67614	0.02323
4576.74747	0.02326
4574.81879	0.02329
4572.89011	0.02334
4570.96144	0.02339
4569.03276	0.02344
4567.10409	0.02347
4565.17541	0.02350
4563.24674	0.02353
4561.31806	0.02355
4559.38938	0.02359
4557.46071	0.02363
4555.53203	0.02369
4553.60336	0.02375
4551.67468	0.02379
4549.74601	0.02382
4547.81733	0.02386
4545.88865	0.02390
4543.95998	0.02395
4542.03130	0.02401
4540.10263	0.02406
4538.17395	0.02409
4536.24528	0.02412
4534.31660	0.02415
4532.38792	0.02419
4530.45925	0.02424
4528.53057	0.02427
4526.60190	0.02428
4524.67322	0.02430
4522.74455	0.02435
4520.81587	0.02440
4518.88719	0.02445
4516.95852	0.02449
4515.02984	0.02452
4513.10117	0.02454
4511.17249	0.02457
4509.24382	0.02461
4507.31514	0.02467
4505.38646	0.02473
4503.45779	0.02478
4501.52911	0.02483
4499.60044	0.02488
4497.67176	0.02490
4495.74309	0.02494
4493.81441	0.02497
4491.88573	0.02500
4489.95706	0.02504
4488.02838	0.02508
4486.09971	0.02512
4484.17103	0.02517
4482.24236	0.02524
4480.31368	0.02530
4478.38500	0.02535
4476.45633	0.02539
4474.52765	0.02543
4472.59898	0.02547
4470.67030	0.02549
4468.74163	0.02552
4466.81295	0.02558
4464.88427	0.02565
4462.95560	0.02569
4461.02692	0.02571
4459.09825	0.02572
4457.16957	0.02574
4455.24090	0.02577
4453.31222	0.02583
4451.38354	0.02591
4449.45487	0.02598
4447.52619	0.02603
4445.59752	0.02606
4443.66884	0.02608
4441.74017	0.02610
4439.81149	0.02615
4437.88281	0.02622
4435.95414	0.02630
4434.02546	0.02635
4432.09679	0.02637
4430.16811	0.02640
4428.23944	0.02646
4426.31076	0.02654
4424.38208	0.02660
4422.45341	0.02666
4420.52473	0.02669
4418.59606	0.02670
4416.66738	0.02674
4414.73871	0.02679
4412.81003	0.02686
4410.88135	0.02692
4408.95268	0.02695
4407.02400	0.02698
4405.09533	0.02702
4403.16665	0.02706
4401.23798	0.02710
4399.30930	0.02713
4397.38062	0.02715
4395.45195	0.02719
4393.52327	0.02725
4391.59460	0.02730
4389.66592	0.02735
4387.73725	0.02741
4385.80857	0.02748
4383.87989	0.02754
4381.95122	0.02759
4380.02254	0.02763
4378.09387	0.02767
4376.16519	0.02769
4374.23652	0.02772
4372.30784	0.02777
4370.37916	0.02784
4368.45049	0.02793
4366.52181	0.02798
4364.59314	0.02803
4362.66446	0.02808
4360.73579	0.02814
4358.80711	0.02819
4356.87843	0.02825
4354.94976	0.02830
4353.02108	0.02834
4351.09241	0.02838
4349.16373	0.02843
4347.23506	0.02846
4345.30638	0.02847
4343.37770	0.02852
4341.44903	0.02858
4339.52035	0.02864
4337.59168	0.02870
4335.66300	0.02875
4333.73433	0.02881
4331.80565	0.02885
4329.87697	0.02889
4327.94830	0.02894
4326.01962	0.02901
4324.09095	0.02908
4322.16227	0.02915
4320.23360	0.02920
4318.30492	0.02925
4316.37624	0.02930
4314.44757	0.02934
4312.51889	0.02939
4310.59022	0.02944
4308.66154	0.02950
4306.73287	0.02955
4304.80419	0.02961
4302.87551	0.02967
4300.94684	0.02973
4299.01816	0.02981
4297.08949	0.02987
4295.16081	0.02992
4293.23214	0.02996
4291.30346	0.03000
4289.37478	0.03005
4287.44611	0.03011
4285.51743	0.03015
4283.58876	0.03020
4281.66008	0.03027
4279.73141	0.03033
4277.80273	0.03040
4275.87405	0.03045
4273.94538	0.03049
4272.01670	0.03054
4270.08803	0.03059
4268.15935	0.03066
4266.23068	0.03070
4264.30200	0.03076
4262.37332	0.03082
4260.44465	0.03087
4258.51597	0.03090
4256.58730	0.03094
4254.65862	0.03099
4252.72995	0.03105
4250.80127	0.03113
4248.87259	0.03120
4246.94392	0.03125
4245.01524	0.03128
4243.08657	0.03134
4241.15789	0.03141
4239.22922	0.03148
4237.30054	0.03153
4235.37186	0.03158
4233.44319	0.03164
4231.51451	0.03172
4229.58584	0.03178
4227.65716	0.03183
4225.72849	0.03189
4223.79981	0.03197
4221.87113	0.03203
4219.94246	0.03208
4218.01378	0.03214
4216.08511	0.03219
4214.15643	0.03226
4212.22776	0.03231
4210.29908	0.03234
4208.37040	0.03238
4206.44173	0.03244
4204.51305	0.03251
4202.58438	0.03259
4200.65570	0.03266
4198.72703	0.03274
4196.79835	0.03281
4194.86968	0.03286
4192.94100	0.03289
4191.01232	0.03292
4189.08365	0.03299
4187.15497	0.03308
4185.22630	0.03316
4183.29762	0.03322
4181.36895	0.03327
4179.44027	0.03332
4177.51159	0.03338
4175.58292	0.03344
4173.65424	0.03353
4171.72557	0.03362
4169.79689	0.03367
4167.86822	0.03370
4165.93954	0.03375
4164.01086	0.03382
4162.08219	0.03389
4160.15351	0.03394
4158.22484	0.03401
4156.29616	0.03410
4154.36749	0.03415
4152.43881	0.03420
4150.51013	0.03425
4148.58146	0.03432
4146.65278	0.03438
4144.72411	0.03444
4142.79543	0.03452
4140.86676	0.03461
4138.93808	0.03469
4137.00940	0.03475
4135.08073	0.03481
4133.15205	0.03487
4131.22338	0.03494
4129.29470	0.03499
4127.36603	0.03504
4125.43735	0.03509
4123.50867	0.03515
4121.58000	0.03521
4119.65132	0.03529
4117.72265	0.03538
4115.79397	0.03545
4113.86530	0.03552
4111.93662	0.03559
4110.00794	0.03566
4108.07927	0.03571
4106.15059	0.03577
4104.22192	0.03586
4102.29324	0.03594
4100.36457	0.03599
4098.43589	0.03605
4096.50721	0.03612
4094.57854	0.03620
4092.64986	0.03628
4090.72119	0.03633
4088.79251	0.03637
4086.86384	0.03642
4084.93516	0.03648
4083.00648	0.03656
4081.07781	0.03664
4079.14913	0.03672
4077.22046	0.03680
4075.29178	0.03688
4073.36311	0.03695
4071.43443	0.03700
4069.50575	0.03707
4067.57708	0.03715
4065.64840	0.03721
4063.71973	0.03727
4061.79105	0.03734
4059.86238	0.03744
4057.93370	0.03751
4056.00502	0.03756
4054.07635	0.03761
4052.14767	0.03768
4050.21900	0.03776
4048.29032	0.03783
4046.36165	0.03791
4044.43297	0.03802
4042.50429	0.03811
4040.57562	0.03816
4038.64694	0.03818
4036.71827	0.03822
4034.78959	0.03831
4032.86092	0.03839
4030.93224	0.03846
4029.00356	0.03854
4027.07489	0.03863
4025.14621	0.03869
4023.21754	0.03875
4021.28886	0.03882
4019.36019	0.03889
4017.43151	0.03900
4015.50283	0.03910
4013.57416	0.03915
4011.64548	0.03919
4009.71681	0.03926
4007.78813	0.03935
4005.85946	0.03944
4003.93078	0.03955
4002.00210	0.03965
4000.07343	0.03974
3998.14475	0.03980
3996.21608	0.03986
3994.28740	0.03993
3992.35873	0.04000
3990.43005	0.04007
3988.50137	0.04014
3986.57270	0.04019
3984.64402	0.04025
3982.71535	0.04034
3980.78667	0.04044
3978.85800	0.04051
3976.92932	0.04054
3975.00064	0.04057
3973.07197	0.04065
3971.14329	0.04076
3969.21462	0.04084
3967.28594	0.04091
3965.35727	0.04097
3963.42859	0.04104
3961.49991	0.04114
3959.57124	0.04124
3957.64256	0.04132
3955.71389	0.04140
3953.78521	0.04148
3951.85654	0.04157
3949.92786	0.04164
3947.99918	0.04168
3946.07051	0.04173
3944.14183	0.04180
3942.21316	0.04189
3940.28448	0.04199
3938.35581	0.04210
3936.42713	0.04217
3934.49845	0.04219
3932.56978	0.04221
3930.64110	0.04230
3928.71243	0.04241
3926.78375	0.04248
3924.85508	0.04256
3922.92640	0.04266
3920.99772	0.04273
3919.06905	0.04276
3917.14037	0.04283
3915.21170	0.04297
3913.28302	0.04310
3911.35435	0.04319
3909.42567	0.04325
3907.49699	0.04327
3905.56832	0.04325
3903.63964	0.04324
3901.71097	0.04328
3899.78229	0.04339
3897.85362	0.04358
3895.92494	0.04374
3893.99626	0.04378
3892.06759	0.04380
3890.13891	0.04393
3888.21024	0.04407
3886.28156	0.04412
3884.35289	0.04417
3882.42421	0.04421
3880.49553	0.04427
3878.56686	0.04442
3876.63818	0.04458
3874.70951	0.04466
3872.78083	0.04468
3870.85216	0.04469
3868.92348	0.04476
3866.99480	0.04482
3865.06613	0.04485
3863.13745	0.04497
3861.20878	0.04517
3859.28010	0.04529
3857.35143	0.04519
3855.42275	0.04496
3853.49407	0.04495
3851.56540	0.04530
3849.63672	0.04566
3847.70805	0.04584
3845.77937	0.04591
3843.85070	0.04595
3841.92202	0.04596
3839.99334	0.04594
3838.06467	0.04597
3836.13599	0.04610
3834.20732	0.04626
3832.27864	0.04641
3830.34997	0.04654
3828.42129	0.04664
3826.49261	0.04674
3824.56394	0.04680
3822.63526	0.04681
3820.70659	0.04685
3818.77791	0.04692
3816.84924	0.04696
3814.92056	0.04712
3812.99188	0.04738
3811.06321	0.04753
3809.13453	0.04756
3807.20586	0.04760
3805.27718	0.04768
3803.34851	0.04768
3801.41983	0.04769
3799.49115	0.04783
3797.56248	0.04799
3795.63380	0.04813
3793.70513	0.04830
3791.77645	0.04843
3789.84778	0.04852
3787.91910	0.04859
3785.99042	0.04865
3784.06175	0.04875
3782.13307	0.04885
3780.20440	0.04893
3778.27572	0.04902
3776.34705	0.04916
3774.41837	0.04926
3772.48969	0.04927
3770.56102	0.04926
3768.63234	0.04933
3766.70367	0.04946
3764.77499	0.04959
3762.84632	0.04968
3760.91764	0.04970
3758.98896	0.04974
3757.06029	0.04985
3755.13161	0.04987
3753.20294	0.04976
3751.27426	0.04975
3749.34559	0.04990
3747.41691	0.04991
3745.48823	0.04973
3743.55956	0.04985
3741.63088	0.05030
3739.70221	0.05054
3737.77353	0.05047
3735.84486	0.05048
3733.91618	0.05068
3731.98750	0.05095
3730.05883	0.05117
3728.13015	0.05128
3726.20148	0.05130
3724.27280	0.05136
3722.34413	0.05150
3720.41545	0.05167
3718.48677	0.05182
3716.55810	0.05191
3714.62942	0.05193
3712.70075	0.05190
3710.77207	0.05196
3708.84340	0.05214
3706.91472	0.05235
3704.98604	0.05249
3703.05737	0.05255
3701.12869	0.05264
3699.20002	0.05276
3697.27134	0.05285
3695.34267	0.05290
3693.41399	0.05288
3691.48531	0.05279
3689.55664	0.05281
3687.62796	0.05302
3685.69929	0.05329
3683.77061	0.05346
3681.84194	0.05351
3679.91326	0.05350
3677.98458	0.05344
3676.05591	0.05345
3674.12723	0.05361
3672.19856	0.05376
3670.26988	0.05381
3668.34121	0.05393
3666.41253	0.05417
3664.48385	0.05437
3662.55518	0.05450
3660.62650	0.05458
3658.69783	0.05459
3656.76915	0.05459
3654.84048	0.05463
3652.91180	0.05456
3650.98312	0.05437
3649.05445	0.05430
3647.12577	0.05447
3645.19710	0.05478
3643.26842	0.05504
3641.33975	0.05520
3639.41107	0.05531
3637.48239	0.05539
3635.55372	0.05546
3633.62504	0.05552
3631.69637	0.05548
3629.76769	0.05540
3627.83902	0.05552
3625.91034	0.05579
3623.98166	0.05593
3622.05299	0.05588
3620.12431	0.05582
3618.19564	0.05589
3616.26696	0.05601
3614.33829	0.05603
3612.40961	0.05602
3610.48093	0.05606
3608.55226	0.05620
3606.62358	0.05642
3604.69491	0.05658
3602.76623	0.05665
3600.83756	0.05670
3598.90888	0.05678
3596.98020	0.05686
3595.05153	0.05692
3593.12285	0.05697
3591.19418	0.05698
3589.26550	0.05694
3587.33683	0.05697
3585.40815	0.05716
3583.47947	0.05738
3581.55080	0.05749
3579.62212	0.05755
3577.69345	0.05759
3575.76477	0.05765
3573.83610	0.05774
3571.90742	0.05782
3569.97874	0.05779
3568.05007	0.05773
3566.12139	0.05782
3564.19272	0.05802
3562.26404	0.05818
3560.33537	0.05827
3558.40669	0.05835
3556.47801	0.05845
3554.54934	0.05852
3552.62066	0.05858
3550.69199	0.05864
3548.76331	0.05869
3546.83464	0.05870
3544.90596	0.05876
3542.97728	0.05889
3541.04861	0.05901
3539.11993	0.05906
3537.19126	0.05910
3535.26258	0.05917
3533.33391	0.05924
3531.40523	0.05926
3529.47655	0.05926
3527.54788	0.05930
3525.61920	0.05935
3523.69053	0.05940
3521.76185	0.05944
3519.83318	0.05951
3517.90450	0.05958
3515.97582	0.05961
3514.04715	0.05960
3512.11847	0.05960
3510.18980	0.05962
3508.26112	0.05968
3506.33245	0.05974
3504.40377	0.05975
3502.47509	0.05977
3500.54642	0.05985
3498.61774	0.05994
3496.68907	0.05997
3494.76039	0.05996
3492.83172	0.05997
3490.90304	0.05999
3488.97436	0.05999
3487.04569	0.05999
3485.11701	0.06003
3483.18834	0.06009
3481.25966	0.06016
3479.33099	0.06023
3477.40231	0.06030
3475.47363	0.06037
3473.54496	0.06045
3471.61628	0.06052
3469.68761	0.06059
3467.75893	0.06068
3465.83026	0.06078
3463.90158	0.06088
3461.97290	0.06098
3460.04423	0.06108
3458.11555	0.06119
3456.18688	0.06129
3454.25820	0.06138
3452.32953	0.06148
3450.40085	0.06158
3448.47217	0.06164
3446.54350	0.06169
3444.61482	0.06178
3442.68615	0.06191
3440.75747	0.06206
3438.82880	0.06221
3436.90012	0.06238
3434.97144	0.06257
3433.04277	0.06277
3431.11409	0.06296
3429.18542	0.06317
3427.25674	0.06336
3425.32807	0.06352
3423.39939	0.06368
3421.47071	0.06386
3419.54204	0.06407
3417.61336	0.06427
3415.68469	0.06444
3413.75601	0.06457
3411.82734	0.06469
3409.89866	0.06480
3407.96998	0.06493
3406.04131	0.06508
3404.11263	0.06522
3402.18396	0.06536
3400.25528	0.06550
3398.32661	0.06564
3396.39793	0.06577
3394.46925	0.06591
3392.54058	0.06603
3390.61190	0.06616
3388.68323	0.06632
3386.75455	0.06648
3384.82588	0.06660
3382.89720	0.06670
3380.96852	0.06682
3379.03985	0.06694
3377.11117	0.06707
3375.18250	0.06720
3373.25382	0.06733
3371.32515	0.06747
3369.39647	0.06762
3367.46779	0.06775
3365.53912	0.06786
3363.61044	0.06797
3361.68177	0.06807
3359.75309	0.06817
3357.82442	0.06829
3355.89574	0.06842
3353.96706	0.06855
3352.03839	0.06868
3350.10971	0.06880
3348.18104	0.06891
3346.25236	0.06900
3344.32369	0.06911
3342.39501	0.06927
3340.46633	0.06946
3338.53766	0.06959
3336.60898	0.06969
3334.68031	0.06978
3332.75163	0.06992
3330.82296	0.07006
3328.89428	0.07016
3326.96560	0.07027
3325.03693	0.07038
3323.10825	0.07050
3321.17958	0.07065
3319.25090	0.07081
3317.32223	0.07094
3315.39355	0.07104
3313.46487	0.07113
3311.53620	0.07122
3309.60752	0.07132
3307.67885	0.07144
3305.75017	0.07159
3303.82150	0.07176
3301.89282	0.07192
3299.96414	0.07207
3298.03547	0.07219
3296.10679	0.07229
3294.17812	0.07243
3292.24944	0.07260
3290.32077	0.07276
3288.39209	0.07289
3286.46341	0.07298
3284.53474	0.07305
3282.60606	0.07317
3280.67739	0.07332
3278.74871	0.07349
3276.82004	0.07366
3274.89136	0.07380
3272.96268	0.07390
3271.03401	0.07399
3269.10533	0.07411
3267.17666	0.07425
3265.24798	0.07438
3263.31931	0.07452
3261.39063	0.07467
3259.46195	0.07483
3257.53328	0.07496
3255.60460	0.07509
3253.67593	0.07523
3251.74725	0.07539
3249.81858	0.07554
3247.88990	0.07564
3245.96122	0.07573
3244.03255	0.07586
3242.10387	0.07603
3240.17520	0.07617
3238.24652	0.07631
3236.31785	0.07646
3234.38917	0.07660
3232.46049	0.07670
3230.53182	0.07681
3228.60314	0.07694
3226.67447	0.07709
3224.74579	0.07721
3222.81712	0.07732
3220.88844	0.07743
3218.95976	0.07760
3217.03109	0.07779
3215.10241	0.07794
3213.17374	0.07803
3211.24506	0.07814
3209.31639	0.07829
3207.38771	0.07845
3205.45903	0.07860
3203.53036	0.07874
3201.60168	0.07886
3199.67301	0.07898
3197.74433	0.07913
3195.81566	0.07929
3193.88698	0.07945
3191.95830	0.07958
3190.02963	0.07971
3188.10095	0.07985
3186.17228	0.08001
3184.24360	0.08017
3182.31493	0.08034
3180.38625	0.08049
3178.45757	0.08063
3176.52890	0.08074
3174.60022	0.08088
3172.67155	0.08102
3170.74287	0.08115
3168.81420	0.08129
3166.88552	0.08145
3164.95684	0.08163
3163.02817	0.08177
3161.09949	0.08189
3159.17082	0.08202
3157.24214	0.08216
3155.31347	0.08229
3153.38479	0.08242
3151.45611	0.08256
3149.52744	0.08269
3147.59876	0.08282
3145.67009	0.08295
3143.74141	0.08310
3141.81274	0.08324
3139.88406	0.08337
3137.95538	0.08350
3136.02671	0.08364
3134.09803	0.08376
3132.16936	0.08391
3130.24068	0.08410
3128.31201	0.08428
3126.38333	0.08443
3124.45465	0.08454
3122.52598	0.08463
3120.59730	0.08474
3118.66863	0.08488
3116.73995	0.08503
3114.81128	0.08518
3112.88260	0.08531
3110.95392	0.08544
3109.02525	0.08556
3107.09657	0.08568
3105.16790	0.08582
3103.23922	0.08598
3101.31055	0.08615
3099.38187	0.08630
3097.45319	0.08643
3095.52452	0.08657
3093.59584	0.08671
3091.66717	0.08684
3089.73849	0.08697
3087.80982	0.08712
3085.88114	0.08725
3083.95246	0.08735
3082.02379	0.08746
3080.09511	0.08761
3078.16644	0.08778
3076.23776	0.08795
3074.30909	0.08812
3072.38041	0.08828
3070.45173	0.08842
3068.52306	0.08856
3066.59438	0.08870
3064.66571	0.08886
3062.73703	0.08898
3060.80836	0.08908
3058.87968	0.08920
3056.95100	0.08933
3055.02233	0.08946
3053.09365	0.08960
3051.16498	0.08974
3049.23630	0.08987
3047.30763	0.08998
3045.37895	0.09012
3043.45027	0.09028
3041.52160	0.09043
3039.59292	0.09056
3037.66425	0.09071
3035.73557	0.09086
3033.80690	0.09098
3031.87822	0.09110
3029.94954	0.09126
3028.02087	0.09144
3026.09219	0.09159
3024.16352	0.09172
3022.23484	0.09184
3020.30617	0.09196
3018.37749	0.09208
3016.44881	0.09218
3014.52014	0.09231
3012.59146	0.09248
3010.66279	0.09266
3008.73411	0.09282
3006.80544	0.09296
3004.87676	0.09308
3002.94808	0.09319
3001.01941	0.09332
2999.09073	0.09348
2997.16206	0.09363
2995.23338	0.09376
2993.30471	0.09389
2991.37603	0.09401
2989.44735	0.09412
2987.51868	0.09423
2985.59000	0.09430
2983.66133	0.09435
2981.73265	0.09440
2979.80398	0.09446
2977.87530	0.09453
2975.94662	0.09457
2974.01795	0.09459
2972.08927	0.09459
2970.16060	0.09458
2968.23192	0.09456
2966.30325	0.09456
2964.37457	0.09458
2962.44589	0.09467
2960.51722	0.09482
2958.58854	0.09500
2956.65987	0.09520
2954.73119	0.09540
2952.80252	0.09561
2950.87384	0.09579
2948.94516	0.09592
2947.01649	0.09601
2945.08781	0.09611
2943.15914	0.09619
2941.23046	0.09622
2939.30179	0.09622
2937.37311	0.09620
2935.44443	0.09617
2933.51576	0.09613
2931.58708	0.09612
2929.65841	0.09609
2927.72973	0.09603
2925.80106	0.09600
2923.87238	0.09603
2921.94370	0.09609
2920.01503	0.09617
2918.08635	0.09631
2916.15768	0.09658
2914.22900	0.09701
2912.30033	0.09750
2910.37165	0.09795
2908.44297	0.09832
2906.51430	0.09861
2904.58562	0.09889
2902.65695	0.09914
2900.72827	0.09935
2898.79960	0.09954
2896.87092	0.09972
2894.94224	0.09990
2893.01357	0.10008
2891.08489	0.10026
2889.15622	0.10045
2887.22754	0.10067
2885.29887	0.10088
2883.37019	0.10105
2881.44151	0.10118
2879.51284	0.10132
2877.58416	0.10147
2875.65549	0.10161
2873.72681	0.10170
2871.79814	0.10179
2869.86946	0.10193
2867.94078	0.10210
2866.01211	0.10223
2864.08343	0.10230
2862.15476	0.10234
2860.22608	0.10238
2858.29741	0.10238
2856.36873	0.10236
2854.44005	0.10236
2852.51138	0.10239
2850.58270	0.10248
2848.65403	0.10272
2846.72535	0.10313
2844.79668	0.10358
2842.86800	0.10398
2840.93932	0.10434
2839.01065	0.10464
2837.08197	0.10488
2835.15330	0.10508
2833.22462	0.10530
2831.29595	0.10551
2829.36727	0.10568
2827.43859	0.10583
2825.50992	0.10601
2823.58124	0.10621
2821.65257	0.10638
2819.72389	0.10650
2817.79522	0.10661
2815.86654	0.10675
2813.93786	0.10693
2812.00919	0.10714
2810.08051	0.10732
2808.15184	0.10748
2806.22316	0.10765
2804.29449	0.10782
2802.36581	0.10797
2800.43713	0.10810
2798.50846	0.10824
2796.57978	0.10838
2794.65111	0.10852
2792.72243	0.10867
2790.79376	0.10883
2788.86508	0.10897
2786.93640	0.10911
2785.00773	0.10927
2783.07905	0.10943
2781.15038	0.10959
2779.22170	0.10974
2777.29303	0.10990
2775.36435	0.11005
2773.43567	0.11020
2771.50700	0.11034
2769.57832	0.11050
2767.64965	0.11065
2765.72097	0.11079
2763.79230	0.11092
2761.86362	0.11106
2759.93494	0.11122
2758.00627	0.11137
2756.07759	0.11150
2754.14892	0.11162
2752.22024	0.11176
2750.29157	0.11189
2748.36289	0.11203
2746.43421	0.11220
2744.50554	0.11238
2742.57686	0.11256
2740.64819	0.11273
2738.71951	0.11290
2736.79084	0.11305
2734.86216	0.11317
2732.93348	0.11329
2731.00481	0.11343
2729.07613	0.11357
2727.14746	0.11369
2725.21878	0.11382
2723.29011	0.11396
2721.36143	0.11412
2719.43275	0.11427
2717.50408	0.11442
2715.57540	0.11457
2713.64673	0.11471
2711.71805	0.11487
2709.78938	0.11501
2707.86070	0.11515
2705.93202	0.11530
2704.00335	0.11544
2702.07467	0.11558
2700.14600	0.11573
2698.21732	0.11586
2696.28865	0.11599
2694.35997	0.11613
2692.43129	0.11626
2690.50262	0.11639
2688.57394	0.11654
2686.64527	0.11670
2684.71659	0.11687
2682.78792	0.11706
2680.85924	0.11724
2678.93056	0.11738
2677.00189	0.11749
2675.07321	0.11760
2673.14454	0.11773
2671.21586	0.11788
2669.28719	0.11804
2667.35851	0.11818
2665.42983	0.11831
2663.50116	0.11844
2661.57248	0.11855
2659.64381	0.11867
2657.71513	0.11885
2655.78646	0.11906
2653.85778	0.11924
2651.92910	0.11938
2650.00043	0.11952
2648.07175	0.11967
2646.14308	0.11981
2644.21440	0.11994
2642.28573	0.12011
2640.35705	0.12031
2638.42837	0.12048
2636.49970	0.12063
2634.57102	0.12077
2632.64235	0.12091
2630.71367	0.12107
2628.78500	0.12122
2626.85632	0.12137
2624.92764	0.12153
2622.99897	0.12168
2621.07029	0.12183
2619.14162	0.12198
2617.21294	0.12213
2615.28427	0.12229
2613.35559	0.12245
2611.42691	0.12261
2609.49824	0.12277
2607.56956	0.12291
2605.64089	0.12304
2603.71221	0.12320
2601.78354	0.12337
2599.85486	0.12350
2597.92618	0.12363
2595.99751	0.12380
2594.06883	0.12398
2592.14016	0.12415
2590.21148	0.12429
2588.28281	0.12446
2586.35413	0.12466
2584.42545	0.12481
2582.49678	0.12494
2580.56810	0.12509
2578.63943	0.12523
2576.71075	0.12537
2574.78208	0.12553
2572.85340	0.12569
2570.92472	0.12581
2568.99605	0.12590
2567.06737	0.12599
2565.13870	0.12612
2563.21002	0.12630
2561.28135	0.12651
2559.35267	0.12669
2557.42399	0.12687
2555.49532	0.12704
2553.56664	0.12720
2551.63797	0.12732
2549.70929	0.12743
2547.78062	0.12758
2545.85194	0.12775
2543.92326	0.12790
2541.99459	0.12801
2540.06591	0.12814
2538.13724	0.12830
2536.20856	0.12849
2534.27989	0.12867
2532.35121	0.12881
2530.42253	0.12892
2528.49386	0.12903
2526.56518	0.12918
2524.63651	0.12935
2522.70783	0.12952
2520.77916	0.12967
2518.85048	0.12981
2516.92181	0.12996
2514.99313	0.13014
2513.06445	0.13031
2511.13578	0.13046
2509.20710	0.13062
2507.27843	0.13081
2505.34975	0.13098
2503.42108	0.13115
2501.49240	0.13134
2499.56372	0.13151
2497.63505	0.13168
2495.70637	0.13187
2493.77770	0.13202
2491.84902	0.13213
2489.92035	0.13227
2487.99167	0.13248
2486.06299	0.13269
2484.13432	0.13288
2482.20564	0.13304
2480.27697	0.13320
2478.34829	0.13337
2476.41962	0.13353
2474.49094	0.13368
2472.56226	0.13383
2470.63359	0.13401
2468.70491	0.13418
2466.77624	0.13433
2464.84756	0.13446
2462.91889	0.13461
2460.99021	0.13477
2459.06153	0.13493
2457.13286	0.13510
2455.20418	0.13529
2453.27551	0.13544
2451.34683	0.13556
2449.41816	0.13572
2447.48948	0.13589
2445.56080	0.13603
2443.63213	0.13618
2441.70345	0.13634
2439.77478	0.13647
2437.84610	0.13660
2435.91743	0.13679
2433.98875	0.13702
2432.06007	0.13723
2430.13140	0.13738
2428.20272	0.13750
2426.27405	0.13763
2424.34537	0.13779
2422.41670	0.13798
2420.48802	0.13815
2418.55934	0.13827
2416.63067	0.13838
2414.70199	0.13855
2412.77332	0.13876
2410.84464	0.13894
2408.91597	0.13910
2406.98729	0.13926
2405.05861	0.13942
2403.12994	0.13956
2401.20126	0.13968
2399.27259	0.13980
2397.34391	0.13995
2395.41524	0.14016
2393.48656	0.14037
2391.55788	0.14053
2389.62921	0.14064
2387.70053	0.14080
2385.77186	0.14099
2383.84318	0.14115
2381.91451	0.14125
2379.98583	0.14135
2378.05715	0.14143
2376.12848	0.14145
2374.19980	0.14142
2372.27113	0.14139
2370.34245	0.14143
2368.41378	0.14150
2366.48510	0.14157
2364.55642	0.14167
2362.62775	0.14181
2360.69907	0.14194
2358.77040	0.14210
2356.84172	0.14233
2354.91305	0.14260
2352.98437	0.14292
2351.05569	0.14322
2349.12702	0.14342
2347.19834	0.14351
2345.26967	0.14358
2343.34099	0.14366
2341.41232	0.14377
2339.48364	0.14390
2337.55496	0.14406
2335.62629	0.14426
2333.69761	0.14444
2331.76894	0.14459
2329.84026	0.14474
2327.91159	0.14495
2325.98291	0.14520
2324.05423	0.14543
2322.12556	0.14564
2320.19688	0.14584
2318.26821	0.14604
2316.33953	0.14624
2314.41086	0.14645
2312.48218	0.14666
2310.55350	0.14688
2308.62483	0.14711
2306.69615	0.14733
2304.76748	0.14751
2302.83880	0.14766
2300.91013	0.14783
2298.98145	0.14798
2297.05277	0.14812
2295.12410	0.14828
2293.19542	0.14847
2291.26675	0.14866
2289.33807	0.14886
2287.40940	0.14903
2285.48072	0.14917
2283.55204	0.14929
2281.62337	0.14945
2279.69469	0.14962
2277.76602	0.14976
2275.83734	0.14991
2273.90867	0.15007
2271.97999	0.15026
2270.05131	0.15046
2268.12264	0.15064
2266.19396	0.15078
2264.26529	0.15089
2262.33661	0.15104
2260.40794	0.15121
2258.47926	0.15137
2256.55058	0.15150
2254.62191	0.15162
2252.69323	0.15176
2250.76456	0.15192
2248.83588	0.15210
2246.90721	0.15230
2244.97853	0.15249
2243.04985	0.15264
2241.12118	0.15278
2239.19250	0.15295
2237.26383	0.15313
2235.33515	0.15334
2233.40648	0.15353
2231.47780	0.15367
2229.54912	0.15380
2227.62045	0.15396
2225.69177	0.15413
2223.76310	0.15425
2221.83442	0.15438
2219.90575	0.15455
2217.97707	0.15470
2216.04839	0.15485
2214.11972	0.15503
2212.19104	0.15519
2210.26237	0.15532
2208.33369	0.15544
2206.40502	0.15557
2204.47634	0.15570
2202.54766	0.15586
2200.61899	0.15602
2198.69031	0.15619
2196.76164	0.15636
2194.83296	0.15654
2192.90429	0.15672
2190.97561	0.15687
2189.04693	0.15700
2187.11826	0.15714
2185.18958	0.15729
2183.26091	0.15743
2181.33223	0.15757
2179.40356	0.15772
2177.47488	0.15791
2175.54620	0.15810
2173.61753	0.15827
2171.68885	0.15842
2169.76018	0.15855
2167.83150	0.15871
2165.90283	0.15890
2163.97415	0.15910
2162.04547	0.15925
2160.11680	0.15935
2158.18812	0.15945
2156.25945	0.15959
2154.33077	0.15977
2152.40210	0.15998
2150.47342	0.16016
2148.54474	0.16033
2146.61607	0.16050
2144.68739	0.16069
2142.75872	0.16086
2140.83004	0.16099
2138.90137	0.16112
2136.97269	0.16130
2135.04401	0.16154
2133.11534	0.16175
2131.18666	0.16190
2129.25799	0.16202
2127.32931	0.16212
2125.40064	0.16223
2123.47196	0.16236
2121.54328	0.16253
2119.61461	0.16270
2117.68593	0.16288
2115.75726	0.16306
2113.82858	0.16327
2111.89991	0.16347
2109.97123	0.16362
2108.04255	0.16376
2106.11388	0.16393
2104.18520	0.16409
2102.25653	0.16422
2100.32785	0.16436
2098.39918	0.16452
2096.47050	0.16469
2094.54182	0.16488
2092.61315	0.16507
2090.68447	0.16524
2088.75580	0.16539
2086.82712	0.16556
2084.89845	0.16575
2082.96977	0.16593
2081.04109	0.16609
2079.11242	0.16620
2077.18374	0.16632
2075.25507	0.16650
2073.32639	0.16670
2071.39772	0.16686
2069.46904	0.16700
2067.54036	0.16713
2065.61169	0.16728
2063.68301	0.16747
2061.75434	0.16765
2059.82566	0.16779
2057.89699	0.16796
2055.96831	0.16814
2054.03963	0.16830
2052.11096	0.16846
2050.18228	0.16861
2048.25361	0.16872
2046.32493	0.16887
2044.39626	0.16907
2042.46758	0.16924
2040.53890	0.16940
2038.61023	0.16958
2036.68155	0.16979
2034.75288	0.17000
2032.82420	0.17015
2030.89553	0.17026
2028.96685	0.17042
2027.03817	0.17060
2025.10950	0.17076
2023.18082	0.17091
2021.25215	0.17108
2019.32347	0.17124
2017.39480	0.17138
2015.46612	0.17154
2013.53744	0.17172
2011.60877	0.17190
2009.68009	0.17206
2007.75142	0.17221
2005.82274	0.17236
2003.89407	0.17252
2001.96539	0.17268
2000.03671	0.17284
1998.10804	0.17299
1996.17936	0.17311
1994.25069	0.17320
1992.32201	0.17333
1990.39334	0.17353
1988.46466	0.17372
1986.53598	0.17386
1984.60731	0.17399
1982.67863	0.17414
1980.74996	0.17429
1978.82128	0.17442
1976.89261	0.17457
1974.96393	0.17471
1973.03525	0.17484
1971.10658	0.17495
1969.17790	0.17507
1967.24923	0.17520
1965.32055	0.17539
1963.39188	0.17559
1961.46320	0.17573
1959.53452	0.17588
1957.60585	0.17604
1955.67717	0.17619
1953.74850	0.17634
1951.81982	0.17650
1949.89115	0.17666
1947.96247	0.17682
1946.03379	0.17694
1944.10512	0.17699
1942.17644	0.17710
1940.24777	0.17732
1938.31909	0.17757
1936.39042	0.17779
1934.46174	0.17796
1932.53306	0.17808
1930.60439	0.17817
1928.67571	0.17829
1926.74704	0.17845
1924.81836	0.17861
1922.88969	0.17876
1920.96101	0.17886
1919.03233	0.17895
1917.10366	0.17916
1915.17498	0.17944
1913.24631	0.17965
1911.31763	0.17978
1909.38896	0.17988
1907.46028	0.18000
1905.53160	0.18015
1903.60293	0.18034
1901.67425	0.18054
1899.74558	0.18067
1897.81690	0.18074
1895.88823	0.18087
1893.95955	0.18103
1892.03087	0.18110
1890.10220	0.18115
1888.17352	0.18140
1886.24485	0.18171
1884.31617	0.18190
1882.38750	0.18204
1880.45882	0.18220
1878.53014	0.18236
1876.60147	0.18250
1874.67279	0.18264
1872.74412	0.18274
1870.81544	0.18274
1868.88677	0.18276
1866.95809	0.18296
1865.02941	0.18327
1863.10074	0.18356
1861.17206	0.18379
1859.24339	0.18396
1857.31471	0.18412
1855.38604	0.18430
1853.45736	0.18447
1851.52868	0.18459
1849.60001	0.18462
1847.67133	0.18448
1845.74266	0.18419
1843.81398	0.18426
1841.88531	0.18485
1839.95663	0.18536
1838.02795	0.18559
1836.09928	0.18581
1834.17060	0.18600
1832.24193	0.18599
1830.31325	0.18590
1828.38458	0.18592
1826.45590	0.18602
1824.52722	0.18627
1822.59855	0.18673
1820.66987	0.18707
1818.74120	0.18720
1816.81252	0.18734
1814.88385	0.18748
1812.95517	0.18754
1811.02649	0.18760
1809.09782	0.18782
1807.16914	0.18808
1805.24047	0.18814
1803.31179	0.18803
1801.38312	0.18804
1799.45444	0.18831
1797.52576	0.18861
1795.59709	0.18870
1793.66841	0.18856
1791.73974	0.18848
1789.81106	0.18877
1787.88239	0.18918
1785.95371	0.18938
1784.02503	0.18943
1782.09636	0.18951
1780.16768	0.18965
1778.23901	0.18978
1776.31033	0.18976
1774.38166	0.18958
1772.45298	0.18939
1770.52430	0.18936
1768.59563	0.18955
1766.66695	0.19003
1764.73828	0.19052
1762.80960	0.19069
1760.88093	0.19069
1758.95225	0.19062
1757.02357	0.19054
1755.09490	0.19062
1753.16622	0.19060
1751.23755	0.19033
1749.30887	0.19020
1747.38020	0.19042
1745.45152	0.19067
1743.52284	0.19074
1741.59417	0.19072
1739.66549	0.19074
1737.73682	0.19067
1735.80814	0.19023
1733.87947	0.18987
1731.95079	0.19017
1730.02211	0.19077
1728.09344	0.19132
1726.16476	0.19172
1724.23609	0.19190
1722.30741	0.19185
1720.37874	0.19147
1718.45006	0.19105
1716.52138	0.19110
1714.59271	0.19160
1712.66403	0.19219
1710.73536	0.19257
1708.80668	0.19259
1706.87801	0.19247
1704.94933	0.19249
1703.02065	0.19242
1701.09198	0.19211
1699.16330	0.19195
1697.23463	0.19193
1695.30595	0.19214
1693.37728	0.19279
1691.44860	0.19326
1689.51992	0.19323
1687.59125	0.19291
1685.66257	0.19236
1683.73390	0.19214
1681.80522	0.19254
1679.87655	0.19306
1677.94787	0.19325
1676.01919	0.19321
1674.09052	0.19321
1672.16184	0.19313
1670.23317	0.19291
1668.30449	0.19309
1666.37582	0.19364
1664.44714	0.19395
1662.51846	0.19401
1660.58979	0.19414
1658.66111	0.19418
1656.73244	0.19367
1654.80376	0.19261
1652.87509	0.19223
1650.94641	0.19300
1649.01773	0.19355
1647.08906	0.19343
1645.16038	0.19361
1643.23171	0.19419
1641.30303	0.19455
1639.37436	0.19442
1637.44568	0.19405
1635.51700	0.19397
1633.58833	0.19440
1631.65965	0.19481
1629.73098	0.19485
1627.80230	0.19474
1625.87363	0.19448
1623.94495	0.19409
1622.01627	0.19387
1620.08760	0.19390
1618.15892	0.19410
1616.23025	0.19466
1614.30157	0.19541
1612.37290	0.19596
1610.44422	0.19625
1608.51554	0.19647
1606.58687	0.19671
1604.65819	0.19688
1602.72952	0.19704
1600.80084	0.19727
1598.87217	0.19753
1596.94349	0.19774
1595.01481	0.19791
1593.08614	0.19809
1591.15746	0.19826
1589.22879	0.19841
1587.30011	0.19856
1585.37144	0.19873
1583.44276	0.19890
1581.51408	0.19905
1579.58541	0.19906
1577.65673	0.19895
1575.72806	0.19903
1573.79938	0.19929
1571.87071	0.19923
1569.94203	0.19904
1568.01335	0.19926
1566.08468	0.19969
1564.15600	0.19996
1562.22733	0.19978
1560.29865	0.19900
1558.36998	0.19850
1556.44130	0.19901
1554.51262	0.19986
1552.58395	0.20037
1550.65527	0.20062
1548.72660	0.20090
1546.79792	0.20107
1544.86925	0.20078
1542.94057	0.20019
1541.01189	0.19979
1539.08322	0.20002
1537.15454	0.20077
1535.22587	0.20135
1533.29719	0.20156
1531.36852	0.20171
1529.43984	0.20175
1527.51116	0.20169
1525.58249	0.20171
1523.65381	0.20156
1521.72514	0.20123
1519.79646	0.20123
1517.86779	0.20154
1515.93911	0.20179
1514.01043	0.20190
1512.08176	0.20187
1510.15308	0.20167
1508.22441	0.20145
1506.29573	0.20173
1504.36706	0.20247
1502.43838	0.20297
1500.50970	0.20295
1498.58103	0.20268
1496.65235	0.20255
1494.72368	0.20271
1492.79500	0.20273
1490.86633	0.20239
1488.93765	0.20219
1487.00897	0.20239
1485.08030	0.20261
1483.15162	0.20257
1481.22295	0.20239
1479.29427	0.20220
1477.36560	0.20178
1475.43692	0.20108
1473.50824	0.20051
1471.57957	0.20043
1469.65089	0.20055
1467.72222	0.20041
1465.79354	0.20008
1463.86487	0.19984
1461.93619	0.19961
1460.00751	0.19902
1458.07884	0.19839
1456.15016	0.19838
1454.22149	0.19885
1452.29281	0.19921
1450.36414	0.19927
1448.43546	0.19922
1446.50678	0.19935
1444.57811	0.19967
1442.64943	0.19994
1440.72076	0.19997
1438.79208	0.19972
1436.86341	0.19955
1434.93473	0.19986
1433.00605	0.20030
1431.07738	0.20050
1429.14870	0.20059
1427.22003	0.20064
1425.29135	0.20058
1423.36268	0.20050
1421.43400	0.20035
1419.50532	0.20014
1417.57665	0.20028
1415.64797	0.20069
1413.71930	0.20094
1411.79062	0.20104
1409.86195	0.20109
1407.93327	0.20096
1406.00459	0.20077
1404.07592	0.20081
1402.14724	0.20089
1400.21857	0.20072
1398.28989	0.20045
1396.36122	0.20034
1394.43254	0.20042
1392.50386	0.20059
1390.57519	0.20058
1388.64651	0.20023
1386.71784	0.19988
1384.78916	0.19981
1382.86049	0.19990
1380.93181	0.19994
1379.00313	0.19989
1377.07446	0.19971
1375.14578	0.19954
1373.21711	0.19960
1371.28843	0.19979
1369.35976	0.19988
1367.43108	0.19981
1365.50240	0.19958
1363.57373	0.19932
1361.64505	0.19936
1359.71638	0.19961
1357.78770	0.19976
1355.85903	0.19984
1353.93035	0.19994
1352.00167	0.20006
1350.07300	0.20017
1348.14432	0.20026
1346.21565	0.20030
1344.28697	0.20029
1342.35830	0.20017
1340.42962	0.20000
1338.50094	0.19991
1336.57227	0.19992
1334.64359	0.19999
1332.71492	0.20001
1330.78624	0.19994
1328.85757	0.19978
1326.92889	0.19959
1325.00021	0.19942
1323.07154	0.19923
1321.14286	0.19902
1319.21419	0.19884
1317.28551	0.19873
1315.35684	0.19863
1313.42816	0.19846
1311.49948	0.19822
1309.57081	0.19799
1307.64213	0.19781
1305.71346	0.19761
1303.78478	0.19738
1301.85611	0.19715
1299.92743	0.19698
1297.99875	0.19679
1296.07008	0.19654
1294.14140	0.19631
1292.21273	0.19614
1290.28405	0.19598
1288.35538	0.19577
1286.42670	0.19553
1284.49802	0.19531
1282.56935	0.19508
1280.64067	0.19481
1278.71200	0.19453
1276.78332	0.19427
1274.85465	0.19393
1272.92597	0.19344
1270.99729	0.19278
1269.06862	0.19191
1267.13994	0.19095
1265.21127	0.19007
1263.28259	0.18945
1261.35392	0.18916
1259.42524	0.18923
1257.49656	0.18951
1255.56789	0.18973
1253.63921	0.18977
1251.71054	0.18963
1249.78186	0.18939
1247.85319	0.18907
1245.92451	0.18863
1243.99583	0.18813
1242.06716	0.18773
1240.13848	0.18743
1238.20981	0.18707
1236.28113	0.18654
1234.35246	0.18594
1232.42378	0.18535
1230.49510	0.18475
1228.56643	0.18413
1226.63775	0.18358
1224.70908	0.18313
1222.78040	0.18270
1220.85173	0.18218
1218.92305	0.18162
1216.99437	0.18107
1215.06570	0.18052
1213.13702	0.18000
1211.20835	0.17950
1209.27967	0.17896
1207.35100	0.17841
1205.42232	0.17787
1203.49364	0.17729
1201.56497	0.17665
1199.63629	0.17605
1197.70762	0.17551
1195.77894	0.17497
1193.85027	0.17436
1191.92159	0.17368
1189.99291	0.17295
1188.06424	0.17217
1186.13556	0.17135
1184.20689	0.17055
1182.27821	0.16976
1180.34954	0.16896
1178.42086	0.16812
1176.49218	0.16724
1174.56351	0.16636
1172.63483	0.16552
1170.70616	0.16474
1168.77748	0.16393
1166.84881	0.16307
1164.92013	0.16216
1162.99145	0.16125
1161.06278	0.16039
1159.13410	0.15962
1157.20543	0.15887
1155.27675	0.15813
1153.34808	0.15741
1151.41940	0.15668
1149.49072	0.15589
1147.56205	0.15505
1145.63337	0.15415
1143.70470	0.15323
1141.77602	0.15228
1139.84735	0.15127
1137.91867	0.15021
1135.98999	0.14908
1134.06132	0.14781
1132.13264	0.14631
1130.20397	0.14455
1128.27529	0.14252
1126.34662	0.14027
1124.41794	0.13794
1122.48926	0.13561
1120.56059	0.13334
1118.63191	0.13117
1116.70324	0.12916
1114.77456	0.12733
1112.84589	0.12570
1110.91721	0.12434
1108.98853	0.12332
1107.05986	0.12260
1105.13118	0.12214
1103.20251	0.12198
1101.27383	0.12211
1099.34516	0.12252
1097.41648	0.12314
1095.48780	0.12391
1093.55913	0.12471
1091.63045	0.12549
1089.70178	0.12627
1087.77310	0.12701
1085.84443	0.12768
1083.91575	0.12823
1081.98707	0.12862
1080.05840	0.12888
1078.12972	0.12909
1076.20105	0.12927
1074.27237	0.12938
1072.34370	0.12946
1070.41502	0.12960
1068.48634	0.12978
1066.55767	0.12994
1064.62899	0.13012
1062.70032	0.13029
1060.77164	0.13047
1058.84297	0.13072
1056.91429	0.13107
1054.98561	0.13146
1053.05694	0.13180
1051.12826	0.13202
1049.19959	0.13222
1047.27091	0.13259
1045.34224	0.13306
1043.41356	0.13348
1041.48488	0.13383
1039.55621	0.13418
1037.62753	0.13456
1035.69886	0.13497
1033.77018	0.13537
1031.84151	0.13576
1029.91283	0.13612
1027.98415	0.13642
1026.05548	0.13671
1024.12680	0.13708
1022.19813	0.13754
1020.26945	0.13800
1018.34078	0.13844
1016.41210	0.13888
1014.48342	0.13931
1012.55475	0.13982
1010.62607	0.14045
1008.69740	0.14114
1006.76872	0.14174
1004.84005	0.14220
1002.91137	0.14262
1000.98269	0.14304
999.05402	0.14337
997.12534	0.14358
995.19667	0.14375
993.26799	0.14383
991.33932	0.14383
989.41064	0.14383
987.48196	0.14387
985.55329	0.14394
983.62461	0.14397
981.69594	0.14389
979.76726	0.14371
977.83859	0.14352
975.90991	0.14343
973.98123	0.14338
972.05256	0.14326
970.12388	0.14308
968.19521	0.14289
966.26653	0.14272
964.33786	0.14254
962.40918	0.14236
960.48050	0.14222
958.55183	0.14208
956.62315	0.14188
954.69448	0.14165
952.76580	0.14146
950.83713	0.14129
948.90845	0.14106
946.97977	0.14079
945.05110	0.14055
943.12242	0.14033
941.19375	0.14005
939.26507	0.13967
937.33640	0.13923
935.40772	0.13878
933.47904	0.13827
931.55037	0.13771
929.62169	0.13721
927.69302	0.13673
925.76434	0.13622
923.83567	0.13567
921.90699	0.13510
919.97831	0.13449
918.04964	0.13384
916.12096	0.13314
914.19229	0.13240
912.26361	0.13163
910.33494	0.13092
908.40626	0.13030
906.47758	0.12964
904.54891	0.12892
902.62023	0.12829
900.69156	0.12775
898.76288	0.12718
896.83421	0.12665
894.90553	0.12621
892.97685	0.12578
891.04818	0.12531
889.11950	0.12484
887.19083	0.12441
885.26215	0.12396
883.33348	0.12351
881.40480	0.12314
879.47612	0.12290
877.54745	0.12273
875.61877	0.12247
873.69010	0.12216
871.76142	0.12193
869.83275	0.12172
867.90407	0.12145
865.97539	0.12118
864.04672	0.12103
862.11804	0.12099
860.18937	0.12095
858.26069	0.12085
856.33202	0.12070
854.40334	0.12050
852.47466	0.12023
850.54599	0.11994
848.61731	0.11970
846.68864	0.11947
844.75996	0.11921
842.83129	0.11895
840.90261	0.11873
838.97394	0.11845
837.04526	0.11799
835.11658	0.11733
833.18791	0.11661
831.25923	0.11578
829.33056	0.11475
827.40188	0.11367
825.47321	0.11266
823.54453	0.11173
821.61585	0.11093
819.68718	0.11024
817.75850	0.10961
815.82983	0.10910
813.90115	0.10876
811.97248	0.10849
810.04380	0.10823
808.11512	0.10808
806.18645	0.10805
804.25777	0.10804
802.32910	0.10797
800.40042	0.10771
798.47175	0.10721
796.54307	0.10661
794.61439	0.10605
792.68572	0.10566
790.75704	0.10547
788.82837	0.10529
786.89969	0.10504
784.97102	0.10476
783.04234	0.10450
781.11366	0.10427
779.18499	0.10401
777.25631	0.10368
775.32764	0.10335
773.39896	0.10305
771.47029	0.10277
769.54161	0.10243
767.61293	0.10201
765.68426	0.10153
763.75558	0.10104
761.82691	0.10060
759.89823	0.10019
757.96956	0.09976
756.04088	0.09923
754.11220	0.09857
752.18353	0.09788
750.25485	0.09725
748.32618	0.09659
746.39750	0.09578
744.46883	0.09482
742.54015	0.09381
740.61147	0.09298
738.68280	0.09255
736.75412	0.09240
734.82545	0.09232
732.89677	0.09228
730.96810	0.09234
729.03942	0.09245
727.11074	0.09254
725.18207	0.09264
723.25339	0.09281
721.32472	0.09303
719.39604	0.09322
717.46737	0.09339
715.53869	0.09369
713.61001	0.09417
711.68134	0.09461
709.75266	0.09486
707.82399	0.09499
705.89531	0.09497
703.96664	0.09478
702.03796	0.09446
700.10928	0.09411
698.18061	0.09368
696.25193	0.09309
694.32326	0.09242
692.39458	0.09181
690.46591	0.09132
688.53723	0.09088
686.60855	0.09037
684.67988	0.08983
682.75120	0.08937
680.82253	0.08896
678.89385	0.08842
676.96518	0.08772
675.03650	0.08694
673.10782	0.08621
671.17915	0.08547
669.25047	0.08464
667.32180	0.08382
665.39312	0.08308
663.46445	0.08233
661.53577	0.08150
659.60709	0.08064
657.67842	0.07973
655.74974	0.07886
653.82107	0.07810
651.89239	0.07739
649.96372	0.07666
648.03504	0.07590
646.10636	0.07505
644.17769	0.07408
642.24901	0.07301
640.32034	0.07194
638.39166	0.07097
636.46299	0.07000
634.53431	0.06891
632.60563	0.06753
630.67696	0.06531
628.74828	0.06188
626.81961	0.05744
624.89093	0.05294
622.96226	0.04943
621.03358	0.04721
619.10490	0.04600
617.17623	0.04520
615.24755	0.04434
613.31888	0.04333
611.39020	0.04239
609.46153	0.04185
607.53285	0.04188
605.60417	0.04229
603.67550	0.04284
601.74682	0.04352
599.81815	0.04440
597.88947	0.04531
595.96080	0.04602
594.03212	0.04647
592.10344	0.04677
590.17477	0.04695
588.24609	0.04698
586.31742	0.04679
584.38874	0.04645
582.46007	0.04611
580.53139	0.04578
578.60271	0.04539
576.67404	0.04494
574.74536	0.04443
572.81669	0.04382
570.88801	0.04312
568.95934	0.04240
567.03066	0.04184
565.10198	0.04147
563.17331	0.04114
561.24463	0.04085
559.31596	0.04064
557.38728	0.04041
555.45861	0.04016
553.52993	0.03998
551.60125	0.03987
549.67258	0.03973
547.74390	0.03953
545.81523	0.03931
543.88655	0.03913
541.95788	0.03901
540.02920	0.03893
538.10052	0.03879
536.17185	0.03862
534.24317	0.03851
532.31450	0.03832
530.38582	0.03793
528.45715	0.03747
526.52847	0.03709
524.59979	0.03675
522.67112	0.03638
520.74244	0.03596
518.81377	0.03549
516.88509	0.03494
514.95642	0.03439
513.02774	0.03398
511.09906	0.03376
509.17039	0.03359
507.24171	0.03340
505.31304	0.03311
503.38436	0.03265
501.45569	0.03213
499.52701	0.03161
497.59833	0.03107
495.66966	0.03058
493.74098	0.03010
491.81231	0.02963
489.88363	0.02911
487.95496	0.02856
486.02628	0.02811
484.09760	0.02773
482.16893	0.02728
480.24025	0.02677
478.31158	0.02624
476.38290	0.02558
474.45423	0.02482
472.52555	0.02425
470.59687	0.02399
468.66820	0.02374
466.73952	0.02334
464.81085	0.02294
462.88217	0.02267
460.95350	0.02255
459.02482	0.02249
457.09614	0.02239
455.16747	0.02229
453.23879	0.02228
451.31012	0.02237
449.38144	0.02241
447.45277	0.02233
445.52409	0.02209
443.59541	0.02175
441.66674	0.02132
439.73806	0.02085
437.80939	0.02045
435.88071	0.02017
433.95204	0.01984
432.02336	0.01933
430.09468	0.01875
428.16601	0.01824
426.23733	0.01777
424.30866	0.01713
422.37998	0.01633
420.45131	0.01557
418.52263	0.01489
416.59395	0.01415
414.66528	0.01338
412.73660	0.01272
410.80793	0.01213
408.87925	0.01152
406.95058	0.01094
405.02190	0.01044
403.09322	0.00998
401.16455	0.00950
399.23587	0.00900
397.30720	0.00846
395.37852	0.00789
393.44985	0.00734
391.52117	0.00677
389.59249	0.00624
387.66382	0.00586
385.73514	0.00556
383.80647	0.00512
381.87779	0.00454
379.94912	0.00408
378.02044	0.00386
376.09176	0.00369
374.16309	0.00347
372.23441	0.00320
370.30574	0.00288
368.37706	0.00253
