7496.76250	0.00118
7494.83382	0.00120
7492.90514	0.00121
7490.97647	0.00122
7489.04779	0.00122
7487.11912	0.00122
7485.19044	0.00120
7483.26177	0.00119
7481.33309	0.00118
7479.40441	0.00118
7477.47574	0.00119
7475.54706	0.00121
7473.61839	0.00123
7471.68971	0.00123
7469.76104	0.00122
7467.83236	0.00122
7465.90368	0.00123
7463.97501	0.00123
7462.04633	0.00123
7460.11766	0.00124
7458.18898	0.00124
7456.26031	0.00124
7454.33163	0.00125
7452.40295	0.00126
7450.47428	0.00126
7448.54560	0.00127
7446.61693	0.00127
7444.68825	0.00127
7442.75958	0.00128
7440.83090	0.00127
7438.90222	0.00126
7436.97355	0.00126
7435.04487	0.00127
7433.11620	0.00129
7431.18752	0.00130
7429.25885	0.00131
7427.33017	0.00131
7425.40149	0.00130
7423.47282	0.00129
7421.54414	0.00128
7419.61547	0.00129
7417.68679	0.00130
7415.75812	0.00131
7413.82944	0.00131
7411.90076	0.00132
7409.97209	0.00133
7408.04341	0.00134
7406.11474	0.00133
7404.18606	0.00132
7402.25739	0.00132
7400.32871	0.00133
7398.40003	0.00134
7396.47136	0.00135
7394.54268	0.00136
7392.61401	0.00135
7390.68533	0.00134
7388.75666	0.00135
7386.82798	0.00137
7384.89930	0.00137
7382.97063	0.00137
7381.04195	0.00138
7379.11328	0.00138
7377.18460	0.00139
7375.25593	0.00140
7373.32725	0.00140
7371.39857	0.00140
7369.46990	0.00139
7367.54122	0.00139
7365.61255	0.00140
7363.68387	0.00140
7361.75520	0.00139
7359.82652	0.00140
7357.89784	0.00141
7355.96917	0.00142
7354.04049	0.00142
7352.11182	0.00142
7350.18314	0.00141
7348.25447	0.00140
7346.32579	0.00142
7344.39711	0.00143
7342.46844	0.00145
7340.53976	0.00147
7338.61109	0.00147
7336.68241	0.00147
7334.75374	0.00146
7332.82506	0.00147
7330.89638	0.00147
7328.96771	0.00147
7327.03903	0.00146
7325.11036	0.00146
7323.18168	0.00147
7321.25301	0.00147
7319.32433	0.00148
7317.39565	0.00148
7315.46698	0.00148
7313.53830	0.00149
7311.60963	0.00150
7309.68095	0.00150
7307.75228	0.00150
7305.82360	0.00150
7303.89492	0.00150
7301.96625	0.00150
7300.03757	0.00150
7298.10890	0.00151
7296.18022	0.00152
7294.25155	0.00152
7292.32287	0.00152
7290.39419	0.00153
7288.46552	0.00155
7286.53684	0.00156
7284.60817	0.00155
7282.67949	0.00155
7280.75082	0.00155
7278.82214	0.00156
7276.89346	0.00156
7274.96479	0.00156
7273.03611	0.00157
7271.10744	0.00157
7269.17876	0.00158
7267.25009	0.00158
7265.32141	0.00158
7263.39273	0.00157
7261.46406	0.00157
7259.53538	0.00159
7257.60671	0.00160
7255.67803	0.00160
7253.74936	0.00158
7251.82068	0.00159
7249.89200	0.00161
7247.96333	0.00163
7246.03465	0.00163
7244.10598	0.00162
7242.17730	0.00161
7240.24863	0.00162
7238.31995	0.00163
7236.39127	0.00163
7234.46260	0.00163
7232.53392	0.00164
7230.60525	0.00164
7228.67657	0.00164
7226.74790	0.00164
7224.81922	0.00166
7222.89054	0.00168
7220.96187	0.00168
7219.03319	0.00168
7217.10452	0.00168
7215.17584	0.00168
7213.24717	0.00168
7211.31849	0.00167
7209.38981	0.00167
7207.46114	0.00167
7205.53246	0.00168
7203.60379	0.00169
7201.67511	0.00170
7199.74644	0.00172
7197.81776	0.00171
7195.88908	0.00171
7193.96041	0.00172
7192.03173	0.00171
7190.10306	0.00171
7188.17438	0.00172
7186.24571	0.00174
7184.31703	0.00174
7182.38835	0.00173
7180.45968	0.00173
7178.53100	0.00174
7176.60233	0.00177
7174.67365	0.00178
7172.74498	0.00178
7170.81630	0.00177
7168.88762	0.00176
7166.95895	0.00175
7165.03027	0.00176
7163.10160	0.00178
7161.17292	0.00179
7159.24425	0.00179
7157.31557	0.00180
7155.38689	0.00180
7153.45822	0.00180
7151.52954	0.00179
7149.60087	0.00179
7147.67219	0.00181
7145.74352	0.00182
7143.81484	0.00183
7141.88616	0.00181
7139.95749	0.00180
7138.02881	0.00181
7136.10014	0.00183
7134.17146	0.00184
7132.24279	0.00185
7130.31411	0.00186
7128.38543	0.00187
7126.45676	0.00187
7124.52808	0.00188
7122.59941	0.00189
7120.67073	0.00189
7118.74206	0.00189
7116.81338	0.00188
7114.88470	0.00188
7112.95603	0.00188
7111.02735	0.00189
7109.09868	0.00189
7107.17000	0.00190
7105.24133	0.00190
7103.31265	0.00190
7101.38397	0.00191
7099.45530	0.00191
7097.52662	0.00191
7095.59795	0.00192
7093.66927	0.00193
7091.74060	0.00194
7089.81192	0.00193
7087.88324	0.00193
7085.95457	0.00194
7084.02589	0.00196
7082.09722	0.00196
7080.16854	0.00197
7078.23987	0.00198
7076.31119	0.00197
7074.38251	0.00196
7072.45384	0.00196
7070.52516	0.00196
7068.59649	0.00198
7066.66781	0.00201
7064.73914	0.00202
7062.81046	0.00200
7060.88178	0.00199
7058.95311	0.00199
7057.02443	0.00199
7055.09576	0.00199
7053.16708	0.00200
7051.23841	0.00202
7049.30973	0.00204
7047.38105	0.00206
7045.45238	0.00206
7043.52370	0.00205
7041.59503	0.00205
7039.66635	0.00205
7037.73768	0.00205
7035.80900	0.00206
7033.88032	0.00207
7031.95165	0.00207
7030.02297	0.00206
7028.09430	0.00207
7026.16562	0.00208
7024.23695	0.00208
7022.30827	0.00208
7020.37959	0.00207
7018.45092	0.00208
7016.52224	0.00210
7014.59357	0.00211
7012.66489	0.00211
7010.73622	0.00210
7008.80754	0.00211
7006.87886	0.00213
7004.95019	0.00214
7003.02151	0.00213
7001.09284	0.00213
6999.16416	0.00212
6997.23549	0.00211
6995.30681	0.00211
6993.37813	0.00213
6991.44946	0.00215
6989.52078	0.00217
6987.59211	0.00216
6985.66343	0.00216
6983.73476	0.00216
6981.80608	0.00217
6979.87740	0.00217
6977.94873	0.00218
6976.02005	0.00220
6974.09138	0.00221
6972.16270	0.00222
6970.23403	0.00221
6968.30535	0.00222
6966.37667	0.00222
6964.44800	0.00223
6962.51932	0.00224
6960.59065	0.00227
6958.66197	0.00228
6956.73330	0.00226
6954.80462	0.00225
6952.87594	0.00226
6950.94727	0.00226
6949.01859	0.00226
6947.08992	0.00225
6945.16124	0.00225
6943.23257	0.00226
6941.30389	0.00227
6939.37521	0.00228
6937.44654	0.00228
6935.51786	0.00229
6933.58919	0.00231
6931.66051	0.00231
6929.73184	0.00231
6927.80316	0.00230
6925.87448	0.00231
6923.94581	0.00232
6922.01713	0.00233
6920.08846	0.00233
6918.15978	0.00234
6916.23111	0.00235
6914.30243	0.00235
6912.37375	0.00235
6910.44508	0.00236
6908.51640	0.00237
6906.58773	0.00238
6904.65905	0.00239
6902.73038	0.00239
6900.80170	0.00238
6898.87302	0.00237
6896.94435	0.00238
6895.01567	0.00238
6893.08700	0.00238
6891.15832	0.00239
6889.22965	0.00239
6887.30097	0.00239
6885.37229	0.00239
6883.44362	0.00239
6881.51494	0.00241
6879.58627	0.00243
6877.65759	0.00244
6875.72892	0.00244
6873.80024	0.00244
6871.87156	0.00245
6869.94289	0.00247
6868.01421	0.00248
6866.08554	0.00247
6864.15686	0.00247
6862.22819	0.00248
6860.29951	0.00248
6858.37083	0.00248
6856.44216	0.00248
6854.51348	0.00250
6852.58481	0.00251
6850.65613	0.00252
6848.72746	0.00253
6846.79878	0.00253
6844.87010	0.00253
6842.94143	0.00253
6841.01275	0.00254
6839.08408	0.00254
6837.15540	0.00254
6835.22673	0.00255
6833.29805	0.00257
6831.36937	0.00258
6829.44070	0.00258
6827.51202	0.00257
6825.58335	0.00256
6823.65467	0.00257
6821.72600	0.00258
6819.79732	0.00259
6817.86864	0.00260
6815.93997	0.00261
6814.01129	0.00261
6812.08262	0.00261
6810.15394	0.00260
6808.22527	0.00260
6806.29659	0.00261
6804.36791	0.00264
6802.43924	0.00265
6800.51056	0.00265
6798.58189	0.00264
6796.65321	0.00264
6794.72454	0.00266
6792.79586	0.00268
6790.86718	0.00268
6788.93851	0.00268
6787.00983	0.00268
6785.08116	0.00270
6783.15248	0.00272
6781.22381	0.00271
6779.29513	0.00269
6777.36645	0.00269
6775.43778	0.00271
6773.50910	0.00272
6771.58043	0.00273
6769.65175	0.00274
6767.72308	0.00274
6765.79440	0.00274
6763.86572	0.00275
6761.93705	0.00277
6760.00837	0.00279
6758.07970	0.00280
6756.15102	0.00278
6754.22235	0.00277
6752.29367	0.00278
6750.36499	0.00279
6748.43632	0.00279
6746.50764	0.00279
6744.57897	0.00280
6742.65029	0.00281
6740.72162	0.00282
6738.79294	0.00283
6736.86426	0.00283
6734.93559	0.00283
6733.00691	0.00284
6731.07824	0.00284
6729.14956	0.00284
6727.22089	0.00285
6725.29221	0.00287
6723.36353	0.00288
6721.43486	0.00288
6719.50618	0.00288
6717.57751	0.00289
6715.64883	0.00289
6713.72016	0.00289
6711.79148	0.00289
6709.86280	0.00288
6707.93413	0.00289
6706.00545	0.00291
6704.07678	0.00294
6702.14810	0.00296
6700.21943	0.00297
6698.29075	0.00296
6696.36207	0.00296
6694.43340	0.00296
6692.50472	0.00296
6690.57605	0.00295
6688.64737	0.00296
6686.71870	0.00297
6684.79002	0.00297
6682.86134	0.00297
6680.93267	0.00298
6679.00399	0.00300
6677.07532	0.00302
6675.14664	0.00303
6673.21797	0.00303
6671.28929	0.00303
6669.36061	0.00303
6667.43194	0.00305
6665.50326	0.00307
6663.57459	0.00308
6661.64591	0.00309
6659.71724	0.00309
6657.78856	0.00310
6655.85988	0.00312
6653.93121	0.00313
6652.00253	0.00313
6650.07386	0.00313
6648.14518	0.00313
6646.21651	0.00313
6644.28783	0.00313
6642.35915	0.00314
6640.43048	0.00316
6638.50180	0.00317
6636.57313	0.00317
6634.64445	0.00316
6632.71578	0.00318
6630.78710	0.00320
6628.85842	0.00320
6626.92975	0.00319
6625.00107	0.00318
6623.07240	0.00319
6621.14372	0.00322
6619.21505	0.00325
6617.28637	0.00325
6615.35769	0.00325
6613.42902	0.00325
6611.50034	0.00325
6609.57167	0.00326
6607.64299	0.00328
6605.71432	0.00329
6603.78564	0.00329
6601.85696	0.00329
6599.92829	0.00330
6597.99961	0.00330
6596.07094	0.00329
6594.14226	0.00328
6592.21359	0.00328
6590.28491	0.00330
6588.35623	0.00332
6586.42756	0.00334
6584.49888	0.00335
6582.57021	0.00336
6580.64153	0.00335
6578.71286	0.00335
6576.78418	0.00336
6574.85550	0.00338
6572.92683	0.00340
6570.99815	0.00341
6569.06948	0.00341
6567.14080	0.00341
6565.21213	0.00341
6563.28345	0.00342
6561.35477	0.00342
6559.42610	0.00343
6557.49742	0.00343
6555.56875	0.00344
6553.64007	0.00345
6551.71140	0.00347
6549.78272	0.00348
6547.85404	0.00348
6545.92537	0.00347
6543.99669	0.00347
6542.06802	0.00346
6540.13934	0.00347
6538.21067	0.00348
6536.28199	0.00351
6534.35331	0.00353
6532.42464	0.00352
6530.49596	0.00352
6528.56729	0.00353
6526.63861	0.00354
6524.70994	0.00356
6522.78126	0.00356
6520.85258	0.00357
6518.92391	0.00359
6516.99523	0.00360
6515.06656	0.00362
6513.13788	0.00363
6511.20921	0.00363
6509.28053	0.00363
6507.35185	0.00364
6505.42318	0.00365
6503.49450	0.00364
6501.56583	0.00364
6499.63715	0.00365
6497.70848	0.00366
6495.77980	0.00367
6493.85112	0.00368
6491.92245	0.00368
6489.99377	0.00367
6488.06510	0.00369
6486.13642	0.00372
6484.20775	0.00373
6482.27907	0.00371
6480.35039	0.00370
6478.42172	0.00372
6476.49304	0.00375
6474.56437	0.00376
6472.63569	0.00376
6470.70702	0.00376
6468.77834	0.00376
6466.84966	0.00377
6464.92099	0.00380
6462.99231	0.00381
6461.06364	0.00381
6459.13496	0.00381
6457.20629	0.00382
6455.27761	0.00382
6453.34893	0.00382
6451.42026	0.00382
6449.49158	0.00382
6447.56291	0.00384
6445.63423	0.00386
6443.70556	0.00388
6441.77688	0.00388
6439.84820	0.00388
6437.91953	0.00390
6435.99085	0.00392
6434.06218	0.00393
6432.13350	0.00393
6430.20483	0.00394
6428.27615	0.00395
6426.34747	0.00395
6424.41880	0.00396
6422.49012	0.00398
6420.56145	0.00400
6418.63277	0.00400
6416.70410	0.00401
6414.77542	0.00401
6412.84674	0.00402
6410.91807	0.00403
6408.98939	0.00402
6407.06072	0.00403
6405.13204	0.00404
6403.20337	0.00405
6401.27469	0.00405
6399.34601	0.00406
6397.41734	0.00407
6395.48866	0.00407
6393.55999	0.00408
6391.63131	0.00412
6389.70264	0.00413
6387.77396	0.00413
6385.84528	0.00411
6383.91661	0.00410
6381.98793	0.00412
6380.05926	0.00414
6378.13058	0.00416
6376.20191	0.00415
6374.27323	0.00416
6372.34455	0.00417
6370.41588	0.00419
6368.48720	0.00421
6366.55853	0.00422
6364.62985	0.00422
6362.70118	0.00422
6360.77250	0.00422
6358.84382	0.00421
6356.91515	0.00420
6354.98647	0.00424
6353.05780	0.00428
6351.12912	0.00429
6349.20045	0.00429
6347.27177	0.00430
6345.34309	0.00430
6343.41442	0.00432
6341.48574	0.00434
6339.55707	0.00435
6337.62839	0.00435
6335.69972	0.00435
6333.77104	0.00436
6331.84236	0.00436
6329.91369	0.00437
6327.98501	0.00438
6326.05634	0.00439
6324.12766	0.00441
6322.19899	0.00442
6320.27031	0.00443
6318.34163	0.00443
6316.41296	0.00442
6314.48428	0.00444
6312.55561	0.00447
6310.62693	0.00450
6308.69826	0.00451
6306.76958	0.00450
6304.84090	0.00450
6302.91223	0.00450
6300.98355	0.00451
6299.05488	0.00453
6297.12620	0.00454
6295.19753	0.00455
6293.26885	0.00455
6291.34017	0.00456
6289.41150	0.00457
6287.48282	0.00458
6285.55415	0.00459
6283.62547	0.00461
6281.69680	0.00463
6279.76812	0.00463
6277.83944	0.00462
6275.91077	0.00462
6273.98209	0.00464
6272.05342	0.00467
6270.12474	0.00470
6268.19607	0.00472
6266.26739	0.00471
6264.33871	0.00468
6262.41004	0.00467
6260.48136	0.00470
6258.55269	0.00474
6256.62401	0.00475
6254.69534	0.00476
6252.76666	0.00477
6250.83798	0.00477
6248.90931	0.00478
6246.98063	0.00479
6245.05196	0.00481
6243.12328	0.00483
6241.19461	0.00485
6239.26593	0.00485
6237.33725	0.00482
6235.40858	0.00481
6233.47990	0.00482
6231.55123	0.00483
6229.62255	0.00484
6227.69388	0.00486
6225.76520	0.00489
6223.83652	0.00491
6221.90785	0.00491
6219.97917	0.00492
6218.05050	0.00493
6216.12182	0.00495
6214.19315	0.00496
6212.26447	0.00498
6210.33579	0.00499
6208.40712	0.00500
6206.47844	0.00500
6204.54977	0.00499
6202.62109	0.00500
6200.69242	0.00502
6198.76374	0.00505
6196.83506	0.00506
6194.90639	0.00507
6192.97771	0.00507
6191.04904	0.00507
6189.12036	0.00508
6187.19169	0.00511
6185.26301	0.00512
6183.33433	0.00512
6181.40566	0.00513
6179.47698	0.00514
6177.54831	0.00517
6175.61963	0.00520
6173.69096	0.00522
6171.76228	0.00521
6169.83360	0.00518
6167.90493	0.00517
6165.97625	0.00519
6164.04758	0.00522
6162.11890	0.00524
6160.19023	0.00525
6158.26155	0.00526
6156.33287	0.00527
6154.40420	0.00527
6152.47552	0.00528
6150.54685	0.00530
6148.61817	0.00533
6146.68950	0.00534
6144.76082	0.00534
6142.83214	0.00535
6140.90347	0.00536
6138.97479	0.00537
6137.04612	0.00539
6135.11744	0.00542
6133.18877	0.00545
6131.26009	0.00546
6129.33141	0.00546
6127.40274	0.00546
6125.47406	0.00546
6123.54539	0.00545
6121.61671	0.00545
6119.68804	0.00546
6117.75936	0.00549
6115.83068	0.00552
6113.90201	0.00554
6111.97333	0.00556
6110.04466	0.00558
6108.11598	0.00559
6106.18731	0.00559
6104.25863	0.00558
6102.32995	0.00558
6100.40128	0.00559
6098.47260	0.00562
6096.54393	0.00564
6094.61525	0.00564
6092.68658	0.00564
6090.75790	0.00565
6088.82922	0.00567
6086.90055	0.00569
6084.97187	0.00570
6083.04320	0.00569
6081.11452	0.00570
6079.18585	0.00574
6077.25717	0.00576
6075.32849	0.00577
6073.39982	0.00579
6071.47114	0.00579
6069.54247	0.00579
6067.61379	0.00579
6065.68512	0.00581
6063.75644	0.00584
6061.82776	0.00586
6059.89909	0.00587
6057.97041	0.00588
6056.04174	0.00589
6054.11306	0.00591
6052.18439	0.00592
6050.25571	0.00592
6048.32703	0.00591
6046.39836	0.00592
6044.46968	0.00594
6042.54101	0.00596
6040.61233	0.00598
6038.68366	0.00601
6036.75498	0.00602
6034.82630	0.00602
6032.89763	0.00602
6030.96895	0.00603
6029.04028	0.00604
6027.11160	0.00606
6025.18293	0.00607
6023.25425	0.00609
6021.32557	0.00611
6019.39690	0.00612
6017.46822	0.00614
6015.53955	0.00616
6013.61087	0.00617
6011.68220	0.00617
6009.75352	0.00617
6007.82484	0.00618
6005.89617	0.00618
6003.96749	0.00618
6002.03882	0.00621
6000.11014	0.00625
5998.18147	0.00627
5996.25279	0.00628
5994.32411	0.00628
5992.39544	0.00628
5990.46676	0.00628
5988.53809	0.00631
5986.60941	0.00634
5984.68074	0.00636
5982.75206	0.00636
5980.82338	0.00636
5978.89471	0.00637
5976.96603	0.00639
5975.03736	0.00640
5973.10868	0.00642
5971.18001	0.00643
5969.25133	0.00643
5967.32265	0.00644
5965.39398	0.00646
5963.46530	0.00649
5961.53663	0.00651
5959.60795	0.00651
5957.67928	0.00651
5955.75060	0.00654
5953.82192	0.00655
5951.89325	0.00656
5949.96457	0.00658
5948.03590	0.00659
5946.10722	0.00659
5944.17855	0.00659
5942.24987	0.00659
5940.32119	0.00660
5938.39252	0.00663
5936.46384	0.00665
5934.53517	0.00666
5932.60649	0.00668
5930.67782	0.00671
5928.74914	0.00673
5926.82046	0.00675
5924.89179	0.00676
5922.96311	0.00677
5921.03444	0.00679
5919.10576	0.00679
5917.17709	0.00679
5915.24841	0.00681
5913.31973	0.00683
5911.39106	0.00685
5909.46238	0.00686
5907.53371	0.00687
5905.60503	0.00688
5903.67636	0.00689
5901.74768	0.00690
5899.81900	0.00693
5897.89033	0.00696
5895.96165	0.00699
5894.03298	0.00701
5892.10430	0.00701
5890.17563	0.00700
5888.24695	0.00701
5886.31827	0.00703
5884.38960	0.00706
5882.46092	0.00709
5880.53225	0.00711
5878.60357	0.00711
5876.67490	0.00713
5874.74622	0.00715
5872.81755	0.00716
5870.88887	0.00717
5868.96019	0.00717
5867.03152	0.00718
5865.10284	0.00720
5863.17417	0.00721
5861.24549	0.00722
5859.31682	0.00724
5857.38814	0.00725
5855.45946	0.00726
5853.53079	0.00727
5851.60211	0.00728
5849.67344	0.00730
5847.74476	0.00731
5845.81609	0.00732
5843.88741	0.00734
5841.95873	0.00736
5840.03006	0.00738
5838.10138	0.00739
5836.17271	0.00740
5834.24403	0.00742
5832.31536	0.00745
5830.38668	0.00747
5828.45800	0.00748
5826.52933	0.00749
5824.60065	0.00750
5822.67198	0.00750
5820.74330	0.00751
5818.81463	0.00753
5816.88595	0.00756
5814.95727	0.00760
5813.02860	0.00763
5811.09992	0.00765
5809.17125	0.00765
5807.24257	0.00765
5805.31390	0.00764
5803.38522	0.00766
5801.45654	0.00769
5799.52787	0.00772
5797.59919	0.00773
5795.67052	0.00775
5793.74184	0.00777
5791.81317	0.00778
5789.88449	0.00777
5787.95581	0.00778
5786.02714	0.00782
5784.09846	0.00785
5782.16979	0.00785
5780.24111	0.00786
5778.31244	0.00790
5776.38376	0.00793
5774.45508	0.00794
5772.52641	0.00794
5770.59773	0.00795
5768.66906	0.00795
5766.74038	0.00796
5764.81171	0.00797
5762.88303	0.00797
5760.95435	0.00799
5759.02568	0.00803
5757.09700	0.00806
5755.16833	0.00807
5753.23965	0.00810
5751.31098	0.00813
5749.38230	0.00815
5747.45362	0.00817
5745.52495	0.00819
5743.59627	0.00820
5741.66760	0.00822
5739.73892	0.00822
5737.81025	0.00823
5735.88157	0.00825
5733.95289	0.00826
5732.02422	0.00827
5730.09554	0.00828
5728.16687	0.00830
5726.23819	0.00831
5724.30952	0.00833
5722.38084	0.00835
5720.45216	0.00838
5718.52349	0.00839
5716.59481	0.00841
5714.66614	0.00843
5712.73746	0.00845
5710.80879	0.00846
5708.88011	0.00846
5706.95143	0.00847
5705.02276	0.00848
5703.09408	0.00851
5701.16541	0.00854
5699.23673	0.00857
5697.30806	0.00858
5695.37938	0.00858
5693.45070	0.00859
5691.52203	0.00863
5689.59335	0.00865
5687.66468	0.00867
5685.73600	0.00868
5683.80733	0.00872
5681.87865	0.00875
5679.94997	0.00874
5678.02130	0.00873
5676.09262	0.00874
5674.16395	0.00875
5672.23527	0.00878
5670.30660	0.00881
5668.37792	0.00884
5666.44924	0.00886
5664.52057	0.00888
5662.59189	0.00890
5660.66322	0.00890
5658.73454	0.00890
5656.80587	0.00892
5654.87719	0.00894
5652.94851	0.00895
5651.01984	0.00898
5649.09116	0.00901
5647.16249	0.00905
5645.23381	0.00907
5643.30514	0.00907
5641.37646	0.00906
5639.44778	0.00906
5637.51911	0.00909
5635.59043	0.00912
5633.66176	0.00913
5631.73308	0.00914
5629.80441	0.00918
5627.87573	0.00922
5625.94705	0.00924
5624.01838	0.00925
5622.08970	0.00926
5620.16103	0.00927
5618.23235	0.00928
5616.30368	0.00930
5614.37500	0.00932
5612.44632	0.00933
5610.51765	0.00936
5608.58897	0.00939
5606.66030	0.00942
5604.73162	0.00943
5602.80295	0.00943
5600.87427	0.00943
5598.94559	0.00944
5597.01692	0.00945
5595.08824	0.00947
5593.15957	0.00952
5591.23089	0.00956
5589.30222	0.00958
5587.37354	0.00960
5585.44486	0.00962
5583.51619	0.00964
5581.58751	0.00967
5579.65884	0.00968
5577.73016	0.00969
5575.80149	0.00971
5573.87281	0.00974
5571.94413	0.00975
5570.01546	0.00974
5568.08678	0.00974
5566.15811	0.00976
5564.22943	0.00979
5562.30076	0.00984
5560.37208	0.00986
5558.44340	0.00987
5556.51473	0.00988
5554.58605	0.00990
5552.65738	0.00991
5550.72870	0.00993
5548.80003	0.00994
5546.87135	0.00997
5544.94267	0.01001
5543.01400	0.01003
5541.08532	0.01004
5539.15665	0.01006
5537.22797	0.01008
5535.29930	0.01010
5533.37062	0.01011
5531.44194	0.01013
5529.51327	0.01016
5527.58459	0.01019
5525.65592	0.01020
5523.72724	0.01020
5521.79857	0.01022
5519.86989	0.01024
5517.94121	0.01027
5516.01254	0.01029
5514.08386	0.01031
5512.15519	0.01033
5510.22651	0.01033
5508.29784	0.01034
5506.36916	0.01037
5504.44048	0.01041
5502.51181	0.01042
5500.58313	0.01043
5498.65446	0.01045
5496.72578	0.01048
5494.79711	0.01050
5492.86843	0.01052
5490.93975	0.01052
5489.01108	0.01053
5487.08240	0.01056
5485.15373	0.01059
5483.22505	0.01060
5481.29638	0.01061
5479.36770	0.01062
5477.43902	0.01065
5475.51035	0.01068
5473.58167	0.01072
5471.65300	0.01075
5469.72432	0.01077
5467.79565	0.01080
5465.86697	0.01083
5463.93829	0.01086
5462.00962	0.01087
5460.08094	0.01089
5458.15227	0.01090
5456.22359	0.01089
5454.29492	0.01091
5452.36624	0.01095
5450.43756	0.01098
5448.50889	0.01099
5446.58021	0.01098
5444.65154	0.01097
5442.72286	0.01099
5440.79419	0.01104
5438.86551	0.01109
5436.93683	0.01112
5435.00816	0.01112
5433.07948	0.01114
5431.15081	0.01116
5429.22213	0.01117
5427.29346	0.01121
5425.36478	0.01126
5423.43610	0.01127
5421.50743	0.01126
5419.57875	0.01125
5417.65008	0.01126
5415.72140	0.01128
5413.79273	0.01131
5411.86405	0.01136
5409.93537	0.01139
5408.00670	0.01142
5406.07802	0.01145
5404.14935	0.01148
5402.22067	0.01152
5400.29200	0.01155
5398.36332	0.01158
5396.43464	0.01158
5394.50597	0.01158
5392.57729	0.01159
5390.64862	0.01161
5388.71994	0.01161
5386.79127	0.01161
5384.86259	0.01162
5382.93391	0.01166
5381.00524	0.01169
5379.07656	0.01171
5377.14789	0.01171
5375.21921	0.01172
5373.29054	0.01176
5371.36186	0.01180
5369.43318	0.01184
5367.50451	0.01186
5365.57583	0.01187
5363.64716	0.01190
5361.71848	0.01192
5359.78981	0.01194
5357.86113	0.01195
5355.93245	0.01197
5354.00378	0.01198
5352.07510	0.01201
5350.14643	0.01205
5348.21775	0.01209
5346.28908	0.01209
5344.36040	0.01209
5342.43172	0.01211
5340.50305	0.01213
5338.57437	0.01215
5336.64570	0.01217
5334.71702	0.01221
5332.78835	0.01225
5330.85967	0.01227
5328.93099	0.01229
5327.00232	0.01230
5325.07364	0.01231
5323.14497	0.01232
5321.21629	0.01235
5319.28762	0.01239
5317.35894	0.01244
5315.43026	0.01246
5313.50159	0.01248
5311.57291	0.01251
5309.64424	0.01254
5307.71556	0.01256
5305.78689	0.01259
5303.85821	0.01262
5301.92953	0.01264
5300.00086	0.01264
5298.07218	0.01265
5296.14351	0.01267
5294.21483	0.01268
5292.28616	0.01270
5290.35748	0.01273
5288.42880	0.01276
5286.50013	0.01277
5284.57145	0.01278
5282.64278	0.01281
5280.71410	0.01286
5278.78543	0.01291
5276.85675	0.01294
5274.92807	0.01295
5272.99940	0.01297
5271.07072	0.01299
5269.14205	0.01301
5267.21337	0.01302
5265.28470	0.01304
5263.35602	0.01305
5261.42734	0.01307
5259.49867	0.01309
5257.56999	0.01311
5255.64132	0.01314
5253.71264	0.01316
5251.78397	0.01318
5249.85529	0.01319
5247.92661	0.01319
5245.99794	0.01320
5244.06926	0.01323
5242.14059	0.01327
5240.21191	0.01330
5238.28324	0.01334
5236.35456	0.01337
5234.42588	0.01340
5232.49721	0.01342
5230.56853	0.01344
5228.63986	0.01345
5226.71118	0.01346
5224.78251	0.01349
5222.85383	0.01353
5220.92515	0.01355
5218.99648	0.01357
5217.06780	0.01359
5215.13913	0.01364
5213.21045	0.01367
5211.28178	0.01369
5209.35310	0.01369
5207.42442	0.01371
5205.49575	0.01375
5203.56707	0.01380
5201.63840	0.01383
5199.70972	0.01385
5197.78105	0.01387
5195.85237	0.01388
5193.92369	0.01389
5191.99502	0.01392
5190.06634	0.01395
5188.13767	0.01397
5186.20899	0.01398
5184.28032	0.01400
5182.35164	0.01403
5180.42296	0.01405
5178.49429	0.01407
5176.56561	0.01408
5174.63694	0.01411
5172.70826	0.01414
5170.77959	0.01417
5168.85091	0.01420
5166.92223	0.01423
5164.99356	0.01424
5163.06488	0.01425
5161.13621	0.01427
5159.20753	0.01430
5157.27886	0.01435
5155.35018	0.01440
5153.42150	0.01445
5151.49283	0.01447
5149.56415	0.01447
5147.63548	0.01445
5145.70680	0.01445
5143.77813	0.01447
5141.84945	0.01449
5139.92077	0.01452
5137.99210	0.01456
5136.06342	0.01458
5134.13475	0.01458
5132.20607	0.01460
5130.27740	0.01464
5128.34872	0.01469
5126.42004	0.01473
5124.49137	0.01476
5122.56269	0.01480
5120.63402	0.01484
5118.70534	0.01487
5116.77667	0.01488
5114.84799	0.01488
5112.91931	0.01490
5110.99064	0.01495
5109.06196	0.01501
5107.13329	0.01503
5105.20461	0.01503
5103.27594	0.01503
5101.34726	0.01505
5099.41858	0.01508
5097.48991	0.01510
5095.56123	0.01512
5093.63256	0.01514
5091.70388	0.01517
5089.77521	0.01522
5087.84653	0.01526
5085.91785	0.01528
5083.98918	0.01528
5082.06050	0.01530
5080.13183	0.01533
5078.20315	0.01536
5076.27448	0.01538
5074.34580	0.01540
5072.41712	0.01543
5070.48845	0.01546
5068.55977	0.01549
5066.63110	0.01552
5064.70242	0.01554
5062.77375	0.01555
5060.84507	0.01557
5058.91639	0.01560
5056.98772	0.01562
5055.05904	0.01565
5053.13037	0.01568
5051.20169	0.01572
5049.27302	0.01575
5047.34434	0.01579
5045.41566	0.01582
5043.48699	0.01583
5041.55831	0.01585
5039.62964	0.01588
5037.70096	0.01591
5035.77229	0.01593
5033.84361	0.01593
5031.91493	0.01593
5029.98626	0.01595
5028.05758	0.01599
5026.12891	0.01605
5024.20023	0.01609
5022.27156	0.01611
5020.34288	0.01612
5018.41420	0.01614
5016.48553	0.01617
5014.55685	0.01619
5012.62818	0.01622
5010.69950	0.01626
5008.77083	0.01630
5006.84215	0.01632
5004.91347	0.01634
5002.98480	0.01637
5001.05612	0.01640
4999.12745	0.01642
4997.19877	0.01645
4995.27010	0.01648
4993.34142	0.01653
4991.41274	0.01656
4989.48407	0.01655
4987.55539	0.01653
4985.62672	0.01654
4983.69804	0.01657
4981.76937	0.01662
4979.84069	0.01666
4977.91201	0.01670
4975.98334	0.01674
4974.05466	0.01677
4972.12599	0.01679
4970.19731	0.01682
4968.26864	0.01685
4966.33996	0.01687
4964.41128	0.01688
4962.48261	0.01690
4960.55393	0.01693
4958.62526	0.01696
4956.69658	0.01700
4954.76791	0.01704
4952.83923	0.01706
4950.91055	0.01708
4948.98188	0.01709
4947.05320	0.01711
4945.12453	0.01715
4943.19585	0.01719
4941.26718	0.01721
4939.33850	0.01724
4937.40982	0.01727
4935.48115	0.01730
4933.55247	0.01732
4931.62380	0.01735
4929.69512	0.01737
4927.76645	0.01739
4925.83777	0.01742
4923.90909	0.01744
4921.98042	0.01746
4920.05174	0.01749
4918.12307	0.01753
4916.19439	0.01758
4914.26572	0.01762
4912.33704	0.01764
4910.40836	0.01765
4908.47969	0.01768
4906.55101	0.01772
4904.62234	0.01775
4902.69366	0.01776
4900.76499	0.01779
4898.83631	0.01781
4896.90763	0.01783
4894.97896	0.01785
4893.05028	0.01789
4891.12161	0.01794
4889.19293	0.01797
4887.26426	0.01800
4885.33558	0.01802
4883.40690	0.01803
4881.47823	0.01805
4879.54955	0.01809
4877.62088	0.01813
4875.69220	0.01815
4873.76353	0.01817
4871.83485	0.01822
4869.90617	0.01827
4867.97750	0.01829
4866.04882	0.01831
4864.12015	0.01835
4862.19147	0.01840
4860.26280	0.01843
4858.33412	0.01845
4856.40544	0.01848
4854.47677	0.01850
4852.54809	0.01851
4850.61942	0.01852
4848.69074	0.01853
4846.76207	0.01857
4844.83339	0.01862
4842.90471	0.01866
4840.97604	0.01868
4839.04736	0.01871
4837.11869	0.01874
4835.19001	0.01878
4833.26134	0.01883
4831.33266	0.01885
4829.40398	0.01887
4827.47531	0.01890
4825.54663	0.01895
4823.61796	0.01898
4821.68928	0.01899
4819.76061	0.01901
4817.83193	0.01904
4815.90325	0.01908
4813.97458	0.01911
4812.04590	0.01914
4810.11723	0.01916
4808.18855	0.01918
4806.25988	0.01922
4804.33120	0.01927
4802.40252	0.01931
4800.47385	0.01934
4798.54517	0.01935
4796.61650	0.01939
4794.68782	0.01944
4792.75915	0.01947
4790.83047	0.01950
4788.90179	0.01954
4786.97312	0.01957
4785.04444	0.01961
4783.11577	0.01963
4781.18709	0.01964
4779.25842	0.01965
4777.32974	0.01967
4775.40106	0.01971
4773.47239	0.01974
4771.54371	0.01977
4769.61504	0.01980
4767.68636	0.01983
4765.75769	0.01988
4763.82901	0.01992
4761.90033	0.01994
4759.97166	0.01996
4758.04298	0.01999
4756.11431	0.02003
4754.18563	0.02005
4752.25696	0.02006
4750.32828	0.02009
4748.39960	0.02013
4746.47093	0.02017
4744.54225	0.02021
4742.61358	0.02026
4740.68490	0.02029
4738.75623	0.02033
4736.82755	0.02036
4734.89887	0.02040
4732.97020	0.02045
4731.04152	0.02048
4729.11285	0.02050
4727.18417	0.02051
4725.25550	0.02052
4723.32682	0.02053
4721.39814	0.02056
4719.46947	0.02063
4717.54079	0.02070
4715.61212	0.02075
4713.68344	0.02076
4711.75477	0.02077
4709.82609	0.02082
4707.89741	0.02087
4705.96874	0.02089
4704.04006	0.02090
4702.11139	0.02094
4700.18271	0.02099
4698.25404	0.02101
4696.32536	0.02103
4694.39668	0.02106
4692.46801	0.02110
4690.53933	0.02115
4688.61066	0.02120
4686.68198	0.02123
4684.75331	0.02127
4682.82463	0.02130
4680.89595	0.02133
4678.96728	0.02135
4677.03860	0.02139
4675.10993	0.02142
4673.18125	0.02146
4671.25258	0.02148
4669.32390	0.02150
4667.39522	0.02153
4665.46655	0.02157
4663.53787	0.02161
4661.60920	0.02165
4659.68052	0.02169
4657.75185	0.02172
4655.82317	0.02174
4653.89449	0.02176
4651.96582	0.02179
4650.03714	0.02182
4648.10847	0.02187
4646.17979	0.02191
4644.25112	0.02193
4642.32244	0.02197
4640.39376	0.02201
4638.46509	0.02206
4636.53641	0.02211
4634.60774	0.02216
4632.67906	0.02218
4630.75039	0.02220
4628.82171	0.02224
4626.89303	0.02229
4624.96436	0.02232
4623.03568	0.02235
4621.10701	0.02241
4619.17833	0.02246
4617.24966	0.02250
4615.32098	0.02251
4613.39230	0.02253
4611.46363	0.02257
4609.53495	0.02260
4607.60628	0.02263
4605.67760	0.02267
4603.74893	0.02271
4601.82025	0.02274
4599.89157	0.02276
4597.96290	0.02281
4596.03422	0.02287
4594.10555	0.02292
4592.17687	0.02297
4590.24820	0.02301
4588.31952	0.02304
4586.39084	0.02306
4584.46217	0.02309
4582.53349	0.02314
4580.60482	0.02317
4578.67614	0.02319
4576.74747	0.02321
4574.81879	0.02326
4572.89011	0.02331
4570.96144	0.02335
4569.03276	0.02338
4567.10409	0.02342
4565.17541	0.02347
4563.24674	0.02352
4561.31806	0.02356
4559.38938	0.02359
4557.46071	0.02362
4555.53203	0.02364
4553.60336	0.02367
4551.67468	0.02372
4549.74601	0.02377
4547.81733	0.02383
4545.88865	0.02387
4543.95998	0.02390
4542.03130	0.02392
4540.10263	0.02394
4538.17395	0.02398
4536.24528	0.02403
4534.31660	0.02408
4532.38792	0.02413
4530.45925	0.02418
4528.53057	0.02421
4526.60190	0.02424
4524.67322	0.02429
4522.74455	0.02436
4520.81587	0.02440
4518.88719	0.02442
4516.95852	0.02446
4515.02984	0.02450
4513.10117	0.02453
4511.17249	0.02456
4509.24382	0.02460
4507.31514	0.02465
4505.38646	0.02470
4503.45779	0.02475
4501.52911	0.02480
4499.60044	0.02481
4497.67176	0.02482
4495.74309	0.02484
4493.81441	0.02490
4491.88573	0.02497
4489.95706	0.02504
4488.02838	0.02508
4486.09971	0.02511
4484.17103	0.02515
4482.24236	0.02519
4480.31368	0.02523
4478.38500	0.02526
4476.45633	0.02532
4474.52765	0.02538
4472.59898	0.02542
4470.67030	0.02542
4468.74163	0.02545
4466.81295	0.02553
4464.88427	0.02560
4462.95560	0.02563
4461.02692	0.02566
4459.09825	0.02571
4457.16957	0.02575
4455.24090	0.02578
4453.31222	0.02581
4451.38354	0.02586
4449.45487	0.02591
4447.52619	0.02599
4445.59752	0.02607
4443.66884	0.02612
4441.74017	0.02614
4439.81149	0.02615
4437.88281	0.02618
4435.95414	0.02623
4434.02546	0.02628
4432.09679	0.02634
4430.16811	0.02642
4428.23944	0.02648
4426.31076	0.02651
4424.38208	0.02652
4422.45341	0.02654
4420.52473	0.02656
4418.59606	0.02660
4416.66738	0.02668
4414.73871	0.02675
4412.81003	0.02681
4410.88135	0.02687
4408.95268	0.02691
4407.02400	0.02694
4405.09533	0.02698
4403.16665	0.02703
4401.23798	0.02708
4399.30930	0.02713
4397.38062	0.02717
4395.45195	0.02721
4393.52327	0.02725
4391.59460	0.02730
4389.66592	0.02735
4387.73725	0.02740
4385.80857	0.02746
4383.87989	0.02753
4381.95122	0.02759
4380.02254	0.02765
4378.09387	0.02768
4376.16519	0.02770
4374.23652	0.02774
4372.30784	0.02780
4370.37916	0.02784
4368.45049	0.02787
4366.52181	0.02792
4364.59314	0.02798
4362.66446	0.02804
4360.73579	0.02810
4358.80711	0.02815
4356.87843	0.02818
4354.94976	0.02820
4353.02108	0.02825
4351.09241	0.02831
4349.16373	0.02835
4347.23506	0.02840
4345.30638	0.02847
4343.37770	0.02852
4341.44903	0.02855
4339.52035	0.02860
4337.59168	0.02867
4335.66300	0.02874
4333.73433	0.02878
4331.80565	0.02884
4329.87697	0.02892
4327.94830	0.02900
4326.01962	0.02904
4324.09095	0.02906
4322.16227	0.02910
4320.23360	0.02913
4318.30492	0.02917
4316.37624	0.02922
4314.44757	0.02929
4312.51889	0.02935
4310.59022	0.02939
4308.66154	0.02943
4306.73287	0.02951
4304.80419	0.02959
4302.87551	0.02965
4300.94684	0.02970
4299.01816	0.02975
4297.08949	0.02979
4295.16081	0.02982
4293.23214	0.02986
4291.30346	0.02993
4289.37478	0.03002
4287.44611	0.03009
4285.51743	0.03014
4283.58876	0.03018
4281.66008	0.03023
4279.73141	0.03028
4277.80273	0.03034
4275.87405	0.03041
4273.94538	0.03047
4272.01670	0.03052
4270.08803	0.03057
4268.15935	0.03062
4266.23068	0.03067
4264.30200	0.03074
4262.37332	0.03079
4260.44465	0.03081
4258.51597	0.03084
4256.58730	0.03090
4254.65862	0.03098
4252.72995	0.03102
4250.80127	0.03106
4248.87259	0.03112
4246.94392	0.03118
4245.01524	0.03123
4243.08657	0.03130
4241.15789	0.03138
4239.22922	0.03146
4237.30054	0.03153
4235.37186	0.03158
4233.44319	0.03164
4231.51451	0.03169
4229.58584	0.03175
4227.65716	0.03179
4225.72849	0.03182
4223.79981	0.03187
4221.87113	0.03195
4219.94246	0.03204
4218.01378	0.03211
4216.08511	0.03215
4214.15643	0.03219
4212.22776	0.03224
4210.29908	0.03230
4208.37040	0.03237
4206.44173	0.03245
4204.51305	0.03250
4202.58438	0.03255
4200.65570	0.03262
4198.72703	0.03271
4196.79835	0.03277
4194.86968	0.03282
4192.94100	0.03288
4191.01232	0.03294
4189.08365	0.03297
4187.15497	0.03301
4185.22630	0.03309
4183.29762	0.03319
4181.36895	0.03327
4179.44027	0.03334
4177.51159	0.03341
4175.58292	0.03347
4173.65424	0.03349
4171.72557	0.03351
4169.79689	0.03356
4167.86822	0.03363
4165.93954	0.03370
4164.01086	0.03377
4162.08219	0.03384
4160.15351	0.03391
4158.22484	0.03396
4156.29616	0.03402
4154.36749	0.03410
4152.43881	0.03418
4150.51013	0.03424
4148.58146	0.03426
4146.65278	0.03431
4144.72411	0.03439
4142.79543	0.03448
4140.86676	0.03457
4138.93808	0.03465
4137.00940	0.03473
4135.08073	0.03480
4133.15205	0.03487
4131.22338	0.03491
4129.29470	0.03496
4127.36603	0.03502
4125.43735	0.03508
4123.50867	0.03511
4121.58000	0.03515
4119.65132	0.03521
4117.72265	0.03528
4115.79397	0.03536
4113.86530	0.03543
4111.93662	0.03550
4110.00794	0.03559
4108.07927	0.03569
4106.15059	0.03577
4104.22192	0.03582
4102.29324	0.03587
4100.36457	0.03592
4098.43589	0.03597
4096.50721	0.03603
4094.57854	0.03611
4092.64986	0.03621
4090.72119	0.03630
4088.79251	0.03637
4086.86384	0.03643
4084.93516	0.03646
4083.00648	0.03649
4081.07781	0.03654
4079.14913	0.03661
4077.22046	0.03670
4075.29178	0.03682
4073.36311	0.03693
4071.43443	0.03699
4069.50575	0.03702
4067.57708	0.03705
4065.64840	0.03711
4063.71973	0.03720
4061.79105	0.03731
4059.86238	0.03741
4057.93370	0.03748
4056.00502	0.03754
4054.07635	0.03760
4052.14767	0.03765
4050.21900	0.03770
4048.29032	0.03776
4046.36165	0.03784
4044.43297	0.03792
4042.50429	0.03800
4040.57562	0.03807
4038.64694	0.03813
4036.71827	0.03821
4034.78959	0.03830
4032.86092	0.03839
4030.93224	0.03845
4029.00356	0.03848
4027.07489	0.03854
4025.14621	0.03863
4023.21754	0.03873
4021.28886	0.03881
4019.36019	0.03887
4017.43151	0.03894
4015.50283	0.03900
4013.57416	0.03906
4011.64548	0.03914
4009.71681	0.03922
4007.78813	0.03929
4005.85946	0.03938
4003.93078	0.03946
4002.00210	0.03955
4000.07343	0.03963
3998.14475	0.03972
3996.21608	0.03979
3994.28740	0.03984
3992.35873	0.03990
3990.43005	0.03996
3988.50137	0.04003
3986.57270	0.04011
3984.64402	0.04018
3982.71535	0.04026
3980.78667	0.04036
3978.85800	0.04044
3976.92932	0.04048
3975.00064	0.04053
3973.07197	0.04059
3971.14329	0.04068
3969.21462	0.04077
3967.28594	0.04088
3965.35727	0.04099
3963.42859	0.04109
3961.49991	0.04116
3959.57124	0.04121
3957.64256	0.04128
3955.71389	0.04135
3953.78521	0.04141
3951.85654	0.04147
3949.92786	0.04152
3947.99918	0.04158
3946.07051	0.04166
3944.14183	0.04174
3942.21316	0.04182
3940.28448	0.04191
3938.35581	0.04201
3936.42713	0.04209
3934.49845	0.04213
3932.56978	0.04216
3930.64110	0.04226
3928.71243	0.04237
3926.78375	0.04243
3924.85508	0.04251
3922.92640	0.04261
3920.99772	0.04268
3919.06905	0.04269
3917.14037	0.04276
3915.21170	0.04292
3913.28302	0.04307
3911.35435	0.04314
3909.42567	0.04317
3907.49699	0.04317
3905.56832	0.04313
3903.63964	0.04307
3901.71097	0.04309
3899.78229	0.04326
3897.85362	0.04351
3895.92494	0.04370
3893.99626	0.04374
3892.06759	0.04375
3890.13891	0.04385
3888.21024	0.04398
3886.28156	0.04406
3884.35289	0.04415
3882.42421	0.04422
3880.49553	0.04427
3878.56686	0.04440
3876.63818	0.04455
3874.70951	0.04463
3872.78083	0.04465
3870.85216	0.04466
3868.92348	0.04472
3866.99480	0.04478
3865.06613	0.04484
3863.13745	0.04497
3861.20878	0.04513
3859.28010	0.04522
3857.35143	0.04517
3855.42275	0.04502
3853.49407	0.04503
3851.56540	0.04532
3849.63672	0.04566
3847.70805	0.04584
3845.77937	0.04591
3843.85070	0.04594
3841.92202	0.04593
3839.99334	0.04589
3838.06467	0.04589
3836.13599	0.04601
3834.20732	0.04618
3832.27864	0.04636
3830.34997	0.04649
3828.42129	0.04656
3826.49261	0.04662
3824.56394	0.04671
3822.63526	0.04675
3820.70659	0.04680
3818.77791	0.04688
3816.84924	0.04694
3814.92056	0.04711
3812.99188	0.04738
3811.06321	0.04755
3809.13453	0.04756
3807.20586	0.04758
3805.27718	0.04764
3803.34851	0.04766
3801.41983	0.04768
3799.49115	0.04779
3797.56248	0.04794
3795.63380	0.04809
3793.70513	0.04825
3791.77645	0.04837
3789.84778	0.04844
3787.91910	0.04852
3785.99042	0.04861
3784.06175	0.04871
3782.13307	0.04882
3780.20440	0.04887
3778.27572	0.04893
3776.34705	0.04907
3774.41837	0.04920
3772.48969	0.04922
3770.56102	0.04920
3768.63234	0.04926
3766.70367	0.04939
3764.77499	0.04953
3762.84632	0.04964
3760.91764	0.04965
3758.98896	0.04970
3757.06029	0.04983
3755.13161	0.04988
3753.20294	0.04980
3751.27426	0.04978
3749.34559	0.04991
3747.41691	0.04989
3745.48823	0.04968
3743.55956	0.04981
3741.63088	0.05028
3739.70221	0.05051
3737.77353	0.05041
3735.84486	0.05040
3733.91618	0.05059
3731.98750	0.05082
3730.05883	0.05102
3728.13015	0.05115
3726.20148	0.05123
3724.27280	0.05131
3722.34413	0.05143
3720.41545	0.05158
3718.48677	0.05174
3716.55810	0.05185
3714.62942	0.05189
3712.70075	0.05188
3710.77207	0.05193
3708.84340	0.05209
3706.91472	0.05227
3704.98604	0.05237
3703.05737	0.05242
3701.12869	0.05253
3699.20002	0.05269
3697.27134	0.05282
3695.34267	0.05288
3693.41399	0.05284
3691.48531	0.05273
3689.55664	0.05276
3687.62796	0.05298
3685.69929	0.05324
3683.77061	0.05340
3681.84194	0.05343
3679.91326	0.05340
3677.98458	0.05331
3676.05591	0.05331
3674.12723	0.05350
3672.19856	0.05368
3670.26988	0.05371
3668.34121	0.05381
3666.41253	0.05407
3664.48385	0.05429
3662.55518	0.05440
3660.62650	0.05447
3658.69783	0.05450
3656.76915	0.05451
3654.84048	0.05454
3652.91180	0.05447
3650.98312	0.05429
3649.05445	0.05424
3647.12577	0.05443
3645.19710	0.05475
3643.26842	0.05502
3641.33975	0.05518
3639.41107	0.05527
3637.48239	0.05536
3635.55372	0.05545
3633.62504	0.05548
3631.69637	0.05543
3629.76769	0.05537
3627.83902	0.05549
3625.91034	0.05574
3623.98166	0.05588
3622.05299	0.05586
3620.12431	0.05578
3618.19564	0.05584
3616.26696	0.05599
3614.33829	0.05604
3612.40961	0.05603
3610.48093	0.05607
3608.55226	0.05621
3606.62358	0.05641
3604.69491	0.05654
3602.76623	0.05659
3600.83756	0.05663
3598.90888	0.05672
3596.98020	0.05679
3595.05153	0.05681
3593.12285	0.05686
3591.19418	0.05691
3589.26550	0.05691
3587.33683	0.05695
3585.40815	0.05711
3583.47947	0.05732
3581.55080	0.05746
3579.62212	0.05755
3577.69345	0.05762
3575.76477	0.05767
3573.83610	0.05772
3571.90742	0.05775
3569.97874	0.05771
3568.05007	0.05764
3566.12139	0.05772
3564.19272	0.05792
3562.26404	0.05809
3560.33537	0.05819
3558.40669	0.05827
3556.47801	0.05834
3554.54934	0.05840
3552.62066	0.05845
3550.69199	0.05853
3548.76331	0.05859
3546.83464	0.05861
3544.90596	0.05869
3542.97728	0.05881
3541.04861	0.05889
3539.11993	0.05894
3537.19126	0.05899
3535.26258	0.05904
3533.33391	0.05912
3531.40523	0.05917
3529.47655	0.05918
3527.54788	0.05919
3525.61920	0.05925
3523.69053	0.05933
3521.76185	0.05941
3519.83318	0.05947
3517.90450	0.05951
3515.97582	0.05955
3514.04715	0.05960
3512.11847	0.05962
3510.18980	0.05961
3508.26112	0.05962
3506.33245	0.05965
3504.40377	0.05965
3502.47509	0.05965
3500.54642	0.05970
3498.61774	0.05977
3496.68907	0.05980
3494.76039	0.05979
3492.83172	0.05982
3490.90304	0.05988
3488.97436	0.05991
3487.04569	0.05994
3485.11701	0.05998
3483.18834	0.06003
3481.25966	0.06008
3479.33099	0.06016
3477.40231	0.06022
3475.47363	0.06026
3473.54496	0.06032
3471.61628	0.06042
3469.68761	0.06053
3467.75893	0.06061
3465.83026	0.06068
3463.90158	0.06077
3461.97290	0.06089
3460.04423	0.06102
3458.11555	0.06112
3456.18688	0.06120
3454.25820	0.06130
3452.32953	0.06140
3450.40085	0.06148
3448.47217	0.06156
3446.54350	0.06163
3444.61482	0.06170
3442.68615	0.06178
3440.75747	0.06191
3438.82880	0.06210
3436.90012	0.06231
3434.97144	0.06250
3433.04277	0.06265
3431.11409	0.06280
3429.18542	0.06301
3427.25674	0.06323
3425.32807	0.06344
3423.39939	0.06363
3421.47071	0.06381
3419.54204	0.06398
3417.61336	0.06415
3415.68469	0.06432
3413.75601	0.06447
3411.82734	0.06462
3409.89866	0.06478
3407.96998	0.06493
3406.04131	0.06508
3404.11263	0.06518
3402.18396	0.06525
3400.25528	0.06533
3398.32661	0.06547
3396.39793	0.06563
3394.46925	0.06579
3392.54058	0.06596
3390.61190	0.06613
3388.68323	0.06625
3386.75455	0.06635
3384.82588	0.06648
3382.89720	0.06663
3380.96852	0.06675
3379.03985	0.06687
3377.11117	0.06701
3375.18250	0.06716
3373.25382	0.06728
3371.32515	0.06738
3369.39647	0.06747
3367.46779	0.06757
3365.53912	0.06771
3363.61044	0.06786
3361.68177	0.06801
3359.75309	0.06814
3357.82442	0.06825
3355.89574	0.06834
3353.96706	0.06842
3352.03839	0.06852
3350.10971	0.06868
3348.18104	0.06885
3346.25236	0.06899
3344.32369	0.06909
3342.39501	0.06921
3340.46633	0.06935
3338.53766	0.06949
3336.60898	0.06961
3334.68031	0.06974
3332.75163	0.06986
3330.82296	0.06996
3328.89428	0.07007
3326.96560	0.07019
3325.03693	0.07034
3323.10825	0.07050
3321.17958	0.07062
3319.25090	0.07073
3317.32223	0.07085
3315.39355	0.07097
3313.46487	0.07107
3311.53620	0.07117
3309.60752	0.07130
3307.67885	0.07144
3305.75017	0.07158
3303.82150	0.07170
3301.89282	0.07180
3299.96414	0.07193
3298.03547	0.07209
3296.10679	0.07222
3294.17812	0.07233
3292.24944	0.07246
3290.32077	0.07262
3288.39209	0.07279
3286.46341	0.07293
3284.53474	0.07304
3282.60606	0.07315
3280.67739	0.07328
3278.74871	0.07344
3276.82004	0.07357
3274.89136	0.07370
3272.96268	0.07382
3271.03401	0.07395
3269.10533	0.07407
3267.17666	0.07419
3265.24798	0.07431
3263.31931	0.07446
3261.39063	0.07462
3259.46195	0.07475
3257.53328	0.07487
3255.60460	0.07501
3253.67593	0.07514
3251.74725	0.07527
3249.81858	0.07541
3247.88990	0.07557
3245.96122	0.07571
3244.03255	0.07584
3242.10387	0.07596
3240.17520	0.07610
3238.24652	0.07623
3236.31785	0.07636
3234.38917	0.07646
3232.46049	0.07656
3230.53182	0.07669
3228.60314	0.07688
3226.67447	0.07705
3224.74579	0.07716
3222.81712	0.07726
3220.88844	0.07739
3218.95976	0.07754
3217.03109	0.07768
3215.10241	0.07781
3213.17374	0.07793
3211.24506	0.07804
3209.31639	0.07816
3207.38771	0.07831
3205.45903	0.07849
3203.53036	0.07865
3201.60168	0.07880
3199.67301	0.07892
3197.74433	0.07904
3195.81566	0.07919
3193.88698	0.07935
3191.95830	0.07950
3190.02963	0.07964
3188.10095	0.07979
3186.17228	0.07993
3184.24360	0.08009
3182.31493	0.08024
3180.38625	0.08038
3178.45757	0.08051
3176.52890	0.08066
3174.60022	0.08080
3172.67155	0.08094
3170.74287	0.08107
3168.81420	0.08120
3166.88552	0.08134
3164.95684	0.08150
3163.02817	0.08165
3161.09949	0.08178
3159.17082	0.08189
3157.24214	0.08203
3155.31347	0.08216
3153.38479	0.08225
3151.45611	0.08236
3149.52744	0.08252
3147.59876	0.08271
3145.67009	0.08288
3143.74141	0.08302
3141.81274	0.08317
3139.88406	0.08333
3137.95538	0.08346
3136.02671	0.08358
3134.09803	0.08369
3132.16936	0.08383
3130.24068	0.08397
3128.31201	0.08409
3126.38333	0.08421
3124.45465	0.08436
3122.52598	0.08452
3120.59730	0.08468
3118.66863	0.08482
3116.73995	0.08492
3114.81128	0.08502
3112.88260	0.08517
3110.95392	0.08534
3109.02525	0.08551
3107.09657	0.08566
3105.16790	0.08581
3103.23922	0.08594
3101.31055	0.08605
3099.38187	0.08617
3097.45319	0.08630
3095.52452	0.08644
3093.59584	0.08658
3091.66717	0.08674
3089.73849	0.08692
3087.80982	0.08710
3085.88114	0.08723
3083.95246	0.08731
3082.02379	0.08741
3080.09511	0.08754
3078.16644	0.08768
3076.23776	0.08783
3074.30909	0.08799
3072.38041	0.08817
3070.45173	0.08831
3068.52306	0.08843
3066.59438	0.08855
3064.66571	0.08866
3062.73703	0.08881
3060.80836	0.08899
3058.87968	0.08913
3056.95100	0.08923
3055.02233	0.08938
3053.09365	0.08957
3051.16498	0.08972
3049.23630	0.08986
3047.30763	0.09001
3045.37895	0.09015
3043.45027	0.09026
3041.52160	0.09037
3039.59292	0.09049
3037.66425	0.09062
3035.73557	0.09076
3033.80690	0.09090
3031.87822	0.09102
3029.94954	0.09115
3028.02087	0.09131
3026.09219	0.09148
3024.16352	0.09162
3022.23484	0.09175
3020.30617	0.09187
3018.37749	0.09200
3016.44881	0.09212
3014.52014	0.09225
3012.59146	0.09238
3010.66279	0.09252
3008.73411	0.09267
3006.80544	0.09283
3004.87676	0.09297
3002.94808	0.09308
3001.01941	0.09320
2999.09073	0.09335
2997.16206	0.09351
2995.23338	0.09366
2993.30471	0.09380
2991.37603	0.09390
2989.44735	0.09398
2987.51868	0.09406
2985.59000	0.09414
2983.66133	0.09423
2981.73265	0.09434
2979.80398	0.09443
2977.87530	0.09448
2975.94662	0.09449
2974.01795	0.09448
2972.08927	0.09446
2970.16060	0.09446
2968.23192	0.09446
2966.30325	0.09447
2964.37457	0.09450
2962.44589	0.09457
2960.51722	0.09470
2958.58854	0.09484
2956.65987	0.09502
2954.73119	0.09524
2952.80252	0.09546
2950.87384	0.09565
2948.94516	0.09579
2947.01649	0.09589
2945.08781	0.09597
2943.15914	0.09604
2941.23046	0.09611
2939.30179	0.09613
2937.37311	0.09611
2935.44443	0.09606
2933.51576	0.09601
2931.58708	0.09597
2929.65841	0.09594
2927.72973	0.09593
2925.80106	0.09591
2923.87238	0.09591
2921.94370	0.09594
2920.01503	0.09601
2918.08635	0.09618
2916.15768	0.09650
2914.22900	0.09695
2912.30033	0.09741
2910.37165	0.09786
2908.44297	0.09824
2906.51430	0.09852
2904.58562	0.09873
2902.65695	0.09892
2900.72827	0.09913
2898.79960	0.09935
2896.87092	0.09960
2894.94224	0.09985
2893.01357	0.10005
2891.08489	0.10017
2889.15622	0.10033
2887.22754	0.10055
2885.29887	0.10074
2883.37019	0.10087
2881.44151	0.10099
2879.51284	0.10111
2877.58416	0.10127
2875.65549	0.10143
2873.72681	0.10157
2871.79814	0.10171
2869.86946	0.10185
2867.94078	0.10198
2866.01211	0.10207
2864.08343	0.10215
2862.15476	0.10222
2860.22608	0.10227
2858.29741	0.10227
2856.36873	0.10224
2854.44005	0.10222
2852.51138	0.10222
2850.58270	0.10230
2848.65403	0.10256
2846.72535	0.10301
2844.79668	0.10353
2842.86800	0.10397
2840.93932	0.10430
2839.01065	0.10456
2837.08197	0.10478
2835.15330	0.10499
2833.22462	0.10518
2831.29595	0.10535
2829.36727	0.10552
2827.43859	0.10571
2825.50992	0.10591
2823.58124	0.10611
2821.65257	0.10630
2819.72389	0.10645
2817.79522	0.10659
2815.86654	0.10671
2813.93786	0.10686
2812.00919	0.10704
2810.08051	0.10721
2808.15184	0.10737
2806.22316	0.10753
2804.29449	0.10770
2802.36581	0.10783
2800.43713	0.10794
2798.50846	0.10809
2796.57978	0.10827
2794.65111	0.10844
2792.72243	0.10857
2790.79376	0.10866
2788.86508	0.10876
2786.93640	0.10892
2785.00773	0.10912
2783.07905	0.10932
2781.15038	0.10951
2779.22170	0.10967
2777.29303	0.10983
2775.36435	0.10999
2773.43567	0.11015
2771.50700	0.11030
2769.57832	0.11045
2767.64965	0.11060
2765.72097	0.11075
2763.79230	0.11089
2761.86362	0.11099
2759.93494	0.11111
2758.00627	0.11127
2756.07759	0.11144
2754.14892	0.11158
2752.22024	0.11170
2750.29157	0.11185
2748.36289	0.11202
2746.43421	0.11215
2744.50554	0.11228
2742.57686	0.11243
2740.64819	0.11261
2738.71951	0.11277
2736.79084	0.11291
2734.86216	0.11305
2732.93348	0.11319
2731.00481	0.11334
2729.07613	0.11348
2727.14746	0.11363
2725.21878	0.11379
2723.29011	0.11392
2721.36143	0.11402
2719.43275	0.11414
2717.50408	0.11426
2715.57540	0.11440
2713.64673	0.11457
2711.71805	0.11477
2709.78938	0.11495
2707.86070	0.11508
2705.93202	0.11518
2704.00335	0.11528
2702.07467	0.11543
2700.14600	0.11560
2698.21732	0.11578
2696.28865	0.11593
2694.35997	0.11605
2692.43129	0.11618
2690.50262	0.11629
2688.57394	0.11641
2686.64527	0.11654
2684.71659	0.11670
2682.78792	0.11688
2680.85924	0.11704
2678.93056	0.11717
2677.00189	0.11730
2675.07321	0.11744
2673.14454	0.11758
2671.21586	0.11773
2669.28719	0.11789
2667.35851	0.11804
2665.42983	0.11818
2663.50116	0.11836
2661.57248	0.11854
2659.64381	0.11871
2657.71513	0.11882
2655.78646	0.11894
2653.85778	0.11908
2651.92910	0.11923
2650.00043	0.11940
2648.07175	0.11955
2646.14308	0.11969
2644.21440	0.11983
2642.28573	0.11999
2640.35705	0.12015
2638.42837	0.12032
2636.49970	0.12048
2634.57102	0.12065
2632.64235	0.12082
2630.71367	0.12099
2628.78500	0.12111
2626.85632	0.12123
2624.92764	0.12134
2622.99897	0.12145
2621.07029	0.12158
2619.14162	0.12174
2617.21294	0.12192
2615.28427	0.12213
2613.35559	0.12234
2611.42691	0.12248
2609.49824	0.12258
2607.56956	0.12271
2605.64089	0.12287
2603.71221	0.12304
2601.78354	0.12322
2599.85486	0.12338
2597.92618	0.12352
2595.99751	0.12366
2594.06883	0.12386
2592.14016	0.12407
2590.21148	0.12421
2588.28281	0.12429
2586.35413	0.12443
2584.42545	0.12461
2582.49678	0.12479
2580.56810	0.12495
2578.63943	0.12511
2576.71075	0.12526
2574.78208	0.12540
2572.85340	0.12552
2570.92472	0.12563
2568.99605	0.12577
2567.06737	0.12592
2565.13870	0.12607
2563.21002	0.12623
2561.28135	0.12642
2559.35267	0.12660
2557.42399	0.12673
2555.49532	0.12682
2553.56664	0.12695
2551.63797	0.12711
2549.70929	0.12729
2547.78062	0.12747
2545.85194	0.12762
2543.92326	0.12774
2541.99459	0.12786
2540.06591	0.12801
2538.13724	0.12815
2536.20856	0.12827
2534.27989	0.12843
2532.35121	0.12862
2530.42253	0.12879
2528.49386	0.12892
2526.56518	0.12907
2524.63651	0.12924
2522.70783	0.12942
2520.77916	0.12960
2518.85048	0.12975
2516.92181	0.12990
2514.99313	0.13004
2513.06445	0.13020
2511.13578	0.13038
2509.20710	0.13053
2507.27843	0.13067
2505.34975	0.13082
2503.42108	0.13098
2501.49240	0.13115
2499.56372	0.13133
2497.63505	0.13151
2495.70637	0.13170
2493.77770	0.13188
2491.84902	0.13203
2489.92035	0.13221
2487.99167	0.13240
2486.06299	0.13256
2484.13432	0.13269
2482.20564	0.13283
2480.27697	0.13298
2478.34829	0.13317
2476.41962	0.13337
2474.49094	0.13354
2472.56226	0.13370
2470.63359	0.13384
2468.70491	0.13398
2466.77624	0.13410
2464.84756	0.13424
2462.91889	0.13440
2460.99021	0.13456
2459.06153	0.13472
2457.13286	0.13489
2455.20418	0.13506
2453.27551	0.13522
2451.34683	0.13538
2449.41816	0.13552
2447.48948	0.13567
2445.56080	0.13585
2443.63213	0.13605
2441.70345	0.13623
2439.77478	0.13640
2437.84610	0.13658
2435.91743	0.13676
2433.98875	0.13690
2432.06007	0.13703
2430.13140	0.13717
2428.20272	0.13733
2426.27405	0.13749
2424.34537	0.13766
2422.41670	0.13786
2420.48802	0.13806
2418.55934	0.13823
2416.63067	0.13839
2414.70199	0.13853
2412.77332	0.13865
2410.84464	0.13876
2408.91597	0.13889
2406.98729	0.13904
2405.05861	0.13922
2403.12994	0.13941
2401.20126	0.13958
2399.27259	0.13974
2397.34391	0.13989
2395.41524	0.14003
2393.48656	0.14017
2391.55788	0.14031
2389.62921	0.14048
2387.70053	0.14065
2385.77186	0.14079
2383.84318	0.14094
2381.91451	0.14108
2379.98583	0.14118
2378.05715	0.14124
2376.12848	0.14125
2374.19980	0.14126
2372.27113	0.14128
2370.34245	0.14131
2368.41378	0.14135
2366.48510	0.14141
2364.55642	0.14150
2362.62775	0.14163
2360.69907	0.14178
2358.77040	0.14197
2356.84172	0.14220
2354.91305	0.14248
2352.98437	0.14284
2351.05569	0.14319
2349.12702	0.14341
2347.19834	0.14348
2345.26967	0.14349
2343.34099	0.14350
2341.41232	0.14354
2339.48364	0.14363
2337.55496	0.14380
2335.62629	0.14401
2333.69761	0.14422
2331.76894	0.14442
2329.84026	0.14464
2327.91159	0.14486
2325.98291	0.14508
2324.05423	0.14527
2322.12556	0.14544
2320.19688	0.14565
2318.26821	0.14589
2316.33953	0.14609
2314.41086	0.14627
2312.48218	0.14648
2310.55350	0.14672
2308.62483	0.14690
2306.69615	0.14708
2304.76748	0.14729
2302.83880	0.14748
2300.91013	0.14764
2298.98145	0.14778
2297.05277	0.14794
2295.12410	0.14811
2293.19542	0.14825
2291.26675	0.14840
2289.33807	0.14860
2287.40940	0.14885
2285.48072	0.14906
2283.55204	0.14922
2281.62337	0.14933
2279.69469	0.14947
2277.76602	0.14965
2275.83734	0.14982
2273.90867	0.14995
2271.97999	0.15009
2270.05131	0.15028
2268.12264	0.15048
2266.19396	0.15067
2264.26529	0.15085
2262.33661	0.15098
2260.40794	0.15111
2258.47926	0.15126
2256.55058	0.15145
2254.62191	0.15163
2252.69323	0.15179
2250.76456	0.15195
2248.83588	0.15210
2246.90721	0.15225
2244.97853	0.15242
2243.04985	0.15258
2241.12118	0.15273
2239.19250	0.15288
2237.26383	0.15304
2235.33515	0.15320
2233.40648	0.15334
2231.47780	0.15349
2229.54912	0.15365
2227.62045	0.15382
2225.69177	0.15400
2223.76310	0.15415
2221.83442	0.15428
2219.90575	0.15445
2217.97707	0.15461
2216.04839	0.15474
2214.11972	0.15487
2212.19104	0.15501
2210.26237	0.15519
2208.33369	0.15538
2206.40502	0.15556
2204.47634	0.15568
2202.54766	0.15579
2200.61899	0.15592
2198.69031	0.15608
2196.76164	0.15626
2194.83296	0.15644
2192.90429	0.15659
2190.97561	0.15671
2189.04693	0.15685
2187.11826	0.15702
2185.18958	0.15720
2183.26091	0.15735
2181.33223	0.15749
2179.40356	0.15764
2177.47488	0.15779
2175.54620	0.15796
2173.61753	0.15812
2171.68885	0.15827
2169.76018	0.15842
2167.83150	0.15858
2165.90283	0.15876
2163.97415	0.15895
2162.04547	0.15910
2160.11680	0.15924
2158.18812	0.15941
2156.25945	0.15960
2154.33077	0.15979
2152.40210	0.16000
2150.47342	0.16018
2148.54474	0.16033
2146.61607	0.16046
2144.68739	0.16058
2142.75872	0.16070
2140.83004	0.16085
2138.90137	0.16102
2136.97269	0.16121
2135.04401	0.16138
2133.11534	0.16151
2131.18666	0.16167
2129.25799	0.16187
2127.32931	0.16208
2125.40064	0.16227
2123.47196	0.16241
2121.54328	0.16253
2119.61461	0.16266
2117.68593	0.16282
2115.75726	0.16300
2113.82858	0.16313
2111.89991	0.16326
2109.97123	0.16345
2108.04255	0.16365
2106.11388	0.16383
2104.18520	0.16398
2102.25653	0.16414
2100.32785	0.16432
2098.39918	0.16450
2096.47050	0.16468
2094.54182	0.16487
2092.61315	0.16505
2090.68447	0.16519
2088.75580	0.16532
2086.82712	0.16547
2084.89845	0.16563
2082.96977	0.16577
2081.04109	0.16590
2079.11242	0.16603
2077.18374	0.16618
2075.25507	0.16635
2073.32639	0.16655
2071.39772	0.16672
2069.46904	0.16688
2067.54036	0.16701
2065.61169	0.16714
2063.68301	0.16729
2061.75434	0.16747
2059.82566	0.16766
2057.89699	0.16783
2055.96831	0.16799
2054.03963	0.16816
2052.11096	0.16830
2050.18228	0.16841
2048.25361	0.16854
2046.32493	0.16872
2044.39626	0.16892
2042.46758	0.16912
2040.53890	0.16931
2038.61023	0.16950
2036.68155	0.16965
2034.75288	0.16980
2032.82420	0.16997
2030.89553	0.17013
2028.96685	0.17030
2027.03817	0.17047
2025.10950	0.17063
2023.18082	0.17076
2021.25215	0.17089
2019.32347	0.17105
2017.39480	0.17122
2015.46612	0.17139
2013.53744	0.17156
2011.60877	0.17172
2009.68009	0.17186
2007.75142	0.17201
2005.82274	0.17219
2003.89407	0.17238
2001.96539	0.17256
2000.03671	0.17273
1998.10804	0.17284
1996.17936	0.17290
1994.25069	0.17295
1992.32201	0.17307
1990.39334	0.17328
1988.46466	0.17350
1986.53598	0.17368
1984.60731	0.17383
1982.67863	0.17398
1980.74996	0.17415
1978.82128	0.17431
1976.89261	0.17444
1974.96393	0.17454
1973.03525	0.17465
1971.10658	0.17478
1969.17790	0.17490
1967.24923	0.17500
1965.32055	0.17513
1963.39188	0.17530
1961.46320	0.17547
1959.53452	0.17565
1957.60585	0.17582
1955.67717	0.17595
1953.74850	0.17609
1951.81982	0.17626
1949.89115	0.17643
1947.96247	0.17653
1946.03379	0.17660
1944.10512	0.17667
1942.17644	0.17682
1940.24777	0.17707
1938.31909	0.17732
1936.39042	0.17752
1934.46174	0.17770
1932.53306	0.17784
1930.60439	0.17796
1928.67571	0.17811
1926.74704	0.17826
1924.81836	0.17837
1922.88969	0.17848
1920.96101	0.17861
1919.03233	0.17872
1917.10366	0.17890
1915.17498	0.17919
1913.24631	0.17941
1911.31763	0.17951
1909.38896	0.17958
1907.46028	0.17972
1905.53160	0.17993
1903.60293	0.18013
1901.67425	0.18030
1899.74558	0.18047
1897.81690	0.18064
1895.88823	0.18075
1893.95955	0.18083
1892.03087	0.18085
1890.10220	0.18087
1888.17352	0.18108
1886.24485	0.18138
1884.31617	0.18160
1882.38750	0.18182
1880.45882	0.18205
1878.53014	0.18224
1876.60147	0.18238
1874.67279	0.18249
1872.74412	0.18252
1870.81544	0.18248
1868.88677	0.18250
1866.95809	0.18271
1865.02941	0.18304
1863.10074	0.18335
1861.17206	0.18358
1859.24339	0.18376
1857.31471	0.18393
1855.38604	0.18409
1853.45736	0.18425
1851.52868	0.18435
1849.60001	0.18437
1847.67133	0.18420
1845.74266	0.18389
1843.81398	0.18399
1841.88531	0.18471
1839.95663	0.18534
1838.02795	0.18556
1836.09928	0.18568
1834.17060	0.18582
1832.24193	0.18582
1830.31325	0.18574
1828.38458	0.18572
1826.45590	0.18576
1824.52722	0.18602
1822.59855	0.18654
1820.66987	0.18694
1818.74120	0.18707
1816.81252	0.18718
1814.88385	0.18732
1812.95517	0.18739
1811.02649	0.18747
1809.09782	0.18768
1807.16914	0.18790
1805.24047	0.18793
1803.31179	0.18781
1801.38312	0.18783
1799.45444	0.18813
1797.52576	0.18847
1795.59709	0.18859
1793.66841	0.18851
1791.73974	0.18850
1789.81106	0.18878
1787.88239	0.18910
1785.95371	0.18922
1784.02503	0.18927
1782.09636	0.18937
1780.16768	0.18947
1778.23901	0.18955
1776.31033	0.18952
1774.38166	0.18938
1772.45298	0.18926
1770.52430	0.18925
1768.59563	0.18946
1766.66695	0.18992
1764.73828	0.19035
1762.80960	0.19051
1760.88093	0.19055
1758.95225	0.19053
1757.02357	0.19050
1755.09490	0.19056
1753.16622	0.19048
1751.23755	0.19017
1749.30887	0.19002
1747.38020	0.19020
1745.45152	0.19050
1743.52284	0.19070
1741.59417	0.19077
1739.66549	0.19077
1737.73682	0.19065
1735.80814	0.19018
1733.87947	0.18979
1731.95079	0.19005
1730.02211	0.19066
1728.09344	0.19122
1726.16476	0.19159
1724.23609	0.19175
1722.30741	0.19171
1720.37874	0.19135
1718.45006	0.19097
1716.52138	0.19107
1714.59271	0.19160
1712.66403	0.19221
1710.73536	0.19257
1708.80668	0.19252
1706.87801	0.19236
1704.94933	0.19242
1703.02065	0.19240
1701.09198	0.19210
1699.16330	0.19192
1697.23463	0.19190
1695.30595	0.19212
1693.37728	0.19275
1691.44860	0.19318
1689.51992	0.19314
1687.59125	0.19283
1685.66257	0.19231
1683.73390	0.19209
1681.80522	0.19255
1679.87655	0.19310
1677.94787	0.19322
1676.01919	0.19312
1674.09052	0.19315
1672.16184	0.19315
1670.23317	0.19301
1668.30449	0.19318
1666.37582	0.19365
1664.44714	0.19385
1662.51846	0.19387
1660.58979	0.19400
1658.66111	0.19405
1656.73244	0.19351
1654.80376	0.19241
1652.87509	0.19203
1650.94641	0.19286
1649.01773	0.19348
1647.08906	0.19337
1645.16038	0.19354
1643.23171	0.19410
1641.30303	0.19441
1639.37436	0.19426
1637.44568	0.19391
1635.51700	0.19389
1633.58833	0.19436
1631.65965	0.19478
1629.73098	0.19484
1627.80230	0.19472
1625.87363	0.19443
1623.94495	0.19396
1622.01627	0.19365
1620.08760	0.19366
1618.15892	0.19397
1616.23025	0.19461
1614.30157	0.19534
1612.37290	0.19587
1610.44422	0.19618
1608.51554	0.19642
1606.58687	0.19668
1604.65819	0.19692
1602.72952	0.19708
1600.80084	0.19724
1598.87217	0.19743
1596.94349	0.19761
1595.01481	0.19780
1593.08614	0.19803
1591.15746	0.19823
1589.22879	0.19840
1587.30011	0.19855
1585.37144	0.19869
1583.44276	0.19881
1581.51408	0.19895
1579.58541	0.19897
1577.65673	0.19878
1575.72806	0.19879
1573.79938	0.19909
1571.87071	0.19913
1569.94203	0.19899
1568.01335	0.19924
1566.08468	0.19965
1564.15600	0.19984
1562.22733	0.19963
1560.29865	0.19890
1558.36998	0.19835
1556.44130	0.19874
1554.51262	0.19955
1552.58395	0.20010
1550.65527	0.20039
1548.72660	0.20066
1546.79792	0.20078
1544.86925	0.20046
1542.94057	0.19993
1541.01189	0.19964
1539.08322	0.19993
1537.15454	0.20063
1535.22587	0.20114
1533.29719	0.20133
1531.36852	0.20154
1529.43984	0.20160
1527.51116	0.20148
1525.58249	0.20141
1523.65381	0.20123
1521.72514	0.20096
1519.79646	0.20103
1517.86779	0.20133
1515.93911	0.20154
1514.01043	0.20162
1512.08176	0.20162
1510.15308	0.20147
1508.22441	0.20127
1506.29573	0.20152
1504.36706	0.20222
1502.43838	0.20268
1500.50970	0.20261
1498.58103	0.20230
1496.65235	0.20214
1494.72368	0.20232
1492.79500	0.20240
1490.86633	0.20209
1488.93765	0.20190
1487.00897	0.20209
1485.08030	0.20227
1483.15162	0.20222
1481.22295	0.20207
1479.29427	0.20190
1477.36560	0.20153
1475.43692	0.20090
1473.50824	0.20036
1471.57957	0.20027
1469.65089	0.20037
1467.72222	0.20023
1465.79354	0.19990
1463.86487	0.19967
1461.93619	0.19939
1460.00751	0.19872
1458.07884	0.19809
1456.15016	0.19811
1454.22149	0.19856
1452.29281	0.19887
1450.36414	0.19892
1448.43546	0.19889
1446.50678	0.19906
1444.57811	0.19938
1442.64943	0.19963
1440.72076	0.19962
1438.79208	0.19936
1436.86341	0.19920
1434.93473	0.19951
1433.00605	0.19996
1431.07738	0.20022
1429.14870	0.20036
1427.22003	0.20043
1425.29135	0.20036
1423.36268	0.20027
1421.43400	0.20014
1419.50532	0.19994
1417.57665	0.20006
1415.64797	0.20049
1413.71930	0.20079
1411.79062	0.20084
1409.86195	0.20083
1407.93327	0.20077
1406.00459	0.20060
1404.07592	0.20053
1402.14724	0.20058
1400.21857	0.20049
1398.28989	0.20027
1396.36122	0.20009
1394.43254	0.20010
1392.50386	0.20025
1390.57519	0.20024
1388.64651	0.19995
1386.71784	0.19963
1384.78916	0.19951
1382.86049	0.19953
1380.93181	0.19958
1379.00313	0.19955
1377.07446	0.19940
1375.14578	0.19924
1373.21711	0.19926
1371.28843	0.19945
1369.35976	0.19957
1367.43108	0.19954
1365.50240	0.19931
1363.57373	0.19901
1361.64505	0.19904
1359.71638	0.19934
1357.78770	0.19954
1355.85903	0.19963
1353.93035	0.19975
1352.00167	0.19988
1350.07300	0.19998
1348.14432	0.20010
1346.21565	0.20022
1344.28697	0.20020
1342.35830	0.20001
1340.42962	0.19978
1338.50094	0.19968
1336.57227	0.19974
1334.64359	0.19983
1332.71492	0.19984
1330.78624	0.19975
1328.85757	0.19961
1326.92889	0.19944
1325.00021	0.19926
1323.07154	0.19910
1321.14286	0.19891
1319.21419	0.19868
1317.28551	0.19849
1315.35684	0.19833
1313.42816	0.19816
1311.49948	0.19799
1309.57081	0.19779
1307.64213	0.19753
1305.71346	0.19729
1303.78478	0.19709
1301.85611	0.19690
1299.92743	0.19671
1297.99875	0.19651
1296.07008	0.19633
1294.14140	0.19615
1292.21273	0.19599
1290.28405	0.19586
1288.35538	0.19571
1286.42670	0.19552
1284.49802	0.19531
1282.56935	0.19510
1280.64067	0.19486
1278.71200	0.19451
1276.78332	0.19406
1274.85465	0.19360
1272.92597	0.19313
1270.99729	0.19250
1269.06862	0.19166
1267.13994	0.19079
1265.21127	0.19000
1263.28259	0.18936
1261.35392	0.18902
1259.42524	0.18904
1257.49656	0.18928
1255.56789	0.18950
1253.63921	0.18958
1251.71054	0.18949
1249.78186	0.18928
1247.85319	0.18902
1245.92451	0.18871
1243.99583	0.18829
1242.06716	0.18780
1240.13848	0.18732
1238.20981	0.18686
1236.28113	0.18638
1234.35246	0.18582
1232.42378	0.18521
1230.49510	0.18466
1228.56643	0.18415
1226.63775	0.18357
1224.70908	0.18297
1222.78040	0.18244
1220.85173	0.18201
1218.92305	0.18162
1216.99437	0.18115
1215.06570	0.18062
1213.13702	0.18009
1211.20835	0.17954
1209.27967	0.17896
1207.35100	0.17839
1205.42232	0.17781
1203.49364	0.17722
1201.56497	0.17662
1199.63629	0.17602
1197.70762	0.17542
1195.77894	0.17478
1193.85027	0.17413
1191.92159	0.17348
1189.99291	0.17282
1188.06424	0.17213
1186.13556	0.17137
1184.20689	0.17056
1182.27821	0.16973
1180.34954	0.16889
1178.42086	0.16807
1176.49218	0.16726
1174.56351	0.16643
1172.63483	0.16556
1170.70616	0.16467
1168.77748	0.16379
1166.84881	0.16298
1164.92013	0.16218
1162.99145	0.16135
1161.06278	0.16054
1159.13410	0.15975
1157.20543	0.15893
1155.27675	0.15811
1153.34808	0.15733
1151.41940	0.15659
1149.49072	0.15582
1147.56205	0.15499
1145.63337	0.15411
1143.70470	0.15318
1141.77602	0.15224
1139.84735	0.15130
1137.91867	0.15030
1135.98999	0.14915
1134.06132	0.14781
1132.13264	0.14624
1130.20397	0.14445
1128.27529	0.14241
1126.34662	0.14015
1124.41794	0.13778
1122.48926	0.13544
1120.56059	0.13314
1118.63191	0.13092
1116.70324	0.12887
1114.77456	0.12702
1112.84589	0.12546
1110.91721	0.12422
1108.98853	0.12327
1107.05986	0.12255
1105.13118	0.12209
1103.20251	0.12196
1101.27383	0.12216
1099.34516	0.12256
1097.41648	0.12312
1095.48780	0.12384
1093.55913	0.12463
1091.63045	0.12543
1089.70178	0.12621
1087.77310	0.12690
1085.84443	0.12750
1083.91575	0.12800
1081.98707	0.12837
1080.05840	0.12867
1078.12972	0.12894
1076.20105	0.12915
1074.27237	0.12925
1072.34370	0.12930
1070.41502	0.12944
1068.48634	0.12966
1066.55767	0.12989
1064.62899	0.13012
1062.70032	0.13032
1060.77164	0.13049
1058.84297	0.13070
1056.91429	0.13098
1054.98561	0.13130
1053.05694	0.13160
1051.12826	0.13188
1049.19959	0.13214
1047.27091	0.13245
1045.34224	0.13285
1043.41356	0.13326
1041.48488	0.13369
1039.55621	0.13411
1037.62753	0.13450
1035.69886	0.13487
1033.77018	0.13527
1031.84151	0.13566
1029.91283	0.13599
1027.98415	0.13628
1026.05548	0.13660
1024.12680	0.13694
1022.19813	0.13730
1020.26945	0.13768
1018.34078	0.13813
1016.41210	0.13864
1014.48342	0.13919
1012.55475	0.13974
1010.62607	0.14030
1008.69740	0.14090
1006.76872	0.14149
1004.84005	0.14201
1002.91137	0.14242
1000.98269	0.14277
999.05402	0.14308
997.12534	0.14328
995.19667	0.14334
993.26799	0.14342
991.33932	0.14358
989.41064	0.14368
987.48196	0.14367
985.55329	0.14370
983.62461	0.14381
981.69594	0.14389
979.76726	0.14384
977.83859	0.14366
975.90991	0.14341
973.98123	0.14316
972.05256	0.14297
970.12388	0.14289
968.19521	0.14282
966.26653	0.14264
964.33786	0.14242
962.40918	0.14227
960.48050	0.14211
958.55183	0.14190
956.62315	0.14169
954.69448	0.14152
952.76580	0.14140
950.83713	0.14130
948.90845	0.14110
946.97977	0.14080
945.05110	0.14052
943.12242	0.14025
941.19375	0.13996
939.26507	0.13961
937.33640	0.13913
935.40772	0.13859
933.47904	0.13812
931.55037	0.13771
929.62169	0.13727
927.69302	0.13673
925.76434	0.13615
923.83567	0.13559
921.90699	0.13499
919.97831	0.13436
918.04964	0.13376
916.12096	0.13309
914.19229	0.13227
912.26361	0.13145
910.33494	0.13073
908.40626	0.13008
906.47758	0.12945
904.54891	0.12880
902.62023	0.12811
900.69156	0.12749
898.76288	0.12696
896.83421	0.12646
894.90553	0.12596
892.97685	0.12551
891.04818	0.12507
889.11950	0.12464
887.19083	0.12421
885.26215	0.12379
883.33348	0.12340
881.40480	0.12304
879.47612	0.12271
877.54745	0.12238
875.61877	0.12206
873.69010	0.12182
871.76142	0.12172
869.83275	0.12166
867.90407	0.12153
865.97539	0.12126
864.04672	0.12100
862.11804	0.12088
860.18937	0.12081
858.26069	0.12070
856.33202	0.12061
854.40334	0.12049
852.47466	0.12025
850.54599	0.11996
848.61731	0.11974
846.68864	0.11955
844.75996	0.11927
842.83129	0.11890
840.90261	0.11852
838.97394	0.11817
837.04526	0.11780
835.11658	0.11733
833.18791	0.11663
831.25923	0.11570
829.33056	0.11462
827.40188	0.11352
825.47321	0.11252
823.54453	0.11160
821.61585	0.11077
819.68718	0.11011
817.75850	0.10963
815.82983	0.10928
813.90115	0.10890
811.97248	0.10849
810.04380	0.10823
808.11512	0.10813
806.18645	0.10802
804.25777	0.10787
802.32910	0.10777
800.40042	0.10759
798.47175	0.10714
796.54307	0.10655
794.61439	0.10600
792.68572	0.10556
790.75704	0.10524
788.82837	0.10499
786.89969	0.10474
784.97102	0.10451
783.04234	0.10434
781.11366	0.10413
779.18499	0.10382
777.25631	0.10351
775.32764	0.10320
773.39896	0.10287
771.47029	0.10254
769.54161	0.10224
767.61293	0.10194
765.68426	0.10159
763.75558	0.10118
761.82691	0.10067
759.89823	0.10009
757.96956	0.09947
756.04088	0.09887
754.11220	0.09832
752.18353	0.09774
750.25485	0.09705
748.32618	0.09635
746.39750	0.09563
744.46883	0.09480
742.54015	0.09390
740.61147	0.09306
738.68280	0.09252
736.75412	0.09235
734.82545	0.09231
732.89677	0.09227
730.96810	0.09231
729.03942	0.09244
727.11074	0.09256
725.18207	0.09264
723.25339	0.09274
721.32472	0.09289
719.39604	0.09303
717.46737	0.09323
715.53869	0.09363
713.61001	0.09411
711.68134	0.09448
709.75266	0.09473
707.82399	0.09486
705.89531	0.09481
703.96664	0.09466
702.03796	0.09445
700.10928	0.09412
698.18061	0.09362
696.25193	0.09303
694.32326	0.09241
692.39458	0.09178
690.46591	0.09120
688.53723	0.09071
686.60855	0.09026
684.67988	0.08981
682.75120	0.08932
680.82253	0.08885
678.89385	0.08837
676.96518	0.08776
675.03650	0.08706
673.10782	0.08637
671.17915	0.08560
669.25047	0.08467
667.32180	0.08379
665.39312	0.08307
663.46445	0.08232
661.53577	0.08146
659.60709	0.08060
657.67842	0.07979
655.74974	0.07902
653.82107	0.07831
651.89239	0.07758
649.96372	0.07675
648.03504	0.07584
646.10636	0.07494
644.17769	0.07403
642.24901	0.07310
640.32034	0.07213
638.39166	0.07108
636.46299	0.06994
634.53431	0.06876
632.60563	0.06730
630.67696	0.06502
628.74828	0.06162
626.81961	0.05726
624.89093	0.05284
622.96226	0.04937
621.03358	0.04713
619.10490	0.04586
617.17623	0.04505
615.24755	0.04425
613.31888	0.04333
611.39020	0.04241
609.46153	0.04186
607.53285	0.04186
605.60417	0.04218
603.67550	0.04262
601.74682	0.04334
599.81815	0.04430
597.88947	0.04514
595.96080	0.04572
594.03212	0.04625
592.10344	0.04676
590.17477	0.04695
588.24609	0.04678
586.31742	0.04655
584.38874	0.04637
582.46007	0.04608
580.53139	0.04566
578.60271	0.04522
576.67404	0.04476
574.74536	0.04425
572.81669	0.04367
570.88801	0.04304
568.95934	0.04238
567.03066	0.04182
565.10198	0.04152
563.17331	0.04135
561.24463	0.04111
559.31596	0.04080
557.38728	0.04052
555.45861	0.04029
553.52993	0.04006
551.60125	0.03987
549.67258	0.03972
547.74390	0.03953
545.81523	0.03933
543.88655	0.03918
541.95788	0.03899
540.02920	0.03872
538.10052	0.03849
536.17185	0.03832
534.24317	0.03817
532.31450	0.03800
530.38582	0.03772
528.45715	0.03733
526.52847	0.03702
524.59979	0.03687
522.67112	0.03665
520.74244	0.03617
518.81377	0.03550
516.88509	0.03481
514.95642	0.03424
513.02774	0.03391
511.09906	0.03375
509.17039	0.03362
507.24171	0.03341
505.31304	0.03309
503.38436	0.03267
501.45569	0.03221
499.52701	0.03172
497.59833	0.03125
495.66966	0.03076
493.74098	0.03020
491.81231	0.02964
489.88363	0.02911
487.95496	0.02858
486.02628	0.02809
484.09760	0.02765
482.16893	0.02718
480.24025	0.02662
478.31158	0.02604
476.38290	0.02550
474.45423	0.02499
472.52555	0.02448
470.59687	0.02403
468.66820	0.02360
466.73952	0.02309
464.81085	0.02265
462.88217	0.02250
460.95350	0.02245
459.02482	0.02230
457.09614	0.02221
455.16747	0.02226
453.23879	0.02231
451.31012	0.02230
449.38144	0.02227
447.45277	0.02226
445.52409	0.02225
443.59541	0.02215
441.66674	0.02189
439.73806	0.02150
437.80939	0.02102
435.88071	0.02057
433.95204	0.02009
432.02336	0.01950
430.09468	0.01887
428.16601	0.01826
426.23733	0.01757
424.30866	0.01683
422.37998	0.01610
420.45131	0.01543
418.52263	0.01483
416.59395	0.01424
414.66528	0.01357
412.73660	0.01288
410.80793	0.01225
408.87925	0.01172
406.95058	0.01121
405.02190	0.01065
403.09322	0.00998
401.16455	0.00929
399.23587	0.00867
397.30720	0.00810
395.37852	0.00758
393.44985	0.00714
391.52117	0.00676
389.59249	0.00640
387.66382	0.00604
385.73514	0.00566
383.80647	0.00524
381.87779	0.00478
379.94912	0.00438
378.02044	0.00408
376.09176	0.00376
374.16309	0.00336
372.23441	0.00301
370.30574	0.00276
368.37706	0.00254
