7496.76250	0.00118
7494.83382	0.00119
7492.90514	0.00119
7490.97647	0.00119
7489.04779	0.00119
7487.11912	0.00120
7485.19044	0.00121
7483.26177	0.00122
7481.33309	0.00122
7479.40441	0.00121
7477.47574	0.00121
7475.54706	0.00121
7473.61839	0.00121
7471.68971	0.00121
7469.76104	0.00122
7467.83236	0.00123
7465.90368	0.00124
7463.97501	0.00124
7462.04633	0.00124
7460.11766	0.00125
7458.18898	0.00124
7456.26031	0.00123
7454.33163	0.00123
7452.40295	0.00124
7450.47428	0.00125
7448.54560	0.00126
7446.61693	0.00127
7444.68825	0.00127
7442.75958	0.00128
7440.83090	0.00127
7438.90222	0.00124
7436.97355	0.00123
7435.04487	0.00124
7433.11620	0.00125
7431.18752	0.00128
7429.25885	0.00130
7427.33017	0.00131
7425.40149	0.00132
7423.47282	0.00132
7421.54414	0.00132
7419.61547	0.00133
7417.68679	0.00133
7415.75812	0.00133
7413.82944	0.00133
7411.90076	0.00133
7409.97209	0.00132
7408.04341	0.00132
7406.11474	0.00133
7404.18606	0.00135
7402.25739	0.00136
7400.32871	0.00137
7398.40003	0.00136
7396.47136	0.00135
7394.54268	0.00135
7392.61401	0.00134
7390.68533	0.00135
7388.75666	0.00135
7386.82798	0.00135
7384.89930	0.00135
7382.97063	0.00135
7381.04195	0.00137
7379.11328	0.00138
7377.18460	0.00139
7375.25593	0.00139
7373.32725	0.00139
7371.39857	0.00140
7369.46990	0.00141
7367.54122	0.00141
7365.61255	0.00140
7363.68387	0.00140
7361.75520	0.00140
7359.82652	0.00141
7357.89784	0.00142
7355.96917	0.00141
7354.04049	0.00140
7352.11182	0.00140
7350.18314	0.00141
7348.25447	0.00144
7346.32579	0.00146
7344.39711	0.00147
7342.46844	0.00147
7340.53976	0.00146
7338.61109	0.00145
7336.68241	0.00145
7334.75374	0.00147
7332.82506	0.00148
7330.89638	0.00148
7328.96771	0.00148
7327.03903	0.00149
7325.11036	0.00150
7323.18168	0.00149
7321.25301	0.00148
7319.32433	0.00149
7317.39565	0.00150
7315.46698	0.00149
7313.53830	0.00148
7311.60963	0.00150
7309.68095	0.00151
7307.75228	0.00150
7305.82360	0.00150
7303.89492	0.00150
7301.96625	0.00150
7300.03757	0.00151
7298.10890	0.00151
7296.18022	0.00151
7294.25155	0.00152
7292.32287	0.00152
7290.39419	0.00152
7288.46552	0.00154
7286.53684	0.00155
7284.60817	0.00155
7282.67949	0.00155
7280.75082	0.00155
7278.82214	0.00155
7276.89346	0.00155
7274.96479	0.00155
7273.03611	0.00157
7271.10744	0.00159
7269.17876	0.00159
7267.25009	0.00158
7265.32141	0.00158
7263.39273	0.00158
7261.46406	0.00158
7259.53538	0.00157
7257.60671	0.00157
7255.67803	0.00158
7253.74936	0.00160
7251.82068	0.00162
7249.89200	0.00163
7247.96333	0.00163
7246.03465	0.00162
7244.10598	0.00162
7242.17730	0.00162
7240.24863	0.00162
7238.31995	0.00163
7236.39127	0.00165
7234.46260	0.00166
7232.53392	0.00166
7230.60525	0.00166
7228.67657	0.00165
7226.74790	0.00166
7224.81922	0.00168
7222.89054	0.00169
7220.96187	0.00169
7219.03319	0.00169
7217.10452	0.00168
7215.17584	0.00167
7213.24717	0.00167
7211.31849	0.00169
7209.38981	0.00170
7207.46114	0.00170
7205.53246	0.00169
7203.60379	0.00171
7201.67511	0.00172
7199.74644	0.00172
7197.81776	0.00172
7195.88908	0.00172
7193.96041	0.00173
7192.03173	0.00174
7190.10306	0.00174
7188.17438	0.00174
7186.24571	0.00174
7184.31703	0.00174
7182.38835	0.00175
7180.45968	0.00176
7178.53100	0.00176
7176.60233	0.00175
7174.67365	0.00176
7172.74498	0.00176
7170.81630	0.00178
7168.88762	0.00178
7166.95895	0.00177
7165.03027	0.00176
7163.10160	0.00176
7161.17292	0.00176
7159.24425	0.00178
7157.31557	0.00181
7155.38689	0.00183
7153.45822	0.00182
7151.52954	0.00181
7149.60087	0.00183
7147.67219	0.00185
7145.74352	0.00185
7143.81484	0.00183
7141.88616	0.00183
7139.95749	0.00183
7138.02881	0.00184
7136.10014	0.00184
7134.17146	0.00185
7132.24279	0.00185
7130.31411	0.00186
7128.38543	0.00186
7126.45676	0.00187
7124.52808	0.00187
7122.59941	0.00187
7120.67073	0.00187
7118.74206	0.00187
7116.81338	0.00188
7114.88470	0.00189
7112.95603	0.00191
7111.02735	0.00191
7109.09868	0.00191
7107.17000	0.00190
7105.24133	0.00191
7103.31265	0.00191
7101.38397	0.00190
7099.45530	0.00191
7097.52662	0.00193
7095.59795	0.00193
7093.66927	0.00194
7091.74060	0.00195
7089.81192	0.00197
7087.88324	0.00198
7085.95457	0.00197
7084.02589	0.00197
7082.09722	0.00198
7080.16854	0.00199
7078.23987	0.00198
7076.31119	0.00198
7074.38251	0.00198
7072.45384	0.00198
7070.52516	0.00198
7068.59649	0.00198
7066.66781	0.00199
7064.73914	0.00199
7062.81046	0.00198
7060.88178	0.00199
7058.95311	0.00200
7057.02443	0.00201
7055.09576	0.00200
7053.16708	0.00201
7051.23841	0.00202
7049.30973	0.00203
7047.38105	0.00204
7045.45238	0.00204
7043.52370	0.00205
7041.59503	0.00205
7039.66635	0.00205
7037.73768	0.00205
7035.80900	0.00206
7033.88032	0.00206
7031.95165	0.00205
7030.02297	0.00206
7028.09430	0.00206
7026.16562	0.00206
7024.23695	0.00208
7022.30827	0.00209
7020.37959	0.00209
7018.45092	0.00210
7016.52224	0.00211
7014.59357	0.00211
7012.66489	0.00210
7010.73622	0.00209
7008.80754	0.00210
7006.87886	0.00211
7004.95019	0.00212
7003.02151	0.00212
7001.09284	0.00213
6999.16416	0.00213
6997.23549	0.00214
6995.30681	0.00216
6993.37813	0.00217
6991.44946	0.00215
6989.52078	0.00216
6987.59211	0.00218
6985.66343	0.00220
6983.73476	0.00221
6981.80608	0.00222
6979.87740	0.00222
6977.94873	0.00221
6976.02005	0.00221
6974.09138	0.00221
6972.16270	0.00221
6970.23403	0.00223
6968.30535	0.00224
6966.37667	0.00224
6964.44800	0.00223
6962.51932	0.00222
6960.59065	0.00223
6958.66197	0.00225
6956.73330	0.00227
6954.80462	0.00226
6952.87594	0.00226
6950.94727	0.00226
6949.01859	0.00227
6947.08992	0.00228
6945.16124	0.00229
6943.23257	0.00229
6941.30389	0.00229
6939.37521	0.00229
6937.44654	0.00230
6935.51786	0.00231
6933.58919	0.00232
6931.66051	0.00232
6929.73184	0.00233
6927.80316	0.00234
6925.87448	0.00233
6923.94581	0.00233
6922.01713	0.00234
6920.08846	0.00234
6918.15978	0.00233
6916.23111	0.00232
6914.30243	0.00232
6912.37375	0.00235
6910.44508	0.00237
6908.51640	0.00238
6906.58773	0.00237
6904.65905	0.00236
6902.73038	0.00236
6900.80170	0.00237
6898.87302	0.00238
6896.94435	0.00238
6895.01567	0.00239
6893.08700	0.00241
6891.15832	0.00242
6889.22965	0.00242
6887.30097	0.00242
6885.37229	0.00242
6883.44362	0.00242
6881.51494	0.00243
6879.58627	0.00245
6877.65759	0.00246
6875.72892	0.00245
6873.80024	0.00245
6871.87156	0.00245
6869.94289	0.00245
6868.01421	0.00244
6866.08554	0.00245
6864.15686	0.00246
6862.22819	0.00246
6860.29951	0.00246
6858.37083	0.00248
6856.44216	0.00251
6854.51348	0.00253
6852.58481	0.00253
6850.65613	0.00253
6848.72746	0.00253
6846.79878	0.00254
6844.87010	0.00253
6842.94143	0.00253
6841.01275	0.00253
6839.08408	0.00254
6837.15540	0.00254
6835.22673	0.00254
6833.29805	0.00255
6831.36937	0.00257
6829.44070	0.00258
6827.51202	0.00259
6825.58335	0.00259
6823.65467	0.00260
6821.72600	0.00261
6819.79732	0.00262
6817.86864	0.00263
6815.93997	0.00264
6814.01129	0.00265
6812.08262	0.00266
6810.15394	0.00266
6808.22527	0.00265
6806.29659	0.00265
6804.36791	0.00264
6802.43924	0.00265
6800.51056	0.00265
6798.58189	0.00264
6796.65321	0.00265
6794.72454	0.00267
6792.79586	0.00269
6790.86718	0.00270
6788.93851	0.00270
6787.00983	0.00270
6785.08116	0.00270
6783.15248	0.00270
6781.22381	0.00271
6779.29513	0.00272
6777.36645	0.00273
6775.43778	0.00274
6773.50910	0.00275
6771.58043	0.00276
6769.65175	0.00275
6767.72308	0.00274
6765.79440	0.00274
6763.86572	0.00276
6761.93705	0.00278
6760.00837	0.00280
6758.07970	0.00281
6756.15102	0.00280
6754.22235	0.00279
6752.29367	0.00278
6750.36499	0.00278
6748.43632	0.00280
6746.50764	0.00282
6744.57897	0.00283
6742.65029	0.00284
6740.72162	0.00283
6738.79294	0.00283
6736.86426	0.00283
6734.93559	0.00283
6733.00691	0.00283
6731.07824	0.00285
6729.14956	0.00287
6727.22089	0.00287
6725.29221	0.00286
6723.36353	0.00285
6721.43486	0.00286
6719.50618	0.00288
6717.57751	0.00290
6715.64883	0.00291
6713.72016	0.00292
6711.79148	0.00293
6709.86280	0.00294
6707.93413	0.00294
6706.00545	0.00294
6704.07678	0.00295
6702.14810	0.00296
6700.21943	0.00297
6698.29075	0.00297
6696.36207	0.00297
6694.43340	0.00298
6692.50472	0.00298
6690.57605	0.00299
6688.64737	0.00301
6686.71870	0.00302
6684.79002	0.00302
6682.86134	0.00301
6680.93267	0.00302
6679.00399	0.00303
6677.07532	0.00304
6675.14664	0.00306
6673.21797	0.00306
6671.28929	0.00307
6669.36061	0.00307
6667.43194	0.00307
6665.50326	0.00306
6663.57459	0.00306
6661.64591	0.00306
6659.71724	0.00307
6657.78856	0.00309
6655.85988	0.00312
6653.93121	0.00313
6652.00253	0.00313
6650.07386	0.00312
6648.14518	0.00311
6646.21651	0.00311
6644.28783	0.00312
6642.35915	0.00313
6640.43048	0.00314
6638.50180	0.00315
6636.57313	0.00315
6634.64445	0.00315
6632.71578	0.00317
6630.78710	0.00320
6628.85842	0.00322
6626.92975	0.00322
6625.00107	0.00321
6623.07240	0.00320
6621.14372	0.00320
6619.21505	0.00320
6617.28637	0.00322
6615.35769	0.00324
6613.42902	0.00325
6611.50034	0.00325
6609.57167	0.00327
6607.64299	0.00329
6605.71432	0.00329
6603.78564	0.00328
6601.85696	0.00329
6599.92829	0.00330
6597.99961	0.00331
6596.07094	0.00332
6594.14226	0.00334
6592.21359	0.00335
6590.28491	0.00334
6588.35623	0.00334
6586.42756	0.00333
6584.49888	0.00333
6582.57021	0.00333
6580.64153	0.00333
6578.71286	0.00334
6576.78418	0.00337
6574.85550	0.00339
6572.92683	0.00341
6570.99815	0.00340
6569.06948	0.00340
6567.14080	0.00341
6565.21213	0.00342
6563.28345	0.00343
6561.35477	0.00344
6559.42610	0.00344
6557.49742	0.00344
6555.56875	0.00345
6553.64007	0.00347
6551.71140	0.00347
6549.78272	0.00347
6547.85404	0.00349
6545.92537	0.00349
6543.99669	0.00350
6542.06802	0.00351
6540.13934	0.00351
6538.21067	0.00352
6536.28199	0.00353
6534.35331	0.00354
6532.42464	0.00355
6530.49596	0.00355
6528.56729	0.00356
6526.63861	0.00356
6524.70994	0.00355
6522.78126	0.00356
6520.85258	0.00358
6518.92391	0.00359
6516.99523	0.00360
6515.06656	0.00361
6513.13788	0.00361
6511.20921	0.00362
6509.28053	0.00363
6507.35185	0.00365
6505.42318	0.00366
6503.49450	0.00365
6501.56583	0.00365
6499.63715	0.00367
6497.70848	0.00368
6495.77980	0.00368
6493.85112	0.00370
6491.92245	0.00372
6489.99377	0.00372
6488.06510	0.00372
6486.13642	0.00372
6484.20775	0.00372
6482.27907	0.00372
6480.35039	0.00373
6478.42172	0.00374
6476.49304	0.00375
6474.56437	0.00377
6472.63569	0.00378
6470.70702	0.00378
6468.77834	0.00378
6466.84966	0.00378
6464.92099	0.00379
6462.99231	0.00380
6461.06364	0.00381
6459.13496	0.00381
6457.20629	0.00383
6455.27761	0.00384
6453.34893	0.00385
6451.42026	0.00385
6449.49158	0.00386
6447.56291	0.00387
6445.63423	0.00388
6443.70556	0.00389
6441.77688	0.00391
6439.84820	0.00393
6437.91953	0.00393
6435.99085	0.00393
6434.06218	0.00394
6432.13350	0.00395
6430.20483	0.00395
6428.27615	0.00394
6426.34747	0.00394
6424.41880	0.00395
6422.49012	0.00397
6420.56145	0.00398
6418.63277	0.00398
6416.70410	0.00399
6414.77542	0.00401
6412.84674	0.00401
6410.91807	0.00402
6408.98939	0.00404
6407.06072	0.00407
6405.13204	0.00407
6403.20337	0.00406
6401.27469	0.00406
6399.34601	0.00406
6397.41734	0.00407
6395.48866	0.00407
6393.55999	0.00407
6391.63131	0.00409
6389.70264	0.00412
6387.77396	0.00413
6385.84528	0.00414
6383.91661	0.00415
6381.98793	0.00417
6380.05926	0.00418
6378.13058	0.00419
6376.20191	0.00420
6374.27323	0.00420
6372.34455	0.00420
6370.41588	0.00421
6368.48720	0.00421
6366.55853	0.00421
6364.62985	0.00421
6362.70118	0.00423
6360.77250	0.00425
6358.84382	0.00427
6356.91515	0.00428
6354.98647	0.00429
6353.05780	0.00428
6351.12912	0.00429
6349.20045	0.00432
6347.27177	0.00434
6345.34309	0.00434
6343.41442	0.00433
6341.48574	0.00433
6339.55707	0.00432
6337.62839	0.00434
6335.69972	0.00437
6333.77104	0.00440
6331.84236	0.00441
6329.91369	0.00440
6327.98501	0.00439
6326.05634	0.00439
6324.12766	0.00440
6322.19899	0.00440
6320.27031	0.00441
6318.34163	0.00444
6316.41296	0.00447
6314.48428	0.00447
6312.55561	0.00447
6310.62693	0.00448
6308.69826	0.00450
6306.76958	0.00451
6304.84090	0.00451
6302.91223	0.00451
6300.98355	0.00452
6299.05488	0.00453
6297.12620	0.00453
6295.19753	0.00454
6293.26885	0.00456
6291.34017	0.00457
6289.41150	0.00458
6287.48282	0.00460
6285.55415	0.00461
6283.62547	0.00461
6281.69680	0.00463
6279.76812	0.00465
6277.83944	0.00466
6275.91077	0.00467
6273.98209	0.00468
6272.05342	0.00469
6270.12474	0.00469
6268.19607	0.00469
6266.26739	0.00469
6264.33871	0.00471
6262.41004	0.00474
6260.48136	0.00476
6258.55269	0.00477
6256.62401	0.00476
6254.69534	0.00474
6252.76666	0.00475
6250.83798	0.00477
6248.90931	0.00480
6246.98063	0.00483
6245.05196	0.00484
6243.12328	0.00483
6241.19461	0.00482
6239.26593	0.00483
6237.33725	0.00486
6235.40858	0.00488
6233.47990	0.00488
6231.55123	0.00487
6229.62255	0.00488
6227.69388	0.00490
6225.76520	0.00492
6223.83652	0.00492
6221.90785	0.00493
6219.97917	0.00494
6218.05050	0.00496
6216.12182	0.00498
6214.19315	0.00499
6212.26447	0.00501
6210.33579	0.00502
6208.40712	0.00504
6206.47844	0.00505
6204.54977	0.00505
6202.62109	0.00503
6200.69242	0.00502
6198.76374	0.00503
6196.83506	0.00505
6194.90639	0.00508
6192.97771	0.00512
6191.04904	0.00514
6189.12036	0.00514
6187.19169	0.00514
6185.26301	0.00516
6183.33433	0.00519
6181.40566	0.00519
6179.47698	0.00519
6177.54831	0.00520
6175.61963	0.00521
6173.69096	0.00522
6171.76228	0.00523
6169.83360	0.00525
6167.90493	0.00525
6165.97625	0.00524
6164.04758	0.00524
6162.11890	0.00525
6160.19023	0.00527
6158.26155	0.00527
6156.33287	0.00529
6154.40420	0.00530
6152.47552	0.00532
6150.54685	0.00533
6148.61817	0.00534
6146.68950	0.00534
6144.76082	0.00535
6142.83214	0.00537
6140.90347	0.00538
6138.97479	0.00538
6137.04612	0.00539
6135.11744	0.00541
6133.18877	0.00543
6131.26009	0.00544
6129.33141	0.00546
6127.40274	0.00548
6125.47406	0.00550
6123.54539	0.00550
6121.61671	0.00550
6119.68804	0.00551
6117.75936	0.00552
6115.83068	0.00553
6113.90201	0.00553
6111.97333	0.00555
6110.04466	0.00557
6108.11598	0.00557
6106.18731	0.00557
6104.25863	0.00559
6102.32995	0.00562
6100.40128	0.00564
6098.47260	0.00565
6096.54393	0.00565
6094.61525	0.00566
6092.68658	0.00568
6090.75790	0.00570
6088.82922	0.00572
6086.90055	0.00572
6084.97187	0.00573
6083.04320	0.00573
6081.11452	0.00574
6079.18585	0.00576
6077.25717	0.00577
6075.32849	0.00576
6073.39982	0.00578
6071.47114	0.00581
6069.54247	0.00582
6067.61379	0.00580
6065.68512	0.00580
6063.75644	0.00582
6061.82776	0.00585
6059.89909	0.00586
6057.97041	0.00588
6056.04174	0.00590
6054.11306	0.00593
6052.18439	0.00594
6050.25571	0.00595
6048.32703	0.00595
6046.39836	0.00596
6044.46968	0.00598
6042.54101	0.00598
6040.61233	0.00599
6038.68366	0.00600
6036.75498	0.00601
6034.82630	0.00603
6032.89763	0.00606
6030.96895	0.00607
6029.04028	0.00607
6027.11160	0.00607
6025.18293	0.00608
6023.25425	0.00611
6021.32557	0.00612
6019.39690	0.00613
6017.46822	0.00615
6015.53955	0.00616
6013.61087	0.00616
6011.68220	0.00617
6009.75352	0.00617
6007.82484	0.00618
6005.89617	0.00621
6003.96749	0.00623
6002.03882	0.00626
6000.11014	0.00627
5998.18147	0.00627
5996.25279	0.00628
5994.32411	0.00630
5992.39544	0.00631
5990.46676	0.00633
5988.53809	0.00633
5986.60941	0.00633
5984.68074	0.00633
5982.75206	0.00634
5980.82338	0.00636
5978.89471	0.00640
5976.96603	0.00643
5975.03736	0.00643
5973.10868	0.00643
5971.18001	0.00645
5969.25133	0.00647
5967.32265	0.00647
5965.39398	0.00645
5963.46530	0.00647
5961.53663	0.00652
5959.60795	0.00655
5957.67928	0.00656
5955.75060	0.00657
5953.82192	0.00659
5951.89325	0.00659
5949.96457	0.00658
5948.03590	0.00658
5946.10722	0.00660
5944.17855	0.00662
5942.24987	0.00663
5940.32119	0.00664
5938.39252	0.00666
5936.46384	0.00669
5934.53517	0.00671
5932.60649	0.00673
5930.67782	0.00673
5928.74914	0.00674
5926.82046	0.00675
5924.89179	0.00676
5922.96311	0.00676
5921.03444	0.00676
5919.10576	0.00677
5917.17709	0.00680
5915.24841	0.00683
5913.31973	0.00685
5911.39106	0.00687
5909.46238	0.00689
5907.53371	0.00690
5905.60503	0.00690
5903.67636	0.00690
5901.74768	0.00691
5899.81900	0.00693
5897.89033	0.00694
5895.96165	0.00697
5894.03298	0.00699
5892.10430	0.00701
5890.17563	0.00703
5888.24695	0.00705
5886.31827	0.00706
5884.38960	0.00706
5882.46092	0.00707
5880.53225	0.00709
5878.60357	0.00711
5876.67490	0.00712
5874.74622	0.00713
5872.81755	0.00716
5870.88887	0.00717
5868.96019	0.00718
5867.03152	0.00720
5865.10284	0.00722
5863.17417	0.00724
5861.24549	0.00724
5859.31682	0.00725
5857.38814	0.00728
5855.45946	0.00731
5853.53079	0.00732
5851.60211	0.00733
5849.67344	0.00736
5847.74476	0.00738
5845.81609	0.00739
5843.88741	0.00738
5841.95873	0.00738
5840.03006	0.00742
5838.10138	0.00746
5836.17271	0.00747
5834.24403	0.00747
5832.31536	0.00748
5830.38668	0.00751
5828.45800	0.00754
5826.52933	0.00754
5824.60065	0.00753
5822.67198	0.00752
5820.74330	0.00754
5818.81463	0.00757
5816.88595	0.00760
5814.95727	0.00762
5813.02860	0.00764
5811.09992	0.00766
5809.17125	0.00767
5807.24257	0.00768
5805.31390	0.00769
5803.38522	0.00770
5801.45654	0.00771
5799.52787	0.00773
5797.59919	0.00776
5795.67052	0.00779
5793.74184	0.00781
5791.81317	0.00781
5789.88449	0.00782
5787.95581	0.00784
5786.02714	0.00786
5784.09846	0.00789
5782.16979	0.00791
5780.24111	0.00791
5778.31244	0.00792
5776.38376	0.00793
5774.45508	0.00794
5772.52641	0.00795
5770.59773	0.00796
5768.66906	0.00798
5766.74038	0.00799
5764.81171	0.00800
5762.88303	0.00801
5760.95435	0.00804
5759.02568	0.00807
5757.09700	0.00809
5755.16833	0.00811
5753.23965	0.00813
5751.31098	0.00813
5749.38230	0.00813
5747.45362	0.00816
5745.52495	0.00818
5743.59627	0.00820
5741.66760	0.00820
5739.73892	0.00820
5737.81025	0.00821
5735.88157	0.00822
5733.95289	0.00825
5732.02422	0.00829
5730.09554	0.00834
5728.16687	0.00836
5726.23819	0.00837
5724.30952	0.00838
5722.38084	0.00838
5720.45216	0.00838
5718.52349	0.00841
5716.59481	0.00845
5714.66614	0.00848
5712.73746	0.00849
5710.80879	0.00849
5708.88011	0.00849
5706.95143	0.00849
5705.02276	0.00850
5703.09408	0.00853
5701.16541	0.00856
5699.23673	0.00857
5697.30806	0.00857
5695.37938	0.00859
5693.45070	0.00861
5691.52203	0.00863
5689.59335	0.00866
5687.66468	0.00869
5685.73600	0.00872
5683.80733	0.00874
5681.87865	0.00875
5679.94997	0.00877
5678.02130	0.00879
5676.09262	0.00881
5674.16395	0.00881
5672.23527	0.00880
5670.30660	0.00880
5668.37792	0.00883
5666.44924	0.00886
5664.52057	0.00888
5662.59189	0.00889
5660.66322	0.00891
5658.73454	0.00895
5656.80587	0.00898
5654.87719	0.00898
5652.94851	0.00898
5651.01984	0.00900
5649.09116	0.00903
5647.16249	0.00905
5645.23381	0.00906
5643.30514	0.00907
5641.37646	0.00909
5639.44778	0.00912
5637.51911	0.00916
5635.59043	0.00917
5633.66176	0.00917
5631.73308	0.00918
5629.80441	0.00921
5627.87573	0.00923
5625.94705	0.00924
5624.01838	0.00926
5622.08970	0.00930
5620.16103	0.00933
5618.23235	0.00935
5616.30368	0.00937
5614.37500	0.00938
5612.44632	0.00939
5610.51765	0.00941
5608.58897	0.00942
5606.66030	0.00942
5604.73162	0.00943
5602.80295	0.00944
5600.87427	0.00946
5598.94559	0.00947
5597.01692	0.00950
5595.08824	0.00954
5593.15957	0.00958
5591.23089	0.00962
5589.30222	0.00964
5587.37354	0.00967
5585.44486	0.00968
5583.51619	0.00968
5581.58751	0.00968
5579.65884	0.00969
5577.73016	0.00969
5575.80149	0.00971
5573.87281	0.00974
5571.94413	0.00975
5570.01546	0.00975
5568.08678	0.00976
5566.15811	0.00978
5564.22943	0.00980
5562.30076	0.00983
5560.37208	0.00985
5558.44340	0.00987
5556.51473	0.00989
5554.58605	0.00992
5552.65738	0.00994
5550.72870	0.00996
5548.80003	0.00998
5546.87135	0.01001
5544.94267	0.01004
5543.01400	0.01004
5541.08532	0.01004
5539.15665	0.01006
5537.22797	0.01010
5535.29930	0.01014
5533.37062	0.01018
5531.44194	0.01017
5529.51327	0.01015
5527.58459	0.01015
5525.65592	0.01018
5523.72724	0.01021
5521.79857	0.01024
5519.86989	0.01028
5517.94121	0.01032
5516.01254	0.01036
5514.08386	0.01036
5512.15519	0.01036
5510.22651	0.01036
5508.29784	0.01038
5506.36916	0.01041
5504.44048	0.01043
5502.51181	0.01044
5500.58313	0.01045
5498.65446	0.01047
5496.72578	0.01049
5494.79711	0.01050
5492.86843	0.01052
5490.93975	0.01054
5489.01108	0.01056
5487.08240	0.01058
5485.15373	0.01063
5483.22505	0.01066
5481.29638	0.01067
5479.36770	0.01070
5477.43902	0.01072
5475.51035	0.01072
5473.58167	0.01072
5471.65300	0.01073
5469.72432	0.01076
5467.79565	0.01080
5465.86697	0.01083
5463.93829	0.01084
5462.00962	0.01086
5460.08094	0.01088
5458.15227	0.01089
5456.22359	0.01091
5454.29492	0.01094
5452.36624	0.01097
5450.43756	0.01098
5448.50889	0.01099
5446.58021	0.01100
5444.65154	0.01103
5442.72286	0.01105
5440.79419	0.01107
5438.86551	0.01109
5436.93683	0.01112
5435.00816	0.01115
5433.07948	0.01116
5431.15081	0.01118
5429.22213	0.01120
5427.29346	0.01123
5425.36478	0.01125
5423.43610	0.01126
5421.50743	0.01127
5419.57875	0.01129
5417.65008	0.01132
5415.72140	0.01136
5413.79273	0.01138
5411.86405	0.01139
5409.93537	0.01142
5408.00670	0.01147
5406.07802	0.01151
5404.14935	0.01152
5402.22067	0.01151
5400.29200	0.01151
5398.36332	0.01152
5396.43464	0.01154
5394.50597	0.01158
5392.57729	0.01160
5390.64862	0.01160
5388.71994	0.01161
5386.79127	0.01163
5384.86259	0.01166
5382.93391	0.01169
5381.00524	0.01173
5379.07656	0.01174
5377.14789	0.01175
5375.21921	0.01176
5373.29054	0.01179
5371.36186	0.01181
5369.43318	0.01184
5367.50451	0.01187
5365.57583	0.01192
5363.64716	0.01196
5361.71848	0.01200
5359.78981	0.01203
5357.86113	0.01203
5355.93245	0.01202
5354.00378	0.01201
5352.07510	0.01202
5350.14643	0.01208
5348.21775	0.01212
5346.28908	0.01213
5344.36040	0.01215
5342.43172	0.01218
5340.50305	0.01220
5338.57437	0.01221
5336.64570	0.01223
5334.71702	0.01227
5332.78835	0.01230
5330.85967	0.01232
5328.93099	0.01234
5327.00232	0.01236
5325.07364	0.01238
5323.14497	0.01240
5321.21629	0.01242
5319.28762	0.01243
5317.35894	0.01245
5315.43026	0.01248
5313.50159	0.01250
5311.57291	0.01252
5309.64424	0.01254
5307.71556	0.01257
5305.78689	0.01259
5303.85821	0.01261
5301.92953	0.01262
5300.00086	0.01264
5298.07218	0.01268
5296.14351	0.01271
5294.21483	0.01274
5292.28616	0.01276
5290.35748	0.01280
5288.42880	0.01284
5286.50013	0.01286
5284.57145	0.01288
5282.64278	0.01289
5280.71410	0.01289
5278.78543	0.01289
5276.85675	0.01291
5274.92807	0.01293
5272.99940	0.01294
5271.07072	0.01298
5269.14205	0.01301
5267.21337	0.01303
5265.28470	0.01306
5263.35602	0.01310
5261.42734	0.01313
5259.49867	0.01315
5257.56999	0.01315
5255.64132	0.01316
5253.71264	0.01319
5251.78397	0.01321
5249.85529	0.01322
5247.92661	0.01323
5245.99794	0.01326
5244.06926	0.01330
5242.14059	0.01335
5240.21191	0.01338
5238.28324	0.01339
5236.35456	0.01340
5234.42588	0.01342
5232.49721	0.01344
5230.56853	0.01347
5228.63986	0.01350
5226.71118	0.01352
5224.78251	0.01353
5222.85383	0.01354
5220.92515	0.01358
5218.99648	0.01363
5217.06780	0.01367
5215.13913	0.01370
5213.21045	0.01372
5211.28178	0.01372
5209.35310	0.01372
5207.42442	0.01373
5205.49575	0.01377
5203.56707	0.01383
5201.63840	0.01386
5199.70972	0.01386
5197.78105	0.01387
5195.85237	0.01391
5193.92369	0.01395
5191.99502	0.01397
5190.06634	0.01399
5188.13767	0.01400
5186.20899	0.01401
5184.28032	0.01403
5182.35164	0.01406
5180.42296	0.01409
5178.49429	0.01412
5176.56561	0.01414
5174.63694	0.01418
5172.70826	0.01421
5170.77959	0.01423
5168.85091	0.01424
5166.92223	0.01425
5164.99356	0.01426
5163.06488	0.01428
5161.13621	0.01431
5159.20753	0.01434
5157.27886	0.01436
5155.35018	0.01439
5153.42150	0.01444
5151.49283	0.01448
5149.56415	0.01452
5147.63548	0.01455
5145.70680	0.01457
5143.77813	0.01459
5141.84945	0.01460
5139.92077	0.01462
5137.99210	0.01465
5136.06342	0.01466
5134.13475	0.01467
5132.20607	0.01468
5130.27740	0.01469
5128.34872	0.01472
5126.42004	0.01476
5124.49137	0.01480
5122.56269	0.01484
5120.63402	0.01487
5118.70534	0.01488
5116.77667	0.01489
5114.84799	0.01492
5112.91931	0.01496
5110.99064	0.01500
5109.06196	0.01503
5107.13329	0.01506
5105.20461	0.01508
5103.27594	0.01509
5101.34726	0.01510
5099.41858	0.01513
5097.48991	0.01514
5095.56123	0.01516
5093.63256	0.01518
5091.70388	0.01522
5089.77521	0.01524
5087.84653	0.01526
5085.91785	0.01528
5083.98918	0.01530
5082.06050	0.01532
5080.13183	0.01534
5078.20315	0.01537
5076.27448	0.01540
5074.34580	0.01543
5072.41712	0.01545
5070.48845	0.01549
5068.55977	0.01554
5066.63110	0.01557
5064.70242	0.01559
5062.77375	0.01561
5060.84507	0.01563
5058.91639	0.01565
5056.98772	0.01568
5055.05904	0.01569
5053.13037	0.01570
5051.20169	0.01572
5049.27302	0.01577
5047.34434	0.01582
5045.41566	0.01586
5043.48699	0.01587
5041.55831	0.01587
5039.62964	0.01588
5037.70096	0.01591
5035.77229	0.01596
5033.84361	0.01600
5031.91493	0.01603
5029.98626	0.01607
5028.05758	0.01611
5026.12891	0.01613
5024.20023	0.01616
5022.27156	0.01621
5020.34288	0.01623
5018.41420	0.01624
5016.48553	0.01624
5014.55685	0.01628
5012.62818	0.01630
5010.69950	0.01630
5008.77083	0.01632
5006.84215	0.01636
5004.91347	0.01640
5002.98480	0.01642
5001.05612	0.01645
4999.12745	0.01650
4997.19877	0.01653
4995.27010	0.01654
4993.34142	0.01654
4991.41274	0.01655
4989.48407	0.01658
4987.55539	0.01663
4985.62672	0.01668
4983.69804	0.01670
4981.76937	0.01669
4979.84069	0.01671
4977.91201	0.01675
4975.98334	0.01681
4974.05466	0.01686
4972.12599	0.01688
4970.19731	0.01688
4968.26864	0.01688
4966.33996	0.01689
4964.41128	0.01692
4962.48261	0.01696
4960.55393	0.01699
4958.62526	0.01702
4956.69658	0.01706
4954.76791	0.01710
4952.83923	0.01711
4950.91055	0.01711
4948.98188	0.01712
4947.05320	0.01715
4945.12453	0.01719
4943.19585	0.01724
4941.26718	0.01728
4939.33850	0.01730
4937.40982	0.01732
4935.48115	0.01736
4933.55247	0.01739
4931.62380	0.01742
4929.69512	0.01745
4927.76645	0.01747
4925.83777	0.01748
4923.90909	0.01752
4921.98042	0.01755
4920.05174	0.01757
4918.12307	0.01759
4916.19439	0.01761
4914.26572	0.01765
4912.33704	0.01770
4910.40836	0.01771
4908.47969	0.01773
4906.55101	0.01775
4904.62234	0.01779
4902.69366	0.01783
4900.76499	0.01788
4898.83631	0.01791
4896.90763	0.01790
4894.97896	0.01792
4893.05028	0.01796
4891.12161	0.01800
4889.19293	0.01803
4887.26426	0.01805
4885.33558	0.01809
4883.40690	0.01811
4881.47823	0.01814
4879.54955	0.01816
4877.62088	0.01819
4875.69220	0.01823
4873.76353	0.01827
4871.83485	0.01830
4869.90617	0.01832
4867.97750	0.01834
4866.04882	0.01836
4864.12015	0.01838
4862.19147	0.01842
4860.26280	0.01846
4858.33412	0.01848
4856.40544	0.01849
4854.47677	0.01849
4852.54809	0.01851
4850.61942	0.01854
4848.69074	0.01858
4846.76207	0.01861
4844.83339	0.01863
4842.90471	0.01867
4840.97604	0.01872
4839.04736	0.01875
4837.11869	0.01877
4835.19001	0.01882
4833.26134	0.01887
4831.33266	0.01892
4829.40398	0.01895
4827.47531	0.01895
4825.54663	0.01893
4823.61796	0.01896
4821.68928	0.01902
4819.76061	0.01908
4817.83193	0.01911
4815.90325	0.01911
4813.97458	0.01912
4812.04590	0.01915
4810.11723	0.01920
4808.18855	0.01926
4806.25988	0.01930
4804.33120	0.01932
4802.40252	0.01935
4800.47385	0.01937
4798.54517	0.01938
4796.61650	0.01943
4794.68782	0.01948
4792.75915	0.01951
4790.83047	0.01952
4788.90179	0.01954
4786.97312	0.01957
4785.04444	0.01960
4783.11577	0.01963
4781.18709	0.01967
4779.25842	0.01972
4777.32974	0.01975
4775.40106	0.01977
4773.47239	0.01980
4771.54371	0.01983
4769.61504	0.01986
4767.68636	0.01991
4765.75769	0.01996
4763.82901	0.02001
4761.90033	0.02004
4759.97166	0.02004
4758.04298	0.02007
4756.11431	0.02011
4754.18563	0.02016
4752.25696	0.02019
4750.32828	0.02020
4748.39960	0.02022
4746.47093	0.02024
4744.54225	0.02025
4742.61358	0.02028
4740.68490	0.02033
4738.75623	0.02037
4736.82755	0.02041
4734.89887	0.02044
4732.97020	0.02047
4731.04152	0.02051
4729.11285	0.02053
4727.18417	0.02054
4725.25550	0.02058
4723.32682	0.02062
4721.39814	0.02065
4719.46947	0.02068
4717.54079	0.02072
4715.61212	0.02077
4713.68344	0.02081
4711.75477	0.02085
4709.82609	0.02089
4707.89741	0.02093
4705.96874	0.02096
4704.04006	0.02099
4702.11139	0.02102
4700.18271	0.02105
4698.25404	0.02105
4696.32536	0.02107
4694.39668	0.02114
4692.46801	0.02121
4690.53933	0.02125
4688.61066	0.02126
4686.68198	0.02127
4684.75331	0.02132
4682.82463	0.02136
4680.89595	0.02138
4678.96728	0.02140
4677.03860	0.02142
4675.10993	0.02146
4673.18125	0.02150
4671.25258	0.02154
4669.32390	0.02157
4667.39522	0.02161
4665.46655	0.02163
4663.53787	0.02163
4661.60920	0.02165
4659.68052	0.02169
4657.75185	0.02174
4655.82317	0.02180
4653.89449	0.02186
4651.96582	0.02190
4650.03714	0.02194
4648.10847	0.02198
4646.17979	0.02203
4644.25112	0.02204
4642.32244	0.02204
4640.39376	0.02206
4638.46509	0.02210
4636.53641	0.02214
4634.60774	0.02217
4632.67906	0.02219
4630.75039	0.02222
4628.82171	0.02226
4626.89303	0.02232
4624.96436	0.02238
4623.03568	0.02243
4621.10701	0.02245
4619.17833	0.02249
4617.24966	0.02255
4615.32098	0.02262
4613.39230	0.02266
4611.46363	0.02269
4609.53495	0.02271
4607.60628	0.02272
4605.67760	0.02273
4603.74893	0.02276
4601.82025	0.02282
4599.89157	0.02287
4597.96290	0.02291
4596.03422	0.02294
4594.10555	0.02297
4592.17687	0.02301
4590.24820	0.02305
4588.31952	0.02308
4586.39084	0.02311
4584.46217	0.02316
4582.53349	0.02322
4580.60482	0.02327
4578.67614	0.02331
4576.74747	0.02332
4574.81879	0.02334
4572.89011	0.02337
4570.96144	0.02341
4569.03276	0.02345
4567.10409	0.02350
4565.17541	0.02356
4563.24674	0.02361
4561.31806	0.02367
4559.38938	0.02371
4557.46071	0.02375
4555.53203	0.02376
4553.60336	0.02377
4551.67468	0.02381
4549.74601	0.02385
4547.81733	0.02387
4545.88865	0.02389
4543.95998	0.02393
4542.03130	0.02398
4540.10263	0.02403
4538.17395	0.02407
4536.24528	0.02412
4534.31660	0.02415
4532.38792	0.02418
4530.45925	0.02421
4528.53057	0.02425
4526.60190	0.02428
4524.67322	0.02431
4522.74455	0.02436
4520.81587	0.02443
4518.88719	0.02449
4516.95852	0.02453
4515.02984	0.02458
4513.10117	0.02464
4511.17249	0.02468
4509.24382	0.02472
4507.31514	0.02476
4505.38646	0.02479
4503.45779	0.02485
4501.52911	0.02492
4499.60044	0.02496
4497.67176	0.02499
4495.74309	0.02505
4493.81441	0.02510
4491.88573	0.02513
4489.95706	0.02515
4488.02838	0.02518
4486.09971	0.02521
4484.17103	0.02524
4482.24236	0.02529
4480.31368	0.02534
4478.38500	0.02537
4476.45633	0.02538
4474.52765	0.02541
4472.59898	0.02546
4470.67030	0.02553
4468.74163	0.02561
4466.81295	0.02568
4464.88427	0.02572
4462.95560	0.02573
4461.02692	0.02576
4459.09825	0.02581
4457.16957	0.02587
4455.24090	0.02591
4453.31222	0.02594
4451.38354	0.02598
4449.45487	0.02603
4447.52619	0.02608
4445.59752	0.02612
4443.66884	0.02616
4441.74017	0.02620
4439.81149	0.02624
4437.88281	0.02628
4435.95414	0.02634
4434.02546	0.02639
4432.09679	0.02643
4430.16811	0.02647
4428.23944	0.02650
4426.31076	0.02655
4424.38208	0.02661
4422.45341	0.02665
4420.52473	0.02670
4418.59606	0.02675
4416.66738	0.02680
4414.73871	0.02686
4412.81003	0.02692
4410.88135	0.02698
4408.95268	0.02703
4407.02400	0.02707
4405.09533	0.02709
4403.16665	0.02710
4401.23798	0.02714
4399.30930	0.02718
4397.38062	0.02722
4395.45195	0.02727
4393.52327	0.02733
4391.59460	0.02740
4389.66592	0.02744
4387.73725	0.02748
4385.80857	0.02753
4383.87989	0.02758
4381.95122	0.02762
4380.02254	0.02766
4378.09387	0.02771
4376.16519	0.02778
4374.23652	0.02785
4372.30784	0.02791
4370.37916	0.02795
4368.45049	0.02800
4366.52181	0.02805
4364.59314	0.02809
4362.66446	0.02812
4360.73579	0.02818
4358.80711	0.02824
4356.87843	0.02829
4354.94976	0.02832
4353.02108	0.02835
4351.09241	0.02839
4349.16373	0.02845
4347.23506	0.02853
4345.30638	0.02861
4343.37770	0.02866
4341.44903	0.02869
4339.52035	0.02873
4337.59168	0.02877
4335.66300	0.02883
4333.73433	0.02890
4331.80565	0.02897
4329.87697	0.02903
4327.94830	0.02907
4326.01962	0.02911
4324.09095	0.02916
4322.16227	0.02924
4320.23360	0.02932
4318.30492	0.02935
4316.37624	0.02935
4314.44757	0.02939
4312.51889	0.02945
4310.59022	0.02951
4308.66154	0.02959
4306.73287	0.02966
4304.80419	0.02972
4302.87551	0.02976
4300.94684	0.02980
4299.01816	0.02985
4297.08949	0.02990
4295.16081	0.02996
4293.23214	0.03002
4291.30346	0.03008
4289.37478	0.03012
4287.44611	0.03015
4285.51743	0.03021
4283.58876	0.03029
4281.66008	0.03036
4279.73141	0.03040
4277.80273	0.03045
4275.87405	0.03050
4273.94538	0.03056
4272.01670	0.03061
4270.08803	0.03064
4268.15935	0.03068
4266.23068	0.03075
4264.30200	0.03083
4262.37332	0.03087
4260.44465	0.03090
4258.51597	0.03093
4256.58730	0.03097
4254.65862	0.03104
4252.72995	0.03113
4250.80127	0.03122
4248.87259	0.03127
4246.94392	0.03131
4245.01524	0.03136
4243.08657	0.03142
4241.15789	0.03147
4239.22922	0.03152
4237.30054	0.03159
4235.37186	0.03166
4233.44319	0.03172
4231.51451	0.03179
4229.58584	0.03186
4227.65716	0.03192
4225.72849	0.03197
4223.79981	0.03202
4221.87113	0.03208
4219.94246	0.03215
4218.01378	0.03221
4216.08511	0.03226
4214.15643	0.03231
4212.22776	0.03237
4210.29908	0.03243
4208.37040	0.03249
4206.44173	0.03253
4204.51305	0.03259
4202.58438	0.03265
4200.65570	0.03272
4198.72703	0.03279
4196.79835	0.03286
4194.86968	0.03292
4192.94100	0.03298
4191.01232	0.03305
4189.08365	0.03310
4187.15497	0.03315
4185.22630	0.03321
4183.29762	0.03326
4181.36895	0.03330
4179.44027	0.03337
4177.51159	0.03345
4175.58292	0.03353
4173.65424	0.03357
4171.72557	0.03361
4169.79689	0.03365
4167.86822	0.03372
4165.93954	0.03380
4164.01086	0.03387
4162.08219	0.03396
4160.15351	0.03404
4158.22484	0.03408
4156.29616	0.03410
4154.36749	0.03416
4152.43881	0.03426
4150.51013	0.03434
4148.58146	0.03438
4146.65278	0.03445
4144.72411	0.03452
4142.79543	0.03458
4140.86676	0.03464
4138.93808	0.03471
4137.00940	0.03478
4135.08073	0.03485
4133.15205	0.03493
4131.22338	0.03498
4129.29470	0.03502
4127.36603	0.03507
4125.43735	0.03513
4123.50867	0.03521
4121.58000	0.03530
4119.65132	0.03538
4117.72265	0.03545
4115.79397	0.03552
4113.86530	0.03559
4111.93662	0.03566
4110.00794	0.03573
4108.07927	0.03581
4106.15059	0.03587
4104.22192	0.03592
4102.29324	0.03596
4100.36457	0.03601
4098.43589	0.03608
4096.50721	0.03613
4094.57854	0.03621
4092.64986	0.03632
4090.72119	0.03642
4088.79251	0.03647
4086.86384	0.03651
4084.93516	0.03659
4083.00648	0.03666
4081.07781	0.03672
4079.14913	0.03679
4077.22046	0.03684
4075.29178	0.03689
4073.36311	0.03696
4071.43443	0.03705
4069.50575	0.03712
4067.57708	0.03718
4065.64840	0.03727
4063.71973	0.03738
4061.79105	0.03747
4059.86238	0.03754
4057.93370	0.03759
4056.00502	0.03763
4054.07635	0.03768
4052.14767	0.03773
4050.21900	0.03780
4048.29032	0.03787
4046.36165	0.03796
4044.43297	0.03805
4042.50429	0.03813
4040.57562	0.03819
4038.64694	0.03824
4036.71827	0.03829
4034.78959	0.03835
4032.86092	0.03842
4030.93224	0.03853
4029.00356	0.03863
4027.07489	0.03870
4025.14621	0.03876
4023.21754	0.03884
4021.28886	0.03891
4019.36019	0.03897
4017.43151	0.03902
4015.50283	0.03909
4013.57416	0.03917
4011.64548	0.03925
4009.71681	0.03935
4007.78813	0.03944
4005.85946	0.03951
4003.93078	0.03957
4002.00210	0.03963
4000.07343	0.03970
3998.14475	0.03978
3996.21608	0.03986
3994.28740	0.03993
3992.35873	0.04001
3990.43005	0.04009
3988.50137	0.04019
3986.57270	0.04030
3984.64402	0.04040
3982.71535	0.04045
3980.78667	0.04049
3978.85800	0.04055
3976.92932	0.04062
3975.00064	0.04069
3973.07197	0.04076
3971.14329	0.04083
3969.21462	0.04091
3967.28594	0.04099
3965.35727	0.04107
3963.42859	0.04117
3961.49991	0.04126
3959.57124	0.04133
3957.64256	0.04138
3955.71389	0.04143
3953.78521	0.04147
3951.85654	0.04153
3949.92786	0.04163
3947.99918	0.04174
3946.07051	0.04182
3944.14183	0.04187
3942.21316	0.04192
3940.28448	0.04201
3938.35581	0.04212
3936.42713	0.04222
3934.49845	0.04229
3932.56978	0.04234
3930.64110	0.04241
3928.71243	0.04252
3926.78375	0.04260
3924.85508	0.04267
3922.92640	0.04274
3920.99772	0.04278
3919.06905	0.04281
3917.14037	0.04287
3915.21170	0.04299
3913.28302	0.04312
3911.35435	0.04322
3909.42567	0.04330
3907.49699	0.04333
3905.56832	0.04327
3903.63964	0.04324
3901.71097	0.04331
3899.78229	0.04349
3897.85362	0.04370
3895.92494	0.04385
3893.99626	0.04391
3892.06759	0.04395
3890.13891	0.04403
3888.21024	0.04409
3886.28156	0.04410
3884.35289	0.04418
3882.42421	0.04431
3880.49553	0.04442
3878.56686	0.04454
3876.63818	0.04463
3874.70951	0.04467
3872.78083	0.04472
3870.85216	0.04479
3868.92348	0.04489
3866.99480	0.04498
3865.06613	0.04504
3863.13745	0.04515
3861.20878	0.04532
3859.28010	0.04544
3857.35143	0.04541
3855.42275	0.04526
3853.49407	0.04520
3851.56540	0.04543
3849.63672	0.04576
3847.70805	0.04595
3845.77937	0.04601
3843.85070	0.04604
3841.92202	0.04604
3839.99334	0.04600
3838.06467	0.04602
3836.13599	0.04621
3834.20732	0.04645
3832.27864	0.04661
3830.34997	0.04671
3828.42129	0.04677
3826.49261	0.04683
3824.56394	0.04687
3822.63526	0.04689
3820.70659	0.04698
3818.77791	0.04712
3816.84924	0.04722
3814.92056	0.04737
3812.99188	0.04758
3811.06321	0.04770
3809.13453	0.04766
3807.20586	0.04763
3805.27718	0.04774
3803.34851	0.04785
3801.41983	0.04790
3799.49115	0.04798
3797.56248	0.04809
3795.63380	0.04825
3793.70513	0.04845
3791.77645	0.04860
3789.84778	0.04869
3787.91910	0.04873
3785.99042	0.04876
3784.06175	0.04885
3782.13307	0.04894
3780.20440	0.04899
3778.27572	0.04909
3776.34705	0.04925
3774.41837	0.04936
3772.48969	0.04936
3770.56102	0.04932
3768.63234	0.04940
3766.70367	0.04955
3764.77499	0.04971
3762.84632	0.04983
3760.91764	0.04988
3758.98896	0.04992
3757.06029	0.05003
3755.13161	0.05009
3753.20294	0.05005
3751.27426	0.05005
3749.34559	0.05015
3747.41691	0.05016
3745.48823	0.05005
3743.55956	0.05016
3741.63088	0.05051
3739.70221	0.05070
3737.77353	0.05062
3735.84486	0.05058
3733.91618	0.05070
3731.98750	0.05093
3730.05883	0.05119
3728.13015	0.05136
3726.20148	0.05141
3724.27280	0.05150
3722.34413	0.05164
3720.41545	0.05178
3718.48677	0.05192
3716.55810	0.05202
3714.62942	0.05204
3712.70075	0.05201
3710.77207	0.05203
3708.84340	0.05219
3706.91472	0.05242
3704.98604	0.05253
3703.05737	0.05251
3701.12869	0.05257
3699.20002	0.05276
3697.27134	0.05293
3695.34267	0.05299
3693.41399	0.05294
3691.48531	0.05289
3689.55664	0.05299
3687.62796	0.05321
3685.69929	0.05345
3683.77061	0.05361
3681.84194	0.05364
3679.91326	0.05357
3677.98458	0.05344
3676.05591	0.05340
3674.12723	0.05359
3672.19856	0.05381
3670.26988	0.05390
3668.34121	0.05403
3666.41253	0.05427
3664.48385	0.05446
3662.55518	0.05456
3660.62650	0.05461
3658.69783	0.05460
3656.76915	0.05461
3654.84048	0.05470
3652.91180	0.05471
3650.98312	0.05453
3649.05445	0.05443
3647.12577	0.05461
3645.19710	0.05494
3643.26842	0.05521
3641.33975	0.05537
3639.41107	0.05546
3637.48239	0.05552
3635.55372	0.05557
3633.62504	0.05558
3631.69637	0.05553
3629.76769	0.05553
3627.83902	0.05569
3625.91034	0.05594
3623.98166	0.05607
3622.05299	0.05603
3620.12431	0.05596
3618.19564	0.05603
3616.26696	0.05617
3614.33829	0.05622
3612.40961	0.05624
3610.48093	0.05629
3608.55226	0.05639
3606.62358	0.05655
3604.69491	0.05669
3602.76623	0.05673
3600.83756	0.05678
3598.90888	0.05687
3596.98020	0.05692
3595.05153	0.05697
3593.12285	0.05706
3591.19418	0.05710
3589.26550	0.05704
3587.33683	0.05708
3585.40815	0.05728
3583.47947	0.05749
3581.55080	0.05760
3579.62212	0.05767
3577.69345	0.05773
3575.76477	0.05780
3573.83610	0.05788
3571.90742	0.05793
3569.97874	0.05789
3568.05007	0.05781
3566.12139	0.05787
3564.19272	0.05808
3562.26404	0.05826
3560.33537	0.05837
3558.40669	0.05845
3556.47801	0.05853
3554.54934	0.05858
3552.62066	0.05862
3550.69199	0.05868
3548.76331	0.05874
3546.83464	0.05878
3544.90596	0.05883
3542.97728	0.05893
3541.04861	0.05906
3539.11993	0.05913
3537.19126	0.05916
3535.26258	0.05921
3533.33391	0.05929
3531.40523	0.05936
3529.47655	0.05938
3527.54788	0.05939
3525.61920	0.05941
3523.69053	0.05947
3521.76185	0.05955
3519.83318	0.05961
3517.90450	0.05965
3515.97582	0.05969
3514.04715	0.05972
3512.11847	0.05973
3510.18980	0.05974
3508.26112	0.05978
3506.33245	0.05984
3504.40377	0.05987
3502.47509	0.05989
3500.54642	0.05992
3498.61774	0.05995
3496.68907	0.06000
3494.76039	0.06005
3492.83172	0.06010
3490.90304	0.06013
3488.97436	0.06015
3487.04569	0.06017
3485.11701	0.06016
3483.18834	0.06016
3481.25966	0.06019
3479.33099	0.06025
3477.40231	0.06033
3475.47363	0.06041
3473.54496	0.06049
3471.61628	0.06057
3469.68761	0.06068
3467.75893	0.06078
3465.83026	0.06087
3463.90158	0.06096
3461.97290	0.06107
3460.04423	0.06117
3458.11555	0.06127
3456.18688	0.06136
3454.25820	0.06144
3452.32953	0.06152
3450.40085	0.06160
3448.47217	0.06167
3446.54350	0.06177
3444.61482	0.06189
3442.68615	0.06202
3440.75747	0.06216
3438.82880	0.06230
3436.90012	0.06244
3434.97144	0.06262
3433.04277	0.06283
3431.11409	0.06305
3429.18542	0.06325
3427.25674	0.06344
3425.32807	0.06363
3423.39939	0.06382
3421.47071	0.06403
3419.54204	0.06421
3417.61336	0.06437
3415.68469	0.06452
3413.75601	0.06468
3411.82734	0.06485
3409.89866	0.06500
3407.96998	0.06510
3406.04131	0.06519
3404.11263	0.06531
3402.18396	0.06546
3400.25528	0.06561
3398.32661	0.06575
3396.39793	0.06586
3394.46925	0.06598
3392.54058	0.06612
3390.61190	0.06626
3388.68323	0.06640
3386.75455	0.06651
3384.82588	0.06662
3382.89720	0.06677
3380.96852	0.06694
3379.03985	0.06708
3377.11117	0.06720
3375.18250	0.06731
3373.25382	0.06743
3371.32515	0.06756
3369.39647	0.06769
3367.46779	0.06782
3365.53912	0.06795
3363.61044	0.06809
3361.68177	0.06823
3359.75309	0.06833
3357.82442	0.06844
3355.89574	0.06856
3353.96706	0.06868
3352.03839	0.06880
3350.10971	0.06892
3348.18104	0.06904
3346.25236	0.06912
3344.32369	0.06922
3342.39501	0.06938
3340.46633	0.06954
3338.53766	0.06967
3336.60898	0.06977
3334.68031	0.06989
3332.75163	0.07002
3330.82296	0.07015
3328.89428	0.07026
3326.96560	0.07038
3325.03693	0.07051
3323.10825	0.07063
3321.17958	0.07074
3319.25090	0.07089
3317.32223	0.07106
3315.39355	0.07119
3313.46487	0.07129
3311.53620	0.07142
3309.60752	0.07155
3307.67885	0.07168
3305.75017	0.07181
3303.82150	0.07196
3301.89282	0.07211
3299.96414	0.07221
3298.03547	0.07228
3296.10679	0.07238
3294.17812	0.07249
3292.24944	0.07263
3290.32077	0.07280
3288.39209	0.07297
3286.46341	0.07310
3284.53474	0.07321
3282.60606	0.07335
3280.67739	0.07351
3278.74871	0.07367
3276.82004	0.07378
3274.89136	0.07387
3272.96268	0.07399
3271.03401	0.07415
3269.10533	0.07430
3267.17666	0.07441
3265.24798	0.07452
3263.31931	0.07465
3261.39063	0.07480
3259.46195	0.07495
3257.53328	0.07512
3255.60460	0.07528
3253.67593	0.07542
3251.74725	0.07555
3249.81858	0.07566
3247.88990	0.07578
3245.96122	0.07592
3244.03255	0.07606
3242.10387	0.07618
3240.17520	0.07630
3238.24652	0.07646
3236.31785	0.07664
3234.38917	0.07679
3232.46049	0.07690
3230.53182	0.07701
3228.60314	0.07712
3226.67447	0.07724
3224.74579	0.07736
3222.81712	0.07747
3220.88844	0.07759
3218.95976	0.07776
3217.03109	0.07793
3215.10241	0.07808
3213.17374	0.07822
3211.24506	0.07834
3209.31639	0.07847
3207.38771	0.07862
3205.45903	0.07874
3203.53036	0.07886
3201.60168	0.07901
3199.67301	0.07916
3197.74433	0.07929
3195.81566	0.07945
3193.88698	0.07961
3191.95830	0.07976
3190.02963	0.07990
3188.10095	0.08004
3186.17228	0.08020
3184.24360	0.08035
3182.31493	0.08046
3180.38625	0.08058
3178.45757	0.08071
3176.52890	0.08086
3174.60022	0.08102
3172.67155	0.08116
3170.74287	0.08129
3168.81420	0.08142
3166.88552	0.08158
3164.95684	0.08173
3163.02817	0.08187
3161.09949	0.08202
3159.17082	0.08218
3157.24214	0.08233
3155.31347	0.08247
3153.38479	0.08261
3151.45611	0.08276
3149.52744	0.08289
3147.59876	0.08300
3145.67009	0.08311
3143.74141	0.08322
3141.81274	0.08335
3139.88406	0.08350
3137.95538	0.08364
3136.02671	0.08378
3134.09803	0.08392
3132.16936	0.08407
3130.24068	0.08422
3128.31201	0.08438
3126.38333	0.08454
3124.45465	0.08468
3122.52598	0.08481
3120.59730	0.08495
3118.66863	0.08510
3116.73995	0.08527
3114.81128	0.08543
3112.88260	0.08555
3110.95392	0.08565
3109.02525	0.08573
3107.09657	0.08583
3105.16790	0.08598
3103.23922	0.08612
3101.31055	0.08627
3099.38187	0.08643
3097.45319	0.08662
3095.52452	0.08677
3093.59584	0.08688
3091.66717	0.08701
3089.73849	0.08718
3087.80982	0.08739
3085.88114	0.08755
3083.95246	0.08763
3082.02379	0.08770
3080.09511	0.08781
3078.16644	0.08795
3076.23776	0.08807
3074.30909	0.08821
3072.38041	0.08837
3070.45173	0.08852
3068.52306	0.08866
3066.59438	0.08882
3064.66571	0.08896
3062.73703	0.08909
3060.80836	0.08919
3058.87968	0.08928
3056.95100	0.08945
3055.02233	0.08967
3053.09365	0.08987
3051.16498	0.09000
3049.23630	0.09010
3047.30763	0.09022
3045.37895	0.09035
3043.45027	0.09047
3041.52160	0.09062
3039.59292	0.09078
3037.66425	0.09094
3035.73557	0.09108
3033.80690	0.09120
3031.87822	0.09133
3029.94954	0.09147
3028.02087	0.09162
3026.09219	0.09177
3024.16352	0.09191
3022.23484	0.09205
3020.30617	0.09217
3018.37749	0.09225
3016.44881	0.09234
3014.52014	0.09248
3012.59146	0.09265
3010.66279	0.09282
3008.73411	0.09297
3006.80544	0.09311
3004.87676	0.09324
3002.94808	0.09337
3001.01941	0.09350
2999.09073	0.09363
2997.16206	0.09375
2995.23338	0.09387
2993.30471	0.09402
2991.37603	0.09420
2989.44735	0.09432
2987.51868	0.09438
2985.59000	0.09444
2983.66133	0.09451
2981.73265	0.09459
2979.80398	0.09466
2977.87530	0.09470
2975.94662	0.09473
2974.01795	0.09476
2972.08927	0.09475
2970.16060	0.09473
2968.23192	0.09470
2966.30325	0.09469
2964.37457	0.09476
2962.44589	0.09489
2960.51722	0.09502
2958.58854	0.09515
2956.65987	0.09531
2954.73119	0.09552
2952.80252	0.09573
2950.87384	0.09593
2948.94516	0.09611
2947.01649	0.09624
2945.08781	0.09631
2943.15914	0.09634
2941.23046	0.09637
2939.30179	0.09639
2937.37311	0.09636
2935.44443	0.09632
2933.51576	0.09627
2931.58708	0.09625
2929.65841	0.09625
2927.72973	0.09625
2925.80106	0.09622
2923.87238	0.09620
2921.94370	0.09623
2920.01503	0.09631
2918.08635	0.09647
2916.15768	0.09677
2914.22900	0.09721
2912.30033	0.09768
2910.37165	0.09810
2908.44297	0.09847
2906.51430	0.09880
2904.58562	0.09906
2902.65695	0.09925
2900.72827	0.09942
2898.79960	0.09961
2896.87092	0.09985
2894.94224	0.10011
2893.01357	0.10034
2891.08489	0.10054
2889.15622	0.10072
2887.22754	0.10087
2885.29887	0.10104
2883.37019	0.10123
2881.44151	0.10139
2879.51284	0.10153
2877.58416	0.10165
2875.65549	0.10177
2873.72681	0.10189
2871.79814	0.10201
2869.86946	0.10212
2867.94078	0.10222
2866.01211	0.10231
2864.08343	0.10240
2862.15476	0.10249
2860.22608	0.10255
2858.29741	0.10259
2856.36873	0.10260
2854.44005	0.10257
2852.51138	0.10255
2850.58270	0.10264
2848.65403	0.10291
2846.72535	0.10336
2844.79668	0.10384
2842.86800	0.10425
2840.93932	0.10459
2839.01065	0.10488
2837.08197	0.10512
2835.15330	0.10533
2833.22462	0.10551
2831.29595	0.10568
2829.36727	0.10585
2827.43859	0.10601
2825.50992	0.10617
2823.58124	0.10637
2821.65257	0.10659
2819.72389	0.10678
2817.79522	0.10693
2815.86654	0.10708
2813.93786	0.10722
2812.00919	0.10735
2810.08051	0.10749
2808.15184	0.10764
2806.22316	0.10781
2804.29449	0.10798
2802.36581	0.10815
2800.43713	0.10831
2798.50846	0.10843
2796.57978	0.10854
2794.65111	0.10869
2792.72243	0.10887
2790.79376	0.10904
2788.86508	0.10917
2786.93640	0.10932
2785.00773	0.10950
2783.07905	0.10966
2781.15038	0.10980
2779.22170	0.10995
2777.29303	0.11011
2775.36435	0.11025
2773.43567	0.11038
2771.50700	0.11052
2769.57832	0.11068
2767.64965	0.11085
2765.72097	0.11099
2763.79230	0.11110
2761.86362	0.11123
2759.93494	0.11139
2758.00627	0.11159
2756.07759	0.11179
2754.14892	0.11194
2752.22024	0.11204
2750.29157	0.11215
2748.36289	0.11229
2746.43421	0.11243
2744.50554	0.11260
2742.57686	0.11277
2740.64819	0.11292
2738.71951	0.11304
2736.79084	0.11316
2734.86216	0.11331
2732.93348	0.11348
2731.00481	0.11364
2729.07613	0.11379
2727.14746	0.11394
2725.21878	0.11410
2723.29011	0.11424
2721.36143	0.11434
2719.43275	0.11445
2717.50408	0.11463
2715.57540	0.11481
2713.64673	0.11497
2711.71805	0.11511
2709.78938	0.11526
2707.86070	0.11542
2705.93202	0.11555
2704.00335	0.11564
2702.07467	0.11573
2700.14600	0.11587
2698.21732	0.11604
2696.28865	0.11619
2694.35997	0.11633
2692.43129	0.11649
2690.50262	0.11663
2688.57394	0.11675
2686.64527	0.11690
2684.71659	0.11706
2682.78792	0.11723
2680.85924	0.11740
2678.93056	0.11756
2677.00189	0.11769
2675.07321	0.11780
2673.14454	0.11795
2671.21586	0.11810
2669.28719	0.11822
2667.35851	0.11834
2665.42983	0.11851
2663.50116	0.11869
2661.57248	0.11883
2659.64381	0.11894
2657.71513	0.11906
2655.78646	0.11921
2653.85778	0.11938
2651.92910	0.11952
2650.00043	0.11966
2648.07175	0.11983
2646.14308	0.12002
2644.21440	0.12020
2642.28573	0.12034
2640.35705	0.12046
2638.42837	0.12062
2636.49970	0.12080
2634.57102	0.12097
2632.64235	0.12111
2630.71367	0.12124
2628.78500	0.12136
2626.85632	0.12151
2624.92764	0.12168
2622.99897	0.12182
2621.07029	0.12196
2619.14162	0.12215
2617.21294	0.12234
2615.28427	0.12251
2613.35559	0.12266
2611.42691	0.12279
2609.49824	0.12292
2607.56956	0.12306
2605.64089	0.12324
2603.71221	0.12345
2601.78354	0.12365
2599.85486	0.12381
2597.92618	0.12392
2595.99751	0.12403
2594.06883	0.12415
2592.14016	0.12431
2590.21148	0.12447
2588.28281	0.12464
2586.35413	0.12481
2584.42545	0.12496
2582.49678	0.12509
2580.56810	0.12523
2578.63943	0.12540
2576.71075	0.12557
2574.78208	0.12574
2572.85340	0.12587
2570.92472	0.12599
2568.99605	0.12613
2567.06737	0.12629
2565.13870	0.12642
2563.21002	0.12654
2561.28135	0.12668
2559.35267	0.12684
2557.42399	0.12703
2555.49532	0.12721
2553.56664	0.12738
2551.63797	0.12755
2549.70929	0.12770
2547.78062	0.12782
2545.85194	0.12793
2543.92326	0.12803
2541.99459	0.12816
2540.06591	0.12831
2538.13724	0.12848
2536.20856	0.12865
2534.27989	0.12882
2532.35121	0.12899
2530.42253	0.12916
2528.49386	0.12932
2526.56518	0.12948
2524.63651	0.12961
2522.70783	0.12975
2520.77916	0.12994
2518.85048	0.13014
2516.92181	0.13032
2514.99313	0.13047
2513.06445	0.13058
2511.13578	0.13070
2509.20710	0.13087
2507.27843	0.13104
2505.34975	0.13119
2503.42108	0.13135
2501.49240	0.13153
2499.56372	0.13172
2497.63505	0.13189
2495.70637	0.13206
2493.77770	0.13224
2491.84902	0.13239
2489.92035	0.13253
2487.99167	0.13267
2486.06299	0.13286
2484.13432	0.13304
2482.20564	0.13320
2480.27697	0.13335
2478.34829	0.13352
2476.41962	0.13369
2474.49094	0.13384
2472.56226	0.13400
2470.63359	0.13417
2468.70491	0.13434
2466.77624	0.13449
2464.84756	0.13464
2462.91889	0.13479
2460.99021	0.13496
2459.06153	0.13513
2457.13286	0.13529
2455.20418	0.13544
2453.27551	0.13560
2451.34683	0.13576
2449.41816	0.13590
2447.48948	0.13604
2445.56080	0.13621
2443.63213	0.13641
2441.70345	0.13659
2439.77478	0.13674
2437.84610	0.13690
2435.91743	0.13706
2433.98875	0.13719
2432.06007	0.13733
2430.13140	0.13751
2428.20272	0.13770
2426.27405	0.13790
2424.34537	0.13808
2422.41670	0.13823
2420.48802	0.13835
2418.55934	0.13847
2416.63067	0.13864
2414.70199	0.13885
2412.77332	0.13904
2410.84464	0.13918
2408.91597	0.13932
2406.98729	0.13948
2405.05861	0.13964
2403.12994	0.13977
2401.20126	0.13991
2399.27259	0.14005
2397.34391	0.14020
2395.41524	0.14039
2393.48656	0.14063
2391.55788	0.14083
2389.62921	0.14093
2387.70053	0.14101
2385.77186	0.14113
2383.84318	0.14127
2381.91451	0.14139
2379.98583	0.14151
2378.05715	0.14158
2376.12848	0.14161
2374.19980	0.14163
2372.27113	0.14167
2370.34245	0.14171
2368.41378	0.14177
2366.48510	0.14185
2364.55642	0.14196
2362.62775	0.14210
2360.69907	0.14226
2358.77040	0.14244
2356.84172	0.14261
2354.91305	0.14284
2352.98437	0.14319
2351.05569	0.14357
2349.12702	0.14381
2347.19834	0.14387
2345.26967	0.14386
2343.34099	0.14389
2341.41232	0.14397
2339.48364	0.14408
2337.55496	0.14424
2335.62629	0.14447
2333.69761	0.14472
2331.76894	0.14493
2329.84026	0.14514
2327.91159	0.14534
2325.98291	0.14553
2324.05423	0.14574
2322.12556	0.14599
2320.19688	0.14621
2318.26821	0.14639
2316.33953	0.14656
2314.41086	0.14676
2312.48218	0.14695
2310.55350	0.14714
2308.62483	0.14732
2306.69615	0.14752
2304.76748	0.14772
2302.83880	0.14791
2300.91013	0.14806
2298.98145	0.14820
2297.05277	0.14838
2295.12410	0.14860
2293.19542	0.14877
2291.26675	0.14889
2289.33807	0.14902
2287.40940	0.14919
2285.48072	0.14938
2283.55204	0.14953
2281.62337	0.14967
2279.69469	0.14983
2277.76602	0.14999
2275.83734	0.15015
2273.90867	0.15029
2271.97999	0.15045
2270.05131	0.15062
2268.12264	0.15078
2266.19396	0.15095
2264.26529	0.15116
2262.33661	0.15134
2260.40794	0.15148
2258.47926	0.15164
2256.55058	0.15181
2254.62191	0.15197
2252.69323	0.15213
2250.76456	0.15230
2248.83588	0.15245
2246.90721	0.15260
2244.97853	0.15275
2243.04985	0.15290
2241.12118	0.15303
2239.19250	0.15320
2237.26383	0.15339
2235.33515	0.15352
2233.40648	0.15364
2231.47780	0.15381
2229.54912	0.15401
2227.62045	0.15417
2225.69177	0.15432
2223.76310	0.15448
2221.83442	0.15463
2219.90575	0.15477
2217.97707	0.15490
2216.04839	0.15503
2214.11972	0.15517
2212.19104	0.15534
2210.26237	0.15553
2208.33369	0.15568
2206.40502	0.15584
2204.47634	0.15601
2202.54766	0.15618
2200.61899	0.15632
2198.69031	0.15646
2196.76164	0.15664
2194.83296	0.15681
2192.90429	0.15692
2190.97561	0.15703
2189.04693	0.15719
2187.11826	0.15738
2185.18958	0.15754
2183.26091	0.15765
2181.33223	0.15779
2179.40356	0.15798
2177.47488	0.15820
2175.54620	0.15841
2173.61753	0.15857
2171.68885	0.15871
2169.76018	0.15886
2167.83150	0.15902
2165.90283	0.15914
2163.97415	0.15925
2162.04547	0.15942
2160.11680	0.15961
2158.18812	0.15977
2156.25945	0.15993
2154.33077	0.16011
2152.40210	0.16030
2150.47342	0.16046
2148.54474	0.16063
2146.61607	0.16082
2144.68739	0.16099
2142.75872	0.16113
2140.83004	0.16126
2138.90137	0.16141
2136.97269	0.16161
2135.04401	0.16180
2133.11534	0.16193
2131.18666	0.16204
2129.25799	0.16216
2127.32931	0.16229
2125.40064	0.16247
2123.47196	0.16267
2121.54328	0.16285
2119.61461	0.16302
2117.68593	0.16316
2115.75726	0.16330
2113.82858	0.16344
2111.89991	0.16363
2109.97123	0.16384
2108.04255	0.16401
2106.11388	0.16416
2104.18520	0.16430
2102.25653	0.16444
2100.32785	0.16463
2098.39918	0.16484
2096.47050	0.16499
2094.54182	0.16510
2092.61315	0.16523
2090.68447	0.16540
2088.75580	0.16556
2086.82712	0.16572
2084.89845	0.16590
2082.96977	0.16606
2081.04109	0.16622
2079.11242	0.16637
2077.18374	0.16650
2075.25507	0.16662
2073.32639	0.16678
2071.39772	0.16695
2069.46904	0.16710
2067.54036	0.16723
2065.61169	0.16740
2063.68301	0.16761
2061.75434	0.16779
2059.82566	0.16796
2057.89699	0.16815
2055.96831	0.16832
2054.03963	0.16846
2052.11096	0.16860
2050.18228	0.16876
2048.25361	0.16893
2046.32493	0.16910
2044.39626	0.16924
2042.46758	0.16936
2040.53890	0.16951
2038.61023	0.16970
2036.68155	0.16990
2034.75288	0.17011
2032.82420	0.17031
2030.89553	0.17050
2028.96685	0.17067
2027.03817	0.17081
2025.10950	0.17093
2023.18082	0.17106
2021.25215	0.17120
2019.32347	0.17134
2017.39480	0.17149
2015.46612	0.17169
2013.53744	0.17188
2011.60877	0.17203
2009.68009	0.17217
2007.75142	0.17234
2005.82274	0.17255
2003.89407	0.17273
2001.96539	0.17287
2000.03671	0.17298
1998.10804	0.17314
1996.17936	0.17331
1994.25069	0.17339
1992.32201	0.17343
1990.39334	0.17353
1988.46466	0.17372
1986.53598	0.17395
1984.60731	0.17419
1982.67863	0.17438
1980.74996	0.17454
1978.82128	0.17467
1976.89261	0.17478
1974.96393	0.17489
1973.03525	0.17504
1971.10658	0.17517
1969.17790	0.17524
1967.24923	0.17533
1965.32055	0.17551
1963.39188	0.17572
1961.46320	0.17588
1959.53452	0.17601
1957.60585	0.17616
1955.67717	0.17633
1953.74850	0.17651
1951.81982	0.17666
1949.89115	0.17675
1947.96247	0.17685
1946.03379	0.17695
1944.10512	0.17701
1942.17644	0.17713
1940.24777	0.17742
1938.31909	0.17771
1936.39042	0.17792
1934.46174	0.17809
1932.53306	0.17825
1930.60439	0.17841
1928.67571	0.17858
1926.74704	0.17874
1924.81836	0.17883
1922.88969	0.17890
1920.96101	0.17901
1919.03233	0.17913
1917.10366	0.17934
1915.17498	0.17961
1913.24631	0.17980
1911.31763	0.17989
1909.38896	0.18000
1907.46028	0.18018
1905.53160	0.18039
1903.60293	0.18057
1901.67425	0.18073
1899.74558	0.18089
1897.81690	0.18102
1895.88823	0.18113
1893.95955	0.18125
1892.03087	0.18127
1890.10220	0.18126
1888.17352	0.18147
1886.24485	0.18181
1884.31617	0.18206
1882.38750	0.18227
1880.45882	0.18246
1878.53014	0.18260
1876.60147	0.18271
1874.67279	0.18283
1872.74412	0.18290
1870.81544	0.18286
1868.88677	0.18285
1866.95809	0.18308
1865.02941	0.18348
1863.10074	0.18379
1861.17206	0.18397
1859.24339	0.18414
1857.31471	0.18431
1855.38604	0.18446
1853.45736	0.18459
1851.52868	0.18471
1849.60001	0.18475
1847.67133	0.18462
1845.74266	0.18438
1843.81398	0.18446
1841.88531	0.18504
1839.95663	0.18562
1838.02795	0.18588
1836.09928	0.18604
1834.17060	0.18620
1832.24193	0.18628
1830.31325	0.18632
1828.38458	0.18638
1826.45590	0.18641
1824.52722	0.18655
1822.59855	0.18694
1820.66987	0.18726
1818.74120	0.18740
1816.81252	0.18751
1814.88385	0.18769
1812.95517	0.18785
1811.02649	0.18799
1809.09782	0.18816
1807.16914	0.18835
1805.24047	0.18840
1803.31179	0.18826
1801.38312	0.18822
1799.45444	0.18847
1797.52576	0.18878
1795.59709	0.18888
1793.66841	0.18880
1791.73974	0.18884
1789.81106	0.18917
1787.88239	0.18953
1785.95371	0.18968
1784.02503	0.18975
1782.09636	0.18981
1780.16768	0.18984
1778.23901	0.18989
1776.31033	0.18991
1774.38166	0.18980
1772.45298	0.18964
1770.52430	0.18964
1768.59563	0.18988
1766.66695	0.19036
1764.73828	0.19080
1762.80960	0.19094
1760.88093	0.19095
1758.95225	0.19092
1757.02357	0.19093
1755.09490	0.19103
1753.16622	0.19092
1751.23755	0.19060
1749.30887	0.19046
1747.38020	0.19063
1745.45152	0.19084
1743.52284	0.19093
1741.59417	0.19092
1739.66549	0.19093
1737.73682	0.19092
1735.80814	0.19060
1733.87947	0.19029
1731.95079	0.19054
1730.02211	0.19113
1728.09344	0.19164
1726.16476	0.19196
1724.23609	0.19209
1722.30741	0.19203
1720.37874	0.19167
1718.45006	0.19126
1716.52138	0.19136
1714.59271	0.19191
1712.66403	0.19243
1710.73536	0.19271
1708.80668	0.19268
1706.87801	0.19255
1704.94933	0.19267
1703.02065	0.19277
1701.09198	0.19255
1699.16330	0.19239
1697.23463	0.19236
1695.30595	0.19259
1693.37728	0.19318
1691.44860	0.19359
1689.51992	0.19357
1687.59125	0.19331
1685.66257	0.19279
1683.73390	0.19247
1681.80522	0.19278
1679.87655	0.19325
1677.94787	0.19338
1676.01919	0.19330
1674.09052	0.19334
1672.16184	0.19335
1670.23317	0.19326
1668.30449	0.19348
1666.37582	0.19397
1664.44714	0.19421
1662.51846	0.19422
1660.58979	0.19429
1658.66111	0.19436
1656.73244	0.19390
1654.80376	0.19284
1652.87509	0.19238
1650.94641	0.19314
1649.01773	0.19380
1647.08906	0.19382
1645.16038	0.19406
1643.23171	0.19457
1641.30303	0.19478
1639.37436	0.19455
1637.44568	0.19423
1635.51700	0.19429
1633.58833	0.19476
1631.65965	0.19515
1629.73098	0.19519
1627.80230	0.19503
1625.87363	0.19473
1623.94495	0.19430
1622.01627	0.19401
1620.08760	0.19402
1618.15892	0.19432
1616.23025	0.19494
1614.30157	0.19568
1612.37290	0.19619
1610.44422	0.19642
1608.51554	0.19660
1606.58687	0.19687
1604.65819	0.19719
1602.72952	0.19744
1600.80084	0.19767
1598.87217	0.19787
1596.94349	0.19799
1595.01481	0.19807
1593.08614	0.19817
1591.15746	0.19834
1589.22879	0.19853
1587.30011	0.19873
1585.37144	0.19893
1583.44276	0.19914
1581.51408	0.19927
1579.58541	0.19915
1577.65673	0.19884
1575.72806	0.19889
1573.79938	0.19934
1571.87071	0.19947
1569.94203	0.19931
1568.01335	0.19947
1566.08468	0.19984
1564.15600	0.20006
1562.22733	0.19989
1560.29865	0.19919
1558.36998	0.19869
1556.44130	0.19915
1554.51262	0.20003
1552.58395	0.20052
1550.65527	0.20065
1548.72660	0.20084
1546.79792	0.20094
1544.86925	0.20060
1542.94057	0.20003
1541.01189	0.19981
1539.08322	0.20025
1537.15454	0.20103
1535.22587	0.20150
1533.29719	0.20165
1531.36852	0.20184
1529.43984	0.20189
1527.51116	0.20172
1525.58249	0.20163
1523.65381	0.20151
1521.72514	0.20139
1519.79646	0.20154
1517.86779	0.20181
1515.93911	0.20196
1514.01043	0.20204
1512.08176	0.20200
1510.15308	0.20169
1508.22441	0.20134
1506.29573	0.20158
1504.36706	0.20235
1502.43838	0.20284
1500.50970	0.20279
1498.58103	0.20247
1496.65235	0.20234
1494.72368	0.20265
1492.79500	0.20283
1490.86633	0.20252
1488.93765	0.20230
1487.00897	0.20250
1485.08030	0.20269
1483.15162	0.20254
1481.22295	0.20228
1479.29427	0.20206
1477.36560	0.20166
1475.43692	0.20099
1473.50824	0.20047
1471.57957	0.20042
1469.65089	0.20054
1467.72222	0.20038
1465.79354	0.20004
1463.86487	0.19986
1461.93619	0.19966
1460.00751	0.19902
1458.07884	0.19835
1456.15016	0.19840
1454.22149	0.19889
1452.29281	0.19919
1450.36414	0.19919
1448.43546	0.19915
1446.50678	0.19929
1444.57811	0.19957
1442.64943	0.19980
1440.72076	0.19988
1438.79208	0.19970
1436.86341	0.19956
1434.93473	0.19987
1433.00605	0.20029
1431.07738	0.20048
1429.14870	0.20062
1427.22003	0.20070
1425.29135	0.20055
1423.36268	0.20039
1421.43400	0.20022
1419.50532	0.20002
1417.57665	0.20013
1415.64797	0.20053
1413.71930	0.20086
1411.79062	0.20100
1409.86195	0.20100
1407.93327	0.20087
1406.00459	0.20066
1404.07592	0.20064
1402.14724	0.20075
1400.21857	0.20065
1398.28989	0.20042
1396.36122	0.20030
1394.43254	0.20038
1392.50386	0.20055
1390.57519	0.20053
1388.64651	0.20018
1386.71784	0.19976
1384.78916	0.19960
1382.86049	0.19963
1380.93181	0.19972
1379.00313	0.19976
1377.07446	0.19965
1375.14578	0.19946
1373.21711	0.19944
1371.28843	0.19961
1369.35976	0.19974
1367.43108	0.19974
1365.50240	0.19956
1363.57373	0.19929
1361.64505	0.19933
1359.71638	0.19961
1357.78770	0.19977
1355.85903	0.19976
1353.93035	0.19977
1352.00167	0.19985
1350.07300	0.19996
1348.14432	0.20009
1346.21565	0.20021
1344.28697	0.20022
1342.35830	0.20008
1340.42962	0.19988
1338.50094	0.19982
1336.57227	0.19990
1334.64359	0.19997
1332.71492	0.19990
1330.78624	0.19974
1328.85757	0.19960
1326.92889	0.19947
1325.00021	0.19930
1323.07154	0.19914
1321.14286	0.19901
1319.21419	0.19885
1317.28551	0.19865
1315.35684	0.19844
1313.42816	0.19825
1311.49948	0.19811
1309.57081	0.19796
1307.64213	0.19774
1305.71346	0.19747
1303.78478	0.19719
1301.85611	0.19698
1299.92743	0.19682
1297.99875	0.19663
1296.07008	0.19641
1294.14140	0.19621
1292.21273	0.19603
1290.28405	0.19585
1288.35538	0.19564
1286.42670	0.19542
1284.49802	0.19524
1282.56935	0.19506
1280.64067	0.19484
1278.71200	0.19454
1276.78332	0.19417
1274.85465	0.19376
1272.92597	0.19329
1270.99729	0.19272
1269.06862	0.19198
1267.13994	0.19106
1265.21127	0.19014
1263.28259	0.18950
1261.35392	0.18926
1259.42524	0.18931
1257.49656	0.18948
1255.56789	0.18964
1253.63921	0.18970
1251.71054	0.18960
1249.78186	0.18935
1247.85319	0.18903
1245.92451	0.18872
1243.99583	0.18838
1242.06716	0.18796
1240.13848	0.18745
1238.20981	0.18692
1236.28113	0.18639
1234.35246	0.18588
1232.42378	0.18537
1230.49510	0.18483
1228.56643	0.18424
1226.63775	0.18365
1224.70908	0.18311
1222.78040	0.18265
1220.85173	0.18220
1218.92305	0.18171
1216.99437	0.18118
1215.06570	0.18065
1213.13702	0.18011
1211.20835	0.17958
1209.27967	0.17910
1207.35100	0.17859
1205.42232	0.17799
1203.49364	0.17738
1201.56497	0.17680
1199.63629	0.17623
1197.70762	0.17559
1195.77894	0.17492
1193.85027	0.17428
1191.92159	0.17363
1189.99291	0.17298
1188.06424	0.17233
1186.13556	0.17166
1184.20689	0.17086
1182.27821	0.16999
1180.34954	0.16913
1178.42086	0.16828
1176.49218	0.16747
1174.56351	0.16666
1172.63483	0.16583
1170.70616	0.16503
1168.77748	0.16422
1166.84881	0.16334
1164.92013	0.16243
1162.99145	0.16152
1161.06278	0.16068
1159.13410	0.15993
1157.20543	0.15917
1155.27675	0.15831
1153.34808	0.15750
1151.41940	0.15679
1149.49072	0.15610
1147.56205	0.15529
1145.63337	0.15438
1143.70470	0.15347
1141.77602	0.15258
1139.84735	0.15165
1137.91867	0.15063
1135.98999	0.14943
1134.06132	0.14796
1132.13264	0.14632
1130.20397	0.14456
1128.27529	0.14257
1126.34662	0.14038
1124.41794	0.13806
1122.48926	0.13572
1120.56059	0.13344
1118.63191	0.13128
1116.70324	0.12923
1114.77456	0.12735
1112.84589	0.12575
1110.91721	0.12448
1108.98853	0.12352
1107.05986	0.12281
1105.13118	0.12233
1103.20251	0.12212
1101.27383	0.12223
1099.34516	0.12262
1097.41648	0.12319
1095.48780	0.12396
1093.55913	0.12491
1091.63045	0.12585
1089.70178	0.12666
1087.77310	0.12733
1085.84443	0.12789
1083.91575	0.12837
1081.98707	0.12876
1080.05840	0.12903
1078.12972	0.12924
1076.20105	0.12942
1074.27237	0.12954
1072.34370	0.12964
1070.41502	0.12973
1068.48634	0.12981
1066.55767	0.12995
1064.62899	0.13019
1062.70032	0.13048
1060.77164	0.13072
1058.84297	0.13095
1056.91429	0.13120
1054.98561	0.13145
1053.05694	0.13174
1051.12826	0.13212
1049.19959	0.13254
1047.27091	0.13288
1045.34224	0.13317
1043.41356	0.13354
1041.48488	0.13396
1039.55621	0.13435
1037.62753	0.13473
1035.69886	0.13518
1033.77018	0.13563
1031.84151	0.13600
1029.91283	0.13631
1027.98415	0.13664
1026.05548	0.13697
1024.12680	0.13722
1022.19813	0.13752
1020.26945	0.13792
1018.34078	0.13839
1016.41210	0.13892
1014.48342	0.13949
1012.55475	0.14005
1010.62607	0.14065
1008.69740	0.14130
1006.76872	0.14189
1004.84005	0.14233
1002.91137	0.14267
1000.98269	0.14303
999.05402	0.14337
997.12534	0.14359
995.19667	0.14375
993.26799	0.14391
991.33932	0.14410
989.41064	0.14424
987.48196	0.14424
985.55329	0.14416
983.62461	0.14410
981.69594	0.14404
979.76726	0.14393
977.83859	0.14375
975.90991	0.14358
973.98123	0.14343
972.05256	0.14326
970.12388	0.14309
968.19521	0.14294
966.26653	0.14275
964.33786	0.14251
962.40918	0.14231
960.48050	0.14217
958.55183	0.14202
956.62315	0.14186
954.69448	0.14172
952.76580	0.14156
950.83713	0.14136
948.90845	0.14115
946.97977	0.14096
945.05110	0.14074
943.12242	0.14048
941.19375	0.14020
939.26507	0.13985
937.33640	0.13940
935.40772	0.13890
933.47904	0.13838
931.55037	0.13780
929.62169	0.13721
927.69302	0.13670
925.76434	0.13624
923.83567	0.13569
921.90699	0.13508
919.97831	0.13448
918.04964	0.13387
916.12096	0.13323
914.19229	0.13253
912.26361	0.13175
910.33494	0.13094
908.40626	0.13019
906.47758	0.12949
904.54891	0.12878
902.62023	0.12814
900.69156	0.12765
898.76288	0.12718
896.83421	0.12664
894.90553	0.12610
892.97685	0.12560
891.04818	0.12513
889.11950	0.12464
887.19083	0.12425
885.26215	0.12396
883.33348	0.12362
881.40480	0.12318
879.47612	0.12272
877.54745	0.12237
875.61877	0.12218
873.69010	0.12204
871.76142	0.12185
869.83275	0.12166
867.90407	0.12148
865.97539	0.12130
864.04672	0.12112
862.11804	0.12096
860.18937	0.12087
858.26069	0.12079
856.33202	0.12068
854.40334	0.12054
852.47466	0.12029
850.54599	0.11999
848.61731	0.11968
846.68864	0.11939
844.75996	0.11912
842.83129	0.11885
840.90261	0.11853
838.97394	0.11815
837.04526	0.11770
835.11658	0.11710
833.18791	0.11640
831.25923	0.11558
829.33056	0.11455
827.40188	0.11343
825.47321	0.11243
823.54453	0.11157
821.61585	0.11075
819.68718	0.10999
817.75850	0.10940
815.82983	0.10899
813.90115	0.10873
811.97248	0.10853
810.04380	0.10829
808.11512	0.10805
806.18645	0.10791
804.25777	0.10785
802.32910	0.10777
800.40042	0.10758
798.47175	0.10717
796.54307	0.10659
794.61439	0.10605
792.68572	0.10565
790.75704	0.10537
788.82837	0.10513
786.89969	0.10486
784.97102	0.10460
783.04234	0.10436
781.11366	0.10405
779.18499	0.10371
777.25631	0.10339
775.32764	0.10306
773.39896	0.10271
771.47029	0.10243
769.54161	0.10217
767.61293	0.10181
765.68426	0.10140
763.75558	0.10095
761.82691	0.10046
759.89823	0.09996
757.96956	0.09947
756.04088	0.09895
754.11220	0.09836
752.18353	0.09769
750.25485	0.09699
748.32618	0.09628
746.39750	0.09551
744.46883	0.09463
742.54015	0.09372
740.61147	0.09293
738.68280	0.09247
736.75412	0.09228
734.82545	0.09218
732.89677	0.09219
730.96810	0.09231
729.03942	0.09245
727.11074	0.09256
725.18207	0.09265
723.25339	0.09276
721.32472	0.09293
719.39604	0.09315
717.46737	0.09346
715.53869	0.09383
713.61001	0.09424
711.68134	0.09461
709.75266	0.09484
707.82399	0.09486
705.89531	0.09470
703.96664	0.09452
702.03796	0.09435
700.10928	0.09403
698.18061	0.09348
696.25193	0.09289
694.32326	0.09232
692.39458	0.09178
690.46591	0.09125
688.53723	0.09069
686.60855	0.09015
684.67988	0.08966
682.75120	0.08922
680.82253	0.08875
678.89385	0.08818
676.96518	0.08755
675.03650	0.08689
673.10782	0.08616
671.17915	0.08536
669.25047	0.08453
667.32180	0.08376
665.39312	0.08307
663.46445	0.08236
661.53577	0.08156
659.60709	0.08072
657.67842	0.07987
655.74974	0.07902
653.82107	0.07820
651.89239	0.07736
649.96372	0.07650
648.03504	0.07568
646.10636	0.07488
644.17769	0.07398
642.24901	0.07299
640.32034	0.07199
638.39166	0.07104
636.46299	0.07008
634.53431	0.06893
632.60563	0.06734
630.67696	0.06499
628.74828	0.06159
626.81961	0.05718
624.89093	0.05269
622.96226	0.04922
621.03358	0.04704
619.10490	0.04585
617.17623	0.04507
615.24755	0.04421
613.31888	0.04321
611.39020	0.04226
609.46153	0.04174
607.53285	0.04180
605.60417	0.04218
603.67550	0.04273
601.74682	0.04354
599.81815	0.04452
597.88947	0.04534
595.96080	0.04589
594.03212	0.04627
592.10344	0.04659
590.17477	0.04683
588.24609	0.04689
586.31742	0.04679
584.38874	0.04651
582.46007	0.04612
580.53139	0.04573
578.60271	0.04531
576.67404	0.04477
574.74536	0.04421
572.81669	0.04370
570.88801	0.04315
568.95934	0.04243
567.03066	0.04172
565.10198	0.04133
563.17331	0.04124
561.24463	0.04117
559.31596	0.04096
557.38728	0.04061
555.45861	0.04023
553.52993	0.03990
551.60125	0.03967
549.67258	0.03953
547.74390	0.03945
545.81523	0.03937
543.88655	0.03922
541.95788	0.03900
540.02920	0.03885
538.10052	0.03876
536.17185	0.03861
534.24317	0.03839
532.31450	0.03812
530.38582	0.03787
528.45715	0.03763
526.52847	0.03735
524.59979	0.03699
522.67112	0.03656
520.74244	0.03603
518.81377	0.03546
516.88509	0.03489
514.95642	0.03437
513.02774	0.03399
511.09906	0.03381
509.17039	0.03361
507.24171	0.03324
505.31304	0.03278
503.38436	0.03239
501.45569	0.03214
499.52701	0.03188
497.59833	0.03142
495.66966	0.03080
493.74098	0.03015
491.81231	0.02953
489.88363	0.02895
487.95496	0.02846
486.02628	0.02802
484.09760	0.02756
482.16893	0.02710
480.24025	0.02664
478.31158	0.02613
476.38290	0.02552
474.45423	0.02486
472.52555	0.02429
470.59687	0.02391
468.66820	0.02356
466.73952	0.02320
464.81085	0.02291
462.88217	0.02268
460.95350	0.02243
459.02482	0.02222
457.09614	0.02211
455.16747	0.02212
453.23879	0.02224
451.31012	0.02234
449.38144	0.02234
447.45277	0.02224
445.52409	0.02207
443.59541	0.02185
441.66674	0.02161
439.73806	0.02124
437.80939	0.02071
435.88071	0.02015
433.95204	0.01967
432.02336	0.01926
430.09468	0.01879
428.16601	0.01820
426.23733	0.01754
424.30866	0.01687
422.37998	0.01618
420.45131	0.01552
418.52263	0.01494
416.59395	0.01433
414.66528	0.01354
412.73660	0.01278
410.80793	0.01223
408.87925	0.01177
406.95058	0.01120
405.02190	0.01052
403.09322	0.00981
401.16455	0.00919
399.23587	0.00876
397.30720	0.00839
395.37852	0.00795
393.44985	0.00745
391.52117	0.00700
389.59249	0.00653
387.66382	0.00596
385.73514	0.00540
383.80647	0.00503
381.87779	0.00482
379.94912	0.00455
378.02044	0.00412
376.09176	0.00366
374.16309	0.00328
372.23441	0.00298
370.30574	0.00269
368.37706	0.00243
