7496.76250	0.00117
7494.83382	0.00119
7492.90514	0.00119
7490.97647	0.00118
7489.04779	0.00117
7487.11912	0.00117
7485.19044	0.00118
7483.26177	0.00120
7481.33309	0.00121
7479.40441	0.00123
7477.47574	0.00124
7475.54706	0.00124
7473.61839	0.00122
7471.68971	0.00120
7469.76104	0.00119
7467.83236	0.00121
7465.90368	0.00123
7463.97501	0.00124
7462.04633	0.00123
7460.11766	0.00123
7458.18898	0.00124
7456.26031	0.00124
7454.33163	0.00125
7452.40295	0.00125
7450.47428	0.00125
7448.54560	0.00125
7446.61693	0.00126
7444.68825	0.00127
7442.75958	0.00126
7440.83090	0.00126
7438.90222	0.00127
7436.97355	0.00127
7435.04487	0.00127
7433.11620	0.00127
7431.18752	0.00128
7429.25885	0.00129
7427.33017	0.00130
7425.40149	0.00131
7423.47282	0.00131
7421.54414	0.00130
7419.61547	0.00130
7417.68679	0.00132
7415.75812	0.00133
7413.82944	0.00133
7411.90076	0.00132
7409.97209	0.00132
7408.04341	0.00132
7406.11474	0.00131
7404.18606	0.00131
7402.25739	0.00133
7400.32871	0.00135
7398.40003	0.00135
7396.47136	0.00135
7394.54268	0.00135
7392.61401	0.00136
7390.68533	0.00136
7388.75666	0.00135
7386.82798	0.00134
7384.89930	0.00136
7382.97063	0.00138
7381.04195	0.00139
7379.11328	0.00138
7377.18460	0.00137
7375.25593	0.00137
7373.32725	0.00137
7371.39857	0.00139
7369.46990	0.00140
7367.54122	0.00140
7365.61255	0.00139
7363.68387	0.00139
7361.75520	0.00141
7359.82652	0.00142
7357.89784	0.00143
7355.96917	0.00143
7354.04049	0.00143
7352.11182	0.00144
7350.18314	0.00144
7348.25447	0.00144
7346.32579	0.00144
7344.39711	0.00144
7342.46844	0.00145
7340.53976	0.00144
7338.61109	0.00144
7336.68241	0.00144
7334.75374	0.00145
7332.82506	0.00145
7330.89638	0.00144
7328.96771	0.00144
7327.03903	0.00144
7325.11036	0.00145
7323.18168	0.00147
7321.25301	0.00148
7319.32433	0.00149
7317.39565	0.00150
7315.46698	0.00150
7313.53830	0.00150
7311.60963	0.00150
7309.68095	0.00150
7307.75228	0.00150
7305.82360	0.00151
7303.89492	0.00152
7301.96625	0.00151
7300.03757	0.00151
7298.10890	0.00152
7296.18022	0.00153
7294.25155	0.00153
7292.32287	0.00154
7290.39419	0.00154
7288.46552	0.00154
7286.53684	0.00154
7284.60817	0.00154
7282.67949	0.00155
7280.75082	0.00155
7278.82214	0.00155
7276.89346	0.00156
7274.96479	0.00158
7273.03611	0.00159
7271.10744	0.00158
7269.17876	0.00156
7267.25009	0.00156
7265.32141	0.00156
7263.39273	0.00157
7261.46406	0.00158
7259.53538	0.00159
7257.60671	0.00161
7255.67803	0.00163
7253.74936	0.00163
7251.82068	0.00161
7249.89200	0.00160
7247.96333	0.00162
7246.03465	0.00163
7244.10598	0.00162
7242.17730	0.00162
7240.24863	0.00163
7238.31995	0.00164
7236.39127	0.00165
7234.46260	0.00163
7232.53392	0.00162
7230.60525	0.00162
7228.67657	0.00164
7226.74790	0.00166
7224.81922	0.00166
7222.89054	0.00165
7220.96187	0.00164
7219.03319	0.00164
7217.10452	0.00166
7215.17584	0.00167
7213.24717	0.00169
7211.31849	0.00170
7209.38981	0.00169
7207.46114	0.00169
7205.53246	0.00170
7203.60379	0.00170
7201.67511	0.00170
7199.74644	0.00170
7197.81776	0.00170
7195.88908	0.00171
7193.96041	0.00172
7192.03173	0.00172
7190.10306	0.00172
7188.17438	0.00171
7186.24571	0.00172
7184.31703	0.00174
7182.38835	0.00175
7180.45968	0.00176
7178.53100	0.00175
7176.60233	0.00175
7174.67365	0.00175
7172.74498	0.00176
7170.81630	0.00178
7168.88762	0.00179
7166.95895	0.00180
7165.03027	0.00180
7163.10160	0.00180
7161.17292	0.00179
7159.24425	0.00179
7157.31557	0.00179
7155.38689	0.00179
7153.45822	0.00180
7151.52954	0.00181
7149.60087	0.00183
7147.67219	0.00183
7145.74352	0.00183
7143.81484	0.00181
7141.88616	0.00180
7139.95749	0.00180
7138.02881	0.00182
7136.10014	0.00184
7134.17146	0.00185
7132.24279	0.00186
7130.31411	0.00185
7128.38543	0.00184
7126.45676	0.00184
7124.52808	0.00186
7122.59941	0.00187
7120.67073	0.00187
7118.74206	0.00187
7116.81338	0.00187
7114.88470	0.00187
7112.95603	0.00189
7111.02735	0.00190
7109.09868	0.00191
7107.17000	0.00190
7105.24133	0.00189
7103.31265	0.00190
7101.38397	0.00192
7099.45530	0.00193
7097.52662	0.00193
7095.59795	0.00192
7093.66927	0.00192
7091.74060	0.00192
7089.81192	0.00192
7087.88324	0.00193
7085.95457	0.00194
7084.02589	0.00196
7082.09722	0.00196
7080.16854	0.00196
7078.23987	0.00197
7076.31119	0.00197
7074.38251	0.00196
7072.45384	0.00195
7070.52516	0.00196
7068.59649	0.00197
7066.66781	0.00198
7064.73914	0.00200
7062.81046	0.00201
7060.88178	0.00201
7058.95311	0.00201
7057.02443	0.00202
7055.09576	0.00205
7053.16708	0.00205
7051.23841	0.00203
7049.30973	0.00201
7047.38105	0.00200
7045.45238	0.00202
7043.52370	0.00204
7041.59503	0.00205
7039.66635	0.00206
7037.73768	0.00206
7035.80900	0.00207
7033.88032	0.00206
7031.95165	0.00207
7030.02297	0.00208
7028.09430	0.00209
7026.16562	0.00208
7024.23695	0.00207
7022.30827	0.00208
7020.37959	0.00208
7018.45092	0.00208
7016.52224	0.00209
7014.59357	0.00210
7012.66489	0.00210
7010.73622	0.00212
7008.80754	0.00213
7006.87886	0.00212
7004.95019	0.00213
7003.02151	0.00213
7001.09284	0.00213
6999.16416	0.00214
6997.23549	0.00215
6995.30681	0.00216
6993.37813	0.00217
6991.44946	0.00218
6989.52078	0.00218
6987.59211	0.00219
6985.66343	0.00219
6983.73476	0.00218
6981.80608	0.00217
6979.87740	0.00216
6977.94873	0.00218
6976.02005	0.00219
6974.09138	0.00220
6972.16270	0.00221
6970.23403	0.00221
6968.30535	0.00222
6966.37667	0.00223
6964.44800	0.00223
6962.51932	0.00223
6960.59065	0.00223
6958.66197	0.00224
6956.73330	0.00224
6954.80462	0.00224
6952.87594	0.00225
6950.94727	0.00225
6949.01859	0.00225
6947.08992	0.00225
6945.16124	0.00226
6943.23257	0.00228
6941.30389	0.00230
6939.37521	0.00231
6937.44654	0.00231
6935.51786	0.00231
6933.58919	0.00232
6931.66051	0.00233
6929.73184	0.00233
6927.80316	0.00232
6925.87448	0.00232
6923.94581	0.00233
6922.01713	0.00233
6920.08846	0.00234
6918.15978	0.00234
6916.23111	0.00235
6914.30243	0.00235
6912.37375	0.00235
6910.44508	0.00234
6908.51640	0.00234
6906.58773	0.00235
6904.65905	0.00237
6902.73038	0.00239
6900.80170	0.00241
6898.87302	0.00241
6896.94435	0.00240
6895.01567	0.00240
6893.08700	0.00241
6891.15832	0.00243
6889.22965	0.00243
6887.30097	0.00244
6885.37229	0.00244
6883.44362	0.00244
6881.51494	0.00244
6879.58627	0.00244
6877.65759	0.00244
6875.72892	0.00243
6873.80024	0.00244
6871.87156	0.00246
6869.94289	0.00247
6868.01421	0.00247
6866.08554	0.00246
6864.15686	0.00246
6862.22819	0.00246
6860.29951	0.00247
6858.37083	0.00248
6856.44216	0.00250
6854.51348	0.00251
6852.58481	0.00250
6850.65613	0.00249
6848.72746	0.00251
6846.79878	0.00254
6844.87010	0.00255
6842.94143	0.00254
6841.01275	0.00254
6839.08408	0.00254
6837.15540	0.00255
6835.22673	0.00256
6833.29805	0.00256
6831.36937	0.00256
6829.44070	0.00256
6827.51202	0.00259
6825.58335	0.00261
6823.65467	0.00261
6821.72600	0.00260
6819.79732	0.00260
6817.86864	0.00260
6815.93997	0.00260
6814.01129	0.00261
6812.08262	0.00264
6810.15394	0.00265
6808.22527	0.00265
6806.29659	0.00264
6804.36791	0.00265
6802.43924	0.00266
6800.51056	0.00268
6798.58189	0.00269
6796.65321	0.00269
6794.72454	0.00270
6792.79586	0.00270
6790.86718	0.00270
6788.93851	0.00269
6787.00983	0.00269
6785.08116	0.00269
6783.15248	0.00270
6781.22381	0.00270
6779.29513	0.00270
6777.36645	0.00270
6775.43778	0.00271
6773.50910	0.00272
6771.58043	0.00273
6769.65175	0.00274
6767.72308	0.00275
6765.79440	0.00276
6763.86572	0.00277
6761.93705	0.00277
6760.00837	0.00276
6758.07970	0.00276
6756.15102	0.00278
6754.22235	0.00280
6752.29367	0.00281
6750.36499	0.00281
6748.43632	0.00281
6746.50764	0.00281
6744.57897	0.00281
6742.65029	0.00282
6740.72162	0.00282
6738.79294	0.00283
6736.86426	0.00284
6734.93559	0.00284
6733.00691	0.00284
6731.07824	0.00284
6729.14956	0.00285
6727.22089	0.00286
6725.29221	0.00287
6723.36353	0.00288
6721.43486	0.00289
6719.50618	0.00290
6717.57751	0.00290
6715.64883	0.00291
6713.72016	0.00293
6711.79148	0.00294
6709.86280	0.00295
6707.93413	0.00295
6706.00545	0.00294
6704.07678	0.00294
6702.14810	0.00297
6700.21943	0.00299
6698.29075	0.00299
6696.36207	0.00298
6694.43340	0.00298
6692.50472	0.00299
6690.57605	0.00300
6688.64737	0.00300
6686.71870	0.00300
6684.79002	0.00300
6682.86134	0.00300
6680.93267	0.00301
6679.00399	0.00303
6677.07532	0.00304
6675.14664	0.00305
6673.21797	0.00305
6671.28929	0.00305
6669.36061	0.00305
6667.43194	0.00306
6665.50326	0.00307
6663.57459	0.00307
6661.64591	0.00307
6659.71724	0.00308
6657.78856	0.00310
6655.85988	0.00311
6653.93121	0.00311
6652.00253	0.00312
6650.07386	0.00312
6648.14518	0.00313
6646.21651	0.00314
6644.28783	0.00314
6642.35915	0.00315
6640.43048	0.00317
6638.50180	0.00318
6636.57313	0.00318
6634.64445	0.00317
6632.71578	0.00317
6630.78710	0.00317
6628.85842	0.00318
6626.92975	0.00319
6625.00107	0.00320
6623.07240	0.00322
6621.14372	0.00323
6619.21505	0.00324
6617.28637	0.00323
6615.35769	0.00324
6613.42902	0.00324
6611.50034	0.00325
6609.57167	0.00328
6607.64299	0.00329
6605.71432	0.00328
6603.78564	0.00327
6601.85696	0.00328
6599.92829	0.00330
6597.99961	0.00331
6596.07094	0.00332
6594.14226	0.00333
6592.21359	0.00332
6590.28491	0.00332
6588.35623	0.00332
6586.42756	0.00333
6584.49888	0.00334
6582.57021	0.00334
6580.64153	0.00335
6578.71286	0.00335
6576.78418	0.00335
6574.85550	0.00335
6572.92683	0.00336
6570.99815	0.00338
6569.06948	0.00340
6567.14080	0.00342
6565.21213	0.00342
6563.28345	0.00342
6561.35477	0.00343
6559.42610	0.00343
6557.49742	0.00344
6555.56875	0.00344
6553.64007	0.00345
6551.71140	0.00346
6549.78272	0.00347
6547.85404	0.00347
6545.92537	0.00348
6543.99669	0.00349
6542.06802	0.00349
6540.13934	0.00350
6538.21067	0.00350
6536.28199	0.00351
6534.35331	0.00352
6532.42464	0.00353
6530.49596	0.00354
6528.56729	0.00355
6526.63861	0.00355
6524.70994	0.00355
6522.78126	0.00356
6520.85258	0.00357
6518.92391	0.00358
6516.99523	0.00359
6515.06656	0.00360
6513.13788	0.00362
6511.20921	0.00363
6509.28053	0.00365
6507.35185	0.00366
6505.42318	0.00366
6503.49450	0.00366
6501.56583	0.00366
6499.63715	0.00367
6497.70848	0.00367
6495.77980	0.00367
6493.85112	0.00368
6491.92245	0.00370
6489.99377	0.00372
6488.06510	0.00375
6486.13642	0.00375
6484.20775	0.00373
6482.27907	0.00373
6480.35039	0.00375
6478.42172	0.00378
6476.49304	0.00379
6474.56437	0.00378
6472.63569	0.00377
6470.70702	0.00377
6468.77834	0.00378
6466.84966	0.00379
6464.92099	0.00379
6462.99231	0.00381
6461.06364	0.00382
6459.13496	0.00382
6457.20629	0.00384
6455.27761	0.00386
6453.34893	0.00386
6451.42026	0.00386
6449.49158	0.00386
6447.56291	0.00387
6445.63423	0.00389
6443.70556	0.00390
6441.77688	0.00390
6439.84820	0.00390
6437.91953	0.00389
6435.99085	0.00390
6434.06218	0.00392
6432.13350	0.00394
6430.20483	0.00394
6428.27615	0.00395
6426.34747	0.00396
6424.41880	0.00397
6422.49012	0.00397
6420.56145	0.00399
6418.63277	0.00401
6416.70410	0.00404
6414.77542	0.00405
6412.84674	0.00404
6410.91807	0.00404
6408.98939	0.00405
6407.06072	0.00404
6405.13204	0.00405
6403.20337	0.00407
6401.27469	0.00408
6399.34601	0.00409
6397.41734	0.00409
6395.48866	0.00411
6393.55999	0.00413
6391.63131	0.00414
6389.70264	0.00414
6387.77396	0.00414
6385.84528	0.00414
6383.91661	0.00414
6381.98793	0.00415
6380.05926	0.00416
6378.13058	0.00418
6376.20191	0.00420
6374.27323	0.00421
6372.34455	0.00421
6370.41588	0.00421
6368.48720	0.00422
6366.55853	0.00423
6364.62985	0.00423
6362.70118	0.00423
6360.77250	0.00424
6358.84382	0.00426
6356.91515	0.00428
6354.98647	0.00429
6353.05780	0.00429
6351.12912	0.00430
6349.20045	0.00430
6347.27177	0.00431
6345.34309	0.00432
6343.41442	0.00434
6341.48574	0.00435
6339.55707	0.00435
6337.62839	0.00435
6335.69972	0.00435
6333.77104	0.00436
6331.84236	0.00437
6329.91369	0.00440
6327.98501	0.00440
6326.05634	0.00441
6324.12766	0.00444
6322.19899	0.00446
6320.27031	0.00446
6318.34163	0.00446
6316.41296	0.00447
6314.48428	0.00449
6312.55561	0.00449
6310.62693	0.00449
6308.69826	0.00449
6306.76958	0.00451
6304.84090	0.00453
6302.91223	0.00453
6300.98355	0.00453
6299.05488	0.00454
6297.12620	0.00455
6295.19753	0.00455
6293.26885	0.00455
6291.34017	0.00456
6289.41150	0.00458
6287.48282	0.00460
6285.55415	0.00461
6283.62547	0.00463
6281.69680	0.00465
6279.76812	0.00467
6277.83944	0.00468
6275.91077	0.00469
6273.98209	0.00468
6272.05342	0.00468
6270.12474	0.00470
6268.19607	0.00472
6266.26739	0.00473
6264.33871	0.00474
6262.41004	0.00474
6260.48136	0.00474
6258.55269	0.00474
6256.62401	0.00475
6254.69534	0.00476
6252.76666	0.00479
6250.83798	0.00480
6248.90931	0.00480
6246.98063	0.00480
6245.05196	0.00480
6243.12328	0.00481
6241.19461	0.00481
6239.26593	0.00482
6237.33725	0.00483
6235.40858	0.00485
6233.47990	0.00486
6231.55123	0.00489
6229.62255	0.00492
6227.69388	0.00493
6225.76520	0.00493
6223.83652	0.00493
6221.90785	0.00494
6219.97917	0.00495
6218.05050	0.00495
6216.12182	0.00497
6214.19315	0.00498
6212.26447	0.00499
6210.33579	0.00500
6208.40712	0.00501
6206.47844	0.00502
6204.54977	0.00504
6202.62109	0.00506
6200.69242	0.00508
6198.76374	0.00508
6196.83506	0.00509
6194.90639	0.00510
6192.97771	0.00511
6191.04904	0.00512
6189.12036	0.00512
6187.19169	0.00513
6185.26301	0.00513
6183.33433	0.00512
6181.40566	0.00513
6179.47698	0.00515
6177.54831	0.00517
6175.61963	0.00518
6173.69096	0.00518
6171.76228	0.00519
6169.83360	0.00520
6167.90493	0.00521
6165.97625	0.00523
6164.04758	0.00525
6162.11890	0.00527
6160.19023	0.00529
6158.26155	0.00530
6156.33287	0.00530
6154.40420	0.00530
6152.47552	0.00532
6150.54685	0.00535
6148.61817	0.00536
6146.68950	0.00537
6144.76082	0.00538
6142.83214	0.00538
6140.90347	0.00539
6138.97479	0.00541
6137.04612	0.00542
6135.11744	0.00543
6133.18877	0.00544
6131.26009	0.00545
6129.33141	0.00546
6127.40274	0.00548
6125.47406	0.00550
6123.54539	0.00550
6121.61671	0.00550
6119.68804	0.00550
6117.75936	0.00552
6115.83068	0.00553
6113.90201	0.00553
6111.97333	0.00556
6110.04466	0.00558
6108.11598	0.00560
6106.18731	0.00561
6104.25863	0.00560
6102.32995	0.00561
6100.40128	0.00563
6098.47260	0.00564
6096.54393	0.00565
6094.61525	0.00566
6092.68658	0.00568
6090.75790	0.00570
6088.82922	0.00572
6086.90055	0.00573
6084.97187	0.00573
6083.04320	0.00574
6081.11452	0.00575
6079.18585	0.00576
6077.25717	0.00577
6075.32849	0.00578
6073.39982	0.00579
6071.47114	0.00580
6069.54247	0.00583
6067.61379	0.00584
6065.68512	0.00584
6063.75644	0.00584
6061.82776	0.00585
6059.89909	0.00588
6057.97041	0.00590
6056.04174	0.00590
6054.11306	0.00591
6052.18439	0.00593
6050.25571	0.00595
6048.32703	0.00596
6046.39836	0.00594
6044.46968	0.00593
6042.54101	0.00595
6040.61233	0.00597
6038.68366	0.00600
6036.75498	0.00603
6034.82630	0.00606
6032.89763	0.00608
6030.96895	0.00610
6029.04028	0.00611
6027.11160	0.00611
6025.18293	0.00611
6023.25425	0.00612
6021.32557	0.00614
6019.39690	0.00616
6017.46822	0.00617
6015.53955	0.00618
6013.61087	0.00620
6011.68220	0.00622
6009.75352	0.00624
6007.82484	0.00623
6005.89617	0.00623
6003.96749	0.00625
6002.03882	0.00626
6000.11014	0.00628
5998.18147	0.00630
5996.25279	0.00630
5994.32411	0.00629
5992.39544	0.00628
5990.46676	0.00628
5988.53809	0.00630
5986.60941	0.00633
5984.68074	0.00635
5982.75206	0.00636
5980.82338	0.00638
5978.89471	0.00642
5976.96603	0.00645
5975.03736	0.00647
5973.10868	0.00647
5971.18001	0.00646
5969.25133	0.00647
5967.32265	0.00649
5965.39398	0.00650
5963.46530	0.00652
5961.53663	0.00655
5959.60795	0.00658
5957.67928	0.00658
5955.75060	0.00658
5953.82192	0.00658
5951.89325	0.00660
5949.96457	0.00660
5948.03590	0.00661
5946.10722	0.00662
5944.17855	0.00664
5942.24987	0.00666
5940.32119	0.00666
5938.39252	0.00667
5936.46384	0.00668
5934.53517	0.00670
5932.60649	0.00673
5930.67782	0.00676
5928.74914	0.00677
5926.82046	0.00678
5924.89179	0.00679
5922.96311	0.00680
5921.03444	0.00681
5919.10576	0.00683
5917.17709	0.00684
5915.24841	0.00684
5913.31973	0.00686
5911.39106	0.00688
5909.46238	0.00690
5907.53371	0.00692
5905.60503	0.00694
5903.67636	0.00695
5901.74768	0.00695
5899.81900	0.00695
5897.89033	0.00696
5895.96165	0.00696
5894.03298	0.00698
5892.10430	0.00701
5890.17563	0.00704
5888.24695	0.00705
5886.31827	0.00707
5884.38960	0.00709
5882.46092	0.00711
5880.53225	0.00712
5878.60357	0.00713
5876.67490	0.00713
5874.74622	0.00716
5872.81755	0.00720
5870.88887	0.00721
5868.96019	0.00722
5867.03152	0.00723
5865.10284	0.00724
5863.17417	0.00724
5861.24549	0.00726
5859.31682	0.00729
5857.38814	0.00731
5855.45946	0.00734
5853.53079	0.00736
5851.60211	0.00737
5849.67344	0.00737
5847.74476	0.00737
5845.81609	0.00738
5843.88741	0.00741
5841.95873	0.00744
5840.03006	0.00745
5838.10138	0.00745
5836.17271	0.00744
5834.24403	0.00745
5832.31536	0.00747
5830.38668	0.00751
5828.45800	0.00753
5826.52933	0.00754
5824.60065	0.00756
5822.67198	0.00758
5820.74330	0.00759
5818.81463	0.00759
5816.88595	0.00760
5814.95727	0.00763
5813.02860	0.00767
5811.09992	0.00770
5809.17125	0.00771
5807.24257	0.00773
5805.31390	0.00773
5803.38522	0.00774
5801.45654	0.00776
5799.52787	0.00776
5797.59919	0.00776
5795.67052	0.00778
5793.74184	0.00780
5791.81317	0.00783
5789.88449	0.00784
5787.95581	0.00785
5786.02714	0.00786
5784.09846	0.00787
5782.16979	0.00787
5780.24111	0.00789
5778.31244	0.00791
5776.38376	0.00793
5774.45508	0.00795
5772.52641	0.00796
5770.59773	0.00797
5768.66906	0.00798
5766.74038	0.00799
5764.81171	0.00801
5762.88303	0.00804
5760.95435	0.00806
5759.02568	0.00808
5757.09700	0.00809
5755.16833	0.00812
5753.23965	0.00815
5751.31098	0.00817
5749.38230	0.00818
5747.45362	0.00819
5745.52495	0.00820
5743.59627	0.00822
5741.66760	0.00824
5739.73892	0.00826
5737.81025	0.00828
5735.88157	0.00829
5733.95289	0.00829
5732.02422	0.00830
5730.09554	0.00831
5728.16687	0.00833
5726.23819	0.00835
5724.30952	0.00838
5722.38084	0.00840
5720.45216	0.00842
5718.52349	0.00843
5716.59481	0.00844
5714.66614	0.00847
5712.73746	0.00849
5710.80879	0.00850
5708.88011	0.00850
5706.95143	0.00851
5705.02276	0.00852
5703.09408	0.00855
5701.16541	0.00859
5699.23673	0.00862
5697.30806	0.00864
5695.37938	0.00865
5693.45070	0.00867
5691.52203	0.00870
5689.59335	0.00871
5687.66468	0.00871
5685.73600	0.00872
5683.80733	0.00874
5681.87865	0.00875
5679.94997	0.00875
5678.02130	0.00877
5676.09262	0.00880
5674.16395	0.00883
5672.23527	0.00885
5670.30660	0.00886
5668.37792	0.00888
5666.44924	0.00890
5664.52057	0.00893
5662.59189	0.00895
5660.66322	0.00897
5658.73454	0.00897
5656.80587	0.00897
5654.87719	0.00899
5652.94851	0.00901
5651.01984	0.00903
5649.09116	0.00905
5647.16249	0.00907
5645.23381	0.00908
5643.30514	0.00910
5641.37646	0.00911
5639.44778	0.00913
5637.51911	0.00915
5635.59043	0.00918
5633.66176	0.00922
5631.73308	0.00924
5629.80441	0.00925
5627.87573	0.00926
5625.94705	0.00927
5624.01838	0.00928
5622.08970	0.00930
5620.16103	0.00933
5618.23235	0.00935
5616.30368	0.00935
5614.37500	0.00937
5612.44632	0.00940
5610.51765	0.00942
5608.58897	0.00943
5606.66030	0.00944
5604.73162	0.00946
5602.80295	0.00948
5600.87427	0.00948
5598.94559	0.00950
5597.01692	0.00953
5595.08824	0.00957
5593.15957	0.00960
5591.23089	0.00962
5589.30222	0.00964
5587.37354	0.00966
5585.44486	0.00967
5583.51619	0.00968
5581.58751	0.00969
5579.65884	0.00970
5577.73016	0.00972
5575.80149	0.00975
5573.87281	0.00978
5571.94413	0.00980
5570.01546	0.00981
5568.08678	0.00982
5566.15811	0.00984
5564.22943	0.00986
5562.30076	0.00988
5560.37208	0.00990
5558.44340	0.00992
5556.51473	0.00993
5554.58605	0.00994
5552.65738	0.00996
5550.72870	0.00998
5548.80003	0.01000
5546.87135	0.01002
5544.94267	0.01004
5543.01400	0.01007
5541.08532	0.01010
5539.15665	0.01012
5537.22797	0.01014
5535.29930	0.01015
5533.37062	0.01017
5531.44194	0.01019
5529.51327	0.01021
5527.58459	0.01024
5525.65592	0.01027
5523.72724	0.01028
5521.79857	0.01028
5519.86989	0.01030
5517.94121	0.01032
5516.01254	0.01035
5514.08386	0.01038
5512.15519	0.01039
5510.22651	0.01041
5508.29784	0.01043
5506.36916	0.01045
5504.44048	0.01045
5502.51181	0.01045
5500.58313	0.01047
5498.65446	0.01051
5496.72578	0.01054
5494.79711	0.01057
5492.86843	0.01058
5490.93975	0.01059
5489.01108	0.01060
5487.08240	0.01062
5485.15373	0.01064
5483.22505	0.01067
5481.29638	0.01070
5479.36770	0.01072
5477.43902	0.01073
5475.51035	0.01073
5473.58167	0.01074
5471.65300	0.01076
5469.72432	0.01080
5467.79565	0.01083
5465.86697	0.01085
5463.93829	0.01086
5462.00962	0.01088
5460.08094	0.01088
5458.15227	0.01091
5456.22359	0.01096
5454.29492	0.01099
5452.36624	0.01100
5450.43756	0.01101
5448.50889	0.01101
5446.58021	0.01101
5444.65154	0.01103
5442.72286	0.01105
5440.79419	0.01107
5438.86551	0.01111
5436.93683	0.01115
5435.00816	0.01120
5433.07948	0.01123
5431.15081	0.01123
5429.22213	0.01123
5427.29346	0.01126
5425.36478	0.01129
5423.43610	0.01132
5421.50743	0.01135
5419.57875	0.01140
5417.65008	0.01143
5415.72140	0.01143
5413.79273	0.01143
5411.86405	0.01145
5409.93537	0.01149
5408.00670	0.01151
5406.07802	0.01151
5404.14935	0.01153
5402.22067	0.01156
5400.29200	0.01158
5398.36332	0.01159
5396.43464	0.01160
5394.50597	0.01162
5392.57729	0.01164
5390.64862	0.01166
5388.71994	0.01169
5386.79127	0.01171
5384.86259	0.01175
5382.93391	0.01178
5381.00524	0.01180
5379.07656	0.01182
5377.14789	0.01184
5375.21921	0.01187
5373.29054	0.01188
5371.36186	0.01189
5369.43318	0.01191
5367.50451	0.01192
5365.57583	0.01194
5363.64716	0.01197
5361.71848	0.01201
5359.78981	0.01203
5357.86113	0.01205
5355.93245	0.01207
5354.00378	0.01210
5352.07510	0.01211
5350.14643	0.01213
5348.21775	0.01214
5346.28908	0.01214
5344.36040	0.01216
5342.43172	0.01221
5340.50305	0.01223
5338.57437	0.01222
5336.64570	0.01223
5334.71702	0.01228
5332.78835	0.01232
5330.85967	0.01236
5328.93099	0.01238
5327.00232	0.01238
5325.07364	0.01239
5323.14497	0.01243
5321.21629	0.01247
5319.28762	0.01250
5317.35894	0.01251
5315.43026	0.01253
5313.50159	0.01257
5311.57291	0.01261
5309.64424	0.01262
5307.71556	0.01262
5305.78689	0.01262
5303.85821	0.01264
5301.92953	0.01266
5300.00086	0.01268
5298.07218	0.01271
5296.14351	0.01274
5294.21483	0.01276
5292.28616	0.01279
5290.35748	0.01283
5288.42880	0.01286
5286.50013	0.01287
5284.57145	0.01286
5282.64278	0.01288
5280.71410	0.01291
5278.78543	0.01294
5276.85675	0.01295
5274.92807	0.01297
5272.99940	0.01299
5271.07072	0.01301
5269.14205	0.01305
5267.21337	0.01310
5265.28470	0.01313
5263.35602	0.01314
5261.42734	0.01316
5259.49867	0.01319
5257.56999	0.01321
5255.64132	0.01321
5253.71264	0.01321
5251.78397	0.01322
5249.85529	0.01323
5247.92661	0.01326
5245.99794	0.01329
5244.06926	0.01334
5242.14059	0.01339
5240.21191	0.01340
5238.28324	0.01342
5236.35456	0.01347
5234.42588	0.01351
5232.49721	0.01352
5230.56853	0.01351
5228.63986	0.01353
5226.71118	0.01355
5224.78251	0.01359
5222.85383	0.01363
5220.92515	0.01367
5218.99648	0.01368
5217.06780	0.01368
5215.13913	0.01371
5213.21045	0.01375
5211.28178	0.01377
5209.35310	0.01378
5207.42442	0.01380
5205.49575	0.01383
5203.56707	0.01386
5201.63840	0.01389
5199.70972	0.01391
5197.78105	0.01392
5195.85237	0.01394
5193.92369	0.01397
5191.99502	0.01401
5190.06634	0.01404
5188.13767	0.01406
5186.20899	0.01408
5184.28032	0.01411
5182.35164	0.01414
5180.42296	0.01417
5178.49429	0.01419
5176.56561	0.01421
5174.63694	0.01422
5172.70826	0.01423
5170.77959	0.01425
5168.85091	0.01429
5166.92223	0.01433
5164.99356	0.01436
5163.06488	0.01438
5161.13621	0.01442
5159.20753	0.01445
5157.27886	0.01447
5155.35018	0.01449
5153.42150	0.01451
5151.49283	0.01453
5149.56415	0.01455
5147.63548	0.01457
5145.70680	0.01458
5143.77813	0.01461
5141.84945	0.01464
5139.92077	0.01467
5137.99210	0.01468
5136.06342	0.01469
5134.13475	0.01471
5132.20607	0.01475
5130.27740	0.01478
5128.34872	0.01480
5126.42004	0.01483
5124.49137	0.01487
5122.56269	0.01490
5120.63402	0.01491
5118.70534	0.01493
5116.77667	0.01495
5114.84799	0.01497
5112.91931	0.01498
5110.99064	0.01502
5109.06196	0.01505
5107.13329	0.01506
5105.20461	0.01506
5103.27594	0.01508
5101.34726	0.01510
5099.41858	0.01513
5097.48991	0.01518
5095.56123	0.01523
5093.63256	0.01525
5091.70388	0.01527
5089.77521	0.01528
5087.84653	0.01530
5085.91785	0.01533
5083.98918	0.01537
5082.06050	0.01541
5080.13183	0.01544
5078.20315	0.01547
5076.27448	0.01551
5074.34580	0.01552
5072.41712	0.01553
5070.48845	0.01555
5068.55977	0.01558
5066.63110	0.01561
5064.70242	0.01563
5062.77375	0.01565
5060.84507	0.01569
5058.91639	0.01571
5056.98772	0.01573
5055.05904	0.01574
5053.13037	0.01576
5051.20169	0.01580
5049.27302	0.01585
5047.34434	0.01588
5045.41566	0.01589
5043.48699	0.01591
5041.55831	0.01593
5039.62964	0.01595
5037.70096	0.01599
5035.77229	0.01602
5033.84361	0.01604
5031.91493	0.01607
5029.98626	0.01609
5028.05758	0.01611
5026.12891	0.01613
5024.20023	0.01618
5022.27156	0.01622
5020.34288	0.01625
5018.41420	0.01626
5016.48553	0.01628
5014.55685	0.01631
5012.62818	0.01635
5010.69950	0.01638
5008.77083	0.01640
5006.84215	0.01642
5004.91347	0.01643
5002.98480	0.01644
5001.05612	0.01646
4999.12745	0.01650
4997.19877	0.01653
4995.27010	0.01655
4993.34142	0.01659
4991.41274	0.01664
4989.48407	0.01669
4987.55539	0.01671
4985.62672	0.01671
4983.69804	0.01672
4981.76937	0.01675
4979.84069	0.01680
4977.91201	0.01686
4975.98334	0.01689
4974.05466	0.01690
4972.12599	0.01691
4970.19731	0.01694
4968.26864	0.01697
4966.33996	0.01700
4964.41128	0.01703
4962.48261	0.01704
4960.55393	0.01705
4958.62526	0.01707
4956.69658	0.01710
4954.76791	0.01713
4952.83923	0.01715
4950.91055	0.01719
4948.98188	0.01723
4947.05320	0.01727
4945.12453	0.01730
4943.19585	0.01732
4941.26718	0.01734
4939.33850	0.01737
4937.40982	0.01740
4935.48115	0.01743
4933.55247	0.01746
4931.62380	0.01748
4929.69512	0.01752
4927.76645	0.01756
4925.83777	0.01758
4923.90909	0.01760
4921.98042	0.01761
4920.05174	0.01764
4918.12307	0.01768
4916.19439	0.01772
4914.26572	0.01773
4912.33704	0.01774
4910.40836	0.01778
4908.47969	0.01782
4906.55101	0.01784
4904.62234	0.01786
4902.69366	0.01788
4900.76499	0.01792
4898.83631	0.01796
4896.90763	0.01800
4894.97896	0.01803
4893.05028	0.01803
4891.12161	0.01803
4889.19293	0.01805
4887.26426	0.01809
4885.33558	0.01813
4883.40690	0.01817
4881.47823	0.01821
4879.54955	0.01825
4877.62088	0.01829
4875.69220	0.01832
4873.76353	0.01834
4871.83485	0.01837
4869.90617	0.01840
4867.97750	0.01842
4866.04882	0.01845
4864.12015	0.01848
4862.19147	0.01852
4860.26280	0.01855
4858.33412	0.01857
4856.40544	0.01860
4854.47677	0.01861
4852.54809	0.01862
4850.61942	0.01864
4848.69074	0.01870
4846.76207	0.01875
4844.83339	0.01878
4842.90471	0.01880
4840.97604	0.01882
4839.04736	0.01885
4837.11869	0.01886
4835.19001	0.01888
4833.26134	0.01892
4831.33266	0.01895
4829.40398	0.01897
4827.47531	0.01901
4825.54663	0.01906
4823.61796	0.01910
4821.68928	0.01911
4819.76061	0.01913
4817.83193	0.01916
4815.90325	0.01919
4813.97458	0.01923
4812.04590	0.01928
4810.11723	0.01933
4808.18855	0.01936
4806.25988	0.01938
4804.33120	0.01940
4802.40252	0.01942
4800.47385	0.01943
4798.54517	0.01947
4796.61650	0.01951
4794.68782	0.01956
4792.75915	0.01961
4790.83047	0.01965
4788.90179	0.01967
4786.97312	0.01968
4785.04444	0.01971
4783.11577	0.01973
4781.18709	0.01976
4779.25842	0.01979
4777.32974	0.01981
4775.40106	0.01985
4773.47239	0.01989
4771.54371	0.01994
4769.61504	0.01998
4767.68636	0.01999
4765.75769	0.02001
4763.82901	0.02004
4761.90033	0.02007
4759.97166	0.02011
4758.04298	0.02016
4756.11431	0.02021
4754.18563	0.02023
4752.25696	0.02025
4750.32828	0.02028
4748.39960	0.02031
4746.47093	0.02035
4744.54225	0.02039
4742.61358	0.02042
4740.68490	0.02043
4738.75623	0.02044
4736.82755	0.02047
4734.89887	0.02051
4732.97020	0.02055
4731.04152	0.02059
4729.11285	0.02063
4727.18417	0.02066
4725.25550	0.02068
4723.32682	0.02072
4721.39814	0.02076
4719.46947	0.02080
4717.54079	0.02083
4715.61212	0.02086
4713.68344	0.02088
4711.75477	0.02092
4709.82609	0.02096
4707.89741	0.02099
4705.96874	0.02102
4704.04006	0.02106
4702.11139	0.02110
4700.18271	0.02114
4698.25404	0.02118
4696.32536	0.02121
4694.39668	0.02124
4692.46801	0.02126
4690.53933	0.02129
4688.61066	0.02132
4686.68198	0.02135
4684.75331	0.02137
4682.82463	0.02142
4680.89595	0.02147
4678.96728	0.02151
4677.03860	0.02154
4675.10993	0.02157
4673.18125	0.02161
4671.25258	0.02166
4669.32390	0.02170
4667.39522	0.02172
4665.46655	0.02174
4663.53787	0.02176
4661.60920	0.02178
4659.68052	0.02181
4657.75185	0.02187
4655.82317	0.02191
4653.89449	0.02194
4651.96582	0.02198
4650.03714	0.02200
4648.10847	0.02201
4646.17979	0.02205
4644.25112	0.02211
4642.32244	0.02216
4640.39376	0.02219
4638.46509	0.02221
4636.53641	0.02223
4634.60774	0.02227
4632.67906	0.02232
4630.75039	0.02236
4628.82171	0.02240
4626.89303	0.02243
4624.96436	0.02246
4623.03568	0.02250
4621.10701	0.02254
4619.17833	0.02258
4617.24966	0.02262
4615.32098	0.02265
4613.39230	0.02268
4611.46363	0.02272
4609.53495	0.02276
4607.60628	0.02281
4605.67760	0.02285
4603.74893	0.02288
4601.82025	0.02290
4599.89157	0.02294
4597.96290	0.02300
4596.03422	0.02306
4594.10555	0.02309
4592.17687	0.02312
4590.24820	0.02316
4588.31952	0.02319
4586.39084	0.02322
4584.46217	0.02324
4582.53349	0.02328
4580.60482	0.02333
4578.67614	0.02337
4576.74747	0.02342
4574.81879	0.02347
4572.89011	0.02350
4570.96144	0.02352
4569.03276	0.02356
4567.10409	0.02359
4565.17541	0.02363
4563.24674	0.02365
4561.31806	0.02368
4559.38938	0.02373
4557.46071	0.02379
4555.53203	0.02383
4553.60336	0.02388
4551.67468	0.02393
4549.74601	0.02397
4547.81733	0.02400
4545.88865	0.02403
4543.95998	0.02406
4542.03130	0.02409
4540.10263	0.02413
4538.17395	0.02419
4536.24528	0.02422
4534.31660	0.02426
4532.38792	0.02431
4530.45925	0.02436
4528.53057	0.02439
4526.60190	0.02441
4524.67322	0.02444
4522.74455	0.02449
4520.81587	0.02454
4518.88719	0.02461
4516.95852	0.02467
4515.02984	0.02472
4513.10117	0.02475
4511.17249	0.02478
4509.24382	0.02481
4507.31514	0.02486
4505.38646	0.02492
4503.45779	0.02496
4501.52911	0.02500
4499.60044	0.02505
4497.67176	0.02510
4495.74309	0.02510
4493.81441	0.02511
4491.88573	0.02517
4489.95706	0.02524
4488.02838	0.02530
4486.09971	0.02535
4484.17103	0.02539
4482.24236	0.02543
4480.31368	0.02546
4478.38500	0.02551
4476.45633	0.02557
4474.52765	0.02560
4472.59898	0.02561
4470.67030	0.02563
4468.74163	0.02568
4466.81295	0.02574
4464.88427	0.02579
4462.95560	0.02582
4461.02692	0.02586
4459.09825	0.02589
4457.16957	0.02593
4455.24090	0.02597
4453.31222	0.02603
4451.38354	0.02609
4449.45487	0.02613
4447.52619	0.02617
4445.59752	0.02623
4443.66884	0.02628
4441.74017	0.02631
4439.81149	0.02633
4437.88281	0.02639
4435.95414	0.02647
4434.02546	0.02653
4432.09679	0.02659
4430.16811	0.02663
4428.23944	0.02666
4426.31076	0.02669
4424.38208	0.02672
4422.45341	0.02675
4420.52473	0.02679
4418.59606	0.02684
4416.66738	0.02691
4414.73871	0.02696
4412.81003	0.02701
4410.88135	0.02707
4408.95268	0.02710
4407.02400	0.02711
4405.09533	0.02713
4403.16665	0.02716
4401.23798	0.02721
4399.30930	0.02728
4397.38062	0.02735
4395.45195	0.02743
4393.52327	0.02749
4391.59460	0.02752
4389.66592	0.02753
4387.73725	0.02757
4385.80857	0.02764
4383.87989	0.02769
4381.95122	0.02774
4380.02254	0.02780
4378.09387	0.02787
4376.16519	0.02791
4374.23652	0.02794
4372.30784	0.02796
4370.37916	0.02801
4368.45049	0.02807
4366.52181	0.02813
4364.59314	0.02819
4362.66446	0.02826
4360.73579	0.02831
4358.80711	0.02834
4356.87843	0.02837
4354.94976	0.02842
4353.02108	0.02848
4351.09241	0.02853
4349.16373	0.02858
4347.23506	0.02863
4345.30638	0.02869
4343.37770	0.02874
4341.44903	0.02880
4339.52035	0.02885
4337.59168	0.02889
4335.66300	0.02890
4333.73433	0.02892
4331.80565	0.02897
4329.87697	0.02905
4327.94830	0.02912
4326.01962	0.02919
4324.09095	0.02926
4322.16227	0.02933
4320.23360	0.02937
4318.30492	0.02942
4316.37624	0.02947
4314.44757	0.02953
4312.51889	0.02957
4310.59022	0.02961
4308.66154	0.02967
4306.73287	0.02975
4304.80419	0.02981
4302.87551	0.02986
4300.94684	0.02990
4299.01816	0.02993
4297.08949	0.02999
4295.16081	0.03007
4293.23214	0.03012
4291.30346	0.03017
4289.37478	0.03024
4287.44611	0.03030
4285.51743	0.03034
4283.58876	0.03038
4281.66008	0.03043
4279.73141	0.03049
4277.80273	0.03056
4275.87405	0.03063
4273.94538	0.03066
4272.01670	0.03069
4270.08803	0.03073
4268.15935	0.03078
4266.23068	0.03086
4264.30200	0.03093
4262.37332	0.03099
4260.44465	0.03104
4258.51597	0.03110
4256.58730	0.03115
4254.65862	0.03121
4252.72995	0.03128
4250.80127	0.03133
4248.87259	0.03137
4246.94392	0.03142
4245.01524	0.03147
4243.08657	0.03153
4241.15789	0.03159
4239.22922	0.03164
4237.30054	0.03170
4235.37186	0.03176
4233.44319	0.03182
4231.51451	0.03188
4229.58584	0.03194
4227.65716	0.03200
4225.72849	0.03207
4223.79981	0.03215
4221.87113	0.03222
4219.94246	0.03226
4218.01378	0.03229
4216.08511	0.03233
4214.15643	0.03239
4212.22776	0.03245
4210.29908	0.03252
4208.37040	0.03258
4206.44173	0.03266
4204.51305	0.03275
4202.58438	0.03284
4200.65570	0.03290
4198.72703	0.03295
4196.79835	0.03300
4194.86968	0.03307
4192.94100	0.03313
4191.01232	0.03317
4189.08365	0.03321
4187.15497	0.03326
4185.22630	0.03334
4183.29762	0.03342
4181.36895	0.03349
4179.44027	0.03354
4177.51159	0.03358
4175.58292	0.03363
4173.65424	0.03368
4171.72557	0.03375
4169.79689	0.03382
4167.86822	0.03387
4165.93954	0.03391
4164.01086	0.03397
4162.08219	0.03404
4160.15351	0.03412
4158.22484	0.03420
4156.29616	0.03427
4154.36749	0.03433
4152.43881	0.03437
4150.51013	0.03442
4148.58146	0.03447
4146.65278	0.03455
4144.72411	0.03465
4142.79543	0.03475
4140.86676	0.03483
4138.93808	0.03488
4137.00940	0.03492
4135.08073	0.03497
4133.15205	0.03503
4131.22338	0.03512
4129.29470	0.03520
4127.36603	0.03527
4125.43735	0.03535
4123.50867	0.03542
4121.58000	0.03547
4119.65132	0.03551
4117.72265	0.03557
4115.79397	0.03564
4113.86530	0.03571
4111.93662	0.03578
4110.00794	0.03584
4108.07927	0.03588
4106.15059	0.03594
4104.22192	0.03602
4102.29324	0.03610
4100.36457	0.03617
4098.43589	0.03624
4096.50721	0.03631
4094.57854	0.03635
4092.64986	0.03639
4090.72119	0.03647
4088.79251	0.03657
4086.86384	0.03667
4084.93516	0.03675
4083.00648	0.03683
4081.07781	0.03690
4079.14913	0.03695
4077.22046	0.03699
4075.29178	0.03704
4073.36311	0.03710
4071.43443	0.03720
4069.50575	0.03731
4067.57708	0.03740
4065.64840	0.03745
4063.71973	0.03751
4061.79105	0.03757
4059.86238	0.03765
4057.93370	0.03771
4056.00502	0.03777
4054.07635	0.03785
4052.14767	0.03792
4050.21900	0.03799
4048.29032	0.03806
4046.36165	0.03813
4044.43297	0.03820
4042.50429	0.03828
4040.57562	0.03835
4038.64694	0.03841
4036.71827	0.03846
4034.78959	0.03852
4032.86092	0.03857
4030.93224	0.03864
4029.00356	0.03873
4027.07489	0.03883
4025.14621	0.03893
4023.21754	0.03902
4021.28886	0.03911
4019.36019	0.03920
4017.43151	0.03926
4015.50283	0.03930
4013.57416	0.03936
4011.64548	0.03941
4009.71681	0.03947
4007.78813	0.03954
4005.85946	0.03963
4003.93078	0.03972
4002.00210	0.03979
4000.07343	0.03985
3998.14475	0.03993
3996.21608	0.04000
3994.28740	0.04009
3992.35873	0.04018
3990.43005	0.04027
3988.50137	0.04037
3986.57270	0.04046
3984.64402	0.04053
3982.71535	0.04057
3980.78667	0.04063
3978.85800	0.04071
3976.92932	0.04079
3975.00064	0.04086
3973.07197	0.04094
3971.14329	0.04101
3969.21462	0.04109
3967.28594	0.04116
3965.35727	0.04123
3963.42859	0.04130
3961.49991	0.04138
3959.57124	0.04146
3957.64256	0.04153
3955.71389	0.04159
3953.78521	0.04166
3951.85654	0.04174
3949.92786	0.04181
3947.99918	0.04188
3946.07051	0.04196
3944.14183	0.04206
3942.21316	0.04217
3940.28448	0.04226
3938.35581	0.04233
3936.42713	0.04239
3934.49845	0.04242
3932.56978	0.04245
3930.64110	0.04251
3928.71243	0.04262
3926.78375	0.04273
3924.85508	0.04282
3922.92640	0.04291
3920.99772	0.04298
3919.06905	0.04301
3917.14037	0.04307
3915.21170	0.04320
3913.28302	0.04333
3911.35435	0.04343
3909.42567	0.04350
3907.49699	0.04350
3905.56832	0.04346
3903.63964	0.04346
3901.71097	0.04353
3899.78229	0.04366
3897.85362	0.04387
3895.92494	0.04404
3893.99626	0.04408
3892.06759	0.04407
3890.13891	0.04417
3888.21024	0.04427
3886.28156	0.04430
3884.35289	0.04437
3882.42421	0.04445
3880.49553	0.04451
3878.56686	0.04466
3876.63818	0.04481
3874.70951	0.04488
3872.78083	0.04487
3870.85216	0.04485
3868.92348	0.04493
3866.99480	0.04508
3865.06613	0.04517
3863.13745	0.04527
3861.20878	0.04544
3859.28010	0.04556
3857.35143	0.04546
3855.42275	0.04521
3853.49407	0.04521
3851.56540	0.04560
3849.63672	0.04599
3847.70805	0.04617
3845.77937	0.04619
3843.85070	0.04617
3841.92202	0.04620
3839.99334	0.04627
3838.06467	0.04635
3836.13599	0.04644
3834.20732	0.04655
3832.27864	0.04666
3830.34997	0.04680
3828.42129	0.04693
3826.49261	0.04704
3824.56394	0.04707
3822.63526	0.04700
3820.70659	0.04700
3818.77791	0.04715
3816.84924	0.04729
3814.92056	0.04746
3812.99188	0.04769
3811.06321	0.04783
3809.13453	0.04788
3807.20586	0.04793
3805.27718	0.04797
3803.34851	0.04793
3801.41983	0.04792
3799.49115	0.04809
3797.56248	0.04829
3795.63380	0.04845
3793.70513	0.04862
3791.77645	0.04875
3789.84778	0.04883
3787.91910	0.04889
3785.99042	0.04894
3784.06175	0.04900
3782.13307	0.04905
3780.20440	0.04911
3778.27572	0.04923
3776.34705	0.04940
3774.41837	0.04950
3772.48969	0.04955
3770.56102	0.04960
3768.63234	0.04970
3766.70367	0.04979
3764.77499	0.04989
3762.84632	0.04996
3760.91764	0.04998
3758.98896	0.05001
3757.06029	0.05010
3755.13161	0.05012
3753.20294	0.05002
3751.27426	0.04996
3749.34559	0.05004
3747.41691	0.05012
3745.48823	0.05011
3743.55956	0.05031
3741.63088	0.05071
3739.70221	0.05093
3737.77353	0.05091
3735.84486	0.05089
3733.91618	0.05102
3731.98750	0.05125
3730.05883	0.05143
3728.13015	0.05149
3726.20148	0.05154
3724.27280	0.05165
3722.34413	0.05178
3720.41545	0.05188
3718.48677	0.05200
3716.55810	0.05212
3714.62942	0.05216
3712.70075	0.05214
3710.77207	0.05222
3708.84340	0.05241
3706.91472	0.05261
3704.98604	0.05273
3703.05737	0.05279
3701.12869	0.05287
3699.20002	0.05300
3697.27134	0.05311
3695.34267	0.05317
3693.41399	0.05318
3691.48531	0.05313
3689.55664	0.05310
3687.62796	0.05327
3685.69929	0.05354
3683.77061	0.05371
3681.84194	0.05379
3679.91326	0.05383
3677.98458	0.05381
3676.05591	0.05378
3674.12723	0.05387
3672.19856	0.05397
3670.26988	0.05405
3668.34121	0.05425
3666.41253	0.05448
3664.48385	0.05461
3662.55518	0.05469
3660.62650	0.05478
3658.69783	0.05483
3656.76915	0.05487
3654.84048	0.05490
3652.91180	0.05482
3650.98312	0.05463
3649.05445	0.05452
3647.12577	0.05466
3645.19710	0.05500
3643.26842	0.05533
3641.33975	0.05555
3639.41107	0.05568
3637.48239	0.05576
3635.55372	0.05582
3633.62504	0.05583
3631.69637	0.05572
3629.76769	0.05557
3627.83902	0.05566
3625.91034	0.05598
3623.98166	0.05619
3622.05299	0.05619
3620.12431	0.05616
3618.19564	0.05620
3616.26696	0.05631
3614.33829	0.05638
3612.40961	0.05639
3610.48093	0.05639
3608.55226	0.05648
3606.62358	0.05670
3604.69491	0.05692
3602.76623	0.05701
3600.83756	0.05704
3598.90888	0.05709
3596.98020	0.05718
3595.05153	0.05724
3593.12285	0.05729
3591.19418	0.05733
3589.26550	0.05731
3587.33683	0.05731
3585.40815	0.05744
3583.47947	0.05762
3581.55080	0.05775
3579.62212	0.05785
3577.69345	0.05796
3575.76477	0.05805
3573.83610	0.05813
3571.90742	0.05815
3569.97874	0.05808
3568.05007	0.05803
3566.12139	0.05813
3564.19272	0.05832
3562.26404	0.05847
3560.33537	0.05856
3558.40669	0.05863
3556.47801	0.05873
3554.54934	0.05882
3552.62066	0.05889
3550.69199	0.05896
3548.76331	0.05897
3546.83464	0.05895
3544.90596	0.05900
3542.97728	0.05912
3541.04861	0.05923
3539.11993	0.05930
3537.19126	0.05939
3535.26258	0.05949
3533.33391	0.05953
3531.40523	0.05949
3529.47655	0.05946
3527.54788	0.05949
3525.61920	0.05957
3523.69053	0.05965
3521.76185	0.05972
3519.83318	0.05979
3517.90450	0.05985
3515.97582	0.05993
3514.04715	0.06000
3512.11847	0.06003
3510.18980	0.06003
3508.26112	0.06002
3506.33245	0.06004
3504.40377	0.06007
3502.47509	0.06010
3500.54642	0.06014
3498.61774	0.06018
3496.68907	0.06022
3494.76039	0.06026
3492.83172	0.06029
3490.90304	0.06030
3488.97436	0.06031
3487.04569	0.06033
3485.11701	0.06034
3483.18834	0.06034
3481.25966	0.06037
3479.33099	0.06048
3477.40231	0.06059
3475.47363	0.06066
3473.54496	0.06072
3471.61628	0.06081
3469.68761	0.06089
3467.75893	0.06096
3465.83026	0.06106
3463.90158	0.06120
3461.97290	0.06131
3460.04423	0.06139
3458.11555	0.06146
3456.18688	0.06156
3454.25820	0.06167
3452.32953	0.06178
3450.40085	0.06185
3448.47217	0.06188
3446.54350	0.06195
3444.61482	0.06208
3442.68615	0.06224
3440.75747	0.06240
3438.82880	0.06256
3436.90012	0.06273
3434.97144	0.06291
3433.04277	0.06309
3431.11409	0.06326
3429.18542	0.06343
3427.25674	0.06361
3425.32807	0.06383
3423.39939	0.06404
3421.47071	0.06421
3419.54204	0.06437
3417.61336	0.06455
3415.68469	0.06473
3413.75601	0.06488
3411.82734	0.06502
3409.89866	0.06519
3407.96998	0.06534
3406.04131	0.06544
3404.11263	0.06555
3402.18396	0.06567
3400.25528	0.06579
3398.32661	0.06594
3396.39793	0.06611
3394.46925	0.06625
3392.54058	0.06638
3390.61190	0.06653
3388.68323	0.06667
3386.75455	0.06680
3384.82588	0.06692
3382.89720	0.06705
3380.96852	0.06720
3379.03985	0.06733
3377.11117	0.06745
3375.18250	0.06758
3373.25382	0.06771
3371.32515	0.06780
3369.39647	0.06788
3367.46779	0.06799
3365.53912	0.06813
3363.61044	0.06827
3361.68177	0.06842
3359.75309	0.06858
3357.82442	0.06871
3355.89574	0.06883
3353.96706	0.06893
3352.03839	0.06903
3350.10971	0.06914
3348.18104	0.06926
3346.25236	0.06941
3344.32369	0.06954
3342.39501	0.06965
3340.46633	0.06973
3338.53766	0.06982
3336.60898	0.06995
3334.68031	0.07013
3332.75163	0.07029
3330.82296	0.07040
3328.89428	0.07048
3326.96560	0.07059
3325.03693	0.07072
3323.10825	0.07084
3321.17958	0.07097
3319.25090	0.07112
3317.32223	0.07126
3315.39355	0.07139
3313.46487	0.07153
3311.53620	0.07167
3309.60752	0.07178
3307.67885	0.07188
3305.75017	0.07201
3303.82150	0.07215
3301.89282	0.07230
3299.96414	0.07243
3298.03547	0.07253
3296.10679	0.07263
3294.17812	0.07275
3292.24944	0.07289
3290.32077	0.07304
3288.39209	0.07319
3286.46341	0.07335
3284.53474	0.07349
3282.60606	0.07361
3280.67739	0.07372
3278.74871	0.07385
3276.82004	0.07398
3274.89136	0.07412
3272.96268	0.07427
3271.03401	0.07443
3269.10533	0.07455
3267.17666	0.07466
3265.24798	0.07478
3263.31931	0.07492
3261.39063	0.07506
3259.46195	0.07520
3257.53328	0.07535
3255.60460	0.07549
3253.67593	0.07562
3251.74725	0.07576
3249.81858	0.07592
3247.88990	0.07608
3245.96122	0.07620
3244.03255	0.07629
3242.10387	0.07640
3240.17520	0.07651
3238.24652	0.07664
3236.31785	0.07679
3234.38917	0.07695
3232.46049	0.07711
3230.53182	0.07725
3228.60314	0.07739
3226.67447	0.07752
3224.74579	0.07763
3222.81712	0.07775
3220.88844	0.07788
3218.95976	0.07803
3217.03109	0.07817
3215.10241	0.07829
3213.17374	0.07842
3211.24506	0.07855
3209.31639	0.07868
3207.38771	0.07882
3205.45903	0.07897
3203.53036	0.07912
3201.60168	0.07926
3199.67301	0.07940
3197.74433	0.07954
3195.81566	0.07968
3193.88698	0.07985
3191.95830	0.08003
3190.02963	0.08021
3188.10095	0.08034
3186.17228	0.08044
3184.24360	0.08056
3182.31493	0.08071
3180.38625	0.08084
3178.45757	0.08096
3176.52890	0.08112
3174.60022	0.08129
3172.67155	0.08145
3170.74287	0.08159
3168.81420	0.08172
3166.88552	0.08186
3164.95684	0.08200
3163.02817	0.08211
3161.09949	0.08224
3159.17082	0.08240
3157.24214	0.08256
3155.31347	0.08270
3153.38479	0.08283
3151.45611	0.08295
3149.52744	0.08308
3147.59876	0.08324
3145.67009	0.08338
3143.74141	0.08349
3141.81274	0.08360
3139.88406	0.08376
3137.95538	0.08392
3136.02671	0.08404
3134.09803	0.08416
3132.16936	0.08432
3130.24068	0.08448
3128.31201	0.08462
3126.38333	0.08476
3124.45465	0.08488
3122.52598	0.08499
3120.59730	0.08511
3118.66863	0.08525
3116.73995	0.08542
3114.81128	0.08562
3112.88260	0.08577
3110.95392	0.08586
3109.02525	0.08598
3107.09657	0.08614
3105.16790	0.08630
3103.23922	0.08646
3101.31055	0.08658
3099.38187	0.08668
3097.45319	0.08682
3095.52452	0.08699
3093.59584	0.08715
3091.66717	0.08727
3089.73849	0.08739
3087.80982	0.08752
3085.88114	0.08766
3083.95246	0.08782
3082.02379	0.08797
3080.09511	0.08810
3078.16644	0.08821
3076.23776	0.08833
3074.30909	0.08846
3072.38041	0.08860
3070.45173	0.08876
3068.52306	0.08892
3066.59438	0.08908
3064.66571	0.08923
3062.73703	0.08937
3060.80836	0.08948
3058.87968	0.08959
3056.95100	0.08971
3055.02233	0.08982
3053.09365	0.08995
3051.16498	0.09012
3049.23630	0.09029
3047.30763	0.09043
3045.37895	0.09055
3043.45027	0.09068
3041.52160	0.09082
3039.59292	0.09096
3037.66425	0.09109
3035.73557	0.09120
3033.80690	0.09133
3031.87822	0.09152
3029.94954	0.09170
3028.02087	0.09184
3026.09219	0.09195
3024.16352	0.09209
3022.23484	0.09224
3020.30617	0.09239
3018.37749	0.09254
3016.44881	0.09266
3014.52014	0.09276
3012.59146	0.09286
3010.66279	0.09299
3008.73411	0.09314
3006.80544	0.09328
3004.87676	0.09343
3002.94808	0.09360
3001.01941	0.09376
2999.09073	0.09392
2997.16206	0.09407
2995.23338	0.09417
2993.30471	0.09424
2991.37603	0.09436
2989.44735	0.09451
2987.51868	0.09463
2985.59000	0.09475
2983.66133	0.09483
2981.73265	0.09489
2979.80398	0.09496
2977.87530	0.09499
2975.94662	0.09500
2974.01795	0.09501
2972.08927	0.09500
2970.16060	0.09495
2968.23192	0.09491
2966.30325	0.09490
2964.37457	0.09495
2962.44589	0.09506
2960.51722	0.09520
2958.58854	0.09537
2956.65987	0.09555
2954.73119	0.09572
2952.80252	0.09589
2950.87384	0.09608
2948.94516	0.09627
2947.01649	0.09644
2945.08781	0.09652
2943.15914	0.09653
2941.23046	0.09654
2939.30179	0.09655
2937.37311	0.09653
2935.44443	0.09649
2933.51576	0.09645
2931.58708	0.09642
2929.65841	0.09639
2927.72973	0.09638
2925.80106	0.09638
2923.87238	0.09638
2921.94370	0.09641
2920.01503	0.09650
2918.08635	0.09667
2916.15768	0.09699
2914.22900	0.09743
2912.30033	0.09792
2910.37165	0.09835
2908.44297	0.09870
2906.51430	0.09899
2904.58562	0.09929
2902.65695	0.09955
2900.72827	0.09977
2898.79960	0.09995
2896.87092	0.10014
2894.94224	0.10034
2893.01357	0.10053
2891.08489	0.10074
2889.15622	0.10096
2887.22754	0.10113
2885.29887	0.10126
2883.37019	0.10139
2881.44151	0.10155
2879.51284	0.10169
2877.58416	0.10181
2875.65549	0.10193
2873.72681	0.10205
2871.79814	0.10219
2869.86946	0.10235
2867.94078	0.10250
2866.01211	0.10263
2864.08343	0.10271
2862.15476	0.10278
2860.22608	0.10280
2858.29741	0.10279
2856.36873	0.10276
2854.44005	0.10273
2852.51138	0.10275
2850.58270	0.10284
2848.65403	0.10310
2846.72535	0.10356
2844.79668	0.10408
2842.86800	0.10449
2840.93932	0.10480
2839.01065	0.10508
2837.08197	0.10533
2835.15330	0.10552
2833.22462	0.10570
2831.29595	0.10591
2829.36727	0.10613
2827.43859	0.10632
2825.50992	0.10650
2823.58124	0.10671
2821.65257	0.10689
2819.72389	0.10704
2817.79522	0.10717
2815.86654	0.10730
2813.93786	0.10743
2812.00919	0.10755
2810.08051	0.10770
2808.15184	0.10788
2806.22316	0.10805
2804.29449	0.10821
2802.36581	0.10838
2800.43713	0.10855
2798.50846	0.10871
2796.57978	0.10889
2794.65111	0.10907
2792.72243	0.10922
2790.79376	0.10936
2788.86508	0.10949
2786.93640	0.10963
2785.00773	0.10977
2783.07905	0.10990
2781.15038	0.11003
2779.22170	0.11016
2777.29303	0.11033
2775.36435	0.11052
2773.43567	0.11067
2771.50700	0.11080
2769.57832	0.11096
2767.64965	0.11116
2765.72097	0.11134
2763.79230	0.11151
2761.86362	0.11166
2759.93494	0.11180
2758.00627	0.11192
2756.07759	0.11204
2754.14892	0.11217
2752.22024	0.11230
2750.29157	0.11242
2748.36289	0.11257
2746.43421	0.11273
2744.50554	0.11288
2742.57686	0.11303
2740.64819	0.11317
2738.71951	0.11332
2736.79084	0.11346
2734.86216	0.11359
2732.93348	0.11371
2731.00481	0.11385
2729.07613	0.11401
2727.14746	0.11418
2725.21878	0.11433
2723.29011	0.11448
2721.36143	0.11464
2719.43275	0.11482
2717.50408	0.11497
2715.57540	0.11508
2713.64673	0.11517
2711.71805	0.11528
2709.78938	0.11544
2707.86070	0.11562
2705.93202	0.11580
2704.00335	0.11594
2702.07467	0.11604
2700.14600	0.11616
2698.21732	0.11632
2696.28865	0.11650
2694.35997	0.11666
2692.43129	0.11678
2690.50262	0.11689
2688.57394	0.11702
2686.64527	0.11718
2684.71659	0.11738
2682.78792	0.11756
2680.85924	0.11768
2678.93056	0.11779
2677.00189	0.11793
2675.07321	0.11808
2673.14454	0.11821
2671.21586	0.11834
2669.28719	0.11849
2667.35851	0.11865
2665.42983	0.11879
2663.50116	0.11894
2661.57248	0.11909
2659.64381	0.11923
2657.71513	0.11940
2655.78646	0.11960
2653.85778	0.11978
2651.92910	0.11992
2650.00043	0.12003
2648.07175	0.12015
2646.14308	0.12027
2644.21440	0.12040
2642.28573	0.12056
2640.35705	0.12075
2638.42837	0.12093
2636.49970	0.12109
2634.57102	0.12123
2632.64235	0.12139
2630.71367	0.12155
2628.78500	0.12170
2626.85632	0.12186
2624.92764	0.12204
2622.99897	0.12221
2621.07029	0.12235
2619.14162	0.12248
2617.21294	0.12262
2615.28427	0.12278
2613.35559	0.12296
2611.42691	0.12313
2609.49824	0.12329
2607.56956	0.12346
2605.64089	0.12363
2603.71221	0.12375
2601.78354	0.12387
2599.85486	0.12402
2597.92618	0.12418
2595.99751	0.12434
2594.06883	0.12450
2592.14016	0.12468
2590.21148	0.12486
2588.28281	0.12502
2586.35413	0.12514
2584.42545	0.12528
2582.49678	0.12545
2580.56810	0.12560
2578.63943	0.12575
2576.71075	0.12589
2574.78208	0.12603
2572.85340	0.12618
2570.92472	0.12630
2568.99605	0.12641
2567.06737	0.12659
2565.13870	0.12682
2563.21002	0.12701
2561.28135	0.12716
2559.35267	0.12729
2557.42399	0.12741
2555.49532	0.12755
2553.56664	0.12768
2551.63797	0.12779
2549.70929	0.12789
2547.78062	0.12801
2545.85194	0.12818
2543.92326	0.12837
2541.99459	0.12857
2540.06591	0.12874
2538.13724	0.12886
2536.20856	0.12898
2534.27989	0.12912
2532.35121	0.12925
2530.42253	0.12942
2528.49386	0.12962
2526.56518	0.12980
2524.63651	0.12994
2522.70783	0.13004
2520.77916	0.13015
2518.85048	0.13028
2516.92181	0.13045
2514.99313	0.13068
2513.06445	0.13092
2511.13578	0.13111
2509.20710	0.13124
2507.27843	0.13135
2505.34975	0.13146
2503.42108	0.13160
2501.49240	0.13177
2499.56372	0.13194
2497.63505	0.13213
2495.70637	0.13233
2493.77770	0.13252
2491.84902	0.13268
2489.92035	0.13287
2487.99167	0.13305
2486.06299	0.13321
2484.13432	0.13336
2482.20564	0.13352
2480.27697	0.13371
2478.34829	0.13389
2476.41962	0.13405
2474.49094	0.13420
2472.56226	0.13436
2470.63359	0.13449
2468.70491	0.13463
2466.77624	0.13479
2464.84756	0.13496
2462.91889	0.13511
2460.99021	0.13525
2459.06153	0.13542
2457.13286	0.13562
2455.20418	0.13580
2453.27551	0.13596
2451.34683	0.13610
2449.41816	0.13624
2447.48948	0.13640
2445.56080	0.13654
2443.63213	0.13668
2441.70345	0.13687
2439.77478	0.13705
2437.84610	0.13722
2435.91743	0.13740
2433.98875	0.13756
2432.06007	0.13770
2430.13140	0.13784
2428.20272	0.13796
2426.27405	0.13810
2424.34537	0.13828
2422.41670	0.13846
2420.48802	0.13862
2418.55934	0.13878
2416.63067	0.13897
2414.70199	0.13915
2412.77332	0.13930
2410.84464	0.13945
2408.91597	0.13960
2406.98729	0.13975
2405.05861	0.13993
2403.12994	0.14013
2401.20126	0.14029
2399.27259	0.14042
2397.34391	0.14055
2395.41524	0.14067
2393.48656	0.14078
2391.55788	0.14093
2389.62921	0.14112
2387.70053	0.14129
2385.77186	0.14142
2383.84318	0.14156
2381.91451	0.14168
2379.98583	0.14176
2378.05715	0.14182
2376.12848	0.14189
2374.19980	0.14192
2372.27113	0.14190
2370.34245	0.14189
2368.41378	0.14195
2366.48510	0.14206
2364.55642	0.14217
2362.62775	0.14226
2360.69907	0.14240
2358.77040	0.14259
2356.84172	0.14284
2354.91305	0.14314
2352.98437	0.14349
2351.05569	0.14382
2349.12702	0.14404
2347.19834	0.14411
2345.26967	0.14410
2343.34099	0.14418
2341.41232	0.14433
2339.48364	0.14447
2337.55496	0.14459
2335.62629	0.14470
2333.69761	0.14484
2331.76894	0.14500
2329.84026	0.14517
2327.91159	0.14538
2325.98291	0.14561
2324.05423	0.14585
2322.12556	0.14610
2320.19688	0.14633
2318.26821	0.14653
2316.33953	0.14675
2314.41086	0.14697
2312.48218	0.14720
2310.55350	0.14742
2308.62483	0.14763
2306.69615	0.14781
2304.76748	0.14797
2302.83880	0.14812
2300.91013	0.14828
2298.98145	0.14848
2297.05277	0.14867
2295.12410	0.14883
2293.19542	0.14901
2291.26675	0.14921
2289.33807	0.14939
2287.40940	0.14955
2285.48072	0.14972
2283.55204	0.14989
2281.62337	0.15005
2279.69469	0.15020
2277.76602	0.15035
2275.83734	0.15050
2273.90867	0.15064
2271.97999	0.15078
2270.05131	0.15095
2268.12264	0.15112
2266.19396	0.15130
2264.26529	0.15148
2262.33661	0.15162
2260.40794	0.15174
2258.47926	0.15190
2256.55058	0.15209
2254.62191	0.15229
2252.69323	0.15246
2250.76456	0.15262
2248.83588	0.15277
2246.90721	0.15290
2244.97853	0.15303
2243.04985	0.15317
2241.12118	0.15332
2239.19250	0.15346
2237.26383	0.15364
2235.33515	0.15384
2233.40648	0.15404
2231.47780	0.15422
2229.54912	0.15437
2227.62045	0.15450
2225.69177	0.15466
2223.76310	0.15484
2221.83442	0.15500
2219.90575	0.15516
2217.97707	0.15534
2216.04839	0.15550
2214.11972	0.15561
2212.19104	0.15571
2210.26237	0.15585
2208.33369	0.15601
2206.40502	0.15617
2204.47634	0.15631
2202.54766	0.15644
2200.61899	0.15659
2198.69031	0.15675
2196.76164	0.15692
2194.83296	0.15712
2192.90429	0.15728
2190.97561	0.15740
2189.04693	0.15753
2187.11826	0.15768
2185.18958	0.15786
2183.26091	0.15802
2181.33223	0.15815
2179.40356	0.15829
2177.47488	0.15845
2175.54620	0.15864
2173.61753	0.15883
2171.68885	0.15902
2169.76018	0.15916
2167.83150	0.15928
2165.90283	0.15944
2163.97415	0.15964
2162.04547	0.15983
2160.11680	0.16000
2158.18812	0.16015
2156.25945	0.16031
2154.33077	0.16048
2152.40210	0.16065
2150.47342	0.16079
2148.54474	0.16092
2146.61607	0.16108
2144.68739	0.16123
2142.75872	0.16139
2140.83004	0.16158
2138.90137	0.16178
2136.97269	0.16195
2135.04401	0.16210
2133.11534	0.16224
2131.18666	0.16241
2129.25799	0.16256
2127.32931	0.16270
2125.40064	0.16285
2123.47196	0.16304
2121.54328	0.16321
2119.61461	0.16335
2117.68593	0.16350
2115.75726	0.16366
2113.82858	0.16380
2111.89991	0.16392
2109.97123	0.16410
2108.04255	0.16432
2106.11388	0.16451
2104.18520	0.16466
2102.25653	0.16482
2100.32785	0.16500
2098.39918	0.16515
2096.47050	0.16529
2094.54182	0.16544
2092.61315	0.16558
2090.68447	0.16575
2088.75580	0.16595
2086.82712	0.16612
2084.89845	0.16624
2082.96977	0.16636
2081.04109	0.16653
2079.11242	0.16674
2077.18374	0.16693
2075.25507	0.16710
2073.32639	0.16723
2071.39772	0.16734
2069.46904	0.16747
2067.54036	0.16763
2065.61169	0.16781
2063.68301	0.16800
2061.75434	0.16817
2059.82566	0.16834
2057.89699	0.16852
2055.96831	0.16868
2054.03963	0.16882
2052.11096	0.16895
2050.18228	0.16911
2048.25361	0.16928
2046.32493	0.16945
2044.39626	0.16964
2042.46758	0.16984
2040.53890	0.17003
2038.61023	0.17019
2036.68155	0.17031
2034.75288	0.17043
2032.82420	0.17056
2030.89553	0.17070
2028.96685	0.17088
2027.03817	0.17110
2025.10950	0.17133
2023.18082	0.17152
2021.25215	0.17167
2019.32347	0.17178
2017.39480	0.17190
2015.46612	0.17207
2013.53744	0.17225
2011.60877	0.17243
2009.68009	0.17263
2007.75142	0.17284
2005.82274	0.17303
2003.89407	0.17316
2001.96539	0.17328
2000.03671	0.17341
1998.10804	0.17356
1996.17936	0.17372
1994.25069	0.17386
1992.32201	0.17397
1990.39334	0.17409
1988.46466	0.17422
1986.53598	0.17437
1984.60731	0.17455
1982.67863	0.17475
1980.74996	0.17493
1978.82128	0.17508
1976.89261	0.17518
1974.96393	0.17527
1973.03525	0.17537
1971.10658	0.17550
1969.17790	0.17561
1967.24923	0.17572
1965.32055	0.17588
1963.39188	0.17606
1961.46320	0.17625
1959.53452	0.17646
1957.60585	0.17666
1955.67717	0.17681
1953.74850	0.17694
1951.81982	0.17707
1949.89115	0.17721
1947.96247	0.17733
1946.03379	0.17745
1944.10512	0.17757
1942.17644	0.17773
1940.24777	0.17795
1938.31909	0.17818
1936.39042	0.17837
1934.46174	0.17853
1932.53306	0.17870
1930.60439	0.17888
1928.67571	0.17900
1926.74704	0.17908
1924.81836	0.17918
1922.88969	0.17932
1920.96101	0.17944
1919.03233	0.17950
1917.10366	0.17966
1915.17498	0.17997
1913.24631	0.18020
1911.31763	0.18031
1909.38896	0.18042
1907.46028	0.18058
1905.53160	0.18075
1903.60293	0.18091
1901.67425	0.18110
1899.74558	0.18129
1897.81690	0.18141
1895.88823	0.18151
1893.95955	0.18163
1892.03087	0.18171
1890.10220	0.18179
1888.17352	0.18199
1886.24485	0.18222
1884.31617	0.18240
1882.38750	0.18257
1880.45882	0.18274
1878.53014	0.18291
1876.60147	0.18310
1874.67279	0.18326
1872.74412	0.18335
1870.81544	0.18333
1868.88677	0.18329
1866.95809	0.18350
1865.02941	0.18387
1863.10074	0.18414
1861.17206	0.18429
1859.24339	0.18444
1857.31471	0.18461
1855.38604	0.18480
1853.45736	0.18501
1851.52868	0.18518
1849.60001	0.18526
1847.67133	0.18514
1845.74266	0.18486
1843.81398	0.18492
1841.88531	0.18551
1839.95663	0.18604
1838.02795	0.18626
1836.09928	0.18639
1834.17060	0.18650
1832.24193	0.18646
1830.31325	0.18643
1828.38458	0.18660
1826.45590	0.18678
1824.52722	0.18699
1822.59855	0.18736
1820.66987	0.18766
1818.74120	0.18776
1816.81252	0.18786
1814.88385	0.18801
1812.95517	0.18805
1811.02649	0.18805
1809.09782	0.18827
1807.16914	0.18859
1805.24047	0.18873
1803.31179	0.18865
1801.38312	0.18858
1799.45444	0.18871
1797.52576	0.18896
1795.59709	0.18911
1793.66841	0.18909
1791.73974	0.18912
1789.81106	0.18942
1787.88239	0.18975
1785.95371	0.18990
1784.02503	0.18996
1782.09636	0.19000
1780.16768	0.19011
1778.23901	0.19030
1776.31033	0.19031
1774.38166	0.19008
1772.45298	0.18994
1770.52430	0.19003
1768.59563	0.19029
1766.66695	0.19076
1764.73828	0.19117
1762.80960	0.19125
1760.88093	0.19126
1758.95225	0.19125
1757.02357	0.19120
1755.09490	0.19126
1753.16622	0.19123
1751.23755	0.19102
1749.30887	0.19094
1747.38020	0.19108
1745.45152	0.19125
1743.52284	0.19130
1741.59417	0.19128
1739.66549	0.19128
1737.73682	0.19109
1735.80814	0.19054
1733.87947	0.19027
1731.95079	0.19073
1730.02211	0.19136
1728.09344	0.19186
1726.16476	0.19220
1724.23609	0.19236
1722.30741	0.19237
1720.37874	0.19203
1718.45006	0.19162
1716.52138	0.19168
1714.59271	0.19220
1712.66403	0.19282
1710.73536	0.19323
1708.80668	0.19328
1706.87801	0.19320
1704.94933	0.19318
1703.02065	0.19290
1701.09198	0.19233
1699.16330	0.19210
1697.23463	0.19223
1695.30595	0.19264
1693.37728	0.19339
1691.44860	0.19388
1689.51992	0.19388
1687.59125	0.19353
1685.66257	0.19293
1683.73390	0.19274
1681.80522	0.19328
1679.87655	0.19388
1677.94787	0.19409
1676.01919	0.19406
1674.09052	0.19404
1672.16184	0.19388
1670.23317	0.19357
1668.30449	0.19368
1666.37582	0.19422
1664.44714	0.19451
1662.51846	0.19457
1660.58979	0.19471
1658.66111	0.19482
1656.73244	0.19438
1654.80376	0.19343
1652.87509	0.19315
1650.94641	0.19385
1649.01773	0.19425
1647.08906	0.19409
1645.16038	0.19429
1643.23171	0.19488
1641.30303	0.19523
1639.37436	0.19513
1637.44568	0.19470
1635.51700	0.19448
1633.58833	0.19492
1631.65965	0.19544
1629.73098	0.19548
1627.80230	0.19527
1625.87363	0.19493
1623.94495	0.19453
1622.01627	0.19439
1620.08760	0.19451
1618.15892	0.19478
1616.23025	0.19531
1614.30157	0.19600
1612.37290	0.19656
1610.44422	0.19691
1608.51554	0.19720
1606.58687	0.19747
1604.65819	0.19769
1602.72952	0.19788
1600.80084	0.19811
1598.87217	0.19834
1596.94349	0.19856
1595.01481	0.19875
1593.08614	0.19889
1591.15746	0.19898
1589.22879	0.19909
1587.30011	0.19925
1585.37144	0.19943
1583.44276	0.19961
1581.51408	0.19973
1579.58541	0.19972
1577.65673	0.19963
1575.72806	0.19974
1573.79938	0.19996
1571.87071	0.19989
1569.94203	0.19975
1568.01335	0.20007
1566.08468	0.20054
1564.15600	0.20072
1562.22733	0.20039
1560.29865	0.19954
1558.36998	0.19911
1556.44130	0.19966
1554.51262	0.20046
1552.58395	0.20097
1550.65527	0.20130
1548.72660	0.20156
1546.79792	0.20165
1544.86925	0.20140
1542.94057	0.20089
1541.01189	0.20043
1539.08322	0.20055
1537.15454	0.20131
1535.22587	0.20190
1533.29719	0.20207
1531.36852	0.20223
1529.43984	0.20232
1527.51116	0.20228
1525.58249	0.20229
1523.65381	0.20206
1521.72514	0.20163
1519.79646	0.20159
1517.86779	0.20197
1515.93911	0.20234
1514.01043	0.20252
1512.08176	0.20248
1510.15308	0.20225
1508.22441	0.20203
1506.29573	0.20223
1504.36706	0.20288
1502.43838	0.20339
1500.50970	0.20347
1498.58103	0.20330
1496.65235	0.20324
1494.72368	0.20338
1492.79500	0.20329
1490.86633	0.20285
1488.93765	0.20263
1487.00897	0.20286
1485.08030	0.20311
1483.15162	0.20312
1481.22295	0.20296
1479.29427	0.20272
1477.36560	0.20234
1475.43692	0.20184
1473.50824	0.20137
1471.57957	0.20113
1469.65089	0.20105
1467.72222	0.20087
1465.79354	0.20060
1463.86487	0.20042
1461.93619	0.20016
1460.00751	0.19957
1458.07884	0.19899
1456.15016	0.19895
1454.22149	0.19934
1452.29281	0.19964
1450.36414	0.19964
1448.43546	0.19955
1446.50678	0.19969
1444.57811	0.20005
1442.64943	0.20034
1440.72076	0.20035
1438.79208	0.19999
1436.86341	0.19971
1434.93473	0.20002
1433.00605	0.20058
1431.07738	0.20092
1429.14870	0.20114
1427.22003	0.20123
1425.29135	0.20115
1423.36268	0.20106
1421.43400	0.20097
1419.50532	0.20082
1417.57665	0.20088
1415.64797	0.20121
1413.71930	0.20146
1411.79062	0.20152
1409.86195	0.20151
1407.93327	0.20142
1406.00459	0.20124
1404.07592	0.20119
1402.14724	0.20124
1400.21857	0.20116
1398.28989	0.20093
1396.36122	0.20071
1394.43254	0.20069
1392.50386	0.20092
1390.57519	0.20101
1388.64651	0.20067
1386.71784	0.20025
1384.78916	0.20014
1382.86049	0.20022
1380.93181	0.20028
1379.00313	0.20026
1377.07446	0.20012
1375.14578	0.19997
1373.21711	0.20001
1371.28843	0.20015
1369.35976	0.20021
1367.43108	0.20017
1365.50240	0.19999
1363.57373	0.19974
1361.64505	0.19974
1359.71638	0.20001
1357.78770	0.20023
1355.85903	0.20033
1353.93035	0.20040
1352.00167	0.20050
1350.07300	0.20060
1348.14432	0.20068
1346.21565	0.20075
1344.28697	0.20075
1342.35830	0.20062
1340.42962	0.20044
1338.50094	0.20040
1336.57227	0.20044
1334.64359	0.20044
1332.71492	0.20039
1330.78624	0.20032
1328.85757	0.20022
1326.92889	0.20004
1325.00021	0.19988
1323.07154	0.19975
1321.14286	0.19961
1319.21419	0.19940
1317.28551	0.19920
1315.35684	0.19903
1313.42816	0.19888
1311.49948	0.19872
1309.57081	0.19853
1307.64213	0.19828
1305.71346	0.19801
1303.78478	0.19774
1301.85611	0.19745
1299.92743	0.19721
1297.99875	0.19704
1296.07008	0.19692
1294.14140	0.19681
1292.21273	0.19662
1290.28405	0.19637
1288.35538	0.19612
1286.42670	0.19592
1284.49802	0.19574
1282.56935	0.19553
1280.64067	0.19528
1278.71200	0.19498
1276.78332	0.19463
1274.85465	0.19423
1272.92597	0.19373
1270.99729	0.19306
1269.06862	0.19224
1267.13994	0.19131
1265.21127	0.19045
1263.28259	0.18987
1261.35392	0.18964
1259.42524	0.18973
1257.49656	0.18999
1255.56789	0.19019
1253.63921	0.19019
1251.71054	0.19000
1249.78186	0.18970
1247.85319	0.18939
1245.92451	0.18909
1243.99583	0.18877
1242.06716	0.18836
1240.13848	0.18784
1238.20981	0.18728
1236.28113	0.18675
1234.35246	0.18622
1232.42378	0.18566
1230.49510	0.18509
1228.56643	0.18457
1226.63775	0.18406
1224.70908	0.18355
1222.78040	0.18305
1220.85173	0.18253
1218.92305	0.18198
1216.99437	0.18145
1215.06570	0.18095
1213.13702	0.18047
1211.20835	0.17997
1209.27967	0.17943
1207.35100	0.17886
1205.42232	0.17828
1203.49364	0.17771
1201.56497	0.17710
1199.63629	0.17644
1197.70762	0.17582
1195.77894	0.17525
1193.85027	0.17466
1191.92159	0.17400
1189.99291	0.17328
1188.06424	0.17255
1186.13556	0.17180
1184.20689	0.17097
1182.27821	0.17008
1180.34954	0.16923
1178.42086	0.16846
1176.49218	0.16769
1174.56351	0.16687
1172.63483	0.16604
1170.70616	0.16522
1168.77748	0.16433
1166.84881	0.16344
1164.92013	0.16261
1162.99145	0.16182
1161.06278	0.16103
1159.13410	0.16026
1157.20543	0.15946
1155.27675	0.15864
1153.34808	0.15787
1151.41940	0.15711
1149.49072	0.15628
1147.56205	0.15543
1145.63337	0.15464
1143.70470	0.15384
1141.77602	0.15295
1139.84735	0.15193
1137.91867	0.15082
1135.98999	0.14964
1134.06132	0.14832
1132.13264	0.14676
1130.20397	0.14492
1128.27529	0.14282
1126.34662	0.14056
1124.41794	0.13822
1122.48926	0.13586
1120.56059	0.13355
1118.63191	0.13135
1116.70324	0.12934
1114.77456	0.12755
1112.84589	0.12596
1110.91721	0.12463
1108.98853	0.12359
1107.05986	0.12284
1105.13118	0.12238
1103.20251	0.12219
1101.27383	0.12228
1099.34516	0.12267
1097.41648	0.12328
1095.48780	0.12407
1093.55913	0.12497
1091.63045	0.12583
1089.70178	0.12663
1087.77310	0.12736
1085.84443	0.12796
1083.91575	0.12843
1081.98707	0.12881
1080.05840	0.12912
1078.12972	0.12943
1076.20105	0.12967
1074.27237	0.12977
1072.34370	0.12984
1070.41502	0.12997
1068.48634	0.13013
1066.55767	0.13028
1064.62899	0.13043
1062.70032	0.13061
1060.77164	0.13084
1058.84297	0.13111
1056.91429	0.13138
1054.98561	0.13167
1053.05694	0.13200
1051.12826	0.13234
1049.19959	0.13272
1047.27091	0.13309
1045.34224	0.13346
1043.41356	0.13383
1041.48488	0.13418
1039.55621	0.13450
1037.62753	0.13485
1035.69886	0.13526
1033.77018	0.13572
1031.84151	0.13616
1029.91283	0.13656
1027.98415	0.13691
1026.05548	0.13726
1024.12680	0.13760
1022.19813	0.13792
1020.26945	0.13822
1018.34078	0.13857
1016.41210	0.13905
1014.48342	0.13965
1012.55475	0.14024
1010.62607	0.14079
1008.69740	0.14133
1006.76872	0.14190
1004.84005	0.14248
1002.91137	0.14301
1000.98269	0.14342
999.05402	0.14371
997.12534	0.14390
995.19667	0.14402
993.26799	0.14406
991.33932	0.14410
989.41064	0.14418
987.48196	0.14425
985.55329	0.14428
983.62461	0.14425
981.69594	0.14418
979.76726	0.14407
977.83859	0.14393
975.90991	0.14381
973.98123	0.14371
972.05256	0.14353
970.12388	0.14333
968.19521	0.14313
966.26653	0.14294
964.33786	0.14280
962.40918	0.14267
960.48050	0.14252
958.55183	0.14230
956.62315	0.14210
954.69448	0.14194
952.76580	0.14180
950.83713	0.14162
948.90845	0.14145
946.97977	0.14124
945.05110	0.14094
943.12242	0.14064
941.19375	0.14034
939.26507	0.13995
937.33640	0.13948
935.40772	0.13903
933.47904	0.13862
931.55037	0.13815
929.62169	0.13765
927.69302	0.13713
925.76434	0.13658
923.83567	0.13600
921.90699	0.13542
919.97831	0.13482
918.04964	0.13418
916.12096	0.13347
914.19229	0.13272
912.26361	0.13195
910.33494	0.13123
908.40626	0.13053
906.47758	0.12981
904.54891	0.12912
902.62023	0.12852
900.69156	0.12796
898.76288	0.12741
896.83421	0.12692
894.90553	0.12648
892.97685	0.12602
891.04818	0.12549
889.11950	0.12492
887.19083	0.12448
885.26215	0.12414
883.33348	0.12377
881.40480	0.12339
879.47612	0.12308
877.54745	0.12284
875.61877	0.12263
873.69010	0.12241
871.76142	0.12215
869.83275	0.12190
867.90407	0.12167
865.97539	0.12144
864.04672	0.12128
862.11804	0.12121
860.18937	0.12117
858.26069	0.12106
856.33202	0.12096
854.40334	0.12090
852.47466	0.12075
850.54599	0.12044
848.61731	0.12008
846.68864	0.11976
844.75996	0.11947
842.83129	0.11917
840.90261	0.11887
838.97394	0.11853
837.04526	0.11813
835.11658	0.11760
833.18791	0.11686
831.25923	0.11593
829.33056	0.11491
827.40188	0.11387
825.47321	0.11283
823.54453	0.11186
821.61585	0.11105
819.68718	0.11041
817.75850	0.10987
815.82983	0.10938
813.90115	0.10898
811.97248	0.10868
810.04380	0.10848
808.11512	0.10837
806.18645	0.10829
804.25777	0.10816
802.32910	0.10802
800.40042	0.10777
798.47175	0.10728
796.54307	0.10666
794.61439	0.10605
792.68572	0.10559
790.75704	0.10538
788.82837	0.10532
786.89969	0.10522
784.97102	0.10501
783.04234	0.10470
781.11366	0.10432
779.18499	0.10400
777.25631	0.10375
775.32764	0.10349
773.39896	0.10320
771.47029	0.10289
769.54161	0.10256
767.61293	0.10224
765.68426	0.10188
763.75558	0.10138
761.82691	0.10080
759.89823	0.10029
757.96956	0.09984
756.04088	0.09932
754.11220	0.09874
752.18353	0.09805
750.25485	0.09727
748.32618	0.09649
746.39750	0.09577
744.46883	0.09497
742.54015	0.09408
740.61147	0.09328
738.68280	0.09277
736.75412	0.09256
734.82545	0.09252
732.89677	0.09257
730.96810	0.09262
729.03942	0.09266
727.11074	0.09277
725.18207	0.09294
723.25339	0.09308
721.32472	0.09319
719.39604	0.09333
717.46737	0.09351
715.53869	0.09385
713.61001	0.09435
711.68134	0.09483
709.75266	0.09511
707.82399	0.09515
705.89531	0.09507
703.96664	0.09495
702.03796	0.09472
700.10928	0.09433
698.18061	0.09385
696.25193	0.09326
694.32326	0.09257
692.39458	0.09190
690.46591	0.09136
688.53723	0.09094
686.60855	0.09052
684.67988	0.09002
682.75120	0.08948
680.82253	0.08897
678.89385	0.08848
676.96518	0.08793
675.03650	0.08730
673.10782	0.08661
671.17915	0.08582
669.25047	0.08487
667.32180	0.08395
665.39312	0.08322
663.46445	0.08250
661.53577	0.08168
659.60709	0.08083
657.67842	0.08003
655.74974	0.07930
653.82107	0.07857
651.89239	0.07774
649.96372	0.07687
648.03504	0.07602
646.10636	0.07517
644.17769	0.07428
642.24901	0.07334
640.32034	0.07235
638.39166	0.07128
636.46299	0.07014
634.53431	0.06898
632.60563	0.06753
630.67696	0.06530
628.74828	0.06192
626.81961	0.05754
624.89093	0.05306
622.96226	0.04947
621.03358	0.04722
619.10490	0.04609
617.17623	0.04540
615.24755	0.04456
613.31888	0.04347
611.39020	0.04241
609.46153	0.04184
607.53285	0.04186
605.60417	0.04221
603.67550	0.04272
601.74682	0.04346
599.81815	0.04445
597.88947	0.04542
595.96080	0.04618
594.03212	0.04672
592.10344	0.04701
590.17477	0.04705
588.24609	0.04693
586.31742	0.04672
584.38874	0.04639
582.46007	0.04598
580.53139	0.04559
578.60271	0.04520
576.67404	0.04478
574.74536	0.04430
572.81669	0.04368
570.88801	0.04299
568.95934	0.04238
567.03066	0.04192
565.10198	0.04160
563.17331	0.04135
561.24463	0.04113
559.31596	0.04089
557.38728	0.04059
555.45861	0.04031
553.52993	0.04015
551.60125	0.03997
549.67258	0.03975
547.74390	0.03957
545.81523	0.03943
543.88655	0.03926
541.95788	0.03908
540.02920	0.03891
538.10052	0.03878
536.17185	0.03863
534.24317	0.03842
532.31450	0.03815
530.38582	0.03787
528.45715	0.03759
526.52847	0.03730
524.59979	0.03694
522.67112	0.03648
520.74244	0.03604
518.81377	0.03567
516.88509	0.03516
514.95642	0.03445
513.02774	0.03387
511.09906	0.03367
509.17039	0.03369
507.24171	0.03370
505.31304	0.03354
503.38436	0.03315
501.45569	0.03263
499.52701	0.03208
497.59833	0.03148
495.66966	0.03085
493.74098	0.03025
491.81231	0.02974
489.88363	0.02926
487.95496	0.02873
486.02628	0.02817
484.09760	0.02765
482.16893	0.02715
480.24025	0.02663
478.31158	0.02605
476.38290	0.02544
474.45423	0.02485
472.52555	0.02435
470.59687	0.02395
468.66820	0.02365
466.73952	0.02342
464.81085	0.02315
462.88217	0.02285
460.95350	0.02261
459.02482	0.02246
457.09614	0.02238
455.16747	0.02233
453.23879	0.02227
451.31012	0.02229
449.38144	0.02233
447.45277	0.02226
445.52409	0.02206
443.59541	0.02182
441.66674	0.02159
439.73806	0.02126
437.80939	0.02082
435.88071	0.02037
433.95204	0.01989
432.02336	0.01938
430.09468	0.01888
428.16601	0.01828
426.23733	0.01744
424.30866	0.01656
422.37998	0.01587
420.45131	0.01535
418.52263	0.01482
416.59395	0.01427
414.66528	0.01370
412.73660	0.01308
410.80793	0.01239
408.87925	0.01173
406.95058	0.01118
405.02190	0.01063
403.09322	0.00996
401.16455	0.00927
399.23587	0.00872
397.30720	0.00830
395.37852	0.00782
393.44985	0.00722
391.52117	0.00666
389.59249	0.00624
387.66382	0.00581
385.73514	0.00534
383.80647	0.00500
381.87779	0.00480
379.94912	0.00458
378.02044	0.00427
376.09176	0.00388
374.16309	0.00349
372.23441	0.00314
370.30574	0.00283
368.37706	0.00265
