7496.76250	0.00116
7494.83382	0.00116
7492.90514	0.00114
7490.97647	0.00113
7489.04779	0.00113
7487.11912	0.00115
7485.19044	0.00116
7483.26177	0.00116
7481.33309	0.00117
7479.40441	0.00119
7477.47574	0.00119
7475.54706	0.00119
7473.61839	0.00119
7471.68971	0.00120
7469.76104	0.00119
7467.83236	0.00119
7465.90368	0.00118
7463.97501	0.00118
7462.04633	0.00119
7460.11766	0.00119
7458.18898	0.00120
7456.26031	0.00121
7454.33163	0.00122
7452.40295	0.00123
7450.47428	0.00123
7448.54560	0.00123
7446.61693	0.00123
7444.68825	0.00123
7442.75958	0.00124
7440.83090	0.00124
7438.90222	0.00125
7436.97355	0.00126
7435.04487	0.00127
7433.11620	0.00127
7431.18752	0.00127
7429.25885	0.00126
7427.33017	0.00127
7425.40149	0.00129
7423.47282	0.00129
7421.54414	0.00128
7419.61547	0.00128
7417.68679	0.00129
7415.75812	0.00129
7413.82944	0.00129
7411.90076	0.00128
7409.97209	0.00128
7408.04341	0.00129
7406.11474	0.00130
7404.18606	0.00131
7402.25739	0.00132
7400.32871	0.00132
7398.40003	0.00131
7396.47136	0.00131
7394.54268	0.00131
7392.61401	0.00131
7390.68533	0.00130
7388.75666	0.00130
7386.82798	0.00133
7384.89930	0.00135
7382.97063	0.00135
7381.04195	0.00135
7379.11328	0.00135
7377.18460	0.00136
7375.25593	0.00136
7373.32725	0.00137
7371.39857	0.00136
7369.46990	0.00135
7367.54122	0.00136
7365.61255	0.00138
7363.68387	0.00140
7361.75520	0.00140
7359.82652	0.00139
7357.89784	0.00139
7355.96917	0.00140
7354.04049	0.00141
7352.11182	0.00141
7350.18314	0.00141
7348.25447	0.00141
7346.32579	0.00141
7344.39711	0.00141
7342.46844	0.00142
7340.53976	0.00143
7338.61109	0.00143
7336.68241	0.00144
7334.75374	0.00145
7332.82506	0.00146
7330.89638	0.00145
7328.96771	0.00145
7327.03903	0.00146
7325.11036	0.00146
7323.18168	0.00145
7321.25301	0.00145
7319.32433	0.00147
7317.39565	0.00148
7315.46698	0.00148
7313.53830	0.00148
7311.60963	0.00148
7309.68095	0.00148
7307.75228	0.00149
7305.82360	0.00150
7303.89492	0.00150
7301.96625	0.00150
7300.03757	0.00150
7298.10890	0.00150
7296.18022	0.00148
7294.25155	0.00149
7292.32287	0.00150
7290.39419	0.00153
7288.46552	0.00154
7286.53684	0.00153
7284.60817	0.00151
7282.67949	0.00150
7280.75082	0.00150
7278.82214	0.00152
7276.89346	0.00153
7274.96479	0.00154
7273.03611	0.00153
7271.10744	0.00153
7269.17876	0.00154
7267.25009	0.00155
7265.32141	0.00156
7263.39273	0.00156
7261.46406	0.00155
7259.53538	0.00155
7257.60671	0.00155
7255.67803	0.00156
7253.74936	0.00157
7251.82068	0.00158
7249.89200	0.00159
7247.96333	0.00160
7246.03465	0.00160
7244.10598	0.00161
7242.17730	0.00161
7240.24863	0.00162
7238.31995	0.00163
7236.39127	0.00164
7234.46260	0.00164
7232.53392	0.00164
7230.60525	0.00163
7228.67657	0.00162
7226.74790	0.00162
7224.81922	0.00162
7222.89054	0.00163
7220.96187	0.00165
7219.03319	0.00165
7217.10452	0.00166
7215.17584	0.00166
7213.24717	0.00166
7211.31849	0.00167
7209.38981	0.00168
7207.46114	0.00168
7205.53246	0.00169
7203.60379	0.00169
7201.67511	0.00169
7199.74644	0.00169
7197.81776	0.00169
7195.88908	0.00169
7193.96041	0.00168
7192.03173	0.00170
7190.10306	0.00172
7188.17438	0.00173
7186.24571	0.00174
7184.31703	0.00174
7182.38835	0.00174
7180.45968	0.00174
7178.53100	0.00173
7176.60233	0.00172
7174.67365	0.00173
7172.74498	0.00174
7170.81630	0.00175
7168.88762	0.00173
7166.95895	0.00173
7165.03027	0.00175
7163.10160	0.00177
7161.17292	0.00177
7159.24425	0.00178
7157.31557	0.00179
7155.38689	0.00179
7153.45822	0.00179
7151.52954	0.00179
7149.60087	0.00180
7147.67219	0.00181
7145.74352	0.00180
7143.81484	0.00180
7141.88616	0.00181
7139.95749	0.00181
7138.02881	0.00181
7136.10014	0.00181
7134.17146	0.00181
7132.24279	0.00181
7130.31411	0.00182
7128.38543	0.00183
7126.45676	0.00184
7124.52808	0.00183
7122.59941	0.00183
7120.67073	0.00185
7118.74206	0.00186
7116.81338	0.00187
7114.88470	0.00187
7112.95603	0.00186
7111.02735	0.00185
7109.09868	0.00185
7107.17000	0.00186
7105.24133	0.00187
7103.31265	0.00189
7101.38397	0.00189
7099.45530	0.00188
7097.52662	0.00188
7095.59795	0.00189
7093.66927	0.00190
7091.74060	0.00191
7089.81192	0.00191
7087.88324	0.00192
7085.95457	0.00193
7084.02589	0.00194
7082.09722	0.00194
7080.16854	0.00194
7078.23987	0.00194
7076.31119	0.00194
7074.38251	0.00195
7072.45384	0.00196
7070.52516	0.00196
7068.59649	0.00195
7066.66781	0.00193
7064.73914	0.00194
7062.81046	0.00195
7060.88178	0.00197
7058.95311	0.00198
7057.02443	0.00199
7055.09576	0.00200
7053.16708	0.00200
7051.23841	0.00201
7049.30973	0.00201
7047.38105	0.00200
7045.45238	0.00198
7043.52370	0.00198
7041.59503	0.00200
7039.66635	0.00201
7037.73768	0.00201
7035.80900	0.00202
7033.88032	0.00204
7031.95165	0.00205
7030.02297	0.00205
7028.09430	0.00205
7026.16562	0.00207
7024.23695	0.00209
7022.30827	0.00208
7020.37959	0.00207
7018.45092	0.00205
7016.52224	0.00206
7014.59357	0.00206
7012.66489	0.00206
7010.73622	0.00208
7008.80754	0.00210
7006.87886	0.00211
7004.95019	0.00212
7003.02151	0.00212
7001.09284	0.00212
6999.16416	0.00211
6997.23549	0.00212
6995.30681	0.00213
6993.37813	0.00212
6991.44946	0.00211
6989.52078	0.00211
6987.59211	0.00212
6985.66343	0.00214
6983.73476	0.00215
6981.80608	0.00216
6979.87740	0.00216
6977.94873	0.00217
6976.02005	0.00218
6974.09138	0.00219
6972.16270	0.00219
6970.23403	0.00219
6968.30535	0.00218
6966.37667	0.00217
6964.44800	0.00218
6962.51932	0.00219
6960.59065	0.00222
6958.66197	0.00224
6956.73330	0.00224
6954.80462	0.00223
6952.87594	0.00223
6950.94727	0.00224
6949.01859	0.00223
6947.08992	0.00223
6945.16124	0.00223
6943.23257	0.00222
6941.30389	0.00222
6939.37521	0.00222
6937.44654	0.00224
6935.51786	0.00225
6933.58919	0.00226
6931.66051	0.00225
6929.73184	0.00227
6927.80316	0.00228
6925.87448	0.00228
6923.94581	0.00227
6922.01713	0.00227
6920.08846	0.00229
6918.15978	0.00230
6916.23111	0.00230
6914.30243	0.00231
6912.37375	0.00233
6910.44508	0.00234
6908.51640	0.00233
6906.58773	0.00232
6904.65905	0.00233
6902.73038	0.00235
6900.80170	0.00236
6898.87302	0.00237
6896.94435	0.00236
6895.01567	0.00236
6893.08700	0.00235
6891.15832	0.00235
6889.22965	0.00236
6887.30097	0.00236
6885.37229	0.00236
6883.44362	0.00236
6881.51494	0.00238
6879.58627	0.00240
6877.65759	0.00241
6875.72892	0.00242
6873.80024	0.00242
6871.87156	0.00243
6869.94289	0.00244
6868.01421	0.00245
6866.08554	0.00244
6864.15686	0.00244
6862.22819	0.00245
6860.29951	0.00246
6858.37083	0.00247
6856.44216	0.00247
6854.51348	0.00248
6852.58481	0.00248
6850.65613	0.00247
6848.72746	0.00246
6846.79878	0.00245
6844.87010	0.00247
6842.94143	0.00250
6841.01275	0.00252
6839.08408	0.00252
6837.15540	0.00251
6835.22673	0.00251
6833.29805	0.00252
6831.36937	0.00253
6829.44070	0.00253
6827.51202	0.00254
6825.58335	0.00256
6823.65467	0.00255
6821.72600	0.00254
6819.79732	0.00255
6817.86864	0.00256
6815.93997	0.00257
6814.01129	0.00257
6812.08262	0.00257
6810.15394	0.00257
6808.22527	0.00257
6806.29659	0.00257
6804.36791	0.00258
6802.43924	0.00260
6800.51056	0.00261
6798.58189	0.00263
6796.65321	0.00265
6794.72454	0.00264
6792.79586	0.00264
6790.86718	0.00265
6788.93851	0.00267
6787.00983	0.00267
6785.08116	0.00266
6783.15248	0.00267
6781.22381	0.00268
6779.29513	0.00268
6777.36645	0.00268
6775.43778	0.00267
6773.50910	0.00268
6771.58043	0.00270
6769.65175	0.00272
6767.72308	0.00272
6765.79440	0.00273
6763.86572	0.00275
6761.93705	0.00275
6760.00837	0.00274
6758.07970	0.00274
6756.15102	0.00274
6754.22235	0.00275
6752.29367	0.00276
6750.36499	0.00277
6748.43632	0.00277
6746.50764	0.00278
6744.57897	0.00278
6742.65029	0.00278
6740.72162	0.00278
6738.79294	0.00279
6736.86426	0.00282
6734.93559	0.00283
6733.00691	0.00282
6731.07824	0.00281
6729.14956	0.00282
6727.22089	0.00284
6725.29221	0.00285
6723.36353	0.00286
6721.43486	0.00287
6719.50618	0.00288
6717.57751	0.00288
6715.64883	0.00288
6713.72016	0.00286
6711.79148	0.00286
6709.86280	0.00288
6707.93413	0.00291
6706.00545	0.00292
6704.07678	0.00292
6702.14810	0.00291
6700.21943	0.00290
6698.29075	0.00290
6696.36207	0.00291
6694.43340	0.00293
6692.50472	0.00295
6690.57605	0.00296
6688.64737	0.00295
6686.71870	0.00295
6684.79002	0.00296
6682.86134	0.00295
6680.93267	0.00295
6679.00399	0.00297
6677.07532	0.00299
6675.14664	0.00300
6673.21797	0.00301
6671.28929	0.00303
6669.36061	0.00304
6667.43194	0.00305
6665.50326	0.00305
6663.57459	0.00304
6661.64591	0.00305
6659.71724	0.00305
6657.78856	0.00305
6655.85988	0.00305
6653.93121	0.00306
6652.00253	0.00306
6650.07386	0.00308
6648.14518	0.00309
6646.21651	0.00309
6644.28783	0.00309
6642.35915	0.00310
6640.43048	0.00312
6638.50180	0.00313
6636.57313	0.00313
6634.64445	0.00314
6632.71578	0.00314
6630.78710	0.00315
6628.85842	0.00317
6626.92975	0.00318
6625.00107	0.00318
6623.07240	0.00318
6621.14372	0.00318
6619.21505	0.00317
6617.28637	0.00316
6615.35769	0.00317
6613.42902	0.00319
6611.50034	0.00319
6609.57167	0.00319
6607.64299	0.00320
6605.71432	0.00322
6603.78564	0.00324
6601.85696	0.00326
6599.92829	0.00325
6597.99961	0.00323
6596.07094	0.00324
6594.14226	0.00327
6592.21359	0.00329
6590.28491	0.00329
6588.35623	0.00329
6586.42756	0.00329
6584.49888	0.00329
6582.57021	0.00330
6580.64153	0.00330
6578.71286	0.00330
6576.78418	0.00330
6574.85550	0.00332
6572.92683	0.00333
6570.99815	0.00333
6569.06948	0.00333
6567.14080	0.00335
6565.21213	0.00339
6563.28345	0.00339
6561.35477	0.00338
6559.42610	0.00338
6557.49742	0.00341
6555.56875	0.00342
6553.64007	0.00342
6551.71140	0.00342
6549.78272	0.00343
6547.85404	0.00344
6545.92537	0.00344
6543.99669	0.00344
6542.06802	0.00344
6540.13934	0.00345
6538.21067	0.00346
6536.28199	0.00347
6534.35331	0.00349
6532.42464	0.00350
6530.49596	0.00351
6528.56729	0.00351
6526.63861	0.00351
6524.70994	0.00352
6522.78126	0.00353
6520.85258	0.00353
6518.92391	0.00354
6516.99523	0.00355
6515.06656	0.00355
6513.13788	0.00353
6511.20921	0.00353
6509.28053	0.00356
6507.35185	0.00361
6505.42318	0.00361
6503.49450	0.00359
6501.56583	0.00358
6499.63715	0.00359
6497.70848	0.00362
6495.77980	0.00364
6493.85112	0.00365
6491.92245	0.00366
6489.99377	0.00367
6488.06510	0.00369
6486.13642	0.00369
6484.20775	0.00370
6482.27907	0.00370
6480.35039	0.00370
6478.42172	0.00371
6476.49304	0.00373
6474.56437	0.00372
6472.63569	0.00372
6470.70702	0.00373
6468.77834	0.00373
6466.84966	0.00374
6464.92099	0.00375
6462.99231	0.00377
6461.06364	0.00379
6459.13496	0.00379
6457.20629	0.00379
6455.27761	0.00378
6453.34893	0.00379
6451.42026	0.00380
6449.49158	0.00380
6447.56291	0.00380
6445.63423	0.00381
6443.70556	0.00382
6441.77688	0.00383
6439.84820	0.00385
6437.91953	0.00386
6435.99085	0.00387
6434.06218	0.00387
6432.13350	0.00388
6430.20483	0.00388
6428.27615	0.00388
6426.34747	0.00390
6424.41880	0.00392
6422.49012	0.00393
6420.56145	0.00393
6418.63277	0.00393
6416.70410	0.00395
6414.77542	0.00397
6412.84674	0.00398
6410.91807	0.00398
6408.98939	0.00398
6407.06072	0.00399
6405.13204	0.00400
6403.20337	0.00401
6401.27469	0.00401
6399.34601	0.00401
6397.41734	0.00402
6395.48866	0.00403
6393.55999	0.00405
6391.63131	0.00406
6389.70264	0.00407
6387.77396	0.00409
6385.84528	0.00408
6383.91661	0.00408
6381.98793	0.00409
6380.05926	0.00409
6378.13058	0.00409
6376.20191	0.00410
6374.27323	0.00412
6372.34455	0.00415
6370.41588	0.00417
6368.48720	0.00417
6366.55853	0.00416
6364.62985	0.00417
6362.70118	0.00419
6360.77250	0.00421
6358.84382	0.00422
6356.91515	0.00423
6354.98647	0.00423
6353.05780	0.00425
6351.12912	0.00428
6349.20045	0.00429
6347.27177	0.00428
6345.34309	0.00428
6343.41442	0.00429
6341.48574	0.00431
6339.55707	0.00432
6337.62839	0.00433
6335.69972	0.00434
6333.77104	0.00435
6331.84236	0.00436
6329.91369	0.00437
6327.98501	0.00437
6326.05634	0.00437
6324.12766	0.00438
6322.19899	0.00438
6320.27031	0.00438
6318.34163	0.00439
6316.41296	0.00442
6314.48428	0.00445
6312.55561	0.00445
6310.62693	0.00444
6308.69826	0.00443
6306.76958	0.00443
6304.84090	0.00446
6302.91223	0.00448
6300.98355	0.00449
6299.05488	0.00449
6297.12620	0.00450
6295.19753	0.00452
6293.26885	0.00453
6291.34017	0.00454
6289.41150	0.00455
6287.48282	0.00456
6285.55415	0.00458
6283.62547	0.00458
6281.69680	0.00458
6279.76812	0.00458
6277.83944	0.00460
6275.91077	0.00460
6273.98209	0.00461
6272.05342	0.00463
6270.12474	0.00465
6268.19607	0.00465
6266.26739	0.00466
6264.33871	0.00466
6262.41004	0.00468
6260.48136	0.00469
6258.55269	0.00469
6256.62401	0.00469
6254.69534	0.00471
6252.76666	0.00472
6250.83798	0.00473
6248.90931	0.00474
6246.98063	0.00475
6245.05196	0.00477
6243.12328	0.00478
6241.19461	0.00476
6239.26593	0.00475
6237.33725	0.00476
6235.40858	0.00479
6233.47990	0.00481
6231.55123	0.00482
6229.62255	0.00483
6227.69388	0.00483
6225.76520	0.00485
6223.83652	0.00488
6221.90785	0.00491
6219.97917	0.00491
6218.05050	0.00492
6216.12182	0.00493
6214.19315	0.00493
6212.26447	0.00492
6210.33579	0.00492
6208.40712	0.00494
6206.47844	0.00496
6204.54977	0.00496
6202.62109	0.00496
6200.69242	0.00498
6198.76374	0.00500
6196.83506	0.00501
6194.90639	0.00501
6192.97771	0.00503
6191.04904	0.00505
6189.12036	0.00506
6187.19169	0.00506
6185.26301	0.00506
6183.33433	0.00507
6181.40566	0.00509
6179.47698	0.00512
6177.54831	0.00513
6175.61963	0.00514
6173.69096	0.00514
6171.76228	0.00514
6169.83360	0.00515
6167.90493	0.00517
6165.97625	0.00519
6164.04758	0.00520
6162.11890	0.00521
6160.19023	0.00520
6158.26155	0.00519
6156.33287	0.00520
6154.40420	0.00522
6152.47552	0.00524
6150.54685	0.00525
6148.61817	0.00527
6146.68950	0.00530
6144.76082	0.00532
6142.83214	0.00533
6140.90347	0.00533
6138.97479	0.00532
6137.04612	0.00532
6135.11744	0.00532
6133.18877	0.00535
6131.26009	0.00538
6129.33141	0.00538
6127.40274	0.00537
6125.47406	0.00538
6123.54539	0.00540
6121.61671	0.00544
6119.68804	0.00546
6117.75936	0.00547
6115.83068	0.00548
6113.90201	0.00550
6111.97333	0.00550
6110.04466	0.00549
6108.11598	0.00548
6106.18731	0.00548
6104.25863	0.00551
6102.32995	0.00555
6100.40128	0.00556
6098.47260	0.00555
6096.54393	0.00555
6094.61525	0.00558
6092.68658	0.00560
6090.75790	0.00562
6088.82922	0.00563
6086.90055	0.00564
6084.97187	0.00565
6083.04320	0.00567
6081.11452	0.00569
6079.18585	0.00571
6077.25717	0.00571
6075.32849	0.00569
6073.39982	0.00569
6071.47114	0.00571
6069.54247	0.00574
6067.61379	0.00578
6065.68512	0.00580
6063.75644	0.00579
6061.82776	0.00577
6059.89909	0.00577
6057.97041	0.00579
6056.04174	0.00582
6054.11306	0.00584
6052.18439	0.00585
6050.25571	0.00587
6048.32703	0.00590
6046.39836	0.00591
6044.46968	0.00591
6042.54101	0.00591
6040.61233	0.00591
6038.68366	0.00592
6036.75498	0.00595
6034.82630	0.00597
6032.89763	0.00598
6030.96895	0.00600
6029.04028	0.00602
6027.11160	0.00603
6025.18293	0.00604
6023.25425	0.00604
6021.32557	0.00603
6019.39690	0.00603
6017.46822	0.00603
6015.53955	0.00605
6013.61087	0.00607
6011.68220	0.00608
6009.75352	0.00609
6007.82484	0.00612
6005.89617	0.00615
6003.96749	0.00618
6002.03882	0.00621
6000.11014	0.00621
5998.18147	0.00619
5996.25279	0.00619
5994.32411	0.00623
5992.39544	0.00626
5990.46676	0.00629
5988.53809	0.00631
5986.60941	0.00631
5984.68074	0.00630
5982.75206	0.00631
5980.82338	0.00634
5978.89471	0.00635
5976.96603	0.00634
5975.03736	0.00635
5973.10868	0.00636
5971.18001	0.00638
5969.25133	0.00639
5967.32265	0.00641
5965.39398	0.00642
5963.46530	0.00643
5961.53663	0.00643
5959.60795	0.00645
5957.67928	0.00647
5955.75060	0.00648
5953.82192	0.00649
5951.89325	0.00652
5949.96457	0.00654
5948.03590	0.00654
5946.10722	0.00654
5944.17855	0.00657
5942.24987	0.00660
5940.32119	0.00660
5938.39252	0.00660
5936.46384	0.00662
5934.53517	0.00666
5932.60649	0.00667
5930.67782	0.00668
5928.74914	0.00669
5926.82046	0.00671
5924.89179	0.00671
5922.96311	0.00671
5921.03444	0.00672
5919.10576	0.00673
5917.17709	0.00674
5915.24841	0.00675
5913.31973	0.00678
5911.39106	0.00681
5909.46238	0.00682
5907.53371	0.00682
5905.60503	0.00684
5903.67636	0.00686
5901.74768	0.00687
5899.81900	0.00688
5897.89033	0.00691
5895.96165	0.00693
5894.03298	0.00693
5892.10430	0.00694
5890.17563	0.00695
5888.24695	0.00698
5886.31827	0.00702
5884.38960	0.00704
5882.46092	0.00704
5880.53225	0.00702
5878.60357	0.00702
5876.67490	0.00704
5874.74622	0.00708
5872.81755	0.00710
5870.88887	0.00710
5868.96019	0.00712
5867.03152	0.00714
5865.10284	0.00717
5863.17417	0.00718
5861.24549	0.00720
5859.31682	0.00720
5857.38814	0.00720
5855.45946	0.00721
5853.53079	0.00724
5851.60211	0.00727
5849.67344	0.00727
5847.74476	0.00727
5845.81609	0.00729
5843.88741	0.00731
5841.95873	0.00732
5840.03006	0.00734
5838.10138	0.00736
5836.17271	0.00737
5834.24403	0.00737
5832.31536	0.00738
5830.38668	0.00739
5828.45800	0.00740
5826.52933	0.00741
5824.60065	0.00744
5822.67198	0.00747
5820.74330	0.00749
5818.81463	0.00752
5816.88595	0.00753
5814.95727	0.00754
5813.02860	0.00754
5811.09992	0.00756
5809.17125	0.00760
5807.24257	0.00763
5805.31390	0.00764
5803.38522	0.00765
5801.45654	0.00766
5799.52787	0.00768
5797.59919	0.00769
5795.67052	0.00770
5793.74184	0.00770
5791.81317	0.00770
5789.88449	0.00771
5787.95581	0.00774
5786.02714	0.00776
5784.09846	0.00777
5782.16979	0.00778
5780.24111	0.00781
5778.31244	0.00784
5776.38376	0.00786
5774.45508	0.00787
5772.52641	0.00787
5770.59773	0.00787
5768.66906	0.00789
5766.74038	0.00791
5764.81171	0.00794
5762.88303	0.00796
5760.95435	0.00796
5759.02568	0.00797
5757.09700	0.00799
5755.16833	0.00802
5753.23965	0.00805
5751.31098	0.00806
5749.38230	0.00808
5747.45362	0.00811
5745.52495	0.00813
5743.59627	0.00814
5741.66760	0.00815
5739.73892	0.00816
5737.81025	0.00817
5735.88157	0.00818
5733.95289	0.00819
5732.02422	0.00821
5730.09554	0.00823
5728.16687	0.00825
5726.23819	0.00828
5724.30952	0.00830
5722.38084	0.00831
5720.45216	0.00832
5718.52349	0.00834
5716.59481	0.00835
5714.66614	0.00835
5712.73746	0.00836
5710.80879	0.00837
5708.88011	0.00839
5706.95143	0.00842
5705.02276	0.00846
5703.09408	0.00848
5701.16541	0.00849
5699.23673	0.00851
5697.30806	0.00854
5695.37938	0.00855
5693.45070	0.00856
5691.52203	0.00856
5689.59335	0.00858
5687.66468	0.00861
5685.73600	0.00864
5683.80733	0.00864
5681.87865	0.00863
5679.94997	0.00864
5678.02130	0.00866
5676.09262	0.00869
5674.16395	0.00872
5672.23527	0.00876
5670.30660	0.00878
5668.37792	0.00879
5666.44924	0.00880
5664.52057	0.00881
5662.59189	0.00883
5660.66322	0.00883
5658.73454	0.00884
5656.80587	0.00885
5654.87719	0.00886
5652.94851	0.00890
5651.01984	0.00895
5649.09116	0.00897
5647.16249	0.00899
5645.23381	0.00900
5643.30514	0.00901
5641.37646	0.00902
5639.44778	0.00905
5637.51911	0.00907
5635.59043	0.00908
5633.66176	0.00910
5631.73308	0.00913
5629.80441	0.00916
5627.87573	0.00917
5625.94705	0.00917
5624.01838	0.00918
5622.08970	0.00921
5620.16103	0.00922
5618.23235	0.00922
5616.30368	0.00924
5614.37500	0.00928
5612.44632	0.00931
5610.51765	0.00932
5608.58897	0.00934
5606.66030	0.00935
5604.73162	0.00935
5602.80295	0.00937
5600.87427	0.00941
5598.94559	0.00945
5597.01692	0.00947
5595.08824	0.00948
5593.15957	0.00948
5591.23089	0.00947
5589.30222	0.00948
5587.37354	0.00951
5585.44486	0.00954
5583.51619	0.00956
5581.58751	0.00957
5579.65884	0.00958
5577.73016	0.00959
5575.80149	0.00960
5573.87281	0.00963
5571.94413	0.00968
5570.01546	0.00973
5568.08678	0.00975
5566.15811	0.00975
5564.22943	0.00975
5562.30076	0.00977
5560.37208	0.00982
5558.44340	0.00986
5556.51473	0.00987
5554.58605	0.00986
5552.65738	0.00985
5550.72870	0.00987
5548.80003	0.00990
5546.87135	0.00993
5544.94267	0.00994
5543.01400	0.00996
5541.08532	0.00998
5539.15665	0.01000
5537.22797	0.01002
5535.29930	0.01003
5533.37062	0.01005
5531.44194	0.01008
5529.51327	0.01011
5527.58459	0.01012
5525.65592	0.01014
5523.72724	0.01017
5521.79857	0.01018
5519.86989	0.01019
5517.94121	0.01018
5516.01254	0.01019
5514.08386	0.01021
5512.15519	0.01025
5510.22651	0.01029
5508.29784	0.01033
5506.36916	0.01037
5504.44048	0.01039
5502.51181	0.01040
5500.58313	0.01040
5498.65446	0.01042
5496.72578	0.01043
5494.79711	0.01042
5492.86843	0.01042
5490.93975	0.01045
5489.01108	0.01050
5487.08240	0.01054
5485.15373	0.01056
5483.22505	0.01056
5481.29638	0.01056
5479.36770	0.01059
5477.43902	0.01061
5475.51035	0.01063
5473.58167	0.01065
5471.65300	0.01068
5469.72432	0.01068
5467.79565	0.01069
5465.86697	0.01072
5463.93829	0.01074
5462.00962	0.01077
5460.08094	0.01080
5458.15227	0.01083
5456.22359	0.01085
5454.29492	0.01087
5452.36624	0.01089
5450.43756	0.01091
5448.50889	0.01094
5446.58021	0.01097
5444.65154	0.01099
5442.72286	0.01100
5440.79419	0.01101
5438.86551	0.01104
5436.93683	0.01106
5435.00816	0.01107
5433.07948	0.01109
5431.15081	0.01112
5429.22213	0.01114
5427.29346	0.01115
5425.36478	0.01116
5423.43610	0.01118
5421.50743	0.01120
5419.57875	0.01122
5417.65008	0.01125
5415.72140	0.01127
5413.79273	0.01128
5411.86405	0.01131
5409.93537	0.01133
5408.00670	0.01135
5406.07802	0.01138
5404.14935	0.01140
5402.22067	0.01143
5400.29200	0.01145
5398.36332	0.01147
5396.43464	0.01147
5394.50597	0.01148
5392.57729	0.01151
5390.64862	0.01154
5388.71994	0.01156
5386.79127	0.01158
5384.86259	0.01160
5382.93391	0.01163
5381.00524	0.01167
5379.07656	0.01168
5377.14789	0.01169
5375.21921	0.01171
5373.29054	0.01174
5371.36186	0.01176
5369.43318	0.01178
5367.50451	0.01181
5365.57583	0.01183
5363.64716	0.01184
5361.71848	0.01186
5359.78981	0.01190
5357.86113	0.01192
5355.93245	0.01192
5354.00378	0.01194
5352.07510	0.01197
5350.14643	0.01200
5348.21775	0.01201
5346.28908	0.01201
5344.36040	0.01203
5342.43172	0.01208
5340.50305	0.01211
5338.57437	0.01211
5336.64570	0.01213
5334.71702	0.01217
5332.78835	0.01219
5330.85967	0.01221
5328.93099	0.01224
5327.00232	0.01227
5325.07364	0.01229
5323.14497	0.01230
5321.21629	0.01231
5319.28762	0.01233
5317.35894	0.01237
5315.43026	0.01240
5313.50159	0.01245
5311.57291	0.01247
5309.64424	0.01246
5307.71556	0.01247
5305.78689	0.01251
5303.85821	0.01257
5301.92953	0.01260
5300.00086	0.01262
5298.07218	0.01263
5296.14351	0.01263
5294.21483	0.01265
5292.28616	0.01267
5290.35748	0.01271
5288.42880	0.01275
5286.50013	0.01277
5284.57145	0.01278
5282.64278	0.01280
5280.71410	0.01281
5278.78543	0.01282
5276.85675	0.01285
5274.92807	0.01291
5272.99940	0.01295
5271.07072	0.01296
5269.14205	0.01295
5267.21337	0.01295
5265.28470	0.01297
5263.35602	0.01299
5261.42734	0.01302
5259.49867	0.01305
5257.56999	0.01306
5255.64132	0.01307
5253.71264	0.01311
5251.78397	0.01316
5249.85529	0.01318
5247.92661	0.01320
5245.99794	0.01322
5244.06926	0.01324
5242.14059	0.01326
5240.21191	0.01328
5238.28324	0.01330
5236.35456	0.01332
5234.42588	0.01335
5232.49721	0.01339
5230.56853	0.01343
5228.63986	0.01345
5226.71118	0.01345
5224.78251	0.01346
5222.85383	0.01348
5220.92515	0.01352
5218.99648	0.01355
5217.06780	0.01358
5215.13913	0.01360
5213.21045	0.01361
5211.28178	0.01362
5209.35310	0.01365
5207.42442	0.01369
5205.49575	0.01371
5203.56707	0.01373
5201.63840	0.01375
5199.70972	0.01379
5197.78105	0.01383
5195.85237	0.01385
5193.92369	0.01388
5191.99502	0.01389
5190.06634	0.01390
5188.13767	0.01390
5186.20899	0.01391
5184.28032	0.01394
5182.35164	0.01398
5180.42296	0.01401
5178.49429	0.01404
5176.56561	0.01406
5174.63694	0.01408
5172.70826	0.01410
5170.77959	0.01411
5168.85091	0.01414
5166.92223	0.01418
5164.99356	0.01422
5163.06488	0.01425
5161.13621	0.01428
5159.20753	0.01432
5157.27886	0.01435
5155.35018	0.01436
5153.42150	0.01437
5151.49283	0.01437
5149.56415	0.01440
5147.63548	0.01443
5145.70680	0.01445
5143.77813	0.01445
5141.84945	0.01447
5139.92077	0.01451
5137.99210	0.01453
5136.06342	0.01456
5134.13475	0.01459
5132.20607	0.01463
5130.27740	0.01465
5128.34872	0.01469
5126.42004	0.01473
5124.49137	0.01476
5122.56269	0.01477
5120.63402	0.01477
5118.70534	0.01478
5116.77667	0.01480
5114.84799	0.01484
5112.91931	0.01487
5110.99064	0.01491
5109.06196	0.01495
5107.13329	0.01497
5105.20461	0.01498
5103.27594	0.01501
5101.34726	0.01503
5099.41858	0.01504
5097.48991	0.01506
5095.56123	0.01509
5093.63256	0.01511
5091.70388	0.01514
5089.77521	0.01517
5087.84653	0.01522
5085.91785	0.01524
5083.98918	0.01524
5082.06050	0.01524
5080.13183	0.01527
5078.20315	0.01530
5076.27448	0.01534
5074.34580	0.01536
5072.41712	0.01538
5070.48845	0.01539
5068.55977	0.01541
5066.63110	0.01544
5064.70242	0.01549
5062.77375	0.01553
5060.84507	0.01557
5058.91639	0.01558
5056.98772	0.01559
5055.05904	0.01564
5053.13037	0.01568
5051.20169	0.01571
5049.27302	0.01572
5047.34434	0.01571
5045.41566	0.01573
5043.48699	0.01577
5041.55831	0.01582
5039.62964	0.01584
5037.70096	0.01586
5035.77229	0.01588
5033.84361	0.01591
5031.91493	0.01594
5029.98626	0.01598
5028.05758	0.01602
5026.12891	0.01603
5024.20023	0.01604
5022.27156	0.01607
5020.34288	0.01610
5018.41420	0.01612
5016.48553	0.01614
5014.55685	0.01616
5012.62818	0.01618
5010.69950	0.01622
5008.77083	0.01627
5006.84215	0.01630
5004.91347	0.01630
5002.98480	0.01632
5001.05612	0.01635
4999.12745	0.01636
4997.19877	0.01636
4995.27010	0.01640
4993.34142	0.01645
4991.41274	0.01650
4989.48407	0.01652
4987.55539	0.01654
4985.62672	0.01656
4983.69804	0.01660
4981.76937	0.01666
4979.84069	0.01670
4977.91201	0.01670
4975.98334	0.01671
4974.05466	0.01675
4972.12599	0.01680
4970.19731	0.01683
4968.26864	0.01683
4966.33996	0.01684
4964.41128	0.01687
4962.48261	0.01689
4960.55393	0.01689
4958.62526	0.01691
4956.69658	0.01696
4954.76791	0.01700
4952.83923	0.01702
4950.91055	0.01704
4948.98188	0.01708
4947.05320	0.01712
4945.12453	0.01717
4943.19585	0.01722
4941.26718	0.01722
4939.33850	0.01721
4937.40982	0.01722
4935.48115	0.01727
4933.55247	0.01731
4931.62380	0.01733
4929.69512	0.01735
4927.76645	0.01739
4925.83777	0.01743
4923.90909	0.01746
4921.98042	0.01749
4920.05174	0.01752
4918.12307	0.01752
4916.19439	0.01752
4914.26572	0.01755
4912.33704	0.01759
4910.40836	0.01763
4908.47969	0.01767
4906.55101	0.01771
4904.62234	0.01773
4902.69366	0.01774
4900.76499	0.01776
4898.83631	0.01779
4896.90763	0.01781
4894.97896	0.01785
4893.05028	0.01789
4891.12161	0.01793
4889.19293	0.01797
4887.26426	0.01801
4885.33558	0.01804
4883.40690	0.01805
4881.47823	0.01805
4879.54955	0.01805
4877.62088	0.01806
4875.69220	0.01809
4873.76353	0.01813
4871.83485	0.01816
4869.90617	0.01820
4867.97750	0.01823
4866.04882	0.01826
4864.12015	0.01828
4862.19147	0.01831
4860.26280	0.01837
4858.33412	0.01843
4856.40544	0.01847
4854.47677	0.01846
4852.54809	0.01844
4850.61942	0.01847
4848.69074	0.01853
4846.76207	0.01856
4844.83339	0.01860
4842.90471	0.01865
4840.97604	0.01868
4839.04736	0.01868
4837.11869	0.01870
4835.19001	0.01874
4833.26134	0.01878
4831.33266	0.01881
4829.40398	0.01884
4827.47531	0.01887
4825.54663	0.01890
4823.61796	0.01891
4821.68928	0.01893
4819.76061	0.01898
4817.83193	0.01903
4815.90325	0.01906
4813.97458	0.01908
4812.04590	0.01910
4810.11723	0.01913
4808.18855	0.01918
4806.25988	0.01922
4804.33120	0.01925
4802.40252	0.01927
4800.47385	0.01930
4798.54517	0.01932
4796.61650	0.01936
4794.68782	0.01940
4792.75915	0.01945
4790.83047	0.01948
4788.90179	0.01952
4786.97312	0.01955
4785.04444	0.01958
4783.11577	0.01960
4781.18709	0.01960
4779.25842	0.01962
4777.32974	0.01965
4775.40106	0.01970
4773.47239	0.01974
4771.54371	0.01978
4769.61504	0.01983
4767.68636	0.01987
4765.75769	0.01988
4763.82901	0.01989
4761.90033	0.01993
4759.97166	0.01997
4758.04298	0.02001
4756.11431	0.02004
4754.18563	0.02006
4752.25696	0.02008
4750.32828	0.02010
4748.39960	0.02013
4746.47093	0.02015
4744.54225	0.02019
4742.61358	0.02022
4740.68490	0.02027
4738.75623	0.02031
4736.82755	0.02035
4734.89887	0.02039
4732.97020	0.02041
4731.04152	0.02041
4729.11285	0.02043
4727.18417	0.02048
4725.25550	0.02053
4723.32682	0.02057
4721.39814	0.02061
4719.46947	0.02065
4717.54079	0.02068
4715.61212	0.02069
4713.68344	0.02073
4711.75477	0.02078
4709.82609	0.02082
4707.89741	0.02085
4705.96874	0.02087
4704.04006	0.02088
4702.11139	0.02090
4700.18271	0.02094
4698.25404	0.02099
4696.32536	0.02101
4694.39668	0.02103
4692.46801	0.02109
4690.53933	0.02114
4688.61066	0.02116
4686.68198	0.02117
4684.75331	0.02120
4682.82463	0.02126
4680.89595	0.02131
4678.96728	0.02134
4677.03860	0.02138
4675.10993	0.02142
4673.18125	0.02144
4671.25258	0.02145
4669.32390	0.02147
4667.39522	0.02151
4665.46655	0.02157
4663.53787	0.02162
4661.60920	0.02167
4659.68052	0.02170
4657.75185	0.02172
4655.82317	0.02174
4653.89449	0.02175
4651.96582	0.02178
4650.03714	0.02181
4648.10847	0.02185
4646.17979	0.02188
4644.25112	0.02192
4642.32244	0.02197
4640.39376	0.02203
4638.46509	0.02207
4636.53641	0.02211
4634.60774	0.02215
4632.67906	0.02219
4630.75039	0.02221
4628.82171	0.02224
4626.89303	0.02226
4624.96436	0.02231
4623.03568	0.02236
4621.10701	0.02241
4619.17833	0.02244
4617.24966	0.02247
4615.32098	0.02250
4613.39230	0.02253
4611.46363	0.02255
4609.53495	0.02259
4607.60628	0.02262
4605.67760	0.02266
4603.74893	0.02271
4601.82025	0.02275
4599.89157	0.02279
4597.96290	0.02282
4596.03422	0.02283
4594.10555	0.02285
4592.17687	0.02290
4590.24820	0.02295
4588.31952	0.02300
4586.39084	0.02306
4584.46217	0.02312
4582.53349	0.02316
4580.60482	0.02316
4578.67614	0.02317
4576.74747	0.02319
4574.81879	0.02324
4572.89011	0.02328
4570.96144	0.02333
4569.03276	0.02339
4567.10409	0.02346
4565.17541	0.02351
4563.24674	0.02354
4561.31806	0.02357
4559.38938	0.02359
4557.46071	0.02362
4555.53203	0.02365
4553.60336	0.02368
4551.67468	0.02372
4549.74601	0.02375
4547.81733	0.02380
4545.88865	0.02386
4543.95998	0.02392
4542.03130	0.02396
4540.10263	0.02398
4538.17395	0.02402
4536.24528	0.02405
4534.31660	0.02408
4532.38792	0.02412
4530.45925	0.02415
4528.53057	0.02420
4526.60190	0.02425
4524.67322	0.02431
4522.74455	0.02434
4520.81587	0.02437
4518.88719	0.02441
4516.95852	0.02446
4515.02984	0.02452
4513.10117	0.02456
4511.17249	0.02460
4509.24382	0.02465
4507.31514	0.02469
4505.38646	0.02471
4503.45779	0.02474
4501.52911	0.02479
4499.60044	0.02484
4497.67176	0.02488
4495.74309	0.02492
4493.81441	0.02495
4491.88573	0.02498
4489.95706	0.02503
4488.02838	0.02507
4486.09971	0.02510
4484.17103	0.02515
4482.24236	0.02520
4480.31368	0.02524
4478.38500	0.02529
4476.45633	0.02534
4474.52765	0.02537
4472.59898	0.02540
4470.67030	0.02545
4468.74163	0.02550
4466.81295	0.02553
4464.88427	0.02554
4462.95560	0.02559
4461.02692	0.02565
4459.09825	0.02570
4457.16957	0.02575
4455.24090	0.02580
4453.31222	0.02586
4451.38354	0.02592
4449.45487	0.02597
4447.52619	0.02600
4445.59752	0.02603
4443.66884	0.02607
4441.74017	0.02611
4439.81149	0.02616
4437.88281	0.02622
4435.95414	0.02626
4434.02546	0.02630
4432.09679	0.02637
4430.16811	0.02643
4428.23944	0.02646
4426.31076	0.02647
4424.38208	0.02648
4422.45341	0.02651
4420.52473	0.02657
4418.59606	0.02665
4416.66738	0.02672
4414.73871	0.02677
4412.81003	0.02680
4410.88135	0.02683
4408.95268	0.02689
4407.02400	0.02694
4405.09533	0.02698
4403.16665	0.02703
4401.23798	0.02707
4399.30930	0.02710
4397.38062	0.02714
4395.45195	0.02720
4393.52327	0.02727
4391.59460	0.02732
4389.66592	0.02735
4387.73725	0.02738
4385.80857	0.02742
4383.87989	0.02746
4381.95122	0.02751
4380.02254	0.02756
4378.09387	0.02760
4376.16519	0.02765
4374.23652	0.02770
4372.30784	0.02776
4370.37916	0.02782
4368.45049	0.02787
4366.52181	0.02790
4364.59314	0.02795
4362.66446	0.02802
4360.73579	0.02808
4358.80711	0.02816
4356.87843	0.02823
4354.94976	0.02827
4353.02108	0.02830
4351.09241	0.02834
4349.16373	0.02837
4347.23506	0.02841
4345.30638	0.02846
4343.37770	0.02853
4341.44903	0.02858
4339.52035	0.02861
4337.59168	0.02865
4335.66300	0.02870
4333.73433	0.02877
4331.80565	0.02883
4329.87697	0.02887
4327.94830	0.02892
4326.01962	0.02898
4324.09095	0.02904
4322.16227	0.02910
4320.23360	0.02916
4318.30492	0.02920
4316.37624	0.02924
4314.44757	0.02929
4312.51889	0.02934
4310.59022	0.02939
4308.66154	0.02945
4306.73287	0.02952
4304.80419	0.02960
4302.87551	0.02966
4300.94684	0.02969
4299.01816	0.02971
4297.08949	0.02976
4295.16081	0.02984
4293.23214	0.02992
4291.30346	0.02996
4289.37478	0.02999
4287.44611	0.03002
4285.51743	0.03006
4283.58876	0.03013
4281.66008	0.03020
4279.73141	0.03026
4277.80273	0.03032
4275.87405	0.03037
4273.94538	0.03043
4272.01670	0.03048
4270.08803	0.03053
4268.15935	0.03058
4266.23068	0.03064
4264.30200	0.03071
4262.37332	0.03076
4260.44465	0.03080
4258.51597	0.03086
4256.58730	0.03092
4254.65862	0.03098
4252.72995	0.03103
4250.80127	0.03109
4248.87259	0.03114
4246.94392	0.03118
4245.01524	0.03123
4243.08657	0.03129
4241.15789	0.03137
4239.22922	0.03146
4237.30054	0.03153
4235.37186	0.03157
4233.44319	0.03162
4231.51451	0.03169
4229.58584	0.03176
4227.65716	0.03182
4225.72849	0.03186
4223.79981	0.03189
4221.87113	0.03193
4219.94246	0.03197
4218.01378	0.03204
4216.08511	0.03211
4214.15643	0.03217
4212.22776	0.03224
4210.29908	0.03231
4208.37040	0.03236
4206.44173	0.03240
4204.51305	0.03246
4202.58438	0.03253
4200.65570	0.03260
4198.72703	0.03266
4196.79835	0.03271
4194.86968	0.03276
4192.94100	0.03281
4191.01232	0.03287
4189.08365	0.03294
4187.15497	0.03303
4185.22630	0.03312
4183.29762	0.03317
4181.36895	0.03319
4179.44027	0.03324
4177.51159	0.03332
4175.58292	0.03338
4173.65424	0.03344
4171.72557	0.03351
4169.79689	0.03360
4167.86822	0.03366
4165.93954	0.03372
4164.01086	0.03377
4162.08219	0.03383
4160.15351	0.03390
4158.22484	0.03396
4156.29616	0.03402
4154.36749	0.03407
4152.43881	0.03412
4150.51013	0.03417
4148.58146	0.03424
4146.65278	0.03431
4144.72411	0.03438
4142.79543	0.03442
4140.86676	0.03446
4138.93808	0.03454
4137.00940	0.03462
4135.08073	0.03469
4133.15205	0.03476
4131.22338	0.03484
4129.29470	0.03491
4127.36603	0.03497
4125.43735	0.03504
4123.50867	0.03511
4121.58000	0.03517
4119.65132	0.03524
4117.72265	0.03531
4115.79397	0.03539
4113.86530	0.03546
4111.93662	0.03551
4110.00794	0.03557
4108.07927	0.03562
4106.15059	0.03568
4104.22192	0.03574
4102.29324	0.03580
4100.36457	0.03585
4098.43589	0.03591
4096.50721	0.03598
4094.57854	0.03606
4092.64986	0.03613
4090.72119	0.03620
4088.79251	0.03628
4086.86384	0.03635
4084.93516	0.03641
4083.00648	0.03648
4081.07781	0.03658
4079.14913	0.03667
4077.22046	0.03673
4075.29178	0.03677
4073.36311	0.03683
4071.43443	0.03689
4069.50575	0.03696
4067.57708	0.03704
4065.64840	0.03711
4063.71973	0.03718
4061.79105	0.03727
4059.86238	0.03735
4057.93370	0.03742
4056.00502	0.03749
4054.07635	0.03756
4052.14767	0.03761
4050.21900	0.03767
4048.29032	0.03774
4046.36165	0.03783
4044.43297	0.03791
4042.50429	0.03799
4040.57562	0.03807
4038.64694	0.03814
4036.71827	0.03820
4034.78959	0.03825
4032.86092	0.03831
4030.93224	0.03838
4029.00356	0.03845
4027.07489	0.03851
4025.14621	0.03860
4023.21754	0.03868
4021.28886	0.03876
4019.36019	0.03883
4017.43151	0.03891
4015.50283	0.03897
4013.57416	0.03903
4011.64548	0.03911
4009.71681	0.03919
4007.78813	0.03926
4005.85946	0.03935
4003.93078	0.03943
4002.00210	0.03949
4000.07343	0.03956
3998.14475	0.03964
3996.21608	0.03971
3994.28740	0.03977
3992.35873	0.03983
3990.43005	0.03990
3988.50137	0.03998
3986.57270	0.04004
3984.64402	0.04011
3982.71535	0.04018
3980.78667	0.04027
3978.85800	0.04035
3976.92932	0.04041
3975.00064	0.04047
3973.07197	0.04057
3971.14329	0.04069
3969.21462	0.04080
3967.28594	0.04088
3965.35727	0.04096
3963.42859	0.04101
3961.49991	0.04106
3959.57124	0.04111
3957.64256	0.04118
3955.71389	0.04127
3953.78521	0.04134
3951.85654	0.04141
3949.92786	0.04147
3947.99918	0.04153
3946.07051	0.04160
3944.14183	0.04165
3942.21316	0.04174
3940.28448	0.04185
3938.35581	0.04195
3936.42713	0.04200
3934.49845	0.04203
3932.56978	0.04207
3930.64110	0.04217
3928.71243	0.04229
3926.78375	0.04238
3924.85508	0.04245
3922.92640	0.04253
3920.99772	0.04259
3919.06905	0.04261
3917.14037	0.04268
3915.21170	0.04282
3913.28302	0.04297
3911.35435	0.04308
3909.42567	0.04314
3907.49699	0.04314
3905.56832	0.04309
3903.63964	0.04306
3901.71097	0.04311
3899.78229	0.04327
3897.85362	0.04349
3895.92494	0.04367
3893.99626	0.04373
3892.06759	0.04373
3890.13891	0.04382
3888.21024	0.04394
3886.28156	0.04397
3884.35289	0.04400
3882.42421	0.04403
3880.49553	0.04411
3878.56686	0.04426
3876.63818	0.04442
3874.70951	0.04450
3872.78083	0.04455
3870.85216	0.04460
3868.92348	0.04467
3866.99480	0.04477
3865.06613	0.04483
3863.13745	0.04493
3861.20878	0.04507
3859.28010	0.04517
3857.35143	0.04511
3855.42275	0.04491
3853.49407	0.04489
3851.56540	0.04522
3849.63672	0.04558
3847.70805	0.04576
3845.77937	0.04583
3843.85070	0.04588
3841.92202	0.04589
3839.99334	0.04585
3838.06467	0.04584
3836.13599	0.04595
3834.20732	0.04613
3832.27864	0.04628
3830.34997	0.04640
3828.42129	0.04649
3826.49261	0.04658
3824.56394	0.04667
3822.63526	0.04671
3820.70659	0.04675
3818.77791	0.04680
3816.84924	0.04684
3814.92056	0.04700
3812.99188	0.04727
3811.06321	0.04743
3809.13453	0.04745
3807.20586	0.04748
3805.27718	0.04755
3803.34851	0.04755
3801.41983	0.04756
3799.49115	0.04768
3797.56248	0.04783
3795.63380	0.04798
3793.70513	0.04815
3791.77645	0.04828
3789.84778	0.04836
3787.91910	0.04845
3785.99042	0.04852
3784.06175	0.04861
3782.13307	0.04869
3780.20440	0.04876
3778.27572	0.04887
3776.34705	0.04900
3774.41837	0.04910
3772.48969	0.04913
3770.56102	0.04914
3768.63234	0.04922
3766.70367	0.04935
3764.77499	0.04945
3762.84632	0.04950
3760.91764	0.04951
3758.98896	0.04957
3757.06029	0.04970
3755.13161	0.04972
3753.20294	0.04960
3751.27426	0.04960
3749.34559	0.04977
3747.41691	0.04974
3745.48823	0.04953
3743.55956	0.04967
3741.63088	0.05014
3739.70221	0.05038
3737.77353	0.05033
3735.84486	0.05037
3733.91618	0.05056
3731.98750	0.05077
3730.05883	0.05097
3728.13015	0.05110
3726.20148	0.05116
3724.27280	0.05122
3722.34413	0.05133
3720.41545	0.05148
3718.48677	0.05164
3716.55810	0.05173
3714.62942	0.05175
3712.70075	0.05176
3710.77207	0.05183
3708.84340	0.05198
3706.91472	0.05215
3704.98604	0.05225
3703.05737	0.05229
3701.12869	0.05237
3699.20002	0.05252
3697.27134	0.05266
3695.34267	0.05271
3693.41399	0.05268
3691.48531	0.05262
3689.55664	0.05262
3687.62796	0.05279
3685.69929	0.05305
3683.77061	0.05324
3681.84194	0.05331
3679.91326	0.05330
3677.98458	0.05324
3676.05591	0.05326
3674.12723	0.05343
3672.19856	0.05358
3670.26988	0.05361
3668.34121	0.05373
3666.41253	0.05395
3664.48385	0.05412
3662.55518	0.05422
3660.62650	0.05430
3658.69783	0.05435
3656.76915	0.05441
3654.84048	0.05446
3652.91180	0.05438
3650.98312	0.05417
3649.05445	0.05407
3647.12577	0.05420
3645.19710	0.05450
3643.26842	0.05482
3641.33975	0.05503
3639.41107	0.05515
3637.48239	0.05523
3635.55372	0.05529
3633.62504	0.05533
3631.69637	0.05530
3629.76769	0.05522
3627.83902	0.05527
3625.91034	0.05550
3623.98166	0.05569
3622.05299	0.05572
3620.12431	0.05570
3618.19564	0.05578
3616.26696	0.05589
3614.33829	0.05590
3612.40961	0.05584
3610.48093	0.05582
3608.55226	0.05594
3606.62358	0.05619
3604.69491	0.05641
3602.76623	0.05650
3600.83756	0.05654
3598.90888	0.05661
3596.98020	0.05668
3595.05153	0.05674
3593.12285	0.05681
3591.19418	0.05683
3589.26550	0.05678
3587.33683	0.05679
3585.40815	0.05696
3583.47947	0.05717
3581.55080	0.05729
3579.62212	0.05736
3577.69345	0.05745
3575.76477	0.05754
3573.83610	0.05764
3571.90742	0.05769
3569.97874	0.05763
3568.05007	0.05753
3566.12139	0.05760
3564.19272	0.05781
3562.26404	0.05798
3560.33537	0.05809
3558.40669	0.05821
3556.47801	0.05831
3554.54934	0.05837
3552.62066	0.05842
3550.69199	0.05849
3548.76331	0.05853
3546.83464	0.05856
3544.90596	0.05862
3542.97728	0.05872
3541.04861	0.05879
3539.11993	0.05883
3537.19126	0.05888
3535.26258	0.05894
3533.33391	0.05898
3531.40523	0.05900
3529.47655	0.05903
3527.54788	0.05908
3525.61920	0.05913
3523.69053	0.05918
3521.76185	0.05923
3519.83318	0.05928
3517.90450	0.05933
3515.97582	0.05937
3514.04715	0.05941
3512.11847	0.05942
3510.18980	0.05945
3508.26112	0.05953
3506.33245	0.05959
3504.40377	0.05960
3502.47509	0.05960
3500.54642	0.05964
3498.61774	0.05968
3496.68907	0.05968
3494.76039	0.05969
3492.83172	0.05975
3490.90304	0.05981
3488.97436	0.05985
3487.04569	0.05987
3485.11701	0.05990
3483.18834	0.05994
3481.25966	0.06000
3479.33099	0.06005
3477.40231	0.06008
3475.47363	0.06014
3473.54496	0.06024
3471.61628	0.06033
3469.68761	0.06042
3467.75893	0.06051
3465.83026	0.06060
3463.90158	0.06068
3461.97290	0.06076
3460.04423	0.06089
3458.11555	0.06100
3456.18688	0.06109
3454.25820	0.06118
3452.32953	0.06126
3450.40085	0.06131
3448.47217	0.06136
3446.54350	0.06145
3444.61482	0.06157
3442.68615	0.06170
3440.75747	0.06183
3438.82880	0.06198
3436.90012	0.06215
3434.97144	0.06232
3433.04277	0.06251
3431.11409	0.06271
3429.18542	0.06291
3427.25674	0.06310
3425.32807	0.06329
3423.39939	0.06349
3421.47071	0.06368
3419.54204	0.06385
3417.61336	0.06403
3415.68469	0.06420
3413.75601	0.06436
3411.82734	0.06449
3409.89866	0.06461
3407.96998	0.06475
3406.04131	0.06491
3404.11263	0.06505
3402.18396	0.06516
3400.25528	0.06526
3398.32661	0.06536
3396.39793	0.06548
3394.46925	0.06561
3392.54058	0.06576
3390.61190	0.06590
3388.68323	0.06606
3386.75455	0.06623
3384.82588	0.06638
3382.89720	0.06650
3380.96852	0.06660
3379.03985	0.06673
3377.11117	0.06687
3375.18250	0.06698
3373.25382	0.06708
3371.32515	0.06721
3369.39647	0.06734
3367.46779	0.06747
3365.53912	0.06759
3363.61044	0.06771
3361.68177	0.06781
3359.75309	0.06791
3357.82442	0.06803
3355.89574	0.06815
3353.96706	0.06829
3352.03839	0.06843
3350.10971	0.06855
3348.18104	0.06868
3346.25236	0.06881
3344.32369	0.06893
3342.39501	0.06904
3340.46633	0.06915
3338.53766	0.06928
3336.60898	0.06943
3334.68031	0.06956
3332.75163	0.06967
3330.82296	0.06976
3328.89428	0.06986
3326.96560	0.06997
3325.03693	0.07008
3323.10825	0.07021
3321.17958	0.07037
3319.25090	0.07052
3317.32223	0.07063
3315.39355	0.07074
3313.46487	0.07087
3311.53620	0.07102
3309.60752	0.07114
3307.67885	0.07124
3305.75017	0.07137
3303.82150	0.07151
3301.89282	0.07166
3299.96414	0.07182
3298.03547	0.07195
3296.10679	0.07204
3294.17812	0.07212
3292.24944	0.07225
3290.32077	0.07241
3288.39209	0.07255
3286.46341	0.07267
3284.53474	0.07280
3282.60606	0.07293
3280.67739	0.07307
3278.74871	0.07321
3276.82004	0.07333
3274.89136	0.07346
3272.96268	0.07360
3271.03401	0.07375
3269.10533	0.07388
3267.17666	0.07400
3265.24798	0.07412
3263.31931	0.07425
3261.39063	0.07440
3259.46195	0.07453
3257.53328	0.07464
3255.60460	0.07476
3253.67593	0.07491
3251.74725	0.07505
3249.81858	0.07518
3247.88990	0.07530
3245.96122	0.07542
3244.03255	0.07556
3242.10387	0.07573
3240.17520	0.07589
3238.24652	0.07602
3236.31785	0.07614
3234.38917	0.07626
3232.46049	0.07639
3230.53182	0.07653
3228.60314	0.07669
3226.67447	0.07684
3224.74579	0.07696
3222.81712	0.07706
3220.88844	0.07716
3218.95976	0.07728
3217.03109	0.07744
3215.10241	0.07759
3213.17374	0.07772
3211.24506	0.07783
3209.31639	0.07794
3207.38771	0.07808
3205.45903	0.07824
3203.53036	0.07838
3201.60168	0.07850
3199.67301	0.07863
3197.74433	0.07878
3195.81566	0.07894
3193.88698	0.07912
3191.95830	0.07928
3190.02963	0.07943
3188.10095	0.07957
3186.17228	0.07970
3184.24360	0.07984
3182.31493	0.07997
3180.38625	0.08009
3178.45757	0.08023
3176.52890	0.08040
3174.60022	0.08059
3172.67155	0.08073
3170.74287	0.08083
3168.81420	0.08093
3166.88552	0.08110
3164.95684	0.08128
3163.02817	0.08143
3161.09949	0.08153
3159.17082	0.08161
3157.24214	0.08173
3155.31347	0.08189
3153.38479	0.08204
3151.45611	0.08220
3149.52744	0.08236
3147.59876	0.08250
3145.67009	0.08263
3143.74141	0.08277
3141.81274	0.08294
3139.88406	0.08310
3137.95538	0.08320
3136.02671	0.08330
3134.09803	0.08345
3132.16936	0.08360
3130.24068	0.08371
3128.31201	0.08383
3126.38333	0.08398
3124.45465	0.08410
3122.52598	0.08420
3120.59730	0.08432
3118.66863	0.08447
3116.73995	0.08462
3114.81128	0.08478
3112.88260	0.08495
3110.95392	0.08511
3109.02525	0.08524
3107.09657	0.08536
3105.16790	0.08547
3103.23922	0.08559
3101.31055	0.08572
3099.38187	0.08589
3097.45319	0.08606
3095.52452	0.08621
3093.59584	0.08635
3091.66717	0.08648
3089.73849	0.08662
3087.80982	0.08676
3085.88114	0.08690
3083.95246	0.08703
3082.02379	0.08716
3080.09511	0.08731
3078.16644	0.08745
3076.23776	0.08755
3074.30909	0.08766
3072.38041	0.08781
3070.45173	0.08796
3068.52306	0.08810
3066.59438	0.08822
3064.66571	0.08836
3062.73703	0.08852
3060.80836	0.08866
3058.87968	0.08879
3056.95100	0.08891
3055.02233	0.08904
3053.09365	0.08917
3051.16498	0.08931
3049.23630	0.08945
3047.30763	0.08961
3045.37895	0.08976
3043.45027	0.08989
3041.52160	0.09000
3039.59292	0.09011
3037.66425	0.09024
3035.73557	0.09040
3033.80690	0.09056
3031.87822	0.09072
3029.94954	0.09088
3028.02087	0.09101
3026.09219	0.09114
3024.16352	0.09127
3022.23484	0.09140
3020.30617	0.09153
3018.37749	0.09165
3016.44881	0.09176
3014.52014	0.09188
3012.59146	0.09203
3010.66279	0.09219
3008.73411	0.09234
3006.80544	0.09250
3004.87676	0.09265
3002.94808	0.09278
3001.01941	0.09291
2999.09073	0.09305
2997.16206	0.09316
2995.23338	0.09326
2993.30471	0.09342
2991.37603	0.09359
2989.44735	0.09371
2987.51868	0.09382
2985.59000	0.09390
2983.66133	0.09397
2981.73265	0.09404
2979.80398	0.09413
2977.87530	0.09416
2975.94662	0.09413
2974.01795	0.09412
2972.08927	0.09414
2970.16060	0.09413
2968.23192	0.09410
2966.30325	0.09408
2964.37457	0.09411
2962.44589	0.09418
2960.51722	0.09429
2958.58854	0.09446
2956.65987	0.09467
2954.73119	0.09488
2952.80252	0.09508
2950.87384	0.09526
2948.94516	0.09539
2947.01649	0.09549
2945.08781	0.09557
2943.15914	0.09559
2941.23046	0.09561
2939.30179	0.09564
2937.37311	0.09565
2935.44443	0.09565
2933.51576	0.09564
2931.58708	0.09563
2929.65841	0.09560
2927.72973	0.09559
2925.80106	0.09558
2923.87238	0.09558
2921.94370	0.09559
2920.01503	0.09566
2918.08635	0.09583
2916.15768	0.09613
2914.22900	0.09656
2912.30033	0.09704
2910.37165	0.09747
2908.44297	0.09781
2906.51430	0.09812
2904.58562	0.09840
2902.65695	0.09864
2900.72827	0.09886
2898.79960	0.09905
2896.87092	0.09925
2894.94224	0.09945
2893.01357	0.09964
2891.08489	0.09982
2889.15622	0.10001
2887.22754	0.10019
2885.29887	0.10034
2883.37019	0.10049
2881.44151	0.10063
2879.51284	0.10079
2877.58416	0.10095
2875.65549	0.10109
2873.72681	0.10119
2871.79814	0.10129
2869.86946	0.10142
2867.94078	0.10157
2866.01211	0.10170
2864.08343	0.10177
2862.15476	0.10179
2860.22608	0.10181
2858.29741	0.10181
2856.36873	0.10180
2854.44005	0.10178
2852.51138	0.10180
2850.58270	0.10190
2848.65403	0.10221
2846.72535	0.10270
2844.79668	0.10318
2842.86800	0.10358
2840.93932	0.10391
2839.01065	0.10417
2837.08197	0.10441
2835.15330	0.10465
2833.22462	0.10484
2831.29595	0.10498
2829.36727	0.10512
2827.43859	0.10529
2825.50992	0.10548
2823.58124	0.10567
2821.65257	0.10584
2819.72389	0.10598
2817.79522	0.10612
2815.86654	0.10628
2813.93786	0.10645
2812.00919	0.10660
2810.08051	0.10676
2808.15184	0.10690
2806.22316	0.10706
2804.29449	0.10723
2802.36581	0.10741
2800.43713	0.10754
2798.50846	0.10765
2796.57978	0.10781
2794.65111	0.10798
2792.72243	0.10812
2790.79376	0.10826
2788.86508	0.10842
2786.93640	0.10859
2785.00773	0.10877
2783.07905	0.10893
2781.15038	0.10910
2779.22170	0.10924
2777.29303	0.10937
2775.36435	0.10952
2773.43567	0.10969
2771.50700	0.10985
2769.57832	0.10998
2767.64965	0.11010
2765.72097	0.11025
2763.79230	0.11040
2761.86362	0.11054
2759.93494	0.11068
2758.00627	0.11084
2756.07759	0.11098
2754.14892	0.11111
2752.22024	0.11123
2750.29157	0.11137
2748.36289	0.11154
2746.43421	0.11172
2744.50554	0.11188
2742.57686	0.11200
2740.64819	0.11214
2738.71951	0.11228
2736.79084	0.11242
2734.86216	0.11255
2732.93348	0.11270
2731.00481	0.11288
2729.07613	0.11305
2727.14746	0.11316
2725.21878	0.11324
2723.29011	0.11337
2721.36143	0.11354
2719.43275	0.11370
2717.50408	0.11382
2715.57540	0.11396
2713.64673	0.11411
2711.71805	0.11426
2709.78938	0.11440
2707.86070	0.11452
2705.93202	0.11465
2704.00335	0.11481
2702.07467	0.11498
2700.14600	0.11515
2698.21732	0.11530
2696.28865	0.11545
2694.35997	0.11557
2692.43129	0.11570
2690.50262	0.11585
2688.57394	0.11600
2686.64527	0.11614
2684.71659	0.11627
2682.78792	0.11640
2680.85924	0.11653
2678.93056	0.11667
2677.00189	0.11683
2675.07321	0.11698
2673.14454	0.11710
2671.21586	0.11722
2669.28719	0.11735
2667.35851	0.11750
2665.42983	0.11766
2663.50116	0.11781
2661.57248	0.11796
2659.64381	0.11811
2657.71513	0.11826
2655.78646	0.11841
2653.85778	0.11860
2651.92910	0.11877
2650.00043	0.11890
2648.07175	0.11904
2646.14308	0.11920
2644.21440	0.11934
2642.28573	0.11947
2640.35705	0.11959
2638.42837	0.11972
2636.49970	0.11988
2634.57102	0.12006
2632.64235	0.12024
2630.71367	0.12040
2628.78500	0.12055
2626.85632	0.12072
2624.92764	0.12088
2622.99897	0.12105
2621.07029	0.12122
2619.14162	0.12139
2617.21294	0.12153
2615.28427	0.12166
2613.35559	0.12179
2611.42691	0.12194
2609.49824	0.12211
2607.56956	0.12231
2605.64089	0.12251
2603.71221	0.12268
2601.78354	0.12282
2599.85486	0.12296
2597.92618	0.12311
2595.99751	0.12324
2594.06883	0.12337
2592.14016	0.12352
2590.21148	0.12367
2588.28281	0.12383
2586.35413	0.12400
2584.42545	0.12416
2582.49678	0.12430
2580.56810	0.12444
2578.63943	0.12461
2576.71075	0.12477
2574.78208	0.12488
2572.85340	0.12499
2570.92472	0.12514
2568.99605	0.12532
2567.06737	0.12549
2565.13870	0.12563
2563.21002	0.12576
2561.28135	0.12590
2559.35267	0.12605
2557.42399	0.12623
2555.49532	0.12641
2553.56664	0.12656
2551.63797	0.12670
2549.70929	0.12683
2547.78062	0.12695
2545.85194	0.12708
2543.92326	0.12720
2541.99459	0.12733
2540.06591	0.12748
2538.13724	0.12763
2536.20856	0.12778
2534.27989	0.12793
2532.35121	0.12810
2530.42253	0.12828
2528.49386	0.12846
2526.56518	0.12864
2524.63651	0.12879
2522.70783	0.12891
2520.77916	0.12906
2518.85048	0.12924
2516.92181	0.12938
2514.99313	0.12950
2513.06445	0.12965
2511.13578	0.12981
2509.20710	0.12996
2507.27843	0.13012
2505.34975	0.13029
2503.42108	0.13047
2501.49240	0.13066
2499.56372	0.13086
2497.63505	0.13106
2495.70637	0.13122
2493.77770	0.13136
2491.84902	0.13150
2489.92035	0.13166
2487.99167	0.13183
2486.06299	0.13202
2484.13432	0.13219
2482.20564	0.13235
2480.27697	0.13248
2478.34829	0.13261
2476.41962	0.13276
2474.49094	0.13293
2472.56226	0.13308
2470.63359	0.13321
2468.70491	0.13337
2466.77624	0.13355
2464.84756	0.13375
2462.91889	0.13395
2460.99021	0.13411
2459.06153	0.13422
2457.13286	0.13436
2455.20418	0.13453
2453.27551	0.13470
2451.34683	0.13483
2449.41816	0.13497
2447.48948	0.13516
2445.56080	0.13533
2443.63213	0.13548
2441.70345	0.13566
2439.77478	0.13583
2437.84610	0.13597
2435.91743	0.13613
2433.98875	0.13632
2432.06007	0.13650
2430.13140	0.13667
2428.20272	0.13683
2426.27405	0.13698
2424.34537	0.13714
2422.41670	0.13729
2420.48802	0.13744
2418.55934	0.13759
2416.63067	0.13773
2414.70199	0.13787
2412.77332	0.13802
2410.84464	0.13815
2408.91597	0.13830
2406.98729	0.13849
2405.05861	0.13866
2403.12994	0.13881
2401.20126	0.13896
2399.27259	0.13912
2397.34391	0.13929
2395.41524	0.13945
2393.48656	0.13960
2391.55788	0.13975
2389.62921	0.13993
2387.70053	0.14008
2385.77186	0.14021
2383.84318	0.14035
2381.91451	0.14049
2379.98583	0.14057
2378.05715	0.14057
2376.12848	0.14054
2374.19980	0.14052
2372.27113	0.14053
2370.34245	0.14058
2368.41378	0.14068
2366.48510	0.14077
2364.55642	0.14087
2362.62775	0.14099
2360.69907	0.14112
2358.77040	0.14130
2356.84172	0.14155
2354.91305	0.14183
2352.98437	0.14214
2351.05569	0.14248
2349.12702	0.14276
2347.19834	0.14288
2345.26967	0.14288
2343.34099	0.14285
2341.41232	0.14290
2339.48364	0.14307
2337.55496	0.14330
2335.62629	0.14350
2333.69761	0.14369
2331.76894	0.14389
2329.84026	0.14409
2327.91159	0.14428
2325.98291	0.14448
2324.05423	0.14470
2322.12556	0.14491
2320.19688	0.14512
2318.26821	0.14531
2316.33953	0.14550
2314.41086	0.14569
2312.48218	0.14589
2310.55350	0.14609
2308.62483	0.14625
2306.69615	0.14639
2304.76748	0.14658
2302.83880	0.14680
2300.91013	0.14702
2298.98145	0.14722
2297.05277	0.14740
2295.12410	0.14758
2293.19542	0.14773
2291.26675	0.14786
2289.33807	0.14802
2287.40940	0.14820
2285.48072	0.14838
2283.55204	0.14855
2281.62337	0.14871
2279.69469	0.14884
2277.76602	0.14897
2275.83734	0.14909
2273.90867	0.14924
2271.97999	0.14944
2270.05131	0.14963
2268.12264	0.14976
2266.19396	0.14988
2264.26529	0.15000
2262.33661	0.15011
2260.40794	0.15027
2258.47926	0.15052
2256.55058	0.15076
2254.62191	0.15092
2252.69323	0.15103
2250.76456	0.15115
2248.83588	0.15128
2246.90721	0.15142
2244.97853	0.15161
2243.04985	0.15184
2241.12118	0.15203
2239.19250	0.15219
2237.26383	0.15231
2235.33515	0.15243
2233.40648	0.15256
2231.47780	0.15274
2229.54912	0.15294
2227.62045	0.15312
2225.69177	0.15327
2223.76310	0.15342
2221.83442	0.15359
2219.90575	0.15376
2217.97707	0.15390
2216.04839	0.15402
2214.11972	0.15419
2212.19104	0.15439
2210.26237	0.15456
2208.33369	0.15471
2206.40502	0.15485
2204.47634	0.15497
2202.54766	0.15508
2200.61899	0.15521
2198.69031	0.15536
2196.76164	0.15555
2194.83296	0.15575
2192.90429	0.15593
2190.97561	0.15608
2189.04693	0.15623
2187.11826	0.15637
2185.18958	0.15650
2183.26091	0.15663
2181.33223	0.15681
2179.40356	0.15698
2177.47488	0.15711
2175.54620	0.15724
2173.61753	0.15739
2171.68885	0.15754
2169.76018	0.15771
2167.83150	0.15789
2165.90283	0.15804
2163.97415	0.15818
2162.04547	0.15836
2160.11680	0.15856
2158.18812	0.15876
2156.25945	0.15891
2154.33077	0.15906
2152.40210	0.15925
2150.47342	0.15944
2148.54474	0.15960
2146.61607	0.15975
2144.68739	0.15989
2142.75872	0.16002
2140.83004	0.16015
2138.90137	0.16028
2136.97269	0.16044
2135.04401	0.16066
2133.11534	0.16086
2131.18666	0.16099
2129.25799	0.16111
2127.32931	0.16127
2125.40064	0.16145
2123.47196	0.16161
2121.54328	0.16177
2119.61461	0.16196
2117.68593	0.16217
2115.75726	0.16237
2113.82858	0.16252
2111.89991	0.16263
2109.97123	0.16273
2108.04255	0.16284
2106.11388	0.16298
2104.18520	0.16317
2102.25653	0.16335
2100.32785	0.16352
2098.39918	0.16370
2096.47050	0.16388
2094.54182	0.16405
2092.61315	0.16420
2090.68447	0.16434
2088.75580	0.16446
2086.82712	0.16459
2084.89845	0.16475
2082.96977	0.16495
2081.04109	0.16518
2079.11242	0.16537
2077.18374	0.16550
2075.25507	0.16561
2073.32639	0.16571
2071.39772	0.16585
2069.46904	0.16603
2067.54036	0.16623
2065.61169	0.16643
2063.68301	0.16658
2061.75434	0.16670
2059.82566	0.16684
2057.89699	0.16703
2055.96831	0.16724
2054.03963	0.16740
2052.11096	0.16751
2050.18228	0.16760
2048.25361	0.16775
2046.32493	0.16795
2044.39626	0.16818
2042.46758	0.16837
2040.53890	0.16850
2038.61023	0.16863
2036.68155	0.16880
2034.75288	0.16898
2032.82420	0.16915
2030.89553	0.16933
2028.96685	0.16950
2027.03817	0.16965
2025.10950	0.16979
2023.18082	0.16995
2021.25215	0.17011
2019.32347	0.17026
2017.39480	0.17041
2015.46612	0.17059
2013.53744	0.17078
2011.60877	0.17094
2009.68009	0.17109
2007.75142	0.17126
2005.82274	0.17140
2003.89407	0.17154
2001.96539	0.17171
2000.03671	0.17189
1998.10804	0.17207
1996.17936	0.17220
1994.25069	0.17231
1992.32201	0.17243
1990.39334	0.17259
1988.46466	0.17275
1986.53598	0.17291
1984.60731	0.17309
1982.67863	0.17324
1980.74996	0.17336
1978.82128	0.17345
1976.89261	0.17357
1974.96393	0.17372
1973.03525	0.17389
1971.10658	0.17405
1969.17790	0.17416
1967.24923	0.17421
1965.32055	0.17431
1963.39188	0.17449
1961.46320	0.17471
1959.53452	0.17495
1957.60585	0.17516
1955.67717	0.17531
1953.74850	0.17541
1951.81982	0.17552
1949.89115	0.17565
1947.96247	0.17576
1946.03379	0.17582
1944.10512	0.17590
1942.17644	0.17608
1940.24777	0.17633
1938.31909	0.17656
1936.39042	0.17678
1934.46174	0.17696
1932.53306	0.17707
1930.60439	0.17716
1928.67571	0.17728
1926.74704	0.17743
1924.81836	0.17751
1922.88969	0.17759
1920.96101	0.17772
1919.03233	0.17785
1917.10366	0.17810
1915.17498	0.17844
1913.24631	0.17864
1911.31763	0.17870
1909.38896	0.17878
1907.46028	0.17895
1905.53160	0.17917
1903.60293	0.17935
1901.67425	0.17949
1899.74558	0.17965
1897.81690	0.17981
1895.88823	0.17995
1893.95955	0.18010
1892.03087	0.18026
1890.10220	0.18041
1888.17352	0.18062
1886.24485	0.18081
1884.31617	0.18092
1882.38750	0.18105
1880.45882	0.18122
1878.53014	0.18138
1876.60147	0.18150
1874.67279	0.18160
1872.74412	0.18160
1870.81544	0.18146
1868.88677	0.18148
1866.95809	0.18186
1865.02941	0.18231
1863.10074	0.18260
1861.17206	0.18279
1859.24339	0.18295
1857.31471	0.18308
1855.38604	0.18322
1853.45736	0.18337
1851.52868	0.18351
1849.60001	0.18361
1847.67133	0.18368
1845.74266	0.18372
1843.81398	0.18384
1841.88531	0.18411
1839.95663	0.18442
1838.02795	0.18465
1836.09928	0.18480
1834.17060	0.18487
1832.24193	0.18486
1830.31325	0.18491
1828.38458	0.18512
1826.45590	0.18535
1824.52722	0.18557
1822.59855	0.18586
1820.66987	0.18610
1818.74120	0.18624
1816.81252	0.18639
1814.88385	0.18651
1812.95517	0.18657
1811.02649	0.18664
1809.09782	0.18675
1807.16914	0.18689
1805.24047	0.18703
1803.31179	0.18710
1801.38312	0.18715
1799.45444	0.18729
1797.52576	0.18744
1795.59709	0.18739
1793.66841	0.18720
1791.73974	0.18733
1789.81106	0.18780
1787.88239	0.18803
1785.95371	0.18791
1784.02503	0.18793
1782.09636	0.18816
1780.16768	0.18844
1778.23901	0.18873
1776.31033	0.18888
1774.38166	0.18883
1772.45298	0.18879
1770.52430	0.18893
1768.59563	0.18917
1766.66695	0.18941
1764.73828	0.18949
1762.80960	0.18939
1760.88093	0.18940
1758.95225	0.18960
1757.02357	0.18979
1755.09490	0.18980
1753.16622	0.18941
1751.23755	0.18900
1749.30887	0.18906
1747.38020	0.18935
1745.45152	0.18945
1743.52284	0.18937
1741.59417	0.18927
1739.66549	0.18935
1737.73682	0.18952
1735.80814	0.18943
1733.87947	0.18936
1731.95079	0.18974
1730.02211	0.19028
1728.09344	0.19064
1726.16476	0.19080
1724.23609	0.19090
1722.30741	0.19096
1720.37874	0.19082
1718.45006	0.19058
1716.52138	0.19066
1714.59271	0.19109
1712.66403	0.19151
1710.73536	0.19175
1708.80668	0.19182
1706.87801	0.19176
1704.94933	0.19164
1703.02065	0.19131
1701.09198	0.19093
1699.16330	0.19103
1697.23463	0.19150
1695.30595	0.19194
1693.37728	0.19228
1691.44860	0.19236
1689.51992	0.19229
1687.59125	0.19219
1685.66257	0.19194
1683.73390	0.19183
1681.80522	0.19214
1679.87655	0.19252
1677.94787	0.19249
1676.01919	0.19217
1674.09052	0.19207
1672.16184	0.19221
1670.23317	0.19236
1668.30449	0.19265
1666.37582	0.19289
1664.44714	0.19278
1662.51846	0.19269
1660.58979	0.19298
1658.66111	0.19327
1656.73244	0.19309
1654.80376	0.19245
1652.87509	0.19207
1650.94641	0.19231
1649.01773	0.19253
1647.08906	0.19264
1645.16038	0.19307
1643.23171	0.19357
1641.30303	0.19376
1639.37436	0.19365
1637.44568	0.19336
1635.51700	0.19331
1633.58833	0.19367
1631.65965	0.19398
1629.73098	0.19397
1627.80230	0.19386
1625.87363	0.19370
1623.94495	0.19340
1622.01627	0.19310
1620.08760	0.19298
1618.15892	0.19303
1616.23025	0.19349
1614.30157	0.19431
1612.37290	0.19497
1610.44422	0.19531
1608.51554	0.19559
1606.58687	0.19590
1604.65819	0.19614
1602.72952	0.19632
1600.80084	0.19650
1598.87217	0.19666
1596.94349	0.19676
1595.01481	0.19688
1593.08614	0.19707
1591.15746	0.19727
1589.22879	0.19745
1587.30011	0.19764
1585.37144	0.19786
1583.44276	0.19804
1581.51408	0.19817
1579.58541	0.19815
1577.65673	0.19795
1575.72806	0.19793
1573.79938	0.19824
1571.87071	0.19846
1569.94203	0.19851
1568.01335	0.19869
1566.08468	0.19890
1564.15600	0.19889
1562.22733	0.19838
1560.29865	0.19774
1558.36998	0.19794
1556.44130	0.19885
1554.51262	0.19959
1552.58395	0.19989
1550.65527	0.20001
1548.72660	0.20004
1546.79792	0.19984
1544.86925	0.19950
1542.94057	0.19935
1541.01189	0.19946
1539.08322	0.19988
1537.15454	0.20027
1535.22587	0.20018
1533.29719	0.20011
1531.36852	0.20048
1529.43984	0.20076
1527.51116	0.20062
1525.58249	0.20038
1523.65381	0.20014
1521.72514	0.20001
1519.79646	0.20025
1517.86779	0.20058
1515.93911	0.20084
1514.01043	0.20109
1512.08176	0.20110
1510.15308	0.20064
1508.22441	0.20001
1506.29573	0.20008
1504.36706	0.20097
1502.43838	0.20158
1500.50970	0.20139
1498.58103	0.20109
1496.65235	0.20123
1494.72368	0.20154
1492.79500	0.20155
1490.86633	0.20131
1488.93765	0.20116
1487.00897	0.20126
1485.08030	0.20149
1483.15162	0.20155
1481.22295	0.20135
1479.29427	0.20089
1477.36560	0.20026
1475.43692	0.19970
1473.50824	0.19934
1471.57957	0.19924
1469.65089	0.19933
1467.72222	0.19913
1465.79354	0.19862
1463.86487	0.19842
1461.93619	0.19842
1460.00751	0.19780
1458.07884	0.19681
1456.15016	0.19670
1454.22149	0.19750
1452.29281	0.19809
1450.36414	0.19816
1448.43546	0.19813
1446.50678	0.19819
1444.57811	0.19834
1442.64943	0.19855
1440.72076	0.19873
1438.79208	0.19867
1436.86341	0.19857
1434.93473	0.19877
1433.00605	0.19900
1431.07738	0.19903
1429.14870	0.19916
1427.22003	0.19947
1425.29135	0.19966
1423.36268	0.19959
1421.43400	0.19916
1419.50532	0.19874
1417.57665	0.19902
1415.64797	0.19963
1413.71930	0.19988
1411.79062	0.19985
1409.86195	0.19985
1407.93327	0.19987
1406.00459	0.19985
1404.07592	0.19983
1402.14724	0.19974
1400.21857	0.19952
1398.28989	0.19928
1396.36122	0.19912
1394.43254	0.19914
1392.50386	0.19926
1390.57519	0.19918
1388.64651	0.19881
1386.71784	0.19845
1384.78916	0.19838
1382.86049	0.19851
1380.93181	0.19863
1379.00313	0.19863
1377.07446	0.19850
1375.14578	0.19833
1373.21711	0.19831
1371.28843	0.19841
1369.35976	0.19849
1367.43108	0.19856
1365.50240	0.19854
1363.57373	0.19838
1361.64505	0.19832
1359.71638	0.19846
1357.78770	0.19856
1355.85903	0.19861
1353.93035	0.19871
1352.00167	0.19881
1350.07300	0.19885
1348.14432	0.19892
1346.21565	0.19900
1344.28697	0.19907
1342.35830	0.19905
1340.42962	0.19892
1338.50094	0.19884
1336.57227	0.19888
1334.64359	0.19891
1332.71492	0.19885
1330.78624	0.19874
1328.85757	0.19853
1326.92889	0.19831
1325.00021	0.19815
1323.07154	0.19798
1321.14286	0.19774
1319.21419	0.19753
1317.28551	0.19738
1315.35684	0.19724
1313.42816	0.19710
1311.49948	0.19693
1309.57081	0.19672
1307.64213	0.19651
1305.71346	0.19630
1303.78478	0.19610
1301.85611	0.19591
1299.92743	0.19573
1297.99875	0.19557
1296.07008	0.19540
1294.14140	0.19518
1292.21273	0.19493
1290.28405	0.19472
1288.35538	0.19455
1286.42670	0.19440
1284.49802	0.19423
1282.56935	0.19401
1280.64067	0.19375
1278.71200	0.19344
1276.78332	0.19303
1274.85465	0.19258
1272.92597	0.19211
1270.99729	0.19153
1269.06862	0.19073
1267.13994	0.18978
1265.21127	0.18891
1263.28259	0.18833
1261.35392	0.18809
1259.42524	0.18807
1257.49656	0.18820
1255.56789	0.18839
1253.63921	0.18845
1251.71054	0.18829
1249.78186	0.18806
1247.85319	0.18784
1245.92451	0.18756
1243.99583	0.18718
1242.06716	0.18673
1240.13848	0.18627
1238.20981	0.18581
1236.28113	0.18531
1234.35246	0.18479
1232.42378	0.18423
1230.49510	0.18364
1228.56643	0.18309
1226.63775	0.18256
1224.70908	0.18199
1222.78040	0.18146
1220.85173	0.18103
1218.92305	0.18059
1216.99437	0.18009
1215.06570	0.17955
1213.13702	0.17899
1211.20835	0.17845
1209.27967	0.17792
1207.35100	0.17737
1205.42232	0.17680
1203.49364	0.17623
1201.56497	0.17566
1199.63629	0.17504
1197.70762	0.17440
1195.77894	0.17380
1193.85027	0.17324
1191.92159	0.17265
1189.99291	0.17197
1188.06424	0.17122
1186.13556	0.17047
1184.20689	0.16970
1182.27821	0.16885
1180.34954	0.16798
1178.42086	0.16717
1176.49218	0.16637
1174.56351	0.16551
1172.63483	0.16462
1170.70616	0.16379
1168.77748	0.16297
1166.84881	0.16209
1164.92013	0.16120
1162.99145	0.16039
1161.06278	0.15963
1159.13410	0.15884
1157.20543	0.15806
1155.27675	0.15729
1153.34808	0.15650
1151.41940	0.15573
1149.49072	0.15499
1147.56205	0.15423
1145.63337	0.15342
1143.70470	0.15256
1141.77602	0.15163
1139.84735	0.15065
1137.91867	0.14960
1135.98999	0.14839
1134.06132	0.14701
1132.13264	0.14543
1130.20397	0.14364
1128.27529	0.14165
1126.34662	0.13950
1124.41794	0.13723
1122.48926	0.13490
1120.56059	0.13261
1118.63191	0.13043
1116.70324	0.12839
1114.77456	0.12653
1112.84589	0.12494
1110.91721	0.12365
1108.98853	0.12265
1107.05986	0.12196
1105.13118	0.12153
1103.20251	0.12136
1101.27383	0.12145
1099.34516	0.12183
1097.41648	0.12251
1095.48780	0.12330
1093.55913	0.12408
1091.63045	0.12489
1089.70178	0.12569
1087.77310	0.12638
1085.84443	0.12700
1083.91575	0.12755
1081.98707	0.12794
1080.05840	0.12820
1078.12972	0.12844
1076.20105	0.12864
1074.27237	0.12879
1072.34370	0.12889
1070.41502	0.12896
1068.48634	0.12906
1066.55767	0.12924
1064.62899	0.12947
1062.70032	0.12970
1060.77164	0.12991
1058.84297	0.13009
1056.91429	0.13031
1054.98561	0.13063
1053.05694	0.13100
1051.12826	0.13138
1049.19959	0.13178
1047.27091	0.13216
1045.34224	0.13255
1043.41356	0.13294
1041.48488	0.13329
1039.55621	0.13362
1037.62753	0.13399
1035.69886	0.13434
1033.77018	0.13468
1031.84151	0.13506
1029.91283	0.13546
1027.98415	0.13581
1026.05548	0.13612
1024.12680	0.13638
1022.19813	0.13664
1020.26945	0.13703
1018.34078	0.13753
1016.41210	0.13802
1014.48342	0.13852
1012.55475	0.13911
1010.62607	0.13975
1008.69740	0.14034
1006.76872	0.14091
1004.84005	0.14143
1002.91137	0.14185
1000.98269	0.14221
999.05402	0.14252
997.12534	0.14276
995.19667	0.14288
993.26799	0.14296
991.33932	0.14305
989.41064	0.14311
987.48196	0.14314
985.55329	0.14319
983.62461	0.14324
981.69594	0.14321
979.76726	0.14309
977.83859	0.14293
975.90991	0.14277
973.98123	0.14259
972.05256	0.14234
970.12388	0.14206
968.19521	0.14186
966.26653	0.14182
964.33786	0.14176
962.40918	0.14155
960.48050	0.14130
958.55183	0.14112
956.62315	0.14099
954.69448	0.14083
952.76580	0.14064
950.83713	0.14043
948.90845	0.14020
946.97977	0.14000
945.05110	0.13979
943.12242	0.13956
941.19375	0.13928
939.26507	0.13892
937.33640	0.13843
935.40772	0.13787
933.47904	0.13736
931.55037	0.13692
929.62169	0.13647
927.69302	0.13598
925.76434	0.13545
923.83567	0.13487
921.90699	0.13424
919.97831	0.13364
918.04964	0.13307
916.12096	0.13242
914.19229	0.13162
912.26361	0.13078
910.33494	0.13002
908.40626	0.12937
906.47758	0.12877
904.54891	0.12815
902.62023	0.12751
900.69156	0.12691
898.76288	0.12641
896.83421	0.12597
894.90553	0.12550
892.97685	0.12495
891.04818	0.12438
889.11950	0.12388
887.19083	0.12345
885.26215	0.12308
883.33348	0.12273
881.40480	0.12239
879.47612	0.12210
877.54745	0.12187
875.61877	0.12168
873.69010	0.12150
871.76142	0.12128
869.83275	0.12104
867.90407	0.12083
865.97539	0.12060
864.04672	0.12037
862.11804	0.12021
860.18937	0.12014
858.26069	0.12009
856.33202	0.11999
854.40334	0.11984
852.47466	0.11965
850.54599	0.11943
848.61731	0.11916
846.68864	0.11888
844.75996	0.11862
842.83129	0.11835
840.90261	0.11804
838.97394	0.11764
837.04526	0.11712
835.11658	0.11652
833.18791	0.11580
831.25923	0.11495
829.33056	0.11397
827.40188	0.11291
825.47321	0.11189
823.54453	0.11097
821.61585	0.11019
819.68718	0.10954
817.75850	0.10898
815.82983	0.10853
813.90115	0.10819
811.97248	0.10795
810.04380	0.10774
808.11512	0.10752
806.18645	0.10739
804.25777	0.10734
802.32910	0.10727
800.40042	0.10712
798.47175	0.10670
796.54307	0.10604
794.61439	0.10545
792.68572	0.10503
790.75704	0.10470
788.82837	0.10443
786.89969	0.10422
784.97102	0.10404
783.04234	0.10382
781.11366	0.10353
779.18499	0.10322
777.25631	0.10288
775.32764	0.10258
773.39896	0.10231
771.47029	0.10206
769.54161	0.10182
767.61293	0.10149
765.68426	0.10100
763.75558	0.10043
761.82691	0.09993
759.89823	0.09953
757.96956	0.09905
756.04088	0.09843
754.11220	0.09778
752.18353	0.09713
750.25485	0.09646
748.32618	0.09578
746.39750	0.09507
744.46883	0.09427
742.54015	0.09338
740.61147	0.09249
738.68280	0.09190
736.75412	0.09170
734.82545	0.09166
732.89677	0.09161
730.96810	0.09165
729.03942	0.09184
727.11074	0.09204
725.18207	0.09214
723.25339	0.09222
721.32472	0.09235
719.39604	0.09252
717.46737	0.09273
715.53869	0.09306
713.61001	0.09357
711.68134	0.09408
709.75266	0.09436
707.82399	0.09440
705.89531	0.09430
703.96664	0.09411
702.03796	0.09384
700.10928	0.09350
698.18061	0.09303
696.25193	0.09250
694.32326	0.09194
692.39458	0.09129
690.46591	0.09062
688.53723	0.09009
686.60855	0.08974
684.67988	0.08944
682.75120	0.08900
680.82253	0.08841
678.89385	0.08780
676.96518	0.08721
675.03650	0.08655
673.10782	0.08581
671.17915	0.08501
669.25047	0.08417
667.32180	0.08336
665.39312	0.08263
663.46445	0.08191
661.53577	0.08115
659.60709	0.08030
657.67842	0.07937
655.74974	0.07856
653.82107	0.07787
651.89239	0.07710
649.96372	0.07628
648.03504	0.07545
646.10636	0.07458
644.17769	0.07367
642.24901	0.07276
640.32034	0.07182
638.39166	0.07081
636.46299	0.06968
634.53431	0.06841
632.60563	0.06688
630.67696	0.06465
628.74828	0.06135
626.81961	0.05712
624.89093	0.05267
622.96226	0.04912
621.03358	0.04692
619.10490	0.04570
617.17623	0.04489
615.24755	0.04397
613.31888	0.04288
611.39020	0.04187
609.46153	0.04136
607.53285	0.04146
605.60417	0.04190
603.67550	0.04247
601.74682	0.04324
599.81815	0.04416
597.88947	0.04494
595.96080	0.04547
594.03212	0.04583
592.10344	0.04611
590.17477	0.04629
588.24609	0.04633
586.31742	0.04630
584.38874	0.04621
582.46007	0.04595
580.53139	0.04548
578.60271	0.04501
576.67404	0.04468
574.74536	0.04425
572.81669	0.04349
570.88801	0.04263
568.95934	0.04197
567.03066	0.04153
565.10198	0.04117
563.17331	0.04087
561.24463	0.04063
559.31596	0.04045
557.38728	0.04018
555.45861	0.03982
553.52993	0.03954
551.60125	0.03946
549.67258	0.03945
547.74390	0.03934
545.81523	0.03914
543.88655	0.03897
541.95788	0.03885
540.02920	0.03876
538.10052	0.03864
536.17185	0.03846
534.24317	0.03825
532.31450	0.03796
530.38582	0.03762
528.45715	0.03732
526.52847	0.03706
524.59979	0.03674
522.67112	0.03630
520.74244	0.03583
518.81377	0.03537
516.88509	0.03481
514.95642	0.03422
513.02774	0.03385
511.09906	0.03369
509.17039	0.03346
507.24171	0.03311
505.31304	0.03273
503.38436	0.03240
501.45569	0.03208
499.52701	0.03168
497.59833	0.03121
495.66966	0.03068
493.74098	0.03009
491.81231	0.02954
489.88363	0.02901
487.95496	0.02840
486.02628	0.02779
484.09760	0.02730
482.16893	0.02694
480.24025	0.02647
478.31158	0.02585
476.38290	0.02526
474.45423	0.02481
472.52555	0.02434
470.59687	0.02385
468.66820	0.02346
466.73952	0.02319
464.81085	0.02294
462.88217	0.02268
460.95350	0.02245
459.02482	0.02228
457.09614	0.02222
455.16747	0.02219
453.23879	0.02217
451.31012	0.02216
449.38144	0.02206
447.45277	0.02189
445.52409	0.02170
443.59541	0.02153
441.66674	0.02135
439.73806	0.02108
437.80939	0.02071
435.88071	0.02026
433.95204	0.01970
432.02336	0.01912
430.09468	0.01855
428.16601	0.01793
426.23733	0.01726
424.30866	0.01662
422.37998	0.01597
420.45131	0.01534
418.52263	0.01472
416.59395	0.01411
414.66528	0.01357
412.73660	0.01301
410.80793	0.01237
408.87925	0.01170
406.95058	0.01109
405.02190	0.01047
403.09322	0.00980
401.16455	0.00915
399.23587	0.00865
397.30720	0.00822
395.37852	0.00778
393.44985	0.00738
391.52117	0.00698
389.59249	0.00641
387.66382	0.00578
385.73514	0.00533
383.80647	0.00495
381.87779	0.00448
379.94912	0.00412
378.02044	0.00390
376.09176	0.00370
374.16309	0.00342
372.23441	0.00305
370.30574	0.00270
368.37706	0.00240
