7496.76250	0.00117
7494.83382	0.00117
7492.90514	0.00118
7490.97647	0.00119
7489.04779	0.00118
7487.11912	0.00118
7485.19044	0.00119
7483.26177	0.00120
7481.33309	0.00120
7479.40441	0.00120
7477.47574	0.00121
7475.54706	0.00120
7473.61839	0.00120
7471.68971	0.00121
7469.76104	0.00122
7467.83236	0.00123
7465.90368	0.00123
7463.97501	0.00124
7462.04633	0.00124
7460.11766	0.00123
7458.18898	0.00123
7456.26031	0.00123
7454.33163	0.00124
7452.40295	0.00124
7450.47428	0.00124
7448.54560	0.00125
7446.61693	0.00126
7444.68825	0.00127
7442.75958	0.00128
7440.83090	0.00129
7438.90222	0.00128
7436.97355	0.00128
7435.04487	0.00127
7433.11620	0.00127
7431.18752	0.00126
7429.25885	0.00126
7427.33017	0.00127
7425.40149	0.00129
7423.47282	0.00130
7421.54414	0.00131
7419.61547	0.00131
7417.68679	0.00132
7415.75812	0.00133
7413.82944	0.00132
7411.90076	0.00130
7409.97209	0.00130
7408.04341	0.00132
7406.11474	0.00132
7404.18606	0.00132
7402.25739	0.00133
7400.32871	0.00135
7398.40003	0.00135
7396.47136	0.00136
7394.54268	0.00137
7392.61401	0.00137
7390.68533	0.00135
7388.75666	0.00134
7386.82798	0.00135
7384.89930	0.00134
7382.97063	0.00134
7381.04195	0.00134
7379.11328	0.00136
7377.18460	0.00138
7375.25593	0.00139
7373.32725	0.00138
7371.39857	0.00138
7369.46990	0.00139
7367.54122	0.00140
7365.61255	0.00141
7363.68387	0.00141
7361.75520	0.00141
7359.82652	0.00140
7357.89784	0.00139
7355.96917	0.00139
7354.04049	0.00141
7352.11182	0.00142
7350.18314	0.00142
7348.25447	0.00143
7346.32579	0.00144
7344.39711	0.00144
7342.46844	0.00143
7340.53976	0.00142
7338.61109	0.00143
7336.68241	0.00145
7334.75374	0.00145
7332.82506	0.00145
7330.89638	0.00145
7328.96771	0.00145
7327.03903	0.00146
7325.11036	0.00148
7323.18168	0.00149
7321.25301	0.00148
7319.32433	0.00148
7317.39565	0.00148
7315.46698	0.00148
7313.53830	0.00149
7311.60963	0.00150
7309.68095	0.00149
7307.75228	0.00149
7305.82360	0.00150
7303.89492	0.00152
7301.96625	0.00152
7300.03757	0.00150
7298.10890	0.00149
7296.18022	0.00150
7294.25155	0.00151
7292.32287	0.00151
7290.39419	0.00151
7288.46552	0.00151
7286.53684	0.00152
7284.60817	0.00152
7282.67949	0.00153
7280.75082	0.00154
7278.82214	0.00154
7276.89346	0.00154
7274.96479	0.00154
7273.03611	0.00154
7271.10744	0.00154
7269.17876	0.00154
7267.25009	0.00155
7265.32141	0.00156
7263.39273	0.00157
7261.46406	0.00157
7259.53538	0.00158
7257.60671	0.00157
7255.67803	0.00158
7253.74936	0.00159
7251.82068	0.00160
7249.89200	0.00161
7247.96333	0.00161
7246.03465	0.00161
7244.10598	0.00161
7242.17730	0.00161
7240.24863	0.00162
7238.31995	0.00162
7236.39127	0.00163
7234.46260	0.00163
7232.53392	0.00164
7230.60525	0.00166
7228.67657	0.00167
7226.74790	0.00166
7224.81922	0.00165
7222.89054	0.00165
7220.96187	0.00166
7219.03319	0.00166
7217.10452	0.00166
7215.17584	0.00166
7213.24717	0.00168
7211.31849	0.00168
7209.38981	0.00167
7207.46114	0.00167
7205.53246	0.00168
7203.60379	0.00169
7201.67511	0.00170
7199.74644	0.00170
7197.81776	0.00169
7195.88908	0.00168
7193.96041	0.00168
7192.03173	0.00170
7190.10306	0.00172
7188.17438	0.00172
7186.24571	0.00172
7184.31703	0.00172
7182.38835	0.00174
7180.45968	0.00175
7178.53100	0.00176
7176.60233	0.00176
7174.67365	0.00175
7172.74498	0.00175
7170.81630	0.00175
7168.88762	0.00176
7166.95895	0.00176
7165.03027	0.00176
7163.10160	0.00177
7161.17292	0.00178
7159.24425	0.00179
7157.31557	0.00179
7155.38689	0.00179
7153.45822	0.00178
7151.52954	0.00178
7149.60087	0.00178
7147.67219	0.00179
7145.74352	0.00180
7143.81484	0.00180
7141.88616	0.00181
7139.95749	0.00181
7138.02881	0.00182
7136.10014	0.00182
7134.17146	0.00182
7132.24279	0.00182
7130.31411	0.00183
7128.38543	0.00184
7126.45676	0.00184
7124.52808	0.00184
7122.59941	0.00184
7120.67073	0.00185
7118.74206	0.00185
7116.81338	0.00185
7114.88470	0.00185
7112.95603	0.00185
7111.02735	0.00187
7109.09868	0.00189
7107.17000	0.00190
7105.24133	0.00190
7103.31265	0.00189
7101.38397	0.00189
7099.45530	0.00190
7097.52662	0.00190
7095.59795	0.00191
7093.66927	0.00192
7091.74060	0.00194
7089.81192	0.00196
7087.88324	0.00195
7085.95457	0.00195
7084.02589	0.00194
7082.09722	0.00194
7080.16854	0.00194
7078.23987	0.00194
7076.31119	0.00195
7074.38251	0.00195
7072.45384	0.00195
7070.52516	0.00195
7068.59649	0.00195
7066.66781	0.00195
7064.73914	0.00195
7062.81046	0.00197
7060.88178	0.00198
7058.95311	0.00199
7057.02443	0.00198
7055.09576	0.00199
7053.16708	0.00201
7051.23841	0.00202
7049.30973	0.00203
7047.38105	0.00204
7045.45238	0.00204
7043.52370	0.00204
7041.59503	0.00203
7039.66635	0.00202
7037.73768	0.00202
7035.80900	0.00203
7033.88032	0.00205
7031.95165	0.00205
7030.02297	0.00204
7028.09430	0.00205
7026.16562	0.00206
7024.23695	0.00207
7022.30827	0.00208
7020.37959	0.00209
7018.45092	0.00210
7016.52224	0.00210
7014.59357	0.00209
7012.66489	0.00209
7010.73622	0.00211
7008.80754	0.00212
7006.87886	0.00212
7004.95019	0.00213
7003.02151	0.00215
7001.09284	0.00215
6999.16416	0.00213
6997.23549	0.00213
6995.30681	0.00214
6993.37813	0.00215
6991.44946	0.00216
6989.52078	0.00216
6987.59211	0.00216
6985.66343	0.00216
6983.73476	0.00215
6981.80608	0.00214
6979.87740	0.00216
6977.94873	0.00218
6976.02005	0.00219
6974.09138	0.00219
6972.16270	0.00219
6970.23403	0.00220
6968.30535	0.00221
6966.37667	0.00222
6964.44800	0.00222
6962.51932	0.00221
6960.59065	0.00221
6958.66197	0.00222
6956.73330	0.00224
6954.80462	0.00225
6952.87594	0.00224
6950.94727	0.00224
6949.01859	0.00226
6947.08992	0.00227
6945.16124	0.00228
6943.23257	0.00229
6941.30389	0.00230
6939.37521	0.00229
6937.44654	0.00228
6935.51786	0.00228
6933.58919	0.00229
6931.66051	0.00230
6929.73184	0.00230
6927.80316	0.00229
6925.87448	0.00230
6923.94581	0.00231
6922.01713	0.00232
6920.08846	0.00232
6918.15978	0.00233
6916.23111	0.00233
6914.30243	0.00234
6912.37375	0.00236
6910.44508	0.00237
6908.51640	0.00236
6906.58773	0.00236
6904.65905	0.00236
6902.73038	0.00236
6900.80170	0.00237
6898.87302	0.00238
6896.94435	0.00237
6895.01567	0.00236
6893.08700	0.00237
6891.15832	0.00238
6889.22965	0.00241
6887.30097	0.00242
6885.37229	0.00242
6883.44362	0.00242
6881.51494	0.00241
6879.58627	0.00241
6877.65759	0.00241
6875.72892	0.00242
6873.80024	0.00243
6871.87156	0.00244
6869.94289	0.00244
6868.01421	0.00244
6866.08554	0.00246
6864.15686	0.00247
6862.22819	0.00247
6860.29951	0.00247
6858.37083	0.00247
6856.44216	0.00248
6854.51348	0.00249
6852.58481	0.00249
6850.65613	0.00249
6848.72746	0.00249
6846.79878	0.00251
6844.87010	0.00253
6842.94143	0.00253
6841.01275	0.00254
6839.08408	0.00256
6837.15540	0.00258
6835.22673	0.00257
6833.29805	0.00255
6831.36937	0.00254
6829.44070	0.00255
6827.51202	0.00256
6825.58335	0.00256
6823.65467	0.00257
6821.72600	0.00259
6819.79732	0.00261
6817.86864	0.00260
6815.93997	0.00259
6814.01129	0.00259
6812.08262	0.00261
6810.15394	0.00261
6808.22527	0.00260
6806.29659	0.00260
6804.36791	0.00262
6802.43924	0.00263
6800.51056	0.00264
6798.58189	0.00264
6796.65321	0.00265
6794.72454	0.00267
6792.79586	0.00269
6790.86718	0.00269
6788.93851	0.00268
6787.00983	0.00267
6785.08116	0.00267
6783.15248	0.00269
6781.22381	0.00271
6779.29513	0.00272
6777.36645	0.00273
6775.43778	0.00273
6773.50910	0.00273
6771.58043	0.00273
6769.65175	0.00275
6767.72308	0.00277
6765.79440	0.00278
6763.86572	0.00278
6761.93705	0.00278
6760.00837	0.00278
6758.07970	0.00279
6756.15102	0.00280
6754.22235	0.00278
6752.29367	0.00276
6750.36499	0.00277
6748.43632	0.00278
6746.50764	0.00279
6744.57897	0.00280
6742.65029	0.00281
6740.72162	0.00281
6738.79294	0.00281
6736.86426	0.00281
6734.93559	0.00281
6733.00691	0.00281
6731.07824	0.00281
6729.14956	0.00282
6727.22089	0.00284
6725.29221	0.00287
6723.36353	0.00289
6721.43486	0.00290
6719.50618	0.00290
6717.57751	0.00288
6715.64883	0.00287
6713.72016	0.00287
6711.79148	0.00288
6709.86280	0.00290
6707.93413	0.00291
6706.00545	0.00290
6704.07678	0.00292
6702.14810	0.00293
6700.21943	0.00293
6698.29075	0.00294
6696.36207	0.00296
6694.43340	0.00298
6692.50472	0.00298
6690.57605	0.00297
6688.64737	0.00296
6686.71870	0.00297
6684.79002	0.00298
6682.86134	0.00299
6680.93267	0.00299
6679.00399	0.00299
6677.07532	0.00299
6675.14664	0.00301
6673.21797	0.00302
6671.28929	0.00303
6669.36061	0.00304
6667.43194	0.00305
6665.50326	0.00306
6663.57459	0.00308
6661.64591	0.00308
6659.71724	0.00308
6657.78856	0.00307
6655.85988	0.00307
6653.93121	0.00307
6652.00253	0.00309
6650.07386	0.00310
6648.14518	0.00311
6646.21651	0.00312
6644.28783	0.00312
6642.35915	0.00312
6640.43048	0.00312
6638.50180	0.00311
6636.57313	0.00312
6634.64445	0.00315
6632.71578	0.00317
6630.78710	0.00317
6628.85842	0.00316
6626.92975	0.00315
6625.00107	0.00316
6623.07240	0.00316
6621.14372	0.00317
6619.21505	0.00319
6617.28637	0.00320
6615.35769	0.00322
6613.42902	0.00323
6611.50034	0.00323
6609.57167	0.00324
6607.64299	0.00325
6605.71432	0.00324
6603.78564	0.00323
6601.85696	0.00325
6599.92829	0.00327
6597.99961	0.00327
6596.07094	0.00326
6594.14226	0.00326
6592.21359	0.00328
6590.28491	0.00331
6588.35623	0.00333
6586.42756	0.00333
6584.49888	0.00332
6582.57021	0.00333
6580.64153	0.00335
6578.71286	0.00335
6576.78418	0.00335
6574.85550	0.00336
6572.92683	0.00336
6570.99815	0.00338
6569.06948	0.00339
6567.14080	0.00339
6565.21213	0.00339
6563.28345	0.00340
6561.35477	0.00341
6559.42610	0.00343
6557.49742	0.00345
6555.56875	0.00347
6553.64007	0.00348
6551.71140	0.00348
6549.78272	0.00347
6547.85404	0.00347
6545.92537	0.00347
6543.99669	0.00348
6542.06802	0.00349
6540.13934	0.00349
6538.21067	0.00349
6536.28199	0.00350
6534.35331	0.00350
6532.42464	0.00350
6530.49596	0.00351
6528.56729	0.00352
6526.63861	0.00355
6524.70994	0.00357
6522.78126	0.00357
6520.85258	0.00356
6518.92391	0.00356
6516.99523	0.00356
6515.06656	0.00357
6513.13788	0.00357
6511.20921	0.00359
6509.28053	0.00361
6507.35185	0.00364
6505.42318	0.00366
6503.49450	0.00365
6501.56583	0.00365
6499.63715	0.00366
6497.70848	0.00366
6495.77980	0.00365
6493.85112	0.00366
6491.92245	0.00368
6489.99377	0.00370
6488.06510	0.00371
6486.13642	0.00370
6484.20775	0.00370
6482.27907	0.00372
6480.35039	0.00374
6478.42172	0.00375
6476.49304	0.00375
6474.56437	0.00376
6472.63569	0.00377
6470.70702	0.00376
6468.77834	0.00375
6466.84966	0.00376
6464.92099	0.00377
6462.99231	0.00378
6461.06364	0.00380
6459.13496	0.00381
6457.20629	0.00380
6455.27761	0.00380
6453.34893	0.00382
6451.42026	0.00383
6449.49158	0.00384
6447.56291	0.00385
6445.63423	0.00385
6443.70556	0.00385
6441.77688	0.00385
6439.84820	0.00386
6437.91953	0.00388
6435.99085	0.00390
6434.06218	0.00391
6432.13350	0.00392
6430.20483	0.00392
6428.27615	0.00393
6426.34747	0.00394
6424.41880	0.00396
6422.49012	0.00397
6420.56145	0.00397
6418.63277	0.00398
6416.70410	0.00399
6414.77542	0.00400
6412.84674	0.00400
6410.91807	0.00400
6408.98939	0.00402
6407.06072	0.00404
6405.13204	0.00405
6403.20337	0.00404
6401.27469	0.00403
6399.34601	0.00405
6397.41734	0.00407
6395.48866	0.00409
6393.55999	0.00409
6391.63131	0.00409
6389.70264	0.00410
6387.77396	0.00411
6385.84528	0.00413
6383.91661	0.00413
6381.98793	0.00413
6380.05926	0.00414
6378.13058	0.00416
6376.20191	0.00417
6374.27323	0.00417
6372.34455	0.00417
6370.41588	0.00417
6368.48720	0.00418
6366.55853	0.00420
6364.62985	0.00421
6362.70118	0.00421
6360.77250	0.00423
6358.84382	0.00424
6356.91515	0.00425
6354.98647	0.00427
6353.05780	0.00428
6351.12912	0.00428
6349.20045	0.00428
6347.27177	0.00427
6345.34309	0.00426
6343.41442	0.00427
6341.48574	0.00430
6339.55707	0.00431
6337.62839	0.00431
6335.69972	0.00432
6333.77104	0.00434
6331.84236	0.00434
6329.91369	0.00434
6327.98501	0.00436
6326.05634	0.00439
6324.12766	0.00441
6322.19899	0.00442
6320.27031	0.00442
6318.34163	0.00443
6316.41296	0.00444
6314.48428	0.00446
6312.55561	0.00447
6310.62693	0.00447
6308.69826	0.00448
6306.76958	0.00449
6304.84090	0.00451
6302.91223	0.00452
6300.98355	0.00452
6299.05488	0.00452
6297.12620	0.00451
6295.19753	0.00451
6293.26885	0.00452
6291.34017	0.00453
6289.41150	0.00454
6287.48282	0.00456
6285.55415	0.00457
6283.62547	0.00458
6281.69680	0.00458
6279.76812	0.00459
6277.83944	0.00460
6275.91077	0.00461
6273.98209	0.00463
6272.05342	0.00464
6270.12474	0.00465
6268.19607	0.00466
6266.26739	0.00467
6264.33871	0.00468
6262.41004	0.00469
6260.48136	0.00472
6258.55269	0.00473
6256.62401	0.00475
6254.69534	0.00475
6252.76666	0.00475
6250.83798	0.00476
6248.90931	0.00477
6246.98063	0.00478
6245.05196	0.00478
6243.12328	0.00479
6241.19461	0.00480
6239.26593	0.00481
6237.33725	0.00482
6235.40858	0.00483
6233.47990	0.00486
6231.55123	0.00487
6229.62255	0.00488
6227.69388	0.00489
6225.76520	0.00490
6223.83652	0.00491
6221.90785	0.00490
6219.97917	0.00489
6218.05050	0.00490
6216.12182	0.00493
6214.19315	0.00496
6212.26447	0.00498
6210.33579	0.00498
6208.40712	0.00498
6206.47844	0.00498
6204.54977	0.00500
6202.62109	0.00503
6200.69242	0.00504
6198.76374	0.00504
6196.83506	0.00504
6194.90639	0.00506
6192.97771	0.00508
6191.04904	0.00508
6189.12036	0.00508
6187.19169	0.00510
6185.26301	0.00513
6183.33433	0.00514
6181.40566	0.00513
6179.47698	0.00514
6177.54831	0.00515
6175.61963	0.00516
6173.69096	0.00517
6171.76228	0.00518
6169.83360	0.00518
6167.90493	0.00517
6165.97625	0.00517
6164.04758	0.00517
6162.11890	0.00520
6160.19023	0.00524
6158.26155	0.00528
6156.33287	0.00529
6154.40420	0.00529
6152.47552	0.00530
6150.54685	0.00531
6148.61817	0.00532
6146.68950	0.00532
6144.76082	0.00532
6142.83214	0.00533
6140.90347	0.00533
6138.97479	0.00534
6137.04612	0.00536
6135.11744	0.00538
6133.18877	0.00539
6131.26009	0.00540
6129.33141	0.00540
6127.40274	0.00542
6125.47406	0.00544
6123.54539	0.00546
6121.61671	0.00546
6119.68804	0.00547
6117.75936	0.00549
6115.83068	0.00550
6113.90201	0.00551
6111.97333	0.00554
6110.04466	0.00556
6108.11598	0.00557
6106.18731	0.00557
6104.25863	0.00558
6102.32995	0.00558
6100.40128	0.00558
6098.47260	0.00559
6096.54393	0.00561
6094.61525	0.00562
6092.68658	0.00563
6090.75790	0.00564
6088.82922	0.00566
6086.90055	0.00567
6084.97187	0.00567
6083.04320	0.00568
6081.11452	0.00570
6079.18585	0.00573
6077.25717	0.00575
6075.32849	0.00577
6073.39982	0.00577
6071.47114	0.00577
6069.54247	0.00578
6067.61379	0.00579
6065.68512	0.00582
6063.75644	0.00584
6061.82776	0.00584
6059.89909	0.00583
6057.97041	0.00583
6056.04174	0.00585
6054.11306	0.00587
6052.18439	0.00589
6050.25571	0.00590
6048.32703	0.00590
6046.39836	0.00591
6044.46968	0.00593
6042.54101	0.00595
6040.61233	0.00596
6038.68366	0.00596
6036.75498	0.00595
6034.82630	0.00596
6032.89763	0.00599
6030.96895	0.00601
6029.04028	0.00603
6027.11160	0.00604
6025.18293	0.00606
6023.25425	0.00608
6021.32557	0.00609
6019.39690	0.00611
6017.46822	0.00612
6015.53955	0.00613
6013.61087	0.00614
6011.68220	0.00616
6009.75352	0.00617
6007.82484	0.00618
6005.89617	0.00617
6003.96749	0.00616
6002.03882	0.00618
6000.11014	0.00621
5998.18147	0.00624
5996.25279	0.00625
5994.32411	0.00627
5992.39544	0.00629
5990.46676	0.00630
5988.53809	0.00630
5986.60941	0.00631
5984.68074	0.00633
5982.75206	0.00635
5980.82338	0.00636
5978.89471	0.00637
5976.96603	0.00637
5975.03736	0.00639
5973.10868	0.00642
5971.18001	0.00643
5969.25133	0.00642
5967.32265	0.00642
5965.39398	0.00644
5963.46530	0.00647
5961.53663	0.00649
5959.60795	0.00651
5957.67928	0.00652
5955.75060	0.00653
5953.82192	0.00655
5951.89325	0.00657
5949.96457	0.00659
5948.03590	0.00660
5946.10722	0.00660
5944.17855	0.00661
5942.24987	0.00663
5940.32119	0.00664
5938.39252	0.00665
5936.46384	0.00667
5934.53517	0.00669
5932.60649	0.00671
5930.67782	0.00672
5928.74914	0.00673
5926.82046	0.00675
5924.89179	0.00676
5922.96311	0.00677
5921.03444	0.00678
5919.10576	0.00679
5917.17709	0.00680
5915.24841	0.00681
5913.31973	0.00683
5911.39106	0.00684
5909.46238	0.00686
5907.53371	0.00688
5905.60503	0.00689
5903.67636	0.00689
5901.74768	0.00691
5899.81900	0.00692
5897.89033	0.00693
5895.96165	0.00694
5894.03298	0.00694
5892.10430	0.00696
5890.17563	0.00699
5888.24695	0.00700
5886.31827	0.00701
5884.38960	0.00705
5882.46092	0.00707
5880.53225	0.00707
5878.60357	0.00708
5876.67490	0.00710
5874.74622	0.00712
5872.81755	0.00713
5870.88887	0.00713
5868.96019	0.00714
5867.03152	0.00715
5865.10284	0.00717
5863.17417	0.00719
5861.24549	0.00720
5859.31682	0.00721
5857.38814	0.00723
5855.45946	0.00724
5853.53079	0.00724
5851.60211	0.00725
5849.67344	0.00728
5847.74476	0.00730
5845.81609	0.00731
5843.88741	0.00733
5841.95873	0.00736
5840.03006	0.00737
5838.10138	0.00738
5836.17271	0.00740
5834.24403	0.00742
5832.31536	0.00742
5830.38668	0.00745
5828.45800	0.00749
5826.52933	0.00752
5824.60065	0.00751
5822.67198	0.00749
5820.74330	0.00750
5818.81463	0.00754
5816.88595	0.00756
5814.95727	0.00757
5813.02860	0.00758
5811.09992	0.00759
5809.17125	0.00760
5807.24257	0.00760
5805.31390	0.00763
5803.38522	0.00766
5801.45654	0.00767
5799.52787	0.00768
5797.59919	0.00770
5795.67052	0.00773
5793.74184	0.00775
5791.81317	0.00776
5789.88449	0.00776
5787.95581	0.00777
5786.02714	0.00779
5784.09846	0.00782
5782.16979	0.00784
5780.24111	0.00785
5778.31244	0.00786
5776.38376	0.00789
5774.45508	0.00789
5772.52641	0.00789
5770.59773	0.00789
5768.66906	0.00792
5766.74038	0.00796
5764.81171	0.00797
5762.88303	0.00799
5760.95435	0.00800
5759.02568	0.00802
5757.09700	0.00805
5755.16833	0.00808
5753.23965	0.00809
5751.31098	0.00810
5749.38230	0.00812
5747.45362	0.00815
5745.52495	0.00817
5743.59627	0.00816
5741.66760	0.00815
5739.73892	0.00816
5737.81025	0.00817
5735.88157	0.00819
5733.95289	0.00821
5732.02422	0.00824
5730.09554	0.00828
5728.16687	0.00831
5726.23819	0.00833
5724.30952	0.00834
5722.38084	0.00835
5720.45216	0.00836
5718.52349	0.00836
5716.59481	0.00837
5714.66614	0.00839
5712.73746	0.00841
5710.80879	0.00844
5708.88011	0.00845
5706.95143	0.00846
5705.02276	0.00847
5703.09408	0.00848
5701.16541	0.00851
5699.23673	0.00853
5697.30806	0.00855
5695.37938	0.00855
5693.45070	0.00856
5691.52203	0.00857
5689.59335	0.00858
5687.66468	0.00861
5685.73600	0.00863
5683.80733	0.00864
5681.87865	0.00866
5679.94997	0.00870
5678.02130	0.00874
5676.09262	0.00877
5674.16395	0.00878
5672.23527	0.00879
5670.30660	0.00879
5668.37792	0.00880
5666.44924	0.00883
5664.52057	0.00886
5662.59189	0.00887
5660.66322	0.00888
5658.73454	0.00890
5656.80587	0.00892
5654.87719	0.00893
5652.94851	0.00894
5651.01984	0.00895
5649.09116	0.00897
5647.16249	0.00900
5645.23381	0.00902
5643.30514	0.00904
5641.37646	0.00908
5639.44778	0.00912
5637.51911	0.00914
5635.59043	0.00914
5633.66176	0.00913
5631.73308	0.00913
5629.80441	0.00913
5627.87573	0.00916
5625.94705	0.00920
5624.01838	0.00924
5622.08970	0.00926
5620.16103	0.00926
5618.23235	0.00925
5616.30368	0.00926
5614.37500	0.00929
5612.44632	0.00932
5610.51765	0.00934
5608.58897	0.00936
5606.66030	0.00937
5604.73162	0.00938
5602.80295	0.00939
5600.87427	0.00941
5598.94559	0.00943
5597.01692	0.00944
5595.08824	0.00946
5593.15957	0.00950
5591.23089	0.00953
5589.30222	0.00956
5587.37354	0.00956
5585.44486	0.00956
5583.51619	0.00958
5581.58751	0.00962
5579.65884	0.00965
5577.73016	0.00967
5575.80149	0.00968
5573.87281	0.00968
5571.94413	0.00970
5570.01546	0.00973
5568.08678	0.00975
5566.15811	0.00976
5564.22943	0.00979
5562.30076	0.00982
5560.37208	0.00985
5558.44340	0.00987
5556.51473	0.00988
5554.58605	0.00988
5552.65738	0.00987
5550.72870	0.00988
5548.80003	0.00990
5546.87135	0.00994
5544.94267	0.00998
5543.01400	0.00999
5541.08532	0.00999
5539.15665	0.01001
5537.22797	0.01004
5535.29930	0.01008
5533.37062	0.01011
5531.44194	0.01013
5529.51327	0.01013
5527.58459	0.01014
5525.65592	0.01016
5523.72724	0.01019
5521.79857	0.01021
5519.86989	0.01023
5517.94121	0.01026
5516.01254	0.01028
5514.08386	0.01028
5512.15519	0.01027
5510.22651	0.01029
5508.29784	0.01033
5506.36916	0.01036
5504.44048	0.01038
5502.51181	0.01041
5500.58313	0.01044
5498.65446	0.01047
5496.72578	0.01049
5494.79711	0.01051
5492.86843	0.01053
5490.93975	0.01055
5489.01108	0.01056
5487.08240	0.01056
5485.15373	0.01058
5483.22505	0.01060
5481.29638	0.01062
5479.36770	0.01063
5477.43902	0.01064
5475.51035	0.01065
5473.58167	0.01066
5471.65300	0.01069
5469.72432	0.01072
5467.79565	0.01074
5465.86697	0.01075
5463.93829	0.01078
5462.00962	0.01081
5460.08094	0.01085
5458.15227	0.01088
5456.22359	0.01089
5454.29492	0.01091
5452.36624	0.01095
5450.43756	0.01098
5448.50889	0.01099
5446.58021	0.01097
5444.65154	0.01097
5442.72286	0.01100
5440.79419	0.01104
5438.86551	0.01107
5436.93683	0.01109
5435.00816	0.01108
5433.07948	0.01108
5431.15081	0.01110
5429.22213	0.01113
5427.29346	0.01115
5425.36478	0.01119
5423.43610	0.01122
5421.50743	0.01125
5419.57875	0.01128
5417.65008	0.01128
5415.72140	0.01128
5413.79273	0.01130
5411.86405	0.01133
5409.93537	0.01135
5408.00670	0.01137
5406.07802	0.01140
5404.14935	0.01143
5402.22067	0.01145
5400.29200	0.01148
5398.36332	0.01149
5396.43464	0.01149
5394.50597	0.01150
5392.57729	0.01153
5390.64862	0.01157
5388.71994	0.01158
5386.79127	0.01159
5384.86259	0.01161
5382.93391	0.01164
5381.00524	0.01165
5379.07656	0.01167
5377.14789	0.01169
5375.21921	0.01171
5373.29054	0.01175
5371.36186	0.01177
5369.43318	0.01178
5367.50451	0.01179
5365.57583	0.01181
5363.64716	0.01185
5361.71848	0.01188
5359.78981	0.01190
5357.86113	0.01192
5355.93245	0.01194
5354.00378	0.01195
5352.07510	0.01198
5350.14643	0.01200
5348.21775	0.01201
5346.28908	0.01202
5344.36040	0.01206
5342.43172	0.01212
5340.50305	0.01217
5338.57437	0.01217
5336.64570	0.01217
5334.71702	0.01217
5332.78835	0.01220
5330.85967	0.01223
5328.93099	0.01225
5327.00232	0.01226
5325.07364	0.01229
5323.14497	0.01233
5321.21629	0.01236
5319.28762	0.01238
5317.35894	0.01239
5315.43026	0.01240
5313.50159	0.01242
5311.57291	0.01246
5309.64424	0.01250
5307.71556	0.01252
5305.78689	0.01254
5303.85821	0.01257
5301.92953	0.01259
5300.00086	0.01261
5298.07218	0.01264
5296.14351	0.01267
5294.21483	0.01268
5292.28616	0.01269
5290.35748	0.01271
5288.42880	0.01273
5286.50013	0.01274
5284.57145	0.01277
5282.64278	0.01280
5280.71410	0.01282
5278.78543	0.01283
5276.85675	0.01285
5274.92807	0.01287
5272.99940	0.01290
5271.07072	0.01291
5269.14205	0.01293
5267.21337	0.01295
5265.28470	0.01297
5263.35602	0.01301
5261.42734	0.01306
5259.49867	0.01310
5257.56999	0.01312
5255.64132	0.01313
5253.71264	0.01313
5251.78397	0.01314
5249.85529	0.01316
5247.92661	0.01318
5245.99794	0.01319
5244.06926	0.01321
5242.14059	0.01324
5240.21191	0.01328
5238.28324	0.01331
5236.35456	0.01335
5234.42588	0.01338
5232.49721	0.01340
5230.56853	0.01342
5228.63986	0.01344
5226.71118	0.01345
5224.78251	0.01347
5222.85383	0.01348
5220.92515	0.01351
5218.99648	0.01353
5217.06780	0.01355
5215.13913	0.01359
5213.21045	0.01363
5211.28178	0.01365
5209.35310	0.01365
5207.42442	0.01365
5205.49575	0.01366
5203.56707	0.01370
5201.63840	0.01374
5199.70972	0.01379
5197.78105	0.01383
5195.85237	0.01386
5193.92369	0.01387
5191.99502	0.01388
5190.06634	0.01390
5188.13767	0.01392
5186.20899	0.01396
5184.28032	0.01400
5182.35164	0.01403
5180.42296	0.01404
5178.49429	0.01404
5176.56561	0.01407
5174.63694	0.01412
5172.70826	0.01415
5170.77959	0.01416
5168.85091	0.01416
5166.92223	0.01418
5164.99356	0.01422
5163.06488	0.01425
5161.13621	0.01427
5159.20753	0.01429
5157.27886	0.01431
5155.35018	0.01433
5153.42150	0.01436
5151.49283	0.01438
5149.56415	0.01439
5147.63548	0.01440
5145.70680	0.01444
5143.77813	0.01448
5141.84945	0.01450
5139.92077	0.01452
5137.99210	0.01454
5136.06342	0.01457
5134.13475	0.01462
5132.20607	0.01465
5130.27740	0.01466
5128.34872	0.01467
5126.42004	0.01469
5124.49137	0.01472
5122.56269	0.01475
5120.63402	0.01479
5118.70534	0.01482
5116.77667	0.01482
5114.84799	0.01483
5112.91931	0.01485
5110.99064	0.01489
5109.06196	0.01493
5107.13329	0.01496
5105.20461	0.01498
5103.27594	0.01499
5101.34726	0.01501
5099.41858	0.01504
5097.48991	0.01509
5095.56123	0.01512
5093.63256	0.01513
5091.70388	0.01514
5089.77521	0.01516
5087.84653	0.01519
5085.91785	0.01523
5083.98918	0.01527
5082.06050	0.01531
5080.13183	0.01533
5078.20315	0.01534
5076.27448	0.01535
5074.34580	0.01535
5072.41712	0.01537
5070.48845	0.01540
5068.55977	0.01543
5066.63110	0.01546
5064.70242	0.01550
5062.77375	0.01554
5060.84507	0.01558
5058.91639	0.01562
5056.98772	0.01566
5055.05904	0.01567
5053.13037	0.01568
5051.20169	0.01571
5049.27302	0.01575
5047.34434	0.01577
5045.41566	0.01578
5043.48699	0.01579
5041.55831	0.01583
5039.62964	0.01586
5037.70096	0.01588
5035.77229	0.01589
5033.84361	0.01590
5031.91493	0.01592
5029.98626	0.01596
5028.05758	0.01598
5026.12891	0.01602
5024.20023	0.01607
5022.27156	0.01610
5020.34288	0.01611
5018.41420	0.01612
5016.48553	0.01613
5014.55685	0.01617
5012.62818	0.01621
5010.69950	0.01625
5008.77083	0.01629
5006.84215	0.01632
5004.91347	0.01635
5002.98480	0.01637
5001.05612	0.01638
4999.12745	0.01638
4997.19877	0.01639
4995.27010	0.01642
4993.34142	0.01647
4991.41274	0.01652
4989.48407	0.01654
4987.55539	0.01654
4985.62672	0.01655
4983.69804	0.01661
4981.76937	0.01666
4979.84069	0.01670
4977.91201	0.01671
4975.98334	0.01670
4974.05466	0.01671
4972.12599	0.01674
4970.19731	0.01677
4968.26864	0.01681
4966.33996	0.01685
4964.41128	0.01689
4962.48261	0.01690
4960.55393	0.01692
4958.62526	0.01696
4956.69658	0.01701
4954.76791	0.01705
4952.83923	0.01708
4950.91055	0.01709
4948.98188	0.01710
4947.05320	0.01712
4945.12453	0.01713
4943.19585	0.01715
4941.26718	0.01718
4939.33850	0.01722
4937.40982	0.01725
4935.48115	0.01727
4933.55247	0.01729
4931.62380	0.01732
4929.69512	0.01734
4927.76645	0.01738
4925.83777	0.01743
4923.90909	0.01746
4921.98042	0.01746
4920.05174	0.01747
4918.12307	0.01751
4916.19439	0.01756
4914.26572	0.01759
4912.33704	0.01761
4910.40836	0.01764
4908.47969	0.01767
4906.55101	0.01768
4904.62234	0.01768
4902.69366	0.01772
4900.76499	0.01777
4898.83631	0.01781
4896.90763	0.01784
4894.97896	0.01786
4893.05028	0.01788
4891.12161	0.01790
4889.19293	0.01792
4887.26426	0.01795
4885.33558	0.01798
4883.40690	0.01800
4881.47823	0.01803
4879.54955	0.01807
4877.62088	0.01811
4875.69220	0.01814
4873.76353	0.01816
4871.83485	0.01819
4869.90617	0.01824
4867.97750	0.01827
4866.04882	0.01830
4864.12015	0.01833
4862.19147	0.01835
4860.26280	0.01837
4858.33412	0.01838
4856.40544	0.01840
4854.47677	0.01843
4852.54809	0.01846
4850.61942	0.01849
4848.69074	0.01853
4846.76207	0.01856
4844.83339	0.01861
4842.90471	0.01864
4840.97604	0.01866
4839.04736	0.01867
4837.11869	0.01870
4835.19001	0.01873
4833.26134	0.01876
4831.33266	0.01879
4829.40398	0.01885
4827.47531	0.01892
4825.54663	0.01896
4823.61796	0.01897
4821.68928	0.01898
4819.76061	0.01900
4817.83193	0.01903
4815.90325	0.01905
4813.97458	0.01906
4812.04590	0.01908
4810.11723	0.01911
4808.18855	0.01916
4806.25988	0.01920
4804.33120	0.01924
4802.40252	0.01927
4800.47385	0.01930
4798.54517	0.01933
4796.61650	0.01935
4794.68782	0.01937
4792.75915	0.01940
4790.83047	0.01942
4788.90179	0.01944
4786.97312	0.01946
4785.04444	0.01950
4783.11577	0.01954
4781.18709	0.01959
4779.25842	0.01964
4777.32974	0.01967
4775.40106	0.01972
4773.47239	0.01977
4771.54371	0.01980
4769.61504	0.01982
4767.68636	0.01984
4765.75769	0.01987
4763.82901	0.01989
4761.90033	0.01991
4759.97166	0.01994
4758.04298	0.01998
4756.11431	0.02001
4754.18563	0.02003
4752.25696	0.02006
4750.32828	0.02010
4748.39960	0.02013
4746.47093	0.02017
4744.54225	0.02020
4742.61358	0.02023
4740.68490	0.02028
4738.75623	0.02032
4736.82755	0.02035
4734.89887	0.02037
4732.97020	0.02039
4731.04152	0.02042
4729.11285	0.02047
4727.18417	0.02051
4725.25550	0.02053
4723.32682	0.02054
4721.39814	0.02057
4719.46947	0.02061
4717.54079	0.02064
4715.61212	0.02066
4713.68344	0.02069
4711.75477	0.02074
4709.82609	0.02079
4707.89741	0.02081
4705.96874	0.02082
4704.04006	0.02084
4702.11139	0.02089
4700.18271	0.02094
4698.25404	0.02097
4696.32536	0.02100
4694.39668	0.02102
4692.46801	0.02105
4690.53933	0.02109
4688.61066	0.02114
4686.68198	0.02119
4684.75331	0.02123
4682.82463	0.02126
4680.89595	0.02127
4678.96728	0.02129
4677.03860	0.02133
4675.10993	0.02138
4673.18125	0.02141
4671.25258	0.02145
4669.32390	0.02148
4667.39522	0.02150
4665.46655	0.02153
4663.53787	0.02158
4661.60920	0.02163
4659.68052	0.02168
4657.75185	0.02172
4655.82317	0.02174
4653.89449	0.02175
4651.96582	0.02178
4650.03714	0.02182
4648.10847	0.02188
4646.17979	0.02193
4644.25112	0.02197
4642.32244	0.02199
4640.39376	0.02202
4638.46509	0.02206
4636.53641	0.02211
4634.60774	0.02215
4632.67906	0.02218
4630.75039	0.02218
4628.82171	0.02220
4626.89303	0.02224
4624.96436	0.02229
4623.03568	0.02233
4621.10701	0.02237
4619.17833	0.02240
4617.24966	0.02244
4615.32098	0.02248
4613.39230	0.02253
4611.46363	0.02257
4609.53495	0.02260
4607.60628	0.02263
4605.67760	0.02267
4603.74893	0.02270
4601.82025	0.02273
4599.89157	0.02278
4597.96290	0.02282
4596.03422	0.02286
4594.10555	0.02287
4592.17687	0.02287
4590.24820	0.02288
4588.31952	0.02292
4586.39084	0.02299
4584.46217	0.02306
4582.53349	0.02310
4580.60482	0.02313
4578.67614	0.02317
4576.74747	0.02323
4574.81879	0.02327
4572.89011	0.02330
4570.96144	0.02332
4569.03276	0.02333
4567.10409	0.02335
4565.17541	0.02339
4563.24674	0.02345
4561.31806	0.02351
4559.38938	0.02354
4557.46071	0.02359
4555.53203	0.02365
4553.60336	0.02369
4551.67468	0.02373
4549.74601	0.02376
4547.81733	0.02379
4545.88865	0.02382
4543.95998	0.02386
4542.03130	0.02391
4540.10263	0.02397
4538.17395	0.02402
4536.24528	0.02407
4534.31660	0.02411
4532.38792	0.02414
4530.45925	0.02415
4528.53057	0.02417
4526.60190	0.02422
4524.67322	0.02428
4522.74455	0.02434
4520.81587	0.02441
4518.88719	0.02447
4516.95852	0.02451
4515.02984	0.02452
4513.10117	0.02452
4511.17249	0.02453
4509.24382	0.02457
4507.31514	0.02464
4505.38646	0.02473
4503.45779	0.02479
4501.52911	0.02482
4499.60044	0.02484
4497.67176	0.02487
4495.74309	0.02487
4493.81441	0.02491
4491.88573	0.02498
4489.95706	0.02503
4488.02838	0.02506
4486.09971	0.02510
4484.17103	0.02516
4482.24236	0.02522
4480.31368	0.02525
4478.38500	0.02528
4476.45633	0.02530
4474.52765	0.02531
4472.59898	0.02533
4470.67030	0.02538
4468.74163	0.02544
4466.81295	0.02550
4464.88427	0.02556
4462.95560	0.02563
4461.02692	0.02570
4459.09825	0.02575
4457.16957	0.02578
4455.24090	0.02581
4453.31222	0.02584
4451.38354	0.02588
4449.45487	0.02590
4447.52619	0.02593
4445.59752	0.02598
4443.66884	0.02604
4441.74017	0.02609
4439.81149	0.02614
4437.88281	0.02618
4435.95414	0.02625
4434.02546	0.02632
4432.09679	0.02637
4430.16811	0.02641
4428.23944	0.02646
4426.31076	0.02651
4424.38208	0.02655
4422.45341	0.02659
4420.52473	0.02661
4418.59606	0.02663
4416.66738	0.02667
4414.73871	0.02673
4412.81003	0.02677
4410.88135	0.02681
4408.95268	0.02686
4407.02400	0.02692
4405.09533	0.02697
4403.16665	0.02702
4401.23798	0.02707
4399.30930	0.02713
4397.38062	0.02719
4395.45195	0.02725
4393.52327	0.02729
4391.59460	0.02732
4389.66592	0.02735
4387.73725	0.02738
4385.80857	0.02741
4383.87989	0.02746
4381.95122	0.02754
4380.02254	0.02760
4378.09387	0.02764
4376.16519	0.02770
4374.23652	0.02775
4372.30784	0.02778
4370.37916	0.02782
4368.45049	0.02787
4366.52181	0.02794
4364.59314	0.02799
4362.66446	0.02801
4360.73579	0.02804
4358.80711	0.02808
4356.87843	0.02813
4354.94976	0.02819
4353.02108	0.02825
4351.09241	0.02830
4349.16373	0.02834
4347.23506	0.02839
4345.30638	0.02846
4343.37770	0.02852
4341.44903	0.02857
4339.52035	0.02862
4337.59168	0.02867
4335.66300	0.02873
4333.73433	0.02879
4331.80565	0.02884
4329.87697	0.02889
4327.94830	0.02891
4326.01962	0.02894
4324.09095	0.02901
4322.16227	0.02909
4320.23360	0.02915
4318.30492	0.02920
4316.37624	0.02927
4314.44757	0.02934
4312.51889	0.02939
4310.59022	0.02945
4308.66154	0.02952
4306.73287	0.02957
4304.80419	0.02959
4302.87551	0.02962
4300.94684	0.02967
4299.01816	0.02973
4297.08949	0.02979
4295.16081	0.02984
4293.23214	0.02987
4291.30346	0.02992
4289.37478	0.02998
4287.44611	0.03005
4285.51743	0.03010
4283.58876	0.03015
4281.66008	0.03020
4279.73141	0.03026
4277.80273	0.03030
4275.87405	0.03035
4273.94538	0.03042
4272.01670	0.03048
4270.08803	0.03053
4268.15935	0.03059
4266.23068	0.03063
4264.30200	0.03068
4262.37332	0.03074
4260.44465	0.03081
4258.51597	0.03086
4256.58730	0.03092
4254.65862	0.03098
4252.72995	0.03105
4250.80127	0.03111
4248.87259	0.03117
4246.94392	0.03122
4245.01524	0.03127
4243.08657	0.03132
4241.15789	0.03139
4239.22922	0.03146
4237.30054	0.03153
4235.37186	0.03158
4233.44319	0.03163
4231.51451	0.03167
4229.58584	0.03170
4227.65716	0.03174
4225.72849	0.03180
4223.79981	0.03189
4221.87113	0.03196
4219.94246	0.03201
4218.01378	0.03205
4216.08511	0.03211
4214.15643	0.03218
4212.22776	0.03226
4210.29908	0.03230
4208.37040	0.03234
4206.44173	0.03240
4204.51305	0.03248
4202.58438	0.03255
4200.65570	0.03262
4198.72703	0.03268
4196.79835	0.03274
4194.86968	0.03279
4192.94100	0.03283
4191.01232	0.03289
4189.08365	0.03295
4187.15497	0.03302
4185.22630	0.03308
4183.29762	0.03314
4181.36895	0.03320
4179.44027	0.03326
4177.51159	0.03334
4175.58292	0.03343
4173.65424	0.03351
4171.72557	0.03357
4169.79689	0.03363
4167.86822	0.03369
4165.93954	0.03375
4164.01086	0.03381
4162.08219	0.03388
4160.15351	0.03393
4158.22484	0.03398
4156.29616	0.03406
4154.36749	0.03413
4152.43881	0.03420
4150.51013	0.03424
4148.58146	0.03426
4146.65278	0.03431
4144.72411	0.03440
4142.79543	0.03451
4140.86676	0.03458
4138.93808	0.03462
4137.00940	0.03464
4135.08073	0.03471
4133.15205	0.03479
4131.22338	0.03488
4129.29470	0.03496
4127.36603	0.03502
4125.43735	0.03507
4123.50867	0.03513
4121.58000	0.03520
4119.65132	0.03526
4117.72265	0.03531
4115.79397	0.03538
4113.86530	0.03545
4111.93662	0.03552
4110.00794	0.03556
4108.07927	0.03562
4106.15059	0.03570
4104.22192	0.03578
4102.29324	0.03586
4100.36457	0.03594
4098.43589	0.03601
4096.50721	0.03608
4094.57854	0.03614
4092.64986	0.03618
4090.72119	0.03622
4088.79251	0.03630
4086.86384	0.03639
4084.93516	0.03646
4083.00648	0.03651
4081.07781	0.03657
4079.14913	0.03664
4077.22046	0.03672
4075.29178	0.03681
4073.36311	0.03688
4071.43443	0.03696
4069.50575	0.03703
4067.57708	0.03709
4065.64840	0.03714
4063.71973	0.03720
4061.79105	0.03727
4059.86238	0.03734
4057.93370	0.03742
4056.00502	0.03749
4054.07635	0.03755
4052.14767	0.03761
4050.21900	0.03770
4048.29032	0.03779
4046.36165	0.03789
4044.43297	0.03797
4042.50429	0.03802
4040.57562	0.03807
4038.64694	0.03813
4036.71827	0.03819
4034.78959	0.03827
4032.86092	0.03834
4030.93224	0.03841
4029.00356	0.03848
4027.07489	0.03854
4025.14621	0.03860
4023.21754	0.03867
4021.28886	0.03876
4019.36019	0.03886
4017.43151	0.03895
4015.50283	0.03903
4013.57416	0.03911
4011.64548	0.03919
4009.71681	0.03927
4007.78813	0.03934
4005.85946	0.03942
4003.93078	0.03950
4002.00210	0.03956
4000.07343	0.03962
3998.14475	0.03969
3996.21608	0.03978
3994.28740	0.03986
3992.35873	0.03992
3990.43005	0.03998
3988.50137	0.04006
3986.57270	0.04013
3984.64402	0.04019
3982.71535	0.04024
3980.78667	0.04030
3978.85800	0.04040
3976.92932	0.04050
3975.00064	0.04061
3973.07197	0.04071
3971.14329	0.04080
3969.21462	0.04086
3967.28594	0.04092
3965.35727	0.04101
3963.42859	0.04107
3961.49991	0.04115
3959.57124	0.04124
3957.64256	0.04133
3955.71389	0.04138
3953.78521	0.04141
3951.85654	0.04146
3949.92786	0.04152
3947.99918	0.04160
3946.07051	0.04169
3944.14183	0.04178
3942.21316	0.04187
3940.28448	0.04196
3938.35581	0.04206
3936.42713	0.04210
3934.49845	0.04210
3932.56978	0.04213
3930.64110	0.04224
3928.71243	0.04238
3926.78375	0.04246
3924.85508	0.04252
3922.92640	0.04260
3920.99772	0.04267
3919.06905	0.04269
3917.14037	0.04275
3915.21170	0.04288
3913.28302	0.04304
3911.35435	0.04316
3909.42567	0.04324
3907.49699	0.04323
3905.56832	0.04317
3903.63964	0.04313
3901.71097	0.04313
3899.78229	0.04325
3897.85362	0.04352
3895.92494	0.04377
3893.99626	0.04382
3892.06759	0.04379
3890.13891	0.04387
3888.21024	0.04399
3886.28156	0.04403
3884.35289	0.04407
3882.42421	0.04409
3880.49553	0.04412
3878.56686	0.04431
3876.63818	0.04452
3874.70951	0.04459
3872.78083	0.04459
3870.85216	0.04456
3868.92348	0.04459
3866.99480	0.04467
3865.06613	0.04475
3863.13745	0.04487
3861.20878	0.04506
3859.28010	0.04520
3857.35143	0.04508
3855.42275	0.04473
3853.49407	0.04471
3851.56540	0.04517
3849.63672	0.04563
3847.70805	0.04582
3845.77937	0.04588
3843.85070	0.04590
3841.92202	0.04594
3839.99334	0.04597
3838.06467	0.04601
3836.13599	0.04609
3834.20732	0.04617
3832.27864	0.04628
3830.34997	0.04644
3828.42129	0.04660
3826.49261	0.04670
3824.56394	0.04676
3822.63526	0.04671
3820.70659	0.04670
3818.77791	0.04683
3816.84924	0.04698
3814.92056	0.04717
3812.99188	0.04740
3811.06321	0.04753
3809.13453	0.04756
3807.20586	0.04762
3805.27718	0.04769
3803.34851	0.04765
3801.41983	0.04763
3799.49115	0.04779
3797.56248	0.04801
3795.63380	0.04819
3793.70513	0.04836
3791.77645	0.04849
3789.84778	0.04856
3787.91910	0.04862
3785.99042	0.04869
3784.06175	0.04878
3782.13307	0.04881
3780.20440	0.04881
3778.27572	0.04891
3776.34705	0.04911
3774.41837	0.04927
3772.48969	0.04931
3770.56102	0.04931
3768.63234	0.04937
3766.70367	0.04950
3764.77499	0.04963
3762.84632	0.04967
3760.91764	0.04963
3758.98896	0.04964
3757.06029	0.04974
3755.13161	0.04977
3753.20294	0.04964
3751.27426	0.04956
3749.34559	0.04966
3747.41691	0.04969
3745.48823	0.04961
3743.55956	0.04983
3741.63088	0.05030
3739.70221	0.05050
3737.77353	0.05042
3735.84486	0.05041
3733.91618	0.05064
3731.98750	0.05096
3730.05883	0.05115
3728.13015	0.05118
3726.20148	0.05120
3724.27280	0.05129
3722.34413	0.05140
3720.41545	0.05155
3718.48677	0.05172
3716.55810	0.05184
3714.62942	0.05184
3712.70075	0.05179
3710.77207	0.05187
3708.84340	0.05208
3706.91472	0.05228
3704.98604	0.05238
3703.05737	0.05245
3701.12869	0.05256
3699.20002	0.05269
3697.27134	0.05278
3695.34267	0.05287
3693.41399	0.05288
3691.48531	0.05278
3689.55664	0.05271
3687.62796	0.05289
3685.69929	0.05325
3683.77061	0.05349
3681.84194	0.05358
3679.91326	0.05359
3677.98458	0.05352
3676.05591	0.05346
3674.12723	0.05354
3672.19856	0.05367
3670.26988	0.05378
3668.34121	0.05397
3666.41253	0.05419
3664.48385	0.05432
3662.55518	0.05438
3660.62650	0.05443
3658.69783	0.05448
3656.76915	0.05452
3654.84048	0.05454
3652.91180	0.05444
3650.98312	0.05422
3649.05445	0.05410
3647.12577	0.05424
3645.19710	0.05464
3643.26842	0.05503
3641.33975	0.05526
3639.41107	0.05537
3637.48239	0.05545
3635.55372	0.05550
3633.62504	0.05551
3631.69637	0.05539
3629.76769	0.05523
3627.83902	0.05536
3625.91034	0.05571
3623.98166	0.05590
3622.05299	0.05587
3620.12431	0.05583
3618.19564	0.05588
3616.26696	0.05597
3614.33829	0.05598
3612.40961	0.05592
3610.48093	0.05591
3608.55226	0.05605
3606.62358	0.05633
3604.69491	0.05655
3602.76623	0.05660
3600.83756	0.05662
3598.90888	0.05667
3596.98020	0.05674
3595.05153	0.05680
3593.12285	0.05688
3591.19418	0.05691
3589.26550	0.05684
3587.33683	0.05681
3585.40815	0.05700
3583.47947	0.05726
3581.55080	0.05742
3579.62212	0.05751
3577.69345	0.05760
3575.76477	0.05769
3573.83610	0.05776
3571.90742	0.05778
3569.97874	0.05767
3568.05007	0.05757
3566.12139	0.05770
3564.19272	0.05793
3562.26404	0.05811
3560.33537	0.05823
3558.40669	0.05834
3556.47801	0.05844
3554.54934	0.05848
3552.62066	0.05849
3550.69199	0.05854
3548.76331	0.05859
3546.83464	0.05860
3544.90596	0.05866
3542.97728	0.05880
3541.04861	0.05895
3539.11993	0.05904
3537.19126	0.05908
3535.26258	0.05913
3533.33391	0.05918
3531.40523	0.05922
3529.47655	0.05924
3527.54788	0.05924
3525.61920	0.05924
3523.69053	0.05927
3521.76185	0.05935
3519.83318	0.05944
3517.90450	0.05948
3515.97582	0.05950
3514.04715	0.05952
3512.11847	0.05955
3510.18980	0.05960
3508.26112	0.05965
3506.33245	0.05968
3504.40377	0.05969
3502.47509	0.05973
3500.54642	0.05978
3498.61774	0.05981
3496.68907	0.05983
3494.76039	0.05987
3492.83172	0.05990
3490.90304	0.05993
3488.97436	0.05997
3487.04569	0.06001
3485.11701	0.06004
3483.18834	0.06008
3481.25966	0.06015
3479.33099	0.06022
3477.40231	0.06025
3475.47363	0.06028
3473.54496	0.06035
3471.61628	0.06044
3469.68761	0.06052
3467.75893	0.06063
3465.83026	0.06076
3463.90158	0.06088
3461.97290	0.06097
3460.04423	0.06106
3458.11555	0.06117
3456.18688	0.06128
3454.25820	0.06136
3452.32953	0.06141
3450.40085	0.06146
3448.47217	0.06152
3446.54350	0.06162
3444.61482	0.06174
3442.68615	0.06188
3440.75747	0.06203
3438.82880	0.06219
3436.90012	0.06235
3434.97144	0.06251
3433.04277	0.06270
3431.11409	0.06290
3429.18542	0.06308
3427.25674	0.06328
3425.32807	0.06350
3423.39939	0.06369
3421.47071	0.06385
3419.54204	0.06400
3417.61336	0.06416
3415.68469	0.06431
3413.75601	0.06447
3411.82734	0.06463
3409.89866	0.06479
3407.96998	0.06494
3406.04131	0.06506
3404.11263	0.06517
3402.18396	0.06530
3400.25528	0.06544
3398.32661	0.06558
3396.39793	0.06572
3394.46925	0.06588
3392.54058	0.06601
3390.61190	0.06614
3388.68323	0.06627
3386.75455	0.06641
3384.82588	0.06655
3382.89720	0.06670
3380.96852	0.06683
3379.03985	0.06693
3377.11117	0.06704
3375.18250	0.06716
3373.25382	0.06730
3371.32515	0.06743
3369.39647	0.06755
3367.46779	0.06768
3365.53912	0.06782
3363.61044	0.06794
3361.68177	0.06805
3359.75309	0.06819
3357.82442	0.06833
3355.89574	0.06844
3353.96706	0.06854
3352.03839	0.06866
3350.10971	0.06880
3348.18104	0.06894
3346.25236	0.06906
3344.32369	0.06918
3342.39501	0.06930
3340.46633	0.06946
3338.53766	0.06959
3336.60898	0.06967
3334.68031	0.06975
3332.75163	0.06987
3330.82296	0.06999
3328.89428	0.07009
3326.96560	0.07020
3325.03693	0.07033
3323.10825	0.07045
3321.17958	0.07059
3319.25090	0.07073
3317.32223	0.07089
3315.39355	0.07102
3313.46487	0.07112
3311.53620	0.07123
3309.60752	0.07137
3307.67885	0.07152
3305.75017	0.07167
3303.82150	0.07183
3301.89282	0.07197
3299.96414	0.07207
3298.03547	0.07219
3296.10679	0.07235
3294.17812	0.07251
3292.24944	0.07264
3290.32077	0.07274
3288.39209	0.07285
3286.46341	0.07299
3284.53474	0.07313
3282.60606	0.07325
3280.67739	0.07337
3278.74871	0.07349
3276.82004	0.07360
3274.89136	0.07373
3272.96268	0.07389
3271.03401	0.07404
3269.10533	0.07418
3267.17666	0.07432
3265.24798	0.07447
3263.31931	0.07461
3261.39063	0.07475
3259.46195	0.07488
3257.53328	0.07501
3255.60460	0.07513
3253.67593	0.07525
3251.74725	0.07540
3249.81858	0.07555
3247.88990	0.07567
3245.96122	0.07578
3244.03255	0.07588
3242.10387	0.07601
3240.17520	0.07615
3238.24652	0.07631
3236.31785	0.07647
3234.38917	0.07660
3232.46049	0.07670
3230.53182	0.07682
3228.60314	0.07695
3226.67447	0.07710
3224.74579	0.07725
3222.81712	0.07740
3220.88844	0.07754
3218.95976	0.07765
3217.03109	0.07775
3215.10241	0.07791
3213.17374	0.07809
3211.24506	0.07824
3209.31639	0.07835
3207.38771	0.07846
3205.45903	0.07859
3203.53036	0.07873
3201.60168	0.07886
3199.67301	0.07902
3197.74433	0.07921
3195.81566	0.07938
3193.88698	0.07951
3191.95830	0.07964
3190.02963	0.07979
3188.10095	0.07994
3186.17228	0.08007
3184.24360	0.08020
3182.31493	0.08035
3180.38625	0.08051
3178.45757	0.08065
3176.52890	0.08078
3174.60022	0.08093
3172.67155	0.08107
3170.74287	0.08121
3168.81420	0.08134
3166.88552	0.08149
3164.95684	0.08161
3163.02817	0.08174
3161.09949	0.08192
3159.17082	0.08210
3157.24214	0.08222
3155.31347	0.08231
3153.38479	0.08243
3151.45611	0.08257
3149.52744	0.08272
3147.59876	0.08286
3145.67009	0.08298
3143.74141	0.08311
3141.81274	0.08324
3139.88406	0.08337
3137.95538	0.08352
3136.02671	0.08366
3134.09803	0.08379
3132.16936	0.08395
3130.24068	0.08414
3128.31201	0.08430
3126.38333	0.08444
3124.45465	0.08458
3122.52598	0.08471
3120.59730	0.08482
3118.66863	0.08494
3116.73995	0.08509
3114.81128	0.08524
3112.88260	0.08537
3110.95392	0.08549
3109.02525	0.08563
3107.09657	0.08581
3105.16790	0.08597
3103.23922	0.08608
3101.31055	0.08617
3099.38187	0.08631
3097.45319	0.08646
3095.52452	0.08658
3093.59584	0.08674
3091.66717	0.08693
3089.73849	0.08709
3087.80982	0.08723
3085.88114	0.08736
3083.95246	0.08749
3082.02379	0.08761
3080.09511	0.08773
3078.16644	0.08786
3076.23776	0.08799
3074.30909	0.08813
3072.38041	0.08828
3070.45173	0.08843
3068.52306	0.08856
3066.59438	0.08868
3064.66571	0.08881
3062.73703	0.08895
3060.80836	0.08908
3058.87968	0.08922
3056.95100	0.08938
3055.02233	0.08953
3053.09365	0.08968
3051.16498	0.08982
3049.23630	0.08993
3047.30763	0.09005
3045.37895	0.09022
3043.45027	0.09037
3041.52160	0.09051
3039.59292	0.09064
3037.66425	0.09078
3035.73557	0.09093
3033.80690	0.09109
3031.87822	0.09125
3029.94954	0.09140
3028.02087	0.09152
3026.09219	0.09162
3024.16352	0.09175
3022.23484	0.09192
3020.30617	0.09209
3018.37749	0.09220
3016.44881	0.09228
3014.52014	0.09240
3012.59146	0.09253
3010.66279	0.09267
3008.73411	0.09283
3006.80544	0.09299
3004.87676	0.09312
3002.94808	0.09325
3001.01941	0.09339
2999.09073	0.09353
2997.16206	0.09366
2995.23338	0.09379
2993.30471	0.09391
2991.37603	0.09402
2989.44735	0.09413
2987.51868	0.09426
2985.59000	0.09435
2983.66133	0.09439
2981.73265	0.09444
2979.80398	0.09450
2977.87530	0.09458
2975.94662	0.09464
2974.01795	0.09467
2972.08927	0.09468
2970.16060	0.09468
2968.23192	0.09466
2966.30325	0.09464
2964.37457	0.09467
2962.44589	0.09476
2960.51722	0.09490
2958.58854	0.09505
2956.65987	0.09522
2954.73119	0.09545
2952.80252	0.09566
2950.87384	0.09583
2948.94516	0.09595
2947.01649	0.09606
2945.08781	0.09615
2943.15914	0.09622
2941.23046	0.09625
2939.30179	0.09628
2937.37311	0.09628
2935.44443	0.09624
2933.51576	0.09618
2931.58708	0.09615
2929.65841	0.09614
2927.72973	0.09614
2925.80106	0.09614
2923.87238	0.09614
2921.94370	0.09617
2920.01503	0.09625
2918.08635	0.09640
2916.15768	0.09669
2914.22900	0.09711
2912.30033	0.09757
2910.37165	0.09800
2908.44297	0.09836
2906.51430	0.09865
2904.58562	0.09890
2902.65695	0.09915
2900.72827	0.09937
2898.79960	0.09956
2896.87092	0.09975
2894.94224	0.09996
2893.01357	0.10018
2891.08489	0.10038
2889.15622	0.10056
2887.22754	0.10072
2885.29887	0.10088
2883.37019	0.10105
2881.44151	0.10123
2879.51284	0.10138
2877.58416	0.10150
2875.65549	0.10160
2873.72681	0.10171
2871.79814	0.10185
2869.86946	0.10199
2867.94078	0.10213
2866.01211	0.10223
2864.08343	0.10231
2862.15476	0.10236
2860.22608	0.10237
2858.29741	0.10234
2856.36873	0.10231
2854.44005	0.10232
2852.51138	0.10237
2850.58270	0.10247
2848.65403	0.10275
2846.72535	0.10323
2844.79668	0.10377
2842.86800	0.10420
2840.93932	0.10449
2839.01065	0.10471
2837.08197	0.10492
2835.15330	0.10515
2833.22462	0.10538
2831.29595	0.10561
2829.36727	0.10581
2827.43859	0.10598
2825.50992	0.10614
2823.58124	0.10632
2821.65257	0.10649
2819.72389	0.10663
2817.79522	0.10677
2815.86654	0.10693
2813.93786	0.10709
2812.00919	0.10725
2810.08051	0.10741
2808.15184	0.10756
2806.22316	0.10773
2804.29449	0.10790
2802.36581	0.10804
2800.43713	0.10818
2798.50846	0.10836
2796.57978	0.10852
2794.65111	0.10864
2792.72243	0.10876
2790.79376	0.10890
2788.86508	0.10906
2786.93640	0.10924
2785.00773	0.10943
2783.07905	0.10960
2781.15038	0.10972
2779.22170	0.10981
2777.29303	0.10995
2775.36435	0.11015
2773.43567	0.11033
2771.50700	0.11048
2769.57832	0.11062
2767.64965	0.11077
2765.72097	0.11091
2763.79230	0.11107
2761.86362	0.11123
2759.93494	0.11138
2758.00627	0.11154
2756.07759	0.11170
2754.14892	0.11184
2752.22024	0.11197
2750.29157	0.11211
2748.36289	0.11226
2746.43421	0.11240
2744.50554	0.11256
2742.57686	0.11274
2740.64819	0.11290
2738.71951	0.11304
2736.79084	0.11317
2734.86216	0.11331
2732.93348	0.11347
2731.00481	0.11360
2729.07613	0.11370
2727.14746	0.11380
2725.21878	0.11395
2723.29011	0.11415
2721.36143	0.11433
2719.43275	0.11447
2717.50408	0.11460
2715.57540	0.11473
2713.64673	0.11489
2711.71805	0.11505
2709.78938	0.11519
2707.86070	0.11533
2705.93202	0.11545
2704.00335	0.11556
2702.07467	0.11570
2700.14600	0.11588
2698.21732	0.11608
2696.28865	0.11624
2694.35997	0.11636
2692.43129	0.11645
2690.50262	0.11657
2688.57394	0.11674
2686.64527	0.11690
2684.71659	0.11705
2682.78792	0.11719
2680.85924	0.11733
2678.93056	0.11747
2677.00189	0.11762
2675.07321	0.11778
2673.14454	0.11793
2671.21586	0.11806
2669.28719	0.11819
2667.35851	0.11832
2665.42983	0.11847
2663.50116	0.11861
2661.57248	0.11875
2659.64381	0.11890
2657.71513	0.11907
2655.78646	0.11923
2653.85778	0.11939
2651.92910	0.11954
2650.00043	0.11967
2648.07175	0.11978
2646.14308	0.11992
2644.21440	0.12010
2642.28573	0.12027
2640.35705	0.12042
2638.42837	0.12058
2636.49970	0.12076
2634.57102	0.12092
2632.64235	0.12108
2630.71367	0.12123
2628.78500	0.12139
2626.85632	0.12155
2624.92764	0.12168
2622.99897	0.12180
2621.07029	0.12197
2619.14162	0.12217
2617.21294	0.12234
2615.28427	0.12250
2613.35559	0.12266
2611.42691	0.12282
2609.49824	0.12297
2607.56956	0.12312
2605.64089	0.12325
2603.71221	0.12337
2601.78354	0.12351
2599.85486	0.12367
2597.92618	0.12383
2595.99751	0.12398
2594.06883	0.12415
2592.14016	0.12434
2590.21148	0.12450
2588.28281	0.12466
2586.35413	0.12483
2584.42545	0.12501
2582.49678	0.12516
2580.56810	0.12528
2578.63943	0.12540
2576.71075	0.12552
2574.78208	0.12566
2572.85340	0.12582
2570.92472	0.12599
2568.99605	0.12614
2567.06737	0.12628
2565.13870	0.12640
2563.21002	0.12652
2561.28135	0.12667
2559.35267	0.12686
2557.42399	0.12704
2555.49532	0.12715
2553.56664	0.12723
2551.63797	0.12732
2549.70929	0.12744
2547.78062	0.12760
2545.85194	0.12779
2543.92326	0.12797
2541.99459	0.12815
2540.06591	0.12832
2538.13724	0.12848
2536.20856	0.12860
2534.27989	0.12872
2532.35121	0.12888
2530.42253	0.12908
2528.49386	0.12929
2526.56518	0.12946
2524.63651	0.12959
2522.70783	0.12970
2520.77916	0.12984
2518.85048	0.13000
2516.92181	0.13017
2514.99313	0.13035
2513.06445	0.13052
2511.13578	0.13065
2509.20710	0.13078
2507.27843	0.13093
2505.34975	0.13111
2503.42108	0.13129
2501.49240	0.13148
2499.56372	0.13167
2497.63505	0.13185
2495.70637	0.13202
2493.77770	0.13218
2491.84902	0.13232
2489.92035	0.13247
2487.99167	0.13264
2486.06299	0.13280
2484.13432	0.13294
2482.20564	0.13311
2480.27697	0.13331
2478.34829	0.13348
2476.41962	0.13363
2474.49094	0.13378
2472.56226	0.13395
2470.63359	0.13410
2468.70491	0.13422
2466.77624	0.13436
2464.84756	0.13456
2462.91889	0.13477
2460.99021	0.13491
2459.06153	0.13504
2457.13286	0.13519
2455.20418	0.13536
2453.27551	0.13554
2451.34683	0.13570
2449.41816	0.13585
2447.48948	0.13602
2445.56080	0.13619
2443.63213	0.13633
2441.70345	0.13649
2439.77478	0.13667
2437.84610	0.13686
2435.91743	0.13701
2433.98875	0.13716
2432.06007	0.13730
2430.13140	0.13743
2428.20272	0.13758
2426.27405	0.13776
2424.34537	0.13796
2422.41670	0.13814
2420.48802	0.13826
2418.55934	0.13840
2416.63067	0.13856
2414.70199	0.13871
2412.77332	0.13883
2410.84464	0.13900
2408.91597	0.13923
2406.98729	0.13942
2405.05861	0.13955
2403.12994	0.13968
2401.20126	0.13984
2399.27259	0.14001
2397.34391	0.14018
2395.41524	0.14036
2393.48656	0.14053
2391.55788	0.14069
2389.62921	0.14079
2387.70053	0.14090
2385.77186	0.14105
2383.84318	0.14120
2381.91451	0.14133
2379.98583	0.14145
2378.05715	0.14154
2376.12848	0.14158
2374.19980	0.14159
2372.27113	0.14160
2370.34245	0.14164
2368.41378	0.14169
2366.48510	0.14174
2364.55642	0.14180
2362.62775	0.14191
2360.69907	0.14211
2358.77040	0.14233
2356.84172	0.14258
2354.91305	0.14288
2352.98437	0.14322
2351.05569	0.14351
2349.12702	0.14371
2347.19834	0.14379
2345.26967	0.14382
2343.34099	0.14390
2341.41232	0.14401
2339.48364	0.14412
2337.55496	0.14421
2335.62629	0.14435
2333.69761	0.14453
2331.76894	0.14468
2329.84026	0.14481
2327.91159	0.14500
2325.98291	0.14525
2324.05423	0.14550
2322.12556	0.14573
2320.19688	0.14592
2318.26821	0.14611
2316.33953	0.14633
2314.41086	0.14658
2312.48218	0.14682
2310.55350	0.14706
2308.62483	0.14726
2306.69615	0.14742
2304.76748	0.14758
2302.83880	0.14780
2300.91013	0.14801
2298.98145	0.14819
2297.05277	0.14836
2295.12410	0.14856
2293.19542	0.14876
2291.26675	0.14892
2289.33807	0.14906
2287.40940	0.14922
2285.48072	0.14939
2283.55204	0.14956
2281.62337	0.14970
2279.69469	0.14985
2277.76602	0.15001
2275.83734	0.15019
2273.90867	0.15036
2271.97999	0.15053
2270.05131	0.15071
2268.12264	0.15088
2266.19396	0.15103
2264.26529	0.15119
2262.33661	0.15133
2260.40794	0.15149
2258.47926	0.15167
2256.55058	0.15183
2254.62191	0.15196
2252.69323	0.15211
2250.76456	0.15228
2248.83588	0.15244
2246.90721	0.15259
2244.97853	0.15272
2243.04985	0.15286
2241.12118	0.15303
2239.19250	0.15321
2237.26383	0.15340
2235.33515	0.15358
2233.40648	0.15375
2231.47780	0.15389
2229.54912	0.15404
2227.62045	0.15422
2225.69177	0.15438
2223.76310	0.15449
2221.83442	0.15459
2219.90575	0.15473
2217.97707	0.15489
2216.04839	0.15505
2214.11972	0.15522
2212.19104	0.15539
2210.26237	0.15556
2208.33369	0.15572
2206.40502	0.15587
2204.47634	0.15602
2202.54766	0.15617
2200.61899	0.15634
2198.69031	0.15651
2196.76164	0.15667
2194.83296	0.15684
2192.90429	0.15702
2190.97561	0.15720
2189.04693	0.15736
2187.11826	0.15748
2185.18958	0.15762
2183.26091	0.15776
2181.33223	0.15788
2179.40356	0.15801
2177.47488	0.15818
2175.54620	0.15839
2173.61753	0.15856
2171.68885	0.15868
2169.76018	0.15881
2167.83150	0.15897
2165.90283	0.15917
2163.97415	0.15937
2162.04547	0.15955
2160.11680	0.15972
2158.18812	0.15989
2156.25945	0.16004
2154.33077	0.16018
2152.40210	0.16036
2150.47342	0.16056
2148.54474	0.16073
2146.61607	0.16086
2144.68739	0.16100
2142.75872	0.16117
2140.83004	0.16133
2138.90137	0.16146
2136.97269	0.16157
2135.04401	0.16172
2133.11534	0.16189
2131.18666	0.16207
2129.25799	0.16225
2127.32931	0.16239
2125.40064	0.16257
2123.47196	0.16279
2121.54328	0.16298
2119.61461	0.16310
2117.68593	0.16320
2115.75726	0.16333
2113.82858	0.16348
2111.89991	0.16363
2109.97123	0.16380
2108.04255	0.16396
2106.11388	0.16412
2104.18520	0.16431
2102.25653	0.16452
2100.32785	0.16472
2098.39918	0.16487
2096.47050	0.16498
2094.54182	0.16511
2092.61315	0.16526
2090.68447	0.16541
2088.75580	0.16556
2086.82712	0.16574
2084.89845	0.16591
2082.96977	0.16607
2081.04109	0.16623
2079.11242	0.16641
2077.18374	0.16659
2075.25507	0.16674
2073.32639	0.16690
2071.39772	0.16705
2069.46904	0.16718
2067.54036	0.16731
2065.61169	0.16745
2063.68301	0.16761
2061.75434	0.16777
2059.82566	0.16794
2057.89699	0.16813
2055.96831	0.16832
2054.03963	0.16848
2052.11096	0.16862
2050.18228	0.16878
2048.25361	0.16896
2046.32493	0.16913
2044.39626	0.16930
2042.46758	0.16945
2040.53890	0.16960
2038.61023	0.16975
2036.68155	0.16990
2034.75288	0.17005
2032.82420	0.17022
2030.89553	0.17040
2028.96685	0.17060
2027.03817	0.17079
2025.10950	0.17093
2023.18082	0.17103
2021.25215	0.17116
2019.32347	0.17130
2017.39480	0.17145
2015.46612	0.17163
2013.53744	0.17184
2011.60877	0.17201
2009.68009	0.17216
2007.75142	0.17237
2005.82274	0.17258
2003.89407	0.17272
2001.96539	0.17284
2000.03671	0.17300
1998.10804	0.17316
1996.17936	0.17328
1994.25069	0.17338
1992.32201	0.17350
1990.39334	0.17367
1988.46466	0.17386
1986.53598	0.17408
1984.60731	0.17427
1982.67863	0.17441
1980.74996	0.17451
1978.82128	0.17462
1976.89261	0.17477
1974.96393	0.17491
1973.03525	0.17501
1971.10658	0.17511
1969.17790	0.17518
1967.24923	0.17526
1965.32055	0.17543
1963.39188	0.17563
1961.46320	0.17581
1959.53452	0.17601
1957.60585	0.17621
1955.67717	0.17636
1953.74850	0.17650
1951.81982	0.17666
1949.89115	0.17682
1947.96247	0.17698
1946.03379	0.17709
1944.10512	0.17713
1942.17644	0.17723
1940.24777	0.17748
1938.31909	0.17774
1936.39042	0.17793
1934.46174	0.17808
1932.53306	0.17821
1930.60439	0.17831
1928.67571	0.17841
1926.74704	0.17857
1924.81836	0.17875
1922.88969	0.17890
1920.96101	0.17897
1919.03233	0.17898
1917.10366	0.17915
1915.17498	0.17952
1913.24631	0.17979
1911.31763	0.17989
1909.38896	0.17998
1907.46028	0.18018
1905.53160	0.18041
1903.60293	0.18058
1901.67425	0.18072
1899.74558	0.18085
1897.81690	0.18097
1895.88823	0.18108
1893.95955	0.18120
1892.03087	0.18126
1890.10220	0.18133
1888.17352	0.18154
1886.24485	0.18182
1884.31617	0.18202
1882.38750	0.18220
1880.45882	0.18236
1878.53014	0.18251
1876.60147	0.18269
1874.67279	0.18289
1872.74412	0.18298
1870.81544	0.18289
1868.88677	0.18282
1866.95809	0.18304
1865.02941	0.18344
1863.10074	0.18375
1861.17206	0.18394
1859.24339	0.18414
1857.31471	0.18437
1855.38604	0.18457
1853.45736	0.18470
1851.52868	0.18477
1849.60001	0.18482
1847.67133	0.18468
1845.74266	0.18439
1843.81398	0.18448
1841.88531	0.18516
1839.95663	0.18574
1838.02795	0.18591
1836.09928	0.18598
1834.17060	0.18609
1832.24193	0.18609
1830.31325	0.18605
1828.38458	0.18613
1826.45590	0.18623
1824.52722	0.18645
1822.59855	0.18691
1820.66987	0.18729
1818.74120	0.18745
1816.81252	0.18761
1814.88385	0.18780
1812.95517	0.18783
1811.02649	0.18783
1809.09782	0.18807
1807.16914	0.18838
1805.24047	0.18845
1803.31179	0.18833
1801.38312	0.18832
1799.45444	0.18853
1797.52576	0.18877
1795.59709	0.18886
1793.66841	0.18880
1791.73974	0.18884
1789.81106	0.18918
1787.88239	0.18957
1785.95371	0.18971
1784.02503	0.18972
1782.09636	0.18975
1780.16768	0.18988
1778.23901	0.19005
1776.31033	0.19004
1774.38166	0.18978
1772.45298	0.18958
1770.52430	0.18958
1768.59563	0.18976
1766.66695	0.19023
1764.73828	0.19075
1762.80960	0.19097
1760.88093	0.19104
1758.95225	0.19103
1757.02357	0.19100
1755.09490	0.19109
1753.16622	0.19102
1751.23755	0.19068
1749.30887	0.19049
1747.38020	0.19067
1745.45152	0.19095
1743.52284	0.19110
1741.59417	0.19116
1739.66549	0.19118
1737.73682	0.19098
1735.80814	0.19038
1733.87947	0.19004
1731.95079	0.19044
1730.02211	0.19108
1728.09344	0.19164
1726.16476	0.19206
1724.23609	0.19224
1722.30741	0.19217
1720.37874	0.19173
1718.45006	0.19132
1716.52138	0.19148
1714.59271	0.19208
1712.66403	0.19272
1710.73536	0.19311
1708.80668	0.19314
1706.87801	0.19304
1704.94933	0.19302
1703.02065	0.19271
1701.09198	0.19211
1699.16330	0.19186
1697.23463	0.19193
1695.30595	0.19229
1693.37728	0.19312
1691.44860	0.19367
1689.51992	0.19359
1687.59125	0.19318
1685.66257	0.19259
1683.73390	0.19240
1681.80522	0.19290
1679.87655	0.19353
1677.94787	0.19384
1676.01919	0.19386
1674.09052	0.19383
1672.16184	0.19362
1670.23317	0.19324
1668.30449	0.19339
1666.37582	0.19406
1664.44714	0.19441
1662.51846	0.19439
1660.58979	0.19448
1658.66111	0.19457
1656.73244	0.19408
1654.80376	0.19310
1652.87509	0.19285
1650.94641	0.19363
1649.01773	0.19406
1647.08906	0.19383
1645.16038	0.19399
1643.23171	0.19462
1641.30303	0.19500
1639.37436	0.19484
1637.44568	0.19436
1635.51700	0.19418
1633.58833	0.19464
1631.65965	0.19518
1629.73098	0.19526
1627.80230	0.19507
1625.87363	0.19469
1623.94495	0.19422
1622.01627	0.19405
1620.08760	0.19416
1618.15892	0.19439
1616.23025	0.19496
1614.30157	0.19576
1612.37290	0.19639
1610.44422	0.19672
1608.51554	0.19692
1606.58687	0.19710
1604.65819	0.19726
1602.72952	0.19747
1600.80084	0.19777
1598.87217	0.19804
1596.94349	0.19818
1595.01481	0.19830
1593.08614	0.19848
1591.15746	0.19864
1589.22879	0.19877
1587.30011	0.19892
1585.37144	0.19912
1583.44276	0.19933
1581.51408	0.19942
1579.58541	0.19929
1577.65673	0.19909
1575.72806	0.19924
1573.79938	0.19959
1571.87071	0.19954
1569.94203	0.19934
1568.01335	0.19963
1566.08468	0.20011
1564.15600	0.20033
1562.22733	0.20006
1560.29865	0.19919
1558.36998	0.19866
1556.44130	0.19917
1554.51262	0.20005
1552.58395	0.20065
1550.65527	0.20097
1548.72660	0.20118
1546.79792	0.20122
1544.86925	0.20088
1542.94057	0.20034
1541.01189	0.19992
1539.08322	0.20008
1537.15454	0.20089
1535.22587	0.20154
1533.29719	0.20174
1531.36852	0.20187
1529.43984	0.20192
1527.51116	0.20183
1525.58249	0.20180
1523.65381	0.20157
1521.72514	0.20112
1519.79646	0.20105
1517.86779	0.20139
1515.93911	0.20168
1514.01043	0.20181
1512.08176	0.20176
1510.15308	0.20150
1508.22441	0.20126
1506.29573	0.20156
1504.36706	0.20238
1502.43838	0.20297
1500.50970	0.20301
1498.58103	0.20280
1496.65235	0.20271
1494.72368	0.20283
1492.79500	0.20271
1490.86633	0.20224
1488.93765	0.20207
1487.00897	0.20244
1485.08030	0.20271
1483.15162	0.20260
1481.22295	0.20237
1479.29427	0.20214
1477.36560	0.20177
1475.43692	0.20125
1473.50824	0.20082
1471.57957	0.20067
1469.65089	0.20063
1467.72222	0.20038
1465.79354	0.20006
1463.86487	0.19992
1461.93619	0.19968
1460.00751	0.19896
1458.07884	0.19820
1456.15016	0.19812
1454.22149	0.19862
1452.29281	0.19904
1450.36414	0.19908
1448.43546	0.19902
1446.50678	0.19924
1444.57811	0.19963
1442.64943	0.19990
1440.72076	0.19992
1438.79208	0.19958
1436.86341	0.19927
1434.93473	0.19959
1433.00605	0.20016
1431.07738	0.20045
1429.14870	0.20059
1427.22003	0.20068
1425.29135	0.20067
1423.36268	0.20067
1421.43400	0.20059
1419.50532	0.20035
1417.57665	0.20035
1415.64797	0.20066
1413.71930	0.20091
1411.79062	0.20098
1409.86195	0.20103
1407.93327	0.20098
1406.00459	0.20080
1404.07592	0.20071
1402.14724	0.20072
1400.21857	0.20058
1398.28989	0.20033
1396.36122	0.20012
1394.43254	0.20014
1392.50386	0.20042
1390.57519	0.20050
1388.64651	0.20014
1386.71784	0.19977
1384.78916	0.19975
1382.86049	0.19990
1380.93181	0.19998
1379.00313	0.19993
1377.07446	0.19970
1375.14578	0.19948
1373.21711	0.19953
1371.28843	0.19972
1369.35976	0.19980
1367.43108	0.19978
1365.50240	0.19957
1363.57373	0.19928
1361.64505	0.19935
1359.71638	0.19973
1357.78770	0.19997
1355.85903	0.20002
1353.93035	0.20007
1352.00167	0.20020
1350.07300	0.20039
1348.14432	0.20058
1346.21565	0.20070
1344.28697	0.20068
1342.35830	0.20043
1340.42962	0.20009
1338.50094	0.19995
1336.57227	0.20003
1334.64359	0.20013
1332.71492	0.20016
1330.78624	0.20013
1328.85757	0.20006
1326.92889	0.19997
1325.00021	0.19976
1323.07154	0.19943
1321.14286	0.19916
1319.21419	0.19905
1317.28551	0.19901
1315.35684	0.19887
1313.42816	0.19867
1311.49948	0.19851
1309.57081	0.19835
1307.64213	0.19816
1305.71346	0.19793
1303.78478	0.19765
1301.85611	0.19739
1299.92743	0.19717
1297.99875	0.19697
1296.07008	0.19683
1294.14140	0.19673
1292.21273	0.19659
1290.28405	0.19637
1288.35538	0.19612
1286.42670	0.19591
1284.49802	0.19571
1282.56935	0.19547
1280.64067	0.19522
1278.71200	0.19499
1276.78332	0.19469
1274.85465	0.19427
1272.92597	0.19376
1270.99729	0.19313
1269.06862	0.19227
1267.13994	0.19135
1265.21127	0.19052
1263.28259	0.18991
1261.35392	0.18963
1259.42524	0.18968
1257.49656	0.18990
1255.56789	0.19008
1253.63921	0.19013
1251.71054	0.19005
1249.78186	0.18984
1247.85319	0.18953
1245.92451	0.18912
1243.99583	0.18869
1242.06716	0.18828
1240.13848	0.18786
1238.20981	0.18739
1236.28113	0.18683
1234.35246	0.18623
1232.42378	0.18569
1230.49510	0.18517
1228.56643	0.18464
1226.63775	0.18413
1224.70908	0.18368
1222.78040	0.18323
1220.85173	0.18272
1218.92305	0.18217
1216.99437	0.18162
1215.06570	0.18109
1213.13702	0.18057
1211.20835	0.18002
1209.27967	0.17941
1207.35100	0.17880
1205.42232	0.17826
1203.49364	0.17774
1201.56497	0.17714
1199.63629	0.17649
1197.70762	0.17585
1195.77894	0.17526
1193.85027	0.17466
1191.92159	0.17402
1189.99291	0.17329
1188.06424	0.17252
1186.13556	0.17177
1184.20689	0.17105
1182.27821	0.17031
1180.34954	0.16951
1178.42086	0.16863
1176.49218	0.16776
1174.56351	0.16694
1172.63483	0.16611
1170.70616	0.16521
1168.77748	0.16431
1166.84881	0.16346
1164.92013	0.16264
1162.99145	0.16179
1161.06278	0.16094
1159.13410	0.16016
1157.20543	0.15940
1155.27675	0.15859
1153.34808	0.15774
1151.41940	0.15690
1149.49072	0.15609
1147.56205	0.15532
1145.63337	0.15451
1143.70470	0.15363
1141.77602	0.15274
1139.84735	0.15182
1137.91867	0.15079
1135.98999	0.14962
1134.06132	0.14827
1132.13264	0.14668
1130.20397	0.14483
1128.27529	0.14273
1126.34662	0.14044
1124.41794	0.13808
1122.48926	0.13574
1120.56059	0.13344
1118.63191	0.13124
1116.70324	0.12919
1114.77456	0.12735
1112.84589	0.12574
1110.91721	0.12446
1108.98853	0.12348
1107.05986	0.12275
1105.13118	0.12228
1103.20251	0.12214
1101.27383	0.12230
1099.34516	0.12271
1097.41648	0.12330
1095.48780	0.12407
1093.55913	0.12491
1091.63045	0.12572
1089.70178	0.12648
1087.77310	0.12718
1085.84443	0.12780
1083.91575	0.12833
1081.98707	0.12872
1080.05840	0.12896
1078.12972	0.12916
1076.20105	0.12940
1074.27237	0.12964
1072.34370	0.12978
1070.41502	0.12987
1068.48634	0.12996
1066.55767	0.13010
1064.62899	0.13031
1062.70032	0.13051
1060.77164	0.13069
1058.84297	0.13092
1056.91429	0.13118
1054.98561	0.13143
1053.05694	0.13170
1051.12826	0.13208
1049.19959	0.13251
1047.27091	0.13291
1045.34224	0.13326
1043.41356	0.13359
1041.48488	0.13396
1039.55621	0.13438
1037.62753	0.13478
1035.69886	0.13512
1033.77018	0.13544
1031.84151	0.13581
1029.91283	0.13618
1027.98415	0.13655
1026.05548	0.13692
1024.12680	0.13724
1022.19813	0.13750
1020.26945	0.13779
1018.34078	0.13820
1016.41210	0.13873
1014.48342	0.13931
1012.55475	0.13985
1010.62607	0.14038
1008.69740	0.14096
1006.76872	0.14161
1004.84005	0.14221
1002.91137	0.14269
1000.98269	0.14308
999.05402	0.14341
997.12534	0.14361
995.19667	0.14368
993.26799	0.14372
991.33932	0.14380
989.41064	0.14389
987.48196	0.14394
985.55329	0.14394
983.62461	0.14389
981.69594	0.14385
979.76726	0.14379
977.83859	0.14368
975.90991	0.14355
973.98123	0.14343
972.05256	0.14326
970.12388	0.14305
968.19521	0.14284
966.26653	0.14264
964.33786	0.14248
962.40918	0.14232
960.48050	0.14212
958.55183	0.14192
956.62315	0.14182
954.69448	0.14172
952.76580	0.14157
950.83713	0.14143
948.90845	0.14126
946.97977	0.14099
945.05110	0.14069
943.12242	0.14039
941.19375	0.14009
939.26507	0.13976
937.33640	0.13933
935.40772	0.13881
933.47904	0.13828
931.55037	0.13777
929.62169	0.13725
927.69302	0.13674
925.76434	0.13624
923.83567	0.13575
921.90699	0.13515
919.97831	0.13444
918.04964	0.13372
916.12096	0.13303
914.19229	0.13229
912.26361	0.13146
910.33494	0.13064
908.40626	0.12998
906.47758	0.12945
904.54891	0.12893
902.62023	0.12831
900.69156	0.12765
898.76288	0.12715
896.83421	0.12672
894.90553	0.12617
892.97685	0.12562
891.04818	0.12519
889.11950	0.12479
887.19083	0.12440
885.26215	0.12406
883.33348	0.12377
881.40480	0.12344
879.47612	0.12304
877.54745	0.12263
875.61877	0.12230
873.69010	0.12207
871.76142	0.12186
869.83275	0.12167
867.90407	0.12150
865.97539	0.12130
864.04672	0.12108
862.11804	0.12090
860.18937	0.12080
858.26069	0.12074
856.33202	0.12061
854.40334	0.12040
852.47466	0.12015
850.54599	0.11995
848.61731	0.11980
846.68864	0.11964
844.75996	0.11944
842.83129	0.11915
840.90261	0.11876
838.97394	0.11837
837.04526	0.11798
835.11658	0.11741
833.18791	0.11667
831.25923	0.11584
829.33056	0.11491
827.40188	0.11387
825.47321	0.11281
823.54453	0.11185
821.61585	0.11105
819.68718	0.11038
817.75850	0.10977
815.82983	0.10927
813.90115	0.10893
811.97248	0.10864
810.04380	0.10840
808.11512	0.10825
806.18645	0.10822
804.25777	0.10819
802.32910	0.10810
800.40042	0.10785
798.47175	0.10738
796.54307	0.10675
794.61439	0.10616
792.68572	0.10568
790.75704	0.10534
788.82837	0.10517
786.89969	0.10509
784.97102	0.10489
783.04234	0.10455
781.11366	0.10418
779.18499	0.10382
777.25631	0.10352
775.32764	0.10327
773.39896	0.10300
771.47029	0.10269
769.54161	0.10236
767.61293	0.10205
765.68426	0.10167
763.75558	0.10121
761.82691	0.10075
759.89823	0.10026
757.96956	0.09973
756.04088	0.09919
754.11220	0.09863
752.18353	0.09801
750.25485	0.09734
748.32618	0.09663
746.39750	0.09585
744.46883	0.09493
742.54015	0.09394
740.61147	0.09308
738.68280	0.09254
736.75412	0.09234
734.82545	0.09236
732.89677	0.09246
730.96810	0.09257
729.03942	0.09268
727.11074	0.09276
725.18207	0.09280
723.25339	0.09288
721.32472	0.09301
719.39604	0.09317
717.46737	0.09341
715.53869	0.09373
713.61001	0.09417
711.68134	0.09469
709.75266	0.09502
707.82399	0.09504
705.89531	0.09490
703.96664	0.09475
702.03796	0.09454
700.10928	0.09418
698.18061	0.09366
696.25193	0.09310
694.32326	0.09257
692.39458	0.09211
690.46591	0.09168
688.53723	0.09119
686.60855	0.09064
684.67988	0.09010
682.75120	0.08961
680.82253	0.08915
678.89385	0.08864
676.96518	0.08798
675.03650	0.08721
673.10782	0.08643
671.17915	0.08566
669.25047	0.08488
667.32180	0.08411
665.39312	0.08331
663.46445	0.08242
661.53577	0.08144
659.60709	0.08053
657.67842	0.07970
655.74974	0.07891
653.82107	0.07818
651.89239	0.07750
649.96372	0.07676
648.03504	0.07594
646.10636	0.07506
644.17769	0.07416
642.24901	0.07323
640.32034	0.07227
638.39166	0.07127
636.46299	0.07017
634.53431	0.06896
632.60563	0.06742
630.67696	0.06507
628.74828	0.06168
626.81961	0.05740
624.89093	0.05299
622.96226	0.04948
621.03358	0.04731
619.10490	0.04617
617.17623	0.04537
615.24755	0.04446
613.31888	0.04342
611.39020	0.04242
609.46153	0.04190
607.53285	0.04204
605.60417	0.04245
603.67550	0.04287
601.74682	0.04352
599.81815	0.04445
597.88947	0.04533
595.96080	0.04595
594.03212	0.04643
592.10344	0.04685
590.17477	0.04709
588.24609	0.04709
586.31742	0.04690
584.38874	0.04661
582.46007	0.04619
580.53139	0.04565
578.60271	0.04507
576.67404	0.04457
574.74536	0.04414
572.81669	0.04363
570.88801	0.04301
568.95934	0.04242
567.03066	0.04199
565.10198	0.04169
563.17331	0.04138
561.24463	0.04103
559.31596	0.04074
557.38728	0.04054
555.45861	0.04035
553.52993	0.04011
551.60125	0.03988
549.67258	0.03974
547.74390	0.03962
545.81523	0.03943
543.88655	0.03918
541.95788	0.03897
540.02920	0.03875
538.10052	0.03848
536.17185	0.03823
534.24317	0.03811
532.31450	0.03802
530.38582	0.03784
528.45715	0.03759
526.52847	0.03727
524.59979	0.03694
522.67112	0.03660
520.74244	0.03609
518.81377	0.03546
516.88509	0.03486
514.95642	0.03437
513.02774	0.03403
511.09906	0.03382
509.17039	0.03364
507.24171	0.03347
505.31304	0.03325
503.38436	0.03289
501.45569	0.03243
499.52701	0.03188
497.59833	0.03123
495.66966	0.03055
493.74098	0.02996
491.81231	0.02948
489.88363	0.02908
487.95496	0.02868
486.02628	0.02814
484.09760	0.02750
482.16893	0.02694
480.24025	0.02650
478.31158	0.02608
476.38290	0.02554
474.45423	0.02486
472.52555	0.02418
470.59687	0.02366
468.66820	0.02340
466.73952	0.02325
464.81085	0.02300
462.88217	0.02272
460.95350	0.02254
459.02482	0.02241
457.09614	0.02227
455.16747	0.02225
453.23879	0.02235
451.31012	0.02246
449.38144	0.02252
447.45277	0.02249
445.52409	0.02227
443.59541	0.02188
441.66674	0.02153
439.73806	0.02127
437.80939	0.02095
435.88071	0.02044
433.95204	0.01978
432.02336	0.01910
430.09468	0.01853
428.16601	0.01806
426.23733	0.01755
424.30866	0.01694
422.37998	0.01637
420.45131	0.01585
418.52263	0.01525
416.59395	0.01449
414.66528	0.01368
412.73660	0.01299
410.80793	0.01241
408.87925	0.01179
406.95058	0.01109
405.02190	0.01046
403.09322	0.00992
401.16455	0.00935
399.23587	0.00875
397.30720	0.00820
395.37852	0.00769
393.44985	0.00724
391.52117	0.00690
389.59249	0.00652
387.66382	0.00602
385.73514	0.00554
383.80647	0.00514
381.87779	0.00478
379.94912	0.00439
378.02044	0.00396
376.09176	0.00362
374.16309	0.00342
372.23441	0.00327
370.30574	0.00308
368.37706	0.00279
