7496.76250	0.00217
7494.83382	0.00219
7492.90514	0.00219
7490.97647	0.00219
7489.04779	0.00219
7487.11912	0.00220
7485.19044	0.00221
7483.26177	0.00222
7481.33309	0.00223
7479.40441	0.00223
7477.47574	0.00223
7475.54706	0.00225
7473.61839	0.00226
7471.68971	0.00227
7469.76104	0.00227
7467.83236	0.00228
7465.90368	0.00228
7463.97501	0.00228
7462.04633	0.00228
7460.11766	0.00228
7458.18898	0.00228
7456.26031	0.00229
7454.33163	0.00229
7452.40295	0.00230
7450.47428	0.00232
7448.54560	0.00234
7446.61693	0.00233
7444.68825	0.00233
7442.75958	0.00234
7440.83090	0.00235
7438.90222	0.00236
7436.97355	0.00236
7435.04487	0.00238
7433.11620	0.00238
7431.18752	0.00237
7429.25885	0.00237
7427.33017	0.00238
7425.40149	0.00240
7423.47282	0.00240
7421.54414	0.00241
7419.61547	0.00242
7417.68679	0.00243
7415.75812	0.00243
7413.82944	0.00243
7411.90076	0.00243
7409.97209	0.00244
7408.04341	0.00245
7406.11474	0.00246
7404.18606	0.00246
7402.25739	0.00247
7400.32871	0.00247
7398.40003	0.00247
7396.47136	0.00247
7394.54268	0.00247
7392.61401	0.00248
7390.68533	0.00249
7388.75666	0.00250
7386.82798	0.00251
7384.89930	0.00251
7382.97063	0.00251
7381.04195	0.00252
7379.11328	0.00253
7377.18460	0.00254
7375.25593	0.00253
7373.32725	0.00254
7371.39857	0.00256
7369.46990	0.00258
7367.54122	0.00257
7365.61255	0.00257
7363.68387	0.00258
7361.75520	0.00260
7359.82652	0.00261
7357.89784	0.00261
7355.96917	0.00261
7354.04049	0.00260
7352.11182	0.00261
7350.18314	0.00263
7348.25447	0.00265
7346.32579	0.00267
7344.39711	0.00266
7342.46844	0.00265
7340.53976	0.00266
7338.61109	0.00268
7336.68241	0.00268
7334.75374	0.00268
7332.82506	0.00267
7330.89638	0.00267
7328.96771	0.00268
7327.03903	0.00268
7325.11036	0.00269
7323.18168	0.00272
7321.25301	0.00274
7319.32433	0.00275
7317.39565	0.00276
7315.46698	0.00278
7313.53830	0.00278
7311.60963	0.00278
7309.68095	0.00278
7307.75228	0.00279
7305.82360	0.00280
7303.89492	0.00281
7301.96625	0.00282
7300.03757	0.00282
7298.10890	0.00282
7296.18022	0.00282
7294.25155	0.00282
7292.32287	0.00283
7290.39419	0.00284
7288.46552	0.00286
7286.53684	0.00287
7284.60817	0.00287
7282.67949	0.00286
7280.75082	0.00286
7278.82214	0.00286
7276.89346	0.00287
7274.96479	0.00288
7273.03611	0.00289
7271.10744	0.00289
7269.17876	0.00290
7267.25009	0.00291
7265.32141	0.00291
7263.39273	0.00291
7261.46406	0.00293
7259.53538	0.00294
7257.60671	0.00294
7255.67803	0.00295
7253.74936	0.00295
7251.82068	0.00296
7249.89200	0.00297
7247.96333	0.00299
7246.03465	0.00300
7244.10598	0.00302
7242.17730	0.00302
7240.24863	0.00301
7238.31995	0.00300
7236.39127	0.00301
7234.46260	0.00302
7232.53392	0.00303
7230.60525	0.00305
7228.67657	0.00307
7226.74790	0.00309
7224.81922	0.00309
7222.89054	0.00308
7220.96187	0.00309
7219.03319	0.00310
7217.10452	0.00312
7215.17584	0.00313
7213.24717	0.00313
7211.31849	0.00313
7209.38981	0.00313
7207.46114	0.00314
7205.53246	0.00313
7203.60379	0.00313
7201.67511	0.00315
7199.74644	0.00318
7197.81776	0.00319
7195.88908	0.00320
7193.96041	0.00320
7192.03173	0.00320
7190.10306	0.00319
7188.17438	0.00319
7186.24571	0.00320
7184.31703	0.00321
7182.38835	0.00321
7180.45968	0.00321
7178.53100	0.00322
7176.60233	0.00323
7174.67365	0.00324
7172.74498	0.00325
7170.81630	0.00327
7168.88762	0.00329
7166.95895	0.00330
7165.03027	0.00331
7163.10160	0.00331
7161.17292	0.00331
7159.24425	0.00331
7157.31557	0.00332
7155.38689	0.00334
7153.45822	0.00335
7151.52954	0.00334
7149.60087	0.00335
7147.67219	0.00337
7145.74352	0.00338
7143.81484	0.00339
7141.88616	0.00341
7139.95749	0.00342
7138.02881	0.00343
7136.10014	0.00342
7134.17146	0.00341
7132.24279	0.00341
7130.31411	0.00342
7128.38543	0.00343
7126.45676	0.00343
7124.52808	0.00343
7122.59941	0.00344
7120.67073	0.00346
7118.74206	0.00346
7116.81338	0.00347
7114.88470	0.00349
7112.95603	0.00350
7111.02735	0.00350
7109.09868	0.00349
7107.17000	0.00349
7105.24133	0.00351
7103.31265	0.00353
7101.38397	0.00353
7099.45530	0.00353
7097.52662	0.00354
7095.59795	0.00356
7093.66927	0.00357
7091.74060	0.00358
7089.81192	0.00361
7087.88324	0.00362
7085.95457	0.00361
7084.02589	0.00360
7082.09722	0.00361
7080.16854	0.00362
7078.23987	0.00363
7076.31119	0.00364
7074.38251	0.00366
7072.45384	0.00367
7070.52516	0.00367
7068.59649	0.00367
7066.66781	0.00367
7064.73914	0.00368
7062.81046	0.00369
7060.88178	0.00370
7058.95311	0.00370
7057.02443	0.00371
7055.09576	0.00372
7053.16708	0.00374
7051.23841	0.00375
7049.30973	0.00375
7047.38105	0.00375
7045.45238	0.00375
7043.52370	0.00376
7041.59503	0.00378
7039.66635	0.00380
7037.73768	0.00382
7035.80900	0.00383
7033.88032	0.00382
7031.95165	0.00382
7030.02297	0.00383
7028.09430	0.00384
7026.16562	0.00385
7024.23695	0.00386
7022.30827	0.00388
7020.37959	0.00388
7018.45092	0.00388
7016.52224	0.00388
7014.59357	0.00389
7012.66489	0.00390
7010.73622	0.00391
7008.80754	0.00392
7006.87886	0.00393
7004.95019	0.00394
7003.02151	0.00394
7001.09284	0.00393
6999.16416	0.00394
6997.23549	0.00396
6995.30681	0.00397
6993.37813	0.00397
6991.44946	0.00398
6989.52078	0.00400
6987.59211	0.00401
6985.66343	0.00402
6983.73476	0.00404
6981.80608	0.00405
6979.87740	0.00406
6977.94873	0.00407
6976.02005	0.00408
6974.09138	0.00409
6972.16270	0.00409
6970.23403	0.00409
6968.30535	0.00410
6966.37667	0.00411
6964.44800	0.00410
6962.51932	0.00410
6960.59065	0.00412
6958.66197	0.00414
6956.73330	0.00415
6954.80462	0.00415
6952.87594	0.00416
6950.94727	0.00417
6949.01859	0.00416
6947.08992	0.00416
6945.16124	0.00418
6943.23257	0.00420
6941.30389	0.00422
6939.37521	0.00424
6937.44654	0.00425
6935.51786	0.00426
6933.58919	0.00426
6931.66051	0.00426
6929.73184	0.00426
6927.80316	0.00427
6925.87448	0.00428
6923.94581	0.00429
6922.01713	0.00430
6920.08846	0.00430
6918.15978	0.00431
6916.23111	0.00432
6914.30243	0.00435
6912.37375	0.00437
6910.44508	0.00438
6908.51640	0.00438
6906.58773	0.00438
6904.65905	0.00439
6902.73038	0.00441
6900.80170	0.00442
6898.87302	0.00441
6896.94435	0.00442
6895.01567	0.00444
6893.08700	0.00446
6891.15832	0.00447
6889.22965	0.00448
6887.30097	0.00448
6885.37229	0.00448
6883.44362	0.00448
6881.51494	0.00450
6879.58627	0.00451
6877.65759	0.00452
6875.72892	0.00453
6873.80024	0.00455
6871.87156	0.00457
6869.94289	0.00457
6868.01421	0.00457
6866.08554	0.00458
6864.15686	0.00459
6862.22819	0.00459
6860.29951	0.00461
6858.37083	0.00462
6856.44216	0.00463
6854.51348	0.00464
6852.58481	0.00464
6850.65613	0.00465
6848.72746	0.00467
6846.79878	0.00469
6844.87010	0.00469
6842.94143	0.00469
6841.01275	0.00470
6839.08408	0.00473
6837.15540	0.00476
6835.22673	0.00477
6833.29805	0.00475
6831.36937	0.00475
6829.44070	0.00477
6827.51202	0.00478
6825.58335	0.00477
6823.65467	0.00478
6821.72600	0.00481
6819.79732	0.00484
6817.86864	0.00485
6815.93997	0.00485
6814.01129	0.00486
6812.08262	0.00487
6810.15394	0.00487
6808.22527	0.00488
6806.29659	0.00490
6804.36791	0.00491
6802.43924	0.00491
6800.51056	0.00492
6798.58189	0.00492
6796.65321	0.00493
6794.72454	0.00494
6792.79586	0.00495
6790.86718	0.00496
6788.93851	0.00497
6787.00983	0.00498
6785.08116	0.00500
6783.15248	0.00502
6781.22381	0.00504
6779.29513	0.00505
6777.36645	0.00505
6775.43778	0.00504
6773.50910	0.00505
6771.58043	0.00508
6769.65175	0.00510
6767.72308	0.00510
6765.79440	0.00508
6763.86572	0.00508
6761.93705	0.00510
6760.00837	0.00511
6758.07970	0.00513
6756.15102	0.00515
6754.22235	0.00517
6752.29367	0.00519
6750.36499	0.00521
6748.43632	0.00522
6746.50764	0.00523
6744.57897	0.00523
6742.65029	0.00523
6740.72162	0.00524
6738.79294	0.00527
6736.86426	0.00529
6734.93559	0.00530
6733.00691	0.00530
6731.07824	0.00530
6729.14956	0.00531
6727.22089	0.00531
6725.29221	0.00531
6723.36353	0.00532
6721.43486	0.00533
6719.50618	0.00535
6717.57751	0.00537
6715.64883	0.00539
6713.72016	0.00541
6711.79148	0.00542
6709.86280	0.00543
6707.93413	0.00544
6706.00545	0.00543
6704.07678	0.00542
6702.14810	0.00544
6700.21943	0.00546
6698.29075	0.00548
6696.36207	0.00550
6694.43340	0.00552
6692.50472	0.00553
6690.57605	0.00554
6688.64737	0.00554
6686.71870	0.00555
6684.79002	0.00556
6682.86134	0.00558
6680.93267	0.00559
6679.00399	0.00558
6677.07532	0.00559
6675.14664	0.00561
6673.21797	0.00561
6671.28929	0.00562
6669.36061	0.00564
6667.43194	0.00566
6665.50326	0.00568
6663.57459	0.00569
6661.64591	0.00571
6659.71724	0.00574
6657.78856	0.00575
6655.85988	0.00575
6653.93121	0.00576
6652.00253	0.00578
6650.07386	0.00579
6648.14518	0.00580
6646.21651	0.00582
6644.28783	0.00583
6642.35915	0.00583
6640.43048	0.00582
6638.50180	0.00582
6636.57313	0.00585
6634.64445	0.00588
6632.71578	0.00590
6630.78710	0.00590
6628.85842	0.00590
6626.92975	0.00592
6625.00107	0.00593
6623.07240	0.00594
6621.14372	0.00595
6619.21505	0.00596
6617.28637	0.00597
6615.35769	0.00599
6613.42902	0.00599
6611.50034	0.00600
6609.57167	0.00601
6607.64299	0.00603
6605.71432	0.00604
6603.78564	0.00606
6601.85696	0.00608
6599.92829	0.00609
6597.99961	0.00610
6596.07094	0.00610
6594.14226	0.00612
6592.21359	0.00614
6590.28491	0.00614
6588.35623	0.00615
6586.42756	0.00615
6584.49888	0.00617
6582.57021	0.00619
6580.64153	0.00622
6578.71286	0.00624
6576.78418	0.00625
6574.85550	0.00626
6572.92683	0.00626
6570.99815	0.00626
6569.06948	0.00627
6567.14080	0.00630
6565.21213	0.00633
6563.28345	0.00636
6561.35477	0.00636
6559.42610	0.00636
6557.49742	0.00636
6555.56875	0.00637
6553.64007	0.00640
6551.71140	0.00642
6549.78272	0.00642
6547.85404	0.00642
6545.92537	0.00643
6543.99669	0.00643
6542.06802	0.00645
6540.13934	0.00648
6538.21067	0.00650
6536.28199	0.00652
6534.35331	0.00654
6532.42464	0.00655
6530.49596	0.00655
6528.56729	0.00655
6526.63861	0.00655
6524.70994	0.00658
6522.78126	0.00662
6520.85258	0.00664
6518.92391	0.00663
6516.99523	0.00664
6515.06656	0.00666
6513.13788	0.00668
6511.20921	0.00670
6509.28053	0.00671
6507.35185	0.00672
6505.42318	0.00672
6503.49450	0.00672
6501.56583	0.00675
6499.63715	0.00677
6497.70848	0.00679
6495.77980	0.00679
6493.85112	0.00681
6491.92245	0.00684
6489.99377	0.00685
6488.06510	0.00686
6486.13642	0.00687
6484.20775	0.00689
6482.27907	0.00691
6480.35039	0.00693
6478.42172	0.00695
6476.49304	0.00695
6474.56437	0.00695
6472.63569	0.00696
6470.70702	0.00698
6468.77834	0.00700
6466.84966	0.00701
6464.92099	0.00703
6462.99231	0.00705
6461.06364	0.00706
6459.13496	0.00707
6457.20629	0.00708
6455.27761	0.00711
6453.34893	0.00713
6451.42026	0.00715
6449.49158	0.00717
6447.56291	0.00719
6445.63423	0.00720
6443.70556	0.00721
6441.77688	0.00721
6439.84820	0.00723
6437.91953	0.00726
6435.99085	0.00728
6434.06218	0.00730
6432.13350	0.00732
6430.20483	0.00732
6428.27615	0.00732
6426.34747	0.00732
6424.41880	0.00733
6422.49012	0.00736
6420.56145	0.00738
6418.63277	0.00738
6416.70410	0.00740
6414.77542	0.00743
6412.84674	0.00745
6410.91807	0.00748
6408.98939	0.00751
6407.06072	0.00753
6405.13204	0.00753
6403.20337	0.00752
6401.27469	0.00752
6399.34601	0.00751
6397.41734	0.00752
6395.48866	0.00755
6393.55999	0.00759
6391.63131	0.00762
6389.70264	0.00764
6387.77396	0.00766
6385.84528	0.00767
6383.91661	0.00769
6381.98793	0.00770
6380.05926	0.00771
6378.13058	0.00772
6376.20191	0.00773
6374.27323	0.00774
6372.34455	0.00776
6370.41588	0.00778
6368.48720	0.00780
6366.55853	0.00781
6364.62985	0.00782
6362.70118	0.00784
6360.77250	0.00786
6358.84382	0.00788
6356.91515	0.00790
6354.98647	0.00792
6353.05780	0.00793
6351.12912	0.00794
6349.20045	0.00796
6347.27177	0.00796
6345.34309	0.00797
6343.41442	0.00799
6341.48574	0.00801
6339.55707	0.00803
6337.62839	0.00804
6335.69972	0.00807
6333.77104	0.00809
6331.84236	0.00812
6329.91369	0.00813
6327.98501	0.00814
6326.05634	0.00815
6324.12766	0.00816
6322.19899	0.00819
6320.27031	0.00822
6318.34163	0.00824
6316.41296	0.00824
6314.48428	0.00825
6312.55561	0.00827
6310.62693	0.00830
6308.69826	0.00833
6306.76958	0.00835
6304.84090	0.00835
6302.91223	0.00836
6300.98355	0.00838
6299.05488	0.00840
6297.12620	0.00842
6295.19753	0.00844
6293.26885	0.00846
6291.34017	0.00847
6289.41150	0.00849
6287.48282	0.00850
6285.55415	0.00852
6283.62547	0.00855
6281.69680	0.00856
6279.76812	0.00857
6277.83944	0.00858
6275.91077	0.00860
6273.98209	0.00863
6272.05342	0.00865
6270.12474	0.00867
6268.19607	0.00870
6266.26739	0.00872
6264.33871	0.00873
6262.41004	0.00873
6260.48136	0.00874
6258.55269	0.00877
6256.62401	0.00880
6254.69534	0.00882
6252.76666	0.00883
6250.83798	0.00884
6248.90931	0.00885
6246.98063	0.00888
6245.05196	0.00891
6243.12328	0.00893
6241.19461	0.00894
6239.26593	0.00895
6237.33725	0.00898
6235.40858	0.00901
6233.47990	0.00903
6231.55123	0.00905
6229.62255	0.00907
6227.69388	0.00909
6225.76520	0.00910
6223.83652	0.00912
6221.90785	0.00912
6219.97917	0.00913
6218.05050	0.00914
6216.12182	0.00915
6214.19315	0.00917
6212.26447	0.00919
6210.33579	0.00922
6208.40712	0.00924
6206.47844	0.00927
6204.54977	0.00929
6202.62109	0.00929
6200.69242	0.00929
6198.76374	0.00931
6196.83506	0.00934
6194.90639	0.00937
6192.97771	0.00940
6191.04904	0.00942
6189.12036	0.00944
6187.19169	0.00945
6185.26301	0.00948
6183.33433	0.00952
6181.40566	0.00956
6179.47698	0.00958
6177.54831	0.00960
6175.61963	0.00961
6173.69096	0.00963
6171.76228	0.00965
6169.83360	0.00965
6167.90493	0.00967
6165.97625	0.00968
6164.04758	0.00970
6162.11890	0.00972
6160.19023	0.00973
6158.26155	0.00974
6156.33287	0.00977
6154.40420	0.00981
6152.47552	0.00983
6150.54685	0.00985
6148.61817	0.00986
6146.68950	0.00989
6144.76082	0.00991
6142.83214	0.00993
6140.90347	0.00995
6138.97479	0.00996
6137.04612	0.00998
6135.11744	0.01001
6133.18877	0.01004
6131.26009	0.01005
6129.33141	0.01005
6127.40274	0.01006
6125.47406	0.01009
6123.54539	0.01013
6121.61671	0.01016
6119.68804	0.01018
6117.75936	0.01020
6115.83068	0.01023
6113.90201	0.01026
6111.97333	0.01028
6110.04466	0.01031
6108.11598	0.01034
6106.18731	0.01036
6104.25863	0.01037
6102.32995	0.01038
6100.40128	0.01040
6098.47260	0.01042
6096.54393	0.01044
6094.61525	0.01045
6092.68658	0.01047
6090.75790	0.01050
6088.82922	0.01053
6086.90055	0.01054
6084.97187	0.01056
6083.04320	0.01059
6081.11452	0.01061
6079.18585	0.01062
6077.25717	0.01064
6075.32849	0.01067
6073.39982	0.01070
6071.47114	0.01071
6069.54247	0.01072
6067.61379	0.01074
6065.68512	0.01078
6063.75644	0.01081
6061.82776	0.01083
6059.89909	0.01086
6057.97041	0.01089
6056.04174	0.01089
6054.11306	0.01090
6052.18439	0.01092
6050.25571	0.01095
6048.32703	0.01099
6046.39836	0.01103
6044.46968	0.01106
6042.54101	0.01107
6040.61233	0.01107
6038.68366	0.01109
6036.75498	0.01112
6034.82630	0.01115
6032.89763	0.01118
6030.96895	0.01121
6029.04028	0.01125
6027.11160	0.01128
6025.18293	0.01130
6023.25425	0.01130
6021.32557	0.01131
6019.39690	0.01134
6017.46822	0.01138
6015.53955	0.01140
6013.61087	0.01143
6011.68220	0.01145
6009.75352	0.01148
6007.82484	0.01149
6005.89617	0.01152
6003.96749	0.01155
6002.03882	0.01156
6000.11014	0.01157
5998.18147	0.01158
5996.25279	0.01160
5994.32411	0.01165
5992.39544	0.01169
5990.46676	0.01172
5988.53809	0.01175
5986.60941	0.01176
5984.68074	0.01178
5982.75206	0.01181
5980.82338	0.01183
5978.89471	0.01185
5976.96603	0.01187
5975.03736	0.01188
5973.10868	0.01190
5971.18001	0.01192
5969.25133	0.01196
5967.32265	0.01198
5965.39398	0.01199
5963.46530	0.01200
5961.53663	0.01202
5959.60795	0.01205
5957.67928	0.01208
5955.75060	0.01212
5953.82192	0.01214
5951.89325	0.01215
5949.96457	0.01217
5948.03590	0.01220
5946.10722	0.01222
5944.17855	0.01223
5942.24987	0.01226
5940.32119	0.01229
5938.39252	0.01233
5936.46384	0.01236
5934.53517	0.01238
5932.60649	0.01241
5930.67782	0.01244
5928.74914	0.01247
5926.82046	0.01250
5924.89179	0.01255
5922.96311	0.01258
5921.03444	0.01259
5919.10576	0.01260
5917.17709	0.01262
5915.24841	0.01264
5913.31973	0.01267
5911.39106	0.01270
5909.46238	0.01272
5907.53371	0.01275
5905.60503	0.01278
5903.67636	0.01282
5901.74768	0.01284
5899.81900	0.01287
5897.89033	0.01288
5895.96165	0.01289
5894.03298	0.01293
5892.10430	0.01298
5890.17563	0.01301
5888.24695	0.01303
5886.31827	0.01306
5884.38960	0.01310
5882.46092	0.01312
5880.53225	0.01313
5878.60357	0.01315
5876.67490	0.01317
5874.74622	0.01319
5872.81755	0.01321
5870.88887	0.01324
5868.96019	0.01328
5867.03152	0.01332
5865.10284	0.01336
5863.17417	0.01339
5861.24549	0.01342
5859.31682	0.01346
5857.38814	0.01348
5855.45946	0.01350
5853.53079	0.01352
5851.60211	0.01354
5849.67344	0.01357
5847.74476	0.01361
5845.81609	0.01365
5843.88741	0.01366
5841.95873	0.01368
5840.03006	0.01371
5838.10138	0.01375
5836.17271	0.01377
5834.24403	0.01379
5832.31536	0.01380
5830.38668	0.01383
5828.45800	0.01386
5826.52933	0.01390
5824.60065	0.01395
5822.67198	0.01398
5820.74330	0.01399
5818.81463	0.01400
5816.88595	0.01403
5814.95727	0.01407
5813.02860	0.01411
5811.09992	0.01413
5809.17125	0.01415
5807.24257	0.01418
5805.31390	0.01421
5803.38522	0.01424
5801.45654	0.01427
5799.52787	0.01429
5797.59919	0.01431
5795.67052	0.01435
5793.74184	0.01439
5791.81317	0.01443
5789.88449	0.01445
5787.95581	0.01448
5786.02714	0.01452
5784.09846	0.01455
5782.16979	0.01458
5780.24111	0.01461
5778.31244	0.01464
5776.38376	0.01468
5774.45508	0.01470
5772.52641	0.01471
5770.59773	0.01473
5768.66906	0.01475
5766.74038	0.01480
5764.81171	0.01484
5762.88303	0.01487
5760.95435	0.01489
5759.02568	0.01491
5757.09700	0.01495
5755.16833	0.01499
5753.23965	0.01503
5751.31098	0.01506
5749.38230	0.01509
5747.45362	0.01511
5745.52495	0.01514
5743.59627	0.01516
5741.66760	0.01518
5739.73892	0.01521
5737.81025	0.01525
5735.88157	0.01528
5733.95289	0.01530
5732.02422	0.01532
5730.09554	0.01535
5728.16687	0.01537
5726.23819	0.01540
5724.30952	0.01543
5722.38084	0.01547
5720.45216	0.01551
5718.52349	0.01553
5716.59481	0.01555
5714.66614	0.01559
5712.73746	0.01562
5710.80879	0.01565
5708.88011	0.01570
5706.95143	0.01575
5705.02276	0.01577
5703.09408	0.01578
5701.16541	0.01582
5699.23673	0.01587
5697.30806	0.01591
5695.37938	0.01594
5693.45070	0.01598
5691.52203	0.01601
5689.59335	0.01603
5687.66468	0.01605
5685.73600	0.01608
5683.80733	0.01611
5681.87865	0.01614
5679.94997	0.01617
5678.02130	0.01621
5676.09262	0.01624
5674.16395	0.01628
5672.23527	0.01632
5670.30660	0.01636
5668.37792	0.01640
5666.44924	0.01643
5664.52057	0.01646
5662.59189	0.01649
5660.66322	0.01652
5658.73454	0.01653
5656.80587	0.01656
5654.87719	0.01659
5652.94851	0.01663
5651.01984	0.01668
5649.09116	0.01673
5647.16249	0.01677
5645.23381	0.01680
5643.30514	0.01683
5641.37646	0.01686
5639.44778	0.01687
5637.51911	0.01688
5635.59043	0.01690
5633.66176	0.01693
5631.73308	0.01697
5629.80441	0.01702
5627.87573	0.01707
5625.94705	0.01709
5624.01838	0.01711
5622.08970	0.01713
5620.16103	0.01716
5618.23235	0.01720
5616.30368	0.01725
5614.37500	0.01730
5612.44632	0.01734
5610.51765	0.01737
5608.58897	0.01740
5606.66030	0.01743
5604.73162	0.01747
5602.80295	0.01749
5600.87427	0.01752
5598.94559	0.01756
5597.01692	0.01760
5595.08824	0.01763
5593.15957	0.01767
5591.23089	0.01772
5589.30222	0.01776
5587.37354	0.01777
5585.44486	0.01778
5583.51619	0.01782
5581.58751	0.01787
5579.65884	0.01792
5577.73016	0.01794
5575.80149	0.01797
5573.87281	0.01800
5571.94413	0.01803
5570.01546	0.01806
5568.08678	0.01811
5566.15811	0.01816
5564.22943	0.01818
5562.30076	0.01820
5560.37208	0.01823
5558.44340	0.01828
5556.51473	0.01833
5554.58605	0.01838
5552.65738	0.01842
5550.72870	0.01845
5548.80003	0.01845
5546.87135	0.01847
5544.94267	0.01852
5543.01400	0.01858
5541.08532	0.01862
5539.15665	0.01865
5537.22797	0.01869
5535.29930	0.01872
5533.37062	0.01875
5531.44194	0.01878
5529.51327	0.01882
5527.58459	0.01885
5525.65592	0.01889
5523.72724	0.01893
5521.79857	0.01897
5519.86989	0.01901
5517.94121	0.01903
5516.01254	0.01906
5514.08386	0.01911
5512.15519	0.01915
5510.22651	0.01917
5508.29784	0.01919
5506.36916	0.01923
5504.44048	0.01929
5502.51181	0.01933
5500.58313	0.01936
5498.65446	0.01938
5496.72578	0.01941
5494.79711	0.01944
5492.86843	0.01947
5490.93975	0.01949
5489.01108	0.01952
5487.08240	0.01958
5485.15373	0.01964
5483.22505	0.01967
5481.29638	0.01969
5479.36770	0.01973
5477.43902	0.01976
5475.51035	0.01980
5473.58167	0.01985
5471.65300	0.01989
5469.72432	0.01991
5467.79565	0.01994
5465.86697	0.02000
5463.93829	0.02006
5462.00962	0.02010
5460.08094	0.02012
5458.15227	0.02016
5456.22359	0.02019
5454.29492	0.02022
5452.36624	0.02025
5450.43756	0.02029
5448.50889	0.02033
5446.58021	0.02037
5444.65154	0.02042
5442.72286	0.02045
5440.79419	0.02048
5438.86551	0.02053
5436.93683	0.02060
5435.00816	0.02063
5433.07948	0.02065
5431.15081	0.02067
5429.22213	0.02070
5427.29346	0.02072
5425.36478	0.02077
5423.43610	0.02083
5421.50743	0.02088
5419.57875	0.02093
5417.65008	0.02097
5415.72140	0.02099
5413.79273	0.02101
5411.86405	0.02103
5409.93537	0.02107
5408.00670	0.02112
5406.07802	0.02118
5404.14935	0.02125
5402.22067	0.02132
5400.29200	0.02135
5398.36332	0.02136
5396.43464	0.02138
5394.50597	0.02142
5392.57729	0.02146
5390.64862	0.02150
5388.71994	0.02153
5386.79127	0.02158
5384.86259	0.02164
5382.93391	0.02169
5381.00524	0.02171
5379.07656	0.02171
5377.14789	0.02174
5375.21921	0.02181
5373.29054	0.02188
5371.36186	0.02194
5369.43318	0.02197
5367.50451	0.02199
5365.57583	0.02201
5363.64716	0.02205
5361.71848	0.02208
5359.78981	0.02214
5357.86113	0.02221
5355.93245	0.02226
5354.00378	0.02229
5352.07510	0.02232
5350.14643	0.02235
5348.21775	0.02237
5346.28908	0.02238
5344.36040	0.02241
5342.43172	0.02247
5340.50305	0.02252
5338.57437	0.02255
5336.64570	0.02260
5334.71702	0.02266
5332.78835	0.02269
5330.85967	0.02271
5328.93099	0.02273
5327.00232	0.02278
5325.07364	0.02286
5323.14497	0.02293
5321.21629	0.02298
5319.28762	0.02303
5317.35894	0.02309
5315.43026	0.02313
5313.50159	0.02317
5311.57291	0.02321
5309.64424	0.02323
5307.71556	0.02325
5305.78689	0.02327
5303.85821	0.02332
5301.92953	0.02337
5300.00086	0.02341
5298.07218	0.02346
5296.14351	0.02351
5294.21483	0.02355
5292.28616	0.02356
5290.35748	0.02360
5288.42880	0.02367
5286.50013	0.02371
5284.57145	0.02373
5282.64278	0.02375
5280.71410	0.02379
5278.78543	0.02386
5276.85675	0.02393
5274.92807	0.02398
5272.99940	0.02400
5271.07072	0.02403
5269.14205	0.02408
5267.21337	0.02412
5265.28470	0.02413
5263.35602	0.02416
5261.42734	0.02423
5259.49867	0.02430
5257.56999	0.02434
5255.64132	0.02435
5253.71264	0.02439
5251.78397	0.02444
5249.85529	0.02448
5247.92661	0.02450
5245.99794	0.02453
5244.06926	0.02457
5242.14059	0.02463
5240.21191	0.02470
5238.28324	0.02476
5236.35456	0.02481
5234.42588	0.02485
5232.49721	0.02489
5230.56853	0.02492
5228.63986	0.02496
5226.71118	0.02501
5224.78251	0.02505
5222.85383	0.02510
5220.92515	0.02515
5218.99648	0.02520
5217.06780	0.02525
5215.13913	0.02530
5213.21045	0.02532
5211.28178	0.02532
5209.35310	0.02532
5207.42442	0.02536
5205.49575	0.02543
5203.56707	0.02551
5201.63840	0.02558
5199.70972	0.02564
5197.78105	0.02569
5195.85237	0.02572
5193.92369	0.02575
5191.99502	0.02578
5190.06634	0.02583
5188.13767	0.02588
5186.20899	0.02593
5184.28032	0.02599
5182.35164	0.02606
5180.42296	0.02610
5178.49429	0.02614
5176.56561	0.02616
5174.63694	0.02619
5172.70826	0.02623
5170.77959	0.02628
5168.85091	0.02633
5166.92223	0.02638
5164.99356	0.02642
5163.06488	0.02647
5161.13621	0.02653
5159.20753	0.02659
5157.27886	0.02664
5155.35018	0.02668
5153.42150	0.02671
5151.49283	0.02675
5149.56415	0.02678
5147.63548	0.02682
5145.70680	0.02686
5143.77813	0.02691
5141.84945	0.02696
5139.92077	0.02703
5137.99210	0.02710
5136.06342	0.02716
5134.13475	0.02720
5132.20607	0.02723
5130.27740	0.02726
5128.34872	0.02730
5126.42004	0.02735
5124.49137	0.02739
5122.56269	0.02742
5120.63402	0.02746
5118.70534	0.02749
5116.77667	0.02754
5114.84799	0.02758
5112.91931	0.02763
5110.99064	0.02769
5109.06196	0.02775
5107.13329	0.02779
5105.20461	0.02783
5103.27594	0.02787
5101.34726	0.02792
5099.41858	0.02797
5097.48991	0.02800
5095.56123	0.02802
5093.63256	0.02808
5091.70388	0.02815
5089.77521	0.02822
5087.84653	0.02828
5085.91785	0.02832
5083.98918	0.02834
5082.06050	0.02837
5080.13183	0.02842
5078.20315	0.02847
5076.27448	0.02853
5074.34580	0.02859
5072.41712	0.02863
5070.48845	0.02866
5068.55977	0.02871
5066.63110	0.02875
5064.70242	0.02880
5062.77375	0.02886
5060.84507	0.02890
5058.91639	0.02894
5056.98772	0.02900
5055.05904	0.02906
5053.13037	0.02910
5051.20169	0.02915
5049.27302	0.02921
5047.34434	0.02927
5045.41566	0.02931
5043.48699	0.02935
5041.55831	0.02940
5039.62964	0.02944
5037.70096	0.02948
5035.77229	0.02954
5033.84361	0.02960
5031.91493	0.02964
5029.98626	0.02968
5028.05758	0.02971
5026.12891	0.02974
5024.20023	0.02977
5022.27156	0.02981
5020.34288	0.02987
5018.41420	0.02993
5016.48553	0.03000
5014.55685	0.03004
5012.62818	0.03010
5010.69950	0.03016
5008.77083	0.03022
5006.84215	0.03026
5004.91347	0.03031
5002.98480	0.03036
5001.05612	0.03041
4999.12745	0.03046
4997.19877	0.03050
4995.27010	0.03054
4993.34142	0.03058
4991.41274	0.03063
4989.48407	0.03070
4987.55539	0.03077
4985.62672	0.03084
4983.69804	0.03089
4981.76937	0.03092
4979.84069	0.03094
4977.91201	0.03097
4975.98334	0.03104
4974.05466	0.03110
4972.12599	0.03114
4970.19731	0.03120
4968.26864	0.03127
4966.33996	0.03133
4964.41128	0.03136
4962.48261	0.03140
4960.55393	0.03146
4958.62526	0.03153
4956.69658	0.03158
4954.76791	0.03163
4952.83923	0.03168
4950.91055	0.03172
4948.98188	0.03177
4947.05320	0.03181
4945.12453	0.03184
4943.19585	0.03189
4941.26718	0.03196
4939.33850	0.03201
4937.40982	0.03205
4935.48115	0.03209
4933.55247	0.03215
4931.62380	0.03221
4929.69512	0.03225
4927.76645	0.03229
4925.83777	0.03235
4923.90909	0.03242
4921.98042	0.03248
4920.05174	0.03251
4918.12307	0.03255
4916.19439	0.03261
4914.26572	0.03267
4912.33704	0.03272
4910.40836	0.03277
4908.47969	0.03283
4906.55101	0.03289
4904.62234	0.03295
4902.69366	0.03300
4900.76499	0.03303
4898.83631	0.03306
4896.90763	0.03312
4894.97896	0.03319
4893.05028	0.03325
4891.12161	0.03332
4889.19293	0.03336
4887.26426	0.03339
4885.33558	0.03342
4883.40690	0.03347
4881.47823	0.03353
4879.54955	0.03359
4877.62088	0.03366
4875.69220	0.03372
4873.76353	0.03376
4871.83485	0.03381
4869.90617	0.03387
4867.97750	0.03393
4866.04882	0.03397
4864.12015	0.03401
4862.19147	0.03404
4860.26280	0.03410
4858.33412	0.03417
4856.40544	0.03423
4854.47677	0.03429
4852.54809	0.03436
4850.61942	0.03440
4848.69074	0.03444
4846.76207	0.03450
4844.83339	0.03456
4842.90471	0.03462
4840.97604	0.03469
4839.04736	0.03475
4837.11869	0.03481
4835.19001	0.03486
4833.26134	0.03492
4831.33266	0.03498
4829.40398	0.03503
4827.47531	0.03508
4825.54663	0.03511
4823.61796	0.03516
4821.68928	0.03522
4819.76061	0.03531
4817.83193	0.03540
4815.90325	0.03546
4813.97458	0.03548
4812.04590	0.03550
4810.11723	0.03555
4808.18855	0.03562
4806.25988	0.03567
4804.33120	0.03573
4802.40252	0.03579
4800.47385	0.03586
4798.54517	0.03593
4796.61650	0.03599
4794.68782	0.03604
4792.75915	0.03610
4790.83047	0.03615
4788.90179	0.03619
4786.97312	0.03624
4785.04444	0.03630
4783.11577	0.03636
4781.18709	0.03642
4779.25842	0.03648
4777.32974	0.03655
4775.40106	0.03661
4773.47239	0.03667
4771.54371	0.03672
4769.61504	0.03678
4767.68636	0.03685
4765.75769	0.03690
4763.82901	0.03694
4761.90033	0.03702
4759.97166	0.03709
4758.04298	0.03715
4756.11431	0.03720
4754.18563	0.03726
4752.25696	0.03731
4750.32828	0.03735
4748.39960	0.03741
4746.47093	0.03749
4744.54225	0.03755
4742.61358	0.03760
4740.68490	0.03764
4738.75623	0.03768
4736.82755	0.03773
4734.89887	0.03780
4732.97020	0.03787
4731.04152	0.03794
4729.11285	0.03801
4727.18417	0.03808
4725.25550	0.03814
4723.32682	0.03818
4721.39814	0.03824
4719.46947	0.03832
4717.54079	0.03838
4715.61212	0.03843
4713.68344	0.03848
4711.75477	0.03855
4709.82609	0.03861
4707.89741	0.03866
4705.96874	0.03872
4704.04006	0.03879
4702.11139	0.03886
4700.18271	0.03892
4698.25404	0.03897
4696.32536	0.03904
4694.39668	0.03910
4692.46801	0.03915
4690.53933	0.03921
4688.61066	0.03928
4686.68198	0.03935
4684.75331	0.03940
4682.82463	0.03946
4680.89595	0.03954
4678.96728	0.03961
4677.03860	0.03966
4675.10993	0.03971
4673.18125	0.03977
4671.25258	0.03986
4669.32390	0.03994
4667.39522	0.04001
4665.46655	0.04007
4663.53787	0.04012
4661.60920	0.04016
4659.68052	0.04021
4657.75185	0.04028
4655.82317	0.04036
4653.89449	0.04043
4651.96582	0.04050
4650.03714	0.04057
4648.10847	0.04062
4646.17979	0.04068
4644.25112	0.04075
4642.32244	0.04083
4640.39376	0.04091
4638.46509	0.04097
4636.53641	0.04103
4634.60774	0.04108
4632.67906	0.04113
4630.75039	0.04119
4628.82171	0.04126
4626.89303	0.04135
4624.96436	0.04142
4623.03568	0.04148
4621.10701	0.04155
4619.17833	0.04163
4617.24966	0.04169
4615.32098	0.04175
4613.39230	0.04180
4611.46363	0.04187
4609.53495	0.04194
4607.60628	0.04202
4605.67760	0.04211
4603.74893	0.04220
4601.82025	0.04228
4599.89157	0.04234
4597.96290	0.04240
4596.03422	0.04247
4594.10555	0.04252
4592.17687	0.04257
4590.24820	0.04264
4588.31952	0.04273
4586.39084	0.04281
4584.46217	0.04288
4582.53349	0.04293
4580.60482	0.04299
4578.67614	0.04304
4576.74747	0.04310
4574.81879	0.04318
4572.89011	0.04326
4570.96144	0.04333
4569.03276	0.04341
4567.10409	0.04349
4565.17541	0.04356
4563.24674	0.04363
4561.31806	0.04371
4559.38938	0.04379
4557.46071	0.04388
4555.53203	0.04395
4553.60336	0.04401
4551.67468	0.04406
4549.74601	0.04413
4547.81733	0.04419
4545.88865	0.04428
4543.95998	0.04438
4542.03130	0.04447
4540.10263	0.04453
4538.17395	0.04457
4536.24528	0.04462
4534.31660	0.04470
4532.38792	0.04479
4530.45925	0.04487
4528.53057	0.04494
4526.60190	0.04502
4524.67322	0.04510
4522.74455	0.04518
4520.81587	0.04527
4518.88719	0.04534
4516.95852	0.04539
4515.02984	0.04545
4513.10117	0.04553
4511.17249	0.04563
4509.24382	0.04572
4507.31514	0.04579
4505.38646	0.04586
4503.45779	0.04592
4501.52911	0.04599
4499.60044	0.04606
4497.67176	0.04613
4495.74309	0.04623
4493.81441	0.04632
4491.88573	0.04640
4489.95706	0.04647
4488.02838	0.04654
4486.09971	0.04662
4484.17103	0.04669
4482.24236	0.04677
4480.31368	0.04684
4478.38500	0.04691
4476.45633	0.04698
4474.52765	0.04707
4472.59898	0.04717
4470.67030	0.04725
4468.74163	0.04733
4466.81295	0.04739
4464.88427	0.04745
4462.95560	0.04754
4461.02692	0.04765
4459.09825	0.04775
4457.16957	0.04785
4455.24090	0.04791
4453.31222	0.04798
4451.38354	0.04806
4449.45487	0.04814
4447.52619	0.04821
4445.59752	0.04829
4443.66884	0.04838
4441.74017	0.04848
4439.81149	0.04858
4437.88281	0.04866
4435.95414	0.04872
4434.02546	0.04881
4432.09679	0.04891
4430.16811	0.04900
4428.23944	0.04909
4426.31076	0.04919
4424.38208	0.04927
4422.45341	0.04933
4420.52473	0.04939
4418.59606	0.04946
4416.66738	0.04954
4414.73871	0.04963
4412.81003	0.04972
4410.88135	0.04982
4408.95268	0.04993
4407.02400	0.05002
4405.09533	0.05009
4403.16665	0.05016
4401.23798	0.05026
4399.30930	0.05037
4397.38062	0.05047
4395.45195	0.05056
4393.52327	0.05063
4391.59460	0.05070
4389.66592	0.05076
4387.73725	0.05084
4385.80857	0.05093
4383.87989	0.05101
4381.95122	0.05110
4380.02254	0.05120
4378.09387	0.05131
4376.16519	0.05139
4374.23652	0.05148
4372.30784	0.05156
4370.37916	0.05165
4368.45049	0.05176
4366.52181	0.05186
4364.59314	0.05196
4362.66446	0.05202
4360.73579	0.05208
4358.80711	0.05216
4356.87843	0.05227
4354.94976	0.05240
4353.02108	0.05252
4351.09241	0.05261
4349.16373	0.05268
4347.23506	0.05276
4345.30638	0.05286
4343.37770	0.05296
4341.44903	0.05306
4339.52035	0.05316
4337.59168	0.05323
4335.66300	0.05330
4333.73433	0.05340
4331.80565	0.05351
4329.87697	0.05361
4327.94830	0.05371
4326.01962	0.05382
4324.09095	0.05391
4322.16227	0.05400
4320.23360	0.05409
4318.30492	0.05420
4316.37624	0.05429
4314.44757	0.05436
4312.51889	0.05444
4310.59022	0.05453
4308.66154	0.05466
4306.73287	0.05479
4304.80419	0.05491
4302.87551	0.05501
4300.94684	0.05508
4299.01816	0.05515
4297.08949	0.05524
4295.16081	0.05534
4293.23214	0.05546
4291.30346	0.05558
4289.37478	0.05570
4287.44611	0.05583
4285.51743	0.05596
4283.58876	0.05607
4281.66008	0.05615
4279.73141	0.05623
4277.80273	0.05630
4275.87405	0.05639
4273.94538	0.05650
4272.01670	0.05661
4270.08803	0.05669
4268.15935	0.05679
4266.23068	0.05691
4264.30200	0.05700
4262.37332	0.05708
4260.44465	0.05716
4258.51597	0.05727
4256.58730	0.05740
4254.65862	0.05751
4252.72995	0.05759
4250.80127	0.05770
4248.87259	0.05783
4246.94392	0.05796
4245.01524	0.05806
4243.08657	0.05814
4241.15789	0.05823
4239.22922	0.05836
4237.30054	0.05847
4235.37186	0.05855
4233.44319	0.05864
4231.51451	0.05875
4229.58584	0.05885
4227.65716	0.05895
4225.72849	0.05905
4223.79981	0.05917
4221.87113	0.05932
4219.94246	0.05947
4218.01378	0.05958
4216.08511	0.05968
4214.15643	0.05979
4212.22776	0.05989
4210.29908	0.06000
4208.37040	0.06010
4206.44173	0.06022
4204.51305	0.06035
4202.58438	0.06045
4200.65570	0.06055
4198.72703	0.06065
4196.79835	0.06075
4194.86968	0.06085
4192.94100	0.06097
4191.01232	0.06107
4189.08365	0.06116
4187.15497	0.06125
4185.22630	0.06138
4183.29762	0.06152
4181.36895	0.06165
4179.44027	0.06177
4177.51159	0.06188
4175.58292	0.06199
4173.65424	0.06210
4171.72557	0.06222
4169.79689	0.06236
4167.86822	0.06248
4165.93954	0.06257
4164.01086	0.06266
4162.08219	0.06279
4160.15351	0.06289
4158.22484	0.06300
4156.29616	0.06315
4154.36749	0.06331
4152.43881	0.06341
4150.51013	0.06351
4148.58146	0.06363
4146.65278	0.06375
4144.72411	0.06387
4142.79543	0.06400
4140.86676	0.06412
4138.93808	0.06423
4137.00940	0.06436
4135.08073	0.06449
4133.15205	0.06463
4131.22338	0.06474
4129.29470	0.06484
4127.36603	0.06494
4125.43735	0.06508
4123.50867	0.06522
4121.58000	0.06534
4119.65132	0.06545
4117.72265	0.06555
4115.79397	0.06567
4113.86530	0.06579
4111.93662	0.06591
4110.00794	0.06603
4108.07927	0.06615
4106.15059	0.06627
4104.22192	0.06638
4102.29324	0.06650
4100.36457	0.06664
4098.43589	0.06679
4096.50721	0.06692
4094.57854	0.06703
4092.64986	0.06715
4090.72119	0.06726
4088.79251	0.06739
4086.86384	0.06753
4084.93516	0.06767
4083.00648	0.06780
4081.07781	0.06794
4079.14913	0.06807
4077.22046	0.06821
4075.29178	0.06836
4073.36311	0.06849
4071.43443	0.06861
4069.50575	0.06872
4067.57708	0.06884
4065.64840	0.06896
4063.71973	0.06908
4061.79105	0.06921
4059.86238	0.06933
4057.93370	0.06946
4056.00502	0.06960
4054.07635	0.06973
4052.14767	0.06985
4050.21900	0.06997
4048.29032	0.07009
4046.36165	0.07021
4044.43297	0.07035
4042.50429	0.07051
4040.57562	0.07066
4038.64694	0.07082
4036.71827	0.07098
4034.78959	0.07111
4032.86092	0.07122
4030.93224	0.07133
4029.00356	0.07146
4027.07489	0.07158
4025.14621	0.07172
4023.21754	0.07185
4021.28886	0.07196
4019.36019	0.07209
4017.43151	0.07224
4015.50283	0.07240
4013.57416	0.07255
4011.64548	0.07269
4009.71681	0.07281
4007.78813	0.07294
4005.85946	0.07308
4003.93078	0.07322
4002.00210	0.07336
4000.07343	0.07349
3998.14475	0.07361
3996.21608	0.07373
3994.28740	0.07387
3992.35873	0.07402
3990.43005	0.07418
3988.50137	0.07435
3986.57270	0.07450
3984.64402	0.07465
3982.71535	0.07478
3980.78667	0.07490
3978.85800	0.07501
3976.92932	0.07512
3975.00064	0.07524
3973.07197	0.07538
3971.14329	0.07552
3969.21462	0.07568
3967.28594	0.07584
3965.35727	0.07600
3963.42859	0.07614
3961.49991	0.07629
3959.57124	0.07644
3957.64256	0.07658
3955.71389	0.07672
3953.78521	0.07685
3951.85654	0.07693
3949.92786	0.07702
3947.99918	0.07715
3946.07051	0.07729
3944.14183	0.07740
3942.21316	0.07756
3940.28448	0.07780
3938.35581	0.07799
3936.42713	0.07810
3934.49845	0.07815
3932.56978	0.07822
3930.64110	0.07841
3928.71243	0.07861
3926.78375	0.07873
3924.85508	0.07883
3922.92640	0.07898
3920.99772	0.07910
3919.06905	0.07914
3917.14037	0.07926
3915.21170	0.07954
3913.28302	0.07987
3911.35435	0.08011
3909.42567	0.08023
3907.49699	0.08018
3905.56832	0.08000
3903.63964	0.07990
3901.71097	0.08001
3899.78229	0.08035
3897.85362	0.08081
3895.92494	0.08114
3893.99626	0.08122
3892.06759	0.08124
3890.13891	0.08140
3888.21024	0.08151
3886.28156	0.08153
3884.35289	0.08167
3882.42421	0.08185
3880.49553	0.08203
3878.56686	0.08233
3876.63818	0.08256
3874.70951	0.08260
3872.78083	0.08259
3870.85216	0.08264
3868.92348	0.08284
3866.99480	0.08312
3865.06613	0.08328
3863.13745	0.08345
3861.20878	0.08375
3859.28010	0.08399
3857.35143	0.08384
3855.42275	0.08339
3853.49407	0.08332
3851.56540	0.08394
3849.63672	0.08467
3847.70805	0.08505
3845.77937	0.08512
3843.85070	0.08507
3841.92202	0.08505
3839.99334	0.08507
3838.06467	0.08522
3836.13599	0.08552
3834.20732	0.08581
3832.27864	0.08606
3830.34997	0.08630
3828.42129	0.08649
3826.49261	0.08660
3824.56394	0.08664
3822.63526	0.08660
3820.70659	0.08669
3818.77791	0.08697
3816.84924	0.08723
3814.92056	0.08755
3812.99188	0.08796
3811.06321	0.08819
3809.13453	0.08818
3807.20586	0.08815
3805.27718	0.08826
3803.34851	0.08833
3801.41983	0.08843
3799.49115	0.08870
3797.56248	0.08898
3795.63380	0.08926
3793.70513	0.08959
3791.77645	0.08984
3789.84778	0.08999
3787.91910	0.09011
3785.99042	0.09023
3784.06175	0.09037
3782.13307	0.09050
3780.20440	0.09059
3778.27572	0.09080
3776.34705	0.09110
3774.41837	0.09130
3772.48969	0.09132
3770.56102	0.09132
3768.63234	0.09144
3766.70367	0.09167
3764.77499	0.09192
3762.84632	0.09211
3760.91764	0.09216
3758.98896	0.09223
3757.06029	0.09242
3755.13161	0.09250
3753.20294	0.09233
3751.27426	0.09216
3749.34559	0.09231
3747.41691	0.09243
3745.48823	0.09234
3743.55956	0.09265
3741.63088	0.09336
3739.70221	0.09369
3737.77353	0.09349
3735.84486	0.09337
3733.91618	0.09369
3731.98750	0.09427
3730.05883	0.09475
3728.13015	0.09495
3726.20148	0.09504
3724.27280	0.09521
3722.34413	0.09546
3720.41545	0.09572
3718.48677	0.09597
3716.55810	0.09614
3714.62942	0.09612
3712.70075	0.09602
3710.77207	0.09615
3708.84340	0.09655
3706.91472	0.09697
3704.98604	0.09717
3703.05737	0.09722
3701.12869	0.09739
3699.20002	0.09772
3697.27134	0.09800
3695.34267	0.09813
3693.41399	0.09808
3691.48531	0.09794
3689.55664	0.09797
3687.62796	0.09833
3685.69929	0.09879
3683.77061	0.09910
3681.84194	0.09922
3679.91326	0.09918
3677.98458	0.09900
3676.05591	0.09887
3674.12723	0.09908
3672.19856	0.09938
3670.26988	0.09957
3668.34121	0.09995
3666.41253	0.10048
3664.48385	0.10085
3662.55518	0.10104
3660.62650	0.10112
3658.69783	0.10110
3656.76915	0.10111
3654.84048	0.10121
3652.91180	0.10112
3650.98312	0.10073
3649.05445	0.10049
3647.12577	0.10076
3645.19710	0.10139
3643.26842	0.10198
3641.33975	0.10233
3639.41107	0.10255
3637.48239	0.10271
3635.55372	0.10281
3633.62504	0.10280
3631.69637	0.10261
3629.76769	0.10243
3627.83902	0.10271
3625.91034	0.10329
3623.98166	0.10362
3622.05299	0.10357
3620.12431	0.10344
3618.19564	0.10354
3616.26696	0.10377
3614.33829	0.10386
3612.40961	0.10385
3610.48093	0.10388
3608.55226	0.10407
3606.62358	0.10445
3604.69491	0.10481
3602.76623	0.10498
3600.83756	0.10505
3598.90888	0.10515
3596.98020	0.10522
3595.05153	0.10531
3593.12285	0.10549
3591.19418	0.10553
3589.26550	0.10537
3587.33683	0.10540
3585.40815	0.10580
3583.47947	0.10623
3581.55080	0.10648
3579.62212	0.10662
3577.69345	0.10676
3575.76477	0.10690
3573.83610	0.10705
3571.90742	0.10711
3569.97874	0.10694
3568.05007	0.10676
3566.12139	0.10692
3564.19272	0.10736
3562.26404	0.10775
3560.33537	0.10800
3558.40669	0.10818
3556.47801	0.10831
3554.54934	0.10836
3552.62066	0.10843
3550.69199	0.10854
3548.76331	0.10862
3546.83464	0.10863
3544.90596	0.10874
3542.97728	0.10896
3541.04861	0.10918
3539.11993	0.10932
3537.19126	0.10943
3535.26258	0.10956
3533.33391	0.10968
3531.40523	0.10970
3529.47655	0.10969
3527.54788	0.10971
3525.61920	0.10980
3523.69053	0.10993
3521.76185	0.11005
3519.83318	0.11016
3517.90450	0.11024
3515.97582	0.11034
3514.04715	0.11042
3512.11847	0.11045
3510.18980	0.11050
3508.26112	0.11060
3506.33245	0.11067
3504.40377	0.11066
3502.47509	0.11069
3500.54642	0.11080
3498.61774	0.11090
3496.68907	0.11096
3494.76039	0.11101
3492.83172	0.11104
3490.90304	0.11107
3488.97436	0.11109
3487.04569	0.11113
3485.11701	0.11121
3483.18834	0.11129
3481.25966	0.11138
3479.33099	0.11150
3477.40231	0.11164
3475.47363	0.11178
3473.54496	0.11189
3471.61628	0.11201
3469.68761	0.11216
3467.75893	0.11234
3465.83026	0.11253
3463.90158	0.11272
3461.97290	0.11292
3460.04423	0.11311
3458.11555	0.11330
3456.18688	0.11350
3454.25820	0.11371
3452.32953	0.11390
3450.40085	0.11405
3448.47217	0.11416
3446.54350	0.11430
3444.61482	0.11450
3442.68615	0.11474
3440.75747	0.11498
3438.82880	0.11522
3436.90012	0.11549
3434.97144	0.11582
3433.04277	0.11620
3431.11409	0.11658
3429.18542	0.11695
3427.25674	0.11730
3425.32807	0.11764
3423.39939	0.11795
3421.47071	0.11826
3419.54204	0.11862
3417.61336	0.11898
3415.68469	0.11929
3413.75601	0.11958
3411.82734	0.11985
3409.89866	0.12011
3407.96998	0.12036
3406.04131	0.12059
3404.11263	0.12082
3402.18396	0.12106
3400.25528	0.12130
3398.32661	0.12154
3396.39793	0.12178
3394.46925	0.12204
3392.54058	0.12231
3390.61190	0.12258
3388.68323	0.12285
3386.75455	0.12309
3384.82588	0.12332
3382.89720	0.12359
3380.96852	0.12388
3379.03985	0.12415
3377.11117	0.12438
3375.18250	0.12458
3373.25382	0.12478
3371.32515	0.12500
3369.39647	0.12525
3367.46779	0.12549
3365.53912	0.12572
3363.61044	0.12591
3361.68177	0.12611
3359.75309	0.12635
3357.82442	0.12660
3355.89574	0.12685
3353.96706	0.12706
3352.03839	0.12726
3350.10971	0.12747
3348.18104	0.12771
3346.25236	0.12796
3344.32369	0.12822
3342.39501	0.12846
3340.46633	0.12869
3338.53766	0.12890
3336.60898	0.12909
3334.68031	0.12930
3332.75163	0.12954
3330.82296	0.12977
3328.89428	0.13000
3326.96560	0.13025
3325.03693	0.13048
3323.10825	0.13071
3321.17958	0.13097
3319.25090	0.13123
3317.32223	0.13148
3315.39355	0.13170
3313.46487	0.13191
3311.53620	0.13213
3309.60752	0.13234
3307.67885	0.13255
3305.75017	0.13278
3303.82150	0.13302
3301.89282	0.13327
3299.96414	0.13352
3298.03547	0.13379
3296.10679	0.13405
3294.17812	0.13430
3292.24944	0.13454
3290.32077	0.13478
3288.39209	0.13502
3286.46341	0.13525
3284.53474	0.13548
3282.60606	0.13573
3280.67739	0.13599
3278.74871	0.13622
3276.82004	0.13646
3274.89136	0.13672
3272.96268	0.13699
3271.03401	0.13726
3269.10533	0.13752
3267.17666	0.13776
3265.24798	0.13801
3263.31931	0.13828
3261.39063	0.13854
3259.46195	0.13878
3257.53328	0.13902
3255.60460	0.13925
3253.67593	0.13949
3251.74725	0.13976
3249.81858	0.14003
3247.88990	0.14029
3245.96122	0.14055
3244.03255	0.14081
3242.10387	0.14106
3240.17520	0.14127
3238.24652	0.14149
3236.31785	0.14173
3234.38917	0.14199
3232.46049	0.14226
3230.53182	0.14253
3228.60314	0.14277
3226.67447	0.14300
3224.74579	0.14322
3222.81712	0.14346
3220.88844	0.14372
3218.95976	0.14401
3217.03109	0.14427
3215.10241	0.14449
3213.17374	0.14470
3211.24506	0.14494
3209.31639	0.14519
3207.38771	0.14546
3205.45903	0.14572
3203.53036	0.14599
3201.60168	0.14626
3199.67301	0.14652
3197.74433	0.14679
3195.81566	0.14707
3193.88698	0.14737
3191.95830	0.14766
3190.02963	0.14792
3188.10095	0.14815
3186.17228	0.14838
3184.24360	0.14865
3182.31493	0.14895
3180.38625	0.14924
3178.45757	0.14950
3176.52890	0.14975
3174.60022	0.15000
3172.67155	0.15026
3170.74287	0.15052
3168.81420	0.15079
3166.88552	0.15108
3164.95684	0.15135
3163.02817	0.15160
3161.09949	0.15186
3159.17082	0.15210
3157.24214	0.15233
3155.31347	0.15256
3153.38479	0.15281
3151.45611	0.15307
3149.52744	0.15335
3147.59876	0.15364
3145.67009	0.15392
3143.74141	0.15418
3141.81274	0.15442
3139.88406	0.15468
3137.95538	0.15496
3136.02671	0.15524
3134.09803	0.15549
3132.16936	0.15572
3130.24068	0.15596
3128.31201	0.15623
3126.38333	0.15649
3124.45465	0.15673
3122.52598	0.15696
3120.59730	0.15722
3118.66863	0.15748
3116.73995	0.15774
3114.81128	0.15802
3112.88260	0.15829
3110.95392	0.15856
3109.02525	0.15882
3107.09657	0.15907
3105.16790	0.15932
3103.23922	0.15955
3101.31055	0.15979
3099.38187	0.16007
3097.45319	0.16034
3095.52452	0.16058
3093.59584	0.16086
3091.66717	0.16115
3089.73849	0.16141
3087.80982	0.16165
3085.88114	0.16191
3083.95246	0.16215
3082.02379	0.16242
3080.09511	0.16272
3078.16644	0.16299
3076.23776	0.16325
3074.30909	0.16353
3072.38041	0.16379
3070.45173	0.16401
3068.52306	0.16423
3066.59438	0.16446
3064.66571	0.16471
3062.73703	0.16497
3060.80836	0.16525
3058.87968	0.16551
3056.95100	0.16574
3055.02233	0.16599
3053.09365	0.16627
3051.16498	0.16653
3049.23630	0.16678
3047.30763	0.16702
3045.37895	0.16725
3043.45027	0.16749
3041.52160	0.16776
3039.59292	0.16806
3037.66425	0.16834
3035.73557	0.16857
3033.80690	0.16878
3031.87822	0.16902
3029.94954	0.16928
3028.02087	0.16953
3026.09219	0.16980
3024.16352	0.17010
3022.23484	0.17039
3020.30617	0.17063
3018.37749	0.17083
3016.44881	0.17103
3014.52014	0.17128
3012.59146	0.17156
3010.66279	0.17186
3008.73411	0.17213
3006.80544	0.17239
3004.87676	0.17267
3002.94808	0.17295
3001.01941	0.17319
2999.09073	0.17343
2997.16206	0.17368
2995.23338	0.17392
2993.30471	0.17413
2991.37603	0.17434
2989.44735	0.17455
2987.51868	0.17476
2985.59000	0.17496
2983.66133	0.17514
2981.73265	0.17528
2979.80398	0.17537
2977.87530	0.17546
2975.94662	0.17554
2974.01795	0.17558
2972.08927	0.17558
2970.16060	0.17555
2968.23192	0.17551
2966.30325	0.17554
2964.37457	0.17563
2962.44589	0.17578
2960.51722	0.17597
2958.58854	0.17623
2956.65987	0.17658
2954.73119	0.17698
2952.80252	0.17736
2950.87384	0.17767
2948.94516	0.17794
2947.01649	0.17818
2945.08781	0.17837
2943.15914	0.17851
2941.23046	0.17858
2939.30179	0.17859
2937.37311	0.17858
2935.44443	0.17856
2933.51576	0.17852
2931.58708	0.17846
2929.65841	0.17843
2927.72973	0.17841
2925.80106	0.17841
2923.87238	0.17841
2921.94370	0.17841
2920.01503	0.17849
2918.08635	0.17878
2916.15768	0.17935
2914.22900	0.18018
2912.30033	0.18108
2910.37165	0.18188
2908.44297	0.18254
2906.51430	0.18307
2904.58562	0.18352
2902.65695	0.18392
2900.72827	0.18429
2898.79960	0.18467
2896.87092	0.18509
2894.94224	0.18551
2893.01357	0.18587
2891.08489	0.18620
2889.15622	0.18653
2887.22754	0.18686
2885.29887	0.18718
2883.37019	0.18749
2881.44151	0.18777
2879.51284	0.18804
2877.58416	0.18829
2875.65549	0.18852
2873.72681	0.18875
2871.79814	0.18899
2869.86946	0.18925
2867.94078	0.18947
2866.01211	0.18965
2864.08343	0.18978
2862.15476	0.18987
2860.22608	0.18995
2858.29741	0.19001
2856.36873	0.19004
2854.44005	0.19003
2852.51138	0.19004
2850.58270	0.19020
2848.65403	0.19069
2846.72535	0.19150
2844.79668	0.19239
2842.86800	0.19318
2840.93932	0.19382
2839.01065	0.19433
2837.08197	0.19474
2835.15330	0.19511
2833.22462	0.19547
2831.29595	0.19582
2829.36727	0.19613
2827.43859	0.19644
2825.50992	0.19675
2823.58124	0.19705
2821.65257	0.19732
2819.72389	0.19762
2817.79522	0.19797
2815.86654	0.19828
2813.93786	0.19855
2812.00919	0.19884
2810.08051	0.19914
2808.15184	0.19945
2806.22316	0.19975
2804.29449	0.20003
2802.36581	0.20029
2800.43713	0.20055
2798.50846	0.20083
2796.57978	0.20115
2794.65111	0.20148
2792.72243	0.20181
2790.79376	0.20211
2788.86508	0.20236
2786.93640	0.20260
2785.00773	0.20285
2783.07905	0.20310
2781.15038	0.20338
2779.22170	0.20365
2777.29303	0.20393
2775.36435	0.20422
2773.43567	0.20451
2771.50700	0.20482
2769.57832	0.20514
2767.64965	0.20546
2765.72097	0.20574
2763.79230	0.20599
2761.86362	0.20625
2759.93494	0.20652
2758.00627	0.20680
2756.07759	0.20708
2754.14892	0.20737
2752.22024	0.20766
2750.29157	0.20793
2748.36289	0.20817
2746.43421	0.20841
2744.50554	0.20868
2742.57686	0.20897
2740.64819	0.20923
2738.71951	0.20946
2736.79084	0.20968
2734.86216	0.20991
2732.93348	0.21017
2731.00481	0.21049
2729.07613	0.21080
2727.14746	0.21106
2725.21878	0.21132
2723.29011	0.21159
2721.36143	0.21186
2719.43275	0.21213
2717.50408	0.21240
2715.57540	0.21268
2713.64673	0.21296
2711.71805	0.21323
2709.78938	0.21349
2707.86070	0.21375
2705.93202	0.21403
2704.00335	0.21429
2702.07467	0.21452
2700.14600	0.21476
2698.21732	0.21503
2696.28865	0.21532
2694.35997	0.21560
2692.43129	0.21585
2690.50262	0.21610
2688.57394	0.21635
2686.64527	0.21663
2684.71659	0.21691
2682.78792	0.21719
2680.85924	0.21749
2678.93056	0.21776
2677.00189	0.21800
2675.07321	0.21824
2673.14454	0.21852
2671.21586	0.21879
2669.28719	0.21902
2667.35851	0.21926
2665.42983	0.21953
2663.50116	0.21982
2661.57248	0.22012
2659.64381	0.22041
2657.71513	0.22069
2655.78646	0.22096
2653.85778	0.22122
2651.92910	0.22149
2650.00043	0.22178
2648.07175	0.22208
2646.14308	0.22235
2644.21440	0.22263
2642.28573	0.22298
2640.35705	0.22332
2638.42837	0.22359
2636.49970	0.22384
2634.57102	0.22411
2632.64235	0.22441
2630.71367	0.22470
2628.78500	0.22502
2626.85632	0.22535
2624.92764	0.22566
2622.99897	0.22591
2621.07029	0.22615
2619.14162	0.22641
2617.21294	0.22668
2615.28427	0.22698
2613.35559	0.22729
2611.42691	0.22759
2609.49824	0.22788
2607.56956	0.22817
2605.64089	0.22847
2603.71221	0.22878
2601.78354	0.22907
2599.85486	0.22932
2597.92618	0.22960
2595.99751	0.22990
2594.06883	0.23020
2592.14016	0.23052
2590.21148	0.23083
2588.28281	0.23111
2586.35413	0.23134
2584.42545	0.23157
2582.49678	0.23184
2580.56810	0.23214
2578.63943	0.23245
2576.71075	0.23273
2574.78208	0.23300
2572.85340	0.23328
2570.92472	0.23356
2568.99605	0.23381
2567.06737	0.23405
2565.13870	0.23431
2563.21002	0.23460
2561.28135	0.23489
2559.35267	0.23517
2557.42399	0.23548
2555.49532	0.23578
2553.56664	0.23601
2551.63797	0.23622
2549.70929	0.23650
2547.78062	0.23683
2545.85194	0.23715
2543.92326	0.23743
2541.99459	0.23770
2540.06591	0.23799
2538.13724	0.23829
2536.20856	0.23857
2534.27989	0.23881
2532.35121	0.23904
2530.42253	0.23933
2528.49386	0.23965
2526.56518	0.23994
2524.63651	0.24021
2522.70783	0.24052
2520.77916	0.24084
2518.85048	0.24114
2516.92181	0.24141
2514.99313	0.24170
2513.06445	0.24202
2511.13578	0.24233
2509.20710	0.24262
2507.27843	0.24292
2505.34975	0.24323
2503.42108	0.24353
2501.49240	0.24384
2499.56372	0.24415
2497.63505	0.24446
2495.70637	0.24477
2493.77770	0.24508
2491.84902	0.24537
2489.92035	0.24566
2487.99167	0.24599
2486.06299	0.24635
2484.13432	0.24669
2482.20564	0.24699
2480.27697	0.24728
2478.34829	0.24754
2476.41962	0.24779
2474.49094	0.24804
2472.56226	0.24832
2470.63359	0.24864
2468.70491	0.24898
2466.77624	0.24933
2464.84756	0.24965
2462.91889	0.24992
2460.99021	0.25014
2459.06153	0.25040
2457.13286	0.25073
2455.20418	0.25109
2453.27551	0.25141
2451.34683	0.25171
2449.41816	0.25202
2447.48948	0.25232
2445.56080	0.25261
2443.63213	0.25291
2441.70345	0.25322
2439.77478	0.25354
2437.84610	0.25386
2435.91743	0.25415
2433.98875	0.25445
2432.06007	0.25475
2430.13140	0.25506
2428.20272	0.25536
2426.27405	0.25564
2424.34537	0.25591
2422.41670	0.25615
2420.48802	0.25642
2418.55934	0.25673
2416.63067	0.25706
2414.70199	0.25739
2412.77332	0.25767
2410.84464	0.25793
2408.91597	0.25820
2406.98729	0.25848
2405.05861	0.25879
2403.12994	0.25913
2401.20126	0.25945
2399.27259	0.25971
2397.34391	0.25996
2395.41524	0.26024
2393.48656	0.26053
2391.55788	0.26084
2389.62921	0.26116
2387.70053	0.26145
2385.77186	0.26173
2383.84318	0.26199
2381.91451	0.26220
2379.98583	0.26234
2378.05715	0.26249
2376.12848	0.26262
2374.19980	0.26268
2372.27113	0.26269
2370.34245	0.26273
2368.41378	0.26286
2366.48510	0.26300
2364.55642	0.26317
2362.62775	0.26338
2360.69907	0.26366
2358.77040	0.26402
2356.84172	0.26446
2354.91305	0.26498
2352.98437	0.26560
2351.05569	0.26618
2349.12702	0.26660
2347.19834	0.26680
2345.26967	0.26686
2343.34099	0.26694
2341.41232	0.26711
2339.48364	0.26735
2337.55496	0.26763
2335.62629	0.26791
2333.69761	0.26819
2331.76894	0.26849
2329.84026	0.26883
2327.91159	0.26923
2325.98291	0.26964
2324.05423	0.27004
2322.12556	0.27042
2320.19688	0.27081
2318.26821	0.27121
2316.33953	0.27162
2314.41086	0.27206
2312.48218	0.27248
2310.55350	0.27283
2308.62483	0.27315
2306.69615	0.27348
2304.76748	0.27383
2302.83880	0.27416
2300.91013	0.27449
2298.98145	0.27481
2297.05277	0.27515
2295.12410	0.27547
2293.19542	0.27577
2291.26675	0.27606
2289.33807	0.27640
2287.40940	0.27671
2285.48072	0.27698
2283.55204	0.27723
2281.62337	0.27751
2279.69469	0.27783
2277.76602	0.27815
2275.83734	0.27849
2273.90867	0.27879
2271.97999	0.27906
2270.05131	0.27933
2268.12264	0.27961
2266.19396	0.27988
2264.26529	0.28017
2262.33661	0.28048
2260.40794	0.28081
2258.47926	0.28113
2256.55058	0.28142
2254.62191	0.28173
2252.69323	0.28204
2250.76456	0.28233
2248.83588	0.28260
2246.90721	0.28288
2244.97853	0.28319
2243.04985	0.28350
2241.12118	0.28379
2239.19250	0.28408
2237.26383	0.28438
2235.33515	0.28467
2233.40648	0.28497
2231.47780	0.28529
2229.54912	0.28560
2227.62045	0.28593
2225.69177	0.28623
2223.76310	0.28649
2221.83442	0.28677
2219.90575	0.28706
2217.97707	0.28733
2216.04839	0.28760
2214.11972	0.28787
2212.19104	0.28814
2210.26237	0.28844
2208.33369	0.28876
2206.40502	0.28904
2204.47634	0.28930
2202.54766	0.28959
2200.61899	0.28990
2198.69031	0.29020
2196.76164	0.29047
2194.83296	0.29075
2192.90429	0.29104
2190.97561	0.29135
2189.04693	0.29165
2187.11826	0.29193
2185.18958	0.29218
2183.26091	0.29244
2181.33223	0.29278
2179.40356	0.29315
2177.47488	0.29343
2175.54620	0.29362
2173.61753	0.29386
2171.68885	0.29423
2169.76018	0.29458
2167.83150	0.29486
2165.90283	0.29511
2163.97415	0.29544
2162.04547	0.29580
2160.11680	0.29614
2158.18812	0.29646
2156.25945	0.29672
2154.33077	0.29696
2152.40210	0.29723
2150.47342	0.29754
2148.54474	0.29787
2146.61607	0.29819
2144.68739	0.29850
2142.75872	0.29882
2140.83004	0.29911
2138.90137	0.29937
2136.97269	0.29964
2135.04401	0.29997
2133.11534	0.30030
2131.18666	0.30060
2129.25799	0.30091
2127.32931	0.30124
2125.40064	0.30155
2123.47196	0.30184
2121.54328	0.30213
2119.61461	0.30241
2117.68593	0.30266
2115.75726	0.30295
2113.82858	0.30330
2111.89991	0.30364
2109.97123	0.30393
2108.04255	0.30423
2106.11388	0.30455
2104.18520	0.30485
2102.25653	0.30512
2100.32785	0.30541
2098.39918	0.30573
2096.47050	0.30604
2094.54182	0.30631
2092.61315	0.30659
2090.68447	0.30689
2088.75580	0.30718
2086.82712	0.30746
2084.89845	0.30777
2082.96977	0.30809
2081.04109	0.30841
2079.11242	0.30872
2077.18374	0.30905
2075.25507	0.30936
2073.32639	0.30964
2071.39772	0.30992
2069.46904	0.31019
2067.54036	0.31045
2065.61169	0.31072
2063.68301	0.31102
2061.75434	0.31137
2059.82566	0.31171
2057.89699	0.31201
2055.96831	0.31229
2054.03963	0.31261
2052.11096	0.31291
2050.18228	0.31319
2048.25361	0.31349
2046.32493	0.31378
2044.39626	0.31405
2042.46758	0.31433
2040.53890	0.31467
2038.61023	0.31504
2036.68155	0.31540
2034.75288	0.31572
2032.82420	0.31601
2030.89553	0.31627
2028.96685	0.31654
2027.03817	0.31687
2025.10950	0.31722
2023.18082	0.31755
2021.25215	0.31778
2019.32347	0.31797
2017.39480	0.31821
2015.46612	0.31858
2013.53744	0.31896
2011.60877	0.31927
2009.68009	0.31954
2007.75142	0.31984
2005.82274	0.32017
2003.89407	0.32052
2001.96539	0.32085
2000.03671	0.32115
1998.10804	0.32141
1996.17936	0.32163
1994.25069	0.32175
1992.32201	0.32190
1990.39334	0.32225
1988.46466	0.32266
1986.53598	0.32301
1984.60731	0.32330
1982.67863	0.32359
1980.74996	0.32389
1978.82128	0.32417
1976.89261	0.32442
1974.96393	0.32466
1973.03525	0.32491
1971.10658	0.32510
1969.17790	0.32521
1967.24923	0.32538
1965.32055	0.32577
1963.39188	0.32622
1961.46320	0.32655
1959.53452	0.32681
1957.60585	0.32707
1955.67717	0.32733
1953.74850	0.32763
1951.81982	0.32797
1949.89115	0.32828
1947.96247	0.32853
1946.03379	0.32869
1944.10512	0.32878
1942.17644	0.32901
1940.24777	0.32950
1938.31909	0.32998
1936.39042	0.33031
1934.46174	0.33062
1932.53306	0.33093
1930.60439	0.33120
1928.67571	0.33149
1926.74704	0.33177
1924.81836	0.33192
1922.88969	0.33205
1920.96101	0.33222
1919.03233	0.33235
1917.10366	0.33274
1915.17498	0.33339
1913.24631	0.33385
1911.31763	0.33404
1909.38896	0.33424
1907.46028	0.33458
1905.53160	0.33497
1903.60293	0.33530
1901.67425	0.33559
1899.74558	0.33584
1897.81690	0.33602
1895.88823	0.33620
1893.95955	0.33647
1892.03087	0.33669
1890.10220	0.33684
1888.17352	0.33720
1886.24485	0.33769
1884.31617	0.33805
1882.38750	0.33833
1880.45882	0.33858
1878.53014	0.33886
1876.60147	0.33921
1874.67279	0.33955
1872.74412	0.33967
1870.81544	0.33947
1868.88677	0.33940
1866.95809	0.33994
1865.02941	0.34076
1863.10074	0.34134
1861.17206	0.34167
1859.24339	0.34198
1857.31471	0.34230
1855.38604	0.34261
1853.45736	0.34288
1851.52868	0.34312
1849.60001	0.34328
1847.67133	0.34320
1845.74266	0.34291
1843.81398	0.34303
1841.88531	0.34387
1839.95663	0.34473
1838.02795	0.34517
1836.09928	0.34549
1834.17060	0.34575
1832.24193	0.34572
1830.31325	0.34562
1828.38458	0.34586
1826.45590	0.34620
1824.52722	0.34660
1822.59855	0.34724
1820.66987	0.34779
1818.74120	0.34808
1816.81252	0.34835
1814.88385	0.34864
1812.95517	0.34874
1811.02649	0.34881
1809.09782	0.34913
1807.16914	0.34957
1805.24047	0.34976
1803.31179	0.34958
1801.38312	0.34945
1799.45444	0.34981
1797.52576	0.35036
1795.59709	0.35050
1793.66841	0.35026
1791.73974	0.35038
1789.81106	0.35114
1787.88239	0.35175
1785.95371	0.35186
1784.02503	0.35194
1782.09636	0.35214
1780.16768	0.35241
1778.23901	0.35275
1776.31033	0.35284
1774.38166	0.35253
1772.45298	0.35231
1770.52430	0.35252
1768.59563	0.35307
1766.66695	0.35382
1764.73828	0.35431
1762.80960	0.35428
1760.88093	0.35433
1758.95225	0.35456
1757.02357	0.35472
1755.09490	0.35481
1753.16622	0.35437
1751.23755	0.35365
1749.30887	0.35357
1747.38020	0.35405
1745.45152	0.35445
1743.52284	0.35461
1741.59417	0.35466
1739.66549	0.35476
1737.73682	0.35471
1735.80814	0.35409
1733.87947	0.35376
1731.95079	0.35461
1730.02211	0.35584
1728.09344	0.35677
1726.16476	0.35733
1724.23609	0.35758
1722.30741	0.35760
1720.37874	0.35706
1718.45006	0.35635
1716.52138	0.35647
1714.59271	0.35742
1712.66403	0.35842
1710.73536	0.35898
1708.80668	0.35894
1706.87801	0.35859
1704.94933	0.35835
1703.02065	0.35775
1701.09198	0.35684
1699.16330	0.35682
1697.23463	0.35752
1695.30595	0.35832
1693.37728	0.35928
1691.44860	0.35976
1689.51992	0.35958
1687.59125	0.35907
1685.66257	0.35822
1683.73390	0.35790
1681.80522	0.35864
1679.87655	0.35951
1677.94787	0.35965
1676.01919	0.35939
1674.09052	0.35938
1672.16184	0.35933
1670.23317	0.35911
1668.30449	0.35959
1666.37582	0.36050
1664.44714	0.36074
1662.51846	0.36069
1660.58979	0.36106
1658.66111	0.36133
1656.73244	0.36051
1654.80376	0.35876
1652.87509	0.35804
1650.94641	0.35906
1649.01773	0.35988
1647.08906	0.35998
1645.16038	0.36064
1643.23171	0.36163
1641.30303	0.36204
1639.37436	0.36169
1637.44568	0.36090
1635.51700	0.36071
1633.58833	0.36162
1631.65965	0.36253
1629.73098	0.36256
1627.80230	0.36221
1625.87363	0.36178
1623.94495	0.36111
1622.01627	0.36066
1620.08760	0.36063
1618.15892	0.36089
1616.23025	0.36186
1614.30157	0.36346
1612.37290	0.36467
1610.44422	0.36522
1608.51554	0.36565
1606.58687	0.36619
1604.65819	0.36665
1602.72952	0.36702
1600.80084	0.36746
1598.87217	0.36788
1596.94349	0.36813
1595.01481	0.36834
1593.08614	0.36866
1591.15746	0.36906
1589.22879	0.36948
1587.30011	0.36988
1585.37144	0.37022
1583.44276	0.37049
1581.51408	0.37066
1579.58541	0.37051
1577.65673	0.37010
1575.72806	0.37021
1573.79938	0.37094
1571.87071	0.37119
1569.94203	0.37100
1568.01335	0.37129
1566.08468	0.37190
1564.15600	0.37221
1562.22733	0.37159
1560.29865	0.37016
1558.36998	0.36972
1556.44130	0.37102
1554.51262	0.37258
1552.58395	0.37339
1550.65527	0.37370
1548.72660	0.37391
1546.79792	0.37387
1544.86925	0.37327
1542.94057	0.37247
1541.01189	0.37210
1539.08322	0.37281
1537.15454	0.37410
1535.22587	0.37466
1533.29719	0.37475
1531.36852	0.37526
1529.43984	0.37565
1527.51116	0.37551
1525.58249	0.37524
1523.65381	0.37470
1521.72514	0.37410
1519.79646	0.37423
1517.86779	0.37486
1515.93911	0.37554
1514.01043	0.37616
1512.08176	0.37622
1510.15308	0.37550
1508.22441	0.37472
1506.29573	0.37523
1504.36706	0.37700
1502.43838	0.37824
1500.50970	0.37814
1498.58103	0.37770
1496.65235	0.37786
1494.72368	0.37849
1492.79500	0.37860
1490.86633	0.37804
1488.93765	0.37786
1487.00897	0.37851
1485.08030	0.37934
1483.15162	0.37971
1481.22295	0.37964
1479.29427	0.37928
1477.36560	0.37860
1475.43692	0.37778
1473.50824	0.37723
1471.57957	0.37738
1469.65089	0.37796
1467.72222	0.37807
1465.79354	0.37775
1463.86487	0.37784
1461.93619	0.37799
1460.00751	0.37717
1458.07884	0.37590
1456.15016	0.37598
1454.22149	0.37741
1452.29281	0.37857
1450.36414	0.37888
1448.43546	0.37889
1446.50678	0.37918
1444.57811	0.37968
1442.64943	0.38004
1440.72076	0.37994
1438.79208	0.37912
1436.86341	0.37838
1434.93473	0.37877
1433.00605	0.37956
1431.07738	0.37982
1429.14870	0.37992
1427.22003	0.38001
1425.29135	0.37981
1423.36268	0.37943
1421.43400	0.37872
1419.50532	0.37794
1417.57665	0.37808
1415.64797	0.37894
1413.71930	0.37945
1411.79062	0.37949
1409.86195	0.37948
1407.93327	0.37938
1406.00459	0.37916
1404.07592	0.37910
1402.14724	0.37909
1400.21857	0.37876
1398.28989	0.37830
1396.36122	0.37799
1394.43254	0.37805
1392.50386	0.37848
1390.57519	0.37848
1388.64651	0.37772
1386.71784	0.37705
1384.78916	0.37698
1382.86049	0.37721
1380.93181	0.37742
1379.00313	0.37747
1377.07446	0.37726
1375.14578	0.37697
1373.21711	0.37697
1371.28843	0.37718
1369.35976	0.37724
1367.43108	0.37719
1365.50240	0.37693
1363.57373	0.37647
1361.64505	0.37636
1359.71638	0.37674
1357.78770	0.37709
1355.85903	0.37719
1353.93035	0.37726
1352.00167	0.37738
1350.07300	0.37754
1348.14432	0.37774
1346.21565	0.37794
1344.28697	0.37798
1342.35830	0.37770
1340.42962	0.37727
1338.50094	0.37715
1336.57227	0.37741
1334.64359	0.37769
1332.71492	0.37778
1330.78624	0.37774
1328.85757	0.37764
1326.92889	0.37751
1325.00021	0.37739
1323.07154	0.37724
1321.14286	0.37700
1319.21419	0.37676
1317.28551	0.37662
1315.35684	0.37653
1313.42816	0.37641
1311.49948	0.37625
1309.57081	0.37606
1307.64213	0.37575
1305.71346	0.37536
1303.78478	0.37502
1301.85611	0.37474
1299.92743	0.37439
1297.99875	0.37400
1296.07008	0.37362
1294.14140	0.37320
1292.21273	0.37271
1290.28405	0.37220
1288.35538	0.37173
1286.42670	0.37128
1284.49802	0.37076
1282.56935	0.37019
1280.64067	0.36959
1278.71200	0.36893
1276.78332	0.36815
1274.85465	0.36723
1272.92597	0.36610
1270.99729	0.36470
1269.06862	0.36298
1267.13994	0.36108
1265.21127	0.35936
1263.28259	0.35817
1261.35392	0.35758
1259.42524	0.35755
1257.49656	0.35782
1255.56789	0.35806
1253.63921	0.35805
1251.71054	0.35777
1249.78186	0.35724
1247.85319	0.35656
1245.92451	0.35581
1243.99583	0.35501
1242.06716	0.35416
1240.13848	0.35327
1238.20981	0.35234
1236.28113	0.35132
1234.35246	0.35024
1232.42378	0.34919
1230.49510	0.34820
1228.56643	0.34722
1226.63775	0.34625
1224.70908	0.34529
1222.78040	0.34436
1220.85173	0.34345
1218.92305	0.34253
1216.99437	0.34156
1215.06570	0.34057
1213.13702	0.33960
1211.20835	0.33864
1209.27967	0.33771
1207.35100	0.33682
1205.42232	0.33590
1203.49364	0.33498
1201.56497	0.33410
1199.63629	0.33322
1197.70762	0.33231
1195.77894	0.33141
1193.85027	0.33054
1191.92159	0.32962
1189.99291	0.32859
1188.06424	0.32744
1186.13556	0.32620
1184.20689	0.32490
1182.27821	0.32358
1180.34954	0.32222
1178.42086	0.32083
1176.49218	0.31946
1174.56351	0.31806
1172.63483	0.31660
1170.70616	0.31517
1168.77748	0.31374
1166.84881	0.31228
1164.92013	0.31079
1162.99145	0.30935
1161.06278	0.30803
1159.13410	0.30678
1157.20543	0.30553
1155.27675	0.30426
1153.34808	0.30301
1151.41940	0.30178
1149.49072	0.30063
1147.56205	0.29952
1145.63337	0.29845
1143.70470	0.29739
1141.77602	0.29630
1139.84735	0.29518
1137.91867	0.29407
1135.98999	0.29288
1134.06132	0.29161
1132.13264	0.29029
1130.20397	0.28892
1128.27529	0.28756
1126.34662	0.28622
1124.41794	0.28481
1122.48926	0.28332
1120.56059	0.28180
1118.63191	0.28027
1116.70324	0.27873
1114.77456	0.27715
1112.84589	0.27554
1110.91721	0.27395
1108.98853	0.27244
1107.05986	0.27101
1105.13118	0.26960
1103.20251	0.26817
1101.27383	0.26674
1099.34516	0.26538
1097.41648	0.26410
1095.48780	0.26287
1093.55913	0.26167
1091.63045	0.26056
1089.70178	0.25951
1087.77310	0.25844
1085.84443	0.25734
1083.91575	0.25627
1081.98707	0.25527
1080.05840	0.25433
1078.12972	0.25343
1076.20105	0.25264
1074.27237	0.25200
1072.34370	0.25149
1070.41502	0.25106
1068.48634	0.25075
1066.55767	0.25058
1064.62899	0.25057
1062.70032	0.25067
1060.77164	0.25084
1058.84297	0.25112
1056.91429	0.25146
1054.98561	0.25178
1053.05694	0.25214
1051.12826	0.25259
1049.19959	0.25312
1047.27091	0.25371
1045.34224	0.25434
1043.41356	0.25502
1041.48488	0.25577
1039.55621	0.25656
1037.62753	0.25734
1035.69886	0.25813
1033.77018	0.25896
1031.84151	0.25977
1029.91283	0.26055
1027.98415	0.26137
1026.05548	0.26216
1024.12680	0.26291
1022.19813	0.26374
1020.26945	0.26467
1018.34078	0.26569
1016.41210	0.26687
1014.48342	0.26820
1012.55475	0.26956
1010.62607	0.27092
1008.69740	0.27235
1006.76872	0.27382
1004.84005	0.27514
1002.91137	0.27620
1000.98269	0.27713
999.05402	0.27807
997.12534	0.27894
995.19667	0.27967
993.26799	0.28032
991.33932	0.28095
989.41064	0.28159
987.48196	0.28221
985.55329	0.28277
983.62461	0.28328
981.69594	0.28373
979.76726	0.28408
977.83859	0.28429
975.90991	0.28438
973.98123	0.28439
972.05256	0.28435
970.12388	0.28431
968.19521	0.28422
966.26653	0.28407
964.33786	0.28389
962.40918	0.28365
960.48050	0.28334
958.55183	0.28298
956.62315	0.28268
954.69448	0.28244
952.76580	0.28209
950.83713	0.28157
948.90845	0.28097
946.97977	0.28037
945.05110	0.27980
943.12242	0.27927
941.19375	0.27867
939.26507	0.27796
937.33640	0.27727
935.40772	0.27666
933.47904	0.27603
931.55037	0.27535
929.62169	0.27468
927.69302	0.27406
925.76434	0.27344
923.83567	0.27275
921.90699	0.27199
919.97831	0.27123
918.04964	0.27050
916.12096	0.26980
914.19229	0.26912
912.26361	0.26841
910.33494	0.26760
908.40626	0.26668
906.47758	0.26577
904.54891	0.26492
902.62023	0.26406
900.69156	0.26317
898.76288	0.26228
896.83421	0.26134
894.90553	0.26039
892.97685	0.25954
891.04818	0.25872
889.11950	0.25785
887.19083	0.25696
885.26215	0.25605
883.33348	0.25516
881.40480	0.25436
879.47612	0.25360
877.54745	0.25282
875.61877	0.25203
873.69010	0.25131
871.76142	0.25061
869.83275	0.24984
867.90407	0.24906
865.97539	0.24833
864.04672	0.24758
862.11804	0.24674
860.18937	0.24579
858.26069	0.24483
856.33202	0.24398
854.40334	0.24315
852.47466	0.24227
850.54599	0.24137
848.61731	0.24045
846.68864	0.23952
844.75996	0.23858
842.83129	0.23763
840.90261	0.23671
838.97394	0.23584
837.04526	0.23494
835.11658	0.23404
833.18791	0.23314
831.25923	0.23213
829.33056	0.23099
827.40188	0.22981
825.47321	0.22871
823.54453	0.22767
821.61585	0.22666
819.68718	0.22572
817.75850	0.22481
815.82983	0.22379
813.90115	0.22271
811.97248	0.22169
810.04380	0.22070
808.11512	0.21968
806.18645	0.21877
804.25777	0.21798
802.32910	0.21725
800.40042	0.21658
798.47175	0.21602
796.54307	0.21562
794.61439	0.21536
792.68572	0.21515
790.75704	0.21490
788.82837	0.21454
786.89969	0.21415
784.97102	0.21379
783.04234	0.21342
781.11366	0.21297
779.18499	0.21247
777.25631	0.21195
775.32764	0.21147
773.39896	0.21102
771.47029	0.21052
769.54161	0.20998
767.61293	0.20946
765.68426	0.20889
763.75558	0.20821
761.82691	0.20747
759.89823	0.20672
757.96956	0.20591
756.04088	0.20500
754.11220	0.20409
752.18353	0.20321
750.25485	0.20229
748.32618	0.20133
746.39750	0.20043
744.46883	0.19955
742.54015	0.19869
740.61147	0.19784
738.68280	0.19701
736.75412	0.19624
734.82545	0.19553
732.89677	0.19487
730.96810	0.19422
729.03942	0.19353
727.11074	0.19278
725.18207	0.19206
723.25339	0.19134
721.32472	0.19056
719.39604	0.18983
717.46737	0.18919
715.53869	0.18846
713.61001	0.18764
711.68134	0.18680
709.75266	0.18594
707.82399	0.18509
705.89531	0.18428
703.96664	0.18350
702.03796	0.18277
700.10928	0.18207
698.18061	0.18134
696.25193	0.18057
694.32326	0.17978
692.39458	0.17890
690.46591	0.17794
688.53723	0.17703
686.60855	0.17622
684.67988	0.17536
682.75120	0.17436
680.82253	0.17327
678.89385	0.17215
676.96518	0.17105
675.03650	0.16994
673.10782	0.16864
671.17915	0.16703
669.25047	0.16525
667.32180	0.16372
665.39312	0.16245
663.46445	0.16108
661.53577	0.15953
659.60709	0.15808
657.67842	0.15675
655.74974	0.15534
653.82107	0.15380
651.89239	0.15223
649.96372	0.15066
648.03504	0.14913
646.10636	0.14773
644.17769	0.14634
642.24901	0.14470
640.32034	0.14287
638.39166	0.14105
636.46299	0.13928
634.53431	0.13748
632.60563	0.13572
630.67696	0.13393
628.74828	0.13202
626.81961	0.13015
624.89093	0.12842
622.96226	0.12673
621.03358	0.12506
619.10490	0.12352
617.17623	0.12200
615.24755	0.12026
613.31888	0.11839
611.39020	0.11664
609.46153	0.11505
607.53285	0.11353
605.60417	0.11198
603.67550	0.11043
601.74682	0.10890
599.81815	0.10742
597.88947	0.10602
595.96080	0.10473
594.03212	0.10354
592.10344	0.10241
590.17477	0.10131
588.24609	0.10021
586.31742	0.09910
584.38874	0.09807
582.46007	0.09708
580.53139	0.09602
578.60271	0.09485
576.67404	0.09368
574.74536	0.09262
572.81669	0.09167
570.88801	0.09073
568.95934	0.08983
567.03066	0.08902
565.10198	0.08822
563.17331	0.08741
561.24463	0.08668
559.31596	0.08595
557.38728	0.08515
555.45861	0.08442
553.52993	0.08385
551.60125	0.08332
549.67258	0.08278
547.74390	0.08218
545.81523	0.08158
543.88655	0.08102
541.95788	0.08049
540.02920	0.07998
538.10052	0.07955
536.17185	0.07917
534.24317	0.07869
532.31450	0.07807
530.38582	0.07743
528.45715	0.07687
526.52847	0.07635
524.59979	0.07569
522.67112	0.07485
520.74244	0.07397
518.81377	0.07314
516.88509	0.07237
514.95642	0.07158
513.02774	0.07076
511.09906	0.06998
509.17039	0.06922
507.24171	0.06841
505.31304	0.06755
503.38436	0.06663
501.45569	0.06565
499.52701	0.06460
497.59833	0.06346
495.66966	0.06229
493.74098	0.06114
491.81231	0.05987
489.88363	0.05851
487.95496	0.05722
486.02628	0.05602
484.09760	0.05486
482.16893	0.05370
480.24025	0.05252
478.31158	0.05132
476.38290	0.05008
474.45423	0.04881
472.52555	0.04761
470.59687	0.04652
468.66820	0.04563
466.73952	0.04502
464.81085	0.04456
462.88217	0.04408
460.95350	0.04363
459.02482	0.04328
457.09614	0.04313
455.16747	0.04314
453.23879	0.04310
451.31012	0.04303
449.38144	0.04298
447.45277	0.04283
445.52409	0.04253
443.59541	0.04210
441.66674	0.04146
439.73806	0.04068
437.80939	0.03982
435.88071	0.03896
433.95204	0.03815
432.02336	0.03719
430.09468	0.03600
428.16601	0.03468
426.23733	0.03329
424.30866	0.03192
422.37998	0.03062
420.45131	0.02934
418.52263	0.02814
416.59395	0.02706
414.66528	0.02595
412.73660	0.02477
410.80793	0.02352
408.87925	0.02225
406.95058	0.02114
405.02190	0.02022
403.09322	0.01927
401.16455	0.01814
399.23587	0.01698
397.30720	0.01591
395.37852	0.01485
393.44985	0.01375
391.52117	0.01274
389.59249	0.01192
387.66382	0.01125
385.73514	0.01057
383.80647	0.00983
381.87779	0.00906
379.94912	0.00832
378.02044	0.00763
376.09176	0.00699
374.16309	0.00646
372.23441	0.00598
370.30574	0.00541
368.37706	0.00477
