7496.76250	0.00219
7494.83382	0.00221
7492.90514	0.00221
7490.97647	0.00221
7489.04779	0.00221
7487.11912	0.00222
7485.19044	0.00223
7483.26177	0.00223
7481.33309	0.00223
7479.40441	0.00223
7477.47574	0.00224
7475.54706	0.00227
7473.61839	0.00228
7471.68971	0.00228
7469.76104	0.00228
7467.83236	0.00230
7465.90368	0.00232
7463.97501	0.00232
7462.04633	0.00231
7460.11766	0.00231
7458.18898	0.00232
7456.26031	0.00233
7454.33163	0.00234
7452.40295	0.00233
7450.47428	0.00232
7448.54560	0.00233
7446.61693	0.00235
7444.68825	0.00236
7442.75958	0.00237
7440.83090	0.00237
7438.90222	0.00238
7436.97355	0.00238
7435.04487	0.00238
7433.11620	0.00239
7431.18752	0.00239
7429.25885	0.00240
7427.33017	0.00241
7425.40149	0.00241
7423.47282	0.00241
7421.54414	0.00241
7419.61547	0.00243
7417.68679	0.00244
7415.75812	0.00244
7413.82944	0.00245
7411.90076	0.00246
7409.97209	0.00248
7408.04341	0.00248
7406.11474	0.00248
7404.18606	0.00249
7402.25739	0.00251
7400.32871	0.00251
7398.40003	0.00250
7396.47136	0.00249
7394.54268	0.00249
7392.61401	0.00250
7390.68533	0.00251
7388.75666	0.00253
7386.82798	0.00254
7384.89930	0.00254
7382.97063	0.00254
7381.04195	0.00255
7379.11328	0.00256
7377.18460	0.00256
7375.25593	0.00256
7373.32725	0.00257
7371.39857	0.00259
7369.46990	0.00260
7367.54122	0.00259
7365.61255	0.00259
7363.68387	0.00259
7361.75520	0.00260
7359.82652	0.00262
7357.89784	0.00264
7355.96917	0.00264
7354.04049	0.00264
7352.11182	0.00265
7350.18314	0.00266
7348.25447	0.00267
7346.32579	0.00267
7344.39711	0.00265
7342.46844	0.00264
7340.53976	0.00264
7338.61109	0.00268
7336.68241	0.00271
7334.75374	0.00272
7332.82506	0.00272
7330.89638	0.00273
7328.96771	0.00273
7327.03903	0.00274
7325.11036	0.00274
7323.18168	0.00273
7321.25301	0.00273
7319.32433	0.00275
7317.39565	0.00276
7315.46698	0.00276
7313.53830	0.00276
7311.60963	0.00277
7309.68095	0.00278
7307.75228	0.00279
7305.82360	0.00280
7303.89492	0.00280
7301.96625	0.00281
7300.03757	0.00282
7298.10890	0.00282
7296.18022	0.00284
7294.25155	0.00285
7292.32287	0.00286
7290.39419	0.00287
7288.46552	0.00288
7286.53684	0.00289
7284.60817	0.00290
7282.67949	0.00290
7280.75082	0.00290
7278.82214	0.00289
7276.89346	0.00289
7274.96479	0.00290
7273.03611	0.00291
7271.10744	0.00293
7269.17876	0.00295
7267.25009	0.00295
7265.32141	0.00294
7263.39273	0.00295
7261.46406	0.00296
7259.53538	0.00296
7257.60671	0.00295
7255.67803	0.00295
7253.74936	0.00297
7251.82068	0.00298
7249.89200	0.00299
7247.96333	0.00301
7246.03465	0.00301
7244.10598	0.00301
7242.17730	0.00301
7240.24863	0.00302
7238.31995	0.00304
7236.39127	0.00307
7234.46260	0.00307
7232.53392	0.00305
7230.60525	0.00304
7228.67657	0.00304
7226.74790	0.00304
7224.81922	0.00305
7222.89054	0.00307
7220.96187	0.00311
7219.03319	0.00313
7217.10452	0.00313
7215.17584	0.00313
7213.24717	0.00314
7211.31849	0.00315
7209.38981	0.00315
7207.46114	0.00315
7205.53246	0.00315
7203.60379	0.00315
7201.67511	0.00317
7199.74644	0.00319
7197.81776	0.00321
7195.88908	0.00322
7193.96041	0.00322
7192.03173	0.00322
7190.10306	0.00321
7188.17438	0.00322
7186.24571	0.00322
7184.31703	0.00322
7182.38835	0.00323
7180.45968	0.00324
7178.53100	0.00325
7176.60233	0.00327
7174.67365	0.00329
7172.74498	0.00330
7170.81630	0.00330
7168.88762	0.00330
7166.95895	0.00331
7165.03027	0.00331
7163.10160	0.00331
7161.17292	0.00331
7159.24425	0.00331
7157.31557	0.00332
7155.38689	0.00334
7153.45822	0.00336
7151.52954	0.00336
7149.60087	0.00334
7147.67219	0.00334
7145.74352	0.00337
7143.81484	0.00339
7141.88616	0.00338
7139.95749	0.00338
7138.02881	0.00340
7136.10014	0.00341
7134.17146	0.00341
7132.24279	0.00342
7130.31411	0.00344
7128.38543	0.00345
7126.45676	0.00345
7124.52808	0.00347
7122.59941	0.00347
7120.67073	0.00347
7118.74206	0.00348
7116.81338	0.00350
7114.88470	0.00352
7112.95603	0.00352
7111.02735	0.00352
7109.09868	0.00352
7107.17000	0.00353
7105.24133	0.00354
7103.31265	0.00355
7101.38397	0.00356
7099.45530	0.00357
7097.52662	0.00357
7095.59795	0.00357
7093.66927	0.00358
7091.74060	0.00358
7089.81192	0.00358
7087.88324	0.00359
7085.95457	0.00361
7084.02589	0.00364
7082.09722	0.00365
7080.16854	0.00365
7078.23987	0.00364
7076.31119	0.00365
7074.38251	0.00366
7072.45384	0.00367
7070.52516	0.00369
7068.59649	0.00370
7066.66781	0.00369
7064.73914	0.00369
7062.81046	0.00370
7060.88178	0.00371
7058.95311	0.00371
7057.02443	0.00372
7055.09576	0.00373
7053.16708	0.00373
7051.23841	0.00374
7049.30973	0.00375
7047.38105	0.00376
7045.45238	0.00377
7043.52370	0.00378
7041.59503	0.00379
7039.66635	0.00380
7037.73768	0.00381
7035.80900	0.00383
7033.88032	0.00383
7031.95165	0.00384
7030.02297	0.00384
7028.09430	0.00385
7026.16562	0.00387
7024.23695	0.00388
7022.30827	0.00389
7020.37959	0.00390
7018.45092	0.00391
7016.52224	0.00393
7014.59357	0.00394
7012.66489	0.00394
7010.73622	0.00394
7008.80754	0.00394
7006.87886	0.00395
7004.95019	0.00396
7003.02151	0.00396
7001.09284	0.00397
6999.16416	0.00399
6997.23549	0.00401
6995.30681	0.00402
6993.37813	0.00402
6991.44946	0.00402
6989.52078	0.00403
6987.59211	0.00405
6985.66343	0.00406
6983.73476	0.00407
6981.80608	0.00407
6979.87740	0.00407
6977.94873	0.00408
6976.02005	0.00410
6974.09138	0.00411
6972.16270	0.00412
6970.23403	0.00414
6968.30535	0.00415
6966.37667	0.00415
6964.44800	0.00416
6962.51932	0.00415
6960.59065	0.00415
6958.66197	0.00416
6956.73330	0.00418
6954.80462	0.00418
6952.87594	0.00419
6950.94727	0.00421
6949.01859	0.00421
6947.08992	0.00422
6945.16124	0.00422
6943.23257	0.00421
6941.30389	0.00422
6939.37521	0.00425
6937.44654	0.00427
6935.51786	0.00428
6933.58919	0.00430
6931.66051	0.00432
6929.73184	0.00433
6927.80316	0.00433
6925.87448	0.00433
6923.94581	0.00432
6922.01713	0.00432
6920.08846	0.00432
6918.15978	0.00433
6916.23111	0.00436
6914.30243	0.00439
6912.37375	0.00440
6910.44508	0.00440
6908.51640	0.00441
6906.58773	0.00442
6904.65905	0.00442
6902.73038	0.00442
6900.80170	0.00442
6898.87302	0.00445
6896.94435	0.00446
6895.01567	0.00446
6893.08700	0.00447
6891.15832	0.00447
6889.22965	0.00448
6887.30097	0.00451
6885.37229	0.00454
6883.44362	0.00454
6881.51494	0.00455
6879.58627	0.00456
6877.65759	0.00457
6875.72892	0.00457
6873.80024	0.00456
6871.87156	0.00456
6869.94289	0.00456
6868.01421	0.00457
6866.08554	0.00458
6864.15686	0.00459
6862.22819	0.00460
6860.29951	0.00461
6858.37083	0.00462
6856.44216	0.00463
6854.51348	0.00465
6852.58481	0.00467
6850.65613	0.00468
6848.72746	0.00470
6846.79878	0.00471
6844.87010	0.00472
6842.94143	0.00471
6841.01275	0.00472
6839.08408	0.00473
6837.15540	0.00475
6835.22673	0.00476
6833.29805	0.00477
6831.36937	0.00478
6829.44070	0.00479
6827.51202	0.00481
6825.58335	0.00481
6823.65467	0.00480
6821.72600	0.00480
6819.79732	0.00483
6817.86864	0.00486
6815.93997	0.00489
6814.01129	0.00490
6812.08262	0.00492
6810.15394	0.00491
6808.22527	0.00491
6806.29659	0.00492
6804.36791	0.00494
6802.43924	0.00495
6800.51056	0.00494
6798.58189	0.00494
6796.65321	0.00493
6794.72454	0.00494
6792.79586	0.00496
6790.86718	0.00498
6788.93851	0.00500
6787.00983	0.00501
6785.08116	0.00503
6783.15248	0.00504
6781.22381	0.00504
6779.29513	0.00504
6777.36645	0.00504
6775.43778	0.00505
6773.50910	0.00508
6771.58043	0.00510
6769.65175	0.00511
6767.72308	0.00512
6765.79440	0.00513
6763.86572	0.00515
6761.93705	0.00516
6760.00837	0.00517
6758.07970	0.00518
6756.15102	0.00519
6754.22235	0.00520
6752.29367	0.00521
6750.36499	0.00522
6748.43632	0.00522
6746.50764	0.00523
6744.57897	0.00524
6742.65029	0.00525
6740.72162	0.00525
6738.79294	0.00526
6736.86426	0.00527
6734.93559	0.00528
6733.00691	0.00529
6731.07824	0.00531
6729.14956	0.00532
6727.22089	0.00534
6725.29221	0.00535
6723.36353	0.00536
6721.43486	0.00536
6719.50618	0.00535
6717.57751	0.00536
6715.64883	0.00538
6713.72016	0.00539
6711.79148	0.00542
6709.86280	0.00544
6707.93413	0.00546
6706.00545	0.00547
6704.07678	0.00549
6702.14810	0.00551
6700.21943	0.00551
6698.29075	0.00552
6696.36207	0.00553
6694.43340	0.00554
6692.50472	0.00556
6690.57605	0.00559
6688.64737	0.00560
6686.71870	0.00560
6684.79002	0.00560
6682.86134	0.00561
6680.93267	0.00563
6679.00399	0.00564
6677.07532	0.00565
6675.14664	0.00566
6673.21797	0.00566
6671.28929	0.00566
6669.36061	0.00566
6667.43194	0.00569
6665.50326	0.00571
6663.57459	0.00573
6661.64591	0.00574
6659.71724	0.00575
6657.78856	0.00577
6655.85988	0.00578
6653.93121	0.00579
6652.00253	0.00580
6650.07386	0.00582
6648.14518	0.00583
6646.21651	0.00584
6644.28783	0.00584
6642.35915	0.00586
6640.43048	0.00587
6638.50180	0.00587
6636.57313	0.00587
6634.64445	0.00588
6632.71578	0.00591
6630.78710	0.00593
6628.85842	0.00594
6626.92975	0.00594
6625.00107	0.00595
6623.07240	0.00596
6621.14372	0.00598
6619.21505	0.00601
6617.28637	0.00604
6615.35769	0.00605
6613.42902	0.00604
6611.50034	0.00604
6609.57167	0.00606
6607.64299	0.00608
6605.71432	0.00609
6603.78564	0.00610
6601.85696	0.00611
6599.92829	0.00613
6597.99961	0.00614
6596.07094	0.00615
6594.14226	0.00617
6592.21359	0.00618
6590.28491	0.00618
6588.35623	0.00618
6586.42756	0.00619
6584.49888	0.00620
6582.57021	0.00623
6580.64153	0.00624
6578.71286	0.00626
6576.78418	0.00627
6574.85550	0.00627
6572.92683	0.00629
6570.99815	0.00632
6569.06948	0.00635
6567.14080	0.00637
6565.21213	0.00638
6563.28345	0.00639
6561.35477	0.00640
6559.42610	0.00641
6557.49742	0.00642
6555.56875	0.00643
6553.64007	0.00643
6551.71140	0.00644
6549.78272	0.00645
6547.85404	0.00646
6545.92537	0.00647
6543.99669	0.00649
6542.06802	0.00650
6540.13934	0.00652
6538.21067	0.00655
6536.28199	0.00657
6534.35331	0.00658
6532.42464	0.00659
6530.49596	0.00661
6528.56729	0.00663
6526.63861	0.00665
6524.70994	0.00665
6522.78126	0.00665
6520.85258	0.00667
6518.92391	0.00669
6516.99523	0.00671
6515.06656	0.00673
6513.13788	0.00674
6511.20921	0.00674
6509.28053	0.00675
6507.35185	0.00677
6505.42318	0.00678
6503.49450	0.00679
6501.56583	0.00680
6499.63715	0.00681
6497.70848	0.00682
6495.77980	0.00683
6493.85112	0.00685
6491.92245	0.00688
6489.99377	0.00691
6488.06510	0.00692
6486.13642	0.00692
6484.20775	0.00692
6482.27907	0.00694
6480.35039	0.00696
6478.42172	0.00697
6476.49304	0.00698
6474.56437	0.00701
6472.63569	0.00702
6470.70702	0.00703
6468.77834	0.00705
6466.84966	0.00708
6464.92099	0.00711
6462.99231	0.00713
6461.06364	0.00713
6459.13496	0.00713
6457.20629	0.00713
6455.27761	0.00715
6453.34893	0.00716
6451.42026	0.00717
6449.49158	0.00718
6447.56291	0.00719
6445.63423	0.00720
6443.70556	0.00722
6441.77688	0.00724
6439.84820	0.00727
6437.91953	0.00730
6435.99085	0.00732
6434.06218	0.00732
6432.13350	0.00732
6430.20483	0.00734
6428.27615	0.00736
6426.34747	0.00738
6424.41880	0.00740
6422.49012	0.00742
6420.56145	0.00744
6418.63277	0.00745
6416.70410	0.00746
6414.77542	0.00747
6412.84674	0.00748
6410.91807	0.00749
6408.98939	0.00751
6407.06072	0.00753
6405.13204	0.00756
6403.20337	0.00759
6401.27469	0.00762
6399.34601	0.00761
6397.41734	0.00760
6395.48866	0.00761
6393.55999	0.00761
6391.63131	0.00763
6389.70264	0.00764
6387.77396	0.00765
6385.84528	0.00768
6383.91661	0.00770
6381.98793	0.00774
6380.05926	0.00777
6378.13058	0.00778
6376.20191	0.00780
6374.27323	0.00782
6372.34455	0.00784
6370.41588	0.00786
6368.48720	0.00787
6366.55853	0.00787
6364.62985	0.00787
6362.70118	0.00789
6360.77250	0.00792
6358.84382	0.00795
6356.91515	0.00797
6354.98647	0.00798
6353.05780	0.00798
6351.12912	0.00800
6349.20045	0.00801
6347.27177	0.00802
6345.34309	0.00804
6343.41442	0.00808
6341.48574	0.00811
6339.55707	0.00813
6337.62839	0.00814
6335.69972	0.00815
6333.77104	0.00816
6331.84236	0.00818
6329.91369	0.00821
6327.98501	0.00822
6326.05634	0.00822
6324.12766	0.00821
6322.19899	0.00823
6320.27031	0.00824
6318.34163	0.00825
6316.41296	0.00827
6314.48428	0.00830
6312.55561	0.00832
6310.62693	0.00834
6308.69826	0.00836
6306.76958	0.00838
6304.84090	0.00840
6302.91223	0.00842
6300.98355	0.00844
6299.05488	0.00846
6297.12620	0.00848
6295.19753	0.00849
6293.26885	0.00851
6291.34017	0.00854
6289.41150	0.00857
6287.48282	0.00858
6285.55415	0.00860
6283.62547	0.00862
6281.69680	0.00864
6279.76812	0.00864
6277.83944	0.00866
6275.91077	0.00869
6273.98209	0.00871
6272.05342	0.00872
6270.12474	0.00873
6268.19607	0.00875
6266.26739	0.00878
6264.33871	0.00880
6262.41004	0.00882
6260.48136	0.00883
6258.55269	0.00886
6256.62401	0.00888
6254.69534	0.00889
6252.76666	0.00891
6250.83798	0.00891
6248.90931	0.00891
6246.98063	0.00894
6245.05196	0.00898
6243.12328	0.00901
6241.19461	0.00903
6239.26593	0.00904
6237.33725	0.00905
6235.40858	0.00906
6233.47990	0.00907
6231.55123	0.00908
6229.62255	0.00909
6227.69388	0.00911
6225.76520	0.00913
6223.83652	0.00915
6221.90785	0.00917
6219.97917	0.00919
6218.05050	0.00921
6216.12182	0.00924
6214.19315	0.00926
6212.26447	0.00927
6210.33579	0.00929
6208.40712	0.00933
6206.47844	0.00937
6204.54977	0.00939
6202.62109	0.00939
6200.69242	0.00940
6198.76374	0.00943
6196.83506	0.00945
6194.90639	0.00945
6192.97771	0.00946
6191.04904	0.00946
6189.12036	0.00949
6187.19169	0.00953
6185.26301	0.00957
6183.33433	0.00960
6181.40566	0.00961
6179.47698	0.00963
6177.54831	0.00964
6175.61963	0.00966
6173.69096	0.00969
6171.76228	0.00971
6169.83360	0.00974
6167.90493	0.00976
6165.97625	0.00976
6164.04758	0.00977
6162.11890	0.00980
6160.19023	0.00982
6158.26155	0.00984
6156.33287	0.00985
6154.40420	0.00987
6152.47552	0.00991
6150.54685	0.00994
6148.61817	0.00995
6146.68950	0.00997
6144.76082	0.00999
6142.83214	0.01002
6140.90347	0.01005
6138.97479	0.01008
6137.04612	0.01010
6135.11744	0.01011
6133.18877	0.01011
6131.26009	0.01012
6129.33141	0.01011
6127.40274	0.01014
6125.47406	0.01019
6123.54539	0.01024
6121.61671	0.01025
6119.68804	0.01024
6117.75936	0.01025
6115.83068	0.01028
6113.90201	0.01032
6111.97333	0.01034
6110.04466	0.01035
6108.11598	0.01037
6106.18731	0.01039
6104.25863	0.01041
6102.32995	0.01044
6100.40128	0.01048
6098.47260	0.01051
6096.54393	0.01052
6094.61525	0.01054
6092.68658	0.01056
6090.75790	0.01060
6088.82922	0.01063
6086.90055	0.01064
6084.97187	0.01065
6083.04320	0.01068
6081.11452	0.01071
6079.18585	0.01072
6077.25717	0.01073
6075.32849	0.01075
6073.39982	0.01077
6071.47114	0.01080
6069.54247	0.01083
6067.61379	0.01085
6065.68512	0.01086
6063.75644	0.01089
6061.82776	0.01092
6059.89909	0.01095
6057.97041	0.01097
6056.04174	0.01099
6054.11306	0.01101
6052.18439	0.01104
6050.25571	0.01107
6048.32703	0.01111
6046.39836	0.01114
6044.46968	0.01115
6042.54101	0.01116
6040.61233	0.01117
6038.68366	0.01120
6036.75498	0.01122
6034.82630	0.01124
6032.89763	0.01125
6030.96895	0.01128
6029.04028	0.01131
6027.11160	0.01133
6025.18293	0.01135
6023.25425	0.01138
6021.32557	0.01142
6019.39690	0.01145
6017.46822	0.01146
6015.53955	0.01149
6013.61087	0.01152
6011.68220	0.01155
6009.75352	0.01157
6007.82484	0.01159
6005.89617	0.01161
6003.96749	0.01163
6002.03882	0.01166
6000.11014	0.01168
5998.18147	0.01169
5996.25279	0.01169
5994.32411	0.01170
5992.39544	0.01173
5990.46676	0.01176
5988.53809	0.01179
5986.60941	0.01182
5984.68074	0.01186
5982.75206	0.01190
5980.82338	0.01192
5978.89471	0.01192
5976.96603	0.01194
5975.03736	0.01197
5973.10868	0.01201
5971.18001	0.01205
5969.25133	0.01206
5967.32265	0.01206
5965.39398	0.01207
5963.46530	0.01211
5961.53663	0.01215
5959.60795	0.01219
5957.67928	0.01220
5955.75060	0.01221
5953.82192	0.01222
5951.89325	0.01225
5949.96457	0.01229
5948.03590	0.01231
5946.10722	0.01232
5944.17855	0.01234
5942.24987	0.01238
5940.32119	0.01242
5938.39252	0.01245
5936.46384	0.01248
5934.53517	0.01250
5932.60649	0.01254
5930.67782	0.01258
5928.74914	0.01260
5926.82046	0.01261
5924.89179	0.01262
5922.96311	0.01265
5921.03444	0.01268
5919.10576	0.01271
5917.17709	0.01274
5915.24841	0.01277
5913.31973	0.01279
5911.39106	0.01280
5909.46238	0.01282
5907.53371	0.01285
5905.60503	0.01288
5903.67636	0.01292
5901.74768	0.01296
5899.81900	0.01299
5897.89033	0.01302
5895.96165	0.01304
5894.03298	0.01306
5892.10430	0.01307
5890.17563	0.01309
5888.24695	0.01313
5886.31827	0.01319
5884.38960	0.01322
5882.46092	0.01325
5880.53225	0.01327
5878.60357	0.01328
5876.67490	0.01329
5874.74622	0.01331
5872.81755	0.01332
5870.88887	0.01334
5868.96019	0.01338
5867.03152	0.01342
5865.10284	0.01345
5863.17417	0.01347
5861.24549	0.01350
5859.31682	0.01353
5857.38814	0.01357
5855.45946	0.01360
5853.53079	0.01363
5851.60211	0.01365
5849.67344	0.01367
5847.74476	0.01370
5845.81609	0.01374
5843.88741	0.01376
5841.95873	0.01378
5840.03006	0.01381
5838.10138	0.01385
5836.17271	0.01388
5834.24403	0.01390
5832.31536	0.01392
5830.38668	0.01395
5828.45800	0.01397
5826.52933	0.01400
5824.60065	0.01404
5822.67198	0.01407
5820.74330	0.01411
5818.81463	0.01415
5816.88595	0.01418
5814.95727	0.01421
5813.02860	0.01424
5811.09992	0.01425
5809.17125	0.01425
5807.24257	0.01427
5805.31390	0.01431
5803.38522	0.01436
5801.45654	0.01440
5799.52787	0.01442
5797.59919	0.01444
5795.67052	0.01449
5793.74184	0.01453
5791.81317	0.01456
5789.88449	0.01457
5787.95581	0.01458
5786.02714	0.01461
5784.09846	0.01464
5782.16979	0.01467
5780.24111	0.01469
5778.31244	0.01470
5776.38376	0.01473
5774.45508	0.01476
5772.52641	0.01481
5770.59773	0.01486
5768.66906	0.01490
5766.74038	0.01492
5764.81171	0.01495
5762.88303	0.01499
5760.95435	0.01502
5759.02568	0.01504
5757.09700	0.01505
5755.16833	0.01508
5753.23965	0.01514
5751.31098	0.01518
5749.38230	0.01519
5747.45362	0.01521
5745.52495	0.01524
5743.59627	0.01530
5741.66760	0.01533
5739.73892	0.01535
5737.81025	0.01537
5735.88157	0.01538
5733.95289	0.01540
5732.02422	0.01546
5730.09554	0.01550
5728.16687	0.01552
5726.23819	0.01554
5724.30952	0.01558
5722.38084	0.01562
5720.45216	0.01564
5718.52349	0.01566
5716.59481	0.01569
5714.66614	0.01574
5712.73746	0.01577
5710.80879	0.01579
5708.88011	0.01581
5706.95143	0.01584
5705.02276	0.01590
5703.09408	0.01595
5701.16541	0.01598
5699.23673	0.01600
5697.30806	0.01602
5695.37938	0.01605
5693.45070	0.01609
5691.52203	0.01612
5689.59335	0.01614
5687.66468	0.01618
5685.73600	0.01622
5683.80733	0.01625
5681.87865	0.01629
5679.94997	0.01634
5678.02130	0.01637
5676.09262	0.01640
5674.16395	0.01642
5672.23527	0.01644
5670.30660	0.01646
5668.37792	0.01650
5666.44924	0.01654
5664.52057	0.01655
5662.59189	0.01657
5660.66322	0.01662
5658.73454	0.01669
5656.80587	0.01675
5654.87719	0.01679
5652.94851	0.01681
5651.01984	0.01683
5649.09116	0.01685
5647.16249	0.01688
5645.23381	0.01691
5643.30514	0.01694
5641.37646	0.01698
5639.44778	0.01703
5637.51911	0.01707
5635.59043	0.01710
5633.66176	0.01712
5631.73308	0.01715
5629.80441	0.01718
5627.87573	0.01721
5625.94705	0.01725
5624.01838	0.01729
5622.08970	0.01732
5620.16103	0.01735
5618.23235	0.01737
5616.30368	0.01740
5614.37500	0.01744
5612.44632	0.01748
5610.51765	0.01753
5608.58897	0.01758
5606.66030	0.01762
5604.73162	0.01764
5602.80295	0.01765
5600.87427	0.01766
5598.94559	0.01770
5597.01692	0.01774
5595.08824	0.01778
5593.15957	0.01781
5591.23089	0.01785
5589.30222	0.01789
5587.37354	0.01794
5585.44486	0.01797
5583.51619	0.01799
5581.58751	0.01801
5579.65884	0.01803
5577.73016	0.01807
5575.80149	0.01811
5573.87281	0.01817
5571.94413	0.01822
5570.01546	0.01825
5568.08678	0.01826
5566.15811	0.01828
5564.22943	0.01832
5562.30076	0.01838
5560.37208	0.01842
5558.44340	0.01845
5556.51473	0.01847
5554.58605	0.01850
5552.65738	0.01854
5550.72870	0.01857
5548.80003	0.01860
5546.87135	0.01866
5544.94267	0.01870
5543.01400	0.01874
5541.08532	0.01877
5539.15665	0.01879
5537.22797	0.01882
5535.29930	0.01886
5533.37062	0.01892
5531.44194	0.01896
5529.51327	0.01898
5527.58459	0.01900
5525.65592	0.01905
5523.72724	0.01912
5521.79857	0.01917
5519.86989	0.01920
5517.94121	0.01922
5516.01254	0.01925
5514.08386	0.01928
5512.15519	0.01930
5510.22651	0.01933
5508.29784	0.01937
5506.36916	0.01942
5504.44048	0.01946
5502.51181	0.01950
5500.58313	0.01955
5498.65446	0.01960
5496.72578	0.01963
5494.79711	0.01964
5492.86843	0.01967
5490.93975	0.01971
5489.01108	0.01974
5487.08240	0.01976
5485.15373	0.01978
5483.22505	0.01984
5481.29638	0.01990
5479.36770	0.01995
5477.43902	0.01998
5475.51035	0.02000
5473.58167	0.02005
5471.65300	0.02010
5469.72432	0.02013
5467.79565	0.02015
5465.86697	0.02018
5463.93829	0.02022
5462.00962	0.02026
5460.08094	0.02030
5458.15227	0.02035
5456.22359	0.02041
5454.29492	0.02046
5452.36624	0.02050
5450.43756	0.02055
5448.50889	0.02058
5446.58021	0.02059
5444.65154	0.02061
5442.72286	0.02064
5440.79419	0.02068
5438.86551	0.02074
5436.93683	0.02077
5435.00816	0.02080
5433.07948	0.02084
5431.15081	0.02087
5429.22213	0.02090
5427.29346	0.02093
5425.36478	0.02098
5423.43610	0.02104
5421.50743	0.02110
5419.57875	0.02114
5417.65008	0.02116
5415.72140	0.02116
5413.79273	0.02117
5411.86405	0.02121
5409.93537	0.02127
5408.00670	0.02134
5406.07802	0.02140
5404.14935	0.02144
5402.22067	0.02148
5400.29200	0.02154
5398.36332	0.02157
5396.43464	0.02158
5394.50597	0.02159
5392.57729	0.02164
5390.64862	0.02170
5388.71994	0.02174
5386.79127	0.02177
5384.86259	0.02182
5382.93391	0.02188
5381.00524	0.02193
5379.07656	0.02195
5377.14789	0.02196
5375.21921	0.02198
5373.29054	0.02204
5371.36186	0.02211
5369.43318	0.02216
5367.50451	0.02220
5365.57583	0.02222
5363.64716	0.02226
5361.71848	0.02232
5359.78981	0.02237
5357.86113	0.02242
5355.93245	0.02244
5354.00378	0.02245
5352.07510	0.02249
5350.14643	0.02255
5348.21775	0.02260
5346.28908	0.02263
5344.36040	0.02267
5342.43172	0.02271
5340.50305	0.02274
5338.57437	0.02277
5336.64570	0.02283
5334.71702	0.02288
5332.78835	0.02293
5330.85967	0.02297
5328.93099	0.02300
5327.00232	0.02303
5325.07364	0.02308
5323.14497	0.02312
5321.21629	0.02315
5319.28762	0.02320
5317.35894	0.02324
5315.43026	0.02329
5313.50159	0.02334
5311.57291	0.02339
5309.64424	0.02344
5307.71556	0.02348
5305.78689	0.02352
5303.85821	0.02356
5301.92953	0.02362
5300.00086	0.02366
5298.07218	0.02369
5296.14351	0.02373
5294.21483	0.02377
5292.28616	0.02381
5290.35748	0.02385
5288.42880	0.02390
5286.50013	0.02395
5284.57145	0.02399
5282.64278	0.02402
5280.71410	0.02404
5278.78543	0.02409
5276.85675	0.02415
5274.92807	0.02421
5272.99940	0.02426
5271.07072	0.02430
5269.14205	0.02433
5267.21337	0.02436
5265.28470	0.02438
5263.35602	0.02440
5261.42734	0.02445
5259.49867	0.02450
5257.56999	0.02454
5255.64132	0.02457
5253.71264	0.02461
5251.78397	0.02464
5249.85529	0.02467
5247.92661	0.02472
5245.99794	0.02479
5244.06926	0.02486
5242.14059	0.02491
5240.21191	0.02496
5238.28324	0.02501
5236.35456	0.02506
5234.42588	0.02510
5232.49721	0.02513
5230.56853	0.02518
5228.63986	0.02522
5226.71118	0.02525
5224.78251	0.02528
5222.85383	0.02532
5220.92515	0.02536
5218.99648	0.02540
5217.06780	0.02544
5215.13913	0.02550
5213.21045	0.02557
5211.28178	0.02563
5209.35310	0.02567
5207.42442	0.02568
5205.49575	0.02571
5203.56707	0.02576
5201.63840	0.02583
5199.70972	0.02588
5197.78105	0.02592
5195.85237	0.02594
5193.92369	0.02596
5191.99502	0.02602
5190.06634	0.02609
5188.13767	0.02614
5186.20899	0.02617
5184.28032	0.02621
5182.35164	0.02624
5180.42296	0.02627
5178.49429	0.02632
5176.56561	0.02638
5174.63694	0.02644
5172.70826	0.02648
5170.77959	0.02653
5168.85091	0.02659
5166.92223	0.02666
5164.99356	0.02672
5163.06488	0.02676
5161.13621	0.02679
5159.20753	0.02681
5157.27886	0.02684
5155.35018	0.02689
5153.42150	0.02695
5151.49283	0.02700
5149.56415	0.02704
5147.63548	0.02710
5145.70680	0.02717
5143.77813	0.02724
5141.84945	0.02728
5139.92077	0.02731
5137.99210	0.02734
5136.06342	0.02738
5134.13475	0.02743
5132.20607	0.02746
5130.27740	0.02750
5128.34872	0.02755
5126.42004	0.02759
5124.49137	0.02763
5122.56269	0.02768
5120.63402	0.02774
5118.70534	0.02779
5116.77667	0.02784
5114.84799	0.02787
5112.91931	0.02792
5110.99064	0.02797
5109.06196	0.02802
5107.13329	0.02808
5105.20461	0.02815
5103.27594	0.02820
5101.34726	0.02824
5099.41858	0.02828
5097.48991	0.02832
5095.56123	0.02834
5093.63256	0.02838
5091.70388	0.02842
5089.77521	0.02847
5087.84653	0.02852
5085.91785	0.02857
5083.98918	0.02860
5082.06050	0.02865
5080.13183	0.02872
5078.20315	0.02879
5076.27448	0.02885
5074.34580	0.02888
5072.41712	0.02891
5070.48845	0.02894
5068.55977	0.02897
5066.63110	0.02901
5064.70242	0.02906
5062.77375	0.02913
5060.84507	0.02919
5058.91639	0.02924
5056.98772	0.02929
5055.05904	0.02935
5053.13037	0.02940
5051.20169	0.02945
5049.27302	0.02949
5047.34434	0.02954
5045.41566	0.02961
5043.48699	0.02967
5041.55831	0.02970
5039.62964	0.02971
5037.70096	0.02974
5035.77229	0.02979
5033.84361	0.02986
5031.91493	0.02992
5029.98626	0.02996
5028.05758	0.03000
5026.12891	0.03005
5024.20023	0.03012
5022.27156	0.03018
5020.34288	0.03024
5018.41420	0.03029
5016.48553	0.03032
5014.55685	0.03035
5012.62818	0.03039
5010.69950	0.03044
5008.77083	0.03050
5006.84215	0.03055
5004.91347	0.03060
5002.98480	0.03065
5001.05612	0.03071
4999.12745	0.03076
4997.19877	0.03082
4995.27010	0.03088
4993.34142	0.03094
4991.41274	0.03098
4989.48407	0.03100
4987.55539	0.03104
4985.62672	0.03111
4983.69804	0.03118
4981.76937	0.03122
4979.84069	0.03126
4977.91201	0.03129
4975.98334	0.03133
4974.05466	0.03136
4972.12599	0.03141
4970.19731	0.03148
4968.26864	0.03155
4966.33996	0.03161
4964.41128	0.03166
4962.48261	0.03170
4960.55393	0.03175
4958.62526	0.03181
4956.69658	0.03188
4954.76791	0.03194
4952.83923	0.03200
4950.91055	0.03205
4948.98188	0.03210
4947.05320	0.03214
4945.12453	0.03217
4943.19585	0.03222
4941.26718	0.03227
4939.33850	0.03233
4937.40982	0.03237
4935.48115	0.03240
4933.55247	0.03246
4931.62380	0.03253
4929.69512	0.03258
4927.76645	0.03263
4925.83777	0.03269
4923.90909	0.03274
4921.98042	0.03279
4920.05174	0.03283
4918.12307	0.03289
4916.19439	0.03294
4914.26572	0.03299
4912.33704	0.03306
4910.40836	0.03312
4908.47969	0.03316
4906.55101	0.03320
4904.62234	0.03325
4902.69366	0.03331
4900.76499	0.03337
4898.83631	0.03342
4896.90763	0.03348
4894.97896	0.03355
4893.05028	0.03360
4891.12161	0.03365
4889.19293	0.03371
4887.26426	0.03377
4885.33558	0.03382
4883.40690	0.03388
4881.47823	0.03393
4879.54955	0.03397
4877.62088	0.03399
4875.69220	0.03403
4873.76353	0.03410
4871.83485	0.03417
4869.90617	0.03423
4867.97750	0.03428
4866.04882	0.03431
4864.12015	0.03434
4862.19147	0.03441
4860.26280	0.03449
4858.33412	0.03456
4856.40544	0.03460
4854.47677	0.03464
4852.54809	0.03469
4850.61942	0.03475
4848.69074	0.03480
4846.76207	0.03484
4844.83339	0.03489
4842.90471	0.03496
4840.97604	0.03502
4839.04736	0.03508
4837.11869	0.03514
4835.19001	0.03520
4833.26134	0.03525
4831.33266	0.03532
4829.40398	0.03538
4827.47531	0.03546
4825.54663	0.03552
4823.61796	0.03556
4821.68928	0.03560
4819.76061	0.03565
4817.83193	0.03570
4815.90325	0.03575
4813.97458	0.03581
4812.04590	0.03587
4810.11723	0.03593
4808.18855	0.03600
4806.25988	0.03606
4804.33120	0.03613
4802.40252	0.03619
4800.47385	0.03624
4798.54517	0.03629
4796.61650	0.03636
4794.68782	0.03642
4792.75915	0.03647
4790.83047	0.03651
4788.90179	0.03656
4786.97312	0.03661
4785.04444	0.03668
4783.11577	0.03675
4781.18709	0.03681
4779.25842	0.03686
4777.32974	0.03688
4775.40106	0.03694
4773.47239	0.03702
4771.54371	0.03710
4769.61504	0.03716
4767.68636	0.03721
4765.75769	0.03725
4763.82901	0.03731
4761.90033	0.03739
4759.97166	0.03745
4758.04298	0.03751
4756.11431	0.03756
4754.18563	0.03761
4752.25696	0.03766
4750.32828	0.03771
4748.39960	0.03778
4746.47093	0.03785
4744.54225	0.03791
4742.61358	0.03798
4740.68490	0.03804
4738.75623	0.03810
4736.82755	0.03816
4734.89887	0.03822
4732.97020	0.03827
4731.04152	0.03832
4729.11285	0.03838
4727.18417	0.03844
4725.25550	0.03848
4723.32682	0.03852
4721.39814	0.03858
4719.46947	0.03866
4717.54079	0.03876
4715.61212	0.03884
4713.68344	0.03889
4711.75477	0.03893
4709.82609	0.03899
4707.89741	0.03905
4705.96874	0.03912
4704.04006	0.03918
4702.11139	0.03924
4700.18271	0.03929
4698.25404	0.03936
4696.32536	0.03943
4694.39668	0.03948
4692.46801	0.03955
4690.53933	0.03963
4688.61066	0.03970
4686.68198	0.03975
4684.75331	0.03980
4682.82463	0.03984
4680.89595	0.03989
4678.96728	0.03994
4677.03860	0.04001
4675.10993	0.04009
4673.18125	0.04016
4671.25258	0.04023
4669.32390	0.04032
4667.39522	0.04040
4665.46655	0.04046
4663.53787	0.04052
4661.60920	0.04058
4659.68052	0.04064
4657.75185	0.04069
4655.82317	0.04075
4653.89449	0.04084
4651.96582	0.04093
4650.03714	0.04099
4648.10847	0.04103
4646.17979	0.04110
4644.25112	0.04118
4642.32244	0.04126
4640.39376	0.04131
4638.46509	0.04135
4636.53641	0.04141
4634.60774	0.04148
4632.67906	0.04155
4630.75039	0.04163
4628.82171	0.04171
4626.89303	0.04178
4624.96436	0.04184
4623.03568	0.04189
4621.10701	0.04195
4619.17833	0.04201
4617.24966	0.04207
4615.32098	0.04215
4613.39230	0.04224
4611.46363	0.04231
4609.53495	0.04237
4607.60628	0.04245
4605.67760	0.04252
4603.74893	0.04260
4601.82025	0.04267
4599.89157	0.04275
4597.96290	0.04283
4596.03422	0.04289
4594.10555	0.04295
4592.17687	0.04302
4590.24820	0.04309
4588.31952	0.04315
4586.39084	0.04321
4584.46217	0.04326
4582.53349	0.04332
4580.60482	0.04339
4578.67614	0.04347
4576.74747	0.04354
4574.81879	0.04363
4572.89011	0.04370
4570.96144	0.04376
4569.03276	0.04382
4567.10409	0.04389
4565.17541	0.04397
4563.24674	0.04406
4561.31806	0.04415
4559.38938	0.04422
4557.46071	0.04431
4555.53203	0.04441
4553.60336	0.04449
4551.67468	0.04454
4549.74601	0.04459
4547.81733	0.04464
4545.88865	0.04472
4543.95998	0.04481
4542.03130	0.04487
4540.10263	0.04493
4538.17395	0.04499
4536.24528	0.04507
4534.31660	0.04515
4532.38792	0.04523
4530.45925	0.04530
4528.53057	0.04539
4526.60190	0.04547
4524.67322	0.04553
4522.74455	0.04560
4520.81587	0.04571
4518.88719	0.04581
4516.95852	0.04589
4515.02984	0.04595
4513.10117	0.04602
4511.17249	0.04609
4509.24382	0.04617
4507.31514	0.04626
4505.38646	0.04634
4503.45779	0.04641
4501.52911	0.04646
4499.60044	0.04652
4497.67176	0.04658
4495.74309	0.04665
4493.81441	0.04673
4491.88573	0.04683
4489.95706	0.04693
4488.02838	0.04701
4486.09971	0.04708
4484.17103	0.04714
4482.24236	0.04722
4480.31368	0.04731
4478.38500	0.04739
4476.45633	0.04747
4474.52765	0.04756
4472.59898	0.04764
4470.67030	0.04770
4468.74163	0.04779
4466.81295	0.04789
4464.88427	0.04798
4462.95560	0.04805
4461.02692	0.04810
4459.09825	0.04817
4457.16957	0.04825
4455.24090	0.04834
4453.31222	0.04842
4451.38354	0.04850
4449.45487	0.04857
4447.52619	0.04864
4445.59752	0.04873
4443.66884	0.04883
4441.74017	0.04892
4439.81149	0.04901
4437.88281	0.04910
4435.95414	0.04920
4434.02546	0.04929
4432.09679	0.04937
4430.16811	0.04944
4428.23944	0.04952
4426.31076	0.04959
4424.38208	0.04966
4422.45341	0.04972
4420.52473	0.04980
4418.59606	0.04992
4416.66738	0.05006
4414.73871	0.05016
4412.81003	0.05025
4410.88135	0.05033
4408.95268	0.05041
4407.02400	0.05048
4405.09533	0.05056
4403.16665	0.05065
4401.23798	0.05075
4399.30930	0.05082
4397.38062	0.05088
4395.45195	0.05096
4393.52327	0.05108
4391.59460	0.05120
4389.66592	0.05130
4387.73725	0.05138
4385.80857	0.05147
4383.87989	0.05157
4381.95122	0.05166
4380.02254	0.05175
4378.09387	0.05183
4376.16519	0.05190
4374.23652	0.05197
4372.30784	0.05203
4370.37916	0.05211
4368.45049	0.05221
4366.52181	0.05232
4364.59314	0.05245
4362.66446	0.05256
4360.73579	0.05263
4358.80711	0.05269
4356.87843	0.05276
4354.94976	0.05285
4353.02108	0.05295
4351.09241	0.05306
4349.16373	0.05317
4347.23506	0.05328
4345.30638	0.05339
4343.37770	0.05349
4341.44903	0.05357
4339.52035	0.05364
4337.59168	0.05373
4335.66300	0.05383
4333.73433	0.05393
4331.80565	0.05402
4329.87697	0.05411
4327.94830	0.05420
4326.01962	0.05430
4324.09095	0.05439
4322.16227	0.05448
4320.23360	0.05459
4318.30492	0.05471
4316.37624	0.05482
4314.44757	0.05491
4312.51889	0.05499
4310.59022	0.05510
4308.66154	0.05520
4306.73287	0.05528
4304.80419	0.05538
4302.87551	0.05547
4300.94684	0.05555
4299.01816	0.05565
4297.08949	0.05577
4295.16081	0.05588
4293.23214	0.05598
4291.30346	0.05609
4289.37478	0.05618
4287.44611	0.05629
4285.51743	0.05643
4283.58876	0.05655
4281.66008	0.05665
4279.73141	0.05674
4277.80273	0.05684
4275.87405	0.05696
4273.94538	0.05707
4272.01670	0.05717
4270.08803	0.05726
4268.15935	0.05736
4266.23068	0.05746
4264.30200	0.05755
4262.37332	0.05762
4260.44465	0.05770
4258.51597	0.05781
4256.58730	0.05793
4254.65862	0.05805
4252.72995	0.05815
4250.80127	0.05823
4248.87259	0.05833
4246.94392	0.05842
4245.01524	0.05854
4243.08657	0.05868
4241.15789	0.05882
4239.22922	0.05891
4237.30054	0.05899
4235.37186	0.05908
4233.44319	0.05918
4231.51451	0.05929
4229.58584	0.05939
4227.65716	0.05950
4225.72849	0.05961
4223.79981	0.05972
4221.87113	0.05983
4219.94246	0.05994
4218.01378	0.06006
4216.08511	0.06017
4214.15643	0.06028
4212.22776	0.06040
4210.29908	0.06053
4208.37040	0.06064
4206.44173	0.06073
4204.51305	0.06081
4202.58438	0.06090
4200.65570	0.06102
4198.72703	0.06115
4196.79835	0.06127
4194.86968	0.06138
4192.94100	0.06149
4191.01232	0.06161
4189.08365	0.06174
4187.15497	0.06184
4185.22630	0.06194
4183.29762	0.06208
4181.36895	0.06224
4179.44027	0.06236
4177.51159	0.06245
4175.58292	0.06255
4173.65424	0.06267
4171.72557	0.06280
4169.79689	0.06293
4167.86822	0.06306
4165.93954	0.06317
4164.01086	0.06325
4162.08219	0.06336
4160.15351	0.06349
4158.22484	0.06361
4156.29616	0.06370
4154.36749	0.06381
4152.43881	0.06394
4150.51013	0.06405
4148.58146	0.06415
4146.65278	0.06425
4144.72411	0.06438
4142.79543	0.06452
4140.86676	0.06464
4138.93808	0.06476
4137.00940	0.06488
4135.08073	0.06501
4133.15205	0.06514
4131.22338	0.06527
4129.29470	0.06539
4127.36603	0.06550
4125.43735	0.06562
4123.50867	0.06574
4121.58000	0.06587
4119.65132	0.06600
4117.72265	0.06612
4115.79397	0.06623
4113.86530	0.06633
4111.93662	0.06645
4110.00794	0.06658
4108.07927	0.06671
4106.15059	0.06683
4104.22192	0.06695
4102.29324	0.06707
4100.36457	0.06718
4098.43589	0.06731
4096.50721	0.06746
4094.57854	0.06760
4092.64986	0.06771
4090.72119	0.06781
4088.79251	0.06794
4086.86384	0.06808
4084.93516	0.06822
4083.00648	0.06837
4081.07781	0.06850
4079.14913	0.06861
4077.22046	0.06873
4075.29178	0.06886
4073.36311	0.06899
4071.43443	0.06911
4069.50575	0.06923
4067.57708	0.06936
4065.64840	0.06951
4063.71973	0.06965
4061.79105	0.06979
4059.86238	0.06994
4057.93370	0.07008
4056.00502	0.07022
4054.07635	0.07035
4052.14767	0.07047
4050.21900	0.07057
4048.29032	0.07069
4046.36165	0.07084
4044.43297	0.07099
4042.50429	0.07112
4040.57562	0.07125
4038.64694	0.07137
4036.71827	0.07149
4034.78959	0.07160
4032.86092	0.07174
4030.93224	0.07188
4029.00356	0.07201
4027.07489	0.07215
4025.14621	0.07228
4023.21754	0.07241
4021.28886	0.07253
4019.36019	0.07265
4017.43151	0.07279
4015.50283	0.07293
4013.57416	0.07308
4011.64548	0.07322
4009.71681	0.07336
4007.78813	0.07351
4005.85946	0.07366
4003.93078	0.07381
4002.00210	0.07395
4000.07343	0.07407
3998.14475	0.07419
3996.21608	0.07434
3994.28740	0.07448
3992.35873	0.07459
3990.43005	0.07472
3988.50137	0.07489
3986.57270	0.07507
3984.64402	0.07521
3982.71535	0.07534
3980.78667	0.07549
3978.85800	0.07564
3976.92932	0.07576
3975.00064	0.07586
3973.07197	0.07598
3971.14329	0.07614
3969.21462	0.07629
3967.28594	0.07642
3965.35727	0.07654
3963.42859	0.07668
3961.49991	0.07683
3959.57124	0.07698
3957.64256	0.07712
3955.71389	0.07728
3953.78521	0.07742
3951.85654	0.07752
3949.92786	0.07761
3947.99918	0.07776
3946.07051	0.07791
3944.14183	0.07804
3942.21316	0.07819
3940.28448	0.07838
3938.35581	0.07853
3936.42713	0.07864
3934.49845	0.07872
3932.56978	0.07881
3930.64110	0.07898
3928.71243	0.07920
3926.78375	0.07937
3924.85508	0.07949
3922.92640	0.07963
3920.99772	0.07975
3919.06905	0.07984
3917.14037	0.08000
3915.21170	0.08026
3913.28302	0.08050
3911.35435	0.08066
3909.42567	0.08076
3907.49699	0.08076
3905.56832	0.08068
3903.63964	0.08068
3901.71097	0.08083
3899.78229	0.08108
3897.85362	0.08143
3895.92494	0.08173
3893.99626	0.08184
3892.06759	0.08188
3890.13891	0.08203
3888.21024	0.08215
3886.28156	0.08220
3884.35289	0.08235
3882.42421	0.08254
3880.49553	0.08271
3878.56686	0.08299
3876.63818	0.08322
3874.70951	0.08330
3872.78083	0.08332
3870.85216	0.08337
3868.92348	0.08354
3866.99480	0.08376
3865.06613	0.08390
3863.13745	0.08408
3861.20878	0.08436
3859.28010	0.08457
3857.35143	0.08446
3855.42275	0.08409
3853.49407	0.08405
3851.56540	0.08461
3849.63672	0.08529
3847.70805	0.08567
3845.77937	0.08578
3843.85070	0.08578
3841.92202	0.08576
3839.99334	0.08578
3838.06467	0.08591
3836.13599	0.08618
3834.20732	0.08646
3832.27864	0.08671
3830.34997	0.08694
3828.42129	0.08713
3826.49261	0.08727
3824.56394	0.08732
3822.63526	0.08727
3820.70659	0.08735
3818.77791	0.08761
3816.84924	0.08784
3814.92056	0.08813
3812.99188	0.08853
3811.06321	0.08877
3809.13453	0.08877
3807.20586	0.08875
3805.27718	0.08887
3803.34851	0.08897
3801.41983	0.08909
3799.49115	0.08934
3797.56248	0.08961
3795.63380	0.08986
3793.70513	0.09015
3791.77645	0.09039
3789.84778	0.09057
3787.91910	0.09071
3785.99042	0.09083
3784.06175	0.09100
3782.13307	0.09115
3780.20440	0.09124
3778.27572	0.09142
3776.34705	0.09170
3774.41837	0.09191
3772.48969	0.09195
3770.56102	0.09195
3768.63234	0.09209
3766.70367	0.09233
3764.77499	0.09259
3762.84632	0.09278
3760.91764	0.09284
3758.98896	0.09292
3757.06029	0.09311
3755.13161	0.09320
3753.20294	0.09304
3751.27426	0.09290
3749.34559	0.09305
3747.41691	0.09321
3745.48823	0.09319
3743.55956	0.09347
3741.63088	0.09409
3739.70221	0.09441
3737.77353	0.09430
3735.84486	0.09426
3733.91618	0.09453
3731.98750	0.09498
3730.05883	0.09538
3728.13015	0.09559
3726.20148	0.09567
3724.27280	0.09582
3722.34413	0.09608
3720.41545	0.09639
3718.48677	0.09665
3716.55810	0.09678
3714.62942	0.09676
3712.70075	0.09670
3710.77207	0.09685
3708.84340	0.09724
3706.91472	0.09763
3704.98604	0.09783
3703.05737	0.09787
3701.12869	0.09802
3699.20002	0.09830
3697.27134	0.09856
3695.34267	0.09869
3693.41399	0.09871
3691.48531	0.09861
3689.55664	0.09862
3687.62796	0.09892
3685.69929	0.09936
3683.77061	0.09970
3681.84194	0.09986
3679.91326	0.09985
3677.98458	0.09966
3676.05591	0.09952
3674.12723	0.09973
3672.19856	0.10005
3670.26988	0.10030
3668.34121	0.10066
3666.41253	0.10109
3664.48385	0.10140
3662.55518	0.10161
3660.62650	0.10173
3658.69783	0.10173
3656.76915	0.10174
3654.84048	0.10186
3652.91180	0.10181
3650.98312	0.10146
3649.05445	0.10125
3647.12577	0.10154
3645.19710	0.10214
3643.26842	0.10267
3641.33975	0.10299
3639.41107	0.10321
3637.48239	0.10337
3635.55372	0.10347
3633.62504	0.10350
3631.69637	0.10332
3629.76769	0.10312
3627.83902	0.10338
3625.91034	0.10396
3623.98166	0.10432
3622.05299	0.10432
3620.12431	0.10422
3618.19564	0.10429
3616.26696	0.10449
3614.33829	0.10463
3612.40961	0.10471
3610.48093	0.10480
3608.55226	0.10494
3606.62358	0.10520
3604.69491	0.10549
3602.76623	0.10568
3600.83756	0.10581
3598.90888	0.10592
3596.98020	0.10600
3595.05153	0.10611
3593.12285	0.10627
3591.19418	0.10633
3589.26550	0.10624
3587.33683	0.10629
3585.40815	0.10663
3583.47947	0.10701
3581.55080	0.10725
3579.62212	0.10740
3577.69345	0.10754
3575.76477	0.10769
3573.83610	0.10782
3571.90742	0.10788
3569.97874	0.10780
3568.05007	0.10772
3566.12139	0.10788
3564.19272	0.10822
3562.26404	0.10852
3560.33537	0.10874
3558.40669	0.10893
3556.47801	0.10907
3554.54934	0.10914
3552.62066	0.10921
3550.69199	0.10935
3548.76331	0.10947
3546.83464	0.10952
3544.90596	0.10963
3542.97728	0.10983
3541.04861	0.11003
3539.11993	0.11015
3537.19126	0.11024
3535.26258	0.11036
3533.33391	0.11047
3531.40523	0.11052
3529.47655	0.11054
3527.54788	0.11058
3525.61920	0.11065
3523.69053	0.11076
3521.76185	0.11088
3519.83318	0.11100
3517.90450	0.11108
3515.97582	0.11114
3514.04715	0.11118
3512.11847	0.11120
3510.18980	0.11126
3508.26112	0.11138
3506.33245	0.11148
3504.40377	0.11151
3502.47509	0.11154
3500.54642	0.11161
3498.61774	0.11168
3496.68907	0.11173
3494.76039	0.11177
3492.83172	0.11181
3490.90304	0.11185
3488.97436	0.11189
3487.04569	0.11197
3485.11701	0.11205
3483.18834	0.11211
3481.25966	0.11220
3479.33099	0.11233
3477.40231	0.11244
3475.47363	0.11256
3473.54496	0.11272
3471.61628	0.11292
3469.68761	0.11308
3467.75893	0.11322
3465.83026	0.11338
3463.90158	0.11356
3461.97290	0.11377
3460.04423	0.11399
3458.11555	0.11419
3456.18688	0.11435
3454.25820	0.11450
3452.32953	0.11467
3450.40085	0.11482
3448.47217	0.11493
3446.54350	0.11508
3444.61482	0.11529
3442.68615	0.11552
3440.75747	0.11575
3438.82880	0.11602
3436.90012	0.11633
3434.97144	0.11666
3433.04277	0.11701
3431.11409	0.11736
3429.18542	0.11773
3427.25674	0.11811
3425.32807	0.11850
3423.39939	0.11884
3421.47071	0.11915
3419.54204	0.11947
3417.61336	0.11979
3415.68469	0.12009
3413.75601	0.12039
3411.82734	0.12068
3409.89866	0.12092
3407.96998	0.12114
3406.04131	0.12138
3404.11263	0.12163
3402.18396	0.12189
3400.25528	0.12214
3398.32661	0.12238
3396.39793	0.12262
3394.46925	0.12285
3392.54058	0.12309
3390.61190	0.12337
3388.68323	0.12365
3386.75455	0.12387
3384.82588	0.12406
3382.89720	0.12431
3380.96852	0.12459
3379.03985	0.12485
3377.11117	0.12510
3375.18250	0.12533
3373.25382	0.12553
3371.32515	0.12572
3369.39647	0.12596
3367.46779	0.12621
3365.53912	0.12645
3363.61044	0.12670
3361.68177	0.12694
3359.75309	0.12715
3357.82442	0.12736
3355.89574	0.12758
3353.96706	0.12780
3352.03839	0.12803
3350.10971	0.12824
3348.18104	0.12845
3346.25236	0.12867
3344.32369	0.12891
3342.39501	0.12918
3340.46633	0.12942
3338.53766	0.12962
3336.60898	0.12982
3334.68031	0.13004
3332.75163	0.13029
3330.82296	0.13054
3328.89428	0.13077
3326.96560	0.13097
3325.03693	0.13117
3323.10825	0.13140
3321.17958	0.13164
3319.25090	0.13188
3317.32223	0.13212
3315.39355	0.13235
3313.46487	0.13257
3311.53620	0.13281
3309.60752	0.13308
3307.67885	0.13334
3305.75017	0.13357
3303.82150	0.13380
3301.89282	0.13403
3299.96414	0.13426
3298.03547	0.13450
3296.10679	0.13477
3294.17812	0.13503
3292.24944	0.13526
3290.32077	0.13549
3288.39209	0.13572
3286.46341	0.13596
3284.53474	0.13622
3282.60606	0.13648
3280.67739	0.13673
3278.74871	0.13699
3276.82004	0.13726
3274.89136	0.13749
3272.96268	0.13771
3271.03401	0.13794
3269.10533	0.13821
3267.17666	0.13847
3265.24798	0.13870
3263.31931	0.13894
3261.39063	0.13920
3259.46195	0.13945
3257.53328	0.13969
3255.60460	0.13994
3253.67593	0.14019
3251.74725	0.14042
3249.81858	0.14065
3247.88990	0.14091
3245.96122	0.14117
3244.03255	0.14141
3242.10387	0.14165
3240.17520	0.14193
3238.24652	0.14222
3236.31785	0.14246
3234.38917	0.14268
3232.46049	0.14291
3230.53182	0.14317
3228.60314	0.14344
3226.67447	0.14369
3224.74579	0.14393
3222.81712	0.14417
3220.88844	0.14439
3218.95976	0.14463
3217.03109	0.14489
3215.10241	0.14514
3213.17374	0.14536
3211.24506	0.14559
3209.31639	0.14585
3207.38771	0.14613
3205.45903	0.14640
3203.53036	0.14666
3201.60168	0.14693
3199.67301	0.14722
3197.74433	0.14750
3195.81566	0.14778
3193.88698	0.14806
3191.95830	0.14833
3190.02963	0.14858
3188.10095	0.14882
3186.17228	0.14907
3184.24360	0.14932
3182.31493	0.14955
3180.38625	0.14979
3178.45757	0.15005
3176.52890	0.15031
3174.60022	0.15060
3172.67155	0.15090
3170.74287	0.15118
3168.81420	0.15142
3166.88552	0.15168
3164.95684	0.15197
3163.02817	0.15223
3161.09949	0.15245
3159.17082	0.15267
3157.24214	0.15293
3155.31347	0.15322
3153.38479	0.15350
3151.45611	0.15374
3149.52744	0.15400
3147.59876	0.15429
3145.67009	0.15457
3143.74141	0.15483
3141.81274	0.15509
3139.88406	0.15535
3137.95538	0.15558
3136.02671	0.15578
3134.09803	0.15600
3132.16936	0.15627
3130.24068	0.15656
3128.31201	0.15684
3126.38333	0.15709
3124.45465	0.15733
3122.52598	0.15760
3120.59730	0.15788
3118.66863	0.15817
3116.73995	0.15843
3114.81128	0.15866
3112.88260	0.15889
3110.95392	0.15916
3109.02525	0.15943
3107.09657	0.15967
3105.16790	0.15990
3103.23922	0.16015
3101.31055	0.16041
3099.38187	0.16067
3097.45319	0.16093
3095.52452	0.16119
3093.59584	0.16145
3091.66717	0.16173
3089.73849	0.16201
3087.80982	0.16228
3085.88114	0.16251
3083.95246	0.16274
3082.02379	0.16297
3080.09511	0.16324
3078.16644	0.16351
3076.23776	0.16376
3074.30909	0.16402
3072.38041	0.16430
3070.45173	0.16458
3068.52306	0.16483
3066.59438	0.16506
3064.66571	0.16530
3062.73703	0.16554
3060.80836	0.16580
3058.87968	0.16604
3056.95100	0.16626
3055.02233	0.16651
3053.09365	0.16680
3051.16498	0.16712
3049.23630	0.16741
3047.30763	0.16767
3045.37895	0.16792
3043.45027	0.16817
3041.52160	0.16843
3039.59292	0.16867
3037.66425	0.16889
3035.73557	0.16912
3033.80690	0.16937
3031.87822	0.16962
3029.94954	0.16988
3028.02087	0.17016
3026.09219	0.17043
3024.16352	0.17068
3022.23484	0.17090
3020.30617	0.17114
3018.37749	0.17139
3016.44881	0.17163
3014.52014	0.17190
3012.59146	0.17218
3010.66279	0.17244
3008.73411	0.17269
3006.80544	0.17293
3004.87676	0.17320
3002.94808	0.17350
3001.01941	0.17377
2999.09073	0.17400
2997.16206	0.17422
2995.23338	0.17446
2993.30471	0.17470
2991.37603	0.17490
2989.44735	0.17508
2987.51868	0.17528
2985.59000	0.17549
2983.66133	0.17567
2981.73265	0.17582
2979.80398	0.17596
2977.87530	0.17605
2975.94662	0.17607
2974.01795	0.17606
2972.08927	0.17605
2970.16060	0.17605
2968.23192	0.17605
2966.30325	0.17607
2964.37457	0.17616
2962.44589	0.17631
2960.51722	0.17653
2958.58854	0.17681
2956.65987	0.17715
2954.73119	0.17754
2952.80252	0.17792
2950.87384	0.17826
2948.94516	0.17854
2947.01649	0.17877
2945.08781	0.17893
2943.15914	0.17903
2941.23046	0.17906
2939.30179	0.17905
2937.37311	0.17902
2935.44443	0.17899
2933.51576	0.17894
2931.58708	0.17891
2929.65841	0.17889
2927.72973	0.17886
2925.80106	0.17883
2923.87238	0.17883
2921.94370	0.17890
2920.01503	0.17907
2918.08635	0.17939
2916.15768	0.17993
2914.22900	0.18070
2912.30033	0.18156
2910.37165	0.18235
2908.44297	0.18299
2906.51430	0.18352
2904.58562	0.18400
2902.65695	0.18445
2900.72827	0.18485
2898.79960	0.18522
2896.87092	0.18557
2894.94224	0.18590
2893.01357	0.18625
2891.08489	0.18663
2889.15622	0.18701
2887.22754	0.18736
2885.29887	0.18770
2883.37019	0.18800
2881.44151	0.18825
2879.51284	0.18849
2877.58416	0.18874
2875.65549	0.18899
2873.72681	0.18924
2871.79814	0.18947
2869.86946	0.18968
2867.94078	0.18990
2866.01211	0.19010
2864.08343	0.19027
2862.15476	0.19040
2860.22608	0.19050
2858.29741	0.19055
2856.36873	0.19055
2854.44005	0.19051
2852.51138	0.19050
2850.58270	0.19065
2848.65403	0.19115
2846.72535	0.19198
2844.79668	0.19288
2842.86800	0.19363
2840.93932	0.19423
2839.01065	0.19476
2837.08197	0.19521
2835.15330	0.19561
2833.22462	0.19595
2831.29595	0.19626
2829.36727	0.19656
2827.43859	0.19689
2825.50992	0.19724
2823.58124	0.19758
2821.65257	0.19791
2819.72389	0.19820
2817.79522	0.19847
2815.86654	0.19874
2813.93786	0.19903
2812.00919	0.19932
2810.08051	0.19960
2808.15184	0.19990
2806.22316	0.20021
2804.29449	0.20050
2802.36581	0.20079
2800.43713	0.20111
2798.50846	0.20140
2796.57978	0.20166
2794.65111	0.20191
2792.72243	0.20219
2790.79376	0.20246
2788.86508	0.20273
2786.93640	0.20304
2785.00773	0.20338
2783.07905	0.20369
2781.15038	0.20394
2779.22170	0.20419
2777.29303	0.20447
2775.36435	0.20476
2773.43567	0.20504
2771.50700	0.20534
2769.57832	0.20563
2767.64965	0.20589
2765.72097	0.20614
2763.79230	0.20640
2761.86362	0.20668
2759.93494	0.20697
2758.00627	0.20726
2756.07759	0.20753
2754.14892	0.20779
2752.22024	0.20806
2750.29157	0.20830
2748.36289	0.20853
2746.43421	0.20880
2744.50554	0.20911
2742.57686	0.20941
2740.64819	0.20966
2738.71951	0.20987
2736.79084	0.21010
2734.86216	0.21039
2732.93348	0.21068
2731.00481	0.21094
2729.07613	0.21121
2727.14746	0.21149
2725.21878	0.21176
2723.29011	0.21205
2721.36143	0.21233
2719.43275	0.21258
2717.50408	0.21283
2715.57540	0.21309
2713.64673	0.21336
2711.71805	0.21363
2709.78938	0.21390
2707.86070	0.21415
2705.93202	0.21441
2704.00335	0.21469
2702.07467	0.21499
2700.14600	0.21527
2698.21732	0.21553
2696.28865	0.21580
2694.35997	0.21606
2692.43129	0.21629
2690.50262	0.21652
2688.57394	0.21678
2686.64527	0.21705
2684.71659	0.21730
2682.78792	0.21758
2680.85924	0.21789
2678.93056	0.21818
2677.00189	0.21844
2675.07321	0.21868
2673.14454	0.21893
2671.21586	0.21922
2669.28719	0.21952
2667.35851	0.21979
2665.42983	0.22003
2663.50116	0.22029
2661.57248	0.22057
2659.64381	0.22085
2657.71513	0.22114
2655.78646	0.22145
2653.85778	0.22176
2651.92910	0.22205
2650.00043	0.22233
2648.07175	0.22261
2646.14308	0.22286
2644.21440	0.22313
2642.28573	0.22343
2640.35705	0.22374
2638.42837	0.22401
2636.49970	0.22428
2634.57102	0.22456
2632.64235	0.22485
2630.71367	0.22511
2628.78500	0.22536
2626.85632	0.22566
2624.92764	0.22602
2622.99897	0.22637
2621.07029	0.22666
2619.14162	0.22690
2617.21294	0.22715
2615.28427	0.22744
2613.35559	0.22777
2611.42691	0.22809
2609.49824	0.22837
2607.56956	0.22861
2605.64089	0.22887
2603.71221	0.22915
2601.78354	0.22945
2599.85486	0.22972
2597.92618	0.23000
2595.99751	0.23031
2594.06883	0.23063
2592.14016	0.23091
2590.21148	0.23119
2588.28281	0.23148
2586.35413	0.23176
2584.42545	0.23202
2582.49678	0.23228
2580.56810	0.23256
2578.63943	0.23286
2576.71075	0.23314
2574.78208	0.23341
2572.85340	0.23370
2570.92472	0.23399
2568.99605	0.23426
2567.06737	0.23450
2565.13870	0.23475
2563.21002	0.23503
2561.28135	0.23532
2559.35267	0.23562
2557.42399	0.23589
2555.49532	0.23614
2553.56664	0.23640
2551.63797	0.23670
2549.70929	0.23700
2547.78062	0.23730
2545.85194	0.23757
2543.92326	0.23782
2541.99459	0.23807
2540.06591	0.23835
2538.13724	0.23866
2536.20856	0.23896
2534.27989	0.23924
2532.35121	0.23951
2530.42253	0.23978
2528.49386	0.24003
2526.56518	0.24029
2524.63651	0.24058
2522.70783	0.24090
2520.77916	0.24123
2518.85048	0.24155
2516.92181	0.24184
2514.99313	0.24211
2513.06445	0.24237
2511.13578	0.24265
2509.20710	0.24294
2507.27843	0.24322
2505.34975	0.24355
2503.42108	0.24390
2501.49240	0.24423
2499.56372	0.24455
2497.63505	0.24486
2495.70637	0.24515
2493.77770	0.24546
2491.84902	0.24577
2489.92035	0.24606
2487.99167	0.24634
2486.06299	0.24664
2484.13432	0.24697
2482.20564	0.24731
2480.27697	0.24761
2478.34829	0.24788
2476.41962	0.24814
2474.49094	0.24841
2472.56226	0.24870
2470.63359	0.24903
2468.70491	0.24937
2466.77624	0.24968
2464.84756	0.24996
2462.91889	0.25026
2460.99021	0.25060
2459.06153	0.25093
2457.13286	0.25122
2455.20418	0.25147
2453.27551	0.25173
2451.34683	0.25200
2449.41816	0.25231
2447.48948	0.25263
2445.56080	0.25296
2443.63213	0.25330
2441.70345	0.25360
2439.77478	0.25387
2437.84610	0.25415
2435.91743	0.25444
2433.98875	0.25475
2432.06007	0.25506
2430.13140	0.25537
2428.20272	0.25568
2426.27405	0.25598
2424.34537	0.25625
2422.41670	0.25652
2420.48802	0.25680
2418.55934	0.25710
2416.63067	0.25740
2414.70199	0.25765
2412.77332	0.25791
2410.84464	0.25823
2408.91597	0.25857
2406.98729	0.25888
2405.05861	0.25920
2403.12994	0.25953
2401.20126	0.25982
2399.27259	0.26010
2397.34391	0.26038
2395.41524	0.26068
2393.48656	0.26097
2391.55788	0.26122
2389.62921	0.26147
2387.70053	0.26173
2385.77186	0.26202
2383.84318	0.26227
2381.91451	0.26247
2379.98583	0.26263
2378.05715	0.26273
2376.12848	0.26280
2374.19980	0.26284
2372.27113	0.26287
2370.34245	0.26292
2368.41378	0.26301
2366.48510	0.26316
2364.55642	0.26334
2362.62775	0.26356
2360.69907	0.26385
2358.77040	0.26422
2356.84172	0.26465
2354.91305	0.26512
2352.98437	0.26570
2351.05569	0.26634
2349.12702	0.26682
2347.19834	0.26701
2345.26967	0.26704
2343.34099	0.26710
2341.41232	0.26726
2339.48364	0.26753
2337.55496	0.26783
2335.62629	0.26810
2333.69761	0.26835
2331.76894	0.26866
2329.84026	0.26902
2327.91159	0.26941
2325.98291	0.26981
2324.05423	0.27024
2322.12556	0.27066
2320.19688	0.27103
2318.26821	0.27139
2316.33953	0.27180
2314.41086	0.27224
2312.48218	0.27264
2310.55350	0.27301
2308.62483	0.27338
2306.69615	0.27377
2304.76748	0.27415
2302.83880	0.27450
2300.91013	0.27482
2298.98145	0.27512
2297.05277	0.27540
2295.12410	0.27568
2293.19542	0.27598
2291.26675	0.27629
2289.33807	0.27659
2287.40940	0.27691
2285.48072	0.27725
2283.55204	0.27758
2281.62337	0.27788
2279.69469	0.27818
2277.76602	0.27849
2275.83734	0.27876
2273.90867	0.27903
2271.97999	0.27934
2270.05131	0.27967
2268.12264	0.27998
2266.19396	0.28026
2264.26529	0.28054
2262.33661	0.28083
2260.40794	0.28111
2258.47926	0.28138
2256.55058	0.28165
2254.62191	0.28194
2252.69323	0.28226
2250.76456	0.28258
2248.83588	0.28288
2246.90721	0.28319
2244.97853	0.28348
2243.04985	0.28375
2241.12118	0.28402
2239.19250	0.28431
2237.26383	0.28462
2235.33515	0.28491
2233.40648	0.28522
2231.47780	0.28556
2229.54912	0.28589
2227.62045	0.28619
2225.69177	0.28646
2223.76310	0.28672
2221.83442	0.28695
2219.90575	0.28717
2217.97707	0.28745
2216.04839	0.28781
2214.11972	0.28816
2212.19104	0.28845
2210.26237	0.28872
2208.33369	0.28900
2206.40502	0.28924
2204.47634	0.28949
2202.54766	0.28980
2200.61899	0.29014
2198.69031	0.29045
2196.76164	0.29074
2194.83296	0.29100
2192.90429	0.29125
2190.97561	0.29154
2189.04693	0.29183
2187.11826	0.29208
2185.18958	0.29236
2183.26091	0.29268
2181.33223	0.29303
2179.40356	0.29336
2177.47488	0.29363
2175.54620	0.29387
2173.61753	0.29415
2171.68885	0.29448
2169.76018	0.29482
2167.83150	0.29513
2165.90283	0.29542
2163.97415	0.29569
2162.04547	0.29595
2160.11680	0.29624
2158.18812	0.29657
2156.25945	0.29689
2154.33077	0.29719
2152.40210	0.29749
2150.47342	0.29783
2148.54474	0.29817
2146.61607	0.29847
2144.68739	0.29878
2142.75872	0.29909
2140.83004	0.29938
2138.90137	0.29965
2136.97269	0.29993
2135.04401	0.30022
2133.11534	0.30050
2131.18666	0.30078
2129.25799	0.30106
2127.32931	0.30136
2125.40064	0.30167
2123.47196	0.30198
2121.54328	0.30228
2119.61461	0.30259
2117.68593	0.30290
2115.75726	0.30318
2113.82858	0.30346
2111.89991	0.30378
2109.97123	0.30411
2108.04255	0.30442
2106.11388	0.30472
2104.18520	0.30502
2102.25653	0.30533
2100.32785	0.30564
2098.39918	0.30596
2096.47050	0.30630
2094.54182	0.30661
2092.61315	0.30686
2090.68447	0.30711
2088.75580	0.30741
2086.82712	0.30772
2084.89845	0.30800
2082.96977	0.30825
2081.04109	0.30856
2079.11242	0.30891
2077.18374	0.30924
2075.25507	0.30954
2073.32639	0.30981
2071.39772	0.31008
2069.46904	0.31037
2067.54036	0.31065
2065.61169	0.31094
2063.68301	0.31123
2061.75434	0.31152
2059.82566	0.31184
2057.89699	0.31217
2055.96831	0.31250
2054.03963	0.31282
2052.11096	0.31312
2050.18228	0.31338
2048.25361	0.31366
2046.32493	0.31398
2044.39626	0.31429
2042.46758	0.31454
2040.53890	0.31479
2038.61023	0.31509
2036.68155	0.31545
2034.75288	0.31581
2032.82420	0.31614
2030.89553	0.31642
2028.96685	0.31666
2027.03817	0.31693
2025.10950	0.31727
2023.18082	0.31763
2021.25215	0.31795
2019.32347	0.31821
2017.39480	0.31848
2015.46612	0.31879
2013.53744	0.31911
2011.60877	0.31942
2009.68009	0.31972
2007.75142	0.32006
2005.82274	0.32042
2003.89407	0.32073
2001.96539	0.32098
2000.03671	0.32120
1998.10804	0.32146
1996.17936	0.32174
1994.25069	0.32193
1992.32201	0.32212
1990.39334	0.32243
1988.46466	0.32282
1986.53598	0.32316
1984.60731	0.32345
1982.67863	0.32371
1980.74996	0.32395
1978.82128	0.32419
1976.89261	0.32446
1974.96393	0.32473
1973.03525	0.32498
1971.10658	0.32519
1969.17790	0.32538
1967.24923	0.32563
1965.32055	0.32598
1963.39188	0.32635
1961.46320	0.32664
1959.53452	0.32689
1957.60585	0.32715
1955.67717	0.32742
1953.74850	0.32770
1951.81982	0.32799
1949.89115	0.32830
1947.96247	0.32857
1946.03379	0.32874
1944.10512	0.32888
1942.17644	0.32913
1940.24777	0.32958
1938.31909	0.33006
1936.39042	0.33044
1934.46174	0.33075
1932.53306	0.33101
1930.60439	0.33123
1928.67571	0.33146
1926.74704	0.33174
1924.81836	0.33199
1922.88969	0.33223
1920.96101	0.33242
1919.03233	0.33250
1917.10366	0.33282
1915.17498	0.33343
1913.24631	0.33388
1911.31763	0.33409
1909.38896	0.33430
1907.46028	0.33464
1905.53160	0.33502
1903.60293	0.33537
1901.67425	0.33567
1899.74558	0.33591
1897.81690	0.33608
1895.88823	0.33625
1893.95955	0.33651
1892.03087	0.33676
1890.10220	0.33694
1888.17352	0.33726
1886.24485	0.33770
1884.31617	0.33806
1882.38750	0.33834
1880.45882	0.33861
1878.53014	0.33893
1876.60147	0.33925
1874.67279	0.33952
1872.74412	0.33963
1870.81544	0.33951
1868.88677	0.33950
1866.95809	0.34001
1865.02941	0.34077
1863.10074	0.34130
1861.17206	0.34162
1859.24339	0.34194
1857.31471	0.34231
1855.38604	0.34266
1853.45736	0.34298
1851.52868	0.34326
1849.60001	0.34341
1847.67133	0.34332
1845.74266	0.34305
1843.81398	0.34319
1841.88531	0.34401
1839.95663	0.34480
1838.02795	0.34520
1836.09928	0.34551
1834.17060	0.34577
1832.24193	0.34575
1830.31325	0.34568
1828.38458	0.34595
1826.45590	0.34636
1824.52722	0.34681
1822.59855	0.34740
1820.66987	0.34790
1818.74120	0.34817
1816.81252	0.34838
1814.88385	0.34860
1812.95517	0.34870
1811.02649	0.34881
1809.09782	0.34911
1807.16914	0.34951
1805.24047	0.34978
1803.31179	0.34979
1801.38312	0.34980
1799.45444	0.35009
1797.52576	0.35044
1795.59709	0.35050
1793.66841	0.35032
1791.73974	0.35047
1789.81106	0.35115
1787.88239	0.35174
1785.95371	0.35191
1784.02503	0.35201
1782.09636	0.35219
1780.16768	0.35249
1778.23901	0.35290
1776.31033	0.35305
1774.38166	0.35272
1772.45298	0.35242
1770.52430	0.35260
1768.59563	0.35313
1766.66695	0.35381
1764.73828	0.35425
1762.80960	0.35425
1760.88093	0.35431
1758.95225	0.35457
1757.02357	0.35477
1755.09490	0.35485
1753.16622	0.35448
1751.23755	0.35389
1749.30887	0.35385
1747.38020	0.35431
1745.45152	0.35468
1743.52284	0.35478
1741.59417	0.35475
1739.66549	0.35480
1737.73682	0.35475
1735.80814	0.35420
1733.87947	0.35392
1731.95079	0.35472
1730.02211	0.35588
1728.09344	0.35674
1726.16476	0.35724
1724.23609	0.35748
1722.30741	0.35755
1720.37874	0.35710
1718.45006	0.35644
1716.52138	0.35652
1714.59271	0.35742
1712.66403	0.35840
1710.73536	0.35895
1708.80668	0.35895
1706.87801	0.35868
1704.94933	0.35848
1703.02065	0.35795
1701.09198	0.35716
1699.16330	0.35717
1697.23463	0.35779
1695.30595	0.35845
1693.37728	0.35927
1691.44860	0.35972
1689.51992	0.35964
1687.59125	0.35920
1685.66257	0.35839
1683.73390	0.35811
1681.80522	0.35887
1679.87655	0.35971
1677.94787	0.35982
1676.01919	0.35953
1674.09052	0.35948
1672.16184	0.35947
1670.23317	0.35936
1668.30449	0.35980
1666.37582	0.36054
1664.44714	0.36074
1662.51846	0.36075
1660.58979	0.36111
1658.66111	0.36134
1656.73244	0.36063
1654.80376	0.35912
1652.87509	0.35855
1650.94641	0.35949
1649.01773	0.36014
1647.08906	0.36018
1645.16038	0.36079
1643.23171	0.36174
1641.30303	0.36217
1639.37436	0.36189
1637.44568	0.36115
1635.51700	0.36095
1633.58833	0.36176
1631.65965	0.36258
1629.73098	0.36265
1627.80230	0.36238
1625.87363	0.36197
1623.94495	0.36132
1622.01627	0.36087
1620.08760	0.36081
1618.15892	0.36104
1616.23025	0.36199
1614.30157	0.36354
1612.37290	0.36471
1610.44422	0.36523
1608.51554	0.36561
1606.58687	0.36611
1604.65819	0.36662
1602.72952	0.36704
1600.80084	0.36743
1598.87217	0.36781
1596.94349	0.36811
1595.01481	0.36836
1593.08614	0.36862
1591.15746	0.36893
1589.22879	0.36928
1587.30011	0.36964
1585.37144	0.36997
1583.44276	0.37026
1581.51408	0.37051
1579.58541	0.37049
1577.65673	0.37016
1575.72806	0.37022
1573.79938	0.37082
1571.87071	0.37109
1569.94203	0.37101
1568.01335	0.37133
1566.08468	0.37186
1564.15600	0.37208
1562.22733	0.37154
1560.29865	0.37035
1558.36998	0.37001
1556.44130	0.37120
1554.51262	0.37259
1552.58395	0.37334
1550.65527	0.37370
1548.72660	0.37400
1546.79792	0.37397
1544.86925	0.37338
1542.94057	0.37262
1541.01189	0.37232
1539.08322	0.37302
1537.15454	0.37420
1535.22587	0.37469
1533.29719	0.37477
1531.36852	0.37521
1529.43984	0.37555
1527.51116	0.37545
1525.58249	0.37523
1523.65381	0.37472
1521.72514	0.37420
1519.79646	0.37443
1517.86779	0.37505
1515.93911	0.37560
1514.01043	0.37612
1512.08176	0.37627
1510.15308	0.37581
1508.22441	0.37519
1506.29573	0.37550
1504.36706	0.37689
1502.43838	0.37792
1500.50970	0.37788
1498.58103	0.37752
1496.65235	0.37770
1494.72368	0.37831
1492.79500	0.37846
1490.86633	0.37796
1488.93765	0.37777
1487.00897	0.37831
1485.08030	0.37897
1483.15162	0.37925
1481.22295	0.37927
1479.29427	0.37909
1477.36560	0.37854
1475.43692	0.37777
1473.50824	0.37720
1471.57957	0.37723
1469.65089	0.37768
1467.72222	0.37777
1465.79354	0.37753
1463.86487	0.37765
1461.93619	0.37781
1460.00751	0.37708
1458.07884	0.37596
1456.15016	0.37605
1454.22149	0.37732
1452.29281	0.37833
1450.36414	0.37858
1448.43546	0.37864
1446.50678	0.37900
1444.57811	0.37949
1442.64943	0.37977
1440.72076	0.37962
1438.79208	0.37890
1436.86341	0.37833
1434.93473	0.37877
1433.00605	0.37945
1431.07738	0.37957
1429.14870	0.37959
1427.22003	0.37969
1425.29135	0.37962
1423.36268	0.37937
1421.43400	0.37875
1419.50532	0.37800
1417.57665	0.37806
1415.64797	0.37876
1413.71930	0.37920
1411.79062	0.37926
1409.86195	0.37922
1407.93327	0.37907
1406.00459	0.37885
1404.07592	0.37880
1402.14724	0.37876
1400.21857	0.37844
1398.28989	0.37809
1396.36122	0.37788
1394.43254	0.37792
1392.50386	0.37822
1390.57519	0.37819
1388.64651	0.37750
1386.71784	0.37684
1384.78916	0.37670
1382.86049	0.37688
1380.93181	0.37708
1379.00313	0.37712
1377.07446	0.37691
1375.14578	0.37661
1373.21711	0.37657
1371.28843	0.37677
1369.35976	0.37689
1367.43108	0.37684
1365.50240	0.37658
1363.57373	0.37619
1361.64505	0.37613
1359.71638	0.37644
1357.78770	0.37671
1355.85903	0.37682
1353.93035	0.37690
1352.00167	0.37699
1350.07300	0.37708
1348.14432	0.37722
1346.21565	0.37742
1344.28697	0.37751
1342.35830	0.37732
1340.42962	0.37697
1338.50094	0.37684
1336.57227	0.37702
1334.64359	0.37725
1332.71492	0.37734
1330.78624	0.37732
1328.85757	0.37725
1326.92889	0.37713
1325.00021	0.37696
1323.07154	0.37680
1321.14286	0.37662
1319.21419	0.37641
1317.28551	0.37624
1315.35684	0.37607
1313.42816	0.37589
1311.49948	0.37573
1309.57081	0.37555
1307.64213	0.37524
1305.71346	0.37485
1303.78478	0.37448
1301.85611	0.37418
1299.92743	0.37388
1297.99875	0.37354
1296.07008	0.37317
1294.14140	0.37279
1292.21273	0.37235
1290.28405	0.37184
1288.35538	0.37135
1286.42670	0.37090
1284.49802	0.37041
1282.56935	0.36987
1280.64067	0.36927
1278.71200	0.36857
1276.78332	0.36776
1274.85465	0.36679
1272.92597	0.36567
1270.99729	0.36433
1269.06862	0.36267
1267.13994	0.36079
1265.21127	0.35911
1263.28259	0.35794
1261.35392	0.35738
1259.42524	0.35730
1257.49656	0.35749
1255.56789	0.35768
1253.63921	0.35768
1251.71054	0.35736
1249.78186	0.35682
1247.85319	0.35618
1245.92451	0.35549
1243.99583	0.35472
1242.06716	0.35391
1240.13848	0.35301
1238.20981	0.35203
1236.28113	0.35103
1234.35246	0.35005
1232.42378	0.34905
1230.49510	0.34799
1228.56643	0.34694
1226.63775	0.34594
1224.70908	0.34502
1222.78040	0.34415
1220.85173	0.34330
1218.92305	0.34243
1216.99437	0.34149
1215.06570	0.34045
1213.13702	0.33944
1211.20835	0.33852
1209.27967	0.33764
1207.35100	0.33672
1205.42232	0.33573
1203.49364	0.33475
1201.56497	0.33390
1199.63629	0.33314
1197.70762	0.33230
1195.77894	0.33139
1193.85027	0.33048
1191.92159	0.32950
1189.99291	0.32842
1188.06424	0.32727
1186.13556	0.32609
1184.20689	0.32483
1182.27821	0.32350
1180.34954	0.32212
1178.42086	0.32076
1176.49218	0.31943
1174.56351	0.31808
1172.63483	0.31666
1170.70616	0.31521
1168.77748	0.31377
1166.84881	0.31234
1164.92013	0.31093
1162.99145	0.30959
1161.06278	0.30829
1159.13410	0.30697
1157.20543	0.30569
1155.27675	0.30446
1153.34808	0.30327
1151.41940	0.30211
1149.49072	0.30098
1147.56205	0.29983
1145.63337	0.29867
1143.70470	0.29755
1141.77602	0.29644
1139.84735	0.29529
1137.91867	0.29410
1135.98999	0.29292
1134.06132	0.29170
1132.13264	0.29041
1130.20397	0.28907
1128.27529	0.28771
1126.34662	0.28630
1124.41794	0.28483
1122.48926	0.28333
1120.56059	0.28179
1118.63191	0.28026
1116.70324	0.27879
1114.77456	0.27730
1112.84589	0.27576
1110.91721	0.27421
1108.98853	0.27272
1107.05986	0.27130
1105.13118	0.26988
1103.20251	0.26846
1101.27383	0.26709
1099.34516	0.26579
1097.41648	0.26450
1095.48780	0.26324
1093.55913	0.26205
1091.63045	0.26091
1089.70178	0.25980
1087.77310	0.25870
1085.84443	0.25761
1083.91575	0.25658
1081.98707	0.25564
1080.05840	0.25473
1078.12972	0.25384
1076.20105	0.25301
1074.27237	0.25228
1072.34370	0.25163
1070.41502	0.25113
1068.48634	0.25079
1066.55767	0.25065
1064.62899	0.25071
1062.70032	0.25087
1060.77164	0.25105
1058.84297	0.25127
1056.91429	0.25153
1054.98561	0.25182
1053.05694	0.25219
1051.12826	0.25266
1049.19959	0.25318
1047.27091	0.25379
1045.34224	0.25450
1043.41356	0.25523
1041.48488	0.25593
1039.55621	0.25672
1037.62753	0.25755
1035.69886	0.25827
1033.77018	0.25898
1031.84151	0.25979
1029.91283	0.26059
1027.98415	0.26133
1026.05548	0.26209
1024.12680	0.26292
1022.19813	0.26379
1020.26945	0.26473
1018.34078	0.26576
1016.41210	0.26685
1014.48342	0.26803
1012.55475	0.26931
1010.62607	0.27068
1008.69740	0.27207
1006.76872	0.27346
1004.84005	0.27479
1002.91137	0.27596
1000.98269	0.27696
999.05402	0.27791
997.12534	0.27877
995.19667	0.27944
993.26799	0.28004
991.33932	0.28072
989.41064	0.28146
987.48196	0.28212
985.55329	0.28267
983.62461	0.28313
981.69594	0.28354
979.76726	0.28386
977.83859	0.28401
975.90991	0.28403
973.98123	0.28401
972.05256	0.28400
970.12388	0.28400
968.19521	0.28392
966.26653	0.28374
964.33786	0.28354
962.40918	0.28332
960.48050	0.28301
958.55183	0.28263
956.62315	0.28225
954.69448	0.28190
952.76580	0.28152
950.83713	0.28105
948.90845	0.28052
946.97977	0.28000
945.05110	0.27950
943.12242	0.27898
941.19375	0.27837
939.26507	0.27767
937.33640	0.27694
935.40772	0.27620
933.47904	0.27549
931.55037	0.27485
929.62169	0.27430
927.69302	0.27374
925.76434	0.27311
923.83567	0.27238
921.90699	0.27162
919.97831	0.27087
918.04964	0.27008
916.12096	0.26929
914.19229	0.26855
912.26361	0.26779
910.33494	0.26700
908.40626	0.26619
906.47758	0.26532
904.54891	0.26440
902.62023	0.26348
900.69156	0.26257
898.76288	0.26167
896.83421	0.26080
894.90553	0.25994
892.97685	0.25906
891.04818	0.25820
889.11950	0.25734
887.19083	0.25650
885.26215	0.25566
883.33348	0.25482
881.40480	0.25397
879.47612	0.25310
877.54745	0.25224
875.61877	0.25149
873.69010	0.25082
871.76142	0.25019
869.83275	0.24955
867.90407	0.24875
865.97539	0.24786
864.04672	0.24701
862.11804	0.24618
860.18937	0.24533
858.26069	0.24450
856.33202	0.24368
854.40334	0.24284
852.47466	0.24194
850.54599	0.24100
848.61731	0.24006
846.68864	0.23913
844.75996	0.23820
842.83129	0.23729
840.90261	0.23638
838.97394	0.23550
837.04526	0.23466
835.11658	0.23379
833.18791	0.23282
831.25923	0.23179
829.33056	0.23071
827.40188	0.22957
825.47321	0.22839
823.54453	0.22730
821.61585	0.22631
819.68718	0.22535
817.75850	0.22438
815.82983	0.22343
813.90115	0.22247
811.97248	0.22146
810.04380	0.22048
808.11512	0.21955
806.18645	0.21862
804.25777	0.21773
802.32910	0.21696
800.40042	0.21631
798.47175	0.21579
796.54307	0.21542
794.61439	0.21512
792.68572	0.21482
790.75704	0.21454
788.82837	0.21425
786.89969	0.21390
784.97102	0.21352
783.04234	0.21312
781.11366	0.21268
779.18499	0.21222
777.25631	0.21179
775.32764	0.21137
773.39896	0.21094
771.47029	0.21046
769.54161	0.20993
767.61293	0.20935
765.68426	0.20872
763.75558	0.20804
761.82691	0.20729
759.89823	0.20647
757.96956	0.20562
756.04088	0.20474
754.11220	0.20385
752.18353	0.20298
750.25485	0.20214
748.32618	0.20132
746.39750	0.20044
744.46883	0.19946
742.54015	0.19846
740.61147	0.19760
738.68280	0.19684
736.75412	0.19606
734.82545	0.19527
732.89677	0.19459
730.96810	0.19394
729.03942	0.19321
727.11074	0.19243
725.18207	0.19170
723.25339	0.19103
721.32472	0.19034
719.39604	0.18959
717.46737	0.18886
715.53869	0.18815
713.61001	0.18737
711.68134	0.18654
709.75266	0.18572
707.82399	0.18489
705.89531	0.18403
703.96664	0.18328
702.03796	0.18264
700.10928	0.18199
698.18061	0.18127
696.25193	0.18050
694.32326	0.17971
692.39458	0.17887
690.46591	0.17797
688.53723	0.17710
686.60855	0.17624
684.67988	0.17528
682.75120	0.17423
680.82253	0.17316
678.89385	0.17210
676.96518	0.17099
675.03650	0.16971
673.10782	0.16828
671.17915	0.16674
669.25047	0.16516
667.32180	0.16374
665.39312	0.16244
663.46445	0.16101
661.53577	0.15949
659.60709	0.15800
657.67842	0.15656
655.74974	0.15522
653.82107	0.15392
651.89239	0.15255
649.96372	0.15109
648.03504	0.14952
646.10636	0.14786
644.17769	0.14619
642.24901	0.14452
640.32034	0.14278
638.39166	0.14096
636.46299	0.13916
634.53431	0.13733
632.60563	0.13549
630.67696	0.13374
628.74828	0.13210
626.81961	0.13041
624.89093	0.12866
622.96226	0.12690
621.03358	0.12523
619.10490	0.12371
617.17623	0.12220
615.24755	0.12055
613.31888	0.11873
611.39020	0.11691
609.46153	0.11520
607.53285	0.11356
605.60417	0.11192
603.67550	0.11038
601.74682	0.10894
599.81815	0.10752
597.88947	0.10612
595.96080	0.10474
594.03212	0.10344
592.10344	0.10230
590.17477	0.10133
588.24609	0.10041
586.31742	0.09938
584.38874	0.09824
582.46007	0.09709
580.53139	0.09596
578.60271	0.09483
576.67404	0.09376
574.74536	0.09278
572.81669	0.09190
570.88801	0.09107
568.95934	0.09019
567.03066	0.08929
565.10198	0.08844
563.17331	0.08766
561.24463	0.08688
559.31596	0.08612
557.38728	0.08543
555.45861	0.08481
553.52993	0.08421
551.60125	0.08360
549.67258	0.08301
547.74390	0.08246
545.81523	0.08195
543.88655	0.08142
541.95788	0.08086
540.02920	0.08033
538.10052	0.07982
536.17185	0.07927
534.24317	0.07865
532.31450	0.07810
530.38582	0.07758
528.45715	0.07698
526.52847	0.07628
524.59979	0.07551
522.67112	0.07470
520.74244	0.07392
518.81377	0.07318
516.88509	0.07242
514.95642	0.07167
513.02774	0.07098
511.09906	0.07024
509.17039	0.06939
507.24171	0.06843
505.31304	0.06742
503.38436	0.06644
501.45569	0.06551
499.52701	0.06449
497.59833	0.06334
495.66966	0.06213
493.74098	0.06091
491.81231	0.05969
489.88363	0.05849
487.95496	0.05739
486.02628	0.05628
484.09760	0.05502
482.16893	0.05369
480.24025	0.05249
478.31158	0.05142
476.38290	0.05023
474.45423	0.04888
472.52555	0.04760
470.59687	0.04657
468.66820	0.04577
466.73952	0.04511
464.81085	0.04455
462.88217	0.04411
460.95350	0.04379
459.02482	0.04351
457.09614	0.04332
455.16747	0.04327
453.23879	0.04320
451.31012	0.04300
449.38144	0.04280
447.45277	0.04267
445.52409	0.04241
443.59541	0.04190
441.66674	0.04127
439.73806	0.04065
437.80939	0.03993
435.88071	0.03905
433.95204	0.03802
432.02336	0.03683
430.09468	0.03558
428.16601	0.03444
426.23733	0.03332
424.30866	0.03207
422.37998	0.03071
420.45131	0.02941
418.52263	0.02822
416.59395	0.02709
414.66528	0.02589
412.73660	0.02465
410.80793	0.02355
408.87925	0.02251
406.95058	0.02135
405.02190	0.02006
403.09322	0.01876
401.16455	0.01756
399.23587	0.01650
397.30720	0.01560
395.37852	0.01464
393.44985	0.01357
391.52117	0.01265
389.59249	0.01195
387.66382	0.01119
385.73514	0.01031
383.80647	0.00943
381.87779	0.00865
379.94912	0.00800
378.02044	0.00745
376.09176	0.00687
374.16309	0.00617
372.23441	0.00550
370.30574	0.00502
368.37706	0.00459
