7496.76250	0.00219
7494.83382	0.00219
7492.90514	0.00219
7490.97647	0.00218
7489.04779	0.00219
7487.11912	0.00221
7485.19044	0.00222
7483.26177	0.00223
7481.33309	0.00223
7479.40441	0.00223
7477.47574	0.00223
7475.54706	0.00224
7473.61839	0.00225
7471.68971	0.00226
7469.76104	0.00227
7467.83236	0.00227
7465.90368	0.00227
7463.97501	0.00227
7462.04633	0.00227
7460.11766	0.00228
7458.18898	0.00229
7456.26031	0.00230
7454.33163	0.00231
7452.40295	0.00232
7450.47428	0.00232
7448.54560	0.00232
7446.61693	0.00232
7444.68825	0.00234
7442.75958	0.00235
7440.83090	0.00237
7438.90222	0.00237
7436.97355	0.00237
7435.04487	0.00237
7433.11620	0.00237
7431.18752	0.00237
7429.25885	0.00238
7427.33017	0.00238
7425.40149	0.00239
7423.47282	0.00240
7421.54414	0.00242
7419.61547	0.00244
7417.68679	0.00244
7415.75812	0.00245
7413.82944	0.00246
7411.90076	0.00246
7409.97209	0.00246
7408.04341	0.00246
7406.11474	0.00246
7404.18606	0.00247
7402.25739	0.00248
7400.32871	0.00248
7398.40003	0.00249
7396.47136	0.00250
7394.54268	0.00252
7392.61401	0.00252
7390.68533	0.00252
7388.75666	0.00251
7386.82798	0.00252
7384.89930	0.00252
7382.97063	0.00253
7381.04195	0.00255
7379.11328	0.00255
7377.18460	0.00256
7375.25593	0.00255
7373.32725	0.00255
7371.39857	0.00256
7369.46990	0.00257
7367.54122	0.00258
7365.61255	0.00259
7363.68387	0.00260
7361.75520	0.00260
7359.82652	0.00261
7357.89784	0.00260
7355.96917	0.00260
7354.04049	0.00262
7352.11182	0.00265
7350.18314	0.00266
7348.25447	0.00267
7346.32579	0.00266
7344.39711	0.00265
7342.46844	0.00265
7340.53976	0.00266
7338.61109	0.00266
7336.68241	0.00267
7334.75374	0.00269
7332.82506	0.00271
7330.89638	0.00272
7328.96771	0.00272
7327.03903	0.00273
7325.11036	0.00274
7323.18168	0.00276
7321.25301	0.00277
7319.32433	0.00278
7317.39565	0.00278
7315.46698	0.00278
7313.53830	0.00277
7311.60963	0.00277
7309.68095	0.00277
7307.75228	0.00279
7305.82360	0.00281
7303.89492	0.00281
7301.96625	0.00281
7300.03757	0.00281
7298.10890	0.00283
7296.18022	0.00284
7294.25155	0.00284
7292.32287	0.00284
7290.39419	0.00284
7288.46552	0.00286
7286.53684	0.00287
7284.60817	0.00288
7282.67949	0.00289
7280.75082	0.00290
7278.82214	0.00291
7276.89346	0.00292
7274.96479	0.00293
7273.03611	0.00293
7271.10744	0.00292
7269.17876	0.00292
7267.25009	0.00293
7265.32141	0.00294
7263.39273	0.00296
7261.46406	0.00297
7259.53538	0.00298
7257.60671	0.00299
7255.67803	0.00299
7253.74936	0.00299
7251.82068	0.00299
7249.89200	0.00300
7247.96333	0.00300
7246.03465	0.00299
7244.10598	0.00300
7242.17730	0.00302
7240.24863	0.00302
7238.31995	0.00302
7236.39127	0.00303
7234.46260	0.00305
7232.53392	0.00306
7230.60525	0.00306
7228.67657	0.00307
7226.74790	0.00308
7224.81922	0.00310
7222.89054	0.00310
7220.96187	0.00310
7219.03319	0.00310
7217.10452	0.00309
7215.17584	0.00309
7213.24717	0.00311
7211.31849	0.00313
7209.38981	0.00314
7207.46114	0.00315
7205.53246	0.00315
7203.60379	0.00315
7201.67511	0.00316
7199.74644	0.00317
7197.81776	0.00319
7195.88908	0.00319
7193.96041	0.00319
7192.03173	0.00319
7190.10306	0.00320
7188.17438	0.00322
7186.24571	0.00323
7184.31703	0.00323
7182.38835	0.00323
7180.45968	0.00324
7178.53100	0.00326
7176.60233	0.00328
7174.67365	0.00329
7172.74498	0.00329
7170.81630	0.00329
7168.88762	0.00329
7166.95895	0.00331
7165.03027	0.00332
7163.10160	0.00330
7161.17292	0.00330
7159.24425	0.00331
7157.31557	0.00334
7155.38689	0.00336
7153.45822	0.00336
7151.52954	0.00335
7149.60087	0.00334
7147.67219	0.00334
7145.74352	0.00335
7143.81484	0.00337
7141.88616	0.00338
7139.95749	0.00339
7138.02881	0.00339
7136.10014	0.00340
7134.17146	0.00341
7132.24279	0.00341
7130.31411	0.00341
7128.38543	0.00343
7126.45676	0.00343
7124.52808	0.00343
7122.59941	0.00344
7120.67073	0.00346
7118.74206	0.00347
7116.81338	0.00349
7114.88470	0.00351
7112.95603	0.00352
7111.02735	0.00353
7109.09868	0.00352
7107.17000	0.00352
7105.24133	0.00352
7103.31265	0.00354
7101.38397	0.00355
7099.45530	0.00356
7097.52662	0.00358
7095.59795	0.00358
7093.66927	0.00358
7091.74060	0.00358
7089.81192	0.00359
7087.88324	0.00361
7085.95457	0.00363
7084.02589	0.00363
7082.09722	0.00362
7080.16854	0.00361
7078.23987	0.00361
7076.31119	0.00362
7074.38251	0.00364
7072.45384	0.00366
7070.52516	0.00367
7068.59649	0.00367
7066.66781	0.00368
7064.73914	0.00369
7062.81046	0.00369
7060.88178	0.00369
7058.95311	0.00371
7057.02443	0.00372
7055.09576	0.00373
7053.16708	0.00375
7051.23841	0.00376
7049.30973	0.00376
7047.38105	0.00377
7045.45238	0.00378
7043.52370	0.00379
7041.59503	0.00379
7039.66635	0.00379
7037.73768	0.00379
7035.80900	0.00379
7033.88032	0.00379
7031.95165	0.00381
7030.02297	0.00383
7028.09430	0.00385
7026.16562	0.00387
7024.23695	0.00388
7022.30827	0.00388
7020.37959	0.00388
7018.45092	0.00388
7016.52224	0.00388
7014.59357	0.00390
7012.66489	0.00391
7010.73622	0.00391
7008.80754	0.00392
7006.87886	0.00394
7004.95019	0.00394
7003.02151	0.00393
7001.09284	0.00393
6999.16416	0.00396
6997.23549	0.00399
6995.30681	0.00400
6993.37813	0.00400
6991.44946	0.00402
6989.52078	0.00403
6987.59211	0.00403
6985.66343	0.00403
6983.73476	0.00404
6981.80608	0.00405
6979.87740	0.00407
6977.94873	0.00408
6976.02005	0.00408
6974.09138	0.00408
6972.16270	0.00410
6970.23403	0.00410
6968.30535	0.00410
6966.37667	0.00410
6964.44800	0.00411
6962.51932	0.00412
6960.59065	0.00413
6958.66197	0.00415
6956.73330	0.00416
6954.80462	0.00417
6952.87594	0.00418
6950.94727	0.00417
6949.01859	0.00418
6947.08992	0.00420
6945.16124	0.00420
6943.23257	0.00420
6941.30389	0.00421
6939.37521	0.00423
6937.44654	0.00424
6935.51786	0.00425
6933.58919	0.00427
6931.66051	0.00428
6929.73184	0.00429
6927.80316	0.00430
6925.87448	0.00431
6923.94581	0.00430
6922.01713	0.00429
6920.08846	0.00430
6918.15978	0.00431
6916.23111	0.00432
6914.30243	0.00434
6912.37375	0.00436
6910.44508	0.00438
6908.51640	0.00439
6906.58773	0.00439
6904.65905	0.00440
6902.73038	0.00442
6900.80170	0.00443
6898.87302	0.00443
6896.94435	0.00443
6895.01567	0.00444
6893.08700	0.00445
6891.15832	0.00447
6889.22965	0.00447
6887.30097	0.00448
6885.37229	0.00448
6883.44362	0.00448
6881.51494	0.00449
6879.58627	0.00451
6877.65759	0.00453
6875.72892	0.00455
6873.80024	0.00455
6871.87156	0.00455
6869.94289	0.00457
6868.01421	0.00458
6866.08554	0.00459
6864.15686	0.00460
6862.22819	0.00462
6860.29951	0.00463
6858.37083	0.00464
6856.44216	0.00465
6854.51348	0.00465
6852.58481	0.00465
6850.65613	0.00465
6848.72746	0.00465
6846.79878	0.00468
6844.87010	0.00472
6842.94143	0.00474
6841.01275	0.00474
6839.08408	0.00474
6837.15540	0.00475
6835.22673	0.00475
6833.29805	0.00475
6831.36937	0.00476
6829.44070	0.00479
6827.51202	0.00480
6825.58335	0.00479
6823.65467	0.00480
6821.72600	0.00481
6819.79732	0.00482
6817.86864	0.00482
6815.93997	0.00482
6814.01129	0.00483
6812.08262	0.00484
6810.15394	0.00485
6808.22527	0.00486
6806.29659	0.00488
6804.36791	0.00490
6802.43924	0.00491
6800.51056	0.00492
6798.58189	0.00492
6796.65321	0.00491
6794.72454	0.00493
6792.79586	0.00495
6790.86718	0.00497
6788.93851	0.00497
6787.00983	0.00496
6785.08116	0.00496
6783.15248	0.00498
6781.22381	0.00500
6779.29513	0.00502
6777.36645	0.00504
6775.43778	0.00504
6773.50910	0.00505
6771.58043	0.00506
6769.65175	0.00509
6767.72308	0.00510
6765.79440	0.00510
6763.86572	0.00510
6761.93705	0.00512
6760.00837	0.00514
6758.07970	0.00516
6756.15102	0.00518
6754.22235	0.00519
6752.29367	0.00521
6750.36499	0.00522
6748.43632	0.00521
6746.50764	0.00520
6744.57897	0.00520
6742.65029	0.00521
6740.72162	0.00522
6738.79294	0.00523
6736.86426	0.00525
6734.93559	0.00526
6733.00691	0.00527
6731.07824	0.00528
6729.14956	0.00530
6727.22089	0.00532
6725.29221	0.00534
6723.36353	0.00535
6721.43486	0.00536
6719.50618	0.00537
6717.57751	0.00539
6715.64883	0.00539
6713.72016	0.00538
6711.79148	0.00538
6709.86280	0.00540
6707.93413	0.00542
6706.00545	0.00544
6704.07678	0.00546
6702.14810	0.00547
6700.21943	0.00548
6698.29075	0.00550
6696.36207	0.00551
6694.43340	0.00552
6692.50472	0.00553
6690.57605	0.00555
6688.64737	0.00557
6686.71870	0.00558
6684.79002	0.00558
6682.86134	0.00559
6680.93267	0.00560
6679.00399	0.00561
6677.07532	0.00561
6675.14664	0.00561
6673.21797	0.00561
6671.28929	0.00562
6669.36061	0.00564
6667.43194	0.00566
6665.50326	0.00568
6663.57459	0.00569
6661.64591	0.00571
6659.71724	0.00572
6657.78856	0.00574
6655.85988	0.00575
6653.93121	0.00577
6652.00253	0.00578
6650.07386	0.00579
6648.14518	0.00580
6646.21651	0.00581
6644.28783	0.00581
6642.35915	0.00582
6640.43048	0.00583
6638.50180	0.00585
6636.57313	0.00586
6634.64445	0.00588
6632.71578	0.00590
6630.78710	0.00591
6628.85842	0.00592
6626.92975	0.00594
6625.00107	0.00596
6623.07240	0.00596
6621.14372	0.00596
6619.21505	0.00596
6617.28637	0.00599
6615.35769	0.00601
6613.42902	0.00602
6611.50034	0.00603
6609.57167	0.00605
6607.64299	0.00607
6605.71432	0.00607
6603.78564	0.00606
6601.85696	0.00608
6599.92829	0.00610
6597.99961	0.00610
6596.07094	0.00611
6594.14226	0.00613
6592.21359	0.00616
6590.28491	0.00618
6588.35623	0.00618
6586.42756	0.00619
6584.49888	0.00621
6582.57021	0.00621
6580.64153	0.00622
6578.71286	0.00624
6576.78418	0.00627
6574.85550	0.00628
6572.92683	0.00628
6570.99815	0.00627
6569.06948	0.00628
6567.14080	0.00629
6565.21213	0.00630
6563.28345	0.00632
6561.35477	0.00634
6559.42610	0.00636
6557.49742	0.00637
6555.56875	0.00638
6553.64007	0.00640
6551.71140	0.00643
6549.78272	0.00646
6547.85404	0.00648
6545.92537	0.00648
6543.99669	0.00648
6542.06802	0.00650
6540.13934	0.00651
6538.21067	0.00651
6536.28199	0.00651
6534.35331	0.00653
6532.42464	0.00655
6530.49596	0.00657
6528.56729	0.00659
6526.63861	0.00661
6524.70994	0.00662
6522.78126	0.00663
6520.85258	0.00664
6518.92391	0.00665
6516.99523	0.00666
6515.06656	0.00667
6513.13788	0.00668
6511.20921	0.00669
6509.28053	0.00669
6507.35185	0.00671
6505.42318	0.00672
6503.49450	0.00675
6501.56583	0.00677
6499.63715	0.00678
6497.70848	0.00679
6495.77980	0.00680
6493.85112	0.00683
6491.92245	0.00685
6489.99377	0.00686
6488.06510	0.00687
6486.13642	0.00689
6484.20775	0.00690
6482.27907	0.00691
6480.35039	0.00693
6478.42172	0.00695
6476.49304	0.00698
6474.56437	0.00700
6472.63569	0.00702
6470.70702	0.00703
6468.77834	0.00703
6466.84966	0.00704
6464.92099	0.00705
6462.99231	0.00706
6461.06364	0.00707
6459.13496	0.00708
6457.20629	0.00710
6455.27761	0.00712
6453.34893	0.00714
6451.42026	0.00715
6449.49158	0.00716
6447.56291	0.00716
6445.63423	0.00718
6443.70556	0.00720
6441.77688	0.00722
6439.84820	0.00722
6437.91953	0.00723
6435.99085	0.00726
6434.06218	0.00729
6432.13350	0.00731
6430.20483	0.00731
6428.27615	0.00732
6426.34747	0.00734
6424.41880	0.00736
6422.49012	0.00737
6420.56145	0.00738
6418.63277	0.00742
6416.70410	0.00745
6414.77542	0.00746
6412.84674	0.00745
6410.91807	0.00745
6408.98939	0.00748
6407.06072	0.00750
6405.13204	0.00753
6403.20337	0.00754
6401.27469	0.00755
6399.34601	0.00755
6397.41734	0.00757
6395.48866	0.00759
6393.55999	0.00762
6391.63131	0.00763
6389.70264	0.00763
6387.77396	0.00764
6385.84528	0.00766
6383.91661	0.00768
6381.98793	0.00770
6380.05926	0.00772
6378.13058	0.00773
6376.20191	0.00773
6374.27323	0.00776
6372.34455	0.00778
6370.41588	0.00780
6368.48720	0.00781
6366.55853	0.00782
6364.62985	0.00784
6362.70118	0.00786
6360.77250	0.00787
6358.84382	0.00789
6356.91515	0.00792
6354.98647	0.00793
6353.05780	0.00793
6351.12912	0.00794
6349.20045	0.00795
6347.27177	0.00797
6345.34309	0.00799
6343.41442	0.00802
6341.48574	0.00804
6339.55707	0.00805
6337.62839	0.00807
6335.69972	0.00810
6333.77104	0.00813
6331.84236	0.00816
6329.91369	0.00816
6327.98501	0.00815
6326.05634	0.00816
6324.12766	0.00818
6322.19899	0.00821
6320.27031	0.00823
6318.34163	0.00824
6316.41296	0.00826
6314.48428	0.00828
6312.55561	0.00830
6310.62693	0.00831
6308.69826	0.00833
6306.76958	0.00836
6304.84090	0.00839
6302.91223	0.00841
6300.98355	0.00841
6299.05488	0.00842
6297.12620	0.00843
6295.19753	0.00844
6293.26885	0.00845
6291.34017	0.00846
6289.41150	0.00849
6287.48282	0.00852
6285.55415	0.00855
6283.62547	0.00857
6281.69680	0.00857
6279.76812	0.00858
6277.83944	0.00860
6275.91077	0.00862
6273.98209	0.00865
6272.05342	0.00868
6270.12474	0.00871
6268.19607	0.00872
6266.26739	0.00873
6264.33871	0.00875
6262.41004	0.00876
6260.48136	0.00879
6258.55269	0.00882
6256.62401	0.00885
6254.69534	0.00885
6252.76666	0.00885
6250.83798	0.00885
6248.90931	0.00885
6246.98063	0.00886
6245.05196	0.00889
6243.12328	0.00894
6241.19461	0.00898
6239.26593	0.00900
6237.33725	0.00901
6235.40858	0.00902
6233.47990	0.00904
6231.55123	0.00905
6229.62255	0.00907
6227.69388	0.00909
6225.76520	0.00911
6223.83652	0.00912
6221.90785	0.00915
6219.97917	0.00918
6218.05050	0.00921
6216.12182	0.00923
6214.19315	0.00923
6212.26447	0.00924
6210.33579	0.00926
6208.40712	0.00929
6206.47844	0.00931
6204.54977	0.00932
6202.62109	0.00934
6200.69242	0.00936
6198.76374	0.00937
6196.83506	0.00939
6194.90639	0.00942
6192.97771	0.00944
6191.04904	0.00947
6189.12036	0.00949
6187.19169	0.00952
6185.26301	0.00955
6183.33433	0.00956
6181.40566	0.00955
6179.47698	0.00955
6177.54831	0.00958
6175.61963	0.00961
6173.69096	0.00964
6171.76228	0.00967
6169.83360	0.00969
6167.90493	0.00970
6165.97625	0.00971
6164.04758	0.00973
6162.11890	0.00975
6160.19023	0.00977
6158.26155	0.00979
6156.33287	0.00982
6154.40420	0.00984
6152.47552	0.00986
6150.54685	0.00987
6148.61817	0.00988
6146.68950	0.00989
6144.76082	0.00992
6142.83214	0.00995
6140.90347	0.00997
6138.97479	0.00998
6137.04612	0.01000
6135.11744	0.01003
6133.18877	0.01006
6131.26009	0.01008
6129.33141	0.01011
6127.40274	0.01014
6125.47406	0.01015
6123.54539	0.01018
6121.61671	0.01021
6119.68804	0.01023
6117.75936	0.01025
6115.83068	0.01026
6113.90201	0.01028
6111.97333	0.01030
6110.04466	0.01030
6108.11598	0.01031
6106.18731	0.01033
6104.25863	0.01036
6102.32995	0.01040
6100.40128	0.01043
6098.47260	0.01044
6096.54393	0.01045
6094.61525	0.01047
6092.68658	0.01049
6090.75790	0.01052
6088.82922	0.01055
6086.90055	0.01058
6084.97187	0.01061
6083.04320	0.01062
6081.11452	0.01063
6079.18585	0.01065
6077.25717	0.01067
6075.32849	0.01069
6073.39982	0.01072
6071.47114	0.01074
6069.54247	0.01077
6067.61379	0.01079
6065.68512	0.01080
6063.75644	0.01081
6061.82776	0.01083
6059.89909	0.01088
6057.97041	0.01092
6056.04174	0.01094
6054.11306	0.01096
6052.18439	0.01097
6050.25571	0.01098
6048.32703	0.01100
6046.39836	0.01103
6044.46968	0.01105
6042.54101	0.01107
6040.61233	0.01110
6038.68366	0.01113
6036.75498	0.01116
6034.82630	0.01118
6032.89763	0.01121
6030.96895	0.01124
6029.04028	0.01126
6027.11160	0.01127
6025.18293	0.01130
6023.25425	0.01134
6021.32557	0.01138
6019.39690	0.01139
6017.46822	0.01141
6015.53955	0.01144
6013.61087	0.01145
6011.68220	0.01146
6009.75352	0.01149
6007.82484	0.01152
6005.89617	0.01154
6003.96749	0.01154
6002.03882	0.01155
6000.11014	0.01157
5998.18147	0.01160
5996.25279	0.01164
5994.32411	0.01167
5992.39544	0.01170
5990.46676	0.01172
5988.53809	0.01174
5986.60941	0.01176
5984.68074	0.01178
5982.75206	0.01181
5980.82338	0.01184
5978.89471	0.01185
5976.96603	0.01187
5975.03736	0.01191
5973.10868	0.01194
5971.18001	0.01198
5969.25133	0.01201
5967.32265	0.01203
5965.39398	0.01204
5963.46530	0.01205
5961.53663	0.01209
5959.60795	0.01212
5957.67928	0.01215
5955.75060	0.01217
5953.82192	0.01220
5951.89325	0.01222
5949.96457	0.01224
5948.03590	0.01225
5946.10722	0.01227
5944.17855	0.01229
5942.24987	0.01232
5940.32119	0.01236
5938.39252	0.01239
5936.46384	0.01241
5934.53517	0.01243
5932.60649	0.01247
5930.67782	0.01251
5928.74914	0.01256
5926.82046	0.01260
5924.89179	0.01260
5922.96311	0.01259
5921.03444	0.01260
5919.10576	0.01263
5917.17709	0.01265
5915.24841	0.01269
5913.31973	0.01273
5911.39106	0.01276
5909.46238	0.01278
5907.53371	0.01279
5905.60503	0.01281
5903.67636	0.01284
5901.74768	0.01287
5899.81900	0.01290
5897.89033	0.01293
5895.96165	0.01295
5894.03298	0.01297
5892.10430	0.01299
5890.17563	0.01303
5888.24695	0.01306
5886.31827	0.01309
5884.38960	0.01311
5882.46092	0.01313
5880.53225	0.01316
5878.60357	0.01320
5876.67490	0.01323
5874.74622	0.01325
5872.81755	0.01327
5870.88887	0.01329
5868.96019	0.01331
5867.03152	0.01335
5865.10284	0.01340
5863.17417	0.01342
5861.24549	0.01344
5859.31682	0.01346
5857.38814	0.01348
5855.45946	0.01352
5853.53079	0.01356
5851.60211	0.01359
5849.67344	0.01362
5847.74476	0.01365
5845.81609	0.01369
5843.88741	0.01373
5841.95873	0.01375
5840.03006	0.01375
5838.10138	0.01376
5836.17271	0.01378
5834.24403	0.01381
5832.31536	0.01383
5830.38668	0.01387
5828.45800	0.01391
5826.52933	0.01394
5824.60065	0.01397
5822.67198	0.01400
5820.74330	0.01401
5818.81463	0.01402
5816.88595	0.01405
5814.95727	0.01410
5813.02860	0.01413
5811.09992	0.01416
5809.17125	0.01420
5807.24257	0.01424
5805.31390	0.01426
5803.38522	0.01428
5801.45654	0.01431
5799.52787	0.01436
5797.59919	0.01440
5795.67052	0.01443
5793.74184	0.01444
5791.81317	0.01447
5789.88449	0.01449
5787.95581	0.01451
5786.02714	0.01456
5784.09846	0.01460
5782.16979	0.01464
5780.24111	0.01468
5778.31244	0.01471
5776.38376	0.01473
5774.45508	0.01474
5772.52641	0.01475
5770.59773	0.01478
5768.66906	0.01482
5766.74038	0.01485
5764.81171	0.01487
5762.88303	0.01490
5760.95435	0.01492
5759.02568	0.01495
5757.09700	0.01497
5755.16833	0.01500
5753.23965	0.01503
5751.31098	0.01506
5749.38230	0.01508
5747.45362	0.01509
5745.52495	0.01512
5743.59627	0.01518
5741.66760	0.01524
5739.73892	0.01527
5737.81025	0.01530
5735.88157	0.01536
5733.95289	0.01540
5732.02422	0.01541
5730.09554	0.01542
5728.16687	0.01544
5726.23819	0.01548
5724.30952	0.01553
5722.38084	0.01556
5720.45216	0.01559
5718.52349	0.01562
5716.59481	0.01566
5714.66614	0.01569
5712.73746	0.01573
5710.80879	0.01576
5708.88011	0.01579
5706.95143	0.01581
5705.02276	0.01583
5703.09408	0.01588
5701.16541	0.01592
5699.23673	0.01595
5697.30806	0.01598
5695.37938	0.01600
5693.45070	0.01603
5691.52203	0.01606
5689.59335	0.01609
5687.66468	0.01612
5685.73600	0.01614
5683.80733	0.01616
5681.87865	0.01620
5679.94997	0.01624
5678.02130	0.01627
5676.09262	0.01628
5674.16395	0.01632
5672.23527	0.01637
5670.30660	0.01641
5668.37792	0.01643
5666.44924	0.01644
5664.52057	0.01648
5662.59189	0.01653
5660.66322	0.01656
5658.73454	0.01659
5656.80587	0.01662
5654.87719	0.01665
5652.94851	0.01668
5651.01984	0.01671
5649.09116	0.01675
5647.16249	0.01679
5645.23381	0.01682
5643.30514	0.01684
5641.37646	0.01688
5639.44778	0.01691
5637.51911	0.01694
5635.59043	0.01697
5633.66176	0.01700
5631.73308	0.01704
5629.80441	0.01708
5627.87573	0.01711
5625.94705	0.01715
5624.01838	0.01719
5622.08970	0.01724
5620.16103	0.01727
5618.23235	0.01731
5616.30368	0.01734
5614.37500	0.01738
5612.44632	0.01740
5610.51765	0.01741
5608.58897	0.01742
5606.66030	0.01745
5604.73162	0.01751
5602.80295	0.01756
5600.87427	0.01759
5598.94559	0.01763
5597.01692	0.01767
5595.08824	0.01768
5593.15957	0.01770
5591.23089	0.01773
5589.30222	0.01777
5587.37354	0.01781
5585.44486	0.01787
5583.51619	0.01793
5581.58751	0.01798
5579.65884	0.01801
5577.73016	0.01804
5575.80149	0.01805
5573.87281	0.01807
5571.94413	0.01811
5570.01546	0.01815
5568.08678	0.01818
5566.15811	0.01821
5564.22943	0.01825
5562.30076	0.01829
5560.37208	0.01834
5558.44340	0.01840
5556.51473	0.01844
5554.58605	0.01848
5552.65738	0.01852
5550.72870	0.01855
5548.80003	0.01856
5546.87135	0.01856
5544.94267	0.01857
5543.01400	0.01860
5541.08532	0.01866
5539.15665	0.01872
5537.22797	0.01877
5535.29930	0.01879
5533.37062	0.01881
5531.44194	0.01885
5529.51327	0.01889
5527.58459	0.01891
5525.65592	0.01894
5523.72724	0.01899
5521.79857	0.01903
5519.86989	0.01907
5517.94121	0.01912
5516.01254	0.01917
5514.08386	0.01920
5512.15519	0.01923
5510.22651	0.01926
5508.29784	0.01929
5506.36916	0.01932
5504.44048	0.01935
5502.51181	0.01938
5500.58313	0.01943
5498.65446	0.01948
5496.72578	0.01953
5494.79711	0.01957
5492.86843	0.01960
5490.93975	0.01963
5489.01108	0.01966
5487.08240	0.01968
5485.15373	0.01972
5483.22505	0.01977
5481.29638	0.01981
5479.36770	0.01985
5477.43902	0.01987
5475.51035	0.01988
5473.58167	0.01993
5471.65300	0.01999
5469.72432	0.02004
5467.79565	0.02006
5465.86697	0.02009
5463.93829	0.02014
5462.00962	0.02018
5460.08094	0.02021
5458.15227	0.02025
5456.22359	0.02030
5454.29492	0.02035
5452.36624	0.02037
5450.43756	0.02038
5448.50889	0.02040
5446.58021	0.02045
5444.65154	0.02050
5442.72286	0.02053
5440.79419	0.02055
5438.86551	0.02059
5436.93683	0.02063
5435.00816	0.02067
5433.07948	0.02071
5431.15081	0.02075
5429.22213	0.02079
5427.29346	0.02084
5425.36478	0.02090
5423.43610	0.02095
5421.50743	0.02099
5419.57875	0.02103
5417.65008	0.02106
5415.72140	0.02107
5413.79273	0.02109
5411.86405	0.02114
5409.93537	0.02120
5408.00670	0.02124
5406.07802	0.02127
5404.14935	0.02131
5402.22067	0.02137
5400.29200	0.02141
5398.36332	0.02142
5396.43464	0.02145
5394.50597	0.02149
5392.57729	0.02155
5390.64862	0.02161
5388.71994	0.02166
5386.79127	0.02169
5384.86259	0.02173
5382.93391	0.02177
5381.00524	0.02181
5379.07656	0.02184
5377.14789	0.02186
5375.21921	0.02189
5373.29054	0.02194
5371.36186	0.02201
5369.43318	0.02206
5367.50451	0.02209
5365.57583	0.02212
5363.64716	0.02216
5361.71848	0.02222
5359.78981	0.02229
5357.86113	0.02235
5355.93245	0.02237
5354.00378	0.02237
5352.07510	0.02240
5350.14643	0.02244
5348.21775	0.02248
5346.28908	0.02251
5344.36040	0.02254
5342.43172	0.02257
5340.50305	0.02259
5338.57437	0.02261
5336.64570	0.02267
5334.71702	0.02274
5332.78835	0.02280
5330.85967	0.02284
5328.93099	0.02286
5327.00232	0.02291
5325.07364	0.02298
5323.14497	0.02303
5321.21629	0.02306
5319.28762	0.02311
5317.35894	0.02315
5315.43026	0.02319
5313.50159	0.02324
5311.57291	0.02330
5309.64424	0.02334
5307.71556	0.02337
5305.78689	0.02341
5303.85821	0.02346
5301.92953	0.02349
5300.00086	0.02351
5298.07218	0.02354
5296.14351	0.02357
5294.21483	0.02361
5292.28616	0.02366
5290.35748	0.02372
5288.42880	0.02377
5286.50013	0.02380
5284.57145	0.02383
5282.64278	0.02386
5280.71410	0.02390
5278.78543	0.02394
5276.85675	0.02401
5274.92807	0.02406
5272.99940	0.02409
5271.07072	0.02414
5269.14205	0.02419
5267.21337	0.02424
5265.28470	0.02427
5263.35602	0.02429
5261.42734	0.02432
5259.49867	0.02437
5257.56999	0.02443
5255.64132	0.02450
5253.71264	0.02455
5251.78397	0.02459
5249.85529	0.02461
5247.92661	0.02464
5245.99794	0.02467
5244.06926	0.02470
5242.14059	0.02474
5240.21191	0.02480
5238.28324	0.02487
5236.35456	0.02493
5234.42588	0.02497
5232.49721	0.02501
5230.56853	0.02505
5228.63986	0.02509
5226.71118	0.02511
5224.78251	0.02515
5222.85383	0.02521
5220.92515	0.02526
5218.99648	0.02529
5217.06780	0.02533
5215.13913	0.02538
5213.21045	0.02544
5211.28178	0.02550
5209.35310	0.02552
5207.42442	0.02554
5205.49575	0.02559
5203.56707	0.02567
5201.63840	0.02573
5199.70972	0.02577
5197.78105	0.02581
5195.85237	0.02585
5193.92369	0.02589
5191.99502	0.02593
5190.06634	0.02596
5188.13767	0.02599
5186.20899	0.02602
5184.28032	0.02607
5182.35164	0.02611
5180.42296	0.02617
5178.49429	0.02625
5176.56561	0.02632
5174.63694	0.02635
5172.70826	0.02637
5170.77959	0.02640
5168.85091	0.02644
5166.92223	0.02649
5164.99356	0.02655
5163.06488	0.02660
5161.13621	0.02665
5159.20753	0.02669
5157.27886	0.02674
5155.35018	0.02678
5153.42150	0.02681
5151.49283	0.02686
5149.56415	0.02691
5147.63548	0.02698
5145.70680	0.02703
5143.77813	0.02707
5141.84945	0.02710
5139.92077	0.02714
5137.99210	0.02720
5136.06342	0.02724
5134.13475	0.02726
5132.20607	0.02730
5130.27740	0.02735
5128.34872	0.02741
5126.42004	0.02746
5124.49137	0.02750
5122.56269	0.02753
5120.63402	0.02758
5118.70534	0.02764
5116.77667	0.02768
5114.84799	0.02771
5112.91931	0.02776
5110.99064	0.02782
5109.06196	0.02789
5107.13329	0.02795
5105.20461	0.02798
5103.27594	0.02800
5101.34726	0.02804
5099.41858	0.02809
5097.48991	0.02813
5095.56123	0.02818
5093.63256	0.02825
5091.70388	0.02832
5089.77521	0.02836
5087.84653	0.02839
5085.91785	0.02843
5083.98918	0.02848
5082.06050	0.02855
5080.13183	0.02860
5078.20315	0.02865
5076.27448	0.02869
5074.34580	0.02872
5072.41712	0.02874
5070.48845	0.02879
5068.55977	0.02885
5066.63110	0.02892
5064.70242	0.02897
5062.77375	0.02902
5060.84507	0.02906
5058.91639	0.02911
5056.98772	0.02914
5055.05904	0.02917
5053.13037	0.02921
5051.20169	0.02928
5049.27302	0.02935
5047.34434	0.02941
5045.41566	0.02945
5043.48699	0.02947
5041.55831	0.02952
5039.62964	0.02959
5037.70096	0.02964
5035.77229	0.02967
5033.84361	0.02970
5031.91493	0.02975
5029.98626	0.02979
5028.05758	0.02984
5026.12891	0.02990
5024.20023	0.02995
5022.27156	0.02998
5020.34288	0.03003
5018.41420	0.03009
5016.48553	0.03016
5014.55685	0.03022
5012.62818	0.03026
5010.69950	0.03030
5008.77083	0.03034
5006.84215	0.03038
5004.91347	0.03044
5002.98480	0.03049
5001.05612	0.03052
4999.12745	0.03055
4997.19877	0.03061
4995.27010	0.03068
4993.34142	0.03074
4991.41274	0.03079
4989.48407	0.03083
4987.55539	0.03089
4985.62672	0.03093
4983.69804	0.03097
4981.76937	0.03102
4979.84069	0.03109
4977.91201	0.03115
4975.98334	0.03119
4974.05466	0.03122
4972.12599	0.03125
4970.19731	0.03130
4968.26864	0.03139
4966.33996	0.03147
4964.41128	0.03152
4962.48261	0.03156
4960.55393	0.03159
4958.62526	0.03162
4956.69658	0.03167
4954.76791	0.03174
4952.83923	0.03182
4950.91055	0.03188
4948.98188	0.03193
4947.05320	0.03197
4945.12453	0.03203
4943.19585	0.03210
4941.26718	0.03215
4939.33850	0.03219
4937.40982	0.03221
4935.48115	0.03225
4933.55247	0.03231
4931.62380	0.03236
4929.69512	0.03241
4927.76645	0.03247
4925.83777	0.03253
4923.90909	0.03259
4921.98042	0.03263
4920.05174	0.03268
4918.12307	0.03274
4916.19439	0.03279
4914.26572	0.03283
4912.33704	0.03287
4910.40836	0.03293
4908.47969	0.03298
4906.55101	0.03303
4904.62234	0.03310
4902.69366	0.03316
4900.76499	0.03320
4898.83631	0.03324
4896.90763	0.03330
4894.97896	0.03339
4893.05028	0.03347
4891.12161	0.03351
4889.19293	0.03354
4887.26426	0.03356
4885.33558	0.03361
4883.40690	0.03367
4881.47823	0.03371
4879.54955	0.03377
4877.62088	0.03384
4875.69220	0.03391
4873.76353	0.03396
4871.83485	0.03400
4869.90617	0.03405
4867.97750	0.03410
4866.04882	0.03413
4864.12015	0.03416
4862.19147	0.03422
4860.26280	0.03429
4858.33412	0.03436
4856.40544	0.03444
4854.47677	0.03450
4852.54809	0.03454
4850.61942	0.03458
4848.69074	0.03463
4846.76207	0.03469
4844.83339	0.03475
4842.90471	0.03479
4840.97604	0.03483
4839.04736	0.03488
4837.11869	0.03495
4835.19001	0.03500
4833.26134	0.03505
4831.33266	0.03512
4829.40398	0.03520
4827.47531	0.03527
4825.54663	0.03532
4823.61796	0.03538
4821.68928	0.03543
4819.76061	0.03548
4817.83193	0.03554
4815.90325	0.03559
4813.97458	0.03564
4812.04590	0.03570
4810.11723	0.03578
4808.18855	0.03583
4806.25988	0.03586
4804.33120	0.03592
4802.40252	0.03600
4800.47385	0.03607
4798.54517	0.03612
4796.61650	0.03617
4794.68782	0.03621
4792.75915	0.03627
4790.83047	0.03632
4788.90179	0.03637
4786.97312	0.03642
4785.04444	0.03648
4783.11577	0.03654
4781.18709	0.03659
4779.25842	0.03666
4777.32974	0.03674
4775.40106	0.03680
4773.47239	0.03686
4771.54371	0.03692
4769.61504	0.03697
4767.68636	0.03701
4765.75769	0.03706
4763.82901	0.03713
4761.90033	0.03720
4759.97166	0.03726
4758.04298	0.03732
4756.11431	0.03737
4754.18563	0.03741
4752.25696	0.03745
4750.32828	0.03750
4748.39960	0.03756
4746.47093	0.03762
4744.54225	0.03771
4742.61358	0.03780
4740.68490	0.03787
4738.75623	0.03793
4736.82755	0.03797
4734.89887	0.03801
4732.97020	0.03807
4731.04152	0.03814
4729.11285	0.03819
4727.18417	0.03825
4725.25550	0.03830
4723.32682	0.03836
4721.39814	0.03842
4719.46947	0.03849
4717.54079	0.03856
4715.61212	0.03864
4713.68344	0.03870
4711.75477	0.03877
4709.82609	0.03884
4707.89741	0.03888
4705.96874	0.03891
4704.04006	0.03896
4702.11139	0.03902
4700.18271	0.03908
4698.25404	0.03916
4696.32536	0.03925
4694.39668	0.03933
4692.46801	0.03936
4690.53933	0.03940
4688.61066	0.03945
4686.68198	0.03951
4684.75331	0.03956
4682.82463	0.03962
4680.89595	0.03969
4678.96728	0.03976
4677.03860	0.03984
4675.10993	0.03992
4673.18125	0.03998
4671.25258	0.04004
4669.32390	0.04009
4667.39522	0.04014
4665.46655	0.04020
4663.53787	0.04027
4661.60920	0.04036
4659.68052	0.04043
4657.75185	0.04048
4655.82317	0.04055
4653.89449	0.04063
4651.96582	0.04070
4650.03714	0.04077
4648.10847	0.04084
4646.17979	0.04089
4644.25112	0.04096
4642.32244	0.04102
4640.39376	0.04109
4638.46509	0.04115
4636.53641	0.04121
4634.60774	0.04127
4632.67906	0.04135
4630.75039	0.04142
4628.82171	0.04145
4626.89303	0.04149
4624.96436	0.04156
4623.03568	0.04165
4621.10701	0.04173
4619.17833	0.04182
4617.24966	0.04189
4615.32098	0.04196
4613.39230	0.04203
4611.46363	0.04212
4609.53495	0.04220
4607.60628	0.04228
4605.67760	0.04235
4603.74893	0.04240
4601.82025	0.04247
4599.89157	0.04253
4597.96290	0.04257
4596.03422	0.04262
4594.10555	0.04270
4592.17687	0.04276
4590.24820	0.04282
4588.31952	0.04291
4586.39084	0.04300
4584.46217	0.04307
4582.53349	0.04313
4580.60482	0.04320
4578.67614	0.04327
4576.74747	0.04335
4574.81879	0.04344
4572.89011	0.04350
4570.96144	0.04354
4569.03276	0.04358
4567.10409	0.04365
4565.17541	0.04376
4563.24674	0.04384
4561.31806	0.04390
4559.38938	0.04397
4557.46071	0.04404
4555.53203	0.04412
4553.60336	0.04420
4551.67468	0.04428
4549.74601	0.04436
4547.81733	0.04443
4545.88865	0.04449
4543.95998	0.04456
4542.03130	0.04462
4540.10263	0.04471
4538.17395	0.04479
4536.24528	0.04486
4534.31660	0.04492
4532.38792	0.04500
4530.45925	0.04509
4528.53057	0.04518
4526.60190	0.04527
4524.67322	0.04534
4522.74455	0.04541
4520.81587	0.04548
4518.88719	0.04555
4516.95852	0.04562
4515.02984	0.04569
4513.10117	0.04576
4511.17249	0.04583
4509.24382	0.04591
4507.31514	0.04599
4505.38646	0.04607
4503.45779	0.04613
4501.52911	0.04618
4499.60044	0.04625
4497.67176	0.04636
4495.74309	0.04648
4493.81441	0.04658
4491.88573	0.04665
4489.95706	0.04671
4488.02838	0.04677
4486.09971	0.04685
4484.17103	0.04693
4482.24236	0.04700
4480.31368	0.04707
4478.38500	0.04714
4476.45633	0.04721
4474.52765	0.04727
4472.59898	0.04735
4470.67030	0.04744
4468.74163	0.04756
4466.81295	0.04765
4464.88427	0.04773
4462.95560	0.04781
4461.02692	0.04790
4459.09825	0.04799
4457.16957	0.04805
4455.24090	0.04810
4453.31222	0.04818
4451.38354	0.04828
4449.45487	0.04838
4447.52619	0.04847
4445.59752	0.04855
4443.66884	0.04865
4441.74017	0.04873
4439.81149	0.04881
4437.88281	0.04887
4435.95414	0.04893
4434.02546	0.04901
4432.09679	0.04910
4430.16811	0.04921
4428.23944	0.04931
4426.31076	0.04940
4424.38208	0.04946
4422.45341	0.04950
4420.52473	0.04957
4418.59606	0.04967
4416.66738	0.04976
4414.73871	0.04986
4412.81003	0.04995
4410.88135	0.05003
4408.95268	0.05010
4407.02400	0.05019
4405.09533	0.05029
4403.16665	0.05038
4401.23798	0.05048
4399.30930	0.05057
4397.38062	0.05063
4395.45195	0.05070
4393.52327	0.05079
4391.59460	0.05089
4389.66592	0.05099
4387.73725	0.05111
4385.80857	0.05120
4383.87989	0.05127
4381.95122	0.05134
4380.02254	0.05145
4378.09387	0.05157
4376.16519	0.05167
4374.23652	0.05173
4372.30784	0.05181
4370.37916	0.05190
4368.45049	0.05198
4366.52181	0.05207
4364.59314	0.05216
4362.66446	0.05225
4360.73579	0.05234
4358.80711	0.05242
4356.87843	0.05252
4354.94976	0.05261
4353.02108	0.05268
4351.09241	0.05278
4349.16373	0.05289
4347.23506	0.05301
4345.30638	0.05311
4343.37770	0.05319
4341.44903	0.05329
4339.52035	0.05339
4337.59168	0.05349
4335.66300	0.05358
4333.73433	0.05365
4331.80565	0.05373
4329.87697	0.05384
4327.94830	0.05394
4326.01962	0.05402
4324.09095	0.05410
4322.16227	0.05419
4320.23360	0.05429
4318.30492	0.05440
4316.37624	0.05450
4314.44757	0.05459
4312.51889	0.05470
4310.59022	0.05481
4308.66154	0.05491
4306.73287	0.05500
4304.80419	0.05508
4302.87551	0.05518
4300.94684	0.05531
4299.01816	0.05543
4297.08949	0.05554
4295.16081	0.05563
4293.23214	0.05572
4291.30346	0.05582
4289.37478	0.05592
4287.44611	0.05602
4285.51743	0.05612
4283.58876	0.05621
4281.66008	0.05631
4279.73141	0.05641
4277.80273	0.05652
4275.87405	0.05662
4273.94538	0.05673
4272.01670	0.05683
4270.08803	0.05694
4268.15935	0.05704
4266.23068	0.05712
4264.30200	0.05720
4262.37332	0.05730
4260.44465	0.05742
4258.51597	0.05752
4256.58730	0.05761
4254.65862	0.05771
4252.72995	0.05783
4250.80127	0.05795
4248.87259	0.05807
4246.94392	0.05818
4245.01524	0.05828
4243.08657	0.05835
4241.15789	0.05843
4239.22922	0.05854
4237.30054	0.05866
4235.37186	0.05878
4233.44319	0.05889
4231.51451	0.05899
4229.58584	0.05909
4227.65716	0.05922
4225.72849	0.05934
4223.79981	0.05944
4221.87113	0.05954
4219.94246	0.05965
4218.01378	0.05975
4216.08511	0.05985
4214.15643	0.05997
4212.22776	0.06009
4210.29908	0.06019
4208.37040	0.06029
4206.44173	0.06039
4204.51305	0.06049
4202.58438	0.06059
4200.65570	0.06071
4198.72703	0.06084
4196.79835	0.06097
4194.86968	0.06108
4192.94100	0.06118
4191.01232	0.06130
4189.08365	0.06142
4187.15497	0.06153
4185.22630	0.06164
4183.29762	0.06175
4181.36895	0.06186
4179.44027	0.06197
4177.51159	0.06208
4175.58292	0.06218
4173.65424	0.06229
4171.72557	0.06241
4169.79689	0.06255
4167.86822	0.06267
4165.93954	0.06278
4164.01086	0.06290
4162.08219	0.06302
4160.15351	0.06314
4158.22484	0.06322
4156.29616	0.06332
4154.36749	0.06343
4152.43881	0.06356
4150.51013	0.06368
4148.58146	0.06381
4146.65278	0.06395
4144.72411	0.06408
4142.79543	0.06419
4140.86676	0.06430
4138.93808	0.06443
4137.00940	0.06456
4135.08073	0.06468
4133.15205	0.06481
4131.22338	0.06494
4129.29470	0.06506
4127.36603	0.06517
4125.43735	0.06528
4123.50867	0.06539
4121.58000	0.06551
4119.65132	0.06564
4117.72265	0.06575
4115.79397	0.06586
4113.86530	0.06598
4111.93662	0.06609
4110.00794	0.06620
4108.07927	0.06633
4106.15059	0.06647
4104.22192	0.06660
4102.29324	0.06672
4100.36457	0.06685
4098.43589	0.06697
4096.50721	0.06708
4094.57854	0.06720
4092.64986	0.06732
4090.72119	0.06746
4088.79251	0.06760
4086.86384	0.06773
4084.93516	0.06786
4083.00648	0.06800
4081.07781	0.06815
4079.14913	0.06827
4077.22046	0.06838
4075.29178	0.06851
4073.36311	0.06866
4071.43443	0.06878
4069.50575	0.06890
4067.57708	0.06904
4065.64840	0.06918
4063.71973	0.06928
4061.79105	0.06938
4059.86238	0.06950
4057.93370	0.06965
4056.00502	0.06981
4054.07635	0.06996
4052.14767	0.07008
4050.21900	0.07020
4048.29032	0.07031
4046.36165	0.07041
4044.43297	0.07053
4042.50429	0.07067
4040.57562	0.07083
4038.64694	0.07098
4036.71827	0.07111
4034.78959	0.07122
4032.86092	0.07135
4030.93224	0.07149
4029.00356	0.07162
4027.07489	0.07174
4025.14621	0.07188
4023.21754	0.07203
4021.28886	0.07217
4019.36019	0.07230
4017.43151	0.07243
4015.50283	0.07256
4013.57416	0.07270
4011.64548	0.07283
4009.71681	0.07295
4007.78813	0.07308
4005.85946	0.07325
4003.93078	0.07340
4002.00210	0.07352
4000.07343	0.07365
3998.14475	0.07379
3996.21608	0.07394
3994.28740	0.07408
3992.35873	0.07421
3990.43005	0.07434
3988.50137	0.07448
3986.57270	0.07463
3984.64402	0.07476
3982.71535	0.07490
3980.78667	0.07506
3978.85800	0.07522
3976.92932	0.07534
3975.00064	0.07544
3973.07197	0.07554
3971.14329	0.07568
3969.21462	0.07586
3967.28594	0.07601
3965.35727	0.07614
3963.42859	0.07626
3961.49991	0.07641
3959.57124	0.07657
3957.64256	0.07672
3955.71389	0.07686
3953.78521	0.07697
3951.85654	0.07707
3949.92786	0.07718
3947.99918	0.07734
3946.07051	0.07752
3944.14183	0.07765
3942.21316	0.07780
3940.28448	0.07799
3938.35581	0.07816
3936.42713	0.07826
3934.49845	0.07832
3932.56978	0.07840
3930.64110	0.07858
3928.71243	0.07878
3926.78375	0.07892
3924.85508	0.07906
3922.92640	0.07923
3920.99772	0.07936
3919.06905	0.07943
3917.14037	0.07957
3915.21170	0.07981
3913.28302	0.08004
3911.35435	0.08020
3909.42567	0.08033
3907.49699	0.08034
3905.56832	0.08024
3903.63964	0.08022
3901.71097	0.08035
3899.78229	0.08062
3897.85362	0.08099
3895.92494	0.08131
3893.99626	0.08143
3892.06759	0.08148
3890.13891	0.08164
3888.21024	0.08176
3886.28156	0.08178
3884.35289	0.08191
3882.42421	0.08209
3880.49553	0.08227
3878.56686	0.08256
3876.63818	0.08279
3874.70951	0.08285
3872.78083	0.08284
3870.85216	0.08288
3868.92348	0.08306
3866.99480	0.08329
3865.06613	0.08344
3863.13745	0.08363
3861.20878	0.08391
3859.28010	0.08411
3857.35143	0.08399
3855.42275	0.08362
3853.49407	0.08357
3851.56540	0.08414
3849.63672	0.08483
3847.70805	0.08520
3845.77937	0.08528
3843.85070	0.08527
3841.92202	0.08528
3839.99334	0.08532
3838.06467	0.08545
3836.13599	0.08571
3834.20732	0.08599
3832.27864	0.08624
3830.34997	0.08648
3828.42129	0.08667
3826.49261	0.08681
3824.56394	0.08686
3822.63526	0.08680
3820.70659	0.08688
3818.77791	0.08715
3816.84924	0.08738
3814.92056	0.08766
3812.99188	0.08802
3811.06321	0.08825
3809.13453	0.08826
3807.20586	0.08827
3805.27718	0.08839
3803.34851	0.08848
3801.41983	0.08859
3799.49115	0.08888
3797.56248	0.08919
3795.63380	0.08944
3793.70513	0.08971
3791.77645	0.08995
3789.84778	0.09014
3787.91910	0.09027
3785.99042	0.09038
3784.06175	0.09052
3782.13307	0.09064
3780.20440	0.09075
3778.27572	0.09096
3776.34705	0.09125
3774.41837	0.09144
3772.48969	0.09148
3770.56102	0.09149
3768.63234	0.09164
3766.70367	0.09185
3764.77499	0.09207
3762.84632	0.09222
3760.91764	0.09228
3758.98896	0.09237
3757.06029	0.09257
3755.13161	0.09265
3753.20294	0.09251
3751.27426	0.09240
3749.34559	0.09258
3747.41691	0.09272
3745.48823	0.09266
3743.55956	0.09293
3741.63088	0.09355
3739.70221	0.09386
3737.77353	0.09375
3735.84486	0.09372
3733.91618	0.09400
3731.98750	0.09447
3730.05883	0.09491
3728.13015	0.09514
3726.20148	0.09522
3724.27280	0.09536
3722.34413	0.09558
3720.41545	0.09584
3718.48677	0.09609
3716.55810	0.09624
3714.62942	0.09622
3712.70075	0.09616
3710.77207	0.09630
3708.84340	0.09669
3706.91472	0.09708
3704.98604	0.09728
3703.05737	0.09734
3701.12869	0.09750
3699.20002	0.09777
3697.27134	0.09802
3695.34267	0.09817
3693.41399	0.09818
3691.48531	0.09808
3689.55664	0.09809
3687.62796	0.09843
3685.69929	0.09890
3683.77061	0.09921
3681.84194	0.09932
3679.91326	0.09930
3677.98458	0.09915
3676.05591	0.09904
3674.12723	0.09926
3672.19856	0.09958
3670.26988	0.09978
3668.34121	0.10012
3666.41253	0.10058
3664.48385	0.10090
3662.55518	0.10107
3660.62650	0.10116
3658.69783	0.10115
3656.76915	0.10116
3654.84048	0.10127
3652.91180	0.10124
3650.98312	0.10093
3649.05445	0.10074
3647.12577	0.10102
3645.19710	0.10161
3643.26842	0.10215
3641.33975	0.10247
3639.41107	0.10264
3637.48239	0.10276
3635.55372	0.10285
3633.62504	0.10289
3631.69637	0.10275
3629.76769	0.10260
3627.83902	0.10286
3625.91034	0.10342
3623.98166	0.10377
3622.05299	0.10376
3620.12431	0.10365
3618.19564	0.10373
3616.26696	0.10395
3614.33829	0.10406
3612.40961	0.10410
3610.48093	0.10417
3608.55226	0.10433
3606.62358	0.10464
3604.69491	0.10495
3602.76623	0.10510
3600.83756	0.10517
3598.90888	0.10529
3596.98020	0.10543
3595.05153	0.10557
3593.12285	0.10571
3591.19418	0.10574
3589.26550	0.10563
3587.33683	0.10570
3585.40815	0.10605
3583.47947	0.10643
3581.55080	0.10663
3579.62212	0.10674
3577.69345	0.10684
3575.76477	0.10699
3573.83610	0.10715
3571.90742	0.10723
3569.97874	0.10718
3568.05007	0.10712
3566.12139	0.10731
3564.19272	0.10767
3562.26404	0.10798
3560.33537	0.10817
3558.40669	0.10831
3556.47801	0.10844
3554.54934	0.10855
3552.62066	0.10865
3550.69199	0.10877
3548.76331	0.10885
3546.83464	0.10890
3544.90596	0.10903
3542.97728	0.10926
3541.04861	0.10944
3539.11993	0.10954
3537.19126	0.10962
3535.26258	0.10972
3533.33391	0.10982
3531.40523	0.10988
3529.47655	0.10991
3527.54788	0.10995
3525.61920	0.11003
3523.69053	0.11012
3521.76185	0.11024
3519.83318	0.11037
3517.90450	0.11048
3515.97582	0.11057
3514.04715	0.11064
3512.11847	0.11069
3510.18980	0.11072
3508.26112	0.11076
3506.33245	0.11080
3504.40377	0.11084
3502.47509	0.11090
3500.54642	0.11099
3498.61774	0.11107
3496.68907	0.11111
3494.76039	0.11115
3492.83172	0.11120
3490.90304	0.11121
3488.97436	0.11123
3487.04569	0.11129
3485.11701	0.11140
3483.18834	0.11150
3481.25966	0.11161
3479.33099	0.11173
3477.40231	0.11186
3475.47363	0.11199
3473.54496	0.11212
3471.61628	0.11227
3469.68761	0.11245
3467.75893	0.11262
3465.83026	0.11278
3463.90158	0.11292
3461.97290	0.11306
3460.04423	0.11324
3458.11555	0.11344
3456.18688	0.11363
3454.25820	0.11382
3452.32953	0.11401
3450.40085	0.11417
3448.47217	0.11430
3446.54350	0.11446
3444.61482	0.11466
3442.68615	0.11488
3440.75747	0.11510
3438.82880	0.11535
3436.90012	0.11565
3434.97144	0.11599
3433.04277	0.11634
3431.11409	0.11671
3429.18542	0.11710
3427.25674	0.11746
3425.32807	0.11776
3423.39939	0.11805
3421.47071	0.11838
3419.54204	0.11874
3417.61336	0.11909
3415.68469	0.11941
3413.75601	0.11970
3411.82734	0.11997
3409.89866	0.12023
3407.96998	0.12048
3406.04131	0.12071
3404.11263	0.12092
3402.18396	0.12116
3400.25528	0.12142
3398.32661	0.12168
3396.39793	0.12192
3394.46925	0.12219
3392.54058	0.12248
3390.61190	0.12277
3388.68323	0.12300
3386.75455	0.12321
3384.82588	0.12343
3382.89720	0.12367
3380.96852	0.12392
3379.03985	0.12417
3377.11117	0.12440
3375.18250	0.12461
3373.25382	0.12482
3371.32515	0.12507
3369.39647	0.12533
3367.46779	0.12557
3365.53912	0.12580
3363.61044	0.12601
3361.68177	0.12622
3359.75309	0.12643
3357.82442	0.12664
3355.89574	0.12685
3353.96706	0.12707
3352.03839	0.12731
3350.10971	0.12753
3348.18104	0.12777
3346.25236	0.12801
3344.32369	0.12821
3342.39501	0.12839
3340.46633	0.12858
3338.53766	0.12882
3336.60898	0.12909
3334.68031	0.12935
3332.75163	0.12960
3330.82296	0.12985
3328.89428	0.13009
3326.96560	0.13031
3325.03693	0.13054
3323.10825	0.13079
3321.17958	0.13102
3319.25090	0.13123
3317.32223	0.13145
3315.39355	0.13169
3313.46487	0.13192
3311.53620	0.13212
3309.60752	0.13232
3307.67885	0.13255
3305.75017	0.13281
3303.82150	0.13308
3301.89282	0.13336
3299.96414	0.13360
3298.03547	0.13382
3296.10679	0.13406
3294.17812	0.13432
3292.24944	0.13457
3290.32077	0.13480
3288.39209	0.13503
3286.46341	0.13528
3284.53474	0.13551
3282.60606	0.13576
3280.67739	0.13600
3278.74871	0.13623
3276.82004	0.13647
3274.89136	0.13672
3272.96268	0.13695
3271.03401	0.13718
3269.10533	0.13744
3267.17666	0.13771
3265.24798	0.13797
3263.31931	0.13819
3261.39063	0.13841
3259.46195	0.13866
3257.53328	0.13894
3255.60460	0.13920
3253.67593	0.13944
3251.74725	0.13969
3249.81858	0.13994
3247.88990	0.14019
3245.96122	0.14043
3244.03255	0.14069
3242.10387	0.14094
3240.17520	0.14117
3238.24652	0.14143
3236.31785	0.14171
3234.38917	0.14197
3232.46049	0.14219
3230.53182	0.14242
3228.60314	0.14265
3226.67447	0.14290
3224.74579	0.14316
3222.81712	0.14341
3220.88844	0.14366
3218.95976	0.14391
3217.03109	0.14415
3215.10241	0.14436
3213.17374	0.14457
3211.24506	0.14481
3209.31639	0.14504
3207.38771	0.14528
3205.45903	0.14555
3203.53036	0.14583
3201.60168	0.14611
3199.67301	0.14639
3197.74433	0.14667
3195.81566	0.14695
3193.88698	0.14723
3191.95830	0.14750
3190.02963	0.14774
3188.10095	0.14798
3186.17228	0.14825
3184.24360	0.14854
3182.31493	0.14880
3180.38625	0.14905
3178.45757	0.14932
3176.52890	0.14961
3174.60022	0.14988
3172.67155	0.15012
3170.74287	0.15036
3168.81420	0.15062
3166.88552	0.15090
3164.95684	0.15119
3163.02817	0.15145
3161.09949	0.15166
3159.17082	0.15189
3157.24214	0.15214
3155.31347	0.15240
3153.38479	0.15268
3151.45611	0.15295
3149.52744	0.15322
3147.59876	0.15347
3145.67009	0.15373
3143.74141	0.15400
3141.81274	0.15425
3139.88406	0.15450
3137.95538	0.15473
3136.02671	0.15496
3134.09803	0.15520
3132.16936	0.15545
3130.24068	0.15572
3128.31201	0.15600
3126.38333	0.15628
3124.45465	0.15653
3122.52598	0.15677
3120.59730	0.15702
3118.66863	0.15728
3116.73995	0.15752
3114.81128	0.15778
3112.88260	0.15805
3110.95392	0.15831
3109.02525	0.15855
3107.09657	0.15879
3105.16790	0.15906
3103.23922	0.15931
3101.31055	0.15957
3099.38187	0.15984
3097.45319	0.16009
3095.52452	0.16033
3093.59584	0.16059
3091.66717	0.16089
3089.73849	0.16119
3087.80982	0.16145
3085.88114	0.16168
3083.95246	0.16189
3082.02379	0.16211
3080.09511	0.16236
3078.16644	0.16263
3076.23776	0.16291
3074.30909	0.16316
3072.38041	0.16340
3070.45173	0.16363
3068.52306	0.16386
3066.59438	0.16409
3064.66571	0.16437
3062.73703	0.16467
3060.80836	0.16494
3058.87968	0.16519
3056.95100	0.16544
3055.02233	0.16569
3053.09365	0.16597
3051.16498	0.16625
3049.23630	0.16652
3047.30763	0.16676
3045.37895	0.16701
3043.45027	0.16727
3041.52160	0.16753
3039.59292	0.16777
3037.66425	0.16799
3035.73557	0.16822
3033.80690	0.16847
3031.87822	0.16873
3029.94954	0.16898
3028.02087	0.16924
3026.09219	0.16951
3024.16352	0.16978
3022.23484	0.17006
3020.30617	0.17032
3018.37749	0.17056
3016.44881	0.17078
3014.52014	0.17101
3012.59146	0.17128
3010.66279	0.17156
3008.73411	0.17183
3006.80544	0.17206
3004.87676	0.17227
3002.94808	0.17251
3001.01941	0.17277
2999.09073	0.17304
2997.16206	0.17329
2995.23338	0.17353
2993.30471	0.17377
2991.37603	0.17401
2989.44735	0.17422
2987.51868	0.17439
2985.59000	0.17456
2983.66133	0.17473
2981.73265	0.17488
2979.80398	0.17500
2977.87530	0.17510
2975.94662	0.17517
2974.01795	0.17522
2972.08927	0.17522
2970.16060	0.17516
2968.23192	0.17511
2966.30325	0.17513
2964.37457	0.17522
2962.44589	0.17539
2960.51722	0.17561
2958.58854	0.17588
2956.65987	0.17620
2954.73119	0.17656
2952.80252	0.17691
2950.87384	0.17725
2948.94516	0.17753
2947.01649	0.17776
2945.08781	0.17794
2943.15914	0.17807
2941.23046	0.17814
2939.30179	0.17815
2937.37311	0.17813
2935.44443	0.17810
2933.51576	0.17805
2931.58708	0.17800
2929.65841	0.17794
2927.72973	0.17788
2925.80106	0.17785
2923.87238	0.17790
2921.94370	0.17800
2920.01503	0.17811
2918.08635	0.17837
2916.15768	0.17892
2914.22900	0.17973
2912.30033	0.18062
2910.37165	0.18143
2908.44297	0.18209
2906.51430	0.18260
2904.58562	0.18305
2902.65695	0.18348
2900.72827	0.18390
2898.79960	0.18429
2896.87092	0.18466
2894.94224	0.18500
2893.01357	0.18532
2891.08489	0.18565
2889.15622	0.18600
2887.22754	0.18636
2885.29887	0.18670
2883.37019	0.18700
2881.44151	0.18726
2879.51284	0.18750
2877.58416	0.18774
2875.65549	0.18798
2873.72681	0.18822
2871.79814	0.18847
2869.86946	0.18873
2867.94078	0.18897
2866.01211	0.18915
2864.08343	0.18929
2862.15476	0.18942
2860.22608	0.18951
2858.29741	0.18955
2856.36873	0.18952
2854.44005	0.18946
2852.51138	0.18946
2850.58270	0.18965
2848.65403	0.19017
2846.72535	0.19097
2844.79668	0.19185
2842.86800	0.19262
2840.93932	0.19324
2839.01065	0.19375
2837.08197	0.19421
2835.15330	0.19460
2833.22462	0.19495
2831.29595	0.19530
2829.36727	0.19563
2827.43859	0.19593
2825.50992	0.19623
2823.58124	0.19655
2821.65257	0.19686
2819.72389	0.19715
2817.79522	0.19744
2815.86654	0.19773
2813.93786	0.19802
2812.00919	0.19828
2810.08051	0.19855
2808.15184	0.19884
2806.22316	0.19913
2804.29449	0.19939
2802.36581	0.19966
2800.43713	0.19995
2798.50846	0.20028
2796.57978	0.20059
2794.65111	0.20087
2792.72243	0.20115
2790.79376	0.20144
2788.86508	0.20174
2786.93640	0.20203
2785.00773	0.20233
2783.07905	0.20262
2781.15038	0.20288
2779.22170	0.20312
2777.29303	0.20339
2775.36435	0.20370
2773.43567	0.20398
2771.50700	0.20424
2769.57832	0.20451
2767.64965	0.20481
2765.72097	0.20512
2763.79230	0.20541
2761.86362	0.20568
2759.93494	0.20592
2758.00627	0.20616
2756.07759	0.20642
2754.14892	0.20671
2752.22024	0.20700
2750.29157	0.20727
2748.36289	0.20752
2746.43421	0.20780
2744.50554	0.20806
2742.57686	0.20831
2740.64819	0.20857
2738.71951	0.20883
2736.79084	0.20909
2734.86216	0.20935
2732.93348	0.20963
2731.00481	0.20991
2729.07613	0.21017
2727.14746	0.21042
2725.21878	0.21069
2723.29011	0.21096
2721.36143	0.21121
2719.43275	0.21147
2717.50408	0.21175
2715.57540	0.21205
2713.64673	0.21232
2711.71805	0.21257
2709.78938	0.21282
2707.86070	0.21310
2705.93202	0.21340
2704.00335	0.21368
2702.07467	0.21394
2700.14600	0.21420
2698.21732	0.21445
2696.28865	0.21469
2694.35997	0.21493
2692.43129	0.21517
2690.50262	0.21545
2688.57394	0.21574
2686.64527	0.21600
2684.71659	0.21624
2682.78792	0.21650
2680.85924	0.21676
2678.93056	0.21704
2677.00189	0.21732
2675.07321	0.21759
2673.14454	0.21783
2671.21586	0.21808
2669.28719	0.21835
2667.35851	0.21863
2665.42983	0.21891
2663.50116	0.21917
2661.57248	0.21942
2659.64381	0.21970
2657.71513	0.21999
2655.78646	0.22030
2653.85778	0.22061
2651.92910	0.22089
2650.00043	0.22113
2648.07175	0.22135
2646.14308	0.22161
2644.21440	0.22190
2642.28573	0.22221
2640.35705	0.22253
2638.42837	0.22284
2636.49970	0.22311
2634.57102	0.22337
2632.64235	0.22365
2630.71367	0.22396
2628.78500	0.22425
2626.85632	0.22450
2624.92764	0.22476
2622.99897	0.22508
2621.07029	0.22542
2619.14162	0.22572
2617.21294	0.22600
2615.28427	0.22628
2613.35559	0.22656
2611.42691	0.22682
2609.49824	0.22709
2607.56956	0.22740
2605.64089	0.22771
2603.71221	0.22800
2601.78354	0.22828
2599.85486	0.22860
2597.92618	0.22888
2595.99751	0.22912
2594.06883	0.22937
2592.14016	0.22964
2590.21148	0.22994
2588.28281	0.23024
2586.35413	0.23052
2584.42545	0.23077
2582.49678	0.23104
2580.56810	0.23135
2578.63943	0.23165
2576.71075	0.23195
2574.78208	0.23222
2572.85340	0.23249
2570.92472	0.23275
2568.99605	0.23300
2567.06737	0.23328
2565.13870	0.23360
2563.21002	0.23391
2561.28135	0.23421
2559.35267	0.23450
2557.42399	0.23476
2555.49532	0.23500
2553.56664	0.23526
2551.63797	0.23551
2549.70929	0.23575
2547.78062	0.23601
2545.85194	0.23628
2543.92326	0.23656
2541.99459	0.23684
2540.06591	0.23713
2538.13724	0.23743
2536.20856	0.23774
2534.27989	0.23803
2532.35121	0.23829
2530.42253	0.23851
2528.49386	0.23877
2526.56518	0.23908
2524.63651	0.23939
2522.70783	0.23966
2520.77916	0.23992
2518.85048	0.24023
2516.92181	0.24054
2514.99313	0.24085
2513.06445	0.24117
2511.13578	0.24147
2509.20710	0.24174
2507.27843	0.24201
2505.34975	0.24230
2503.42108	0.24263
2501.49240	0.24297
2499.56372	0.24328
2497.63505	0.24358
2495.70637	0.24390
2493.77770	0.24419
2491.84902	0.24448
2489.92035	0.24481
2487.99167	0.24517
2486.06299	0.24551
2484.13432	0.24582
2482.20564	0.24610
2480.27697	0.24639
2478.34829	0.24670
2476.41962	0.24701
2474.49094	0.24728
2472.56226	0.24753
2470.63359	0.24779
2468.70491	0.24807
2466.77624	0.24837
2464.84756	0.24868
2462.91889	0.24899
2460.99021	0.24929
2459.06153	0.24961
2457.13286	0.24992
2455.20418	0.25021
2453.27551	0.25051
2451.34683	0.25081
2449.41816	0.25108
2447.48948	0.25136
2445.56080	0.25169
2443.63213	0.25202
2441.70345	0.25232
2439.77478	0.25258
2437.84610	0.25286
2435.91743	0.25315
2433.98875	0.25343
2432.06007	0.25372
2430.13140	0.25403
2428.20272	0.25435
2426.27405	0.25467
2424.34537	0.25497
2422.41670	0.25527
2420.48802	0.25554
2418.55934	0.25580
2416.63067	0.25608
2414.70199	0.25639
2412.77332	0.25674
2410.84464	0.25706
2408.91597	0.25733
2406.98729	0.25758
2405.05861	0.25785
2403.12994	0.25813
2401.20126	0.25842
2399.27259	0.25872
2397.34391	0.25901
2395.41524	0.25928
2393.48656	0.25956
2391.55788	0.25986
2389.62921	0.26016
2387.70053	0.26047
2385.77186	0.26075
2383.84318	0.26098
2381.91451	0.26116
2379.98583	0.26129
2378.05715	0.26139
2376.12848	0.26145
2374.19980	0.26147
2372.27113	0.26147
2370.34245	0.26151
2368.41378	0.26162
2366.48510	0.26175
2364.55642	0.26190
2362.62775	0.26212
2360.69907	0.26241
2358.77040	0.26275
2356.84172	0.26316
2354.91305	0.26369
2352.98437	0.26432
2351.05569	0.26494
2349.12702	0.26540
2347.19834	0.26556
2345.26967	0.26557
2343.34099	0.26566
2341.41232	0.26589
2339.48364	0.26617
2337.55496	0.26645
2335.62629	0.26672
2333.69761	0.26699
2331.76894	0.26727
2329.84026	0.26759
2327.91159	0.26799
2325.98291	0.26842
2324.05423	0.26882
2322.12556	0.26920
2320.19688	0.26960
2318.26821	0.27002
2316.33953	0.27042
2314.41086	0.27081
2312.48218	0.27121
2310.55350	0.27160
2308.62483	0.27198
2306.69615	0.27235
2304.76748	0.27270
2302.83880	0.27302
2300.91013	0.27332
2298.98145	0.27361
2297.05277	0.27391
2295.12410	0.27424
2293.19542	0.27454
2291.26675	0.27483
2289.33807	0.27514
2287.40940	0.27546
2285.48072	0.27577
2283.55204	0.27608
2281.62337	0.27641
2279.69469	0.27676
2277.76602	0.27708
2275.83734	0.27738
2273.90867	0.27769
2271.97999	0.27795
2270.05131	0.27817
2268.12264	0.27845
2266.19396	0.27879
2264.26529	0.27913
2262.33661	0.27944
2260.40794	0.27974
2258.47926	0.28003
2256.55058	0.28030
2254.62191	0.28055
2252.69323	0.28081
2250.76456	0.28111
2248.83588	0.28142
2246.90721	0.28175
2244.97853	0.28208
2243.04985	0.28236
2241.12118	0.28261
2239.19250	0.28288
2237.26383	0.28316
2235.33515	0.28344
2233.40648	0.28374
2231.47780	0.28407
2229.54912	0.28439
2227.62045	0.28467
2225.69177	0.28497
2223.76310	0.28529
2221.83442	0.28558
2219.90575	0.28583
2217.97707	0.28610
2216.04839	0.28640
2214.11972	0.28667
2212.19104	0.28693
2210.26237	0.28719
2208.33369	0.28747
2206.40502	0.28777
2204.47634	0.28806
2202.54766	0.28835
2200.61899	0.28865
2198.69031	0.28894
2196.76164	0.28922
2194.83296	0.28952
2192.90429	0.28982
2190.97561	0.29007
2189.04693	0.29031
2187.11826	0.29062
2185.18958	0.29091
2183.26091	0.29117
2181.33223	0.29144
2179.40356	0.29177
2177.47488	0.29209
2175.54620	0.29238
2173.61753	0.29267
2171.68885	0.29298
2169.76018	0.29330
2167.83150	0.29361
2165.90283	0.29391
2163.97415	0.29420
2162.04547	0.29448
2160.11680	0.29476
2158.18812	0.29506
2156.25945	0.29536
2154.33077	0.29566
2152.40210	0.29598
2150.47342	0.29629
2148.54474	0.29658
2146.61607	0.29690
2144.68739	0.29724
2142.75872	0.29755
2140.83004	0.29783
2138.90137	0.29809
2136.97269	0.29837
2135.04401	0.29865
2133.11534	0.29892
2131.18666	0.29920
2129.25799	0.29949
2127.32931	0.29978
2125.40064	0.30008
2123.47196	0.30040
2121.54328	0.30071
2119.61461	0.30100
2117.68593	0.30129
2115.75726	0.30159
2113.82858	0.30191
2111.89991	0.30224
2109.97123	0.30257
2108.04255	0.30287
2106.11388	0.30316
2104.18520	0.30346
2102.25653	0.30376
2100.32785	0.30406
2098.39918	0.30436
2096.47050	0.30464
2094.54182	0.30494
2092.61315	0.30526
2090.68447	0.30556
2088.75580	0.30583
2086.82712	0.30609
2084.89845	0.30635
2082.96977	0.30667
2081.04109	0.30704
2079.11242	0.30738
2077.18374	0.30765
2075.25507	0.30791
2073.32639	0.30819
2071.39772	0.30847
2069.46904	0.30877
2067.54036	0.30905
2065.61169	0.30928
2063.68301	0.30954
2061.75434	0.30990
2059.82566	0.31025
2057.89699	0.31056
2055.96831	0.31087
2054.03963	0.31121
2052.11096	0.31154
2050.18228	0.31184
2048.25361	0.31212
2046.32493	0.31238
2044.39626	0.31263
2042.46758	0.31290
2040.53890	0.31319
2038.61023	0.31350
2036.68155	0.31380
2034.75288	0.31410
2032.82420	0.31444
2030.89553	0.31477
2028.96685	0.31509
2027.03817	0.31543
2025.10950	0.31578
2023.18082	0.31610
2021.25215	0.31635
2019.32347	0.31656
2017.39480	0.31683
2015.46612	0.31716
2013.53744	0.31750
2011.60877	0.31781
2009.68009	0.31811
2007.75142	0.31840
2005.82274	0.31867
2003.89407	0.31897
2001.96539	0.31931
2000.03671	0.31965
1998.10804	0.31997
1996.17936	0.32022
1994.25069	0.32036
1992.32201	0.32050
1990.39334	0.32080
1988.46466	0.32118
1986.53598	0.32153
1984.60731	0.32179
1982.67863	0.32201
1980.74996	0.32226
1978.82128	0.32253
1976.89261	0.32280
1974.96393	0.32307
1973.03525	0.32332
1971.10658	0.32354
1969.17790	0.32373
1967.24923	0.32396
1965.32055	0.32431
1963.39188	0.32468
1961.46320	0.32495
1959.53452	0.32517
1957.60585	0.32545
1955.67717	0.32574
1953.74850	0.32603
1951.81982	0.32630
1949.89115	0.32656
1947.96247	0.32682
1946.03379	0.32702
1944.10512	0.32720
1942.17644	0.32751
1940.24777	0.32799
1938.31909	0.32844
1936.39042	0.32874
1934.46174	0.32899
1932.53306	0.32927
1930.60439	0.32955
1928.67571	0.32980
1926.74704	0.33004
1924.81836	0.33020
1922.88969	0.33037
1920.96101	0.33059
1919.03233	0.33079
1917.10366	0.33116
1915.17498	0.33174
1913.24631	0.33219
1911.31763	0.33240
1909.38896	0.33262
1907.46028	0.33297
1905.53160	0.33334
1903.60293	0.33362
1901.67425	0.33389
1899.74558	0.33415
1897.81690	0.33438
1895.88823	0.33461
1893.95955	0.33488
1892.03087	0.33506
1890.10220	0.33520
1888.17352	0.33556
1886.24485	0.33604
1884.31617	0.33642
1882.38750	0.33670
1880.45882	0.33696
1878.53014	0.33727
1876.60147	0.33764
1874.67279	0.33796
1872.74412	0.33803
1870.81544	0.33782
1868.88677	0.33778
1866.95809	0.33830
1865.02941	0.33906
1863.10074	0.33958
1861.17206	0.33990
1859.24339	0.34020
1857.31471	0.34050
1855.38604	0.34080
1853.45736	0.34112
1851.52868	0.34143
1849.60001	0.34162
1847.67133	0.34156
1845.74266	0.34131
1843.81398	0.34147
1841.88531	0.34227
1839.95663	0.34305
1838.02795	0.34346
1836.09928	0.34375
1834.17060	0.34397
1832.24193	0.34391
1830.31325	0.34383
1828.38458	0.34409
1826.45590	0.34448
1824.52722	0.34492
1822.59855	0.34555
1820.66987	0.34606
1818.74120	0.34633
1816.81252	0.34658
1814.88385	0.34682
1812.95517	0.34691
1811.02649	0.34701
1809.09782	0.34733
1807.16914	0.34775
1805.24047	0.34798
1803.31179	0.34791
1801.38312	0.34784
1799.45444	0.34816
1797.52576	0.34862
1795.59709	0.34877
1793.66841	0.34862
1791.73974	0.34875
1789.81106	0.34939
1787.88239	0.34994
1785.95371	0.35007
1784.02503	0.35018
1782.09636	0.35038
1780.16768	0.35067
1778.23901	0.35101
1776.31033	0.35110
1774.38166	0.35080
1772.45298	0.35058
1770.52430	0.35080
1768.59563	0.35134
1766.66695	0.35203
1764.73828	0.35249
1762.80960	0.35250
1760.88093	0.35256
1758.95225	0.35274
1757.02357	0.35288
1755.09490	0.35300
1753.16622	0.35271
1751.23755	0.35212
1749.30887	0.35202
1747.38020	0.35241
1745.45152	0.35273
1743.52284	0.35281
1741.59417	0.35277
1739.66549	0.35288
1737.73682	0.35291
1735.80814	0.35240
1733.87947	0.35215
1731.95079	0.35295
1730.02211	0.35405
1728.09344	0.35487
1726.16476	0.35541
1724.23609	0.35569
1722.30741	0.35577
1720.37874	0.35535
1718.45006	0.35470
1716.52138	0.35474
1714.59271	0.35558
1712.66403	0.35652
1710.73536	0.35705
1708.80668	0.35706
1706.87801	0.35681
1704.94933	0.35663
1703.02065	0.35610
1701.09198	0.35527
1699.16330	0.35522
1697.23463	0.35579
1695.30595	0.35647
1693.37728	0.35739
1691.44860	0.35791
1689.51992	0.35782
1687.59125	0.35735
1685.66257	0.35652
1683.73390	0.35624
1681.80522	0.35700
1679.87655	0.35781
1677.94787	0.35787
1676.01919	0.35753
1674.09052	0.35750
1672.16184	0.35755
1670.23317	0.35745
1668.30449	0.35788
1666.37582	0.35862
1664.44714	0.35883
1662.51846	0.35888
1660.58979	0.35929
1658.66111	0.35955
1656.73244	0.35878
1654.80376	0.35718
1652.87509	0.35660
1650.94641	0.35764
1649.01773	0.35839
1647.08906	0.35839
1645.16038	0.35888
1643.23171	0.35975
1641.30303	0.36014
1639.37436	0.35986
1637.44568	0.35918
1635.51700	0.35900
1633.58833	0.35981
1631.65965	0.36067
1629.73098	0.36078
1627.80230	0.36049
1625.87363	0.36003
1623.94495	0.35934
1622.01627	0.35885
1620.08760	0.35879
1618.15892	0.35906
1616.23025	0.36004
1614.30157	0.36159
1612.37290	0.36276
1610.44422	0.36325
1608.51554	0.36362
1606.58687	0.36417
1604.65819	0.36469
1602.72952	0.36507
1600.80084	0.36542
1598.87217	0.36577
1596.94349	0.36605
1595.01481	0.36635
1593.08614	0.36671
1591.15746	0.36706
1589.22879	0.36735
1587.30011	0.36765
1585.37144	0.36797
1583.44276	0.36830
1581.51408	0.36859
1579.58541	0.36858
1577.65673	0.36824
1575.72806	0.36832
1573.79938	0.36896
1571.87071	0.36920
1569.94203	0.36907
1568.01335	0.36942
1566.08468	0.37004
1564.15600	0.37028
1562.22733	0.36964
1560.29865	0.36832
1558.36998	0.36795
1556.44130	0.36914
1554.51262	0.37056
1552.58395	0.37138
1550.65527	0.37179
1548.72660	0.37206
1546.79792	0.37203
1544.86925	0.37145
1542.94057	0.37068
1541.01189	0.37034
1539.08322	0.37100
1537.15454	0.37218
1535.22587	0.37272
1533.29719	0.37289
1531.36852	0.37340
1529.43984	0.37371
1527.51116	0.37352
1525.58249	0.37327
1523.65381	0.37278
1521.72514	0.37227
1519.79646	0.37248
1517.86779	0.37312
1515.93911	0.37375
1514.01043	0.37433
1512.08176	0.37445
1510.15308	0.37388
1508.22441	0.37314
1506.29573	0.37340
1504.36706	0.37484
1502.43838	0.37599
1500.50970	0.37603
1498.58103	0.37566
1496.65235	0.37577
1494.72368	0.37634
1492.79500	0.37646
1490.86633	0.37599
1488.93765	0.37587
1487.00897	0.37647
1485.08030	0.37716
1483.15162	0.37744
1481.22295	0.37737
1479.29427	0.37712
1477.36560	0.37656
1475.43692	0.37580
1473.50824	0.37523
1471.57957	0.37526
1469.65089	0.37568
1467.72222	0.37576
1465.79354	0.37553
1463.86487	0.37562
1461.93619	0.37575
1460.00751	0.37505
1458.07884	0.37396
1456.15016	0.37402
1454.22149	0.37528
1452.29281	0.37629
1450.36414	0.37653
1448.43546	0.37658
1446.50678	0.37694
1444.57811	0.37746
1442.64943	0.37779
1440.72076	0.37769
1438.79208	0.37697
1436.86341	0.37636
1434.93473	0.37677
1433.00605	0.37747
1431.07738	0.37764
1429.14870	0.37768
1427.22003	0.37775
1425.29135	0.37758
1423.36268	0.37724
1421.43400	0.37663
1419.50532	0.37598
1417.57665	0.37608
1415.64797	0.37677
1413.71930	0.37724
1411.79062	0.37732
1409.86195	0.37724
1407.93327	0.37710
1406.00459	0.37689
1404.07592	0.37681
1402.14724	0.37677
1400.21857	0.37648
1398.28989	0.37611
1396.36122	0.37588
1394.43254	0.37592
1392.50386	0.37625
1390.57519	0.37624
1388.64651	0.37559
1386.71784	0.37492
1384.78916	0.37474
1382.86049	0.37489
1380.93181	0.37506
1379.00313	0.37512
1377.07446	0.37498
1375.14578	0.37476
1373.21711	0.37476
1371.28843	0.37494
1369.35976	0.37501
1367.43108	0.37492
1365.50240	0.37460
1363.57373	0.37415
1361.64505	0.37409
1359.71638	0.37446
1357.78770	0.37477
1355.85903	0.37484
1353.93035	0.37487
1352.00167	0.37499
1350.07300	0.37514
1348.14432	0.37532
1346.21565	0.37548
1344.28697	0.37553
1342.35830	0.37535
1340.42962	0.37504
1338.50094	0.37494
1336.57227	0.37511
1334.64359	0.37529
1332.71492	0.37536
1330.78624	0.37537
1328.85757	0.37531
1326.92889	0.37515
1325.00021	0.37493
1323.07154	0.37474
1321.14286	0.37460
1319.21419	0.37446
1317.28551	0.37439
1315.35684	0.37429
1313.42816	0.37411
1311.49948	0.37390
1309.57081	0.37363
1307.64213	0.37330
1305.71346	0.37295
1303.78478	0.37263
1301.85611	0.37233
1299.92743	0.37203
1297.99875	0.37166
1296.07008	0.37125
1294.14140	0.37082
1292.21273	0.37033
1290.28405	0.36981
1288.35538	0.36931
1286.42670	0.36887
1284.49802	0.36843
1282.56935	0.36790
1280.64067	0.36729
1278.71200	0.36663
1276.78332	0.36585
1274.85465	0.36490
1272.92597	0.36379
1270.99729	0.36243
1269.06862	0.36074
1267.13994	0.35887
1265.21127	0.35720
1263.28259	0.35603
1261.35392	0.35547
1259.42524	0.35543
1257.49656	0.35566
1255.56789	0.35584
1253.63921	0.35580
1251.71054	0.35550
1249.78186	0.35499
1247.85319	0.35432
1245.92451	0.35351
1243.99583	0.35266
1242.06716	0.35185
1240.13848	0.35108
1238.20981	0.35026
1236.28113	0.34934
1234.35246	0.34830
1232.42378	0.34721
1230.49510	0.34611
1228.56643	0.34504
1226.63775	0.34405
1224.70908	0.34314
1222.78040	0.34227
1220.85173	0.34138
1218.92305	0.34050
1216.99437	0.33958
1215.06570	0.33860
1213.13702	0.33761
1211.20835	0.33669
1209.27967	0.33584
1207.35100	0.33497
1205.42232	0.33404
1203.49364	0.33314
1201.56497	0.33231
1199.63629	0.33142
1197.70762	0.33048
1195.77894	0.32956
1193.85027	0.32867
1191.92159	0.32774
1189.99291	0.32672
1188.06424	0.32555
1186.13556	0.32429
1184.20689	0.32306
1182.27821	0.32181
1180.34954	0.32048
1178.42086	0.31916
1176.49218	0.31787
1174.56351	0.31650
1172.63483	0.31504
1170.70616	0.31356
1168.77748	0.31213
1166.84881	0.31076
1164.92013	0.30940
1162.99145	0.30803
1161.06278	0.30662
1159.13410	0.30521
1157.20543	0.30390
1155.27675	0.30270
1153.34808	0.30149
1151.41940	0.30031
1149.49072	0.29923
1147.56205	0.29817
1145.63337	0.29704
1143.70470	0.29587
1141.77602	0.29472
1139.84735	0.29359
1137.91867	0.29249
1135.98999	0.29137
1134.06132	0.29021
1132.13264	0.28893
1130.20397	0.28751
1128.27529	0.28606
1126.34662	0.28468
1124.41794	0.28330
1122.48926	0.28183
1120.56059	0.28031
1118.63191	0.27879
1116.70324	0.27727
1114.77456	0.27576
1112.84589	0.27425
1110.91721	0.27276
1108.98853	0.27128
1107.05986	0.26979
1105.13118	0.26833
1103.20251	0.26694
1101.27383	0.26558
1099.34516	0.26426
1097.41648	0.26299
1095.48780	0.26175
1093.55913	0.26056
1091.63045	0.25946
1089.70178	0.25839
1087.77310	0.25732
1085.84443	0.25622
1083.91575	0.25514
1081.98707	0.25411
1080.05840	0.25316
1078.12972	0.25230
1076.20105	0.25152
1074.27237	0.25082
1072.34370	0.25024
1070.41502	0.24979
1068.48634	0.24951
1066.55767	0.24941
1064.62899	0.24945
1062.70032	0.24953
1060.77164	0.24964
1058.84297	0.24983
1056.91429	0.25014
1054.98561	0.25057
1053.05694	0.25101
1051.12826	0.25145
1049.19959	0.25192
1047.27091	0.25247
1045.34224	0.25309
1043.41356	0.25379
1041.48488	0.25459
1039.55621	0.25544
1037.62753	0.25624
1035.69886	0.25695
1033.77018	0.25765
1031.84151	0.25837
1029.91283	0.25908
1027.98415	0.25982
1026.05548	0.26066
1024.12680	0.26153
1022.19813	0.26238
1020.26945	0.26328
1018.34078	0.26428
1016.41210	0.26540
1014.48342	0.26664
1012.55475	0.26799
1010.62607	0.26935
1008.69740	0.27069
1006.76872	0.27199
1004.84005	0.27325
1002.91137	0.27444
1000.98269	0.27550
999.05402	0.27641
997.12534	0.27723
995.19667	0.27799
993.26799	0.27865
991.33932	0.27921
989.41064	0.27978
987.48196	0.28042
985.55329	0.28106
983.62461	0.28155
981.69594	0.28192
979.76726	0.28223
977.83859	0.28245
975.90991	0.28251
973.98123	0.28250
972.05256	0.28253
970.12388	0.28255
968.19521	0.28246
966.26653	0.28225
964.33786	0.28202
962.40918	0.28177
960.48050	0.28146
958.55183	0.28112
956.62315	0.28079
954.69448	0.28040
952.76580	0.27993
950.83713	0.27948
948.90845	0.27902
946.97977	0.27854
945.05110	0.27802
943.12242	0.27738
941.19375	0.27664
939.26507	0.27595
937.33640	0.27537
935.40772	0.27480
933.47904	0.27420
931.55037	0.27358
929.62169	0.27293
927.69302	0.27221
925.76434	0.27144
923.83567	0.27073
921.90699	0.27011
919.97831	0.26945
918.04964	0.26867
916.12096	0.26785
914.19229	0.26707
912.26361	0.26630
910.33494	0.26553
908.40626	0.26473
906.47758	0.26390
904.54891	0.26304
902.62023	0.26220
900.69156	0.26143
898.76288	0.26064
896.83421	0.25974
894.90553	0.25878
892.97685	0.25785
891.04818	0.25694
889.11950	0.25603
887.19083	0.25512
885.26215	0.25419
883.33348	0.25336
881.40480	0.25263
879.47612	0.25190
877.54745	0.25112
875.61877	0.25036
873.69010	0.24965
871.76142	0.24893
869.83275	0.24816
867.90407	0.24740
865.97539	0.24666
864.04672	0.24584
862.11804	0.24499
860.18937	0.24415
858.26069	0.24326
856.33202	0.24235
854.40334	0.24147
852.47466	0.24057
850.54599	0.23964
848.61731	0.23873
846.68864	0.23780
844.75996	0.23686
842.83129	0.23599
840.90261	0.23514
838.97394	0.23429
837.04526	0.23342
835.11658	0.23253
833.18791	0.23156
831.25923	0.23051
829.33056	0.22943
827.40188	0.22828
825.47321	0.22706
823.54453	0.22593
821.61585	0.22499
819.68718	0.22413
817.75850	0.22321
815.82983	0.22223
813.90115	0.22128
811.97248	0.22030
810.04380	0.21930
808.11512	0.21831
806.18645	0.21738
804.25777	0.21653
802.32910	0.21579
800.40042	0.21518
798.47175	0.21470
796.54307	0.21432
794.61439	0.21401
792.68572	0.21370
790.75704	0.21336
788.82837	0.21309
786.89969	0.21286
784.97102	0.21252
783.04234	0.21203
781.11366	0.21152
779.18499	0.21105
777.25631	0.21060
775.32764	0.21010
773.39896	0.20962
771.47029	0.20915
769.54161	0.20867
767.61293	0.20819
765.68426	0.20767
763.75558	0.20698
761.82691	0.20612
759.89823	0.20527
757.96956	0.20448
756.04088	0.20366
754.11220	0.20281
752.18353	0.20194
750.25485	0.20103
748.32618	0.20005
746.39750	0.19907
744.46883	0.19816
742.54015	0.19734
740.61147	0.19657
738.68280	0.19584
736.75412	0.19511
734.82545	0.19438
732.89677	0.19369
730.96810	0.19302
729.03942	0.19230
727.11074	0.19156
725.18207	0.19085
723.25339	0.19016
721.32472	0.18944
719.39604	0.18870
717.46737	0.18799
715.53869	0.18727
713.61001	0.18649
711.68134	0.18565
709.75266	0.18482
707.82399	0.18400
705.89531	0.18320
703.96664	0.18246
702.03796	0.18174
700.10928	0.18101
698.18061	0.18026
696.25193	0.17949
694.32326	0.17869
692.39458	0.17784
690.46591	0.17697
688.53723	0.17610
686.60855	0.17519
684.67988	0.17426
682.75120	0.17331
680.82253	0.17228
678.89385	0.17107
676.96518	0.16978
675.03650	0.16857
673.10782	0.16735
671.17915	0.16589
669.25047	0.16423
667.32180	0.16280
665.39312	0.16167
663.46445	0.16041
661.53577	0.15890
659.60709	0.15732
657.67842	0.15571
655.74974	0.15416
653.82107	0.15272
651.89239	0.15131
649.96372	0.14990
648.03504	0.14846
646.10636	0.14696
644.17769	0.14541
642.24901	0.14382
640.32034	0.14213
638.39166	0.14026
636.46299	0.13828
634.53431	0.13641
632.60563	0.13469
630.67696	0.13296
628.74828	0.13122
626.81961	0.12960
624.89093	0.12805
622.96226	0.12634
621.03358	0.12458
619.10490	0.12297
617.17623	0.12140
615.24755	0.11969
613.31888	0.11792
611.39020	0.11622
609.46153	0.11454
607.53285	0.11286
605.60417	0.11123
603.67550	0.10970
601.74682	0.10826
599.81815	0.10691
597.88947	0.10561
595.96080	0.10433
594.03212	0.10313
592.10344	0.10206
590.17477	0.10099
588.24609	0.09982
586.31742	0.09863
584.38874	0.09744
582.46007	0.09632
580.53139	0.09535
578.60271	0.09447
576.67404	0.09349
574.74536	0.09240
572.81669	0.09135
570.88801	0.09034
568.95934	0.08939
567.03066	0.08856
565.10198	0.08782
563.17331	0.08714
561.24463	0.08650
559.31596	0.08581
557.38728	0.08502
555.45861	0.08423
553.52993	0.08353
551.60125	0.08288
549.67258	0.08227
547.74390	0.08175
545.81523	0.08130
543.88655	0.08091
541.95788	0.08050
540.02920	0.08001
538.10052	0.07944
536.17185	0.07883
534.24317	0.07827
532.31450	0.07782
530.38582	0.07735
528.45715	0.07674
526.52847	0.07603
524.59979	0.07531
522.67112	0.07460
520.74244	0.07383
518.81377	0.07298
516.88509	0.07207
514.95642	0.07117
513.02774	0.07039
511.09906	0.06974
509.17039	0.06906
507.24171	0.06829
505.31304	0.06742
503.38436	0.06644
501.45569	0.06538
499.52701	0.06432
497.59833	0.06317
495.66966	0.06195
493.74098	0.06071
491.81231	0.05946
489.88363	0.05826
487.95496	0.05707
486.02628	0.05582
484.09760	0.05456
482.16893	0.05339
480.24025	0.05228
478.31158	0.05118
476.38290	0.04999
474.45423	0.04868
472.52555	0.04749
470.59687	0.04655
468.66820	0.04573
466.73952	0.04502
464.81085	0.04443
462.88217	0.04399
460.95350	0.04363
459.02482	0.04330
457.09614	0.04307
455.16747	0.04303
453.23879	0.04307
451.31012	0.04299
449.38144	0.04277
447.45277	0.04258
445.52409	0.04238
443.59541	0.04198
441.66674	0.04139
439.73806	0.04065
437.80939	0.03976
435.88071	0.03879
433.95204	0.03781
432.02336	0.03678
430.09468	0.03560
428.16601	0.03431
426.23733	0.03311
424.30866	0.03196
422.37998	0.03078
420.45131	0.02966
418.52263	0.02851
416.59395	0.02725
414.66528	0.02598
412.73660	0.02473
410.80793	0.02345
408.87925	0.02216
406.95058	0.02095
405.02190	0.01980
403.09322	0.01868
401.16455	0.01762
399.23587	0.01665
397.30720	0.01568
395.37852	0.01464
393.44985	0.01356
391.52117	0.01260
389.59249	0.01191
387.66382	0.01130
385.73514	0.01056
383.80647	0.00974
381.87779	0.00889
379.94912	0.00805
378.02044	0.00735
376.09176	0.00678
374.16309	0.00620
372.23441	0.00564
370.30574	0.00509
368.37706	0.00455
