7496.76250	0.00222
7494.83382	0.00222
7492.90514	0.00223
7490.97647	0.00224
7489.04779	0.00226
7487.11912	0.00227
7485.19044	0.00228
7483.26177	0.00227
7481.33309	0.00226
7479.40441	0.00227
7477.47574	0.00228
7475.54706	0.00229
7473.61839	0.00229
7471.68971	0.00229
7469.76104	0.00231
7467.83236	0.00232
7465.90368	0.00232
7463.97501	0.00232
7462.04633	0.00232
7460.11766	0.00233
7458.18898	0.00235
7456.26031	0.00236
7454.33163	0.00236
7452.40295	0.00235
7450.47428	0.00236
7448.54560	0.00238
7446.61693	0.00239
7444.68825	0.00240
7442.75958	0.00241
7440.83090	0.00242
7438.90222	0.00241
7436.97355	0.00240
7435.04487	0.00241
7433.11620	0.00243
7431.18752	0.00244
7429.25885	0.00244
7427.33017	0.00244
7425.40149	0.00245
7423.47282	0.00246
7421.54414	0.00246
7419.61547	0.00245
7417.68679	0.00245
7415.75812	0.00245
7413.82944	0.00246
7411.90076	0.00248
7409.97209	0.00249
7408.04341	0.00251
7406.11474	0.00252
7404.18606	0.00252
7402.25739	0.00253
7400.32871	0.00255
7398.40003	0.00255
7396.47136	0.00255
7394.54268	0.00256
7392.61401	0.00256
7390.68533	0.00255
7388.75666	0.00255
7386.82798	0.00256
7384.89930	0.00256
7382.97063	0.00257
7381.04195	0.00259
7379.11328	0.00262
7377.18460	0.00262
7375.25593	0.00263
7373.32725	0.00264
7371.39857	0.00264
7369.46990	0.00264
7367.54122	0.00264
7365.61255	0.00264
7363.68387	0.00264
7361.75520	0.00266
7359.82652	0.00268
7357.89784	0.00267
7355.96917	0.00266
7354.04049	0.00266
7352.11182	0.00267
7350.18314	0.00269
7348.25447	0.00271
7346.32579	0.00273
7344.39711	0.00273
7342.46844	0.00274
7340.53976	0.00274
7338.61109	0.00276
7336.68241	0.00277
7334.75374	0.00276
7332.82506	0.00276
7330.89638	0.00277
7328.96771	0.00279
7327.03903	0.00280
7325.11036	0.00281
7323.18168	0.00280
7321.25301	0.00279
7319.32433	0.00278
7317.39565	0.00279
7315.46698	0.00279
7313.53830	0.00280
7311.60963	0.00282
7309.68095	0.00283
7307.75228	0.00285
7305.82360	0.00286
7303.89492	0.00287
7301.96625	0.00288
7300.03757	0.00288
7298.10890	0.00288
7296.18022	0.00288
7294.25155	0.00290
7292.32287	0.00292
7290.39419	0.00292
7288.46552	0.00292
7286.53684	0.00292
7284.60817	0.00293
7282.67949	0.00294
7280.75082	0.00294
7278.82214	0.00294
7276.89346	0.00295
7274.96479	0.00296
7273.03611	0.00298
7271.10744	0.00300
7269.17876	0.00300
7267.25009	0.00301
7265.32141	0.00302
7263.39273	0.00303
7261.46406	0.00302
7259.53538	0.00302
7257.60671	0.00303
7255.67803	0.00303
7253.74936	0.00304
7251.82068	0.00305
7249.89200	0.00305
7247.96333	0.00305
7246.03465	0.00305
7244.10598	0.00306
7242.17730	0.00308
7240.24863	0.00311
7238.31995	0.00313
7236.39127	0.00313
7234.46260	0.00312
7232.53392	0.00312
7230.60525	0.00313
7228.67657	0.00313
7226.74790	0.00313
7224.81922	0.00313
7222.89054	0.00313
7220.96187	0.00314
7219.03319	0.00315
7217.10452	0.00316
7215.17584	0.00318
7213.24717	0.00319
7211.31849	0.00321
7209.38981	0.00321
7207.46114	0.00320
7205.53246	0.00318
7203.60379	0.00319
7201.67511	0.00321
7199.74644	0.00323
7197.81776	0.00324
7195.88908	0.00324
7193.96041	0.00324
7192.03173	0.00325
7190.10306	0.00327
7188.17438	0.00328
7186.24571	0.00328
7184.31703	0.00328
7182.38835	0.00329
7180.45968	0.00330
7178.53100	0.00332
7176.60233	0.00333
7174.67365	0.00335
7172.74498	0.00336
7170.81630	0.00336
7168.88762	0.00336
7166.95895	0.00336
7165.03027	0.00336
7163.10160	0.00337
7161.17292	0.00337
7159.24425	0.00337
7157.31557	0.00335
7155.38689	0.00336
7153.45822	0.00339
7151.52954	0.00342
7149.60087	0.00345
7147.67219	0.00346
7145.74352	0.00346
7143.81484	0.00346
7141.88616	0.00346
7139.95749	0.00346
7138.02881	0.00347
7136.10014	0.00348
7134.17146	0.00350
7132.24279	0.00351
7130.31411	0.00352
7128.38543	0.00351
7126.45676	0.00350
7124.52808	0.00351
7122.59941	0.00353
7120.67073	0.00354
7118.74206	0.00355
7116.81338	0.00355
7114.88470	0.00355
7112.95603	0.00356
7111.02735	0.00358
7109.09868	0.00359
7107.17000	0.00360
7105.24133	0.00361
7103.31265	0.00363
7101.38397	0.00363
7099.45530	0.00363
7097.52662	0.00364
7095.59795	0.00364
7093.66927	0.00365
7091.74060	0.00366
7089.81192	0.00367
7087.88324	0.00368
7085.95457	0.00368
7084.02589	0.00367
7082.09722	0.00367
7080.16854	0.00368
7078.23987	0.00369
7076.31119	0.00371
7074.38251	0.00373
7072.45384	0.00373
7070.52516	0.00374
7068.59649	0.00375
7066.66781	0.00376
7064.73914	0.00376
7062.81046	0.00376
7060.88178	0.00376
7058.95311	0.00376
7057.02443	0.00378
7055.09576	0.00381
7053.16708	0.00382
7051.23841	0.00382
7049.30973	0.00383
7047.38105	0.00386
7045.45238	0.00387
7043.52370	0.00387
7041.59503	0.00387
7039.66635	0.00388
7037.73768	0.00388
7035.80900	0.00389
7033.88032	0.00390
7031.95165	0.00391
7030.02297	0.00392
7028.09430	0.00391
7026.16562	0.00391
7024.23695	0.00393
7022.30827	0.00394
7020.37959	0.00395
7018.45092	0.00396
7016.52224	0.00397
7014.59357	0.00398
7012.66489	0.00399
7010.73622	0.00399
7008.80754	0.00398
7006.87886	0.00399
7004.95019	0.00401
7003.02151	0.00404
7001.09284	0.00405
6999.16416	0.00405
6997.23549	0.00406
6995.30681	0.00407
6993.37813	0.00408
6991.44946	0.00408
6989.52078	0.00409
6987.59211	0.00411
6985.66343	0.00413
6983.73476	0.00414
6981.80608	0.00413
6979.87740	0.00414
6977.94873	0.00415
6976.02005	0.00416
6974.09138	0.00416
6972.16270	0.00417
6970.23403	0.00418
6968.30535	0.00419
6966.37667	0.00420
6964.44800	0.00422
6962.51932	0.00423
6960.59065	0.00422
6958.66197	0.00421
6956.73330	0.00421
6954.80462	0.00422
6952.87594	0.00425
6950.94727	0.00428
6949.01859	0.00429
6947.08992	0.00429
6945.16124	0.00430
6943.23257	0.00430
6941.30389	0.00431
6939.37521	0.00431
6937.44654	0.00433
6935.51786	0.00435
6933.58919	0.00436
6931.66051	0.00436
6929.73184	0.00436
6927.80316	0.00437
6925.87448	0.00438
6923.94581	0.00438
6922.01713	0.00439
6920.08846	0.00441
6918.15978	0.00444
6916.23111	0.00444
6914.30243	0.00444
6912.37375	0.00445
6910.44508	0.00445
6908.51640	0.00446
6906.58773	0.00448
6904.65905	0.00450
6902.73038	0.00451
6900.80170	0.00451
6898.87302	0.00451
6896.94435	0.00451
6895.01567	0.00452
6893.08700	0.00454
6891.15832	0.00456
6889.22965	0.00456
6887.30097	0.00456
6885.37229	0.00458
6883.44362	0.00460
6881.51494	0.00461
6879.58627	0.00462
6877.65759	0.00463
6875.72892	0.00463
6873.80024	0.00463
6871.87156	0.00464
6869.94289	0.00464
6868.01421	0.00465
6866.08554	0.00466
6864.15686	0.00468
6862.22819	0.00469
6860.29951	0.00471
6858.37083	0.00471
6856.44216	0.00471
6854.51348	0.00471
6852.58481	0.00473
6850.65613	0.00475
6848.72746	0.00475
6846.79878	0.00474
6844.87010	0.00475
6842.94143	0.00478
6841.01275	0.00480
6839.08408	0.00481
6837.15540	0.00482
6835.22673	0.00484
6833.29805	0.00485
6831.36937	0.00486
6829.44070	0.00487
6827.51202	0.00487
6825.58335	0.00487
6823.65467	0.00488
6821.72600	0.00489
6819.79732	0.00491
6817.86864	0.00491
6815.93997	0.00491
6814.01129	0.00494
6812.08262	0.00497
6810.15394	0.00498
6808.22527	0.00498
6806.29659	0.00499
6804.36791	0.00500
6802.43924	0.00502
6800.51056	0.00503
6798.58189	0.00504
6796.65321	0.00505
6794.72454	0.00505
6792.79586	0.00507
6790.86718	0.00508
6788.93851	0.00508
6787.00983	0.00508
6785.08116	0.00509
6783.15248	0.00510
6781.22381	0.00512
6779.29513	0.00513
6777.36645	0.00515
6775.43778	0.00517
6773.50910	0.00518
6771.58043	0.00518
6769.65175	0.00518
6767.72308	0.00519
6765.79440	0.00521
6763.86572	0.00523
6761.93705	0.00523
6760.00837	0.00522
6758.07970	0.00523
6756.15102	0.00525
6754.22235	0.00527
6752.29367	0.00530
6750.36499	0.00531
6748.43632	0.00532
6746.50764	0.00533
6744.57897	0.00534
6742.65029	0.00536
6740.72162	0.00538
6738.79294	0.00540
6736.86426	0.00541
6734.93559	0.00540
6733.00691	0.00539
6731.07824	0.00539
6729.14956	0.00541
6727.22089	0.00541
6725.29221	0.00541
6723.36353	0.00543
6721.43486	0.00546
6719.50618	0.00548
6717.57751	0.00549
6715.64883	0.00550
6713.72016	0.00550
6711.79148	0.00550
6709.86280	0.00553
6707.93413	0.00556
6706.00545	0.00558
6704.07678	0.00559
6702.14810	0.00560
6700.21943	0.00559
6698.29075	0.00559
6696.36207	0.00562
6694.43340	0.00563
6692.50472	0.00565
6690.57605	0.00566
6688.64737	0.00568
6686.71870	0.00569
6684.79002	0.00569
6682.86134	0.00570
6680.93267	0.00569
6679.00399	0.00569
6677.07532	0.00571
6675.14664	0.00573
6673.21797	0.00576
6671.28929	0.00577
6669.36061	0.00578
6667.43194	0.00579
6665.50326	0.00581
6663.57459	0.00583
6661.64591	0.00583
6659.71724	0.00583
6657.78856	0.00583
6655.85988	0.00585
6653.93121	0.00586
6652.00253	0.00587
6650.07386	0.00590
6648.14518	0.00594
6646.21651	0.00595
6644.28783	0.00595
6642.35915	0.00595
6640.43048	0.00596
6638.50180	0.00598
6636.57313	0.00600
6634.64445	0.00601
6632.71578	0.00601
6630.78710	0.00602
6628.85842	0.00603
6626.92975	0.00604
6625.00107	0.00604
6623.07240	0.00605
6621.14372	0.00607
6619.21505	0.00608
6617.28637	0.00610
6615.35769	0.00611
6613.42902	0.00613
6611.50034	0.00615
6609.57167	0.00618
6607.64299	0.00619
6605.71432	0.00620
6603.78564	0.00622
6601.85696	0.00622
6599.92829	0.00622
6597.99961	0.00623
6596.07094	0.00624
6594.14226	0.00625
6592.21359	0.00626
6590.28491	0.00628
6588.35623	0.00629
6586.42756	0.00630
6584.49888	0.00631
6582.57021	0.00633
6580.64153	0.00635
6578.71286	0.00636
6576.78418	0.00638
6574.85550	0.00639
6572.92683	0.00641
6570.99815	0.00643
6569.06948	0.00646
6567.14080	0.00648
6565.21213	0.00648
6563.28345	0.00649
6561.35477	0.00650
6559.42610	0.00650
6557.49742	0.00650
6555.56875	0.00651
6553.64007	0.00653
6551.71140	0.00655
6549.78272	0.00657
6547.85404	0.00659
6545.92537	0.00659
6543.99669	0.00660
6542.06802	0.00663
6540.13934	0.00667
6538.21067	0.00669
6536.28199	0.00669
6534.35331	0.00668
6532.42464	0.00668
6530.49596	0.00667
6528.56729	0.00667
6526.63861	0.00669
6524.70994	0.00673
6522.78126	0.00677
6520.85258	0.00680
6518.92391	0.00681
6516.99523	0.00681
6515.06656	0.00680
6513.13788	0.00681
6511.20921	0.00684
6509.28053	0.00687
6507.35185	0.00688
6505.42318	0.00689
6503.49450	0.00690
6501.56583	0.00691
6499.63715	0.00691
6497.70848	0.00693
6495.77980	0.00695
6493.85112	0.00696
6491.92245	0.00696
6489.99377	0.00696
6488.06510	0.00698
6486.13642	0.00701
6484.20775	0.00704
6482.27907	0.00706
6480.35039	0.00708
6478.42172	0.00709
6476.49304	0.00709
6474.56437	0.00710
6472.63569	0.00712
6470.70702	0.00714
6468.77834	0.00717
6466.84966	0.00720
6464.92099	0.00721
6462.99231	0.00721
6461.06364	0.00722
6459.13496	0.00724
6457.20629	0.00726
6455.27761	0.00726
6453.34893	0.00726
6451.42026	0.00727
6449.49158	0.00728
6447.56291	0.00731
6445.63423	0.00734
6443.70556	0.00736
6441.77688	0.00737
6439.84820	0.00738
6437.91953	0.00740
6435.99085	0.00741
6434.06218	0.00743
6432.13350	0.00744
6430.20483	0.00745
6428.27615	0.00746
6426.34747	0.00747
6424.41880	0.00750
6422.49012	0.00753
6420.56145	0.00755
6418.63277	0.00757
6416.70410	0.00758
6414.77542	0.00759
6412.84674	0.00761
6410.91807	0.00764
6408.98939	0.00764
6407.06072	0.00764
6405.13204	0.00766
6403.20337	0.00769
6401.27469	0.00772
6399.34601	0.00773
6397.41734	0.00773
6395.48866	0.00774
6393.55999	0.00776
6391.63131	0.00779
6389.70264	0.00781
6387.77396	0.00783
6385.84528	0.00784
6383.91661	0.00785
6381.98793	0.00787
6380.05926	0.00790
6378.13058	0.00790
6376.20191	0.00790
6374.27323	0.00791
6372.34455	0.00792
6370.41588	0.00794
6368.48720	0.00796
6366.55853	0.00798
6364.62985	0.00800
6362.70118	0.00800
6360.77250	0.00800
6358.84382	0.00802
6356.91515	0.00804
6354.98647	0.00806
6353.05780	0.00808
6351.12912	0.00809
6349.20045	0.00812
6347.27177	0.00815
6345.34309	0.00819
6343.41442	0.00821
6341.48574	0.00821
6339.55707	0.00821
6337.62839	0.00822
6335.69972	0.00823
6333.77104	0.00825
6331.84236	0.00827
6329.91369	0.00830
6327.98501	0.00833
6326.05634	0.00836
6324.12766	0.00837
6322.19899	0.00836
6320.27031	0.00837
6318.34163	0.00838
6316.41296	0.00841
6314.48428	0.00845
6312.55561	0.00848
6310.62693	0.00849
6308.69826	0.00849
6306.76958	0.00850
6304.84090	0.00852
6302.91223	0.00855
6300.98355	0.00857
6299.05488	0.00860
6297.12620	0.00862
6295.19753	0.00864
6293.26885	0.00864
6291.34017	0.00864
6289.41150	0.00866
6287.48282	0.00869
6285.55415	0.00871
6283.62547	0.00872
6281.69680	0.00874
6279.76812	0.00876
6277.83944	0.00878
6275.91077	0.00880
6273.98209	0.00882
6272.05342	0.00884
6270.12474	0.00884
6268.19607	0.00886
6266.26739	0.00890
6264.33871	0.00894
6262.41004	0.00895
6260.48136	0.00895
6258.55269	0.00896
6256.62401	0.00899
6254.69534	0.00902
6252.76666	0.00903
6250.83798	0.00905
6248.90931	0.00905
6246.98063	0.00905
6245.05196	0.00907
6243.12328	0.00910
6241.19461	0.00913
6239.26593	0.00914
6237.33725	0.00915
6235.40858	0.00917
6233.47990	0.00921
6231.55123	0.00925
6229.62255	0.00926
6227.69388	0.00927
6225.76520	0.00928
6223.83652	0.00929
6221.90785	0.00930
6219.97917	0.00932
6218.05050	0.00934
6216.12182	0.00936
6214.19315	0.00937
6212.26447	0.00940
6210.33579	0.00943
6208.40712	0.00946
6206.47844	0.00948
6204.54977	0.00950
6202.62109	0.00952
6200.69242	0.00953
6198.76374	0.00954
6196.83506	0.00955
6194.90639	0.00956
6192.97771	0.00958
6191.04904	0.00962
6189.12036	0.00966
6187.19169	0.00968
6185.26301	0.00969
6183.33433	0.00971
6181.40566	0.00973
6179.47698	0.00976
6177.54831	0.00979
6175.61963	0.00981
6173.69096	0.00984
6171.76228	0.00987
6169.83360	0.00987
6167.90493	0.00988
6165.97625	0.00991
6164.04758	0.00992
6162.11890	0.00992
6160.19023	0.00995
6158.26155	0.00997
6156.33287	0.00999
6154.40420	0.01002
6152.47552	0.01004
6150.54685	0.01006
6148.61817	0.01008
6146.68950	0.01009
6144.76082	0.01011
6142.83214	0.01015
6140.90347	0.01019
6138.97479	0.01022
6137.04612	0.01023
6135.11744	0.01024
6133.18877	0.01025
6131.26009	0.01026
6129.33141	0.01027
6127.40274	0.01028
6125.47406	0.01030
6123.54539	0.01034
6121.61671	0.01038
6119.68804	0.01040
6117.75936	0.01041
6115.83068	0.01043
6113.90201	0.01045
6111.97333	0.01047
6110.04466	0.01049
6108.11598	0.01053
6106.18731	0.01058
6104.25863	0.01060
6102.32995	0.01061
6100.40128	0.01061
6098.47260	0.01063
6096.54393	0.01066
6094.61525	0.01068
6092.68658	0.01069
6090.75790	0.01071
6088.82922	0.01074
6086.90055	0.01077
6084.97187	0.01080
6083.04320	0.01082
6081.11452	0.01083
6079.18585	0.01084
6077.25717	0.01086
6075.32849	0.01090
6073.39982	0.01093
6071.47114	0.01095
6069.54247	0.01096
6067.61379	0.01097
6065.68512	0.01100
6063.75644	0.01104
6061.82776	0.01107
6059.89909	0.01107
6057.97041	0.01107
6056.04174	0.01110
6054.11306	0.01114
6052.18439	0.01117
6050.25571	0.01120
6048.32703	0.01123
6046.39836	0.01125
6044.46968	0.01126
6042.54101	0.01128
6040.61233	0.01131
6038.68366	0.01133
6036.75498	0.01136
6034.82630	0.01138
6032.89763	0.01142
6030.96895	0.01145
6029.04028	0.01148
6027.11160	0.01150
6025.18293	0.01151
6023.25425	0.01151
6021.32557	0.01152
6019.39690	0.01154
6017.46822	0.01157
6015.53955	0.01161
6013.61087	0.01163
6011.68220	0.01166
6009.75352	0.01170
6007.82484	0.01172
6005.89617	0.01174
6003.96749	0.01176
6002.03882	0.01179
6000.11014	0.01181
5998.18147	0.01184
5996.25279	0.01186
5994.32411	0.01188
5992.39544	0.01191
5990.46676	0.01193
5988.53809	0.01194
5986.60941	0.01196
5984.68074	0.01200
5982.75206	0.01204
5980.82338	0.01206
5978.89471	0.01206
5976.96603	0.01208
5975.03736	0.01212
5973.10868	0.01216
5971.18001	0.01219
5969.25133	0.01221
5967.32265	0.01224
5965.39398	0.01228
5963.46530	0.01229
5961.53663	0.01229
5959.60795	0.01231
5957.67928	0.01236
5955.75060	0.01240
5953.82192	0.01242
5951.89325	0.01243
5949.96457	0.01245
5948.03590	0.01247
5946.10722	0.01251
5944.17855	0.01255
5942.24987	0.01257
5940.32119	0.01259
5938.39252	0.01260
5936.46384	0.01260
5934.53517	0.01261
5932.60649	0.01264
5930.67782	0.01267
5928.74914	0.01270
5926.82046	0.01275
5924.89179	0.01279
5922.96311	0.01284
5921.03444	0.01287
5919.10576	0.01289
5917.17709	0.01291
5915.24841	0.01292
5913.31973	0.01296
5911.39106	0.01299
5909.46238	0.01301
5907.53371	0.01302
5905.60503	0.01305
5903.67636	0.01307
5901.74768	0.01310
5899.81900	0.01313
5897.89033	0.01315
5895.96165	0.01318
5894.03298	0.01319
5892.10430	0.01322
5890.17563	0.01326
5888.24695	0.01329
5886.31827	0.01332
5884.38960	0.01336
5882.46092	0.01339
5880.53225	0.01340
5878.60357	0.01343
5876.67490	0.01347
5874.74622	0.01351
5872.81755	0.01352
5870.88887	0.01354
5868.96019	0.01356
5867.03152	0.01359
5865.10284	0.01362
5863.17417	0.01366
5861.24549	0.01369
5859.31682	0.01373
5857.38814	0.01376
5855.45946	0.01378
5853.53079	0.01380
5851.60211	0.01380
5849.67344	0.01380
5847.74476	0.01383
5845.81609	0.01388
5843.88741	0.01394
5841.95873	0.01399
5840.03006	0.01401
5838.10138	0.01402
5836.17271	0.01404
5834.24403	0.01407
5832.31536	0.01411
5830.38668	0.01416
5828.45800	0.01420
5826.52933	0.01421
5824.60065	0.01422
5822.67198	0.01424
5820.74330	0.01426
5818.81463	0.01430
5816.88595	0.01434
5814.95727	0.01438
5813.02860	0.01440
5811.09992	0.01442
5809.17125	0.01445
5807.24257	0.01448
5805.31390	0.01451
5803.38522	0.01455
5801.45654	0.01457
5799.52787	0.01459
5797.59919	0.01462
5795.67052	0.01464
5793.74184	0.01466
5791.81317	0.01470
5789.88449	0.01474
5787.95581	0.01477
5786.02714	0.01479
5784.09846	0.01481
5782.16979	0.01484
5780.24111	0.01487
5778.31244	0.01491
5776.38376	0.01496
5774.45508	0.01500
5772.52641	0.01502
5770.59773	0.01504
5768.66906	0.01505
5766.74038	0.01507
5764.81171	0.01512
5762.88303	0.01517
5760.95435	0.01521
5759.02568	0.01523
5757.09700	0.01525
5755.16833	0.01527
5753.23965	0.01530
5751.31098	0.01534
5749.38230	0.01538
5747.45362	0.01541
5745.52495	0.01544
5743.59627	0.01549
5741.66760	0.01553
5739.73892	0.01555
5737.81025	0.01556
5735.88157	0.01558
5733.95289	0.01561
5732.02422	0.01565
5730.09554	0.01569
5728.16687	0.01572
5726.23819	0.01574
5724.30952	0.01575
5722.38084	0.01577
5720.45216	0.01581
5718.52349	0.01586
5716.59481	0.01589
5714.66614	0.01593
5712.73746	0.01597
5710.80879	0.01602
5708.88011	0.01606
5706.95143	0.01609
5705.02276	0.01611
5703.09408	0.01613
5701.16541	0.01615
5699.23673	0.01618
5697.30806	0.01621
5695.37938	0.01624
5693.45070	0.01627
5691.52203	0.01631
5689.59335	0.01635
5687.66468	0.01638
5685.73600	0.01641
5683.80733	0.01642
5681.87865	0.01644
5679.94997	0.01648
5678.02130	0.01652
5676.09262	0.01655
5674.16395	0.01658
5672.23527	0.01663
5670.30660	0.01668
5668.37792	0.01671
5666.44924	0.01672
5664.52057	0.01674
5662.59189	0.01679
5660.66322	0.01685
5658.73454	0.01689
5656.80587	0.01693
5654.87719	0.01696
5652.94851	0.01700
5651.01984	0.01703
5649.09116	0.01706
5647.16249	0.01707
5645.23381	0.01710
5643.30514	0.01715
5641.37646	0.01720
5639.44778	0.01723
5637.51911	0.01725
5635.59043	0.01729
5633.66176	0.01733
5631.73308	0.01737
5629.80441	0.01740
5627.87573	0.01742
5625.94705	0.01745
5624.01838	0.01748
5622.08970	0.01750
5620.16103	0.01752
5618.23235	0.01756
5616.30368	0.01760
5614.37500	0.01765
5612.44632	0.01769
5610.51765	0.01772
5608.58897	0.01774
5606.66030	0.01777
5604.73162	0.01781
5602.80295	0.01785
5600.87427	0.01789
5598.94559	0.01792
5597.01692	0.01796
5595.08824	0.01799
5593.15957	0.01802
5591.23089	0.01807
5589.30222	0.01809
5587.37354	0.01811
5585.44486	0.01815
5583.51619	0.01819
5581.58751	0.01823
5579.65884	0.01828
5577.73016	0.01833
5575.80149	0.01837
5573.87281	0.01839
5571.94413	0.01841
5570.01546	0.01845
5568.08678	0.01849
5566.15811	0.01852
5564.22943	0.01855
5562.30076	0.01858
5560.37208	0.01863
5558.44340	0.01867
5556.51473	0.01871
5554.58605	0.01878
5552.65738	0.01883
5550.72870	0.01885
5548.80003	0.01886
5546.87135	0.01888
5544.94267	0.01890
5543.01400	0.01894
5541.08532	0.01898
5539.15665	0.01902
5537.22797	0.01906
5535.29930	0.01910
5533.37062	0.01913
5531.44194	0.01916
5529.51327	0.01920
5527.58459	0.01924
5525.65592	0.01927
5523.72724	0.01931
5521.79857	0.01935
5519.86989	0.01938
5517.94121	0.01941
5516.01254	0.01944
5514.08386	0.01949
5512.15519	0.01955
5510.22651	0.01960
5508.29784	0.01962
5506.36916	0.01965
5504.44048	0.01968
5502.51181	0.01972
5500.58313	0.01975
5498.65446	0.01978
5496.72578	0.01982
5494.79711	0.01984
5492.86843	0.01986
5490.93975	0.01990
5489.01108	0.01994
5487.08240	0.01999
5485.15373	0.02003
5483.22505	0.02008
5481.29638	0.02012
5479.36770	0.02015
5477.43902	0.02017
5475.51035	0.02019
5473.58167	0.02023
5471.65300	0.02028
5469.72432	0.02034
5467.79565	0.02039
5465.86697	0.02043
5463.93829	0.02045
5462.00962	0.02048
5460.08094	0.02052
5458.15227	0.02056
5456.22359	0.02061
5454.29492	0.02064
5452.36624	0.02068
5450.43756	0.02071
5448.50889	0.02074
5446.58021	0.02076
5444.65154	0.02080
5442.72286	0.02086
5440.79419	0.02093
5438.86551	0.02100
5436.93683	0.02103
5435.00816	0.02103
5433.07948	0.02105
5431.15081	0.02109
5429.22213	0.02112
5427.29346	0.02116
5425.36478	0.02122
5423.43610	0.02127
5421.50743	0.02131
5419.57875	0.02136
5417.65008	0.02140
5415.72140	0.02142
5413.79273	0.02144
5411.86405	0.02147
5409.93537	0.02151
5408.00670	0.02155
5406.07802	0.02160
5404.14935	0.02165
5402.22067	0.02170
5400.29200	0.02176
5398.36332	0.02181
5396.43464	0.02183
5394.50597	0.02184
5392.57729	0.02188
5390.64862	0.02193
5388.71994	0.02196
5386.79127	0.02198
5384.86259	0.02203
5382.93391	0.02209
5381.00524	0.02214
5379.07656	0.02218
5377.14789	0.02220
5375.21921	0.02224
5373.29054	0.02228
5371.36186	0.02232
5369.43318	0.02236
5367.50451	0.02243
5365.57583	0.02248
5363.64716	0.02252
5361.71848	0.02257
5359.78981	0.02261
5357.86113	0.02263
5355.93245	0.02263
5354.00378	0.02265
5352.07510	0.02270
5350.14643	0.02276
5348.21775	0.02280
5346.28908	0.02283
5344.36040	0.02287
5342.43172	0.02294
5340.50305	0.02298
5338.57437	0.02300
5336.64570	0.02303
5334.71702	0.02307
5332.78835	0.02311
5330.85967	0.02317
5328.93099	0.02323
5327.00232	0.02328
5325.07364	0.02333
5323.14497	0.02338
5321.21629	0.02341
5319.28762	0.02343
5317.35894	0.02346
5315.43026	0.02349
5313.50159	0.02354
5311.57291	0.02358
5309.64424	0.02362
5307.71556	0.02365
5305.78689	0.02371
5303.85821	0.02378
5301.92953	0.02385
5300.00086	0.02390
5298.07218	0.02393
5296.14351	0.02396
5294.21483	0.02399
5292.28616	0.02400
5290.35748	0.02401
5288.42880	0.02406
5286.50013	0.02415
5284.57145	0.02421
5282.64278	0.02423
5280.71410	0.02426
5278.78543	0.02431
5276.85675	0.02437
5274.92807	0.02445
5272.99940	0.02451
5271.07072	0.02454
5269.14205	0.02456
5267.21337	0.02458
5265.28470	0.02461
5263.35602	0.02465
5261.42734	0.02470
5259.49867	0.02476
5257.56999	0.02480
5255.64132	0.02483
5253.71264	0.02488
5251.78397	0.02494
5249.85529	0.02497
5247.92661	0.02499
5245.99794	0.02505
5244.06926	0.02511
5242.14059	0.02516
5240.21191	0.02521
5238.28324	0.02525
5236.35456	0.02527
5234.42588	0.02530
5232.49721	0.02535
5230.56853	0.02540
5228.63986	0.02544
5226.71118	0.02548
5224.78251	0.02552
5222.85383	0.02557
5220.92515	0.02561
5218.99648	0.02566
5217.06780	0.02572
5215.13913	0.02576
5213.21045	0.02579
5211.28178	0.02583
5209.35310	0.02586
5207.42442	0.02590
5205.49575	0.02595
5203.56707	0.02602
5201.63840	0.02609
5199.70972	0.02612
5197.78105	0.02614
5195.85237	0.02618
5193.92369	0.02623
5191.99502	0.02628
5190.06634	0.02632
5188.13767	0.02636
5186.20899	0.02641
5184.28032	0.02647
5182.35164	0.02653
5180.42296	0.02658
5178.49429	0.02661
5176.56561	0.02666
5174.63694	0.02672
5172.70826	0.02676
5170.77959	0.02679
5168.85091	0.02684
5166.92223	0.02690
5164.99356	0.02696
5163.06488	0.02700
5161.13621	0.02704
5159.20753	0.02707
5157.27886	0.02708
5155.35018	0.02712
5153.42150	0.02718
5151.49283	0.02724
5149.56415	0.02730
5147.63548	0.02734
5145.70680	0.02738
5143.77813	0.02742
5141.84945	0.02747
5139.92077	0.02753
5137.99210	0.02759
5136.06342	0.02764
5134.13475	0.02769
5132.20607	0.02773
5130.27740	0.02776
5128.34872	0.02778
5126.42004	0.02782
5124.49137	0.02788
5122.56269	0.02795
5120.63402	0.02801
5118.70534	0.02805
5116.77667	0.02808
5114.84799	0.02810
5112.91931	0.02813
5110.99064	0.02817
5109.06196	0.02822
5107.13329	0.02827
5105.20461	0.02834
5103.27594	0.02841
5101.34726	0.02846
5099.41858	0.02849
5097.48991	0.02850
5095.56123	0.02853
5093.63256	0.02859
5091.70388	0.02866
5089.77521	0.02872
5087.84653	0.02876
5085.91785	0.02881
5083.98918	0.02887
5082.06050	0.02893
5080.13183	0.02897
5078.20315	0.02901
5076.27448	0.02905
5074.34580	0.02908
5072.41712	0.02912
5070.48845	0.02917
5068.55977	0.02924
5066.63110	0.02932
5064.70242	0.02939
5062.77375	0.02943
5060.84507	0.02946
5058.91639	0.02949
5056.98772	0.02951
5055.05904	0.02954
5053.13037	0.02960
5051.20169	0.02968
5049.27302	0.02975
5047.34434	0.02980
5045.41566	0.02984
5043.48699	0.02989
5041.55831	0.02993
5039.62964	0.02996
5037.70096	0.03000
5035.77229	0.03004
5033.84361	0.03010
5031.91493	0.03017
5029.98626	0.03022
5028.05758	0.03027
5026.12891	0.03033
5024.20023	0.03040
5022.27156	0.03046
5020.34288	0.03050
5018.41420	0.03054
5016.48553	0.03057
5014.55685	0.03061
5012.62818	0.03064
5010.69950	0.03069
5008.77083	0.03078
5006.84215	0.03086
5004.91347	0.03089
5002.98480	0.03090
5001.05612	0.03093
4999.12745	0.03099
4997.19877	0.03105
4995.27010	0.03110
4993.34142	0.03115
4991.41274	0.03121
4989.48407	0.03127
4987.55539	0.03131
4985.62672	0.03135
4983.69804	0.03141
4981.76937	0.03148
4979.84069	0.03154
4977.91201	0.03157
4975.98334	0.03161
4974.05466	0.03165
4972.12599	0.03169
4970.19731	0.03174
4968.26864	0.03180
4966.33996	0.03188
4964.41128	0.03196
4962.48261	0.03200
4960.55393	0.03202
4958.62526	0.03205
4956.69658	0.03210
4954.76791	0.03216
4952.83923	0.03221
4950.91055	0.03226
4948.98188	0.03232
4947.05320	0.03239
4945.12453	0.03244
4943.19585	0.03247
4941.26718	0.03250
4939.33850	0.03257
4937.40982	0.03266
4935.48115	0.03273
4933.55247	0.03278
4931.62380	0.03282
4929.69512	0.03287
4927.76645	0.03291
4925.83777	0.03294
4923.90909	0.03297
4921.98042	0.03301
4920.05174	0.03307
4918.12307	0.03313
4916.19439	0.03319
4914.26572	0.03323
4912.33704	0.03327
4910.40836	0.03332
4908.47969	0.03338
4906.55101	0.03344
4904.62234	0.03351
4902.69366	0.03358
4900.76499	0.03364
4898.83631	0.03368
4896.90763	0.03371
4894.97896	0.03376
4893.05028	0.03382
4891.12161	0.03389
4889.19293	0.03397
4887.26426	0.03405
4885.33558	0.03409
4883.40690	0.03413
4881.47823	0.03417
4879.54955	0.03421
4877.62088	0.03425
4875.69220	0.03432
4873.76353	0.03438
4871.83485	0.03442
4869.90617	0.03444
4867.97750	0.03448
4866.04882	0.03456
4864.12015	0.03463
4862.19147	0.03468
4860.26280	0.03472
4858.33412	0.03478
4856.40544	0.03484
4854.47677	0.03489
4852.54809	0.03495
4850.61942	0.03503
4848.69074	0.03511
4846.76207	0.03517
4844.83339	0.03520
4842.90471	0.03523
4840.97604	0.03528
4839.04736	0.03534
4837.11869	0.03541
4835.19001	0.03547
4833.26134	0.03552
4831.33266	0.03557
4829.40398	0.03563
4827.47531	0.03569
4825.54663	0.03576
4823.61796	0.03582
4821.68928	0.03586
4819.76061	0.03591
4817.83193	0.03597
4815.90325	0.03602
4813.97458	0.03608
4812.04590	0.03616
4810.11723	0.03622
4808.18855	0.03628
4806.25988	0.03634
4804.33120	0.03638
4802.40252	0.03641
4800.47385	0.03645
4798.54517	0.03652
4796.61650	0.03659
4794.68782	0.03664
4792.75915	0.03669
4790.83047	0.03675
4788.90179	0.03681
4786.97312	0.03687
4785.04444	0.03695
4783.11577	0.03703
4781.18709	0.03708
4779.25842	0.03713
4777.32974	0.03717
4775.40106	0.03723
4773.47239	0.03731
4771.54371	0.03737
4769.61504	0.03742
4767.68636	0.03748
4765.75769	0.03755
4763.82901	0.03760
4761.90033	0.03764
4759.97166	0.03769
4758.04298	0.03775
4756.11431	0.03781
4754.18563	0.03786
4752.25696	0.03793
4750.32828	0.03802
4748.39960	0.03810
4746.47093	0.03813
4744.54225	0.03814
4742.61358	0.03818
4740.68490	0.03827
4738.75623	0.03837
4736.82755	0.03844
4734.89887	0.03848
4732.97020	0.03853
4731.04152	0.03858
4729.11285	0.03865
4727.18417	0.03870
4725.25550	0.03875
4723.32682	0.03880
4721.39814	0.03889
4719.46947	0.03899
4717.54079	0.03907
4715.61212	0.03913
4713.68344	0.03918
4711.75477	0.03923
4709.82609	0.03929
4707.89741	0.03937
4705.96874	0.03945
4704.04006	0.03950
4702.11139	0.03954
4700.18271	0.03959
4698.25404	0.03966
4696.32536	0.03972
4694.39668	0.03977
4692.46801	0.03984
4690.53933	0.03992
4688.61066	0.03998
4686.68198	0.04002
4684.75331	0.04006
4682.82463	0.04011
4680.89595	0.04020
4678.96728	0.04027
4677.03860	0.04033
4675.10993	0.04039
4673.18125	0.04047
4671.25258	0.04052
4669.32390	0.04056
4667.39522	0.04061
4665.46655	0.04069
4663.53787	0.04078
4661.60920	0.04086
4659.68052	0.04092
4657.75185	0.04098
4655.82317	0.04104
4653.89449	0.04109
4651.96582	0.04116
4650.03714	0.04123
4648.10847	0.04132
4646.17979	0.04141
4644.25112	0.04148
4642.32244	0.04154
4640.39376	0.04159
4638.46509	0.04166
4636.53641	0.04172
4634.60774	0.04179
4632.67906	0.04186
4630.75039	0.04192
4628.82171	0.04199
4626.89303	0.04204
4624.96436	0.04209
4623.03568	0.04216
4621.10701	0.04224
4619.17833	0.04230
4617.24966	0.04238
4615.32098	0.04245
4613.39230	0.04251
4611.46363	0.04258
4609.53495	0.04267
4607.60628	0.04274
4605.67760	0.04280
4603.74893	0.04287
4601.82025	0.04295
4599.89157	0.04302
4597.96290	0.04307
4596.03422	0.04314
4594.10555	0.04324
4592.17687	0.04334
4590.24820	0.04343
4588.31952	0.04348
4586.39084	0.04353
4584.46217	0.04361
4582.53349	0.04369
4580.60482	0.04375
4578.67614	0.04380
4576.74747	0.04387
4574.81879	0.04395
4572.89011	0.04404
4570.96144	0.04410
4569.03276	0.04416
4567.10409	0.04424
4565.17541	0.04433
4563.24674	0.04440
4561.31806	0.04446
4559.38938	0.04453
4557.46071	0.04460
4555.53203	0.04468
4553.60336	0.04475
4551.67468	0.04480
4549.74601	0.04489
4547.81733	0.04499
4545.88865	0.04505
4543.95998	0.04508
4542.03130	0.04514
4540.10263	0.04522
4538.17395	0.04530
4536.24528	0.04537
4534.31660	0.04545
4532.38792	0.04552
4530.45925	0.04561
4528.53057	0.04570
4526.60190	0.04579
4524.67322	0.04583
4522.74455	0.04588
4520.81587	0.04596
4518.88719	0.04606
4516.95852	0.04615
4515.02984	0.04623
4513.10117	0.04630
4511.17249	0.04639
4509.24382	0.04647
4507.31514	0.04655
4505.38646	0.04661
4503.45779	0.04668
4501.52911	0.04675
4499.60044	0.04683
4497.67176	0.04690
4495.74309	0.04696
4493.81441	0.04704
4491.88573	0.04715
4489.95706	0.04724
4488.02838	0.04733
4486.09971	0.04740
4484.17103	0.04747
4482.24236	0.04755
4480.31368	0.04762
4478.38500	0.04768
4476.45633	0.04777
4474.52765	0.04788
4472.59898	0.04796
4470.67030	0.04802
4468.74163	0.04810
4466.81295	0.04819
4464.88427	0.04829
4462.95560	0.04836
4461.02692	0.04842
4459.09825	0.04850
4457.16957	0.04859
4455.24090	0.04868
4453.31222	0.04877
4451.38354	0.04886
4449.45487	0.04894
4447.52619	0.04903
4445.59752	0.04910
4443.66884	0.04915
4441.74017	0.04922
4439.81149	0.04930
4437.88281	0.04939
4435.95414	0.04949
4434.02546	0.04959
4432.09679	0.04969
4430.16811	0.04976
4428.23944	0.04985
4426.31076	0.04995
4424.38208	0.05005
4422.45341	0.05012
4420.52473	0.05018
4418.59606	0.05024
4416.66738	0.05031
4414.73871	0.05041
4412.81003	0.05051
4410.88135	0.05061
4408.95268	0.05073
4407.02400	0.05082
4405.09533	0.05088
4403.16665	0.05094
4401.23798	0.05102
4399.30930	0.05112
4397.38062	0.05123
4395.45195	0.05135
4393.52327	0.05145
4391.59460	0.05152
4389.66592	0.05160
4387.73725	0.05169
4385.80857	0.05177
4383.87989	0.05185
4381.95122	0.05195
4380.02254	0.05207
4378.09387	0.05216
4376.16519	0.05222
4374.23652	0.05229
4372.30784	0.05240
4370.37916	0.05250
4368.45049	0.05257
4366.52181	0.05265
4364.59314	0.05276
4362.66446	0.05287
4360.73579	0.05295
4358.80711	0.05304
4356.87843	0.05314
4354.94976	0.05322
4353.02108	0.05330
4351.09241	0.05339
4349.16373	0.05348
4347.23506	0.05359
4345.30638	0.05369
4343.37770	0.05378
4341.44903	0.05388
4339.52035	0.05399
4337.59168	0.05412
4335.66300	0.05422
4333.73433	0.05431
4331.80565	0.05438
4329.87697	0.05444
4327.94830	0.05452
4326.01962	0.05464
4324.09095	0.05478
4322.16227	0.05489
4320.23360	0.05495
4318.30492	0.05502
4316.37624	0.05512
4314.44757	0.05523
4312.51889	0.05533
4310.59022	0.05545
4308.66154	0.05558
4306.73287	0.05569
4304.80419	0.05576
4302.87551	0.05583
4300.94684	0.05592
4299.01816	0.05603
4297.08949	0.05615
4295.16081	0.05626
4293.23214	0.05636
4291.30346	0.05646
4289.37478	0.05656
4287.44611	0.05667
4285.51743	0.05677
4283.58876	0.05687
4281.66008	0.05699
4279.73141	0.05711
4277.80273	0.05723
4275.87405	0.05732
4273.94538	0.05741
4272.01670	0.05752
4270.08803	0.05764
4268.15935	0.05774
4266.23068	0.05784
4264.30200	0.05794
4262.37332	0.05803
4260.44465	0.05813
4258.51597	0.05822
4256.58730	0.05833
4254.65862	0.05843
4252.72995	0.05852
4250.80127	0.05860
4248.87259	0.05870
4246.94392	0.05881
4245.01524	0.05893
4243.08657	0.05904
4241.15789	0.05913
4239.22922	0.05923
4237.30054	0.05934
4235.37186	0.05945
4233.44319	0.05957
4231.51451	0.05969
4229.58584	0.05978
4227.65716	0.05988
4225.72849	0.06001
4223.79981	0.06012
4221.87113	0.06023
4219.94246	0.06033
4218.01378	0.06044
4216.08511	0.06056
4214.15643	0.06069
4212.22776	0.06080
4210.29908	0.06090
4208.37040	0.06100
4206.44173	0.06111
4204.51305	0.06124
4202.58438	0.06137
4200.65570	0.06148
4198.72703	0.06158
4196.79835	0.06170
4194.86968	0.06183
4192.94100	0.06195
4191.01232	0.06206
4189.08365	0.06217
4187.15497	0.06227
4185.22630	0.06238
4183.29762	0.06247
4181.36895	0.06256
4179.44027	0.06267
4177.51159	0.06281
4175.58292	0.06294
4173.65424	0.06305
4171.72557	0.06315
4169.79689	0.06326
4167.86822	0.06340
4165.93954	0.06354
4164.01086	0.06366
4162.08219	0.06378
4160.15351	0.06390
4158.22484	0.06401
4156.29616	0.06413
4154.36749	0.06424
4152.43881	0.06437
4150.51013	0.06451
4148.58146	0.06462
4146.65278	0.06471
4144.72411	0.06482
4142.79543	0.06494
4140.86676	0.06507
4138.93808	0.06520
4137.00940	0.06531
4135.08073	0.06539
4133.15205	0.06549
4131.22338	0.06564
4129.29470	0.06579
4127.36603	0.06591
4125.43735	0.06602
4123.50867	0.06616
4121.58000	0.06631
4119.65132	0.06643
4117.72265	0.06655
4115.79397	0.06666
4113.86530	0.06678
4111.93662	0.06691
4110.00794	0.06702
4108.07927	0.06713
4106.15059	0.06726
4104.22192	0.06740
4102.29324	0.06752
4100.36457	0.06764
4098.43589	0.06778
4096.50721	0.06791
4094.57854	0.06803
4092.64986	0.06815
4090.72119	0.06828
4088.79251	0.06839
4086.86384	0.06850
4084.93516	0.06861
4083.00648	0.06873
4081.07781	0.06889
4079.14913	0.06906
4077.22046	0.06920
4075.29178	0.06933
4073.36311	0.06948
4071.43443	0.06962
4069.50575	0.06973
4067.57708	0.06984
4065.64840	0.06998
4063.71973	0.07013
4061.79105	0.07026
4059.86238	0.07039
4057.93370	0.07053
4056.00502	0.07068
4054.07635	0.07081
4052.14767	0.07093
4050.21900	0.07106
4048.29032	0.07118
4046.36165	0.07130
4044.43297	0.07143
4042.50429	0.07157
4040.57562	0.07171
4038.64694	0.07184
4036.71827	0.07197
4034.78959	0.07210
4032.86092	0.07223
4030.93224	0.07235
4029.00356	0.07245
4027.07489	0.07257
4025.14621	0.07273
4023.21754	0.07290
4021.28886	0.07306
4019.36019	0.07319
4017.43151	0.07333
4015.50283	0.07349
4013.57416	0.07363
4011.64548	0.07373
4009.71681	0.07386
4007.78813	0.07400
4005.85946	0.07415
4003.93078	0.07427
4002.00210	0.07440
4000.07343	0.07455
3998.14475	0.07470
3996.21608	0.07484
3994.28740	0.07500
3992.35873	0.07515
3990.43005	0.07527
3988.50137	0.07539
3986.57270	0.07551
3984.64402	0.07566
3982.71535	0.07583
3980.78667	0.07600
3978.85800	0.07615
3976.92932	0.07628
3975.00064	0.07639
3973.07197	0.07652
3971.14329	0.07665
3969.21462	0.07677
3967.28594	0.07692
3965.35727	0.07708
3963.42859	0.07722
3961.49991	0.07736
3959.57124	0.07753
3957.64256	0.07767
3955.71389	0.07779
3953.78521	0.07790
3951.85654	0.07802
3949.92786	0.07815
3947.99918	0.07829
3946.07051	0.07845
3944.14183	0.07857
3942.21316	0.07872
3940.28448	0.07895
3938.35581	0.07916
3936.42713	0.07928
3934.49845	0.07934
3932.56978	0.07942
3930.64110	0.07958
3928.71243	0.07977
3926.78375	0.07991
3924.85508	0.08005
3922.92640	0.08021
3920.99772	0.08031
3919.06905	0.08038
3917.14037	0.08054
3915.21170	0.08079
3913.28302	0.08103
3911.35435	0.08121
3909.42567	0.08135
3907.49699	0.08137
3905.56832	0.08127
3903.63964	0.08123
3901.71097	0.08136
3899.78229	0.08162
3897.85362	0.08197
3895.92494	0.08227
3893.99626	0.08239
3892.06759	0.08245
3890.13891	0.08262
3888.21024	0.08276
3886.28156	0.08280
3884.35289	0.08294
3882.42421	0.08312
3880.49553	0.08328
3878.56686	0.08355
3876.63818	0.08378
3874.70951	0.08386
3872.78083	0.08389
3870.85216	0.08394
3868.92348	0.08414
3866.99480	0.08440
3865.06613	0.08455
3863.13745	0.08471
3861.20878	0.08496
3859.28010	0.08517
3857.35143	0.08510
3855.42275	0.08473
3853.49407	0.08465
3851.56540	0.08519
3849.63672	0.08588
3847.70805	0.08627
3845.77937	0.08639
3843.85070	0.08641
3841.92202	0.08640
3839.99334	0.08641
3838.06467	0.08651
3836.13599	0.08675
3834.20732	0.08703
3832.27864	0.08728
3830.34997	0.08754
3828.42129	0.08775
3826.49261	0.08787
3824.56394	0.08789
3822.63526	0.08785
3820.70659	0.08796
3818.77791	0.08823
3816.84924	0.08846
3814.92056	0.08876
3812.99188	0.08915
3811.06321	0.08939
3809.13453	0.08941
3807.20586	0.08940
3805.27718	0.08950
3803.34851	0.08957
3801.41983	0.08969
3799.49115	0.09000
3797.56248	0.09031
3795.63380	0.09057
3793.70513	0.09085
3791.77645	0.09106
3789.84778	0.09121
3787.91910	0.09133
3785.99042	0.09146
3784.06175	0.09162
3782.13307	0.09176
3780.20440	0.09188
3778.27572	0.09207
3776.34705	0.09233
3774.41837	0.09251
3772.48969	0.09255
3770.56102	0.09255
3768.63234	0.09270
3766.70367	0.09296
3764.77499	0.09325
3762.84632	0.09344
3760.91764	0.09348
3758.98896	0.09355
3757.06029	0.09374
3755.13161	0.09382
3753.20294	0.09367
3751.27426	0.09356
3749.34559	0.09372
3747.41691	0.09386
3745.48823	0.09380
3743.55956	0.09408
3741.63088	0.09475
3739.70221	0.09509
3737.77353	0.09498
3735.84486	0.09493
3733.91618	0.09522
3731.98750	0.09569
3730.05883	0.09610
3728.13015	0.09631
3726.20148	0.09637
3724.27280	0.09650
3722.34413	0.09672
3720.41545	0.09702
3718.48677	0.09732
3716.55810	0.09752
3714.62942	0.09752
3712.70075	0.09742
3710.77207	0.09753
3708.84340	0.09790
3706.91472	0.09829
3704.98604	0.09851
3703.05737	0.09859
3701.12869	0.09876
3699.20002	0.09905
3697.27134	0.09928
3695.34267	0.09939
3693.41399	0.09937
3691.48531	0.09929
3689.55664	0.09933
3687.62796	0.09967
3685.69929	0.10014
3683.77061	0.10047
3681.84194	0.10062
3679.91326	0.10062
3677.98458	0.10045
3676.05591	0.10033
3674.12723	0.10055
3672.19856	0.10085
3670.26988	0.10104
3668.34121	0.10138
3666.41253	0.10184
3664.48385	0.10216
3662.55518	0.10234
3660.62650	0.10245
3658.69783	0.10244
3656.76915	0.10244
3654.84048	0.10255
3652.91180	0.10251
3650.98312	0.10220
3649.05445	0.10202
3647.12577	0.10232
3645.19710	0.10294
3643.26842	0.10348
3641.33975	0.10380
3639.41107	0.10399
3637.48239	0.10412
3635.55372	0.10421
3633.62504	0.10424
3631.69637	0.10410
3629.76769	0.10395
3627.83902	0.10420
3625.91034	0.10476
3623.98166	0.10510
3622.05299	0.10511
3620.12431	0.10503
3618.19564	0.10512
3616.26696	0.10528
3614.33829	0.10537
3612.40961	0.10545
3610.48093	0.10554
3608.55226	0.10571
3606.62358	0.10601
3604.69491	0.10632
3602.76623	0.10649
3600.83756	0.10658
3598.90888	0.10667
3596.98020	0.10677
3595.05153	0.10687
3593.12285	0.10702
3591.19418	0.10707
3589.26550	0.10699
3587.33683	0.10707
3585.40815	0.10744
3583.47947	0.10781
3581.55080	0.10801
3579.62212	0.10812
3577.69345	0.10826
3575.76477	0.10843
3573.83610	0.10858
3571.90742	0.10868
3569.97874	0.10861
3568.05007	0.10850
3566.12139	0.10863
3564.19272	0.10899
3562.26404	0.10930
3560.33537	0.10950
3558.40669	0.10966
3556.47801	0.10980
3554.54934	0.10987
3552.62066	0.10996
3550.69199	0.11012
3548.76331	0.11025
3546.83464	0.11031
3544.90596	0.11041
3542.97728	0.11059
3541.04861	0.11077
3539.11993	0.11088
3537.19126	0.11096
3535.26258	0.11108
3533.33391	0.11122
3531.40523	0.11128
3529.47655	0.11128
3527.54788	0.11131
3525.61920	0.11141
3523.69053	0.11153
3521.76185	0.11164
3519.83318	0.11174
3517.90450	0.11185
3515.97582	0.11197
3514.04715	0.11205
3512.11847	0.11206
3510.18980	0.11208
3508.26112	0.11215
3506.33245	0.11221
3504.40377	0.11223
3502.47509	0.11228
3500.54642	0.11238
3498.61774	0.11246
3496.68907	0.11250
3494.76039	0.11254
3492.83172	0.11260
3490.90304	0.11266
3488.97436	0.11270
3487.04569	0.11276
3485.11701	0.11284
3483.18834	0.11291
3481.25966	0.11298
3479.33099	0.11310
3477.40231	0.11322
3475.47363	0.11333
3473.54496	0.11346
3471.61628	0.11361
3469.68761	0.11378
3467.75893	0.11398
3465.83026	0.11417
3463.90158	0.11434
3461.97290	0.11452
3460.04423	0.11474
3458.11555	0.11497
3456.18688	0.11515
3454.25820	0.11529
3452.32953	0.11544
3450.40085	0.11560
3448.47217	0.11575
3446.54350	0.11590
3444.61482	0.11609
3442.68615	0.11629
3440.75747	0.11653
3438.82880	0.11678
3436.90012	0.11708
3434.97144	0.11744
3433.04277	0.11782
3431.11409	0.11819
3429.18542	0.11857
3427.25674	0.11894
3425.32807	0.11930
3423.39939	0.11962
3421.47071	0.11995
3419.54204	0.12030
3417.61336	0.12063
3415.68469	0.12092
3413.75601	0.12122
3411.82734	0.12151
3409.89866	0.12176
3407.96998	0.12198
3406.04131	0.12221
3404.11263	0.12245
3402.18396	0.12268
3400.25528	0.12294
3398.32661	0.12319
3396.39793	0.12344
3394.46925	0.12372
3392.54058	0.12402
3390.61190	0.12431
3388.68323	0.12455
3386.75455	0.12479
3384.82588	0.12504
3382.89720	0.12529
3380.96852	0.12552
3379.03985	0.12575
3377.11117	0.12603
3375.18250	0.12630
3373.25382	0.12652
3371.32515	0.12673
3369.39647	0.12692
3367.46779	0.12711
3365.53912	0.12731
3363.61044	0.12755
3361.68177	0.12779
3359.75309	0.12802
3357.82442	0.12826
3355.89574	0.12849
3353.96706	0.12869
3352.03839	0.12890
3350.10971	0.12914
3348.18104	0.12941
3346.25236	0.12965
3344.32369	0.12986
3342.39501	0.13008
3340.46633	0.13031
3338.53766	0.13051
3336.60898	0.13071
3334.68031	0.13096
3332.75163	0.13126
3330.82296	0.13151
3328.89428	0.13173
3326.96560	0.13192
3325.03693	0.13215
3323.10825	0.13241
3321.17958	0.13266
3319.25090	0.13288
3317.32223	0.13311
3315.39355	0.13333
3313.46487	0.13352
3311.53620	0.13374
3309.60752	0.13400
3307.67885	0.13428
3305.75017	0.13454
3303.82150	0.13479
3301.89282	0.13503
3299.96414	0.13528
3298.03547	0.13552
3296.10679	0.13573
3294.17812	0.13594
3292.24944	0.13618
3290.32077	0.13646
3288.39209	0.13674
3286.46341	0.13699
3284.53474	0.13722
3282.60606	0.13744
3280.67739	0.13768
3278.74871	0.13795
3276.82004	0.13821
3274.89136	0.13846
3272.96268	0.13872
3271.03401	0.13900
3269.10533	0.13925
3267.17666	0.13949
3265.24798	0.13974
3263.31931	0.13999
3261.39063	0.14023
3259.46195	0.14048
3257.53328	0.14073
3255.60460	0.14099
3253.67593	0.14125
3251.74725	0.14149
3249.81858	0.14172
3247.88990	0.14197
3245.96122	0.14223
3244.03255	0.14247
3242.10387	0.14271
3240.17520	0.14298
3238.24652	0.14323
3236.31785	0.14347
3234.38917	0.14371
3232.46049	0.14394
3230.53182	0.14419
3228.60314	0.14446
3226.67447	0.14474
3224.74579	0.14498
3222.81712	0.14518
3220.88844	0.14541
3218.95976	0.14569
3217.03109	0.14597
3215.10241	0.14621
3213.17374	0.14643
3211.24506	0.14669
3209.31639	0.14696
3207.38771	0.14719
3205.45903	0.14741
3203.53036	0.14768
3201.60168	0.14797
3199.67301	0.14826
3197.74433	0.14853
3195.81566	0.14880
3193.88698	0.14908
3191.95830	0.14938
3190.02963	0.14967
3188.10095	0.14994
3186.17228	0.15019
3184.24360	0.15046
3182.31493	0.15073
3180.38625	0.15100
3178.45757	0.15126
3176.52890	0.15154
3174.60022	0.15181
3172.67155	0.15207
3170.74287	0.15231
3168.81420	0.15256
3166.88552	0.15283
3164.95684	0.15312
3163.02817	0.15339
3161.09949	0.15364
3159.17082	0.15387
3157.24214	0.15411
3155.31347	0.15436
3153.38479	0.15463
3151.45611	0.15491
3149.52744	0.15520
3147.59876	0.15548
3145.67009	0.15573
3143.74141	0.15598
3141.81274	0.15623
3139.88406	0.15650
3137.95538	0.15675
3136.02671	0.15696
3134.09803	0.15717
3132.16936	0.15748
3130.24068	0.15782
3128.31201	0.15811
3126.38333	0.15832
3124.45465	0.15853
3122.52598	0.15877
3120.59730	0.15903
3118.66863	0.15929
3116.73995	0.15953
3114.81128	0.15977
3112.88260	0.16003
3110.95392	0.16030
3109.02525	0.16056
3107.09657	0.16085
3105.16790	0.16113
3103.23922	0.16137
3101.31055	0.16159
3099.38187	0.16184
3097.45319	0.16210
3095.52452	0.16235
3093.59584	0.16262
3091.66717	0.16292
3089.73849	0.16320
3087.80982	0.16346
3085.88114	0.16368
3083.95246	0.16391
3082.02379	0.16418
3080.09511	0.16444
3078.16644	0.16470
3076.23776	0.16499
3074.30909	0.16528
3072.38041	0.16558
3070.45173	0.16586
3068.52306	0.16608
3066.59438	0.16627
3064.66571	0.16653
3062.73703	0.16682
3060.80836	0.16707
3058.87968	0.16731
3056.95100	0.16757
3055.02233	0.16784
3053.09365	0.16810
3051.16498	0.16832
3049.23630	0.16857
3047.30763	0.16890
3045.37895	0.16921
3043.45027	0.16948
3041.52160	0.16972
3039.59292	0.16996
3037.66425	0.17019
3035.73557	0.17041
3033.80690	0.17064
3031.87822	0.17089
3029.94954	0.17115
3028.02087	0.17141
3026.09219	0.17168
3024.16352	0.17197
3022.23484	0.17226
3020.30617	0.17250
3018.37749	0.17273
3016.44881	0.17297
3014.52014	0.17323
3012.59146	0.17349
3010.66279	0.17374
3008.73411	0.17400
3006.80544	0.17427
3004.87676	0.17453
3002.94808	0.17477
3001.01941	0.17502
2999.09073	0.17528
2997.16206	0.17553
2995.23338	0.17577
2993.30471	0.17602
2991.37603	0.17626
2989.44735	0.17649
2987.51868	0.17668
2985.59000	0.17686
2983.66133	0.17699
2981.73265	0.17709
2979.80398	0.17721
2977.87530	0.17734
2975.94662	0.17745
2974.01795	0.17751
2972.08927	0.17749
2970.16060	0.17743
2968.23192	0.17738
2966.30325	0.17740
2964.37457	0.17750
2962.44589	0.17766
2960.51722	0.17789
2958.58854	0.17820
2956.65987	0.17855
2954.73119	0.17890
2952.80252	0.17925
2950.87384	0.17957
2948.94516	0.17985
2947.01649	0.18007
2945.08781	0.18021
2943.15914	0.18031
2941.23046	0.18038
2939.30179	0.18043
2937.37311	0.18044
2935.44443	0.18039
2933.51576	0.18034
2931.58708	0.18028
2929.65841	0.18024
2927.72973	0.18020
2925.80106	0.18020
2923.87238	0.18021
2921.94370	0.18028
2920.01503	0.18042
2918.08635	0.18071
2916.15768	0.18125
2914.22900	0.18202
2912.30033	0.18289
2910.37165	0.18369
2908.44297	0.18436
2906.51430	0.18494
2904.58562	0.18546
2902.65695	0.18590
2900.72827	0.18627
2898.79960	0.18662
2896.87092	0.18703
2894.94224	0.18742
2893.01357	0.18776
2891.08489	0.18806
2889.15622	0.18838
2887.22754	0.18873
2885.29887	0.18907
2883.37019	0.18939
2881.44151	0.18967
2879.51284	0.18991
2877.58416	0.19014
2875.65549	0.19038
2873.72681	0.19064
2871.79814	0.19090
2869.86946	0.19116
2867.94078	0.19141
2866.01211	0.19161
2864.08343	0.19177
2862.15476	0.19188
2860.22608	0.19198
2858.29741	0.19201
2856.36873	0.19197
2854.44005	0.19189
2852.51138	0.19186
2850.58270	0.19204
2848.65403	0.19258
2846.72535	0.19340
2844.79668	0.19429
2842.86800	0.19506
2840.93932	0.19570
2839.01065	0.19625
2837.08197	0.19670
2835.15330	0.19708
2833.22462	0.19742
2831.29595	0.19774
2829.36727	0.19809
2827.43859	0.19845
2825.50992	0.19877
2823.58124	0.19908
2821.65257	0.19938
2819.72389	0.19968
2817.79522	0.19998
2815.86654	0.20029
2813.93786	0.20059
2812.00919	0.20087
2810.08051	0.20115
2808.15184	0.20142
2806.22316	0.20171
2804.29449	0.20202
2802.36581	0.20232
2800.43713	0.20260
2798.50846	0.20289
2796.57978	0.20319
2794.65111	0.20348
2792.72243	0.20375
2790.79376	0.20402
2788.86508	0.20432
2786.93640	0.20462
2785.00773	0.20491
2783.07905	0.20521
2781.15038	0.20550
2779.22170	0.20577
2777.29303	0.20604
2775.36435	0.20630
2773.43567	0.20656
2771.50700	0.20685
2769.57832	0.20715
2767.64965	0.20743
2765.72097	0.20771
2763.79230	0.20799
2761.86362	0.20825
2759.93494	0.20851
2758.00627	0.20876
2756.07759	0.20903
2754.14892	0.20933
2752.22024	0.20963
2750.29157	0.20991
2748.36289	0.21018
2746.43421	0.21046
2744.50554	0.21074
2742.57686	0.21099
2740.64819	0.21125
2738.71951	0.21152
2736.79084	0.21180
2734.86216	0.21208
2732.93348	0.21235
2731.00481	0.21264
2729.07613	0.21291
2727.14746	0.21317
2725.21878	0.21343
2723.29011	0.21369
2721.36143	0.21393
2719.43275	0.21417
2717.50408	0.21442
2715.57540	0.21470
2713.64673	0.21499
2711.71805	0.21530
2709.78938	0.21561
2707.86070	0.21590
2705.93202	0.21616
2704.00335	0.21640
2702.07467	0.21663
2700.14600	0.21688
2698.21732	0.21717
2696.28865	0.21747
2694.35997	0.21775
2692.43129	0.21799
2690.50262	0.21823
2688.57394	0.21850
2686.64527	0.21877
2684.71659	0.21900
2682.78792	0.21925
2680.85924	0.21952
2678.93056	0.21979
2677.00189	0.22006
2675.07321	0.22033
2673.14454	0.22061
2671.21586	0.22089
2669.28719	0.22117
2667.35851	0.22145
2665.42983	0.22173
2663.50116	0.22201
2661.57248	0.22228
2659.64381	0.22256
2657.71513	0.22285
2655.78646	0.22313
2653.85778	0.22341
2651.92910	0.22373
2650.00043	0.22402
2648.07175	0.22427
2646.14308	0.22453
2644.21440	0.22481
2642.28573	0.22509
2640.35705	0.22536
2638.42837	0.22564
2636.49970	0.22592
2634.57102	0.22618
2632.64235	0.22648
2630.71367	0.22681
2628.78500	0.22715
2626.85632	0.22748
2624.92764	0.22777
2622.99897	0.22805
2621.07029	0.22833
2619.14162	0.22861
2617.21294	0.22887
2615.28427	0.22914
2613.35559	0.22942
2611.42691	0.22972
2609.49824	0.23002
2607.56956	0.23032
2605.64089	0.23061
2603.71221	0.23091
2601.78354	0.23120
2599.85486	0.23148
2597.92618	0.23174
2595.99751	0.23199
2594.06883	0.23225
2592.14016	0.23254
2590.21148	0.23285
2588.28281	0.23317
2586.35413	0.23348
2584.42545	0.23378
2582.49678	0.23407
2580.56810	0.23435
2578.63943	0.23464
2576.71075	0.23491
2574.78208	0.23514
2572.85340	0.23539
2570.92472	0.23567
2568.99605	0.23597
2567.06737	0.23626
2565.13870	0.23654
2563.21002	0.23682
2561.28135	0.23709
2559.35267	0.23738
2557.42399	0.23767
2555.49532	0.23797
2553.56664	0.23827
2551.63797	0.23856
2549.70929	0.23884
2547.78062	0.23911
2545.85194	0.23937
2543.92326	0.23964
2541.99459	0.23993
2540.06591	0.24019
2538.13724	0.24044
2536.20856	0.24070
2534.27989	0.24097
2532.35121	0.24125
2530.42253	0.24156
2528.49386	0.24185
2526.56518	0.24211
2524.63651	0.24237
2522.70783	0.24265
2520.77916	0.24295
2518.85048	0.24329
2516.92181	0.24362
2514.99313	0.24393
2513.06445	0.24424
2511.13578	0.24455
2509.20710	0.24483
2507.27843	0.24510
2505.34975	0.24541
2503.42108	0.24572
2501.49240	0.24603
2499.56372	0.24635
2497.63505	0.24668
2495.70637	0.24698
2493.77770	0.24729
2491.84902	0.24762
2489.92035	0.24795
2487.99167	0.24826
2486.06299	0.24855
2484.13432	0.24885
2482.20564	0.24917
2480.27697	0.24950
2478.34829	0.24983
2476.41962	0.25012
2474.49094	0.25039
2472.56226	0.25066
2470.63359	0.25095
2468.70491	0.25128
2466.77624	0.25161
2464.84756	0.25191
2462.91889	0.25218
2460.99021	0.25246
2459.06153	0.25276
2457.13286	0.25306
2455.20418	0.25335
2453.27551	0.25366
2451.34683	0.25398
2449.41816	0.25428
2447.48948	0.25457
2445.56080	0.25488
2443.63213	0.25517
2441.70345	0.25547
2439.77478	0.25580
2437.84610	0.25613
2435.91743	0.25643
2433.98875	0.25669
2432.06007	0.25695
2430.13140	0.25724
2428.20272	0.25756
2426.27405	0.25786
2424.34537	0.25815
2422.41670	0.25844
2420.48802	0.25873
2418.55934	0.25904
2416.63067	0.25937
2414.70199	0.25968
2412.77332	0.25995
2410.84464	0.26024
2408.91597	0.26054
2406.98729	0.26083
2405.05861	0.26111
2403.12994	0.26142
2401.20126	0.26172
2399.27259	0.26200
2397.34391	0.26231
2395.41524	0.26263
2393.48656	0.26293
2391.55788	0.26321
2389.62921	0.26349
2387.70053	0.26377
2385.77186	0.26403
2383.84318	0.26427
2381.91451	0.26445
2379.98583	0.26456
2378.05715	0.26463
2376.12848	0.26472
2374.19980	0.26480
2372.27113	0.26486
2370.34245	0.26490
2368.41378	0.26497
2366.48510	0.26514
2364.55642	0.26537
2362.62775	0.26559
2360.69907	0.26583
2358.77040	0.26618
2356.84172	0.26664
2354.91305	0.26715
2352.98437	0.26772
2351.05569	0.26833
2349.12702	0.26880
2347.19834	0.26900
2345.26967	0.26904
2343.34099	0.26911
2341.41232	0.26929
2339.48364	0.26952
2337.55496	0.26978
2335.62629	0.27009
2333.69761	0.27041
2331.76894	0.27073
2329.84026	0.27105
2327.91159	0.27141
2325.98291	0.27180
2324.05423	0.27220
2322.12556	0.27261
2320.19688	0.27302
2318.26821	0.27342
2316.33953	0.27381
2314.41086	0.27422
2312.48218	0.27466
2310.55350	0.27507
2308.62483	0.27541
2306.69615	0.27575
2304.76748	0.27613
2302.83880	0.27654
2300.91013	0.27688
2298.98145	0.27717
2297.05277	0.27746
2295.12410	0.27776
2293.19542	0.27807
2291.26675	0.27840
2289.33807	0.27873
2287.40940	0.27904
2285.48072	0.27932
2283.55204	0.27960
2281.62337	0.27990
2279.69469	0.28017
2277.76602	0.28045
2275.83734	0.28078
2273.90867	0.28113
2271.97999	0.28144
2270.05131	0.28172
2268.12264	0.28198
2266.19396	0.28225
2264.26529	0.28256
2262.33661	0.28289
2260.40794	0.28321
2258.47926	0.28352
2256.55058	0.28381
2254.62191	0.28411
2252.69323	0.28441
2250.76456	0.28470
2248.83588	0.28498
2246.90721	0.28526
2244.97853	0.28551
2243.04985	0.28577
2241.12118	0.28607
2239.19250	0.28638
2237.26383	0.28671
2235.33515	0.28702
2233.40648	0.28731
2231.47780	0.28761
2229.54912	0.28791
2227.62045	0.28822
2225.69177	0.28854
2223.76310	0.28881
2221.83442	0.28906
2219.90575	0.28937
2217.97707	0.28970
2216.04839	0.29000
2214.11972	0.29028
2212.19104	0.29054
2210.26237	0.29080
2208.33369	0.29111
2206.40502	0.29140
2204.47634	0.29166
2202.54766	0.29195
2200.61899	0.29225
2198.69031	0.29254
2196.76164	0.29281
2194.83296	0.29309
2192.90429	0.29340
2190.97561	0.29369
2189.04693	0.29395
2187.11826	0.29424
2185.18958	0.29456
2183.26091	0.29485
2181.33223	0.29513
2179.40356	0.29544
2177.47488	0.29579
2175.54620	0.29611
2173.61753	0.29638
2171.68885	0.29666
2169.76018	0.29698
2167.83150	0.29729
2165.90283	0.29757
2163.97415	0.29787
2162.04547	0.29819
2160.11680	0.29850
2158.18812	0.29879
2156.25945	0.29912
2154.33077	0.29947
2152.40210	0.29979
2150.47342	0.30008
2148.54474	0.30035
2146.61607	0.30063
2144.68739	0.30093
2142.75872	0.30121
2140.83004	0.30148
2138.90137	0.30179
2136.97269	0.30212
2135.04401	0.30244
2133.11534	0.30274
2131.18666	0.30304
2129.25799	0.30333
2127.32931	0.30362
2125.40064	0.30392
2123.47196	0.30420
2121.54328	0.30446
2119.61461	0.30473
2117.68593	0.30506
2115.75726	0.30539
2113.82858	0.30572
2111.89991	0.30603
2109.97123	0.30635
2108.04255	0.30666
2106.11388	0.30697
2104.18520	0.30727
2102.25653	0.30757
2100.32785	0.30784
2098.39918	0.30811
2096.47050	0.30839
2094.54182	0.30871
2092.61315	0.30903
2090.68447	0.30936
2088.75580	0.30971
2086.82712	0.31003
2084.89845	0.31030
2082.96977	0.31054
2081.04109	0.31081
2079.11242	0.31112
2077.18374	0.31144
2075.25507	0.31175
2073.32639	0.31207
2071.39772	0.31236
2069.46904	0.31264
2067.54036	0.31292
2065.61169	0.31322
2063.68301	0.31356
2061.75434	0.31388
2059.82566	0.31417
2057.89699	0.31447
2055.96831	0.31477
2054.03963	0.31505
2052.11096	0.31534
2050.18228	0.31565
2048.25361	0.31593
2046.32493	0.31621
2044.39626	0.31651
2042.46758	0.31683
2040.53890	0.31717
2038.61023	0.31749
2036.68155	0.31780
2034.75288	0.31810
2032.82420	0.31838
2030.89553	0.31867
2028.96685	0.31898
2027.03817	0.31933
2025.10950	0.31963
2023.18082	0.31987
2021.25215	0.32013
2019.32347	0.32039
2017.39480	0.32067
2015.46612	0.32104
2013.53744	0.32144
2011.60877	0.32179
2009.68009	0.32207
2007.75142	0.32238
2005.82274	0.32273
2003.89407	0.32306
2001.96539	0.32329
2000.03671	0.32350
1998.10804	0.32378
1996.17936	0.32408
1994.25069	0.32428
1992.32201	0.32446
1990.39334	0.32475
1988.46466	0.32511
1986.53598	0.32547
1984.60731	0.32581
1982.67863	0.32609
1980.74996	0.32634
1978.82128	0.32655
1976.89261	0.32677
1974.96393	0.32706
1973.03525	0.32734
1971.10658	0.32755
1969.17790	0.32773
1967.24923	0.32795
1965.32055	0.32827
1963.39188	0.32864
1961.46320	0.32895
1959.53452	0.32922
1957.60585	0.32950
1955.67717	0.32981
1953.74850	0.33011
1951.81982	0.33041
1949.89115	0.33070
1947.96247	0.33095
1946.03379	0.33110
1944.10512	0.33122
1942.17644	0.33153
1940.24777	0.33203
1938.31909	0.33247
1936.39042	0.33278
1934.46174	0.33307
1932.53306	0.33334
1930.60439	0.33359
1928.67571	0.33388
1926.74704	0.33419
1924.81836	0.33440
1922.88969	0.33458
1920.96101	0.33476
1919.03233	0.33489
1917.10366	0.33522
1915.17498	0.33580
1913.24631	0.33626
1911.31763	0.33650
1909.38896	0.33674
1907.46028	0.33708
1905.53160	0.33744
1903.60293	0.33777
1901.67425	0.33804
1899.74558	0.33828
1897.81690	0.33850
1895.88823	0.33874
1893.95955	0.33902
1892.03087	0.33920
1890.10220	0.33933
1888.17352	0.33965
1886.24485	0.34009
1884.31617	0.34042
1882.38750	0.34071
1880.45882	0.34108
1878.53014	0.34144
1876.60147	0.34172
1874.67279	0.34195
1872.74412	0.34206
1870.81544	0.34198
1868.88677	0.34200
1866.95809	0.34250
1865.02941	0.34322
1863.10074	0.34372
1861.17206	0.34405
1859.24339	0.34437
1857.31471	0.34470
1855.38604	0.34502
1853.45736	0.34533
1851.52868	0.34557
1849.60001	0.34573
1847.67133	0.34570
1845.74266	0.34547
1843.81398	0.34562
1841.88531	0.34646
1839.95663	0.34727
1838.02795	0.34769
1836.09928	0.34802
1834.17060	0.34831
1832.24193	0.34829
1830.31325	0.34821
1828.38458	0.34846
1826.45590	0.34882
1824.52722	0.34922
1822.59855	0.34978
1820.66987	0.35026
1818.74120	0.35056
1816.81252	0.35085
1814.88385	0.35115
1812.95517	0.35129
1811.02649	0.35141
1809.09782	0.35170
1807.16914	0.35207
1805.24047	0.35227
1803.31179	0.35223
1801.38312	0.35221
1799.45444	0.35250
1797.52576	0.35294
1795.59709	0.35309
1793.66841	0.35293
1791.73974	0.35306
1789.81106	0.35374
1787.88239	0.35429
1785.95371	0.35441
1784.02503	0.35453
1782.09636	0.35476
1780.16768	0.35504
1778.23901	0.35542
1776.31033	0.35556
1774.38166	0.35523
1772.45298	0.35495
1770.52430	0.35519
1768.59563	0.35573
1766.66695	0.35638
1764.73828	0.35683
1762.80960	0.35687
1760.88093	0.35695
1758.95225	0.35712
1757.02357	0.35722
1755.09490	0.35730
1753.16622	0.35699
1751.23755	0.35642
1749.30887	0.35638
1747.38020	0.35685
1745.45152	0.35723
1743.52284	0.35730
1741.59417	0.35720
1739.66549	0.35724
1737.73682	0.35724
1735.80814	0.35671
1733.87947	0.35643
1731.95079	0.35725
1730.02211	0.35837
1728.09344	0.35920
1726.16476	0.35977
1724.23609	0.36008
1722.30741	0.36013
1720.37874	0.35965
1718.45006	0.35901
1716.52138	0.35912
1714.59271	0.36001
1712.66403	0.36095
1710.73536	0.36149
1708.80668	0.36147
1706.87801	0.36116
1704.94933	0.36096
1703.02065	0.36043
1701.09198	0.35963
1699.16330	0.35959
1697.23463	0.36016
1695.30595	0.36083
1693.37728	0.36171
1691.44860	0.36219
1689.51992	0.36207
1687.59125	0.36161
1685.66257	0.36079
1683.73390	0.36052
1681.80522	0.36131
1679.87655	0.36218
1677.94787	0.36228
1676.01919	0.36195
1674.09052	0.36194
1672.16184	0.36200
1670.23317	0.36193
1668.30449	0.36238
1666.37582	0.36312
1664.44714	0.36326
1662.51846	0.36318
1660.58979	0.36352
1658.66111	0.36379
1656.73244	0.36311
1654.80376	0.36160
1652.87509	0.36102
1650.94641	0.36199
1649.01773	0.36267
1647.08906	0.36268
1645.16038	0.36326
1643.23171	0.36420
1641.30303	0.36463
1639.37436	0.36437
1637.44568	0.36366
1635.51700	0.36344
1633.58833	0.36425
1631.65965	0.36506
1629.73098	0.36508
1627.80230	0.36475
1625.87363	0.36431
1623.94495	0.36368
1622.01627	0.36326
1620.08760	0.36322
1618.15892	0.36348
1616.23025	0.36445
1614.30157	0.36601
1612.37290	0.36720
1610.44422	0.36772
1608.51554	0.36813
1606.58687	0.36865
1604.65819	0.36914
1602.72952	0.36955
1600.80084	0.36998
1598.87217	0.37036
1596.94349	0.37063
1595.01481	0.37085
1593.08614	0.37112
1591.15746	0.37145
1589.22879	0.37180
1587.30011	0.37216
1585.37144	0.37251
1583.44276	0.37287
1581.51408	0.37313
1579.58541	0.37305
1577.65673	0.37268
1575.72806	0.37273
1573.79938	0.37332
1571.87071	0.37355
1569.94203	0.37345
1568.01335	0.37381
1566.08468	0.37442
1564.15600	0.37471
1562.22733	0.37420
1560.29865	0.37297
1558.36998	0.37260
1556.44130	0.37375
1554.51262	0.37514
1552.58395	0.37587
1550.65527	0.37620
1548.72660	0.37649
1546.79792	0.37650
1544.86925	0.37593
1542.94057	0.37516
1541.01189	0.37484
1539.08322	0.37554
1537.15454	0.37677
1535.22587	0.37732
1533.29719	0.37743
1531.36852	0.37788
1529.43984	0.37818
1527.51116	0.37802
1525.58249	0.37781
1523.65381	0.37736
1521.72514	0.37686
1519.79646	0.37707
1517.86779	0.37772
1515.93911	0.37838
1514.01043	0.37896
1512.08176	0.37904
1510.15308	0.37842
1508.22441	0.37767
1506.29573	0.37802
1504.36706	0.37957
1502.43838	0.38070
1500.50970	0.38063
1498.58103	0.38024
1496.65235	0.38043
1494.72368	0.38104
1492.79500	0.38114
1490.86633	0.38060
1488.93765	0.38040
1487.00897	0.38095
1485.08030	0.38162
1483.15162	0.38191
1481.22295	0.38193
1479.29427	0.38172
1477.36560	0.38115
1475.43692	0.38039
1473.50824	0.37983
1471.57957	0.37986
1469.65089	0.38031
1467.72222	0.38040
1465.79354	0.38010
1463.86487	0.38016
1461.93619	0.38031
1460.00751	0.37957
1458.07884	0.37845
1456.15016	0.37854
1454.22149	0.37983
1452.29281	0.38089
1450.36414	0.38125
1448.43546	0.38135
1446.50678	0.38166
1444.57811	0.38210
1442.64943	0.38234
1440.72076	0.38217
1438.79208	0.38144
1436.86341	0.38086
1434.93473	0.38129
1433.00605	0.38198
1431.07738	0.38216
1429.14870	0.38224
1427.22003	0.38236
1425.29135	0.38225
1423.36268	0.38197
1421.43400	0.38134
1419.50532	0.38063
1417.57665	0.38075
1415.64797	0.38147
1413.71930	0.38186
1411.79062	0.38184
1409.86195	0.38176
1407.93327	0.38161
1406.00459	0.38139
1404.07592	0.38131
1402.14724	0.38126
1400.21857	0.38095
1398.28989	0.38060
1396.36122	0.38040
1394.43254	0.38047
1392.50386	0.38085
1390.57519	0.38087
1388.64651	0.38016
1386.71784	0.37947
1384.78916	0.37936
1382.86049	0.37958
1380.93181	0.37978
1379.00313	0.37979
1377.07446	0.37953
1375.14578	0.37921
1373.21711	0.37921
1371.28843	0.37945
1369.35976	0.37959
1367.43108	0.37955
1365.50240	0.37930
1363.57373	0.37890
1361.64505	0.37879
1359.71638	0.37905
1357.78770	0.37925
1355.85903	0.37926
1353.93035	0.37932
1352.00167	0.37952
1350.07300	0.37977
1348.14432	0.37998
1346.21565	0.38012
1344.28697	0.38011
1342.35830	0.37989
1340.42962	0.37954
1338.50094	0.37940
1336.57227	0.37960
1334.64359	0.37987
1332.71492	0.37998
1330.78624	0.37997
1328.85757	0.37985
1326.92889	0.37968
1325.00021	0.37951
1323.07154	0.37936
1321.14286	0.37918
1319.21419	0.37902
1317.28551	0.37892
1315.35684	0.37880
1313.42816	0.37864
1311.49948	0.37846
1309.57081	0.37827
1307.64213	0.37798
1305.71346	0.37756
1303.78478	0.37712
1301.85611	0.37673
1299.92743	0.37637
1297.99875	0.37604
1296.07008	0.37571
1294.14140	0.37537
1292.21273	0.37495
1290.28405	0.37442
1288.35538	0.37387
1286.42670	0.37338
1284.49802	0.37292
1282.56935	0.37245
1280.64067	0.37188
1278.71200	0.37114
1276.78332	0.37028
1274.85465	0.36934
1272.92597	0.36823
1270.99729	0.36682
1269.06862	0.36512
1267.13994	0.36327
1265.21127	0.36156
1263.28259	0.36036
1261.35392	0.35981
1259.42524	0.35977
1257.49656	0.35999
1255.56789	0.36018
1253.63921	0.36013
1251.71054	0.35982
1249.78186	0.35934
1247.85319	0.35871
1245.92451	0.35797
1243.99583	0.35716
1242.06716	0.35630
1240.13848	0.35538
1238.20981	0.35439
1236.28113	0.35340
1234.35246	0.35242
1232.42378	0.35142
1230.49510	0.35038
1228.56643	0.34931
1226.63775	0.34828
1224.70908	0.34734
1222.78040	0.34648
1220.85173	0.34565
1218.92305	0.34477
1216.99437	0.34384
1215.06570	0.34288
1213.13702	0.34190
1211.20835	0.34091
1209.27967	0.33997
1207.35100	0.33908
1205.42232	0.33820
1203.49364	0.33730
1201.56497	0.33640
1199.63629	0.33552
1197.70762	0.33467
1195.77894	0.33376
1193.85027	0.33281
1191.92159	0.33185
1189.99291	0.33080
1188.06424	0.32961
1186.13556	0.32836
1184.20689	0.32710
1182.27821	0.32577
1180.34954	0.32438
1178.42086	0.32299
1176.49218	0.32161
1174.56351	0.32021
1172.63483	0.31884
1170.70616	0.31748
1168.77748	0.31609
1166.84881	0.31463
1164.92013	0.31316
1162.99145	0.31173
1161.06278	0.31035
1159.13410	0.30903
1157.20543	0.30775
1155.27675	0.30650
1153.34808	0.30529
1151.41940	0.30412
1149.49072	0.30300
1147.56205	0.30187
1145.63337	0.30076
1143.70470	0.29964
1141.77602	0.29847
1139.84735	0.29726
1137.91867	0.29603
1135.98999	0.29482
1134.06132	0.29359
1132.13264	0.29230
1130.20397	0.29098
1128.27529	0.28962
1126.34662	0.28824
1124.41794	0.28679
1122.48926	0.28527
1120.56059	0.28374
1118.63191	0.28221
1116.70324	0.28065
1114.77456	0.27907
1112.84589	0.27755
1110.91721	0.27606
1108.98853	0.27456
1107.05986	0.27304
1105.13118	0.27157
1103.20251	0.27019
1101.27383	0.26883
1099.34516	0.26748
1097.41648	0.26617
1095.48780	0.26491
1093.55913	0.26367
1091.63045	0.26250
1089.70178	0.26139
1087.77310	0.26030
1085.84443	0.25923
1083.91575	0.25818
1081.98707	0.25720
1080.05840	0.25628
1078.12972	0.25538
1076.20105	0.25453
1074.27237	0.25384
1072.34370	0.25330
1070.41502	0.25284
1068.48634	0.25253
1066.55767	0.25241
1064.62899	0.25246
1062.70032	0.25261
1060.77164	0.25280
1058.84297	0.25298
1056.91429	0.25319
1054.98561	0.25348
1053.05694	0.25386
1051.12826	0.25432
1049.19959	0.25485
1047.27091	0.25540
1045.34224	0.25600
1043.41356	0.25672
1041.48488	0.25753
1039.55621	0.25836
1037.62753	0.25917
1035.69886	0.26001
1033.77018	0.26080
1031.84151	0.26152
1029.91283	0.26224
1027.98415	0.26303
1026.05548	0.26388
1024.12680	0.26469
1022.19813	0.26542
1020.26945	0.26625
1018.34078	0.26732
1016.41210	0.26856
1014.48342	0.26984
1012.55475	0.27120
1010.62607	0.27264
1008.69740	0.27405
1006.76872	0.27541
1004.84005	0.27670
1002.91137	0.27783
1000.98269	0.27880
999.05402	0.27972
997.12534	0.28060
995.19667	0.28135
993.26799	0.28201
991.33932	0.28260
989.41064	0.28316
987.48196	0.28374
985.55329	0.28432
983.62461	0.28484
981.69594	0.28529
979.76726	0.28563
977.83859	0.28583
975.90991	0.28593
973.98123	0.28595
972.05256	0.28594
970.12388	0.28587
968.19521	0.28575
966.26653	0.28561
964.33786	0.28547
962.40918	0.28529
960.48050	0.28500
958.55183	0.28460
956.62315	0.28419
954.69448	0.28386
952.76580	0.28351
950.83713	0.28303
948.90845	0.28243
946.97977	0.28175
945.05110	0.28108
943.12242	0.28057
941.19375	0.28009
939.26507	0.27947
937.33640	0.27872
935.40772	0.27799
933.47904	0.27736
931.55037	0.27677
929.62169	0.27612
927.69302	0.27544
925.76434	0.27476
923.83567	0.27403
921.90699	0.27326
919.97831	0.27255
918.04964	0.27188
916.12096	0.27114
914.19229	0.27034
912.26361	0.26953
910.33494	0.26873
908.40626	0.26795
906.47758	0.26718
904.54891	0.26632
902.62023	0.26538
900.69156	0.26444
898.76288	0.26352
896.83421	0.26262
894.90553	0.26174
892.97685	0.26086
891.04818	0.25999
889.11950	0.25912
887.19083	0.25823
885.26215	0.25734
883.33348	0.25647
881.40480	0.25560
879.47612	0.25473
877.54745	0.25390
875.61877	0.25317
873.69010	0.25251
871.76142	0.25181
869.83275	0.25105
867.90407	0.25028
865.97539	0.24948
864.04672	0.24864
862.11804	0.24780
860.18937	0.24697
858.26069	0.24610
856.33202	0.24515
854.40334	0.24416
852.47466	0.24322
850.54599	0.24232
848.61731	0.24143
846.68864	0.24050
844.75996	0.23956
842.83129	0.23866
840.90261	0.23786
838.97394	0.23707
837.04526	0.23621
835.11658	0.23530
833.18791	0.23432
831.25923	0.23326
829.33056	0.23216
827.40188	0.23105
825.47321	0.22994
823.54453	0.22878
821.61585	0.22764
819.68718	0.22658
817.75850	0.22563
815.82983	0.22474
813.90115	0.22385
811.97248	0.22290
810.04380	0.22194
808.11512	0.22099
806.18645	0.22007
804.25777	0.21916
802.32910	0.21836
800.40042	0.21773
798.47175	0.21727
796.54307	0.21687
794.61439	0.21647
792.68572	0.21610
790.75704	0.21578
788.82837	0.21553
786.89969	0.21524
784.97102	0.21485
783.04234	0.21440
781.11366	0.21394
779.18499	0.21343
777.25631	0.21290
775.32764	0.21243
773.39896	0.21204
771.47029	0.21162
769.54161	0.21110
767.61293	0.21047
765.68426	0.20981
763.75558	0.20914
761.82691	0.20844
759.89823	0.20772
757.96956	0.20698
756.04088	0.20611
754.11220	0.20515
752.18353	0.20423
750.25485	0.20332
748.32618	0.20238
746.39750	0.20146
744.46883	0.20057
742.54015	0.19971
740.61147	0.19891
738.68280	0.19816
736.75412	0.19743
734.82545	0.19672
732.89677	0.19596
730.96810	0.19517
729.03942	0.19446
727.11074	0.19383
725.18207	0.19312
723.25339	0.19228
721.32472	0.19147
719.39604	0.19077
717.46737	0.19010
715.53869	0.18935
713.61001	0.18855
711.68134	0.18772
709.75266	0.18688
707.82399	0.18609
705.89531	0.18534
703.96664	0.18462
702.03796	0.18385
700.10928	0.18303
698.18061	0.18223
696.25193	0.18142
694.32326	0.18060
692.39458	0.17983
690.46591	0.17906
688.53723	0.17823
686.60855	0.17729
684.67988	0.17623
682.75120	0.17516
680.82253	0.17411
678.89385	0.17307
676.96518	0.17200
675.03650	0.17083
673.10782	0.16953
671.17915	0.16799
669.25047	0.16626
667.32180	0.16473
665.39312	0.16349
663.46445	0.16216
661.53577	0.16065
659.60709	0.15916
657.67842	0.15767
655.74974	0.15609
653.82107	0.15455
651.89239	0.15315
649.96372	0.15183
648.03504	0.15045
646.10636	0.14891
644.17769	0.14715
642.24901	0.14527
640.32034	0.14338
638.39166	0.14153
636.46299	0.13974
634.53431	0.13802
632.60563	0.13631
630.67696	0.13460
628.74828	0.13283
626.81961	0.13101
624.89093	0.12926
622.96226	0.12761
621.03358	0.12602
619.10490	0.12451
617.17623	0.12296
615.24755	0.12114
613.31888	0.11917
611.39020	0.11731
609.46153	0.11562
607.53285	0.11402
605.60417	0.11246
603.67550	0.11092
601.74682	0.10945
599.81815	0.10807
597.88947	0.10671
595.96080	0.10543
594.03212	0.10425
592.10344	0.10312
590.17477	0.10197
588.24609	0.10084
586.31742	0.09979
584.38874	0.09875
582.46007	0.09767
580.53139	0.09657
578.60271	0.09544
576.67404	0.09435
574.74536	0.09336
572.81669	0.09243
570.88801	0.09149
568.95934	0.09056
567.03066	0.08969
565.10198	0.08894
563.17331	0.08821
561.24463	0.08741
559.31596	0.08665
557.38728	0.08591
555.45861	0.08510
553.52993	0.08434
551.60125	0.08377
549.67258	0.08335
547.74390	0.08291
545.81523	0.08243
543.88655	0.08193
541.95788	0.08140
540.02920	0.08082
538.10052	0.08022
536.17185	0.07957
534.24317	0.07898
532.31450	0.07860
530.38582	0.07824
528.45715	0.07763
526.52847	0.07681
524.59979	0.07598
522.67112	0.07523
520.74244	0.07454
518.81377	0.07386
516.88509	0.07309
514.95642	0.07222
513.02774	0.07135
511.09906	0.07052
509.17039	0.06971
507.24171	0.06890
505.31304	0.06811
503.38436	0.06716
501.45569	0.06597
499.52701	0.06473
497.59833	0.06359
495.66966	0.06247
493.74098	0.06128
491.81231	0.06001
489.88363	0.05877
487.95496	0.05763
486.02628	0.05645
484.09760	0.05514
482.16893	0.05383
480.24025	0.05262
478.31158	0.05151
476.38290	0.05044
474.45423	0.04928
472.52555	0.04815
470.59687	0.04720
468.66820	0.04639
466.73952	0.04567
464.81085	0.04497
462.88217	0.04435
460.95350	0.04396
459.02482	0.04378
457.09614	0.04366
455.16747	0.04351
453.23879	0.04341
451.31012	0.04346
449.38144	0.04351
447.45277	0.04336
445.52409	0.04297
443.59541	0.04238
441.66674	0.04174
439.73806	0.04103
437.80939	0.04014
435.88071	0.03914
433.95204	0.03819
432.02336	0.03722
430.09468	0.03605
428.16601	0.03479
426.23733	0.03358
424.30866	0.03234
422.37998	0.03104
420.45131	0.02974
418.52263	0.02848
416.59395	0.02723
414.66528	0.02597
412.73660	0.02479
410.80793	0.02366
408.87925	0.02250
406.95058	0.02133
405.02190	0.02017
403.09322	0.01908
401.16455	0.01802
399.23587	0.01693
397.30720	0.01582
395.37852	0.01478
393.44985	0.01390
391.52117	0.01309
389.59249	0.01219
387.66382	0.01118
385.73514	0.01017
383.80647	0.00927
381.87779	0.00859
379.94912	0.00809
378.02044	0.00761
376.09176	0.00704
374.16309	0.00641
372.23441	0.00578
370.30574	0.00521
368.37706	0.00471
