7496.76250	0.00224
7494.83382	0.00225
7492.90514	0.00225
7490.97647	0.00225
7489.04779	0.00226
7487.11912	0.00227
7485.19044	0.00227
7483.26177	0.00227
7481.33309	0.00228
7479.40441	0.00229
7477.47574	0.00230
7475.54706	0.00230
7473.61839	0.00229
7471.68971	0.00229
7469.76104	0.00230
7467.83236	0.00232
7465.90368	0.00234
7463.97501	0.00235
7462.04633	0.00236
7460.11766	0.00237
7458.18898	0.00238
7456.26031	0.00237
7454.33163	0.00236
7452.40295	0.00236
7450.47428	0.00236
7448.54560	0.00237
7446.61693	0.00238
7444.68825	0.00238
7442.75958	0.00238
7440.83090	0.00239
7438.90222	0.00241
7436.97355	0.00242
7435.04487	0.00242
7433.11620	0.00241
7431.18752	0.00242
7429.25885	0.00244
7427.33017	0.00244
7425.40149	0.00244
7423.47282	0.00244
7421.54414	0.00245
7419.61547	0.00246
7417.68679	0.00247
7415.75812	0.00247
7413.82944	0.00247
7411.90076	0.00249
7409.97209	0.00250
7408.04341	0.00251
7406.11474	0.00251
7404.18606	0.00253
7402.25739	0.00255
7400.32871	0.00254
7398.40003	0.00254
7396.47136	0.00255
7394.54268	0.00257
7392.61401	0.00259
7390.68533	0.00259
7388.75666	0.00257
7386.82798	0.00257
7384.89930	0.00257
7382.97063	0.00257
7381.04195	0.00257
7379.11328	0.00259
7377.18460	0.00262
7375.25593	0.00263
7373.32725	0.00263
7371.39857	0.00262
7369.46990	0.00263
7367.54122	0.00263
7365.61255	0.00263
7363.68387	0.00263
7361.75520	0.00264
7359.82652	0.00264
7357.89784	0.00265
7355.96917	0.00266
7354.04049	0.00268
7352.11182	0.00270
7350.18314	0.00270
7348.25447	0.00271
7346.32579	0.00273
7344.39711	0.00274
7342.46844	0.00274
7340.53976	0.00274
7338.61109	0.00274
7336.68241	0.00275
7334.75374	0.00277
7332.82506	0.00278
7330.89638	0.00277
7328.96771	0.00277
7327.03903	0.00277
7325.11036	0.00278
7323.18168	0.00279
7321.25301	0.00279
7319.32433	0.00279
7317.39565	0.00279
7315.46698	0.00280
7313.53830	0.00282
7311.60963	0.00283
7309.68095	0.00283
7307.75228	0.00284
7305.82360	0.00285
7303.89492	0.00286
7301.96625	0.00286
7300.03757	0.00287
7298.10890	0.00289
7296.18022	0.00290
7294.25155	0.00291
7292.32287	0.00292
7290.39419	0.00292
7288.46552	0.00291
7286.53684	0.00291
7284.60817	0.00292
7282.67949	0.00293
7280.75082	0.00293
7278.82214	0.00293
7276.89346	0.00294
7274.96479	0.00296
7273.03611	0.00297
7271.10744	0.00297
7269.17876	0.00297
7267.25009	0.00298
7265.32141	0.00298
7263.39273	0.00298
7261.46406	0.00299
7259.53538	0.00299
7257.60671	0.00299
7255.67803	0.00301
7253.74936	0.00303
7251.82068	0.00305
7249.89200	0.00307
7247.96333	0.00308
7246.03465	0.00308
7244.10598	0.00308
7242.17730	0.00310
7240.24863	0.00312
7238.31995	0.00312
7236.39127	0.00311
7234.46260	0.00310
7232.53392	0.00310
7230.60525	0.00311
7228.67657	0.00311
7226.74790	0.00312
7224.81922	0.00313
7222.89054	0.00315
7220.96187	0.00316
7219.03319	0.00316
7217.10452	0.00316
7215.17584	0.00318
7213.24717	0.00320
7211.31849	0.00320
7209.38981	0.00320
7207.46114	0.00319
7205.53246	0.00320
7203.60379	0.00320
7201.67511	0.00321
7199.74644	0.00322
7197.81776	0.00323
7195.88908	0.00323
7193.96041	0.00322
7192.03173	0.00324
7190.10306	0.00326
7188.17438	0.00327
7186.24571	0.00328
7184.31703	0.00328
7182.38835	0.00329
7180.45968	0.00329
7178.53100	0.00330
7176.60233	0.00332
7174.67365	0.00333
7172.74498	0.00332
7170.81630	0.00332
7168.88762	0.00333
7166.95895	0.00335
7165.03027	0.00337
7163.10160	0.00337
7161.17292	0.00337
7159.24425	0.00338
7157.31557	0.00341
7155.38689	0.00343
7153.45822	0.00342
7151.52954	0.00341
7149.60087	0.00341
7147.67219	0.00342
7145.74352	0.00344
7143.81484	0.00346
7141.88616	0.00346
7139.95749	0.00346
7138.02881	0.00346
7136.10014	0.00347
7134.17146	0.00348
7132.24279	0.00350
7130.31411	0.00351
7128.38543	0.00351
7126.45676	0.00349
7124.52808	0.00350
7122.59941	0.00352
7120.67073	0.00353
7118.74206	0.00353
7116.81338	0.00353
7114.88470	0.00355
7112.95603	0.00355
7111.02735	0.00357
7109.09868	0.00359
7107.17000	0.00361
7105.24133	0.00361
7103.31265	0.00360
7101.38397	0.00360
7099.45530	0.00361
7097.52662	0.00362
7095.59795	0.00361
7093.66927	0.00362
7091.74060	0.00363
7089.81192	0.00366
7087.88324	0.00368
7085.95457	0.00370
7084.02589	0.00370
7082.09722	0.00371
7080.16854	0.00371
7078.23987	0.00372
7076.31119	0.00374
7074.38251	0.00375
7072.45384	0.00376
7070.52516	0.00375
7068.59649	0.00375
7066.66781	0.00376
7064.73914	0.00377
7062.81046	0.00377
7060.88178	0.00377
7058.95311	0.00379
7057.02443	0.00381
7055.09576	0.00383
7053.16708	0.00384
7051.23841	0.00385
7049.30973	0.00385
7047.38105	0.00385
7045.45238	0.00385
7043.52370	0.00385
7041.59503	0.00387
7039.66635	0.00388
7037.73768	0.00388
7035.80900	0.00389
7033.88032	0.00390
7031.95165	0.00390
7030.02297	0.00390
7028.09430	0.00391
7026.16562	0.00393
7024.23695	0.00394
7022.30827	0.00394
7020.37959	0.00393
7018.45092	0.00395
7016.52224	0.00398
7014.59357	0.00399
7012.66489	0.00399
7010.73622	0.00400
7008.80754	0.00402
7006.87886	0.00403
7004.95019	0.00403
7003.02151	0.00404
7001.09284	0.00405
6999.16416	0.00404
6997.23549	0.00404
6995.30681	0.00406
6993.37813	0.00408
6991.44946	0.00410
6989.52078	0.00411
6987.59211	0.00411
6985.66343	0.00411
6983.73476	0.00412
6981.80608	0.00414
6979.87740	0.00415
6977.94873	0.00416
6976.02005	0.00414
6974.09138	0.00414
6972.16270	0.00414
6970.23403	0.00415
6968.30535	0.00417
6966.37667	0.00420
6964.44800	0.00421
6962.51932	0.00422
6960.59065	0.00422
6958.66197	0.00423
6956.73330	0.00424
6954.80462	0.00424
6952.87594	0.00425
6950.94727	0.00427
6949.01859	0.00428
6947.08992	0.00429
6945.16124	0.00429
6943.23257	0.00429
6941.30389	0.00430
6939.37521	0.00431
6937.44654	0.00433
6935.51786	0.00434
6933.58919	0.00436
6931.66051	0.00437
6929.73184	0.00437
6927.80316	0.00438
6925.87448	0.00438
6923.94581	0.00438
6922.01713	0.00437
6920.08846	0.00437
6918.15978	0.00438
6916.23111	0.00439
6914.30243	0.00441
6912.37375	0.00442
6910.44508	0.00444
6908.51640	0.00446
6906.58773	0.00447
6904.65905	0.00448
6902.73038	0.00449
6900.80170	0.00450
6898.87302	0.00451
6896.94435	0.00452
6895.01567	0.00453
6893.08700	0.00455
6891.15832	0.00457
6889.22965	0.00458
6887.30097	0.00459
6885.37229	0.00460
6883.44362	0.00460
6881.51494	0.00459
6879.58627	0.00459
6877.65759	0.00459
6875.72892	0.00461
6873.80024	0.00461
6871.87156	0.00462
6869.94289	0.00465
6868.01421	0.00469
6866.08554	0.00470
6864.15686	0.00469
6862.22819	0.00469
6860.29951	0.00470
6858.37083	0.00472
6856.44216	0.00472
6854.51348	0.00473
6852.58481	0.00473
6850.65613	0.00474
6848.72746	0.00474
6846.79878	0.00475
6844.87010	0.00475
6842.94143	0.00476
6841.01275	0.00477
6839.08408	0.00479
6837.15540	0.00479
6835.22673	0.00478
6833.29805	0.00478
6831.36937	0.00480
6829.44070	0.00483
6827.51202	0.00486
6825.58335	0.00488
6823.65467	0.00491
6821.72600	0.00493
6819.79732	0.00493
6817.86864	0.00493
6815.93997	0.00494
6814.01129	0.00495
6812.08262	0.00496
6810.15394	0.00497
6808.22527	0.00496
6806.29659	0.00497
6804.36791	0.00498
6802.43924	0.00499
6800.51056	0.00501
6798.58189	0.00502
6796.65321	0.00502
6794.72454	0.00502
6792.79586	0.00504
6790.86718	0.00506
6788.93851	0.00507
6787.00983	0.00508
6785.08116	0.00510
6783.15248	0.00511
6781.22381	0.00512
6779.29513	0.00513
6777.36645	0.00514
6775.43778	0.00516
6773.50910	0.00519
6771.58043	0.00521
6769.65175	0.00521
6767.72308	0.00521
6765.79440	0.00521
6763.86572	0.00522
6761.93705	0.00524
6760.00837	0.00526
6758.07970	0.00527
6756.15102	0.00526
6754.22235	0.00525
6752.29367	0.00526
6750.36499	0.00530
6748.43632	0.00534
6746.50764	0.00536
6744.57897	0.00536
6742.65029	0.00536
6740.72162	0.00536
6738.79294	0.00536
6736.86426	0.00537
6734.93559	0.00537
6733.00691	0.00537
6731.07824	0.00539
6729.14956	0.00541
6727.22089	0.00543
6725.29221	0.00545
6723.36353	0.00545
6721.43486	0.00544
6719.50618	0.00546
6717.57751	0.00549
6715.64883	0.00551
6713.72016	0.00553
6711.79148	0.00553
6709.86280	0.00552
6707.93413	0.00553
6706.00545	0.00555
6704.07678	0.00556
6702.14810	0.00558
6700.21943	0.00559
6698.29075	0.00560
6696.36207	0.00560
6694.43340	0.00560
6692.50472	0.00561
6690.57605	0.00563
6688.64737	0.00563
6686.71870	0.00563
6684.79002	0.00565
6682.86134	0.00567
6680.93267	0.00570
6679.00399	0.00572
6677.07532	0.00573
6675.14664	0.00573
6673.21797	0.00575
6671.28929	0.00577
6669.36061	0.00578
6667.43194	0.00579
6665.50326	0.00579
6663.57459	0.00579
6661.64591	0.00580
6659.71724	0.00581
6657.78856	0.00583
6655.85988	0.00584
6653.93121	0.00586
6652.00253	0.00588
6650.07386	0.00590
6648.14518	0.00591
6646.21651	0.00591
6644.28783	0.00590
6642.35915	0.00592
6640.43048	0.00593
6638.50180	0.00595
6636.57313	0.00597
6634.64445	0.00597
6632.71578	0.00597
6630.78710	0.00599
6628.85842	0.00602
6626.92975	0.00603
6625.00107	0.00604
6623.07240	0.00606
6621.14372	0.00608
6619.21505	0.00610
6617.28637	0.00611
6615.35769	0.00613
6613.42902	0.00614
6611.50034	0.00615
6609.57167	0.00616
6607.64299	0.00616
6605.71432	0.00615
6603.78564	0.00617
6601.85696	0.00619
6599.92829	0.00619
6597.99961	0.00618
6596.07094	0.00620
6594.14226	0.00625
6592.21359	0.00627
6590.28491	0.00628
6588.35623	0.00629
6586.42756	0.00631
6584.49888	0.00635
6582.57021	0.00637
6580.64153	0.00637
6578.71286	0.00636
6576.78418	0.00636
6574.85550	0.00639
6572.92683	0.00641
6570.99815	0.00643
6569.06948	0.00643
6567.14080	0.00643
6565.21213	0.00644
6563.28345	0.00645
6561.35477	0.00647
6559.42610	0.00648
6557.49742	0.00650
6555.56875	0.00651
6553.64007	0.00652
6551.71140	0.00653
6549.78272	0.00654
6547.85404	0.00655
6545.92537	0.00656
6543.99669	0.00655
6542.06802	0.00656
6540.13934	0.00659
6538.21067	0.00662
6536.28199	0.00664
6534.35331	0.00666
6532.42464	0.00668
6530.49596	0.00669
6528.56729	0.00669
6526.63861	0.00670
6524.70994	0.00672
6522.78126	0.00673
6520.85258	0.00674
6518.92391	0.00674
6516.99523	0.00676
6515.06656	0.00679
6513.13788	0.00681
6511.20921	0.00682
6509.28053	0.00683
6507.35185	0.00684
6505.42318	0.00684
6503.49450	0.00685
6501.56583	0.00687
6499.63715	0.00692
6497.70848	0.00696
6495.77980	0.00697
6493.85112	0.00697
6491.92245	0.00697
6489.99377	0.00698
6488.06510	0.00700
6486.13642	0.00703
6484.20775	0.00705
6482.27907	0.00704
6480.35039	0.00705
6478.42172	0.00706
6476.49304	0.00707
6474.56437	0.00708
6472.63569	0.00709
6470.70702	0.00710
6468.77834	0.00710
6466.84966	0.00711
6464.92099	0.00712
6462.99231	0.00716
6461.06364	0.00719
6459.13496	0.00721
6457.20629	0.00723
6455.27761	0.00725
6453.34893	0.00725
6451.42026	0.00726
6449.49158	0.00727
6447.56291	0.00730
6445.63423	0.00732
6443.70556	0.00734
6441.77688	0.00735
6439.84820	0.00736
6437.91953	0.00739
6435.99085	0.00740
6434.06218	0.00742
6432.13350	0.00743
6430.20483	0.00743
6428.27615	0.00744
6426.34747	0.00745
6424.41880	0.00746
6422.49012	0.00747
6420.56145	0.00749
6418.63277	0.00752
6416.70410	0.00756
6414.77542	0.00759
6412.84674	0.00761
6410.91807	0.00762
6408.98939	0.00761
6407.06072	0.00763
6405.13204	0.00766
6403.20337	0.00769
6401.27469	0.00770
6399.34601	0.00770
6397.41734	0.00771
6395.48866	0.00772
6393.55999	0.00774
6391.63131	0.00777
6389.70264	0.00779
6387.77396	0.00779
6385.84528	0.00780
6383.91661	0.00783
6381.98793	0.00786
6380.05926	0.00785
6378.13058	0.00786
6376.20191	0.00788
6374.27323	0.00791
6372.34455	0.00794
6370.41588	0.00796
6368.48720	0.00797
6366.55853	0.00798
6364.62985	0.00798
6362.70118	0.00799
6360.77250	0.00799
6358.84382	0.00800
6356.91515	0.00802
6354.98647	0.00805
6353.05780	0.00807
6351.12912	0.00808
6349.20045	0.00810
6347.27177	0.00812
6345.34309	0.00814
6343.41442	0.00815
6341.48574	0.00817
6339.55707	0.00820
6337.62839	0.00822
6335.69972	0.00823
6333.77104	0.00825
6331.84236	0.00827
6329.91369	0.00830
6327.98501	0.00831
6326.05634	0.00832
6324.12766	0.00833
6322.19899	0.00834
6320.27031	0.00836
6318.34163	0.00839
6316.41296	0.00841
6314.48428	0.00842
6312.55561	0.00842
6310.62693	0.00843
6308.69826	0.00846
6306.76958	0.00849
6304.84090	0.00852
6302.91223	0.00854
6300.98355	0.00855
6299.05488	0.00856
6297.12620	0.00857
6295.19753	0.00860
6293.26885	0.00861
6291.34017	0.00863
6289.41150	0.00865
6287.48282	0.00867
6285.55415	0.00870
6283.62547	0.00871
6281.69680	0.00873
6279.76812	0.00874
6277.83944	0.00877
6275.91077	0.00879
6273.98209	0.00881
6272.05342	0.00884
6270.12474	0.00885
6268.19607	0.00884
6266.26739	0.00885
6264.33871	0.00886
6262.41004	0.00889
6260.48136	0.00892
6258.55269	0.00895
6256.62401	0.00896
6254.69534	0.00898
6252.76666	0.00900
6250.83798	0.00901
6248.90931	0.00901
6246.98063	0.00901
6245.05196	0.00903
6243.12328	0.00907
6241.19461	0.00911
6239.26593	0.00914
6237.33725	0.00917
6235.40858	0.00920
6233.47990	0.00921
6231.55123	0.00921
6229.62255	0.00922
6227.69388	0.00926
6225.76520	0.00929
6223.83652	0.00930
6221.90785	0.00931
6219.97917	0.00933
6218.05050	0.00934
6216.12182	0.00935
6214.19315	0.00936
6212.26447	0.00938
6210.33579	0.00940
6208.40712	0.00943
6206.47844	0.00945
6204.54977	0.00948
6202.62109	0.00951
6200.69242	0.00953
6198.76374	0.00953
6196.83506	0.00955
6194.90639	0.00957
6192.97771	0.00960
6191.04904	0.00962
6189.12036	0.00964
6187.19169	0.00966
6185.26301	0.00967
6183.33433	0.00969
6181.40566	0.00971
6179.47698	0.00974
6177.54831	0.00977
6175.61963	0.00979
6173.69096	0.00981
6171.76228	0.00984
6169.83360	0.00986
6167.90493	0.00987
6165.97625	0.00989
6164.04758	0.00991
6162.11890	0.00992
6160.19023	0.00993
6158.26155	0.00993
6156.33287	0.00995
6154.40420	0.00999
6152.47552	0.01003
6150.54685	0.01006
6148.61817	0.01007
6146.68950	0.01009
6144.76082	0.01011
6142.83214	0.01013
6140.90347	0.01014
6138.97479	0.01014
6137.04612	0.01016
6135.11744	0.01019
6133.18877	0.01022
6131.26009	0.01024
6129.33141	0.01025
6127.40274	0.01027
6125.47406	0.01032
6123.54539	0.01035
6121.61671	0.01036
6119.68804	0.01037
6117.75936	0.01039
6115.83068	0.01042
6113.90201	0.01045
6111.97333	0.01046
6110.04466	0.01047
6108.11598	0.01050
6106.18731	0.01054
6104.25863	0.01056
6102.32995	0.01057
6100.40128	0.01060
6098.47260	0.01063
6096.54393	0.01064
6094.61525	0.01065
6092.68658	0.01067
6090.75790	0.01070
6088.82922	0.01072
6086.90055	0.01073
6084.97187	0.01074
6083.04320	0.01075
6081.11452	0.01079
6079.18585	0.01082
6077.25717	0.01085
6075.32849	0.01088
6073.39982	0.01091
6071.47114	0.01093
6069.54247	0.01096
6067.61379	0.01100
6065.68512	0.01103
6063.75644	0.01105
6061.82776	0.01106
6059.89909	0.01108
6057.97041	0.01109
6056.04174	0.01110
6054.11306	0.01111
6052.18439	0.01113
6050.25571	0.01117
6048.32703	0.01121
6046.39836	0.01123
6044.46968	0.01125
6042.54101	0.01128
6040.61233	0.01131
6038.68366	0.01133
6036.75498	0.01135
6034.82630	0.01137
6032.89763	0.01139
6030.96895	0.01142
6029.04028	0.01144
6027.11160	0.01145
6025.18293	0.01147
6023.25425	0.01150
6021.32557	0.01153
6019.39690	0.01154
6017.46822	0.01155
6015.53955	0.01156
6013.61087	0.01159
6011.68220	0.01162
6009.75352	0.01165
6007.82484	0.01168
6005.89617	0.01170
6003.96749	0.01172
6002.03882	0.01174
6000.11014	0.01177
5998.18147	0.01179
5996.25279	0.01183
5994.32411	0.01187
5992.39544	0.01188
5990.46676	0.01189
5988.53809	0.01192
5986.60941	0.01195
5984.68074	0.01200
5982.75206	0.01203
5980.82338	0.01205
5978.89471	0.01206
5976.96603	0.01207
5975.03736	0.01209
5973.10868	0.01211
5971.18001	0.01213
5969.25133	0.01216
5967.32265	0.01219
5965.39398	0.01221
5963.46530	0.01223
5961.53663	0.01226
5959.60795	0.01229
5957.67928	0.01233
5955.75060	0.01236
5953.82192	0.01239
5951.89325	0.01241
5949.96457	0.01244
5948.03590	0.01248
5946.10722	0.01250
5944.17855	0.01252
5942.24987	0.01253
5940.32119	0.01254
5938.39252	0.01256
5936.46384	0.01259
5934.53517	0.01263
5932.60649	0.01266
5930.67782	0.01268
5928.74914	0.01270
5926.82046	0.01273
5924.89179	0.01276
5922.96311	0.01279
5921.03444	0.01282
5919.10576	0.01284
5917.17709	0.01286
5915.24841	0.01291
5913.31973	0.01295
5911.39106	0.01298
5909.46238	0.01299
5907.53371	0.01300
5905.60503	0.01303
5903.67636	0.01306
5901.74768	0.01309
5899.81900	0.01311
5897.89033	0.01314
5895.96165	0.01316
5894.03298	0.01318
5892.10430	0.01320
5890.17563	0.01323
5888.24695	0.01326
5886.31827	0.01329
5884.38960	0.01332
5882.46092	0.01336
5880.53225	0.01341
5878.60357	0.01345
5876.67490	0.01345
5874.74622	0.01344
5872.81755	0.01345
5870.88887	0.01349
5868.96019	0.01353
5867.03152	0.01355
5865.10284	0.01357
5863.17417	0.01362
5861.24549	0.01365
5859.31682	0.01366
5857.38814	0.01367
5855.45946	0.01370
5853.53079	0.01373
5851.60211	0.01377
5849.67344	0.01379
5847.74476	0.01383
5845.81609	0.01387
5843.88741	0.01391
5841.95873	0.01393
5840.03006	0.01395
5838.10138	0.01398
5836.17271	0.01401
5834.24403	0.01403
5832.31536	0.01405
5830.38668	0.01409
5828.45800	0.01413
5826.52933	0.01416
5824.60065	0.01420
5822.67198	0.01422
5820.74330	0.01424
5818.81463	0.01427
5816.88595	0.01429
5814.95727	0.01433
5813.02860	0.01436
5811.09992	0.01439
5809.17125	0.01442
5807.24257	0.01445
5805.31390	0.01448
5803.38522	0.01451
5801.45654	0.01455
5799.52787	0.01457
5797.59919	0.01460
5795.67052	0.01462
5793.74184	0.01464
5791.81317	0.01466
5789.88449	0.01469
5787.95581	0.01472
5786.02714	0.01475
5784.09846	0.01476
5782.16979	0.01481
5780.24111	0.01486
5778.31244	0.01490
5776.38376	0.01490
5774.45508	0.01492
5772.52641	0.01497
5770.59773	0.01501
5768.66906	0.01503
5766.74038	0.01505
5764.81171	0.01510
5762.88303	0.01515
5760.95435	0.01518
5759.02568	0.01519
5757.09700	0.01522
5755.16833	0.01525
5753.23965	0.01529
5751.31098	0.01532
5749.38230	0.01536
5747.45362	0.01540
5745.52495	0.01542
5743.59627	0.01544
5741.66760	0.01546
5739.73892	0.01549
5737.81025	0.01551
5735.88157	0.01554
5733.95289	0.01557
5732.02422	0.01559
5730.09554	0.01563
5728.16687	0.01567
5726.23819	0.01570
5724.30952	0.01573
5722.38084	0.01577
5720.45216	0.01580
5718.52349	0.01582
5716.59481	0.01586
5714.66614	0.01591
5712.73746	0.01595
5710.80879	0.01597
5708.88011	0.01598
5706.95143	0.01602
5705.02276	0.01607
5703.09408	0.01611
5701.16541	0.01613
5699.23673	0.01614
5697.30806	0.01616
5695.37938	0.01619
5693.45070	0.01623
5691.52203	0.01626
5689.59335	0.01630
5687.66468	0.01634
5685.73600	0.01637
5683.80733	0.01640
5681.87865	0.01643
5679.94997	0.01646
5678.02130	0.01649
5676.09262	0.01652
5674.16395	0.01657
5672.23527	0.01662
5670.30660	0.01666
5668.37792	0.01670
5666.44924	0.01673
5664.52057	0.01676
5662.59189	0.01679
5660.66322	0.01681
5658.73454	0.01684
5656.80587	0.01687
5654.87719	0.01690
5652.94851	0.01693
5651.01984	0.01696
5649.09116	0.01699
5647.16249	0.01703
5645.23381	0.01707
5643.30514	0.01710
5641.37646	0.01713
5639.44778	0.01717
5637.51911	0.01722
5635.59043	0.01725
5633.66176	0.01728
5631.73308	0.01731
5629.80441	0.01735
5627.87573	0.01738
5625.94705	0.01740
5624.01838	0.01742
5622.08970	0.01745
5620.16103	0.01748
5618.23235	0.01752
5616.30368	0.01756
5614.37500	0.01760
5612.44632	0.01765
5610.51765	0.01768
5608.58897	0.01771
5606.66030	0.01772
5604.73162	0.01774
5602.80295	0.01778
5600.87427	0.01783
5598.94559	0.01788
5597.01692	0.01792
5595.08824	0.01795
5593.15957	0.01798
5591.23089	0.01802
5589.30222	0.01806
5587.37354	0.01808
5585.44486	0.01810
5583.51619	0.01813
5581.58751	0.01817
5579.65884	0.01821
5577.73016	0.01825
5575.80149	0.01827
5573.87281	0.01829
5571.94413	0.01833
5570.01546	0.01838
5568.08678	0.01842
5566.15811	0.01844
5564.22943	0.01847
5562.30076	0.01850
5560.37208	0.01854
5558.44340	0.01857
5556.51473	0.01862
5554.58605	0.01866
5552.65738	0.01871
5550.72870	0.01875
5548.80003	0.01878
5546.87135	0.01881
5544.94267	0.01883
5543.01400	0.01887
5541.08532	0.01892
5539.15665	0.01897
5537.22797	0.01902
5535.29930	0.01906
5533.37062	0.01909
5531.44194	0.01910
5529.51327	0.01911
5527.58459	0.01916
5525.65592	0.01922
5523.72724	0.01926
5521.79857	0.01931
5519.86989	0.01934
5517.94121	0.01934
5516.01254	0.01936
5514.08386	0.01941
5512.15519	0.01946
5510.22651	0.01948
5508.29784	0.01953
5506.36916	0.01959
5504.44048	0.01964
5502.51181	0.01968
5500.58313	0.01971
5498.65446	0.01974
5496.72578	0.01977
5494.79711	0.01980
5492.86843	0.01984
5490.93975	0.01988
5489.01108	0.01991
5487.08240	0.01994
5485.15373	0.01997
5483.22505	0.02001
5481.29638	0.02005
5479.36770	0.02008
5477.43902	0.02011
5475.51035	0.02014
5473.58167	0.02020
5471.65300	0.02024
5469.72432	0.02027
5467.79565	0.02031
5465.86697	0.02035
5463.93829	0.02038
5462.00962	0.02042
5460.08094	0.02046
5458.15227	0.02052
5456.22359	0.02056
5454.29492	0.02059
5452.36624	0.02062
5450.43756	0.02063
5448.50889	0.02064
5446.58021	0.02067
5444.65154	0.02073
5442.72286	0.02079
5440.79419	0.02084
5438.86551	0.02088
5436.93683	0.02090
5435.00816	0.02092
5433.07948	0.02096
5431.15081	0.02099
5429.22213	0.02104
5427.29346	0.02110
5425.36478	0.02117
5423.43610	0.02121
5421.50743	0.02123
5419.57875	0.02126
5417.65008	0.02130
5415.72140	0.02133
5413.79273	0.02137
5411.86405	0.02141
5409.93537	0.02146
5408.00670	0.02151
5406.07802	0.02157
5404.14935	0.02162
5402.22067	0.02167
5400.29200	0.02170
5398.36332	0.02173
5396.43464	0.02175
5394.50597	0.02180
5392.57729	0.02186
5390.64862	0.02191
5388.71994	0.02194
5386.79127	0.02195
5384.86259	0.02199
5382.93391	0.02205
5381.00524	0.02210
5379.07656	0.02212
5377.14789	0.02213
5375.21921	0.02218
5373.29054	0.02222
5371.36186	0.02225
5369.43318	0.02229
5367.50451	0.02233
5365.57583	0.02237
5363.64716	0.02243
5361.71848	0.02248
5359.78981	0.02252
5357.86113	0.02254
5355.93245	0.02256
5354.00378	0.02259
5352.07510	0.02264
5350.14643	0.02269
5348.21775	0.02273
5346.28908	0.02275
5344.36040	0.02279
5342.43172	0.02285
5340.50305	0.02289
5338.57437	0.02293
5336.64570	0.02298
5334.71702	0.02303
5332.78835	0.02308
5330.85967	0.02312
5328.93099	0.02315
5327.00232	0.02318
5325.07364	0.02324
5323.14497	0.02332
5321.21629	0.02336
5319.28762	0.02338
5317.35894	0.02340
5315.43026	0.02343
5313.50159	0.02347
5311.57291	0.02351
5309.64424	0.02355
5307.71556	0.02359
5305.78689	0.02364
5303.85821	0.02368
5301.92953	0.02372
5300.00086	0.02377
5298.07218	0.02383
5296.14351	0.02388
5294.21483	0.02392
5292.28616	0.02396
5290.35748	0.02399
5288.42880	0.02404
5286.50013	0.02408
5284.57145	0.02413
5282.64278	0.02418
5280.71410	0.02423
5278.78543	0.02427
5276.85675	0.02430
5274.92807	0.02434
5272.99940	0.02439
5271.07072	0.02443
5269.14205	0.02448
5267.21337	0.02452
5265.28470	0.02453
5263.35602	0.02454
5261.42734	0.02458
5259.49867	0.02464
5257.56999	0.02470
5255.64132	0.02475
5253.71264	0.02479
5251.78397	0.02484
5249.85529	0.02486
5247.92661	0.02488
5245.99794	0.02492
5244.06926	0.02499
5242.14059	0.02507
5240.21191	0.02515
5238.28324	0.02520
5236.35456	0.02523
5234.42588	0.02524
5232.49721	0.02525
5230.56853	0.02528
5228.63986	0.02533
5226.71118	0.02537
5224.78251	0.02541
5222.85383	0.02547
5220.92515	0.02554
5218.99648	0.02559
5217.06780	0.02564
5215.13913	0.02570
5213.21045	0.02574
5211.28178	0.02576
5209.35310	0.02578
5207.42442	0.02579
5205.49575	0.02584
5203.56707	0.02593
5201.63840	0.02601
5199.70972	0.02604
5197.78105	0.02604
5195.85237	0.02608
5193.92369	0.02614
5191.99502	0.02621
5190.06634	0.02626
5188.13767	0.02629
5186.20899	0.02633
5184.28032	0.02639
5182.35164	0.02645
5180.42296	0.02651
5178.49429	0.02655
5176.56561	0.02658
5174.63694	0.02662
5172.70826	0.02666
5170.77959	0.02669
5168.85091	0.02675
5166.92223	0.02681
5164.99356	0.02686
5163.06488	0.02689
5161.13621	0.02692
5159.20753	0.02697
5157.27886	0.02701
5155.35018	0.02704
5153.42150	0.02708
5151.49283	0.02715
5149.56415	0.02722
5147.63548	0.02727
5145.70680	0.02730
5143.77813	0.02732
5141.84945	0.02737
5139.92077	0.02742
5137.99210	0.02747
5136.06342	0.02751
5134.13475	0.02756
5132.20607	0.02759
5130.27740	0.02762
5128.34872	0.02766
5126.42004	0.02773
5124.49137	0.02782
5122.56269	0.02788
5120.63402	0.02791
5118.70534	0.02793
5116.77667	0.02797
5114.84799	0.02804
5112.91931	0.02810
5110.99064	0.02815
5109.06196	0.02820
5107.13329	0.02823
5105.20461	0.02825
5103.27594	0.02828
5101.34726	0.02832
5099.41858	0.02836
5097.48991	0.02842
5095.56123	0.02850
5093.63256	0.02856
5091.70388	0.02860
5089.77521	0.02865
5087.84653	0.02871
5085.91785	0.02874
5083.98918	0.02878
5082.06050	0.02884
5080.13183	0.02889
5078.20315	0.02892
5076.27448	0.02895
5074.34580	0.02900
5072.41712	0.02905
5070.48845	0.02909
5068.55977	0.02913
5066.63110	0.02920
5064.70242	0.02926
5062.77375	0.02929
5060.84507	0.02930
5058.91639	0.02933
5056.98772	0.02939
5055.05904	0.02945
5053.13037	0.02950
5051.20169	0.02954
5049.27302	0.02959
5047.34434	0.02967
5045.41566	0.02973
5043.48699	0.02977
5041.55831	0.02982
5039.62964	0.02988
5037.70096	0.02995
5035.77229	0.03000
5033.84361	0.03006
5031.91493	0.03010
5029.98626	0.03014
5028.05758	0.03017
5026.12891	0.03021
5024.20023	0.03026
5022.27156	0.03032
5020.34288	0.03039
5018.41420	0.03044
5016.48553	0.03048
5014.55685	0.03050
5012.62818	0.03052
5010.69950	0.03057
5008.77083	0.03064
5006.84215	0.03070
5004.91347	0.03074
5002.98480	0.03079
5001.05612	0.03083
4999.12745	0.03089
4997.19877	0.03095
4995.27010	0.03103
4993.34142	0.03109
4991.41274	0.03113
4989.48407	0.03117
4987.55539	0.03122
4985.62672	0.03126
4983.69804	0.03130
4981.76937	0.03134
4979.84069	0.03139
4977.91201	0.03145
4975.98334	0.03151
4974.05466	0.03157
4972.12599	0.03162
4970.19731	0.03168
4968.26864	0.03173
4966.33996	0.03177
4964.41128	0.03180
4962.48261	0.03186
4960.55393	0.03192
4958.62526	0.03196
4956.69658	0.03199
4954.76791	0.03205
4952.83923	0.03213
4950.91055	0.03221
4948.98188	0.03226
4947.05320	0.03231
4945.12453	0.03236
4943.19585	0.03241
4941.26718	0.03246
4939.33850	0.03249
4937.40982	0.03251
4935.48115	0.03255
4933.55247	0.03263
4931.62380	0.03271
4929.69512	0.03276
4927.76645	0.03279
4925.83777	0.03283
4923.90909	0.03288
4921.98042	0.03293
4920.05174	0.03297
4918.12307	0.03303
4916.19439	0.03309
4914.26572	0.03316
4912.33704	0.03321
4910.40836	0.03327
4908.47969	0.03332
4906.55101	0.03335
4904.62234	0.03338
4902.69366	0.03341
4900.76499	0.03346
4898.83631	0.03352
4896.90763	0.03360
4894.97896	0.03365
4893.05028	0.03369
4891.12161	0.03374
4889.19293	0.03381
4887.26426	0.03388
4885.33558	0.03393
4883.40690	0.03396
4881.47823	0.03401
4879.54955	0.03408
4877.62088	0.03414
4875.69220	0.03420
4873.76353	0.03425
4871.83485	0.03430
4869.90617	0.03435
4867.97750	0.03442
4866.04882	0.03448
4864.12015	0.03452
4862.19147	0.03458
4860.26280	0.03464
4858.33412	0.03469
4856.40544	0.03473
4854.47677	0.03479
4852.54809	0.03485
4850.61942	0.03488
4848.69074	0.03491
4846.76207	0.03496
4844.83339	0.03505
4842.90471	0.03512
4840.97604	0.03516
4839.04736	0.03520
4837.11869	0.03526
4835.19001	0.03532
4833.26134	0.03538
4831.33266	0.03544
4829.40398	0.03551
4827.47531	0.03556
4825.54663	0.03561
4823.61796	0.03566
4821.68928	0.03573
4819.76061	0.03579
4817.83193	0.03584
4815.90325	0.03588
4813.97458	0.03594
4812.04590	0.03601
4810.11723	0.03609
4808.18855	0.03615
4806.25988	0.03620
4804.33120	0.03625
4802.40252	0.03631
4800.47385	0.03636
4798.54517	0.03640
4796.61650	0.03646
4794.68782	0.03653
4792.75915	0.03660
4790.83047	0.03664
4788.90179	0.03669
4786.97312	0.03676
4785.04444	0.03682
4783.11577	0.03688
4781.18709	0.03693
4779.25842	0.03699
4777.32974	0.03706
4775.40106	0.03712
4773.47239	0.03717
4771.54371	0.03722
4769.61504	0.03729
4767.68636	0.03737
4765.75769	0.03743
4763.82901	0.03748
4761.90033	0.03752
4759.97166	0.03757
4758.04298	0.03763
4756.11431	0.03770
4754.18563	0.03777
4752.25696	0.03783
4750.32828	0.03788
4748.39960	0.03795
4746.47093	0.03801
4744.54225	0.03807
4742.61358	0.03811
4740.68490	0.03816
4738.75623	0.03823
4736.82755	0.03829
4734.89887	0.03835
4732.97020	0.03839
4731.04152	0.03844
4729.11285	0.03850
4727.18417	0.03858
4725.25550	0.03866
4723.32682	0.03872
4721.39814	0.03877
4719.46947	0.03882
4717.54079	0.03889
4715.61212	0.03895
4713.68344	0.03899
4711.75477	0.03905
4709.82609	0.03912
4707.89741	0.03920
4705.96874	0.03925
4704.04006	0.03929
4702.11139	0.03935
4700.18271	0.03943
4698.25404	0.03952
4696.32536	0.03960
4694.39668	0.03968
4692.46801	0.03973
4690.53933	0.03977
4688.61066	0.03980
4686.68198	0.03985
4684.75331	0.03992
4682.82463	0.04000
4680.89595	0.04007
4678.96728	0.04012
4677.03860	0.04018
4675.10993	0.04025
4673.18125	0.04033
4671.25258	0.04040
4669.32390	0.04046
4667.39522	0.04052
4665.46655	0.04059
4663.53787	0.04067
4661.60920	0.04073
4659.68052	0.04078
4657.75185	0.04084
4655.82317	0.04090
4653.89449	0.04096
4651.96582	0.04102
4650.03714	0.04107
4648.10847	0.04113
4646.17979	0.04120
4644.25112	0.04126
4642.32244	0.04130
4640.39376	0.04136
4638.46509	0.04144
4636.53641	0.04152
4634.60774	0.04160
4632.67906	0.04167
4630.75039	0.04176
4628.82171	0.04184
4626.89303	0.04191
4624.96436	0.04197
4623.03568	0.04204
4621.10701	0.04214
4619.17833	0.04221
4617.24966	0.04225
4615.32098	0.04230
4613.39230	0.04237
4611.46363	0.04245
4609.53495	0.04253
4607.60628	0.04260
4605.67760	0.04267
4603.74893	0.04274
4601.82025	0.04281
4599.89157	0.04286
4597.96290	0.04294
4596.03422	0.04303
4594.10555	0.04310
4592.17687	0.04316
4590.24820	0.04322
4588.31952	0.04329
4586.39084	0.04336
4584.46217	0.04342
4582.53349	0.04350
4580.60482	0.04358
4578.67614	0.04365
4576.74747	0.04369
4574.81879	0.04374
4572.89011	0.04382
4570.96144	0.04391
4569.03276	0.04399
4567.10409	0.04404
4565.17541	0.04411
4563.24674	0.04419
4561.31806	0.04428
4559.38938	0.04436
4557.46071	0.04443
4555.53203	0.04450
4553.60336	0.04458
4551.67468	0.04469
4549.74601	0.04477
4547.81733	0.04482
4545.88865	0.04486
4543.95998	0.04492
4542.03130	0.04500
4540.10263	0.04507
4538.17395	0.04513
4536.24528	0.04520
4534.31660	0.04528
4532.38792	0.04537
4530.45925	0.04546
4528.53057	0.04555
4526.60190	0.04562
4524.67322	0.04567
4522.74455	0.04573
4520.81587	0.04582
4518.88719	0.04593
4516.95852	0.04603
4515.02984	0.04611
4513.10117	0.04616
4511.17249	0.04620
4509.24382	0.04627
4507.31514	0.04636
4505.38646	0.04645
4503.45779	0.04652
4501.52911	0.04659
4499.60044	0.04667
4497.67176	0.04675
4495.74309	0.04681
4493.81441	0.04688
4491.88573	0.04696
4489.95706	0.04704
4488.02838	0.04710
4486.09971	0.04718
4484.17103	0.04727
4482.24236	0.04737
4480.31368	0.04747
4478.38500	0.04757
4476.45633	0.04766
4474.52765	0.04774
4472.59898	0.04781
4470.67030	0.04791
4468.74163	0.04802
4466.81295	0.04811
4464.88427	0.04816
4462.95560	0.04820
4461.02692	0.04825
4459.09825	0.04831
4457.16957	0.04840
4455.24090	0.04849
4453.31222	0.04859
4451.38354	0.04869
4449.45487	0.04877
4447.52619	0.04885
4445.59752	0.04892
4443.66884	0.04900
4441.74017	0.04910
4439.81149	0.04920
4437.88281	0.04928
4435.95414	0.04934
4434.02546	0.04939
4432.09679	0.04945
4430.16811	0.04955
4428.23944	0.04967
4426.31076	0.04978
4424.38208	0.04985
4422.45341	0.04993
4420.52473	0.05004
4418.59606	0.05013
4416.66738	0.05021
4414.73871	0.05030
4412.81003	0.05039
4410.88135	0.05046
4408.95268	0.05054
4407.02400	0.05063
4405.09533	0.05073
4403.16665	0.05081
4401.23798	0.05089
4399.30930	0.05099
4397.38062	0.05111
4395.45195	0.05119
4393.52327	0.05124
4391.59460	0.05132
4389.66592	0.05143
4387.73725	0.05152
4385.80857	0.05161
4383.87989	0.05168
4381.95122	0.05175
4380.02254	0.05184
4378.09387	0.05196
4376.16519	0.05206
4374.23652	0.05213
4372.30784	0.05222
4370.37916	0.05232
4368.45049	0.05242
4366.52181	0.05252
4364.59314	0.05261
4362.66446	0.05270
4360.73579	0.05279
4358.80711	0.05288
4356.87843	0.05298
4354.94976	0.05308
4353.02108	0.05318
4351.09241	0.05329
4349.16373	0.05338
4347.23506	0.05346
4345.30638	0.05354
4343.37770	0.05365
4341.44903	0.05376
4339.52035	0.05385
4337.59168	0.05393
4335.66300	0.05401
4333.73433	0.05408
4331.80565	0.05416
4329.87697	0.05426
4327.94830	0.05438
4326.01962	0.05449
4324.09095	0.05458
4322.16227	0.05467
4320.23360	0.05476
4318.30492	0.05486
4316.37624	0.05498
4314.44757	0.05509
4312.51889	0.05520
4310.59022	0.05529
4308.66154	0.05538
4306.73287	0.05550
4304.80419	0.05562
4302.87551	0.05572
4300.94684	0.05579
4299.01816	0.05588
4297.08949	0.05599
4295.16081	0.05610
4293.23214	0.05619
4291.30346	0.05628
4289.37478	0.05639
4287.44611	0.05651
4285.51743	0.05662
4283.58876	0.05674
4281.66008	0.05686
4279.73141	0.05697
4277.80273	0.05705
4275.87405	0.05712
4273.94538	0.05723
4272.01670	0.05735
4270.08803	0.05746
4268.15935	0.05756
4266.23068	0.05765
4264.30200	0.05773
4262.37332	0.05781
4260.44465	0.05792
4258.51597	0.05805
4256.58730	0.05818
4254.65862	0.05830
4252.72995	0.05840
4250.80127	0.05850
4248.87259	0.05861
4246.94392	0.05872
4245.01524	0.05883
4243.08657	0.05892
4241.15789	0.05899
4239.22922	0.05909
4237.30054	0.05920
4235.37186	0.05932
4233.44319	0.05943
4231.51451	0.05952
4229.58584	0.05961
4227.65716	0.05973
4225.72849	0.05986
4223.79981	0.05999
4221.87113	0.06009
4219.94246	0.06017
4218.01378	0.06024
4216.08511	0.06035
4214.15643	0.06048
4212.22776	0.06059
4210.29908	0.06070
4208.37040	0.06080
4206.44173	0.06091
4204.51305	0.06102
4202.58438	0.06114
4200.65570	0.06128
4198.72703	0.06140
4196.79835	0.06152
4194.86968	0.06165
4192.94100	0.06178
4191.01232	0.06188
4189.08365	0.06196
4187.15497	0.06206
4185.22630	0.06218
4183.29762	0.06230
4181.36895	0.06244
4179.44027	0.06258
4177.51159	0.06269
4175.58292	0.06277
4173.65424	0.06286
4171.72557	0.06298
4169.79689	0.06312
4167.86822	0.06327
4165.93954	0.06339
4164.01086	0.06349
4162.08219	0.06361
4160.15351	0.06372
4158.22484	0.06383
4156.29616	0.06394
4154.36749	0.06407
4152.43881	0.06420
4150.51013	0.06433
4148.58146	0.06446
4146.65278	0.06459
4144.72411	0.06472
4142.79543	0.06487
4140.86676	0.06498
4138.93808	0.06506
4137.00940	0.06515
4135.08073	0.06525
4133.15205	0.06538
4131.22338	0.06553
4129.29470	0.06568
4127.36603	0.06580
4125.43735	0.06592
4123.50867	0.06604
4121.58000	0.06616
4119.65132	0.06627
4117.72265	0.06638
4115.79397	0.06649
4113.86530	0.06661
4111.93662	0.06675
4110.00794	0.06689
4108.07927	0.06701
4106.15059	0.06711
4104.22192	0.06723
4102.29324	0.06735
4100.36457	0.06747
4098.43589	0.06759
4096.50721	0.06774
4094.57854	0.06788
4092.64986	0.06800
4090.72119	0.06813
4088.79251	0.06826
4086.86384	0.06837
4084.93516	0.06848
4083.00648	0.06861
4081.07781	0.06875
4079.14913	0.06889
4077.22046	0.06905
4075.29178	0.06918
4073.36311	0.06928
4071.43443	0.06939
4069.50575	0.06953
4067.57708	0.06969
4065.64840	0.06985
4063.71973	0.06999
4061.79105	0.07011
4059.86238	0.07024
4057.93370	0.07038
4056.00502	0.07051
4054.07635	0.07065
4052.14767	0.07078
4050.21900	0.07091
4048.29032	0.07103
4046.36165	0.07115
4044.43297	0.07128
4042.50429	0.07141
4040.57562	0.07155
4038.64694	0.07169
4036.71827	0.07181
4034.78959	0.07193
4032.86092	0.07207
4030.93224	0.07221
4029.00356	0.07236
4027.07489	0.07250
4025.14621	0.07264
4023.21754	0.07277
4021.28886	0.07292
4019.36019	0.07305
4017.43151	0.07317
4015.50283	0.07329
4013.57416	0.07343
4011.64548	0.07357
4009.71681	0.07370
4007.78813	0.07382
4005.85946	0.07397
4003.93078	0.07414
4002.00210	0.07430
4000.07343	0.07445
3998.14475	0.07457
3996.21608	0.07468
3994.28740	0.07479
3992.35873	0.07493
3990.43005	0.07509
3988.50137	0.07525
3986.57270	0.07540
3984.64402	0.07554
3982.71535	0.07568
3980.78667	0.07582
3978.85800	0.07595
3976.92932	0.07607
3975.00064	0.07620
3973.07197	0.07635
3971.14329	0.07651
3969.21462	0.07667
3967.28594	0.07682
3965.35727	0.07698
3963.42859	0.07713
3961.49991	0.07728
3959.57124	0.07740
3957.64256	0.07752
3955.71389	0.07765
3953.78521	0.07779
3951.85654	0.07792
3949.92786	0.07804
3947.99918	0.07818
3946.07051	0.07832
3944.14183	0.07843
3942.21316	0.07856
3940.28448	0.07876
3938.35581	0.07897
3936.42713	0.07913
3934.49845	0.07922
3932.56978	0.07930
3930.64110	0.07945
3928.71243	0.07964
3926.78375	0.07976
3924.85508	0.07986
3922.92640	0.08000
3920.99772	0.08012
3919.06905	0.08019
3917.14037	0.08034
3915.21170	0.08061
3913.28302	0.08089
3911.35435	0.08107
3909.42567	0.08117
3907.49699	0.08116
3905.56832	0.08105
3903.63964	0.08102
3901.71097	0.08117
3899.78229	0.08145
3897.85362	0.08184
3895.92494	0.08214
3893.99626	0.08222
3892.06759	0.08224
3890.13891	0.08240
3888.21024	0.08253
3886.28156	0.08258
3884.35289	0.08275
3882.42421	0.08299
3880.49553	0.08318
3878.56686	0.08344
3876.63818	0.08361
3874.70951	0.08366
3872.78083	0.08369
3870.85216	0.08376
3868.92348	0.08396
3866.99480	0.08421
3865.06613	0.08435
3863.13745	0.08453
3861.20878	0.08483
3859.28010	0.08505
3857.35143	0.08494
3855.42275	0.08453
3853.49407	0.08445
3851.56540	0.08500
3849.63672	0.08568
3847.70805	0.08605
3845.77937	0.08615
3843.85070	0.08617
3841.92202	0.08619
3839.99334	0.08624
3838.06467	0.08637
3836.13599	0.08660
3834.20732	0.08686
3832.27864	0.08711
3830.34997	0.08738
3828.42129	0.08760
3826.49261	0.08774
3824.56394	0.08779
3822.63526	0.08773
3820.70659	0.08780
3818.77791	0.08805
3816.84924	0.08827
3814.92056	0.08855
3812.99188	0.08892
3811.06321	0.08916
3809.13453	0.08918
3807.20586	0.08921
3805.27718	0.08935
3803.34851	0.08945
3801.41983	0.08955
3799.49115	0.08981
3797.56248	0.09008
3795.63380	0.09036
3793.70513	0.09068
3791.77645	0.09093
3789.84778	0.09109
3787.91910	0.09120
3785.99042	0.09130
3784.06175	0.09145
3782.13307	0.09158
3780.20440	0.09169
3778.27572	0.09191
3776.34705	0.09220
3774.41837	0.09239
3772.48969	0.09243
3770.56102	0.09245
3768.63234	0.09257
3766.70367	0.09278
3764.77499	0.09301
3762.84632	0.09320
3760.91764	0.09327
3758.98896	0.09336
3757.06029	0.09357
3755.13161	0.09367
3753.20294	0.09353
3751.27426	0.09341
3749.34559	0.09357
3747.41691	0.09371
3745.48823	0.09367
3743.55956	0.09397
3741.63088	0.09462
3739.70221	0.09494
3737.77353	0.09482
3735.84486	0.09474
3733.91618	0.09501
3731.98750	0.09550
3730.05883	0.09593
3728.13015	0.09614
3726.20148	0.09625
3724.27280	0.09642
3722.34413	0.09664
3720.41545	0.09690
3718.48677	0.09718
3716.55810	0.09735
3714.62942	0.09731
3712.70075	0.09718
3710.77207	0.09729
3708.84340	0.09769
3706.91472	0.09812
3704.98604	0.09835
3703.05737	0.09841
3701.12869	0.09856
3699.20002	0.09885
3697.27134	0.09911
3695.34267	0.09925
3693.41399	0.09926
3691.48531	0.09917
3689.55664	0.09920
3687.62796	0.09951
3685.69929	0.09995
3683.77061	0.10025
3681.84194	0.10036
3679.91326	0.10037
3677.98458	0.10024
3676.05591	0.10015
3674.12723	0.10035
3672.19856	0.10062
3670.26988	0.10080
3668.34121	0.10117
3666.41253	0.10164
3664.48385	0.10196
3662.55518	0.10216
3660.62650	0.10228
3658.69783	0.10228
3656.76915	0.10227
3654.84048	0.10239
3652.91180	0.10234
3650.98312	0.10203
3649.05445	0.10184
3647.12577	0.10210
3645.19710	0.10268
3643.26842	0.10323
3641.33975	0.10359
3639.41107	0.10379
3637.48239	0.10392
3635.55372	0.10403
3633.62504	0.10409
3631.69637	0.10393
3629.76769	0.10373
3627.83902	0.10396
3625.91034	0.10452
3623.98166	0.10489
3622.05299	0.10492
3620.12431	0.10482
3618.19564	0.10486
3616.26696	0.10503
3614.33829	0.10516
3612.40961	0.10524
3610.48093	0.10533
3608.55226	0.10550
3606.62358	0.10581
3604.69491	0.10613
3602.76623	0.10631
3600.83756	0.10638
3598.90888	0.10644
3596.98020	0.10651
3595.05153	0.10663
3593.12285	0.10680
3591.19418	0.10687
3589.26550	0.10680
3587.33683	0.10684
3585.40815	0.10716
3583.47947	0.10752
3581.55080	0.10775
3579.62212	0.10790
3577.69345	0.10806
3575.76477	0.10822
3573.83610	0.10834
3571.90742	0.10841
3569.97874	0.10834
3568.05007	0.10826
3566.12139	0.10844
3564.19272	0.10881
3562.26404	0.10911
3560.33537	0.10932
3558.40669	0.10952
3556.47801	0.10968
3554.54934	0.10977
3552.62066	0.10984
3550.69199	0.10993
3548.76331	0.11000
3546.83464	0.11005
3544.90596	0.11017
3542.97728	0.11036
3541.04861	0.11057
3539.11993	0.11072
3537.19126	0.11080
3535.26258	0.11090
3533.33391	0.11101
3531.40523	0.11105
3529.47655	0.11107
3527.54788	0.11114
3525.61920	0.11125
3523.69053	0.11133
3521.76185	0.11141
3519.83318	0.11152
3517.90450	0.11164
3515.97582	0.11173
3514.04715	0.11180
3512.11847	0.11186
3510.18980	0.11192
3508.26112	0.11199
3506.33245	0.11203
3504.40377	0.11203
3502.47509	0.11207
3500.54642	0.11219
3498.61774	0.11228
3496.68907	0.11231
3494.76039	0.11234
3492.83172	0.11238
3490.90304	0.11241
3488.97436	0.11247
3487.04569	0.11254
3485.11701	0.11261
3483.18834	0.11267
3481.25966	0.11275
3479.33099	0.11287
3477.40231	0.11300
3475.47363	0.11312
3473.54496	0.11328
3471.61628	0.11346
3469.68761	0.11361
3467.75893	0.11375
3465.83026	0.11392
3463.90158	0.11411
3461.97290	0.11431
3460.04423	0.11453
3458.11555	0.11473
3456.18688	0.11494
3454.25820	0.11513
3452.32953	0.11529
3450.40085	0.11543
3448.47217	0.11555
3446.54350	0.11570
3444.61482	0.11590
3442.68615	0.11610
3440.75747	0.11633
3438.82880	0.11661
3436.90012	0.11691
3434.97144	0.11722
3433.04277	0.11757
3431.11409	0.11794
3429.18542	0.11831
3427.25674	0.11868
3425.32807	0.11903
3423.39939	0.11937
3421.47071	0.11971
3419.54204	0.12008
3417.61336	0.12043
3415.68469	0.12073
3413.75601	0.12103
3411.82734	0.12132
3409.89866	0.12155
3407.96998	0.12175
3406.04131	0.12198
3404.11263	0.12222
3402.18396	0.12248
3400.25528	0.12275
3398.32661	0.12301
3396.39793	0.12324
3394.46925	0.12348
3392.54058	0.12375
3390.61190	0.12404
3388.68323	0.12431
3386.75455	0.12457
3384.82588	0.12482
3382.89720	0.12505
3380.96852	0.12528
3379.03985	0.12551
3377.11117	0.12576
3375.18250	0.12600
3373.25382	0.12623
3371.32515	0.12647
3369.39647	0.12670
3367.46779	0.12691
3365.53912	0.12714
3363.61044	0.12737
3361.68177	0.12758
3359.75309	0.12778
3357.82442	0.12802
3355.89574	0.12827
3353.96706	0.12849
3352.03839	0.12871
3350.10971	0.12894
3348.18104	0.12917
3346.25236	0.12941
3344.32369	0.12967
3342.39501	0.12993
3340.46633	0.13015
3338.53766	0.13035
3336.60898	0.13054
3334.68031	0.13076
3332.75163	0.13101
3330.82296	0.13125
3328.89428	0.13147
3326.96560	0.13169
3325.03693	0.13193
3323.10825	0.13216
3321.17958	0.13238
3319.25090	0.13262
3317.32223	0.13287
3315.39355	0.13312
3313.46487	0.13337
3311.53620	0.13361
3309.60752	0.13383
3307.67885	0.13404
3305.75017	0.13427
3303.82150	0.13455
3301.89282	0.13485
3299.96414	0.13510
3298.03547	0.13533
3296.10679	0.13555
3294.17812	0.13577
3292.24944	0.13600
3290.32077	0.13627
3288.39209	0.13654
3286.46341	0.13677
3284.53474	0.13697
3282.60606	0.13721
3280.67739	0.13747
3278.74871	0.13773
3276.82004	0.13799
3274.89136	0.13822
3272.96268	0.13845
3271.03401	0.13872
3269.10533	0.13901
3267.17666	0.13925
3265.24798	0.13948
3263.31931	0.13974
3261.39063	0.14000
3259.46195	0.14025
3257.53328	0.14049
3255.60460	0.14076
3253.67593	0.14104
3251.74725	0.14131
3249.81858	0.14154
3247.88990	0.14177
3245.96122	0.14202
3244.03255	0.14225
3242.10387	0.14248
3240.17520	0.14270
3238.24652	0.14295
3236.31785	0.14322
3234.38917	0.14349
3232.46049	0.14374
3230.53182	0.14399
3228.60314	0.14423
3226.67447	0.14449
3224.74579	0.14476
3222.81712	0.14501
3220.88844	0.14526
3218.95976	0.14553
3217.03109	0.14580
3215.10241	0.14604
3213.17374	0.14626
3211.24506	0.14649
3209.31639	0.14674
3207.38771	0.14700
3205.45903	0.14726
3203.53036	0.14750
3201.60168	0.14777
3199.67301	0.14807
3197.74433	0.14837
3195.81566	0.14866
3193.88698	0.14894
3191.95830	0.14922
3190.02963	0.14948
3188.10095	0.14972
3186.17228	0.14996
3184.24360	0.15023
3182.31493	0.15049
3180.38625	0.15074
3178.45757	0.15101
3176.52890	0.15127
3174.60022	0.15152
3172.67155	0.15178
3170.74287	0.15205
3168.81420	0.15233
3166.88552	0.15260
3164.95684	0.15288
3163.02817	0.15315
3161.09949	0.15339
3159.17082	0.15362
3157.24214	0.15388
3155.31347	0.15415
3153.38479	0.15444
3151.45611	0.15471
3149.52744	0.15498
3147.59876	0.15525
3145.67009	0.15550
3143.74141	0.15574
3141.81274	0.15596
3139.88406	0.15620
3137.95538	0.15647
3136.02671	0.15673
3134.09803	0.15698
3132.16936	0.15724
3130.24068	0.15750
3128.31201	0.15777
3126.38333	0.15803
3124.45465	0.15830
3122.52598	0.15855
3120.59730	0.15878
3118.66863	0.15902
3116.73995	0.15930
3114.81128	0.15959
3112.88260	0.15983
3110.95392	0.16003
3109.02525	0.16026
3107.09657	0.16055
3105.16790	0.16085
3103.23922	0.16113
3101.31055	0.16138
3099.38187	0.16163
3097.45319	0.16188
3095.52452	0.16215
3093.59584	0.16245
3091.66717	0.16275
3089.73849	0.16299
3087.80982	0.16320
3085.88114	0.16344
3083.95246	0.16373
3082.02379	0.16401
3080.09511	0.16424
3078.16644	0.16447
3076.23776	0.16472
3074.30909	0.16500
3072.38041	0.16527
3070.45173	0.16553
3068.52306	0.16578
3066.59438	0.16602
3064.66571	0.16628
3062.73703	0.16655
3060.80836	0.16682
3058.87968	0.16708
3056.95100	0.16737
3055.02233	0.16767
3053.09365	0.16794
3051.16498	0.16817
3049.23630	0.16839
3047.30763	0.16863
3045.37895	0.16890
3043.45027	0.16916
3041.52160	0.16943
3039.59292	0.16967
3037.66425	0.16990
3035.73557	0.17013
3033.80690	0.17036
3031.87822	0.17060
3029.94954	0.17086
3028.02087	0.17112
3026.09219	0.17140
3024.16352	0.17169
3022.23484	0.17198
3020.30617	0.17227
3018.37749	0.17253
3016.44881	0.17278
3014.52014	0.17304
3012.59146	0.17329
3010.66279	0.17354
3008.73411	0.17379
3006.80544	0.17404
3004.87676	0.17430
3002.94808	0.17458
3001.01941	0.17485
2999.09073	0.17507
2997.16206	0.17529
2995.23338	0.17553
2993.30471	0.17578
2991.37603	0.17603
2989.44735	0.17627
2987.51868	0.17645
2985.59000	0.17658
2983.66133	0.17672
2981.73265	0.17689
2979.80398	0.17703
2977.87530	0.17713
2975.94662	0.17722
2974.01795	0.17724
2972.08927	0.17721
2970.16060	0.17715
2968.23192	0.17710
2966.30325	0.17710
2964.37457	0.17719
2962.44589	0.17736
2960.51722	0.17762
2958.58854	0.17794
2956.65987	0.17828
2954.73119	0.17864
2952.80252	0.17900
2950.87384	0.17932
2948.94516	0.17960
2947.01649	0.17983
2945.08781	0.18000
2943.15914	0.18012
2941.23046	0.18017
2939.30179	0.18016
2937.37311	0.18017
2935.44443	0.18018
2933.51576	0.18013
2931.58708	0.18005
2929.65841	0.17999
2927.72973	0.17996
2925.80106	0.17994
2923.87238	0.17993
2921.94370	0.17998
2920.01503	0.18011
2918.08635	0.18043
2916.15768	0.18099
2914.22900	0.18178
2912.30033	0.18264
2910.37165	0.18344
2908.44297	0.18411
2906.51430	0.18464
2904.58562	0.18509
2902.65695	0.18552
2900.72827	0.18595
2898.79960	0.18636
2896.87092	0.18674
2894.94224	0.18711
2893.01357	0.18748
2891.08489	0.18782
2889.15622	0.18817
2887.22754	0.18855
2885.29887	0.18888
2883.37019	0.18916
2881.44151	0.18943
2879.51284	0.18970
2877.58416	0.18995
2875.65549	0.19018
2873.72681	0.19041
2871.79814	0.19066
2869.86946	0.19089
2867.94078	0.19108
2866.01211	0.19129
2864.08343	0.19149
2862.15476	0.19163
2860.22608	0.19169
2858.29741	0.19168
2856.36873	0.19166
2854.44005	0.19164
2852.51138	0.19165
2850.58270	0.19181
2848.65403	0.19231
2846.72535	0.19315
2844.79668	0.19407
2842.86800	0.19487
2840.93932	0.19549
2839.01065	0.19598
2837.08197	0.19641
2835.15330	0.19683
2833.22462	0.19719
2831.29595	0.19752
2829.36727	0.19785
2827.43859	0.19817
2825.50992	0.19849
2823.58124	0.19883
2821.65257	0.19915
2819.72389	0.19943
2817.79522	0.19971
2815.86654	0.20002
2813.93786	0.20033
2812.00919	0.20062
2810.08051	0.20091
2808.15184	0.20120
2806.22316	0.20147
2804.29449	0.20174
2802.36581	0.20201
2800.43713	0.20227
2798.50846	0.20254
2796.57978	0.20285
2794.65111	0.20319
2792.72243	0.20350
2790.79376	0.20376
2788.86508	0.20399
2786.93640	0.20427
2785.00773	0.20458
2783.07905	0.20484
2781.15038	0.20509
2779.22170	0.20537
2777.29303	0.20566
2775.36435	0.20595
2773.43567	0.20625
2771.50700	0.20658
2769.57832	0.20689
2767.64965	0.20716
2765.72097	0.20741
2763.79230	0.20769
2761.86362	0.20798
2759.93494	0.20824
2758.00627	0.20849
2756.07759	0.20873
2754.14892	0.20900
2752.22024	0.20929
2750.29157	0.20958
2748.36289	0.20987
2746.43421	0.21013
2744.50554	0.21040
2742.57686	0.21068
2740.64819	0.21098
2738.71951	0.21125
2736.79084	0.21151
2734.86216	0.21178
2732.93348	0.21205
2731.00481	0.21233
2729.07613	0.21261
2727.14746	0.21286
2725.21878	0.21309
2723.29011	0.21336
2721.36143	0.21365
2719.43275	0.21393
2717.50408	0.21421
2715.57540	0.21448
2713.64673	0.21474
2711.71805	0.21499
2709.78938	0.21527
2707.86070	0.21553
2705.93202	0.21577
2704.00335	0.21602
2702.07467	0.21631
2700.14600	0.21661
2698.21732	0.21688
2696.28865	0.21713
2694.35997	0.21737
2692.43129	0.21765
2690.50262	0.21793
2688.57394	0.21818
2686.64527	0.21845
2684.71659	0.21873
2682.78792	0.21900
2680.85924	0.21925
2678.93056	0.21952
2677.00189	0.21977
2675.07321	0.22003
2673.14454	0.22031
2671.21586	0.22058
2669.28719	0.22083
2667.35851	0.22108
2665.42983	0.22135
2663.50116	0.22165
2661.57248	0.22195
2659.64381	0.22222
2657.71513	0.22248
2655.78646	0.22278
2653.85778	0.22310
2651.92910	0.22338
2650.00043	0.22365
2648.07175	0.22393
2646.14308	0.22424
2644.21440	0.22453
2642.28573	0.22483
2640.35705	0.22512
2638.42837	0.22541
2636.49970	0.22569
2634.57102	0.22593
2632.64235	0.22617
2630.71367	0.22645
2628.78500	0.22676
2626.85632	0.22706
2624.92764	0.22737
2622.99897	0.22769
2621.07029	0.22800
2619.14162	0.22826
2617.21294	0.22853
2615.28427	0.22883
2613.35559	0.22913
2611.42691	0.22942
2609.49824	0.22971
2607.56956	0.22998
2605.64089	0.23024
2603.71221	0.23053
2601.78354	0.23086
2599.85486	0.23118
2597.92618	0.23147
2595.99751	0.23175
2594.06883	0.23202
2592.14016	0.23230
2590.21148	0.23257
2588.28281	0.23284
2586.35413	0.23310
2584.42545	0.23339
2582.49678	0.23371
2580.56810	0.23402
2578.63943	0.23429
2576.71075	0.23455
2574.78208	0.23483
2572.85340	0.23511
2570.92472	0.23539
2568.99605	0.23567
2567.06737	0.23595
2565.13870	0.23623
2563.21002	0.23650
2561.28135	0.23675
2559.35267	0.23703
2557.42399	0.23731
2555.49532	0.23757
2553.56664	0.23783
2551.63797	0.23810
2549.70929	0.23838
2547.78062	0.23865
2545.85194	0.23891
2543.92326	0.23920
2541.99459	0.23951
2540.06591	0.23981
2538.13724	0.24009
2536.20856	0.24036
2534.27989	0.24062
2532.35121	0.24089
2530.42253	0.24119
2528.49386	0.24149
2526.56518	0.24179
2524.63651	0.24214
2522.70783	0.24248
2520.77916	0.24277
2518.85048	0.24303
2516.92181	0.24331
2514.99313	0.24361
2513.06445	0.24389
2511.13578	0.24417
2509.20710	0.24448
2507.27843	0.24478
2505.34975	0.24509
2503.42108	0.24541
2501.49240	0.24575
2499.56372	0.24606
2497.63505	0.24636
2495.70637	0.24666
2493.77770	0.24696
2491.84902	0.24728
2489.92035	0.24759
2487.99167	0.24789
2486.06299	0.24822
2484.13432	0.24855
2482.20564	0.24885
2480.27697	0.24911
2478.34829	0.24938
2476.41962	0.24969
2474.49094	0.25003
2472.56226	0.25037
2470.63359	0.25068
2468.70491	0.25097
2466.77624	0.25126
2464.84756	0.25155
2462.91889	0.25183
2460.99021	0.25210
2459.06153	0.25237
2457.13286	0.25266
2455.20418	0.25298
2453.27551	0.25331
2451.34683	0.25363
2449.41816	0.25394
2447.48948	0.25424
2445.56080	0.25451
2443.63213	0.25477
2441.70345	0.25507
2439.77478	0.25538
2437.84610	0.25567
2435.91743	0.25596
2433.98875	0.25626
2432.06007	0.25657
2430.13140	0.25689
2428.20272	0.25719
2426.27405	0.25747
2424.34537	0.25776
2422.41670	0.25804
2420.48802	0.25833
2418.55934	0.25865
2416.63067	0.25896
2414.70199	0.25926
2412.77332	0.25956
2410.84464	0.25986
2408.91597	0.26015
2406.98729	0.26044
2405.05861	0.26071
2403.12994	0.26100
2401.20126	0.26131
2399.27259	0.26160
2397.34391	0.26188
2395.41524	0.26220
2393.48656	0.26252
2391.55788	0.26281
2389.62921	0.26309
2387.70053	0.26336
2385.77186	0.26361
2383.84318	0.26385
2381.91451	0.26407
2379.98583	0.26427
2378.05715	0.26442
2376.12848	0.26448
2374.19980	0.26449
2372.27113	0.26449
2370.34245	0.26453
2368.41378	0.26464
2366.48510	0.26481
2364.55642	0.26499
2362.62775	0.26519
2360.69907	0.26545
2358.77040	0.26582
2356.84172	0.26628
2354.91305	0.26684
2352.98437	0.26745
2351.05569	0.26804
2349.12702	0.26845
2347.19834	0.26863
2345.26967	0.26866
2343.34099	0.26871
2341.41232	0.26886
2339.48364	0.26911
2337.55496	0.26943
2335.62629	0.26975
2333.69761	0.27006
2331.76894	0.27038
2329.84026	0.27075
2327.91159	0.27115
2325.98291	0.27153
2324.05423	0.27190
2322.12556	0.27229
2320.19688	0.27270
2318.26821	0.27310
2316.33953	0.27348
2314.41086	0.27383
2312.48218	0.27418
2310.55350	0.27457
2308.62483	0.27498
2306.69615	0.27536
2304.76748	0.27572
2302.83880	0.27608
2300.91013	0.27642
2298.98145	0.27672
2297.05277	0.27700
2295.12410	0.27729
2293.19542	0.27763
2291.26675	0.27794
2289.33807	0.27821
2287.40940	0.27850
2285.48072	0.27884
2283.55204	0.27917
2281.62337	0.27945
2279.69469	0.27972
2277.76602	0.28004
2275.83734	0.28035
2273.90867	0.28067
2271.97999	0.28098
2270.05131	0.28127
2268.12264	0.28155
2266.19396	0.28185
2264.26529	0.28215
2262.33661	0.28245
2260.40794	0.28274
2258.47926	0.28302
2256.55058	0.28331
2254.62191	0.28363
2252.69323	0.28395
2250.76456	0.28422
2248.83588	0.28451
2246.90721	0.28482
2244.97853	0.28516
2243.04985	0.28549
2241.12118	0.28580
2239.19250	0.28604
2237.26383	0.28626
2235.33515	0.28655
2233.40648	0.28690
2231.47780	0.28727
2229.54912	0.28758
2227.62045	0.28781
2225.69177	0.28804
2223.76310	0.28834
2221.83442	0.28866
2219.90575	0.28896
2217.97707	0.28923
2216.04839	0.28952
2214.11972	0.28980
2212.19104	0.29009
2210.26237	0.29039
2208.33369	0.29068
2206.40502	0.29096
2204.47634	0.29126
2202.54766	0.29155
2200.61899	0.29183
2198.69031	0.29211
2196.76164	0.29241
2194.83296	0.29270
2192.90429	0.29298
2190.97561	0.29326
2189.04693	0.29353
2187.11826	0.29381
2185.18958	0.29414
2183.26091	0.29448
2181.33223	0.29478
2179.40356	0.29506
2177.47488	0.29537
2175.54620	0.29567
2173.61753	0.29597
2171.68885	0.29627
2169.76018	0.29656
2167.83150	0.29684
2165.90283	0.29713
2163.97415	0.29743
2162.04547	0.29770
2160.11680	0.29795
2158.18812	0.29823
2156.25945	0.29855
2154.33077	0.29889
2152.40210	0.29923
2150.47342	0.29957
2148.54474	0.29988
2146.61607	0.30017
2144.68739	0.30043
2142.75872	0.30070
2140.83004	0.30098
2138.90137	0.30129
2136.97269	0.30162
2135.04401	0.30194
2133.11534	0.30227
2131.18666	0.30258
2129.25799	0.30286
2127.32931	0.30315
2125.40064	0.30345
2123.47196	0.30373
2121.54328	0.30399
2119.61461	0.30425
2117.68593	0.30455
2115.75726	0.30488
2113.82858	0.30521
2111.89991	0.30555
2109.97123	0.30590
2108.04255	0.30622
2106.11388	0.30653
2104.18520	0.30683
2102.25653	0.30712
2100.32785	0.30740
2098.39918	0.30767
2096.47050	0.30797
2094.54182	0.30830
2092.61315	0.30862
2090.68447	0.30892
2088.75580	0.30919
2086.82712	0.30946
2084.89845	0.30974
2082.96977	0.31003
2081.04109	0.31036
2079.11242	0.31069
2077.18374	0.31099
2075.25507	0.31125
2073.32639	0.31149
2071.39772	0.31176
2069.46904	0.31205
2067.54036	0.31234
2065.61169	0.31262
2063.68301	0.31293
2061.75434	0.31326
2059.82566	0.31359
2057.89699	0.31390
2055.96831	0.31421
2054.03963	0.31451
2052.11096	0.31485
2050.18228	0.31521
2048.25361	0.31553
2046.32493	0.31580
2044.39626	0.31608
2042.46758	0.31639
2040.53890	0.31669
2038.61023	0.31698
2036.68155	0.31729
2034.75288	0.31761
2032.82420	0.31791
2030.89553	0.31822
2028.96685	0.31852
2027.03817	0.31880
2025.10950	0.31908
2023.18082	0.31940
2021.25215	0.31970
2019.32347	0.31995
2017.39480	0.32021
2015.46612	0.32055
2013.53744	0.32091
2011.60877	0.32123
2009.68009	0.32152
2007.75142	0.32181
2005.82274	0.32211
2003.89407	0.32243
2001.96539	0.32278
2000.03671	0.32310
1998.10804	0.32337
1996.17936	0.32357
1994.25069	0.32372
1992.32201	0.32392
1990.39334	0.32423
1988.46466	0.32457
1986.53598	0.32488
1984.60731	0.32521
1982.67863	0.32556
1980.74996	0.32588
1978.82128	0.32612
1976.89261	0.32632
1974.96393	0.32655
1973.03525	0.32680
1971.10658	0.32702
1969.17790	0.32718
1967.24923	0.32737
1965.32055	0.32766
1963.39188	0.32803
1961.46320	0.32838
1959.53452	0.32872
1957.60585	0.32903
1955.67717	0.32931
1953.74850	0.32963
1951.81982	0.32996
1949.89115	0.33023
1947.96247	0.33044
1946.03379	0.33059
1944.10512	0.33070
1942.17644	0.33095
1940.24777	0.33141
1938.31909	0.33185
1936.39042	0.33219
1934.46174	0.33250
1932.53306	0.33278
1930.60439	0.33305
1928.67571	0.33334
1926.74704	0.33363
1924.81836	0.33384
1922.88969	0.33405
1920.96101	0.33424
1919.03233	0.33437
1917.10366	0.33473
1915.17498	0.33533
1913.24631	0.33574
1911.31763	0.33592
1909.38896	0.33615
1907.46028	0.33651
1905.53160	0.33691
1903.60293	0.33728
1901.67425	0.33758
1899.74558	0.33783
1897.81690	0.33803
1895.88823	0.33823
1893.95955	0.33846
1892.03087	0.33862
1890.10220	0.33874
1888.17352	0.33907
1886.24485	0.33952
1884.31617	0.33991
1882.38750	0.34026
1880.45882	0.34059
1878.53014	0.34087
1876.60147	0.34114
1874.67279	0.34141
1872.74412	0.34152
1870.81544	0.34137
1868.88677	0.34136
1866.95809	0.34190
1865.02941	0.34267
1863.10074	0.34319
1861.17206	0.34350
1859.24339	0.34380
1857.31471	0.34415
1855.38604	0.34449
1853.45736	0.34476
1851.52868	0.34498
1849.60001	0.34516
1847.67133	0.34516
1845.74266	0.34496
1843.81398	0.34513
1841.88531	0.34595
1839.95663	0.34674
1838.02795	0.34716
1836.09928	0.34748
1834.17060	0.34773
1832.24193	0.34768
1830.31325	0.34761
1828.38458	0.34784
1826.45590	0.34816
1824.52722	0.34856
1822.59855	0.34920
1820.66987	0.34976
1818.74120	0.35004
1816.81252	0.35028
1814.88385	0.35055
1812.95517	0.35072
1811.02649	0.35088
1809.09782	0.35118
1807.16914	0.35153
1805.24047	0.35171
1803.31179	0.35163
1801.38312	0.35158
1799.45444	0.35188
1797.52576	0.35233
1795.59709	0.35248
1793.66841	0.35232
1791.73974	0.35248
1789.81106	0.35319
1787.88239	0.35377
1785.95371	0.35389
1784.02503	0.35392
1782.09636	0.35407
1780.16768	0.35436
1778.23901	0.35474
1776.31033	0.35487
1774.38166	0.35458
1772.45298	0.35436
1770.52430	0.35461
1768.59563	0.35514
1766.66695	0.35577
1764.73828	0.35615
1762.80960	0.35611
1760.88093	0.35619
1758.95225	0.35645
1757.02357	0.35665
1755.09490	0.35674
1753.16622	0.35636
1751.23755	0.35575
1749.30887	0.35573
1747.38020	0.35621
1745.45152	0.35658
1743.52284	0.35663
1741.59417	0.35656
1739.66549	0.35663
1737.73682	0.35666
1735.80814	0.35617
1733.87947	0.35587
1731.95079	0.35659
1730.02211	0.35766
1728.09344	0.35851
1726.16476	0.35912
1724.23609	0.35947
1722.30741	0.35954
1720.37874	0.35905
1718.45006	0.35839
1716.52138	0.35850
1714.59271	0.35940
1712.66403	0.36037
1710.73536	0.36090
1708.80668	0.36087
1706.87801	0.36054
1704.94933	0.36030
1703.02065	0.35975
1701.09198	0.35895
1699.16330	0.35893
1697.23463	0.35953
1695.30595	0.36026
1693.37728	0.36119
1691.44860	0.36166
1689.51992	0.36151
1687.59125	0.36103
1685.66257	0.36024
1683.73390	0.35997
1681.80522	0.36071
1679.87655	0.36155
1677.94787	0.36166
1676.01919	0.36133
1674.09052	0.36129
1672.16184	0.36134
1670.23317	0.36122
1668.30449	0.36165
1666.37582	0.36244
1664.44714	0.36266
1662.51846	0.36262
1660.58979	0.36292
1658.66111	0.36315
1656.73244	0.36246
1654.80376	0.36093
1652.87509	0.36034
1650.94641	0.36129
1649.01773	0.36196
1647.08906	0.36197
1645.16038	0.36257
1643.23171	0.36351
1641.30303	0.36393
1639.37436	0.36363
1637.44568	0.36291
1635.51700	0.36272
1633.58833	0.36351
1631.65965	0.36433
1629.73098	0.36443
1627.80230	0.36420
1625.87363	0.36381
1623.94495	0.36315
1622.01627	0.36265
1620.08760	0.36253
1618.15892	0.36275
1616.23025	0.36373
1614.30157	0.36532
1612.37290	0.36653
1610.44422	0.36710
1608.51554	0.36750
1606.58687	0.36799
1604.65819	0.36849
1602.72952	0.36892
1600.80084	0.36932
1598.87217	0.36969
1596.94349	0.36998
1595.01481	0.37025
1593.08614	0.37053
1591.15746	0.37081
1589.22879	0.37111
1587.30011	0.37146
1585.37144	0.37179
1583.44276	0.37211
1581.51408	0.37239
1579.58541	0.37239
1577.65673	0.37207
1575.72806	0.37211
1573.79938	0.37270
1571.87071	0.37293
1569.94203	0.37286
1568.01335	0.37322
1566.08468	0.37378
1564.15600	0.37399
1562.22733	0.37340
1560.29865	0.37214
1558.36998	0.37182
1556.44130	0.37304
1554.51262	0.37443
1552.58395	0.37518
1550.65527	0.37557
1548.72660	0.37588
1546.79792	0.37587
1544.86925	0.37530
1542.94057	0.37454
1541.01189	0.37424
1539.08322	0.37492
1537.15454	0.37607
1535.22587	0.37653
1533.29719	0.37662
1531.36852	0.37711
1529.43984	0.37744
1527.51116	0.37730
1525.58249	0.37708
1523.65381	0.37663
1521.72514	0.37611
1519.79646	0.37628
1517.86779	0.37691
1515.93911	0.37753
1514.01043	0.37811
1512.08176	0.37828
1510.15308	0.37776
1508.22441	0.37704
1506.29573	0.37735
1504.36706	0.37882
1502.43838	0.37991
1500.50970	0.37989
1498.58103	0.37955
1496.65235	0.37974
1494.72368	0.38033
1492.79500	0.38043
1490.86633	0.37991
1488.93765	0.37975
1487.00897	0.38032
1485.08030	0.38102
1483.15162	0.38132
1481.22295	0.38130
1479.29427	0.38107
1477.36560	0.38047
1475.43692	0.37966
1473.50824	0.37909
1471.57957	0.37917
1469.65089	0.37966
1467.72222	0.37976
1465.79354	0.37950
1463.86487	0.37958
1461.93619	0.37971
1460.00751	0.37893
1458.07884	0.37777
1456.15016	0.37793
1454.22149	0.37934
1452.29281	0.38043
1450.36414	0.38065
1448.43546	0.38064
1446.50678	0.38090
1444.57811	0.38133
1442.64943	0.38161
1440.72076	0.38150
1438.79208	0.38083
1436.86341	0.38027
1434.93473	0.38067
1433.00605	0.38134
1431.07738	0.38153
1429.14870	0.38161
1427.22003	0.38171
1425.29135	0.38157
1423.36268	0.38120
1421.43400	0.38052
1419.50532	0.37983
1417.57665	0.37996
1415.64797	0.38069
1413.71930	0.38110
1411.79062	0.38113
1409.86195	0.38111
1407.93327	0.38103
1406.00459	0.38083
1404.07592	0.38074
1402.14724	0.38068
1400.21857	0.38032
1398.28989	0.37988
1396.36122	0.37963
1394.43254	0.37974
1392.50386	0.38012
1390.57519	0.38009
1388.64651	0.37936
1386.71784	0.37867
1384.78916	0.37852
1382.86049	0.37870
1380.93181	0.37894
1379.00313	0.37902
1377.07446	0.37882
1375.14578	0.37859
1373.21711	0.37864
1371.28843	0.37883
1369.35976	0.37887
1367.43108	0.37881
1365.50240	0.37856
1363.57373	0.37813
1361.64505	0.37801
1359.71638	0.37834
1357.78770	0.37864
1355.85903	0.37866
1353.93035	0.37866
1352.00167	0.37882
1350.07300	0.37904
1348.14432	0.37924
1346.21565	0.37940
1344.28697	0.37944
1342.35830	0.37921
1340.42962	0.37884
1338.50094	0.37872
1336.57227	0.37894
1334.64359	0.37924
1332.71492	0.37938
1330.78624	0.37934
1328.85757	0.37920
1326.92889	0.37899
1325.00021	0.37878
1323.07154	0.37861
1321.14286	0.37847
1319.21419	0.37835
1317.28551	0.37825
1315.35684	0.37807
1313.42816	0.37784
1311.49948	0.37765
1309.57081	0.37747
1307.64213	0.37717
1305.71346	0.37679
1303.78478	0.37641
1301.85611	0.37607
1299.92743	0.37571
1297.99875	0.37530
1296.07008	0.37490
1294.14140	0.37456
1292.21273	0.37420
1290.28405	0.37373
1288.35538	0.37318
1286.42670	0.37264
1284.49802	0.37216
1282.56935	0.37170
1280.64067	0.37119
1278.71200	0.37051
1276.78332	0.36964
1274.85465	0.36864
1272.92597	0.36749
1270.99729	0.36612
1269.06862	0.36445
1267.13994	0.36259
1265.21127	0.36091
1263.28259	0.35974
1261.35392	0.35916
1259.42524	0.35908
1257.49656	0.35931
1255.56789	0.35952
1253.63921	0.35947
1251.71054	0.35914
1249.78186	0.35865
1247.85319	0.35802
1245.92451	0.35727
1243.99583	0.35643
1242.06716	0.35553
1240.13848	0.35462
1238.20981	0.35371
1236.28113	0.35277
1234.35246	0.35179
1232.42378	0.35076
1230.49510	0.34973
1228.56643	0.34872
1226.63775	0.34774
1224.70908	0.34680
1222.78040	0.34587
1220.85173	0.34496
1218.92305	0.34401
1216.99437	0.34302
1215.06570	0.34207
1213.13702	0.34117
1211.20835	0.34027
1209.27967	0.33937
1207.35100	0.33850
1205.42232	0.33761
1203.49364	0.33663
1201.56497	0.33563
1199.63629	0.33470
1197.70762	0.33389
1195.77894	0.33307
1193.85027	0.33211
1191.92159	0.33103
1189.99291	0.32994
1188.06424	0.32886
1186.13556	0.32767
1184.20689	0.32633
1182.27821	0.32496
1180.34954	0.32364
1178.42086	0.32235
1176.49218	0.32103
1174.56351	0.31967
1172.63483	0.31824
1170.70616	0.31678
1168.77748	0.31535
1166.84881	0.31395
1164.92013	0.31249
1162.99145	0.31103
1161.06278	0.30964
1159.13410	0.30834
1157.20543	0.30707
1155.27675	0.30580
1153.34808	0.30456
1151.41940	0.30339
1149.49072	0.30223
1147.56205	0.30111
1145.63337	0.30004
1143.70470	0.29894
1141.77602	0.29778
1139.84735	0.29659
1137.91867	0.29540
1135.98999	0.29423
1134.06132	0.29308
1132.13264	0.29189
1130.20397	0.29055
1128.27529	0.28907
1126.34662	0.28754
1124.41794	0.28607
1122.48926	0.28462
1120.56059	0.28314
1118.63191	0.28165
1116.70324	0.28016
1114.77456	0.27859
1112.84589	0.27703
1110.91721	0.27554
1108.98853	0.27402
1107.05986	0.27247
1105.13118	0.27102
1103.20251	0.26964
1101.27383	0.26827
1099.34516	0.26691
1097.41648	0.26562
1095.48780	0.26439
1093.55913	0.26320
1091.63045	0.26205
1089.70178	0.26096
1087.77310	0.25986
1085.84443	0.25877
1083.91575	0.25773
1081.98707	0.25668
1080.05840	0.25569
1078.12972	0.25481
1076.20105	0.25402
1074.27237	0.25329
1072.34370	0.25268
1070.41502	0.25223
1068.48634	0.25198
1066.55767	0.25191
1064.62899	0.25189
1062.70032	0.25190
1060.77164	0.25201
1058.84297	0.25225
1056.91429	0.25256
1054.98561	0.25290
1053.05694	0.25330
1051.12826	0.25380
1049.19959	0.25437
1047.27091	0.25499
1045.34224	0.25567
1043.41356	0.25638
1041.48488	0.25712
1039.55621	0.25788
1037.62753	0.25868
1035.69886	0.25949
1033.77018	0.26025
1031.84151	0.26096
1029.91283	0.26171
1027.98415	0.26248
1026.05548	0.26324
1024.12680	0.26403
1022.19813	0.26488
1020.26945	0.26585
1018.34078	0.26695
1016.41210	0.26817
1014.48342	0.26944
1012.55475	0.27071
1010.62607	0.27202
1008.69740	0.27344
1006.76872	0.27490
1004.84005	0.27625
1002.91137	0.27738
1000.98269	0.27834
999.05402	0.27920
997.12534	0.28003
995.19667	0.28081
993.26799	0.28147
991.33932	0.28206
989.41064	0.28263
987.48196	0.28321
985.55329	0.28377
983.62461	0.28434
981.69594	0.28486
979.76726	0.28519
977.83859	0.28533
975.90991	0.28538
973.98123	0.28537
972.05256	0.28538
970.12388	0.28539
968.19521	0.28535
966.26653	0.28521
964.33786	0.28497
962.40918	0.28467
960.48050	0.28436
958.55183	0.28403
956.62315	0.28363
954.69448	0.28321
952.76580	0.28279
950.83713	0.28233
948.90845	0.28182
946.97977	0.28126
945.05110	0.28067
943.12242	0.28010
941.19375	0.27951
939.26507	0.27889
937.33640	0.27828
935.40772	0.27763
933.47904	0.27691
931.55037	0.27621
929.62169	0.27560
927.69302	0.27498
925.76434	0.27426
923.83567	0.27351
921.90699	0.27280
919.97831	0.27210
918.04964	0.27141
916.12096	0.27068
914.19229	0.26987
912.26361	0.26903
910.33494	0.26824
908.40626	0.26749
906.47758	0.26667
904.54891	0.26576
902.62023	0.26487
900.69156	0.26402
898.76288	0.26312
896.83421	0.26218
894.90553	0.26124
892.97685	0.26034
891.04818	0.25947
889.11950	0.25861
887.19083	0.25773
885.26215	0.25686
883.33348	0.25602
881.40480	0.25516
879.47612	0.25424
877.54745	0.25338
875.61877	0.25271
873.69010	0.25214
871.76142	0.25151
869.83275	0.25078
867.90407	0.25002
865.97539	0.24918
864.04672	0.24827
862.11804	0.24738
860.18937	0.24655
858.26069	0.24571
856.33202	0.24481
854.40334	0.24390
852.47466	0.24298
850.54599	0.24201
848.61731	0.24107
846.68864	0.24019
844.75996	0.23936
842.83129	0.23852
840.90261	0.23762
838.97394	0.23669
837.04526	0.23578
835.11658	0.23486
833.18791	0.23387
831.25923	0.23282
829.33056	0.23175
827.40188	0.23068
825.47321	0.22958
823.54453	0.22842
821.61585	0.22731
819.68718	0.22626
817.75850	0.22522
815.82983	0.22423
813.90115	0.22336
811.97248	0.22255
810.04380	0.22165
808.11512	0.22063
806.18645	0.21959
804.25777	0.21871
802.32910	0.21800
800.40042	0.21739
798.47175	0.21687
796.54307	0.21645
794.61439	0.21609
792.68572	0.21579
790.75704	0.21557
788.82837	0.21534
786.89969	0.21509
784.97102	0.21470
783.04234	0.21412
781.11366	0.21350
779.18499	0.21307
777.25631	0.21275
775.32764	0.21234
773.39896	0.21181
771.47029	0.21125
769.54161	0.21069
767.61293	0.21012
765.68426	0.20943
763.75558	0.20873
761.82691	0.20810
759.89823	0.20747
757.96956	0.20675
756.04088	0.20596
754.11220	0.20508
752.18353	0.20406
750.25485	0.20296
748.32618	0.20192
746.39750	0.20101
744.46883	0.20018
742.54015	0.19935
740.61147	0.19848
738.68280	0.19769
736.75412	0.19704
734.82545	0.19642
732.89677	0.19573
730.96810	0.19502
729.03942	0.19431
727.11074	0.19357
725.18207	0.19280
723.25339	0.19204
721.32472	0.19130
719.39604	0.19054
717.46737	0.18977
715.53869	0.18898
713.61001	0.18822
711.68134	0.18750
709.75266	0.18675
707.82399	0.18599
705.89531	0.18524
703.96664	0.18447
702.03796	0.18373
700.10928	0.18301
698.18061	0.18223
696.25193	0.18134
694.32326	0.18044
692.39458	0.17961
690.46591	0.17875
688.53723	0.17790
686.60855	0.17706
684.67988	0.17614
682.75120	0.17517
680.82253	0.17415
678.89385	0.17300
676.96518	0.17173
675.03650	0.17049
673.10782	0.16923
671.17915	0.16777
669.25047	0.16613
667.32180	0.16459
665.39312	0.16325
663.46445	0.16186
661.53577	0.16034
659.60709	0.15883
657.67842	0.15736
655.74974	0.15591
653.82107	0.15450
651.89239	0.15311
649.96372	0.15166
648.03504	0.15011
646.10636	0.14848
644.17769	0.14678
642.24901	0.14503
640.32034	0.14325
638.39166	0.14149
636.46299	0.13971
634.53431	0.13786
632.60563	0.13605
630.67696	0.13436
628.74828	0.13272
626.81961	0.13104
624.89093	0.12933
622.96226	0.12763
621.03358	0.12593
619.10490	0.12422
617.17623	0.12252
615.24755	0.12080
613.31888	0.11901
611.39020	0.11727
609.46153	0.11568
607.53285	0.11411
605.60417	0.11248
603.67550	0.11088
601.74682	0.10940
599.81815	0.10801
597.88947	0.10668
595.96080	0.10542
594.03212	0.10423
592.10344	0.10303
590.17477	0.10186
588.24609	0.10073
586.31742	0.09963
584.38874	0.09860
582.46007	0.09761
580.53139	0.09654
578.60271	0.09541
576.67404	0.09427
574.74536	0.09321
572.81669	0.09223
570.88801	0.09129
568.95934	0.09037
567.03066	0.08950
565.10198	0.08873
563.17331	0.08806
561.24463	0.08741
559.31596	0.08671
557.38728	0.08591
555.45861	0.08513
553.52993	0.08442
551.60125	0.08375
549.67258	0.08312
547.74390	0.08257
545.81523	0.08208
543.88655	0.08166
541.95788	0.08129
540.02920	0.08084
538.10052	0.08027
536.17185	0.07971
534.24317	0.07917
532.31450	0.07859
530.38582	0.07802
528.45715	0.07751
526.52847	0.07697
524.59979	0.07632
522.67112	0.07559
520.74244	0.07480
518.81377	0.07390
516.88509	0.07292
514.95642	0.07201
513.02774	0.07125
511.09906	0.07051
509.17039	0.06962
507.24171	0.06868
505.31304	0.06782
503.38436	0.06695
501.45569	0.06597
499.52701	0.06492
497.59833	0.06375
495.66966	0.06244
493.74098	0.06114
491.81231	0.06001
489.88363	0.05895
487.95496	0.05776
486.02628	0.05645
484.09760	0.05524
482.16893	0.05411
480.24025	0.05292
478.31158	0.05170
476.38290	0.05052
474.45423	0.04934
472.52555	0.04823
470.59687	0.04727
468.66820	0.04636
466.73952	0.04548
464.81085	0.04479
462.88217	0.04433
460.95350	0.04397
459.02482	0.04364
457.09614	0.04346
455.16747	0.04350
453.23879	0.04363
451.31012	0.04367
449.38144	0.04353
447.45277	0.04321
445.52409	0.04277
443.59541	0.04223
441.66674	0.04165
439.73806	0.04099
437.80939	0.04015
435.88071	0.03913
433.95204	0.03808
432.02336	0.03708
430.09468	0.03601
428.16601	0.03479
426.23733	0.03350
424.30866	0.03220
422.37998	0.03088
420.45131	0.02955
418.52263	0.02824
416.59395	0.02700
414.66528	0.02577
412.73660	0.02453
410.80793	0.02335
408.87925	0.02227
406.95058	0.02122
405.02190	0.02021
403.09322	0.01926
401.16455	0.01830
399.23587	0.01721
397.30720	0.01604
395.37852	0.01490
393.44985	0.01386
391.52117	0.01296
389.59249	0.01214
387.66382	0.01132
385.73514	0.01049
383.80647	0.00976
381.87779	0.00914
379.94912	0.00844
378.02044	0.00763
376.09176	0.00696
374.16309	0.00648
372.23441	0.00594
370.30574	0.00525
368.37706	0.00462
