7496.76250	0.00221
7494.83382	0.00222
7492.90514	0.00222
7490.97647	0.00222
7489.04779	0.00223
7487.11912	0.00224
7485.19044	0.00225
7483.26177	0.00226
7481.33309	0.00227
7479.40441	0.00228
7477.47574	0.00227
7475.54706	0.00226
7473.61839	0.00225
7471.68971	0.00225
7469.76104	0.00226
7467.83236	0.00228
7465.90368	0.00229
7463.97501	0.00229
7462.04633	0.00229
7460.11766	0.00229
7458.18898	0.00229
7456.26031	0.00231
7454.33163	0.00232
7452.40295	0.00232
7450.47428	0.00231
7448.54560	0.00231
7446.61693	0.00232
7444.68825	0.00233
7442.75958	0.00234
7440.83090	0.00234
7438.90222	0.00234
7436.97355	0.00234
7435.04487	0.00236
7433.11620	0.00238
7431.18752	0.00239
7429.25885	0.00239
7427.33017	0.00239
7425.40149	0.00240
7423.47282	0.00241
7421.54414	0.00242
7419.61547	0.00243
7417.68679	0.00244
7415.75812	0.00245
7413.82944	0.00246
7411.90076	0.00247
7409.97209	0.00248
7408.04341	0.00247
7406.11474	0.00247
7404.18606	0.00248
7402.25739	0.00250
7400.32871	0.00252
7398.40003	0.00253
7396.47136	0.00254
7394.54268	0.00253
7392.61401	0.00253
7390.68533	0.00254
7388.75666	0.00254
7386.82798	0.00254
7384.89930	0.00253
7382.97063	0.00253
7381.04195	0.00254
7379.11328	0.00255
7377.18460	0.00256
7375.25593	0.00256
7373.32725	0.00257
7371.39857	0.00258
7369.46990	0.00259
7367.54122	0.00260
7365.61255	0.00260
7363.68387	0.00261
7361.75520	0.00262
7359.82652	0.00262
7357.89784	0.00262
7355.96917	0.00264
7354.04049	0.00266
7352.11182	0.00266
7350.18314	0.00265
7348.25447	0.00264
7346.32579	0.00264
7344.39711	0.00265
7342.46844	0.00266
7340.53976	0.00268
7338.61109	0.00269
7336.68241	0.00270
7334.75374	0.00271
7332.82506	0.00272
7330.89638	0.00274
7328.96771	0.00276
7327.03903	0.00275
7325.11036	0.00275
7323.18168	0.00277
7321.25301	0.00277
7319.32433	0.00275
7317.39565	0.00274
7315.46698	0.00275
7313.53830	0.00276
7311.60963	0.00277
7309.68095	0.00277
7307.75228	0.00278
7305.82360	0.00279
7303.89492	0.00281
7301.96625	0.00281
7300.03757	0.00280
7298.10890	0.00281
7296.18022	0.00282
7294.25155	0.00284
7292.32287	0.00286
7290.39419	0.00287
7288.46552	0.00288
7286.53684	0.00288
7284.60817	0.00288
7282.67949	0.00288
7280.75082	0.00288
7278.82214	0.00290
7276.89346	0.00292
7274.96479	0.00292
7273.03611	0.00292
7271.10744	0.00293
7269.17876	0.00295
7267.25009	0.00296
7265.32141	0.00295
7263.39273	0.00294
7261.46406	0.00294
7259.53538	0.00296
7257.60671	0.00299
7255.67803	0.00299
7253.74936	0.00299
7251.82068	0.00299
7249.89200	0.00302
7247.96333	0.00304
7246.03465	0.00304
7244.10598	0.00304
7242.17730	0.00304
7240.24863	0.00305
7238.31995	0.00306
7236.39127	0.00306
7234.46260	0.00305
7232.53392	0.00307
7230.60525	0.00310
7228.67657	0.00312
7226.74790	0.00311
7224.81922	0.00309
7222.89054	0.00309
7220.96187	0.00312
7219.03319	0.00314
7217.10452	0.00315
7215.17584	0.00314
7213.24717	0.00313
7211.31849	0.00315
7209.38981	0.00317
7207.46114	0.00318
7205.53246	0.00317
7203.60379	0.00317
7201.67511	0.00318
7199.74644	0.00318
7197.81776	0.00318
7195.88908	0.00319
7193.96041	0.00320
7192.03173	0.00321
7190.10306	0.00320
7188.17438	0.00321
7186.24571	0.00321
7184.31703	0.00323
7182.38835	0.00324
7180.45968	0.00326
7178.53100	0.00326
7176.60233	0.00328
7174.67365	0.00329
7172.74498	0.00329
7170.81630	0.00328
7168.88762	0.00329
7166.95895	0.00331
7165.03027	0.00332
7163.10160	0.00333
7161.17292	0.00332
7159.24425	0.00331
7157.31557	0.00331
7155.38689	0.00335
7153.45822	0.00338
7151.52954	0.00338
7149.60087	0.00335
7147.67219	0.00334
7145.74352	0.00337
7143.81484	0.00339
7141.88616	0.00340
7139.95749	0.00339
7138.02881	0.00339
7136.10014	0.00341
7134.17146	0.00345
7132.24279	0.00346
7130.31411	0.00346
7128.38543	0.00347
7126.45676	0.00347
7124.52808	0.00348
7122.59941	0.00348
7120.67073	0.00347
7118.74206	0.00348
7116.81338	0.00350
7114.88470	0.00352
7112.95603	0.00353
7111.02735	0.00354
7109.09868	0.00356
7107.17000	0.00357
7105.24133	0.00357
7103.31265	0.00357
7101.38397	0.00356
7099.45530	0.00358
7097.52662	0.00360
7095.59795	0.00361
7093.66927	0.00360
7091.74060	0.00359
7089.81192	0.00360
7087.88324	0.00363
7085.95457	0.00364
7084.02589	0.00364
7082.09722	0.00364
7080.16854	0.00364
7078.23987	0.00366
7076.31119	0.00369
7074.38251	0.00370
7072.45384	0.00370
7070.52516	0.00369
7068.59649	0.00369
7066.66781	0.00371
7064.73914	0.00372
7062.81046	0.00373
7060.88178	0.00376
7058.95311	0.00377
7057.02443	0.00374
7055.09576	0.00373
7053.16708	0.00377
7051.23841	0.00380
7049.30973	0.00380
7047.38105	0.00378
7045.45238	0.00379
7043.52370	0.00383
7041.59503	0.00385
7039.66635	0.00385
7037.73768	0.00382
7035.80900	0.00382
7033.88032	0.00385
7031.95165	0.00389
7030.02297	0.00390
7028.09430	0.00390
7026.16562	0.00390
7024.23695	0.00391
7022.30827	0.00393
7020.37959	0.00393
7018.45092	0.00392
7016.52224	0.00392
7014.59357	0.00394
7012.66489	0.00395
7010.73622	0.00396
7008.80754	0.00396
7006.87886	0.00396
7004.95019	0.00396
7003.02151	0.00397
7001.09284	0.00398
6999.16416	0.00399
6997.23549	0.00399
6995.30681	0.00400
6993.37813	0.00402
6991.44946	0.00403
6989.52078	0.00402
6987.59211	0.00401
6985.66343	0.00404
6983.73476	0.00406
6981.80608	0.00407
6979.87740	0.00406
6977.94873	0.00407
6976.02005	0.00409
6974.09138	0.00409
6972.16270	0.00409
6970.23403	0.00409
6968.30535	0.00411
6966.37667	0.00412
6964.44800	0.00413
6962.51932	0.00414
6960.59065	0.00415
6958.66197	0.00417
6956.73330	0.00418
6954.80462	0.00418
6952.87594	0.00418
6950.94727	0.00419
6949.01859	0.00422
6947.08992	0.00423
6945.16124	0.00424
6943.23257	0.00424
6941.30389	0.00425
6939.37521	0.00427
6937.44654	0.00427
6935.51786	0.00426
6933.58919	0.00426
6931.66051	0.00430
6929.73184	0.00433
6927.80316	0.00435
6925.87448	0.00434
6923.94581	0.00432
6922.01713	0.00434
6920.08846	0.00437
6918.15978	0.00438
6916.23111	0.00438
6914.30243	0.00438
6912.37375	0.00439
6910.44508	0.00441
6908.51640	0.00443
6906.58773	0.00443
6904.65905	0.00443
6902.73038	0.00444
6900.80170	0.00446
6898.87302	0.00449
6896.94435	0.00449
6895.01567	0.00448
6893.08700	0.00449
6891.15832	0.00451
6889.22965	0.00451
6887.30097	0.00451
6885.37229	0.00452
6883.44362	0.00455
6881.51494	0.00458
6879.58627	0.00459
6877.65759	0.00458
6875.72892	0.00457
6873.80024	0.00456
6871.87156	0.00456
6869.94289	0.00458
6868.01421	0.00459
6866.08554	0.00460
6864.15686	0.00462
6862.22819	0.00463
6860.29951	0.00464
6858.37083	0.00465
6856.44216	0.00466
6854.51348	0.00468
6852.58481	0.00469
6850.65613	0.00470
6848.72746	0.00471
6846.79878	0.00471
6844.87010	0.00473
6842.94143	0.00474
6841.01275	0.00474
6839.08408	0.00475
6837.15540	0.00476
6835.22673	0.00476
6833.29805	0.00477
6831.36937	0.00479
6829.44070	0.00479
6827.51202	0.00481
6825.58335	0.00482
6823.65467	0.00482
6821.72600	0.00482
6819.79732	0.00484
6817.86864	0.00486
6815.93997	0.00488
6814.01129	0.00488
6812.08262	0.00488
6810.15394	0.00490
6808.22527	0.00492
6806.29659	0.00492
6804.36791	0.00492
6802.43924	0.00492
6800.51056	0.00495
6798.58189	0.00498
6796.65321	0.00499
6794.72454	0.00497
6792.79586	0.00496
6790.86718	0.00498
6788.93851	0.00500
6787.00983	0.00501
6785.08116	0.00502
6783.15248	0.00503
6781.22381	0.00503
6779.29513	0.00504
6777.36645	0.00506
6775.43778	0.00507
6773.50910	0.00509
6771.58043	0.00510
6769.65175	0.00511
6767.72308	0.00513
6765.79440	0.00515
6763.86572	0.00517
6761.93705	0.00518
6760.00837	0.00519
6758.07970	0.00520
6756.15102	0.00523
6754.22235	0.00525
6752.29367	0.00525
6750.36499	0.00524
6748.43632	0.00522
6746.50764	0.00522
6744.57897	0.00525
6742.65029	0.00527
6740.72162	0.00529
6738.79294	0.00529
6736.86426	0.00530
6734.93559	0.00532
6733.00691	0.00533
6731.07824	0.00534
6729.14956	0.00535
6727.22089	0.00537
6725.29221	0.00539
6723.36353	0.00540
6721.43486	0.00542
6719.50618	0.00543
6717.57751	0.00544
6715.64883	0.00545
6713.72016	0.00545
6711.79148	0.00545
6709.86280	0.00546
6707.93413	0.00547
6706.00545	0.00550
6704.07678	0.00552
6702.14810	0.00552
6700.21943	0.00552
6698.29075	0.00553
6696.36207	0.00554
6694.43340	0.00554
6692.50472	0.00553
6690.57605	0.00553
6688.64737	0.00555
6686.71870	0.00558
6684.79002	0.00558
6682.86134	0.00559
6680.93267	0.00562
6679.00399	0.00565
6677.07532	0.00566
6675.14664	0.00567
6673.21797	0.00568
6671.28929	0.00569
6669.36061	0.00570
6667.43194	0.00571
6665.50326	0.00570
6663.57459	0.00570
6661.64591	0.00570
6659.71724	0.00572
6657.78856	0.00575
6655.85988	0.00577
6653.93121	0.00577
6652.00253	0.00579
6650.07386	0.00580
6648.14518	0.00581
6646.21651	0.00582
6644.28783	0.00583
6642.35915	0.00584
6640.43048	0.00586
6638.50180	0.00588
6636.57313	0.00590
6634.64445	0.00591
6632.71578	0.00593
6630.78710	0.00594
6628.85842	0.00596
6626.92975	0.00599
6625.00107	0.00601
6623.07240	0.00602
6621.14372	0.00602
6619.21505	0.00601
6617.28637	0.00602
6615.35769	0.00604
6613.42902	0.00607
6611.50034	0.00609
6609.57167	0.00611
6607.64299	0.00611
6605.71432	0.00611
6603.78564	0.00611
6601.85696	0.00613
6599.92829	0.00615
6597.99961	0.00615
6596.07094	0.00616
6594.14226	0.00617
6592.21359	0.00618
6590.28491	0.00618
6588.35623	0.00618
6586.42756	0.00619
6584.49888	0.00622
6582.57021	0.00625
6580.64153	0.00628
6578.71286	0.00628
6576.78418	0.00628
6574.85550	0.00629
6572.92683	0.00631
6570.99815	0.00632
6569.06948	0.00634
6567.14080	0.00637
6565.21213	0.00640
6563.28345	0.00641
6561.35477	0.00641
6559.42610	0.00642
6557.49742	0.00643
6555.56875	0.00644
6553.64007	0.00644
6551.71140	0.00644
6549.78272	0.00644
6547.85404	0.00647
6545.92537	0.00650
6543.99669	0.00650
6542.06802	0.00651
6540.13934	0.00653
6538.21067	0.00654
6536.28199	0.00656
6534.35331	0.00657
6532.42464	0.00659
6530.49596	0.00660
6528.56729	0.00662
6526.63861	0.00664
6524.70994	0.00666
6522.78126	0.00668
6520.85258	0.00668
6518.92391	0.00669
6516.99523	0.00671
6515.06656	0.00672
6513.13788	0.00672
6511.20921	0.00673
6509.28053	0.00674
6507.35185	0.00677
6505.42318	0.00679
6503.49450	0.00681
6501.56583	0.00684
6499.63715	0.00687
6497.70848	0.00685
6495.77980	0.00684
6493.85112	0.00685
6491.92245	0.00689
6489.99377	0.00691
6488.06510	0.00692
6486.13642	0.00693
6484.20775	0.00694
6482.27907	0.00695
6480.35039	0.00695
6478.42172	0.00696
6476.49304	0.00699
6474.56437	0.00701
6472.63569	0.00705
6470.70702	0.00707
6468.77834	0.00707
6466.84966	0.00708
6464.92099	0.00709
6462.99231	0.00712
6461.06364	0.00714
6459.13496	0.00713
6457.20629	0.00713
6455.27761	0.00716
6453.34893	0.00718
6451.42026	0.00719
6449.49158	0.00719
6447.56291	0.00719
6445.63423	0.00720
6443.70556	0.00723
6441.77688	0.00727
6439.84820	0.00730
6437.91953	0.00732
6435.99085	0.00733
6434.06218	0.00735
6432.13350	0.00737
6430.20483	0.00738
6428.27615	0.00739
6426.34747	0.00740
6424.41880	0.00741
6422.49012	0.00743
6420.56145	0.00745
6418.63277	0.00745
6416.70410	0.00746
6414.77542	0.00747
6412.84674	0.00749
6410.91807	0.00752
6408.98939	0.00755
6407.06072	0.00757
6405.13204	0.00759
6403.20337	0.00761
6401.27469	0.00763
6399.34601	0.00765
6397.41734	0.00767
6395.48866	0.00767
6393.55999	0.00768
6391.63131	0.00769
6389.70264	0.00770
6387.77396	0.00772
6385.84528	0.00773
6383.91661	0.00774
6381.98793	0.00776
6380.05926	0.00780
6378.13058	0.00783
6376.20191	0.00783
6374.27323	0.00783
6372.34455	0.00784
6370.41588	0.00785
6368.48720	0.00786
6366.55853	0.00787
6364.62985	0.00788
6362.70118	0.00789
6360.77250	0.00792
6358.84382	0.00795
6356.91515	0.00796
6354.98647	0.00796
6353.05780	0.00797
6351.12912	0.00800
6349.20045	0.00803
6347.27177	0.00805
6345.34309	0.00806
6343.41442	0.00806
6341.48574	0.00808
6339.55707	0.00812
6337.62839	0.00815
6335.69972	0.00816
6333.77104	0.00816
6331.84236	0.00817
6329.91369	0.00820
6327.98501	0.00821
6326.05634	0.00822
6324.12766	0.00824
6322.19899	0.00827
6320.27031	0.00829
6318.34163	0.00831
6316.41296	0.00834
6314.48428	0.00836
6312.55561	0.00837
6310.62693	0.00837
6308.69826	0.00838
6306.76958	0.00840
6304.84090	0.00842
6302.91223	0.00842
6300.98355	0.00843
6299.05488	0.00843
6297.12620	0.00845
6295.19753	0.00848
6293.26885	0.00852
6291.34017	0.00854
6289.41150	0.00856
6287.48282	0.00858
6285.55415	0.00860
6283.62547	0.00861
6281.69680	0.00861
6279.76812	0.00862
6277.83944	0.00865
6275.91077	0.00868
6273.98209	0.00870
6272.05342	0.00873
6270.12474	0.00876
6268.19607	0.00879
6266.26739	0.00881
6264.33871	0.00882
6262.41004	0.00883
6260.48136	0.00886
6258.55269	0.00889
6256.62401	0.00892
6254.69534	0.00892
6252.76666	0.00892
6250.83798	0.00892
6248.90931	0.00895
6246.98063	0.00899
6245.05196	0.00900
6243.12328	0.00899
6241.19461	0.00898
6239.26593	0.00899
6237.33725	0.00902
6235.40858	0.00906
6233.47990	0.00908
6231.55123	0.00910
6229.62255	0.00913
6227.69388	0.00915
6225.76520	0.00918
6223.83652	0.00920
6221.90785	0.00922
6219.97917	0.00922
6218.05050	0.00922
6216.12182	0.00924
6214.19315	0.00928
6212.26447	0.00930
6210.33579	0.00931
6208.40712	0.00933
6206.47844	0.00935
6204.54977	0.00937
6202.62109	0.00939
6200.69242	0.00941
6198.76374	0.00944
6196.83506	0.00947
6194.90639	0.00950
6192.97771	0.00951
6191.04904	0.00953
6189.12036	0.00955
6187.19169	0.00955
6185.26301	0.00956
6183.33433	0.00958
6181.40566	0.00960
6179.47698	0.00961
6177.54831	0.00964
6175.61963	0.00967
6173.69096	0.00969
6171.76228	0.00970
6169.83360	0.00973
6167.90493	0.00975
6165.97625	0.00977
6164.04758	0.00979
6162.11890	0.00981
6160.19023	0.00983
6158.26155	0.00984
6156.33287	0.00986
6154.40420	0.00990
6152.47552	0.00993
6150.54685	0.00995
6148.61817	0.00997
6146.68950	0.00997
6144.76082	0.00997
6142.83214	0.01000
6140.90347	0.01002
6138.97479	0.01004
6137.04612	0.01006
6135.11744	0.01010
6133.18877	0.01013
6131.26009	0.01015
6129.33141	0.01016
6127.40274	0.01017
6125.47406	0.01020
6123.54539	0.01023
6121.61671	0.01026
6119.68804	0.01026
6117.75936	0.01027
6115.83068	0.01029
6113.90201	0.01032
6111.97333	0.01035
6110.04466	0.01038
6108.11598	0.01042
6106.18731	0.01044
6104.25863	0.01046
6102.32995	0.01049
6100.40128	0.01051
6098.47260	0.01052
6096.54393	0.01053
6094.61525	0.01055
6092.68658	0.01057
6090.75790	0.01060
6088.82922	0.01063
6086.90055	0.01065
6084.97187	0.01067
6083.04320	0.01068
6081.11452	0.01069
6079.18585	0.01072
6077.25717	0.01075
6075.32849	0.01078
6073.39982	0.01080
6071.47114	0.01081
6069.54247	0.01084
6067.61379	0.01086
6065.68512	0.01088
6063.75644	0.01090
6061.82776	0.01093
6059.89909	0.01097
6057.97041	0.01099
6056.04174	0.01099
6054.11306	0.01100
6052.18439	0.01102
6050.25571	0.01105
6048.32703	0.01107
6046.39836	0.01111
6044.46968	0.01114
6042.54101	0.01118
6040.61233	0.01121
6038.68366	0.01123
6036.75498	0.01124
6034.82630	0.01124
6032.89763	0.01124
6030.96895	0.01127
6029.04028	0.01131
6027.11160	0.01133
6025.18293	0.01133
6023.25425	0.01134
6021.32557	0.01137
6019.39690	0.01139
6017.46822	0.01141
6015.53955	0.01143
6013.61087	0.01146
6011.68220	0.01149
6009.75352	0.01152
6007.82484	0.01155
6005.89617	0.01160
6003.96749	0.01164
6002.03882	0.01167
6000.11014	0.01169
5998.18147	0.01171
5996.25279	0.01172
5994.32411	0.01174
5992.39544	0.01177
5990.46676	0.01179
5988.53809	0.01181
5986.60941	0.01183
5984.68074	0.01186
5982.75206	0.01190
5980.82338	0.01191
5978.89471	0.01193
5976.96603	0.01197
5975.03736	0.01199
5973.10868	0.01201
5971.18001	0.01203
5969.25133	0.01204
5967.32265	0.01205
5965.39398	0.01207
5963.46530	0.01210
5961.53663	0.01214
5959.60795	0.01218
5957.67928	0.01221
5955.75060	0.01224
5953.82192	0.01228
5951.89325	0.01232
5949.96457	0.01235
5948.03590	0.01237
5946.10722	0.01237
5944.17855	0.01238
5942.24987	0.01240
5940.32119	0.01241
5938.39252	0.01243
5936.46384	0.01246
5934.53517	0.01250
5932.60649	0.01255
5930.67782	0.01260
5928.74914	0.01262
5926.82046	0.01263
5924.89179	0.01263
5922.96311	0.01265
5921.03444	0.01270
5919.10576	0.01274
5917.17709	0.01277
5915.24841	0.01279
5913.31973	0.01283
5911.39106	0.01286
5909.46238	0.01287
5907.53371	0.01288
5905.60503	0.01290
5903.67636	0.01292
5901.74768	0.01295
5899.81900	0.01298
5897.89033	0.01301
5895.96165	0.01304
5894.03298	0.01308
5892.10430	0.01312
5890.17563	0.01316
5888.24695	0.01318
5886.31827	0.01322
5884.38960	0.01325
5882.46092	0.01326
5880.53225	0.01328
5878.60357	0.01331
5876.67490	0.01333
5874.74622	0.01333
5872.81755	0.01334
5870.88887	0.01337
5868.96019	0.01341
5867.03152	0.01344
5865.10284	0.01346
5863.17417	0.01348
5861.24549	0.01352
5859.31682	0.01357
5857.38814	0.01360
5855.45946	0.01362
5853.53079	0.01365
5851.60211	0.01368
5849.67344	0.01372
5847.74476	0.01375
5845.81609	0.01378
5843.88741	0.01381
5841.95873	0.01383
5840.03006	0.01385
5838.10138	0.01388
5836.17271	0.01391
5834.24403	0.01393
5832.31536	0.01394
5830.38668	0.01396
5828.45800	0.01400
5826.52933	0.01405
5824.60065	0.01409
5822.67198	0.01411
5820.74330	0.01413
5818.81463	0.01415
5816.88595	0.01417
5814.95727	0.01419
5813.02860	0.01422
5811.09992	0.01425
5809.17125	0.01428
5807.24257	0.01432
5805.31390	0.01435
5803.38522	0.01439
5801.45654	0.01443
5799.52787	0.01447
5797.59919	0.01448
5795.67052	0.01450
5793.74184	0.01452
5791.81317	0.01455
5789.88449	0.01459
5787.95581	0.01462
5786.02714	0.01464
5784.09846	0.01466
5782.16979	0.01469
5780.24111	0.01473
5778.31244	0.01476
5776.38376	0.01479
5774.45508	0.01481
5772.52641	0.01484
5770.59773	0.01486
5768.66906	0.01488
5766.74038	0.01490
5764.81171	0.01493
5762.88303	0.01497
5760.95435	0.01502
5759.02568	0.01506
5757.09700	0.01510
5755.16833	0.01513
5753.23965	0.01515
5751.31098	0.01517
5749.38230	0.01520
5747.45362	0.01522
5745.52495	0.01524
5743.59627	0.01527
5741.66760	0.01532
5739.73892	0.01536
5737.81025	0.01539
5735.88157	0.01542
5733.95289	0.01545
5732.02422	0.01549
5730.09554	0.01552
5728.16687	0.01554
5726.23819	0.01557
5724.30952	0.01561
5722.38084	0.01565
5720.45216	0.01569
5718.52349	0.01573
5716.59481	0.01576
5714.66614	0.01577
5712.73746	0.01579
5710.80879	0.01582
5708.88011	0.01588
5706.95143	0.01594
5705.02276	0.01596
5703.09408	0.01596
5701.16541	0.01597
5699.23673	0.01601
5697.30806	0.01605
5695.37938	0.01607
5693.45070	0.01609
5691.52203	0.01613
5689.59335	0.01617
5687.66468	0.01621
5685.73600	0.01624
5683.80733	0.01628
5681.87865	0.01632
5679.94997	0.01636
5678.02130	0.01638
5676.09262	0.01639
5674.16395	0.01641
5672.23527	0.01645
5670.30660	0.01650
5668.37792	0.01654
5666.44924	0.01658
5664.52057	0.01661
5662.59189	0.01664
5660.66322	0.01667
5658.73454	0.01670
5656.80587	0.01673
5654.87719	0.01675
5652.94851	0.01678
5651.01984	0.01681
5649.09116	0.01684
5647.16249	0.01687
5645.23381	0.01691
5643.30514	0.01694
5641.37646	0.01697
5639.44778	0.01699
5637.51911	0.01703
5635.59043	0.01708
5633.66176	0.01712
5631.73308	0.01715
5629.80441	0.01717
5627.87573	0.01721
5625.94705	0.01727
5624.01838	0.01731
5622.08970	0.01734
5620.16103	0.01737
5618.23235	0.01740
5616.30368	0.01743
5614.37500	0.01745
5612.44632	0.01749
5610.51765	0.01755
5608.58897	0.01759
5606.66030	0.01762
5604.73162	0.01765
5602.80295	0.01768
5600.87427	0.01771
5598.94559	0.01774
5597.01692	0.01778
5595.08824	0.01780
5593.15957	0.01784
5591.23089	0.01788
5589.30222	0.01793
5587.37354	0.01796
5585.44486	0.01799
5583.51619	0.01803
5581.58751	0.01807
5579.65884	0.01810
5577.73016	0.01813
5575.80149	0.01816
5573.87281	0.01819
5571.94413	0.01822
5570.01546	0.01826
5568.08678	0.01831
5566.15811	0.01836
5564.22943	0.01839
5562.30076	0.01840
5560.37208	0.01842
5558.44340	0.01846
5556.51473	0.01850
5554.58605	0.01853
5552.65738	0.01857
5550.72870	0.01862
5548.80003	0.01867
5546.87135	0.01871
5544.94267	0.01874
5543.01400	0.01878
5541.08532	0.01882
5539.15665	0.01887
5537.22797	0.01890
5535.29930	0.01892
5533.37062	0.01895
5531.44194	0.01897
5529.51327	0.01900
5527.58459	0.01904
5525.65592	0.01908
5523.72724	0.01911
5521.79857	0.01914
5519.86989	0.01917
5517.94121	0.01920
5516.01254	0.01923
5514.08386	0.01928
5512.15519	0.01935
5510.22651	0.01940
5508.29784	0.01943
5506.36916	0.01946
5504.44048	0.01950
5502.51181	0.01953
5500.58313	0.01956
5498.65446	0.01960
5496.72578	0.01964
5494.79711	0.01967
5492.86843	0.01969
5490.93975	0.01970
5489.01108	0.01974
5487.08240	0.01980
5485.15373	0.01987
5483.22505	0.01991
5481.29638	0.01992
5479.36770	0.01993
5477.43902	0.01996
5475.51035	0.02001
5473.58167	0.02006
5471.65300	0.02010
5469.72432	0.02013
5467.79565	0.02016
5465.86697	0.02020
5463.93829	0.02023
5462.00962	0.02025
5460.08094	0.02029
5458.15227	0.02036
5456.22359	0.02043
5454.29492	0.02047
5452.36624	0.02050
5450.43756	0.02053
5448.50889	0.02054
5446.58021	0.02056
5444.65154	0.02058
5442.72286	0.02062
5440.79419	0.02067
5438.86551	0.02072
5436.93683	0.02076
5435.00816	0.02081
5433.07948	0.02086
5431.15081	0.02089
5429.22213	0.02091
5427.29346	0.02095
5425.36478	0.02101
5423.43610	0.02107
5421.50743	0.02111
5419.57875	0.02115
5417.65008	0.02119
5415.72140	0.02121
5413.79273	0.02123
5411.86405	0.02124
5409.93537	0.02128
5408.00670	0.02135
5406.07802	0.02140
5404.14935	0.02145
5402.22067	0.02151
5400.29200	0.02156
5398.36332	0.02159
5396.43464	0.02162
5394.50597	0.02166
5392.57729	0.02170
5390.64862	0.02175
5388.71994	0.02179
5386.79127	0.02184
5384.86259	0.02189
5382.93391	0.02194
5381.00524	0.02197
5379.07656	0.02198
5377.14789	0.02199
5375.21921	0.02203
5373.29054	0.02207
5371.36186	0.02210
5369.43318	0.02214
5367.50451	0.02219
5365.57583	0.02224
5363.64716	0.02230
5361.71848	0.02235
5359.78981	0.02238
5357.86113	0.02240
5355.93245	0.02244
5354.00378	0.02248
5352.07510	0.02253
5350.14643	0.02259
5348.21775	0.02264
5346.28908	0.02267
5344.36040	0.02269
5342.43172	0.02272
5340.50305	0.02275
5338.57437	0.02279
5336.64570	0.02286
5334.71702	0.02293
5332.78835	0.02298
5330.85967	0.02299
5328.93099	0.02302
5327.00232	0.02307
5325.07364	0.02311
5323.14497	0.02314
5321.21629	0.02317
5319.28762	0.02324
5317.35894	0.02331
5315.43026	0.02336
5313.50159	0.02340
5311.57291	0.02344
5309.64424	0.02346
5307.71556	0.02348
5305.78689	0.02353
5303.85821	0.02359
5301.92953	0.02361
5300.00086	0.02363
5298.07218	0.02368
5296.14351	0.02374
5294.21483	0.02378
5292.28616	0.02381
5290.35748	0.02385
5288.42880	0.02390
5286.50013	0.02396
5284.57145	0.02400
5282.64278	0.02406
5280.71410	0.02412
5278.78543	0.02417
5276.85675	0.02420
5274.92807	0.02422
5272.99940	0.02425
5271.07072	0.02429
5269.14205	0.02434
5267.21337	0.02439
5265.28470	0.02443
5263.35602	0.02446
5261.42734	0.02449
5259.49867	0.02453
5257.56999	0.02456
5255.64132	0.02459
5253.71264	0.02465
5251.78397	0.02470
5249.85529	0.02474
5247.92661	0.02476
5245.99794	0.02481
5244.06926	0.02487
5242.14059	0.02491
5240.21191	0.02494
5238.28324	0.02498
5236.35456	0.02503
5234.42588	0.02509
5232.49721	0.02514
5230.56853	0.02518
5228.63986	0.02523
5226.71118	0.02526
5224.78251	0.02528
5222.85383	0.02533
5220.92515	0.02538
5218.99648	0.02545
5217.06780	0.02551
5215.13913	0.02556
5213.21045	0.02560
5211.28178	0.02563
5209.35310	0.02566
5207.42442	0.02568
5205.49575	0.02573
5203.56707	0.02579
5201.63840	0.02586
5199.70972	0.02592
5197.78105	0.02596
5195.85237	0.02598
5193.92369	0.02600
5191.99502	0.02604
5190.06634	0.02609
5188.13767	0.02614
5186.20899	0.02618
5184.28032	0.02621
5182.35164	0.02626
5180.42296	0.02632
5178.49429	0.02638
5176.56561	0.02643
5174.63694	0.02648
5172.70826	0.02652
5170.77959	0.02656
5168.85091	0.02662
5166.92223	0.02666
5164.99356	0.02669
5163.06488	0.02672
5161.13621	0.02678
5159.20753	0.02683
5157.27886	0.02688
5155.35018	0.02692
5153.42150	0.02696
5151.49283	0.02700
5149.56415	0.02705
5147.63548	0.02711
5145.70680	0.02718
5143.77813	0.02723
5141.84945	0.02726
5139.92077	0.02727
5137.99210	0.02729
5136.06342	0.02733
5134.13475	0.02741
5132.20607	0.02749
5130.27740	0.02754
5128.34872	0.02756
5126.42004	0.02758
5124.49137	0.02764
5122.56269	0.02771
5120.63402	0.02777
5118.70534	0.02779
5116.77667	0.02781
5114.84799	0.02787
5112.91931	0.02794
5110.99064	0.02798
5109.06196	0.02802
5107.13329	0.02806
5105.20461	0.02811
5103.27594	0.02818
5101.34726	0.02821
5099.41858	0.02823
5097.48991	0.02826
5095.56123	0.02832
5093.63256	0.02839
5091.70388	0.02844
5089.77521	0.02847
5087.84653	0.02853
5085.91785	0.02859
5083.98918	0.02863
5082.06050	0.02868
5080.13183	0.02873
5078.20315	0.02877
5076.27448	0.02881
5074.34580	0.02884
5072.41712	0.02889
5070.48845	0.02894
5068.55977	0.02901
5066.63110	0.02905
5064.70242	0.02909
5062.77375	0.02912
5060.84507	0.02918
5058.91639	0.02924
5056.98772	0.02929
5055.05904	0.02932
5053.13037	0.02936
5051.20169	0.02943
5049.27302	0.02950
5047.34434	0.02955
5045.41566	0.02958
5043.48699	0.02963
5041.55831	0.02970
5039.62964	0.02975
5037.70096	0.02979
5035.77229	0.02981
5033.84361	0.02983
5031.91493	0.02988
5029.98626	0.02996
5028.05758	0.03003
5026.12891	0.03007
5024.20023	0.03012
5022.27156	0.03019
5020.34288	0.03025
5018.41420	0.03030
5016.48553	0.03034
5014.55685	0.03036
5012.62818	0.03038
5010.69950	0.03046
5008.77083	0.03055
5006.84215	0.03061
5004.91347	0.03063
5002.98480	0.03065
5001.05612	0.03069
4999.12745	0.03076
4997.19877	0.03084
4995.27010	0.03089
4993.34142	0.03094
4991.41274	0.03100
4989.48407	0.03106
4987.55539	0.03109
4985.62672	0.03112
4983.69804	0.03118
4981.76937	0.03125
4979.84069	0.03129
4977.91201	0.03133
4975.98334	0.03138
4974.05466	0.03144
4972.12599	0.03151
4970.19731	0.03155
4968.26864	0.03157
4966.33996	0.03161
4964.41128	0.03166
4962.48261	0.03171
4960.55393	0.03177
4958.62526	0.03183
4956.69658	0.03190
4954.76791	0.03198
4952.83923	0.03202
4950.91055	0.03205
4948.98188	0.03208
4947.05320	0.03213
4945.12453	0.03221
4943.19585	0.03227
4941.26718	0.03231
4939.33850	0.03236
4937.40982	0.03240
4935.48115	0.03243
4933.55247	0.03248
4931.62380	0.03254
4929.69512	0.03261
4927.76645	0.03267
4925.83777	0.03271
4923.90909	0.03274
4921.98042	0.03278
4920.05174	0.03282
4918.12307	0.03288
4916.19439	0.03292
4914.26572	0.03298
4912.33704	0.03305
4910.40836	0.03312
4908.47969	0.03316
4906.55101	0.03319
4904.62234	0.03324
4902.69366	0.03330
4900.76499	0.03337
4898.83631	0.03343
4896.90763	0.03350
4894.97896	0.03357
4893.05028	0.03361
4891.12161	0.03366
4889.19293	0.03372
4887.26426	0.03379
4885.33558	0.03384
4883.40690	0.03388
4881.47823	0.03391
4879.54955	0.03396
4877.62088	0.03400
4875.69220	0.03404
4873.76353	0.03408
4871.83485	0.03412
4869.90617	0.03418
4867.97750	0.03424
4866.04882	0.03431
4864.12015	0.03439
4862.19147	0.03446
4860.26280	0.03451
4858.33412	0.03456
4856.40544	0.03460
4854.47677	0.03464
4852.54809	0.03470
4850.61942	0.03477
4848.69074	0.03483
4846.76207	0.03488
4844.83339	0.03493
4842.90471	0.03498
4840.97604	0.03502
4839.04736	0.03506
4837.11869	0.03513
4835.19001	0.03521
4833.26134	0.03527
4831.33266	0.03531
4829.40398	0.03537
4827.47531	0.03544
4825.54663	0.03551
4823.61796	0.03556
4821.68928	0.03560
4819.76061	0.03564
4817.83193	0.03567
4815.90325	0.03574
4813.97458	0.03584
4812.04590	0.03592
4810.11723	0.03597
4808.18855	0.03601
4806.25988	0.03606
4804.33120	0.03612
4802.40252	0.03618
4800.47385	0.03625
4798.54517	0.03631
4796.61650	0.03639
4794.68782	0.03645
4792.75915	0.03648
4790.83047	0.03651
4788.90179	0.03656
4786.97312	0.03662
4785.04444	0.03666
4783.11577	0.03671
4781.18709	0.03678
4779.25842	0.03687
4777.32974	0.03694
4775.40106	0.03697
4773.47239	0.03700
4771.54371	0.03706
4769.61504	0.03715
4767.68636	0.03722
4765.75769	0.03727
4763.82901	0.03732
4761.90033	0.03738
4759.97166	0.03745
4758.04298	0.03752
4756.11431	0.03760
4754.18563	0.03766
4752.25696	0.03769
4750.32828	0.03774
4748.39960	0.03781
4746.47093	0.03788
4744.54225	0.03793
4742.61358	0.03799
4740.68490	0.03804
4738.75623	0.03809
4736.82755	0.03815
4734.89887	0.03821
4732.97020	0.03828
4731.04152	0.03832
4729.11285	0.03837
4727.18417	0.03843
4725.25550	0.03850
4723.32682	0.03857
4721.39814	0.03862
4719.46947	0.03866
4717.54079	0.03872
4715.61212	0.03879
4713.68344	0.03886
4711.75477	0.03894
4709.82609	0.03901
4707.89741	0.03906
4705.96874	0.03912
4704.04006	0.03921
4702.11139	0.03930
4700.18271	0.03935
4698.25404	0.03938
4696.32536	0.03942
4694.39668	0.03948
4692.46801	0.03956
4690.53933	0.03962
4688.61066	0.03966
4686.68198	0.03972
4684.75331	0.03979
4682.82463	0.03987
4680.89595	0.03996
4678.96728	0.04004
4677.03860	0.04010
4675.10993	0.04014
4673.18125	0.04021
4671.25258	0.04029
4669.32390	0.04034
4667.39522	0.04037
4665.46655	0.04042
4663.53787	0.04048
4661.60920	0.04054
4659.68052	0.04060
4657.75185	0.04067
4655.82317	0.04074
4653.89449	0.04080
4651.96582	0.04086
4650.03714	0.04094
4648.10847	0.04102
4646.17979	0.04108
4644.25112	0.04114
4642.32244	0.04121
4640.39376	0.04130
4638.46509	0.04137
4636.53641	0.04144
4634.60774	0.04150
4632.67906	0.04156
4630.75039	0.04162
4628.82171	0.04169
4626.89303	0.04178
4624.96436	0.04187
4623.03568	0.04194
4621.10701	0.04199
4619.17833	0.04204
4617.24966	0.04211
4615.32098	0.04221
4613.39230	0.04230
4611.46363	0.04234
4609.53495	0.04239
4607.60628	0.04245
4605.67760	0.04251
4603.74893	0.04258
4601.82025	0.04265
4599.89157	0.04273
4597.96290	0.04281
4596.03422	0.04288
4594.10555	0.04296
4592.17687	0.04305
4590.24820	0.04312
4588.31952	0.04316
4586.39084	0.04321
4584.46217	0.04328
4582.53349	0.04336
4580.60482	0.04345
4578.67614	0.04353
4576.74747	0.04358
4574.81879	0.04363
4572.89011	0.04371
4570.96144	0.04379
4569.03276	0.04386
4567.10409	0.04392
4565.17541	0.04397
4563.24674	0.04403
4561.31806	0.04412
4559.38938	0.04420
4557.46071	0.04425
4555.53203	0.04432
4553.60336	0.04441
4551.67468	0.04450
4549.74601	0.04457
4547.81733	0.04464
4545.88865	0.04472
4543.95998	0.04479
4542.03130	0.04486
4540.10263	0.04492
4538.17395	0.04499
4536.24528	0.04507
4534.31660	0.04516
4532.38792	0.04526
4530.45925	0.04534
4528.53057	0.04541
4526.60190	0.04548
4524.67322	0.04554
4522.74455	0.04561
4520.81587	0.04568
4518.88719	0.04575
4516.95852	0.04582
4515.02984	0.04588
4513.10117	0.04595
4511.17249	0.04604
4509.24382	0.04615
4507.31514	0.04624
4505.38646	0.04630
4503.45779	0.04635
4501.52911	0.04642
4499.60044	0.04650
4497.67176	0.04658
4495.74309	0.04667
4493.81441	0.04676
4491.88573	0.04684
4489.95706	0.04692
4488.02838	0.04700
4486.09971	0.04708
4484.17103	0.04716
4482.24236	0.04725
4480.31368	0.04735
4478.38500	0.04744
4476.45633	0.04751
4474.52765	0.04759
4472.59898	0.04766
4470.67030	0.04772
4468.74163	0.04779
4466.81295	0.04787
4464.88427	0.04796
4462.95560	0.04805
4461.02692	0.04812
4459.09825	0.04817
4457.16957	0.04822
4455.24090	0.04830
4453.31222	0.04839
4451.38354	0.04850
4449.45487	0.04860
4447.52619	0.04867
4445.59752	0.04874
4443.66884	0.04882
4441.74017	0.04890
4439.81149	0.04900
4437.88281	0.04911
4435.95414	0.04920
4434.02546	0.04927
4432.09679	0.04935
4430.16811	0.04944
4428.23944	0.04954
4426.31076	0.04961
4424.38208	0.04968
4422.45341	0.04975
4420.52473	0.04985
4418.59606	0.04993
4416.66738	0.05001
4414.73871	0.05011
4412.81003	0.05019
4410.88135	0.05028
4408.95268	0.05037
4407.02400	0.05047
4405.09533	0.05057
4403.16665	0.05065
4401.23798	0.05073
4399.30930	0.05082
4397.38062	0.05092
4395.45195	0.05100
4393.52327	0.05109
4391.59460	0.05119
4389.66592	0.05128
4387.73725	0.05137
4385.80857	0.05149
4383.87989	0.05159
4381.95122	0.05165
4380.02254	0.05172
4378.09387	0.05180
4376.16519	0.05189
4374.23652	0.05198
4372.30784	0.05206
4370.37916	0.05214
4368.45049	0.05223
4366.52181	0.05233
4364.59314	0.05243
4362.66446	0.05252
4360.73579	0.05261
4358.80711	0.05271
4356.87843	0.05280
4354.94976	0.05289
4353.02108	0.05300
4351.09241	0.05309
4349.16373	0.05318
4347.23506	0.05329
4345.30638	0.05341
4343.37770	0.05350
4341.44903	0.05356
4339.52035	0.05360
4337.59168	0.05367
4335.66300	0.05377
4333.73433	0.05389
4331.80565	0.05400
4329.87697	0.05409
4327.94830	0.05419
4326.01962	0.05430
4324.09095	0.05440
4322.16227	0.05447
4320.23360	0.05456
4318.30492	0.05466
4316.37624	0.05476
4314.44757	0.05486
4312.51889	0.05498
4310.59022	0.05509
4308.66154	0.05518
4306.73287	0.05528
4304.80419	0.05539
4302.87551	0.05550
4300.94684	0.05561
4299.01816	0.05571
4297.08949	0.05580
4295.16081	0.05589
4293.23214	0.05601
4291.30346	0.05612
4289.37478	0.05621
4287.44611	0.05629
4285.51743	0.05637
4283.58876	0.05647
4281.66008	0.05658
4279.73141	0.05667
4277.80273	0.05678
4275.87405	0.05690
4273.94538	0.05702
4272.01670	0.05714
4270.08803	0.05723
4268.15935	0.05731
4266.23068	0.05740
4264.30200	0.05751
4262.37332	0.05762
4260.44465	0.05773
4258.51597	0.05785
4256.58730	0.05797
4254.65862	0.05805
4252.72995	0.05813
4250.80127	0.05821
4248.87259	0.05831
4246.94392	0.05843
4245.01524	0.05855
4243.08657	0.05867
4241.15789	0.05876
4239.22922	0.05885
4237.30054	0.05895
4235.37186	0.05907
4233.44319	0.05916
4231.51451	0.05927
4229.58584	0.05938
4227.65716	0.05949
4225.72849	0.05960
4223.79981	0.05972
4221.87113	0.05982
4219.94246	0.05992
4218.01378	0.06002
4216.08511	0.06014
4214.15643	0.06026
4212.22776	0.06037
4210.29908	0.06049
4208.37040	0.06061
4206.44173	0.06071
4204.51305	0.06082
4202.58438	0.06093
4200.65570	0.06104
4198.72703	0.06114
4196.79835	0.06125
4194.86968	0.06137
4192.94100	0.06150
4191.01232	0.06163
4189.08365	0.06173
4187.15497	0.06183
4185.22630	0.06194
4183.29762	0.06205
4181.36895	0.06215
4179.44027	0.06227
4177.51159	0.06239
4175.58292	0.06250
4173.65424	0.06261
4171.72557	0.06275
4169.79689	0.06289
4167.86822	0.06302
4165.93954	0.06313
4164.01086	0.06324
4162.08219	0.06337
4160.15351	0.06350
4158.22484	0.06359
4156.29616	0.06366
4154.36749	0.06375
4152.43881	0.06389
4150.51013	0.06404
4148.58146	0.06416
4146.65278	0.06428
4144.72411	0.06440
4142.79543	0.06451
4140.86676	0.06462
4138.93808	0.06472
4137.00940	0.06485
4135.08073	0.06498
4133.15205	0.06511
4131.22338	0.06523
4129.29470	0.06536
4127.36603	0.06548
4125.43735	0.06560
4123.50867	0.06571
4121.58000	0.06583
4119.65132	0.06596
4117.72265	0.06607
4115.79397	0.06617
4113.86530	0.06630
4111.93662	0.06644
4110.00794	0.06658
4108.07927	0.06670
4106.15059	0.06683
4104.22192	0.06698
4102.29324	0.06709
4100.36457	0.06717
4098.43589	0.06727
4096.50721	0.06742
4094.57854	0.06759
4092.64986	0.06774
4090.72119	0.06787
4088.79251	0.06798
4086.86384	0.06809
4084.93516	0.06822
4083.00648	0.06836
4081.07781	0.06848
4079.14913	0.06859
4077.22046	0.06870
4075.29178	0.06883
4073.36311	0.06898
4071.43443	0.06912
4069.50575	0.06925
4067.57708	0.06936
4065.64840	0.06948
4063.71973	0.06961
4061.79105	0.06976
4059.86238	0.06993
4057.93370	0.07006
4056.00502	0.07015
4054.07635	0.07027
4052.14767	0.07041
4050.21900	0.07055
4048.29032	0.07069
4046.36165	0.07081
4044.43297	0.07094
4042.50429	0.07108
4040.57562	0.07123
4038.64694	0.07137
4036.71827	0.07150
4034.78959	0.07162
4032.86092	0.07174
4030.93224	0.07186
4029.00356	0.07199
4027.07489	0.07212
4025.14621	0.07225
4023.21754	0.07238
4021.28886	0.07252
4019.36019	0.07267
4017.43151	0.07280
4015.50283	0.07292
4013.57416	0.07305
4011.64548	0.07320
4009.71681	0.07334
4007.78813	0.07350
4005.85946	0.07364
4003.93078	0.07376
4002.00210	0.07388
4000.07343	0.07403
3998.14475	0.07419
3996.21608	0.07434
3994.28740	0.07449
3992.35873	0.07462
3990.43005	0.07476
3988.50137	0.07491
3986.57270	0.07506
3984.64402	0.07518
3982.71535	0.07529
3980.78667	0.07543
3978.85800	0.07557
3976.92932	0.07568
3975.00064	0.07579
3973.07197	0.07594
3971.14329	0.07612
3969.21462	0.07629
3967.28594	0.07644
3965.35727	0.07656
3963.42859	0.07667
3961.49991	0.07679
3959.57124	0.07693
3957.64256	0.07710
3955.71389	0.07725
3953.78521	0.07738
3951.85654	0.07750
3949.92786	0.07762
3947.99918	0.07776
3946.07051	0.07790
3944.14183	0.07802
3942.21316	0.07817
3940.28448	0.07835
3938.35581	0.07853
3936.42713	0.07867
3934.49845	0.07875
3932.56978	0.07882
3930.64110	0.07896
3928.71243	0.07916
3926.78375	0.07932
3924.85508	0.07945
3922.92640	0.07959
3920.99772	0.07973
3919.06905	0.07982
3917.14037	0.07994
3915.21170	0.08017
3913.28302	0.08043
3911.35435	0.08063
3909.42567	0.08077
3907.49699	0.08079
3905.56832	0.08070
3903.63964	0.08066
3901.71097	0.08078
3899.78229	0.08105
3897.85362	0.08141
3895.92494	0.08171
3893.99626	0.08182
3892.06759	0.08187
3890.13891	0.08201
3888.21024	0.08211
3886.28156	0.08216
3884.35289	0.08233
3882.42421	0.08252
3880.49553	0.08268
3878.56686	0.08297
3876.63818	0.08321
3874.70951	0.08329
3872.78083	0.08331
3870.85216	0.08333
3868.92348	0.08349
3866.99480	0.08372
3865.06613	0.08389
3863.13745	0.08410
3861.20878	0.08437
3859.28010	0.08457
3857.35143	0.08446
3855.42275	0.08409
3853.49407	0.08403
3851.56540	0.08457
3849.63672	0.08522
3847.70805	0.08559
3845.77937	0.08571
3843.85070	0.08574
3841.92202	0.08578
3839.99334	0.08582
3838.06467	0.08593
3836.13599	0.08616
3834.20732	0.08644
3832.27864	0.08668
3830.34997	0.08691
3828.42129	0.08712
3826.49261	0.08729
3824.56394	0.08735
3822.63526	0.08729
3820.70659	0.08735
3818.77791	0.08760
3816.84924	0.08782
3814.92056	0.08810
3812.99188	0.08849
3811.06321	0.08873
3809.13453	0.08874
3807.20586	0.08876
3805.27718	0.08890
3803.34851	0.08898
3801.41983	0.08907
3799.49115	0.08934
3797.56248	0.08963
3795.63380	0.08988
3793.70513	0.09015
3791.77645	0.09039
3789.84778	0.09055
3787.91910	0.09068
3785.99042	0.09081
3784.06175	0.09098
3782.13307	0.09111
3780.20440	0.09121
3778.27572	0.09143
3776.34705	0.09172
3774.41837	0.09188
3772.48969	0.09188
3770.56102	0.09189
3768.63234	0.09206
3766.70367	0.09230
3764.77499	0.09253
3762.84632	0.09272
3760.91764	0.09280
3758.98896	0.09288
3757.06029	0.09301
3755.13161	0.09306
3753.20294	0.09295
3751.27426	0.09289
3749.34559	0.09309
3747.41691	0.09322
3745.48823	0.09314
3743.55956	0.09340
3741.63088	0.09404
3739.70221	0.09437
3737.77353	0.09427
3735.84486	0.09423
3733.91618	0.09452
3731.98750	0.09500
3730.05883	0.09541
3728.13015	0.09561
3726.20148	0.09571
3724.27280	0.09587
3722.34413	0.09608
3720.41545	0.09633
3718.48677	0.09659
3716.55810	0.09677
3714.62942	0.09676
3712.70075	0.09666
3710.77207	0.09677
3708.84340	0.09714
3706.91472	0.09753
3704.98604	0.09777
3703.05737	0.09788
3701.12869	0.09804
3699.20002	0.09830
3697.27134	0.09853
3695.34267	0.09866
3693.41399	0.09865
3691.48531	0.09858
3689.55664	0.09862
3687.62796	0.09892
3685.69929	0.09934
3683.77061	0.09965
3681.84194	0.09978
3679.91326	0.09978
3677.98458	0.09966
3676.05591	0.09959
3674.12723	0.09980
3672.19856	0.10009
3670.26988	0.10028
3668.34121	0.10061
3666.41253	0.10106
3664.48385	0.10137
3662.55518	0.10156
3660.62650	0.10167
3658.69783	0.10167
3656.76915	0.10166
3654.84048	0.10175
3652.91180	0.10172
3650.98312	0.10144
3649.05445	0.10129
3647.12577	0.10158
3645.19710	0.10215
3643.26842	0.10265
3641.33975	0.10294
3639.41107	0.10314
3637.48239	0.10329
3635.55372	0.10341
3633.62504	0.10346
3631.69637	0.10333
3629.76769	0.10318
3627.83902	0.10342
3625.91034	0.10395
3623.98166	0.10427
3622.05299	0.10428
3620.12431	0.10420
3618.19564	0.10427
3616.26696	0.10448
3614.33829	0.10462
3612.40961	0.10471
3610.48093	0.10478
3608.55226	0.10493
3606.62358	0.10521
3604.69491	0.10550
3602.76623	0.10566
3600.83756	0.10576
3598.90888	0.10587
3596.98020	0.10599
3595.05153	0.10612
3593.12285	0.10628
3591.19418	0.10633
3589.26550	0.10624
3587.33683	0.10628
3585.40815	0.10662
3583.47947	0.10698
3581.55080	0.10721
3579.62212	0.10736
3577.69345	0.10749
3575.76477	0.10762
3573.83610	0.10778
3571.90742	0.10787
3569.97874	0.10780
3568.05007	0.10769
3566.12139	0.10783
3564.19272	0.10818
3562.26404	0.10847
3560.33537	0.10866
3558.40669	0.10885
3556.47801	0.10903
3554.54934	0.10915
3552.62066	0.10923
3550.69199	0.10934
3548.76331	0.10943
3546.83464	0.10949
3544.90596	0.10962
3542.97728	0.10982
3541.04861	0.11000
3539.11993	0.11011
3537.19126	0.11019
3535.26258	0.11030
3533.33391	0.11042
3531.40523	0.11049
3529.47655	0.11051
3527.54788	0.11055
3525.61920	0.11063
3523.69053	0.11073
3521.76185	0.11084
3519.83318	0.11094
3517.90450	0.11103
3515.97582	0.11112
3514.04715	0.11121
3512.11847	0.11126
3510.18980	0.11129
3508.26112	0.11135
3506.33245	0.11143
3504.40377	0.11146
3502.47509	0.11149
3500.54642	0.11155
3498.61774	0.11163
3496.68907	0.11170
3494.76039	0.11176
3492.83172	0.11182
3490.90304	0.11184
3488.97436	0.11186
3487.04569	0.11191
3485.11701	0.11199
3483.18834	0.11205
3481.25966	0.11213
3479.33099	0.11225
3477.40231	0.11239
3475.47363	0.11254
3473.54496	0.11269
3471.61628	0.11283
3469.68761	0.11297
3467.75893	0.11314
3465.83026	0.11333
3463.90158	0.11351
3461.97290	0.11368
3460.04423	0.11386
3458.11555	0.11405
3456.18688	0.11424
3454.25820	0.11445
3452.32953	0.11463
3450.40085	0.11477
3448.47217	0.11491
3446.54350	0.11508
3444.61482	0.11528
3442.68615	0.11548
3440.75747	0.11572
3438.82880	0.11601
3436.90012	0.11631
3434.97144	0.11663
3433.04277	0.11699
3431.11409	0.11735
3429.18542	0.11770
3427.25674	0.11806
3425.32807	0.11842
3423.39939	0.11874
3421.47071	0.11905
3419.54204	0.11939
3417.61336	0.11973
3415.68469	0.12003
3413.75601	0.12032
3411.82734	0.12058
3409.89866	0.12082
3407.96998	0.12106
3406.04131	0.12132
3404.11263	0.12158
3402.18396	0.12182
3400.25528	0.12206
3398.32661	0.12229
3396.39793	0.12254
3394.46925	0.12280
3392.54058	0.12308
3390.61190	0.12335
3388.68323	0.12359
3386.75455	0.12384
3384.82588	0.12410
3382.89720	0.12434
3380.96852	0.12457
3379.03985	0.12477
3377.11117	0.12499
3375.18250	0.12523
3373.25382	0.12547
3371.32515	0.12569
3369.39647	0.12589
3367.46779	0.12610
3365.53912	0.12634
3363.61044	0.12657
3361.68177	0.12679
3359.75309	0.12702
3357.82442	0.12727
3355.89574	0.12752
3353.96706	0.12775
3352.03839	0.12799
3350.10971	0.12821
3348.18104	0.12843
3346.25236	0.12866
3344.32369	0.12887
3342.39501	0.12908
3340.46633	0.12934
3338.53766	0.12960
3336.60898	0.12981
3334.68031	0.12999
3332.75163	0.13019
3330.82296	0.13041
3328.89428	0.13066
3326.96560	0.13094
3325.03693	0.13121
3323.10825	0.13144
3321.17958	0.13165
3319.25090	0.13185
3317.32223	0.13206
3315.39355	0.13229
3313.46487	0.13253
3311.53620	0.13278
3309.60752	0.13303
3307.67885	0.13330
3305.75017	0.13354
3303.82150	0.13376
3301.89282	0.13396
3299.96414	0.13418
3298.03547	0.13443
3296.10679	0.13473
3294.17812	0.13503
3292.24944	0.13528
3290.32077	0.13548
3288.39209	0.13567
3286.46341	0.13589
3284.53474	0.13615
3282.60606	0.13644
3280.67739	0.13671
3278.74871	0.13695
3276.82004	0.13717
3274.89136	0.13738
3272.96268	0.13761
3271.03401	0.13786
3269.10533	0.13810
3267.17666	0.13834
3265.24798	0.13858
3263.31931	0.13884
3261.39063	0.13909
3259.46195	0.13932
3257.53328	0.13956
3255.60460	0.13981
3253.67593	0.14008
3251.74725	0.14037
3249.81858	0.14065
3247.88990	0.14090
3245.96122	0.14113
3244.03255	0.14136
3242.10387	0.14162
3240.17520	0.14188
3238.24652	0.14212
3236.31785	0.14234
3234.38917	0.14258
3232.46049	0.14283
3230.53182	0.14309
3228.60314	0.14335
3226.67447	0.14359
3224.74579	0.14383
3222.81712	0.14408
3220.88844	0.14432
3218.95976	0.14455
3217.03109	0.14478
3215.10241	0.14500
3213.17374	0.14523
3211.24506	0.14550
3209.31639	0.14578
3207.38771	0.14604
3205.45903	0.14628
3203.53036	0.14653
3201.60168	0.14680
3199.67301	0.14709
3197.74433	0.14737
3195.81566	0.14766
3193.88698	0.14795
3191.95830	0.14822
3190.02963	0.14850
3188.10095	0.14878
3186.17228	0.14905
3184.24360	0.14931
3182.31493	0.14953
3180.38625	0.14974
3178.45757	0.14999
3176.52890	0.15027
3174.60022	0.15056
3172.67155	0.15083
3170.74287	0.15108
3168.81420	0.15133
3166.88552	0.15158
3164.95684	0.15183
3163.02817	0.15210
3161.09949	0.15238
3159.17082	0.15265
3157.24214	0.15291
3155.31347	0.15317
3153.38479	0.15344
3151.45611	0.15371
3149.52744	0.15397
3147.59876	0.15423
3145.67009	0.15448
3143.74141	0.15470
3141.81274	0.15493
3139.88406	0.15519
3137.95538	0.15546
3136.02671	0.15572
3134.09803	0.15598
3132.16936	0.15624
3130.24068	0.15649
3128.31201	0.15671
3126.38333	0.15695
3124.45465	0.15721
3122.52598	0.15746
3120.59730	0.15771
3118.66863	0.15797
3116.73995	0.15825
3114.81128	0.15852
3112.88260	0.15876
3110.95392	0.15901
3109.02525	0.15927
3107.09657	0.15952
3105.16790	0.15977
3103.23922	0.16004
3101.31055	0.16031
3099.38187	0.16059
3097.45319	0.16086
3095.52452	0.16112
3093.59584	0.16141
3091.66717	0.16169
3089.73849	0.16193
3087.80982	0.16214
3085.88114	0.16237
3083.95246	0.16264
3082.02379	0.16291
3080.09511	0.16315
3078.16644	0.16339
3076.23776	0.16365
3074.30909	0.16392
3072.38041	0.16417
3070.45173	0.16440
3068.52306	0.16466
3066.59438	0.16494
3064.66571	0.16521
3062.73703	0.16547
3060.80836	0.16573
3058.87968	0.16599
3056.95100	0.16625
3055.02233	0.16652
3053.09365	0.16678
3051.16498	0.16702
3049.23630	0.16726
3047.30763	0.16752
3045.37895	0.16778
3043.45027	0.16802
3041.52160	0.16827
3039.59292	0.16852
3037.66425	0.16877
3035.73557	0.16902
3033.80690	0.16926
3031.87822	0.16952
3029.94954	0.16977
3028.02087	0.17001
3026.09219	0.17027
3024.16352	0.17056
3022.23484	0.17084
3020.30617	0.17109
3018.37749	0.17132
3016.44881	0.17154
3014.52014	0.17179
3012.59146	0.17205
3010.66279	0.17232
3008.73411	0.17260
3006.80544	0.17286
3004.87676	0.17310
3002.94808	0.17334
3001.01941	0.17361
2999.09073	0.17388
2997.16206	0.17412
2995.23338	0.17434
2993.30471	0.17456
2991.37603	0.17481
2989.44735	0.17505
2987.51868	0.17526
2985.59000	0.17545
2983.66133	0.17560
2981.73265	0.17572
2979.80398	0.17582
2977.87530	0.17591
2975.94662	0.17597
2974.01795	0.17599
2972.08927	0.17599
2970.16060	0.17596
2968.23192	0.17591
2966.30325	0.17590
2964.37457	0.17599
2962.44589	0.17617
2960.51722	0.17643
2958.58854	0.17673
2956.65987	0.17706
2954.73119	0.17738
2952.80252	0.17770
2950.87384	0.17803
2948.94516	0.17833
2947.01649	0.17855
2945.08781	0.17871
2943.15914	0.17882
2941.23046	0.17891
2939.30179	0.17896
2937.37311	0.17897
2935.44443	0.17894
2933.51576	0.17889
2931.58708	0.17882
2929.65841	0.17874
2927.72973	0.17868
2925.80106	0.17866
2923.87238	0.17867
2921.94370	0.17871
2920.01503	0.17884
2918.08635	0.17915
2916.15768	0.17972
2914.22900	0.18053
2912.30033	0.18139
2910.37165	0.18216
2908.44297	0.18281
2906.51430	0.18338
2904.58562	0.18387
2902.65695	0.18429
2900.72827	0.18467
2898.79960	0.18507
2896.87092	0.18549
2894.94224	0.18588
2893.01357	0.18624
2891.08489	0.18658
2889.15622	0.18693
2887.22754	0.18726
2885.29887	0.18755
2883.37019	0.18781
2881.44151	0.18804
2879.51284	0.18829
2877.58416	0.18855
2875.65549	0.18881
2873.72681	0.18905
2871.79814	0.18927
2869.86946	0.18949
2867.94078	0.18972
2866.01211	0.18992
2864.08343	0.19007
2862.15476	0.19021
2860.22608	0.19033
2858.29741	0.19038
2856.36873	0.19037
2854.44005	0.19034
2852.51138	0.19033
2850.58270	0.19049
2848.65403	0.19102
2846.72535	0.19188
2844.79668	0.19279
2842.86800	0.19351
2840.93932	0.19407
2839.01065	0.19459
2837.08197	0.19506
2835.15330	0.19544
2833.22462	0.19580
2831.29595	0.19617
2829.36727	0.19650
2827.43859	0.19678
2825.50992	0.19707
2823.58124	0.19741
2821.65257	0.19776
2819.72389	0.19807
2817.79522	0.19836
2815.86654	0.19865
2813.93786	0.19889
2812.00919	0.19913
2810.08051	0.19942
2808.15184	0.19975
2806.22316	0.20006
2804.29449	0.20034
2802.36581	0.20062
2800.43713	0.20091
2798.50846	0.20118
2796.57978	0.20145
2794.65111	0.20174
2792.72243	0.20204
2790.79376	0.20234
2788.86508	0.20264
2786.93640	0.20292
2785.00773	0.20317
2783.07905	0.20341
2781.15038	0.20369
2779.22170	0.20400
2777.29303	0.20429
2775.36435	0.20456
2773.43567	0.20484
2771.50700	0.20512
2769.57832	0.20539
2767.64965	0.20566
2765.72097	0.20595
2763.79230	0.20625
2761.86362	0.20653
2759.93494	0.20681
2758.00627	0.20710
2756.07759	0.20740
2754.14892	0.20769
2752.22024	0.20793
2750.29157	0.20816
2748.36289	0.20839
2746.43421	0.20863
2744.50554	0.20889
2742.57686	0.20920
2740.64819	0.20950
2738.71951	0.20975
2736.79084	0.20996
2734.86216	0.21022
2732.93348	0.21052
2731.00481	0.21082
2729.07613	0.21109
2727.14746	0.21137
2725.21878	0.21162
2723.29011	0.21184
2721.36143	0.21208
2719.43275	0.21237
2717.50408	0.21268
2715.57540	0.21296
2713.64673	0.21320
2711.71805	0.21346
2709.78938	0.21374
2707.86070	0.21402
2705.93202	0.21429
2704.00335	0.21456
2702.07467	0.21482
2700.14600	0.21506
2698.21732	0.21530
2696.28865	0.21554
2694.35997	0.21578
2692.43129	0.21604
2690.50262	0.21632
2688.57394	0.21661
2686.64527	0.21691
2684.71659	0.21721
2682.78792	0.21748
2680.85924	0.21774
2678.93056	0.21800
2677.00189	0.21825
2675.07321	0.21852
2673.14454	0.21879
2671.21586	0.21905
2669.28719	0.21932
2667.35851	0.21961
2665.42983	0.21987
2663.50116	0.22014
2661.57248	0.22042
2659.64381	0.22067
2657.71513	0.22092
2655.78646	0.22118
2653.85778	0.22146
2651.92910	0.22175
2650.00043	0.22204
2648.07175	0.22230
2646.14308	0.22257
2644.21440	0.22288
2642.28573	0.22319
2640.35705	0.22349
2638.42837	0.22380
2636.49970	0.22410
2634.57102	0.22438
2632.64235	0.22465
2630.71367	0.22491
2628.78500	0.22518
2626.85632	0.22548
2624.92764	0.22578
2622.99897	0.22608
2621.07029	0.22638
2619.14162	0.22668
2617.21294	0.22698
2615.28427	0.22725
2613.35559	0.22752
2611.42691	0.22778
2609.49824	0.22804
2607.56956	0.22831
2605.64089	0.22860
2603.71221	0.22891
2601.78354	0.22923
2599.85486	0.22957
2597.92618	0.22985
2595.99751	0.23011
2594.06883	0.23040
2592.14016	0.23071
2590.21148	0.23099
2588.28281	0.23127
2586.35413	0.23156
2584.42545	0.23185
2582.49678	0.23213
2580.56810	0.23241
2578.63943	0.23267
2576.71075	0.23291
2574.78208	0.23317
2572.85340	0.23346
2570.92472	0.23375
2568.99605	0.23405
2567.06737	0.23434
2565.13870	0.23461
2563.21002	0.23484
2561.28135	0.23508
2559.35267	0.23535
2557.42399	0.23564
2555.49532	0.23591
2553.56664	0.23617
2551.63797	0.23644
2549.70929	0.23670
2547.78062	0.23697
2545.85194	0.23726
2543.92326	0.23755
2541.99459	0.23784
2540.06591	0.23811
2538.13724	0.23838
2536.20856	0.23865
2534.27989	0.23892
2532.35121	0.23921
2530.42253	0.23952
2528.49386	0.23981
2526.56518	0.24008
2524.63651	0.24035
2522.70783	0.24062
2520.77916	0.24092
2518.85048	0.24128
2516.92181	0.24162
2514.99313	0.24191
2513.06445	0.24217
2511.13578	0.24244
2509.20710	0.24275
2507.27843	0.24306
2505.34975	0.24336
2503.42108	0.24367
2501.49240	0.24400
2499.56372	0.24434
2497.63505	0.24466
2495.70637	0.24496
2493.77770	0.24527
2491.84902	0.24558
2489.92035	0.24587
2487.99167	0.24615
2486.06299	0.24645
2484.13432	0.24677
2482.20564	0.24707
2480.27697	0.24735
2478.34829	0.24764
2476.41962	0.24796
2474.49094	0.24830
2472.56226	0.24861
2470.63359	0.24890
2468.70491	0.24919
2466.77624	0.24948
2464.84756	0.24978
2462.91889	0.25007
2460.99021	0.25038
2459.06153	0.25068
2457.13286	0.25097
2455.20418	0.25125
2453.27551	0.25153
2451.34683	0.25184
2449.41816	0.25215
2447.48948	0.25243
2445.56080	0.25270
2443.63213	0.25299
2441.70345	0.25331
2439.77478	0.25363
2437.84610	0.25393
2435.91743	0.25423
2433.98875	0.25454
2432.06007	0.25484
2430.13140	0.25512
2428.20272	0.25537
2426.27405	0.25565
2424.34537	0.25597
2422.41670	0.25628
2420.48802	0.25657
2418.55934	0.25687
2416.63067	0.25719
2414.70199	0.25749
2412.77332	0.25775
2410.84464	0.25802
2408.91597	0.25831
2406.98729	0.25860
2405.05861	0.25887
2403.12994	0.25915
2401.20126	0.25943
2399.27259	0.25973
2397.34391	0.26005
2395.41524	0.26037
2393.48656	0.26068
2391.55788	0.26099
2389.62921	0.26126
2387.70053	0.26150
2385.77186	0.26175
2383.84318	0.26204
2381.91451	0.26229
2379.98583	0.26245
2378.05715	0.26254
2376.12848	0.26258
2374.19980	0.26258
2372.27113	0.26260
2370.34245	0.26265
2368.41378	0.26275
2366.48510	0.26290
2364.55642	0.26308
2362.62775	0.26329
2360.69907	0.26359
2358.77040	0.26397
2356.84172	0.26439
2354.91305	0.26488
2352.98437	0.26545
2351.05569	0.26604
2349.12702	0.26649
2347.19834	0.26670
2345.26967	0.26678
2343.34099	0.26688
2341.41232	0.26705
2339.48364	0.26726
2337.55496	0.26753
2335.62629	0.26783
2333.69761	0.26812
2331.76894	0.26843
2329.84026	0.26878
2327.91159	0.26914
2325.98291	0.26949
2324.05423	0.26987
2322.12556	0.27027
2320.19688	0.27068
2318.26821	0.27109
2316.33953	0.27152
2314.41086	0.27195
2312.48218	0.27236
2310.55350	0.27276
2308.62483	0.27314
2306.69615	0.27349
2304.76748	0.27383
2302.83880	0.27417
2300.91013	0.27448
2298.98145	0.27475
2297.05277	0.27503
2295.12410	0.27536
2293.19542	0.27571
2291.26675	0.27605
2289.33807	0.27637
2287.40940	0.27669
2285.48072	0.27701
2283.55204	0.27733
2281.62337	0.27764
2279.69469	0.27791
2277.76602	0.27819
2275.83734	0.27848
2273.90867	0.27875
2271.97999	0.27900
2270.05131	0.27927
2268.12264	0.27958
2266.19396	0.27991
2264.26529	0.28020
2262.33661	0.28047
2260.40794	0.28074
2258.47926	0.28106
2256.55058	0.28136
2254.62191	0.28165
2252.69323	0.28195
2250.76456	0.28229
2248.83588	0.28264
2246.90721	0.28297
2244.97853	0.28327
2243.04985	0.28353
2241.12118	0.28378
2239.19250	0.28408
2237.26383	0.28438
2235.33515	0.28464
2233.40648	0.28489
2231.47780	0.28517
2229.54912	0.28549
2227.62045	0.28579
2225.69177	0.28609
2223.76310	0.28641
2221.83442	0.28673
2219.90575	0.28702
2217.97707	0.28727
2216.04839	0.28755
2214.11972	0.28785
2212.19104	0.28815
2210.26237	0.28844
2208.33369	0.28874
2206.40502	0.28900
2204.47634	0.28926
2202.54766	0.28956
2200.61899	0.28988
2198.69031	0.29016
2196.76164	0.29040
2194.83296	0.29066
2192.90429	0.29093
2190.97561	0.29121
2189.04693	0.29151
2187.11826	0.29180
2185.18958	0.29207
2183.26091	0.29235
2181.33223	0.29267
2179.40356	0.29299
2177.47488	0.29329
2175.54620	0.29357
2173.61753	0.29384
2171.68885	0.29411
2169.76018	0.29438
2167.83150	0.29468
2165.90283	0.29504
2163.97415	0.29541
2162.04547	0.29573
2160.11680	0.29604
2158.18812	0.29637
2156.25945	0.29668
2154.33077	0.29697
2152.40210	0.29728
2150.47342	0.29759
2148.54474	0.29789
2146.61607	0.29818
2144.68739	0.29847
2142.75872	0.29877
2140.83004	0.29908
2138.90137	0.29934
2136.97269	0.29960
2135.04401	0.29991
2133.11534	0.30023
2131.18666	0.30052
2129.25799	0.30080
2127.32931	0.30107
2125.40064	0.30134
2123.47196	0.30163
2121.54328	0.30196
2119.61461	0.30228
2117.68593	0.30256
2115.75726	0.30284
2113.82858	0.30317
2111.89991	0.30350
2109.97123	0.30380
2108.04255	0.30407
2106.11388	0.30433
2104.18520	0.30462
2102.25653	0.30493
2100.32785	0.30526
2098.39918	0.30561
2096.47050	0.30595
2094.54182	0.30624
2092.61315	0.30650
2090.68447	0.30676
2088.75580	0.30706
2086.82712	0.30736
2084.89845	0.30764
2082.96977	0.30792
2081.04109	0.30824
2079.11242	0.30854
2077.18374	0.30880
2075.25507	0.30906
2073.32639	0.30937
2071.39772	0.30974
2069.46904	0.31009
2067.54036	0.31036
2065.61169	0.31061
2063.68301	0.31091
2061.75434	0.31123
2059.82566	0.31154
2057.89699	0.31182
2055.96831	0.31208
2054.03963	0.31235
2052.11096	0.31266
2050.18228	0.31298
2048.25361	0.31331
2046.32493	0.31361
2044.39626	0.31388
2042.46758	0.31415
2040.53890	0.31445
2038.61023	0.31478
2036.68155	0.31512
2034.75288	0.31544
2032.82420	0.31576
2030.89553	0.31611
2028.96685	0.31643
2027.03817	0.31669
2025.10950	0.31695
2023.18082	0.31724
2021.25215	0.31755
2019.32347	0.31783
2017.39480	0.31810
2015.46612	0.31840
2013.53744	0.31875
2011.60877	0.31912
2009.68009	0.31944
2007.75142	0.31972
2005.82274	0.32001
2003.89407	0.32032
2001.96539	0.32059
2000.03671	0.32086
1998.10804	0.32113
1996.17936	0.32140
1994.25069	0.32156
1992.32201	0.32173
1990.39334	0.32204
1988.46466	0.32244
1986.53598	0.32276
1984.60731	0.32302
1982.67863	0.32329
1980.74996	0.32359
1978.82128	0.32386
1976.89261	0.32411
1974.96393	0.32438
1973.03525	0.32466
1971.10658	0.32489
1969.17790	0.32502
1967.24923	0.32518
1965.32055	0.32549
1963.39188	0.32587
1961.46320	0.32620
1959.53452	0.32651
1957.60585	0.32682
1955.67717	0.32711
1953.74850	0.32737
1951.81982	0.32761
1949.89115	0.32789
1947.96247	0.32816
1946.03379	0.32836
1944.10512	0.32852
1942.17644	0.32880
1940.24777	0.32925
1938.31909	0.32969
1936.39042	0.33002
1934.46174	0.33031
1932.53306	0.33061
1930.60439	0.33089
1928.67571	0.33115
1926.74704	0.33140
1924.81836	0.33157
1922.88969	0.33177
1920.96101	0.33197
1919.03233	0.33212
1917.10366	0.33245
1915.17498	0.33301
1913.24631	0.33345
1911.31763	0.33369
1909.38896	0.33394
1907.46028	0.33428
1905.53160	0.33465
1903.60293	0.33497
1901.67425	0.33525
1899.74558	0.33551
1897.81690	0.33571
1895.88823	0.33593
1893.95955	0.33620
1892.03087	0.33640
1890.10220	0.33656
1888.17352	0.33689
1886.24485	0.33734
1884.31617	0.33767
1882.38750	0.33795
1880.45882	0.33824
1878.53014	0.33858
1876.60147	0.33891
1874.67279	0.33917
1872.74412	0.33928
1870.81544	0.33918
1868.88677	0.33920
1866.95809	0.33968
1865.02941	0.34035
1863.10074	0.34085
1861.17206	0.34121
1859.24339	0.34152
1857.31471	0.34183
1855.38604	0.34218
1853.45736	0.34253
1851.52868	0.34280
1849.60001	0.34295
1847.67133	0.34288
1845.74266	0.34266
1843.81398	0.34282
1841.88531	0.34362
1839.95663	0.34440
1838.02795	0.34481
1836.09928	0.34512
1834.17060	0.34538
1832.24193	0.34539
1830.31325	0.34539
1828.38458	0.34565
1826.45590	0.34600
1824.52722	0.34638
1822.59855	0.34694
1820.66987	0.34747
1818.74120	0.34781
1816.81252	0.34808
1814.88385	0.34833
1812.95517	0.34848
1811.02649	0.34859
1809.09782	0.34882
1807.16914	0.34912
1805.24047	0.34932
1803.31179	0.34930
1801.38312	0.34929
1799.45444	0.34959
1797.52576	0.35002
1795.59709	0.35018
1793.66841	0.35001
1791.73974	0.35013
1789.81106	0.35082
1787.88239	0.35145
1785.95371	0.35161
1784.02503	0.35166
1782.09636	0.35184
1780.16768	0.35210
1778.23901	0.35243
1776.31033	0.35252
1774.38166	0.35224
1772.45298	0.35202
1770.52430	0.35222
1768.59563	0.35272
1766.66695	0.35338
1764.73828	0.35383
1762.80960	0.35387
1760.88093	0.35397
1758.95225	0.35418
1757.02357	0.35434
1755.09490	0.35446
1753.16622	0.35413
1751.23755	0.35356
1749.30887	0.35350
1747.38020	0.35390
1745.45152	0.35419
1743.52284	0.35425
1741.59417	0.35423
1739.66549	0.35434
1737.73682	0.35437
1735.80814	0.35388
1733.87947	0.35362
1731.95079	0.35438
1730.02211	0.35543
1728.09344	0.35620
1726.16476	0.35671
1724.23609	0.35701
1722.30741	0.35706
1720.37874	0.35665
1718.45006	0.35610
1716.52138	0.35624
1714.59271	0.35708
1712.66403	0.35797
1710.73536	0.35847
1708.80668	0.35847
1706.87801	0.35824
1704.94933	0.35810
1703.02065	0.35761
1701.09198	0.35680
1699.16330	0.35671
1697.23463	0.35723
1695.30595	0.35786
1693.37728	0.35874
1691.44860	0.35926
1689.51992	0.35920
1687.59125	0.35873
1685.66257	0.35789
1683.73390	0.35764
1681.80522	0.35842
1679.87655	0.35922
1677.94787	0.35930
1676.01919	0.35903
1674.09052	0.35904
1672.16184	0.35906
1670.23317	0.35893
1668.30449	0.35931
1666.37582	0.36004
1664.44714	0.36025
1662.51846	0.36022
1660.58979	0.36051
1658.66111	0.36075
1656.73244	0.36011
1654.80376	0.35867
1652.87509	0.35815
1650.94641	0.35913
1649.01773	0.35981
1647.08906	0.35982
1645.16038	0.36036
1643.23171	0.36122
1641.30303	0.36163
1639.37436	0.36143
1637.44568	0.36081
1635.51700	0.36063
1633.58833	0.36137
1631.65965	0.36214
1629.73098	0.36219
1627.80230	0.36187
1625.87363	0.36143
1623.94495	0.36079
1622.01627	0.36029
1620.08760	0.36017
1618.15892	0.36044
1616.23025	0.36144
1614.30157	0.36296
1612.37290	0.36411
1610.44422	0.36469
1608.51554	0.36517
1606.58687	0.36571
1604.65819	0.36620
1602.72952	0.36659
1600.80084	0.36697
1598.87217	0.36732
1596.94349	0.36757
1595.01481	0.36780
1593.08614	0.36813
1591.15746	0.36851
1589.22879	0.36886
1587.30011	0.36919
1585.37144	0.36949
1583.44276	0.36979
1581.51408	0.37004
1579.58541	0.36998
1577.65673	0.36959
1575.72806	0.36964
1573.79938	0.37027
1571.87071	0.37053
1569.94203	0.37042
1568.01335	0.37074
1566.08468	0.37131
1564.15600	0.37159
1562.22733	0.37106
1560.29865	0.36981
1558.36998	0.36942
1556.44130	0.37061
1554.51262	0.37201
1552.58395	0.37276
1550.65527	0.37313
1548.72660	0.37341
1546.79792	0.37340
1544.86925	0.37286
1542.94057	0.37215
1541.01189	0.37186
1539.08322	0.37251
1537.15454	0.37365
1535.22587	0.37416
1533.29719	0.37430
1531.36852	0.37477
1529.43984	0.37509
1527.51116	0.37496
1525.58249	0.37473
1523.65381	0.37421
1521.72514	0.37367
1519.79646	0.37391
1517.86779	0.37462
1515.93911	0.37529
1514.01043	0.37582
1512.08176	0.37593
1510.15308	0.37542
1508.22441	0.37473
1506.29573	0.37502
1504.36706	0.37646
1502.43838	0.37757
1500.50970	0.37755
1498.58103	0.37715
1496.65235	0.37723
1494.72368	0.37776
1492.79500	0.37791
1490.86633	0.37748
1488.93765	0.37734
1487.00897	0.37789
1485.08030	0.37852
1483.15162	0.37878
1481.22295	0.37878
1479.29427	0.37860
1477.36560	0.37806
1475.43692	0.37728
1473.50824	0.37670
1471.57957	0.37675
1469.65089	0.37723
1467.72222	0.37730
1465.79354	0.37696
1463.86487	0.37695
1461.93619	0.37708
1460.00751	0.37641
1458.07884	0.37535
1456.15016	0.37545
1454.22149	0.37674
1452.29281	0.37782
1450.36414	0.37815
1448.43546	0.37822
1446.50678	0.37851
1444.57811	0.37894
1442.64943	0.37920
1440.72076	0.37906
1438.79208	0.37837
1436.86341	0.37786
1434.93473	0.37833
1433.00605	0.37897
1431.07738	0.37902
1429.14870	0.37899
1427.22003	0.37909
1425.29135	0.37900
1423.36268	0.37871
1421.43400	0.37808
1419.50532	0.37739
1417.57665	0.37748
1415.64797	0.37817
1413.71930	0.37860
1411.79062	0.37869
1409.86195	0.37867
1407.93327	0.37854
1406.00459	0.37828
1404.07592	0.37817
1402.14724	0.37813
1400.21857	0.37782
1398.28989	0.37744
1396.36122	0.37723
1394.43254	0.37732
1392.50386	0.37768
1390.57519	0.37767
1388.64651	0.37697
1386.71784	0.37629
1384.78916	0.37616
1382.86049	0.37634
1380.93181	0.37651
1379.00313	0.37654
1377.07446	0.37636
1375.14578	0.37609
1373.21711	0.37608
1371.28843	0.37631
1369.35976	0.37646
1367.43108	0.37641
1365.50240	0.37612
1363.57373	0.37570
1361.64505	0.37559
1359.71638	0.37587
1357.78770	0.37613
1355.85903	0.37618
1353.93035	0.37622
1352.00167	0.37632
1350.07300	0.37648
1348.14432	0.37671
1346.21565	0.37689
1344.28697	0.37690
1342.35830	0.37670
1340.42962	0.37643
1338.50094	0.37637
1336.57227	0.37654
1334.64359	0.37674
1332.71492	0.37679
1330.78624	0.37671
1328.85757	0.37657
1326.92889	0.37642
1325.00021	0.37625
1323.07154	0.37608
1321.14286	0.37587
1319.21419	0.37568
1317.28551	0.37561
1315.35684	0.37556
1313.42816	0.37539
1311.49948	0.37519
1309.57081	0.37500
1307.64213	0.37475
1305.71346	0.37445
1303.78478	0.37411
1301.85611	0.37371
1299.92743	0.37326
1297.99875	0.37282
1296.07008	0.37244
1294.14140	0.37208
1292.21273	0.37167
1290.28405	0.37122
1288.35538	0.37073
1286.42670	0.37024
1284.49802	0.36976
1282.56935	0.36923
1280.64067	0.36857
1278.71200	0.36787
1276.78332	0.36715
1274.85465	0.36627
1272.92597	0.36511
1270.99729	0.36370
1269.06862	0.36200
1267.13994	0.36012
1265.21127	0.35843
1263.28259	0.35727
1261.35392	0.35673
1259.42524	0.35674
1257.49656	0.35704
1255.56789	0.35726
1253.63921	0.35718
1251.71054	0.35684
1249.78186	0.35631
1247.85319	0.35568
1245.92451	0.35495
1243.99583	0.35415
1242.06716	0.35333
1240.13848	0.35249
1238.20981	0.35151
1236.28113	0.35041
1234.35246	0.34933
1232.42378	0.34836
1230.49510	0.34742
1228.56643	0.34645
1226.63775	0.34544
1224.70908	0.34443
1222.78040	0.34352
1220.85173	0.34269
1218.92305	0.34179
1216.99437	0.34078
1215.06570	0.33980
1213.13702	0.33888
1211.20835	0.33799
1209.27967	0.33710
1207.35100	0.33619
1205.42232	0.33526
1203.49364	0.33436
1201.56497	0.33351
1199.63629	0.33268
1197.70762	0.33181
1195.77894	0.33091
1193.85027	0.32999
1191.92159	0.32898
1189.99291	0.32790
1188.06424	0.32680
1186.13556	0.32563
1184.20689	0.32434
1182.27821	0.32297
1180.34954	0.32160
1178.42086	0.32027
1176.49218	0.31897
1174.56351	0.31763
1172.63483	0.31624
1170.70616	0.31481
1168.77748	0.31334
1166.84881	0.31188
1164.92013	0.31049
1162.99145	0.30915
1161.06278	0.30782
1159.13410	0.30652
1157.20543	0.30524
1155.27675	0.30397
1153.34808	0.30271
1151.41940	0.30148
1149.49072	0.30033
1147.56205	0.29922
1145.63337	0.29809
1143.70470	0.29695
1141.77602	0.29584
1139.84735	0.29468
1137.91867	0.29345
1135.98999	0.29224
1134.06132	0.29111
1132.13264	0.28991
1130.20397	0.28854
1128.27529	0.28711
1126.34662	0.28575
1124.41794	0.28438
1122.48926	0.28294
1120.56059	0.28149
1118.63191	0.27997
1116.70324	0.27834
1114.77456	0.27674
1112.84589	0.27523
1110.91721	0.27378
1108.98853	0.27232
1107.05986	0.27082
1105.13118	0.26931
1103.20251	0.26781
1101.27383	0.26641
1099.34516	0.26509
1097.41648	0.26381
1095.48780	0.26263
1093.55913	0.26154
1091.63045	0.26043
1089.70178	0.25926
1087.77310	0.25815
1085.84443	0.25711
1083.91575	0.25613
1081.98707	0.25517
1080.05840	0.25423
1078.12972	0.25328
1076.20105	0.25241
1074.27237	0.25169
1072.34370	0.25117
1070.41502	0.25081
1068.48634	0.25054
1066.55767	0.25035
1064.62899	0.25030
1062.70032	0.25040
1060.77164	0.25063
1058.84297	0.25087
1056.91429	0.25106
1054.98561	0.25128
1053.05694	0.25165
1051.12826	0.25213
1049.19959	0.25263
1047.27091	0.25322
1045.34224	0.25388
1043.41356	0.25461
1041.48488	0.25542
1039.55621	0.25624
1037.62753	0.25700
1035.69886	0.25776
1033.77018	0.25852
1031.84151	0.25926
1029.91283	0.25999
1027.98415	0.26075
1026.05548	0.26159
1024.12680	0.26246
1022.19813	0.26330
1020.26945	0.26413
1018.34078	0.26508
1016.41210	0.26620
1014.48342	0.26743
1012.55475	0.26872
1010.62607	0.27008
1008.69740	0.27152
1006.76872	0.27302
1004.84005	0.27445
1002.91137	0.27564
1000.98269	0.27658
999.05402	0.27740
997.12534	0.27813
995.19667	0.27882
993.26799	0.27951
991.33932	0.28014
989.41064	0.28071
987.48196	0.28125
985.55329	0.28174
983.62461	0.28224
981.69594	0.28278
979.76726	0.28322
977.83859	0.28340
975.90991	0.28342
973.98123	0.28345
972.05256	0.28347
970.12388	0.28344
968.19521	0.28336
966.26653	0.28318
964.33786	0.28292
962.40918	0.28259
960.48050	0.28229
958.55183	0.28201
956.62315	0.28170
954.69448	0.28132
952.76580	0.28088
950.83713	0.28038
948.90845	0.27985
946.97977	0.27930
945.05110	0.27873
943.12242	0.27818
941.19375	0.27755
939.26507	0.27683
937.33640	0.27617
935.40772	0.27558
933.47904	0.27497
931.55037	0.27434
929.62169	0.27367
927.69302	0.27300
925.76434	0.27235
923.83567	0.27169
921.90699	0.27100
919.97831	0.27031
918.04964	0.26962
916.12096	0.26887
914.19229	0.26809
912.26361	0.26729
910.33494	0.26647
908.40626	0.26562
906.47758	0.26479
904.54891	0.26395
902.62023	0.26308
900.69156	0.26222
898.76288	0.26138
896.83421	0.26050
894.90553	0.25954
892.97685	0.25864
891.04818	0.25782
889.11950	0.25694
887.19083	0.25599
885.26215	0.25510
883.33348	0.25426
881.40480	0.25340
879.47612	0.25256
877.54745	0.25180
875.61877	0.25110
873.69010	0.25042
871.76142	0.24977
869.83275	0.24911
867.90407	0.24833
865.97539	0.24743
864.04672	0.24652
862.11804	0.24566
860.18937	0.24484
858.26069	0.24399
856.33202	0.24309
854.40334	0.24216
852.47466	0.24124
850.54599	0.24034
848.61731	0.23946
846.68864	0.23859
844.75996	0.23769
842.83129	0.23676
840.90261	0.23592
838.97394	0.23515
837.04526	0.23428
835.11658	0.23324
833.18791	0.23216
831.25923	0.23113
829.33056	0.23013
827.40188	0.22909
825.47321	0.22796
823.54453	0.22678
821.61585	0.22570
819.68718	0.22472
817.75850	0.22379
815.82983	0.22290
813.90115	0.22195
811.97248	0.22091
810.04380	0.21986
808.11512	0.21891
806.18645	0.21808
804.25777	0.21736
802.32910	0.21665
800.40042	0.21596
798.47175	0.21536
796.54307	0.21489
794.61439	0.21453
792.68572	0.21427
790.75704	0.21411
788.82837	0.21392
786.89969	0.21359
784.97102	0.21323
783.04234	0.21283
781.11366	0.21238
779.18499	0.21188
777.25631	0.21137
775.32764	0.21090
773.39896	0.21044
771.47029	0.20991
769.54161	0.20931
767.61293	0.20871
765.68426	0.20807
763.75558	0.20732
761.82691	0.20654
759.89823	0.20583
757.96956	0.20510
756.04088	0.20430
754.11220	0.20348
752.18353	0.20264
750.25485	0.20172
748.32618	0.20076
746.39750	0.19985
744.46883	0.19896
742.54015	0.19807
740.61147	0.19720
738.68280	0.19639
736.75412	0.19562
734.82545	0.19489
732.89677	0.19419
730.96810	0.19353
729.03942	0.19288
727.11074	0.19219
725.18207	0.19145
723.25339	0.19067
721.32472	0.18988
719.39604	0.18912
717.46737	0.18840
715.53869	0.18772
713.61001	0.18703
711.68134	0.18630
709.75266	0.18550
707.82399	0.18464
705.89531	0.18381
703.96664	0.18312
702.03796	0.18247
700.10928	0.18175
698.18061	0.18099
696.25193	0.18018
694.32326	0.17932
692.39458	0.17841
690.46591	0.17745
688.53723	0.17653
686.60855	0.17572
684.67988	0.17488
682.75120	0.17388
680.82253	0.17279
678.89385	0.17169
676.96518	0.17051
675.03650	0.16925
673.10782	0.16795
671.17915	0.16648
669.25047	0.16482
667.32180	0.16332
665.39312	0.16210
663.46445	0.16077
661.53577	0.15921
659.60709	0.15762
657.67842	0.15613
655.74974	0.15470
653.82107	0.15329
651.89239	0.15186
649.96372	0.15045
648.03504	0.14904
646.10636	0.14751
644.17769	0.14589
642.24901	0.14425
640.32034	0.14250
638.39166	0.14065
636.46299	0.13884
634.53431	0.13711
632.60563	0.13539
630.67696	0.13368
628.74828	0.13192
626.81961	0.13009
624.89093	0.12829
622.96226	0.12661
621.03358	0.12501
619.10490	0.12342
617.17623	0.12176
615.24755	0.11998
613.31888	0.11813
611.39020	0.11640
609.46153	0.11478
607.53285	0.11317
605.60417	0.11153
603.67550	0.10994
601.74682	0.10844
599.81815	0.10704
597.88947	0.10572
595.96080	0.10446
594.03212	0.10325
592.10344	0.10214
590.17477	0.10112
588.24609	0.10013
586.31742	0.09910
584.38874	0.09798
582.46007	0.09684
580.53139	0.09576
578.60271	0.09473
576.67404	0.09368
574.74536	0.09265
572.81669	0.09170
570.88801	0.09070
568.95934	0.08963
567.03066	0.08874
565.10198	0.08808
563.17331	0.08736
561.24463	0.08650
559.31596	0.08568
557.38728	0.08498
555.45861	0.08433
553.52993	0.08367
551.60125	0.08306
549.67258	0.08250
547.74390	0.08195
545.81523	0.08151
543.88655	0.08113
541.95788	0.08067
540.02920	0.08015
538.10052	0.07968
536.17185	0.07918
534.24317	0.07858
532.31450	0.07794
530.38582	0.07735
528.45715	0.07681
526.52847	0.07625
524.59979	0.07557
522.67112	0.07475
520.74244	0.07383
518.81377	0.07301
516.88509	0.07236
514.95642	0.07171
513.02774	0.07087
511.09906	0.06992
509.17039	0.06903
507.24171	0.06826
505.31304	0.06750
503.38436	0.06656
501.45569	0.06540
499.52701	0.06421
497.59833	0.06306
495.66966	0.06181
493.74098	0.06046
491.81231	0.05924
489.88363	0.05821
487.95496	0.05718
486.02628	0.05605
484.09760	0.05487
482.16893	0.05370
480.24025	0.05247
478.31158	0.05115
476.38290	0.04984
474.45423	0.04858
472.52555	0.04748
470.59687	0.04660
468.66820	0.04583
466.73952	0.04513
464.81085	0.04452
462.88217	0.04394
460.95350	0.04344
459.02482	0.04312
457.09614	0.04298
455.16747	0.04295
453.23879	0.04285
451.31012	0.04268
449.38144	0.04257
447.45277	0.04252
445.52409	0.04234
443.59541	0.04192
441.66674	0.04130
439.73806	0.04053
437.80939	0.03968
435.88071	0.03877
433.95204	0.03780
432.02336	0.03674
430.09468	0.03557
428.16601	0.03432
426.23733	0.03307
424.30866	0.03183
422.37998	0.03051
420.45131	0.02918
418.52263	0.02799
416.59395	0.02687
414.66528	0.02568
412.73660	0.02444
410.80793	0.02322
408.87925	0.02206
406.95058	0.02094
405.02190	0.01980
403.09322	0.01865
401.16455	0.01756
399.23587	0.01653
397.30720	0.01555
395.37852	0.01461
393.44985	0.01367
391.52117	0.01278
389.59249	0.01201
387.66382	0.01122
385.73514	0.01030
383.80647	0.00940
381.87779	0.00864
379.94912	0.00798
378.02044	0.00737
376.09176	0.00677
374.16309	0.00618
372.23441	0.00564
370.30574	0.00516
368.37706	0.00471
