7496.76250	0.00223
7494.83382	0.00222
7492.90514	0.00222
7490.97647	0.00223
7489.04779	0.00225
7487.11912	0.00228
7485.19044	0.00229
7483.26177	0.00227
7481.33309	0.00227
7479.40441	0.00229
7477.47574	0.00230
7475.54706	0.00231
7473.61839	0.00230
7471.68971	0.00229
7469.76104	0.00229
7467.83236	0.00231
7465.90368	0.00232
7463.97501	0.00232
7462.04633	0.00233
7460.11766	0.00234
7458.18898	0.00235
7456.26031	0.00236
7454.33163	0.00237
7452.40295	0.00237
7450.47428	0.00237
7448.54560	0.00238
7446.61693	0.00239
7444.68825	0.00240
7442.75958	0.00240
7440.83090	0.00241
7438.90222	0.00242
7436.97355	0.00242
7435.04487	0.00242
7433.11620	0.00243
7431.18752	0.00242
7429.25885	0.00241
7427.33017	0.00242
7425.40149	0.00246
7423.47282	0.00247
7421.54414	0.00247
7419.61547	0.00247
7417.68679	0.00247
7415.75812	0.00250
7413.82944	0.00251
7411.90076	0.00251
7409.97209	0.00251
7408.04341	0.00252
7406.11474	0.00251
7404.18606	0.00251
7402.25739	0.00252
7400.32871	0.00253
7398.40003	0.00254
7396.47136	0.00254
7394.54268	0.00255
7392.61401	0.00258
7390.68533	0.00259
7388.75666	0.00258
7386.82798	0.00258
7384.89930	0.00258
7382.97063	0.00259
7381.04195	0.00259
7379.11328	0.00260
7377.18460	0.00261
7375.25593	0.00261
7373.32725	0.00262
7371.39857	0.00263
7369.46990	0.00265
7367.54122	0.00265
7365.61255	0.00265
7363.68387	0.00263
7361.75520	0.00263
7359.82652	0.00265
7357.89784	0.00267
7355.96917	0.00268
7354.04049	0.00268
7352.11182	0.00267
7350.18314	0.00268
7348.25447	0.00269
7346.32579	0.00270
7344.39711	0.00270
7342.46844	0.00272
7340.53976	0.00274
7338.61109	0.00275
7336.68241	0.00275
7334.75374	0.00273
7332.82506	0.00273
7330.89638	0.00275
7328.96771	0.00276
7327.03903	0.00276
7325.11036	0.00277
7323.18168	0.00279
7321.25301	0.00279
7319.32433	0.00280
7317.39565	0.00280
7315.46698	0.00281
7313.53830	0.00282
7311.60963	0.00283
7309.68095	0.00283
7307.75228	0.00283
7305.82360	0.00284
7303.89492	0.00284
7301.96625	0.00284
7300.03757	0.00284
7298.10890	0.00286
7296.18022	0.00288
7294.25155	0.00289
7292.32287	0.00289
7290.39419	0.00289
7288.46552	0.00290
7286.53684	0.00291
7284.60817	0.00291
7282.67949	0.00291
7280.75082	0.00292
7278.82214	0.00293
7276.89346	0.00294
7274.96479	0.00296
7273.03611	0.00298
7271.10744	0.00300
7269.17876	0.00301
7267.25009	0.00301
7265.32141	0.00301
7263.39273	0.00300
7261.46406	0.00300
7259.53538	0.00301
7257.60671	0.00301
7255.67803	0.00301
7253.74936	0.00302
7251.82068	0.00303
7249.89200	0.00303
7247.96333	0.00303
7246.03465	0.00303
7244.10598	0.00305
7242.17730	0.00308
7240.24863	0.00309
7238.31995	0.00309
7236.39127	0.00309
7234.46260	0.00309
7232.53392	0.00310
7230.60525	0.00312
7228.67657	0.00313
7226.74790	0.00313
7224.81922	0.00313
7222.89054	0.00314
7220.96187	0.00316
7219.03319	0.00317
7217.10452	0.00317
7215.17584	0.00317
7213.24717	0.00317
7211.31849	0.00317
7209.38981	0.00318
7207.46114	0.00319
7205.53246	0.00320
7203.60379	0.00321
7201.67511	0.00323
7199.74644	0.00325
7197.81776	0.00327
7195.88908	0.00327
7193.96041	0.00328
7192.03173	0.00328
7190.10306	0.00327
7188.17438	0.00327
7186.24571	0.00327
7184.31703	0.00327
7182.38835	0.00328
7180.45968	0.00331
7178.53100	0.00332
7176.60233	0.00333
7174.67365	0.00333
7172.74498	0.00333
7170.81630	0.00333
7168.88762	0.00333
7166.95895	0.00334
7165.03027	0.00334
7163.10160	0.00334
7161.17292	0.00335
7159.24425	0.00336
7157.31557	0.00337
7155.38689	0.00339
7153.45822	0.00341
7151.52954	0.00342
7149.60087	0.00342
7147.67219	0.00341
7145.74352	0.00341
7143.81484	0.00341
7141.88616	0.00343
7139.95749	0.00345
7138.02881	0.00347
7136.10014	0.00347
7134.17146	0.00346
7132.24279	0.00347
7130.31411	0.00349
7128.38543	0.00350
7126.45676	0.00351
7124.52808	0.00353
7122.59941	0.00354
7120.67073	0.00354
7118.74206	0.00354
7116.81338	0.00354
7114.88470	0.00355
7112.95603	0.00356
7111.02735	0.00357
7109.09868	0.00357
7107.17000	0.00358
7105.24133	0.00357
7103.31265	0.00357
7101.38397	0.00360
7099.45530	0.00363
7097.52662	0.00364
7095.59795	0.00364
7093.66927	0.00365
7091.74060	0.00366
7089.81192	0.00366
7087.88324	0.00366
7085.95457	0.00367
7084.02589	0.00368
7082.09722	0.00369
7080.16854	0.00369
7078.23987	0.00369
7076.31119	0.00369
7074.38251	0.00371
7072.45384	0.00371
7070.52516	0.00370
7068.59649	0.00370
7066.66781	0.00373
7064.73914	0.00375
7062.81046	0.00377
7060.88178	0.00379
7058.95311	0.00380
7057.02443	0.00379
7055.09576	0.00380
7053.16708	0.00381
7051.23841	0.00382
7049.30973	0.00382
7047.38105	0.00383
7045.45238	0.00384
7043.52370	0.00386
7041.59503	0.00387
7039.66635	0.00386
7037.73768	0.00386
7035.80900	0.00388
7033.88032	0.00390
7031.95165	0.00391
7030.02297	0.00391
7028.09430	0.00390
7026.16562	0.00390
7024.23695	0.00391
7022.30827	0.00392
7020.37959	0.00393
7018.45092	0.00394
7016.52224	0.00395
7014.59357	0.00396
7012.66489	0.00398
7010.73622	0.00399
7008.80754	0.00401
7006.87886	0.00401
7004.95019	0.00401
7003.02151	0.00401
7001.09284	0.00400
6999.16416	0.00402
6997.23549	0.00405
6995.30681	0.00406
6993.37813	0.00406
6991.44946	0.00406
6989.52078	0.00406
6987.59211	0.00407
6985.66343	0.00408
6983.73476	0.00410
6981.80608	0.00412
6979.87740	0.00412
6977.94873	0.00412
6976.02005	0.00413
6974.09138	0.00414
6972.16270	0.00414
6970.23403	0.00414
6968.30535	0.00415
6966.37667	0.00416
6964.44800	0.00417
6962.51932	0.00420
6960.59065	0.00422
6958.66197	0.00424
6956.73330	0.00425
6954.80462	0.00424
6952.87594	0.00424
6950.94727	0.00425
6949.01859	0.00426
6947.08992	0.00427
6945.16124	0.00428
6943.23257	0.00430
6941.30389	0.00432
6939.37521	0.00433
6937.44654	0.00433
6935.51786	0.00433
6933.58919	0.00432
6931.66051	0.00434
6929.73184	0.00435
6927.80316	0.00436
6925.87448	0.00436
6923.94581	0.00436
6922.01713	0.00438
6920.08846	0.00439
6918.15978	0.00439
6916.23111	0.00440
6914.30243	0.00441
6912.37375	0.00442
6910.44508	0.00444
6908.51640	0.00446
6906.58773	0.00446
6904.65905	0.00446
6902.73038	0.00447
6900.80170	0.00449
6898.87302	0.00450
6896.94435	0.00451
6895.01567	0.00451
6893.08700	0.00450
6891.15832	0.00451
6889.22965	0.00453
6887.30097	0.00456
6885.37229	0.00458
6883.44362	0.00459
6881.51494	0.00459
6879.58627	0.00460
6877.65759	0.00461
6875.72892	0.00461
6873.80024	0.00461
6871.87156	0.00461
6869.94289	0.00463
6868.01421	0.00464
6866.08554	0.00465
6864.15686	0.00466
6862.22819	0.00468
6860.29951	0.00469
6858.37083	0.00470
6856.44216	0.00469
6854.51348	0.00470
6852.58481	0.00471
6850.65613	0.00473
6848.72746	0.00472
6846.79878	0.00473
6844.87010	0.00475
6842.94143	0.00478
6841.01275	0.00481
6839.08408	0.00483
6837.15540	0.00484
6835.22673	0.00484
6833.29805	0.00484
6831.36937	0.00483
6829.44070	0.00484
6827.51202	0.00486
6825.58335	0.00488
6823.65467	0.00489
6821.72600	0.00491
6819.79732	0.00491
6817.86864	0.00491
6815.93997	0.00492
6814.01129	0.00492
6812.08262	0.00491
6810.15394	0.00491
6808.22527	0.00493
6806.29659	0.00495
6804.36791	0.00497
6802.43924	0.00499
6800.51056	0.00501
6798.58189	0.00502
6796.65321	0.00504
6794.72454	0.00505
6792.79586	0.00507
6790.86718	0.00507
6788.93851	0.00507
6787.00983	0.00508
6785.08116	0.00509
6783.15248	0.00509
6781.22381	0.00510
6779.29513	0.00512
6777.36645	0.00515
6775.43778	0.00518
6773.50910	0.00518
6771.58043	0.00517
6769.65175	0.00516
6767.72308	0.00516
6765.79440	0.00518
6763.86572	0.00520
6761.93705	0.00522
6760.00837	0.00523
6758.07970	0.00524
6756.15102	0.00527
6754.22235	0.00528
6752.29367	0.00529
6750.36499	0.00529
6748.43632	0.00529
6746.50764	0.00529
6744.57897	0.00531
6742.65029	0.00534
6740.72162	0.00535
6738.79294	0.00536
6736.86426	0.00536
6734.93559	0.00537
6733.00691	0.00538
6731.07824	0.00538
6729.14956	0.00539
6727.22089	0.00540
6725.29221	0.00541
6723.36353	0.00543
6721.43486	0.00545
6719.50618	0.00548
6717.57751	0.00550
6715.64883	0.00550
6713.72016	0.00549
6711.79148	0.00548
6709.86280	0.00549
6707.93413	0.00550
6706.00545	0.00551
6704.07678	0.00553
6702.14810	0.00554
6700.21943	0.00555
6698.29075	0.00556
6696.36207	0.00557
6694.43340	0.00559
6692.50472	0.00561
6690.57605	0.00562
6688.64737	0.00563
6686.71870	0.00564
6684.79002	0.00565
6682.86134	0.00567
6680.93267	0.00569
6679.00399	0.00570
6677.07532	0.00569
6675.14664	0.00570
6673.21797	0.00572
6671.28929	0.00575
6669.36061	0.00577
6667.43194	0.00578
6665.50326	0.00578
6663.57459	0.00579
6661.64591	0.00582
6659.71724	0.00583
6657.78856	0.00583
6655.85988	0.00582
6653.93121	0.00583
6652.00253	0.00585
6650.07386	0.00585
6648.14518	0.00587
6646.21651	0.00590
6644.28783	0.00594
6642.35915	0.00595
6640.43048	0.00595
6638.50180	0.00595
6636.57313	0.00596
6634.64445	0.00598
6632.71578	0.00601
6630.78710	0.00603
6628.85842	0.00604
6626.92975	0.00604
6625.00107	0.00603
6623.07240	0.00603
6621.14372	0.00605
6619.21505	0.00608
6617.28637	0.00609
6615.35769	0.00610
6613.42902	0.00612
6611.50034	0.00614
6609.57167	0.00614
6607.64299	0.00614
6605.71432	0.00615
6603.78564	0.00617
6601.85696	0.00619
6599.92829	0.00620
6597.99961	0.00621
6596.07094	0.00622
6594.14226	0.00623
6592.21359	0.00625
6590.28491	0.00627
6588.35623	0.00628
6586.42756	0.00629
6584.49888	0.00629
6582.57021	0.00629
6580.64153	0.00630
6578.71286	0.00633
6576.78418	0.00633
6574.85550	0.00634
6572.92683	0.00637
6570.99815	0.00640
6569.06948	0.00642
6567.14080	0.00643
6565.21213	0.00642
6563.28345	0.00643
6561.35477	0.00645
6559.42610	0.00647
6557.49742	0.00649
6555.56875	0.00651
6553.64007	0.00651
6551.71140	0.00650
6549.78272	0.00651
6547.85404	0.00654
6545.92537	0.00658
6543.99669	0.00660
6542.06802	0.00661
6540.13934	0.00662
6538.21067	0.00664
6536.28199	0.00665
6534.35331	0.00667
6532.42464	0.00668
6530.49596	0.00667
6528.56729	0.00667
6526.63861	0.00668
6524.70994	0.00670
6522.78126	0.00671
6520.85258	0.00672
6518.92391	0.00674
6516.99523	0.00676
6515.06656	0.00677
6513.13788	0.00680
6511.20921	0.00682
6509.28053	0.00684
6507.35185	0.00686
6505.42318	0.00687
6503.49450	0.00687
6501.56583	0.00686
6499.63715	0.00686
6497.70848	0.00688
6495.77980	0.00691
6493.85112	0.00694
6491.92245	0.00696
6489.99377	0.00698
6488.06510	0.00699
6486.13642	0.00699
6484.20775	0.00699
6482.27907	0.00701
6480.35039	0.00703
6478.42172	0.00706
6476.49304	0.00707
6474.56437	0.00707
6472.63569	0.00708
6470.70702	0.00711
6468.77834	0.00712
6466.84966	0.00713
6464.92099	0.00714
6462.99231	0.00716
6461.06364	0.00717
6459.13496	0.00719
6457.20629	0.00720
6455.27761	0.00722
6453.34893	0.00725
6451.42026	0.00727
6449.49158	0.00727
6447.56291	0.00728
6445.63423	0.00729
6443.70556	0.00731
6441.77688	0.00732
6439.84820	0.00734
6437.91953	0.00735
6435.99085	0.00737
6434.06218	0.00738
6432.13350	0.00740
6430.20483	0.00742
6428.27615	0.00743
6426.34747	0.00744
6424.41880	0.00746
6422.49012	0.00749
6420.56145	0.00751
6418.63277	0.00752
6416.70410	0.00754
6414.77542	0.00756
6412.84674	0.00759
6410.91807	0.00760
6408.98939	0.00761
6407.06072	0.00762
6405.13204	0.00764
6403.20337	0.00765
6401.27469	0.00766
6399.34601	0.00767
6397.41734	0.00769
6395.48866	0.00773
6393.55999	0.00776
6391.63131	0.00776
6389.70264	0.00776
6387.77396	0.00776
6385.84528	0.00779
6383.91661	0.00782
6381.98793	0.00785
6380.05926	0.00787
6378.13058	0.00787
6376.20191	0.00788
6374.27323	0.00789
6372.34455	0.00791
6370.41588	0.00792
6368.48720	0.00794
6366.55853	0.00797
6364.62985	0.00801
6362.70118	0.00803
6360.77250	0.00801
6358.84382	0.00800
6356.91515	0.00800
6354.98647	0.00803
6353.05780	0.00806
6351.12912	0.00808
6349.20045	0.00810
6347.27177	0.00812
6345.34309	0.00814
6343.41442	0.00815
6341.48574	0.00815
6339.55707	0.00816
6337.62839	0.00817
6335.69972	0.00819
6333.77104	0.00821
6331.84236	0.00822
6329.91369	0.00823
6327.98501	0.00825
6326.05634	0.00827
6324.12766	0.00830
6322.19899	0.00832
6320.27031	0.00834
6318.34163	0.00835
6316.41296	0.00837
6314.48428	0.00838
6312.55561	0.00840
6310.62693	0.00842
6308.69826	0.00845
6306.76958	0.00847
6304.84090	0.00849
6302.91223	0.00851
6300.98355	0.00853
6299.05488	0.00855
6297.12620	0.00856
6295.19753	0.00857
6293.26885	0.00860
6291.34017	0.00862
6289.41150	0.00863
6287.48282	0.00865
6285.55415	0.00868
6283.62547	0.00870
6281.69680	0.00871
6279.76812	0.00872
6277.83944	0.00874
6275.91077	0.00875
6273.98209	0.00877
6272.05342	0.00881
6270.12474	0.00884
6268.19607	0.00886
6266.26739	0.00887
6264.33871	0.00888
6262.41004	0.00888
6260.48136	0.00888
6258.55269	0.00890
6256.62401	0.00893
6254.69534	0.00895
6252.76666	0.00896
6250.83798	0.00896
6248.90931	0.00897
6246.98063	0.00899
6245.05196	0.00903
6243.12328	0.00906
6241.19461	0.00908
6239.26593	0.00912
6237.33725	0.00915
6235.40858	0.00917
6233.47990	0.00918
6231.55123	0.00919
6229.62255	0.00920
6227.69388	0.00922
6225.76520	0.00924
6223.83652	0.00926
6221.90785	0.00928
6219.97917	0.00930
6218.05050	0.00931
6216.12182	0.00932
6214.19315	0.00934
6212.26447	0.00937
6210.33579	0.00940
6208.40712	0.00942
6206.47844	0.00944
6204.54977	0.00947
6202.62109	0.00948
6200.69242	0.00948
6198.76374	0.00948
6196.83506	0.00951
6194.90639	0.00954
6192.97771	0.00958
6191.04904	0.00962
6189.12036	0.00963
6187.19169	0.00963
6185.26301	0.00964
6183.33433	0.00967
6181.40566	0.00969
6179.47698	0.00970
6177.54831	0.00971
6175.61963	0.00974
6173.69096	0.00978
6171.76228	0.00981
6169.83360	0.00983
6167.90493	0.00985
6165.97625	0.00985
6164.04758	0.00986
6162.11890	0.00988
6160.19023	0.00990
6158.26155	0.00991
6156.33287	0.00994
6154.40420	0.00998
6152.47552	0.01001
6150.54685	0.01002
6148.61817	0.01003
6146.68950	0.01006
6144.76082	0.01008
6142.83214	0.01010
6140.90347	0.01013
6138.97479	0.01016
6137.04612	0.01018
6135.11744	0.01021
6133.18877	0.01023
6131.26009	0.01025
6129.33141	0.01026
6127.40274	0.01026
6125.47406	0.01027
6123.54539	0.01029
6121.61671	0.01031
6119.68804	0.01034
6117.75936	0.01037
6115.83068	0.01040
6113.90201	0.01044
6111.97333	0.01047
6110.04466	0.01049
6108.11598	0.01050
6106.18731	0.01052
6104.25863	0.01053
6102.32995	0.01053
6100.40128	0.01055
6098.47260	0.01059
6096.54393	0.01062
6094.61525	0.01062
6092.68658	0.01063
6090.75790	0.01066
6088.82922	0.01069
6086.90055	0.01072
6084.97187	0.01074
6083.04320	0.01076
6081.11452	0.01078
6079.18585	0.01080
6077.25717	0.01082
6075.32849	0.01085
6073.39982	0.01089
6071.47114	0.01092
6069.54247	0.01094
6067.61379	0.01097
6065.68512	0.01099
6063.75644	0.01100
6061.82776	0.01101
6059.89909	0.01103
6057.97041	0.01105
6056.04174	0.01108
6054.11306	0.01112
6052.18439	0.01115
6050.25571	0.01118
6048.32703	0.01120
6046.39836	0.01121
6044.46968	0.01121
6042.54101	0.01122
6040.61233	0.01125
6038.68366	0.01129
6036.75498	0.01131
6034.82630	0.01134
6032.89763	0.01136
6030.96895	0.01138
6029.04028	0.01142
6027.11160	0.01146
6025.18293	0.01148
6023.25425	0.01148
6021.32557	0.01149
6019.39690	0.01150
6017.46822	0.01155
6015.53955	0.01159
6013.61087	0.01161
6011.68220	0.01161
6009.75352	0.01162
6007.82484	0.01164
6005.89617	0.01166
6003.96749	0.01169
6002.03882	0.01173
6000.11014	0.01176
5998.18147	0.01179
5996.25279	0.01180
5994.32411	0.01181
5992.39544	0.01186
5990.46676	0.01191
5988.53809	0.01195
5986.60941	0.01197
5984.68074	0.01197
5982.75206	0.01198
5980.82338	0.01199
5978.89471	0.01200
5976.96603	0.01202
5975.03736	0.01204
5973.10868	0.01207
5971.18001	0.01210
5969.25133	0.01213
5967.32265	0.01216
5965.39398	0.01220
5963.46530	0.01223
5961.53663	0.01224
5959.60795	0.01225
5957.67928	0.01226
5955.75060	0.01228
5953.82192	0.01230
5951.89325	0.01233
5949.96457	0.01236
5948.03590	0.01240
5946.10722	0.01244
5944.17855	0.01248
5942.24987	0.01250
5940.32119	0.01251
5938.39252	0.01253
5936.46384	0.01257
5934.53517	0.01259
5932.60649	0.01262
5930.67782	0.01265
5928.74914	0.01268
5926.82046	0.01271
5924.89179	0.01272
5922.96311	0.01276
5921.03444	0.01279
5919.10576	0.01282
5917.17709	0.01284
5915.24841	0.01287
5913.31973	0.01290
5911.39106	0.01294
5909.46238	0.01297
5907.53371	0.01300
5905.60503	0.01302
5903.67636	0.01305
5901.74768	0.01308
5899.81900	0.01310
5897.89033	0.01312
5895.96165	0.01315
5894.03298	0.01317
5892.10430	0.01319
5890.17563	0.01322
5888.24695	0.01325
5886.31827	0.01326
5884.38960	0.01327
5882.46092	0.01330
5880.53225	0.01334
5878.60357	0.01338
5876.67490	0.01340
5874.74622	0.01343
5872.81755	0.01345
5870.88887	0.01348
5868.96019	0.01351
5867.03152	0.01354
5865.10284	0.01356
5863.17417	0.01359
5861.24549	0.01361
5859.31682	0.01364
5857.38814	0.01367
5855.45946	0.01370
5853.53079	0.01373
5851.60211	0.01375
5849.67344	0.01378
5847.74476	0.01381
5845.81609	0.01385
5843.88741	0.01387
5841.95873	0.01389
5840.03006	0.01392
5838.10138	0.01394
5836.17271	0.01397
5834.24403	0.01401
5832.31536	0.01406
5830.38668	0.01408
5828.45800	0.01410
5826.52933	0.01412
5824.60065	0.01416
5822.67198	0.01418
5820.74330	0.01419
5818.81463	0.01421
5816.88595	0.01424
5814.95727	0.01427
5813.02860	0.01430
5811.09992	0.01433
5809.17125	0.01435
5807.24257	0.01438
5805.31390	0.01441
5803.38522	0.01445
5801.45654	0.01449
5799.52787	0.01453
5797.59919	0.01455
5795.67052	0.01457
5793.74184	0.01460
5791.81317	0.01463
5789.88449	0.01466
5787.95581	0.01471
5786.02714	0.01475
5784.09846	0.01478
5782.16979	0.01481
5780.24111	0.01484
5778.31244	0.01487
5776.38376	0.01488
5774.45508	0.01489
5772.52641	0.01492
5770.59773	0.01496
5768.66906	0.01501
5766.74038	0.01504
5764.81171	0.01507
5762.88303	0.01510
5760.95435	0.01514
5759.02568	0.01517
5757.09700	0.01519
5755.16833	0.01522
5753.23965	0.01524
5751.31098	0.01526
5749.38230	0.01530
5747.45362	0.01533
5745.52495	0.01537
5743.59627	0.01540
5741.66760	0.01543
5739.73892	0.01546
5737.81025	0.01550
5735.88157	0.01553
5733.95289	0.01555
5732.02422	0.01558
5730.09554	0.01562
5728.16687	0.01566
5726.23819	0.01568
5724.30952	0.01570
5722.38084	0.01573
5720.45216	0.01577
5718.52349	0.01581
5716.59481	0.01584
5714.66614	0.01586
5712.73746	0.01590
5710.80879	0.01593
5708.88011	0.01596
5706.95143	0.01599
5705.02276	0.01602
5703.09408	0.01606
5701.16541	0.01609
5699.23673	0.01610
5697.30806	0.01612
5695.37938	0.01613
5693.45070	0.01617
5691.52203	0.01622
5689.59335	0.01626
5687.66468	0.01628
5685.73600	0.01632
5683.80733	0.01636
5681.87865	0.01639
5679.94997	0.01642
5678.02130	0.01646
5676.09262	0.01650
5674.16395	0.01654
5672.23527	0.01657
5670.30660	0.01661
5668.37792	0.01664
5666.44924	0.01666
5664.52057	0.01670
5662.59189	0.01674
5660.66322	0.01677
5658.73454	0.01680
5656.80587	0.01682
5654.87719	0.01685
5652.94851	0.01689
5651.01984	0.01693
5649.09116	0.01696
5647.16249	0.01700
5645.23381	0.01705
5643.30514	0.01710
5641.37646	0.01711
5639.44778	0.01712
5637.51911	0.01716
5635.59043	0.01720
5633.66176	0.01723
5631.73308	0.01726
5629.80441	0.01730
5627.87573	0.01732
5625.94705	0.01735
5624.01838	0.01740
5622.08970	0.01744
5620.16103	0.01746
5618.23235	0.01748
5616.30368	0.01752
5614.37500	0.01757
5612.44632	0.01761
5610.51765	0.01764
5608.58897	0.01766
5606.66030	0.01769
5604.73162	0.01773
5602.80295	0.01777
5600.87427	0.01781
5598.94559	0.01784
5597.01692	0.01787
5595.08824	0.01791
5593.15957	0.01796
5591.23089	0.01799
5589.30222	0.01801
5587.37354	0.01804
5585.44486	0.01809
5583.51619	0.01814
5581.58751	0.01817
5579.65884	0.01818
5577.73016	0.01820
5575.80149	0.01824
5573.87281	0.01829
5571.94413	0.01832
5570.01546	0.01834
5568.08678	0.01837
5566.15811	0.01841
5564.22943	0.01846
5562.30076	0.01850
5560.37208	0.01854
5558.44340	0.01857
5556.51473	0.01860
5554.58605	0.01863
5552.65738	0.01866
5550.72870	0.01870
5548.80003	0.01874
5546.87135	0.01879
5544.94267	0.01884
5543.01400	0.01889
5541.08532	0.01891
5539.15665	0.01893
5537.22797	0.01896
5535.29930	0.01900
5533.37062	0.01904
5531.44194	0.01905
5529.51327	0.01907
5527.58459	0.01909
5525.65592	0.01914
5523.72724	0.01919
5521.79857	0.01923
5519.86989	0.01927
5517.94121	0.01930
5516.01254	0.01935
5514.08386	0.01940
5512.15519	0.01944
5510.22651	0.01947
5508.29784	0.01950
5506.36916	0.01953
5504.44048	0.01958
5502.51181	0.01962
5500.58313	0.01966
5498.65446	0.01970
5496.72578	0.01972
5494.79711	0.01976
5492.86843	0.01981
5490.93975	0.01987
5489.01108	0.01991
5487.08240	0.01994
5485.15373	0.01995
5483.22505	0.01996
5481.29638	0.02000
5479.36770	0.02005
5477.43902	0.02008
5475.51035	0.02011
5473.58167	0.02015
5471.65300	0.02019
5469.72432	0.02022
5467.79565	0.02027
5465.86697	0.02031
5463.93829	0.02034
5462.00962	0.02038
5460.08094	0.02043
5458.15227	0.02047
5456.22359	0.02051
5454.29492	0.02055
5452.36624	0.02060
5450.43756	0.02063
5448.50889	0.02066
5446.58021	0.02069
5444.65154	0.02073
5442.72286	0.02077
5440.79419	0.02080
5438.86551	0.02083
5436.93683	0.02086
5435.00816	0.02089
5433.07948	0.02094
5431.15081	0.02099
5429.22213	0.02102
5427.29346	0.02106
5425.36478	0.02112
5423.43610	0.02116
5421.50743	0.02122
5419.57875	0.02127
5417.65008	0.02129
5415.72140	0.02130
5413.79273	0.02133
5411.86405	0.02136
5409.93537	0.02140
5408.00670	0.02144
5406.07802	0.02149
5404.14935	0.02154
5402.22067	0.02158
5400.29200	0.02162
5398.36332	0.02166
5396.43464	0.02170
5394.50597	0.02173
5392.57729	0.02176
5390.64862	0.02181
5388.71994	0.02184
5386.79127	0.02186
5384.86259	0.02190
5382.93391	0.02197
5381.00524	0.02203
5379.07656	0.02206
5377.14789	0.02206
5375.21921	0.02210
5373.29054	0.02217
5371.36186	0.02225
5369.43318	0.02230
5367.50451	0.02234
5365.57583	0.02238
5363.64716	0.02242
5361.71848	0.02246
5359.78981	0.02250
5357.86113	0.02252
5355.93245	0.02254
5354.00378	0.02256
5352.07510	0.02259
5350.14643	0.02263
5348.21775	0.02266
5346.28908	0.02270
5344.36040	0.02274
5342.43172	0.02280
5340.50305	0.02284
5338.57437	0.02285
5336.64570	0.02289
5334.71702	0.02295
5332.78835	0.02302
5330.85967	0.02308
5328.93099	0.02311
5327.00232	0.02313
5325.07364	0.02318
5323.14497	0.02324
5321.21629	0.02329
5319.28762	0.02333
5317.35894	0.02338
5315.43026	0.02343
5313.50159	0.02347
5311.57291	0.02350
5309.64424	0.02354
5307.71556	0.02357
5305.78689	0.02361
5303.85821	0.02366
5301.92953	0.02369
5300.00086	0.02373
5298.07218	0.02378
5296.14351	0.02384
5294.21483	0.02389
5292.28616	0.02394
5290.35748	0.02398
5288.42880	0.02402
5286.50013	0.02405
5284.57145	0.02409
5282.64278	0.02415
5280.71410	0.02420
5278.78543	0.02424
5276.85675	0.02427
5274.92807	0.02431
5272.99940	0.02435
5271.07072	0.02438
5269.14205	0.02441
5267.21337	0.02443
5265.28470	0.02446
5263.35602	0.02451
5261.42734	0.02458
5259.49867	0.02464
5257.56999	0.02467
5255.64132	0.02469
5253.71264	0.02472
5251.78397	0.02477
5249.85529	0.02482
5247.92661	0.02486
5245.99794	0.02489
5244.06926	0.02492
5242.14059	0.02497
5240.21191	0.02504
5238.28324	0.02511
5236.35456	0.02516
5234.42588	0.02520
5232.49721	0.02524
5230.56853	0.02527
5228.63986	0.02531
5226.71118	0.02535
5224.78251	0.02539
5222.85383	0.02544
5220.92515	0.02548
5218.99648	0.02552
5217.06780	0.02556
5215.13913	0.02562
5213.21045	0.02567
5211.28178	0.02570
5209.35310	0.02573
5207.42442	0.02575
5205.49575	0.02580
5203.56707	0.02587
5201.63840	0.02594
5199.70972	0.02599
5197.78105	0.02603
5195.85237	0.02607
5193.92369	0.02609
5191.99502	0.02614
5190.06634	0.02621
5188.13767	0.02627
5186.20899	0.02631
5184.28032	0.02633
5182.35164	0.02637
5180.42296	0.02642
5178.49429	0.02647
5176.56561	0.02653
5174.63694	0.02658
5172.70826	0.02662
5170.77959	0.02665
5168.85091	0.02668
5166.92223	0.02673
5164.99356	0.02677
5163.06488	0.02681
5161.13621	0.02686
5159.20753	0.02692
5157.27886	0.02698
5155.35018	0.02701
5153.42150	0.02704
5151.49283	0.02709
5149.56415	0.02714
5147.63548	0.02719
5145.70680	0.02723
5143.77813	0.02727
5141.84945	0.02730
5139.92077	0.02735
5137.99210	0.02741
5136.06342	0.02745
5134.13475	0.02750
5132.20607	0.02755
5130.27740	0.02761
5128.34872	0.02767
5126.42004	0.02773
5124.49137	0.02778
5122.56269	0.02780
5120.63402	0.02781
5118.70534	0.02785
5116.77667	0.02793
5114.84799	0.02801
5112.91931	0.02806
5110.99064	0.02809
5109.06196	0.02811
5107.13329	0.02815
5105.20461	0.02819
5103.27594	0.02824
5101.34726	0.02828
5099.41858	0.02833
5097.48991	0.02837
5095.56123	0.02842
5093.63256	0.02847
5091.70388	0.02853
5089.77521	0.02858
5087.84653	0.02863
5085.91785	0.02866
5083.98918	0.02870
5082.06050	0.02873
5080.13183	0.02878
5078.20315	0.02883
5076.27448	0.02888
5074.34580	0.02894
5072.41712	0.02901
5070.48845	0.02906
5068.55977	0.02911
5066.63110	0.02917
5064.70242	0.02921
5062.77375	0.02924
5060.84507	0.02927
5058.91639	0.02931
5056.98772	0.02935
5055.05904	0.02938
5053.13037	0.02944
5051.20169	0.02951
5049.27302	0.02957
5047.34434	0.02961
5045.41566	0.02965
5043.48699	0.02971
5041.55831	0.02976
5039.62964	0.02980
5037.70096	0.02985
5035.77229	0.02991
5033.84361	0.02996
5031.91493	0.03000
5029.98626	0.03004
5028.05758	0.03009
5026.12891	0.03013
5024.20023	0.03019
5022.27156	0.03025
5020.34288	0.03031
5018.41420	0.03037
5016.48553	0.03041
5014.55685	0.03043
5012.62818	0.03045
5010.69950	0.03049
5008.77083	0.03054
5006.84215	0.03061
5004.91347	0.03068
5002.98480	0.03073
5001.05612	0.03078
4999.12745	0.03084
4997.19877	0.03090
4995.27010	0.03094
4993.34142	0.03099
4991.41274	0.03104
4989.48407	0.03109
4987.55539	0.03115
4985.62672	0.03120
4983.69804	0.03123
4981.76937	0.03126
4979.84069	0.03131
4977.91201	0.03137
4975.98334	0.03143
4974.05466	0.03150
4972.12599	0.03157
4970.19731	0.03163
4968.26864	0.03166
4966.33996	0.03168
4964.41128	0.03172
4962.48261	0.03175
4960.55393	0.03178
4958.62526	0.03184
4956.69658	0.03192
4954.76791	0.03199
4952.83923	0.03204
4950.91055	0.03209
4948.98188	0.03214
4947.05320	0.03218
4945.12453	0.03223
4943.19585	0.03227
4941.26718	0.03233
4939.33850	0.03240
4937.40982	0.03248
4935.48115	0.03253
4933.55247	0.03256
4931.62380	0.03261
4929.69512	0.03267
4927.76645	0.03273
4925.83777	0.03278
4923.90909	0.03283
4921.98042	0.03287
4920.05174	0.03291
4918.12307	0.03297
4916.19439	0.03304
4914.26572	0.03311
4912.33704	0.03314
4910.40836	0.03318
4908.47969	0.03324
4906.55101	0.03330
4904.62234	0.03335
4902.69366	0.03341
4900.76499	0.03346
4898.83631	0.03349
4896.90763	0.03352
4894.97896	0.03358
4893.05028	0.03365
4891.12161	0.03371
4889.19293	0.03376
4887.26426	0.03379
4885.33558	0.03384
4883.40690	0.03389
4881.47823	0.03395
4879.54955	0.03404
4877.62088	0.03411
4875.69220	0.03416
4873.76353	0.03420
4871.83485	0.03422
4869.90617	0.03425
4867.97750	0.03431
4866.04882	0.03438
4864.12015	0.03445
4862.19147	0.03450
4860.26280	0.03456
4858.33412	0.03462
4856.40544	0.03468
4854.47677	0.03473
4852.54809	0.03479
4850.61942	0.03486
4848.69074	0.03492
4846.76207	0.03496
4844.83339	0.03499
4842.90471	0.03504
4840.97604	0.03509
4839.04736	0.03514
4837.11869	0.03520
4835.19001	0.03527
4833.26134	0.03533
4831.33266	0.03538
4829.40398	0.03544
4827.47531	0.03550
4825.54663	0.03557
4823.61796	0.03562
4821.68928	0.03569
4819.76061	0.03576
4817.83193	0.03581
4815.90325	0.03584
4813.97458	0.03588
4812.04590	0.03594
4810.11723	0.03600
4808.18855	0.03606
4806.25988	0.03614
4804.33120	0.03621
4802.40252	0.03627
4800.47385	0.03633
4798.54517	0.03638
4796.61650	0.03641
4794.68782	0.03645
4792.75915	0.03650
4790.83047	0.03654
4788.90179	0.03660
4786.97312	0.03667
4785.04444	0.03675
4783.11577	0.03680
4781.18709	0.03685
4779.25842	0.03689
4777.32974	0.03694
4775.40106	0.03703
4773.47239	0.03711
4771.54371	0.03718
4769.61504	0.03723
4767.68636	0.03727
4765.75769	0.03731
4763.82901	0.03737
4761.90033	0.03745
4759.97166	0.03753
4758.04298	0.03757
4756.11431	0.03760
4754.18563	0.03766
4752.25696	0.03774
4750.32828	0.03781
4748.39960	0.03787
4746.47093	0.03792
4744.54225	0.03798
4742.61358	0.03804
4740.68490	0.03811
4738.75623	0.03818
4736.82755	0.03824
4734.89887	0.03829
4732.97020	0.03835
4731.04152	0.03840
4729.11285	0.03846
4727.18417	0.03852
4725.25550	0.03858
4723.32682	0.03865
4721.39814	0.03871
4719.46947	0.03877
4717.54079	0.03883
4715.61212	0.03890
4713.68344	0.03896
4711.75477	0.03901
4709.82609	0.03906
4707.89741	0.03913
4705.96874	0.03920
4704.04006	0.03925
4702.11139	0.03929
4700.18271	0.03936
4698.25404	0.03943
4696.32536	0.03950
4694.39668	0.03956
4692.46801	0.03962
4690.53933	0.03969
4688.61066	0.03977
4686.68198	0.03983
4684.75331	0.03987
4682.82463	0.03992
4680.89595	0.03998
4678.96728	0.04006
4677.03860	0.04014
4675.10993	0.04022
4673.18125	0.04030
4671.25258	0.04035
4669.32390	0.04041
4667.39522	0.04047
4665.46655	0.04054
4663.53787	0.04059
4661.60920	0.04065
4659.68052	0.04073
4657.75185	0.04079
4655.82317	0.04084
4653.89449	0.04091
4651.96582	0.04098
4650.03714	0.04103
4648.10847	0.04108
4646.17979	0.04115
4644.25112	0.04123
4642.32244	0.04131
4640.39376	0.04140
4638.46509	0.04147
4636.53641	0.04154
4634.60774	0.04161
4632.67906	0.04167
4630.75039	0.04173
4628.82171	0.04180
4626.89303	0.04187
4624.96436	0.04194
4623.03568	0.04199
4621.10701	0.04206
4619.17833	0.04212
4617.24966	0.04217
4615.32098	0.04222
4613.39230	0.04228
4611.46363	0.04236
4609.53495	0.04245
4607.60628	0.04253
4605.67760	0.04258
4603.74893	0.04262
4601.82025	0.04268
4599.89157	0.04277
4597.96290	0.04286
4596.03422	0.04293
4594.10555	0.04300
4592.17687	0.04308
4590.24820	0.04317
4588.31952	0.04325
4586.39084	0.04330
4584.46217	0.04336
4582.53349	0.04344
4580.60482	0.04353
4578.67614	0.04361
4576.74747	0.04366
4574.81879	0.04370
4572.89011	0.04375
4570.96144	0.04381
4569.03276	0.04390
4567.10409	0.04400
4565.17541	0.04406
4563.24674	0.04412
4561.31806	0.04419
4559.38938	0.04427
4557.46071	0.04435
4555.53203	0.04444
4553.60336	0.04453
4551.67468	0.04460
4549.74601	0.04465
4547.81733	0.04472
4545.88865	0.04482
4543.95998	0.04489
4542.03130	0.04492
4540.10263	0.04496
4538.17395	0.04505
4536.24528	0.04516
4534.31660	0.04525
4532.38792	0.04533
4530.45925	0.04539
4528.53057	0.04547
4526.60190	0.04555
4524.67322	0.04561
4522.74455	0.04567
4520.81587	0.04573
4518.88719	0.04581
4516.95852	0.04587
4515.02984	0.04594
4513.10117	0.04601
4511.17249	0.04610
4509.24382	0.04621
4507.31514	0.04630
4505.38646	0.04637
4503.45779	0.04644
4501.52911	0.04652
4499.60044	0.04660
4497.67176	0.04669
4495.74309	0.04677
4493.81441	0.04685
4491.88573	0.04692
4489.95706	0.04699
4488.02838	0.04708
4486.09971	0.04716
4484.17103	0.04724
4482.24236	0.04732
4480.31368	0.04740
4478.38500	0.04748
4476.45633	0.04755
4474.52765	0.04763
4472.59898	0.04771
4470.67030	0.04778
4468.74163	0.04784
4466.81295	0.04792
4464.88427	0.04803
4462.95560	0.04812
4461.02692	0.04819
4459.09825	0.04826
4457.16957	0.04835
4455.24090	0.04844
4453.31222	0.04853
4451.38354	0.04860
4449.45487	0.04869
4447.52619	0.04878
4445.59752	0.04886
4443.66884	0.04893
4441.74017	0.04901
4439.81149	0.04910
4437.88281	0.04919
4435.95414	0.04926
4434.02546	0.04933
4432.09679	0.04944
4430.16811	0.04955
4428.23944	0.04966
4426.31076	0.04974
4424.38208	0.04981
4422.45341	0.04987
4420.52473	0.04995
4418.59606	0.05005
4416.66738	0.05013
4414.73871	0.05020
4412.81003	0.05030
4410.88135	0.05042
4408.95268	0.05052
4407.02400	0.05059
4405.09533	0.05067
4403.16665	0.05076
4401.23798	0.05085
4399.30930	0.05093
4397.38062	0.05102
4395.45195	0.05112
4393.52327	0.05120
4391.59460	0.05127
4389.66592	0.05136
4387.73725	0.05145
4385.80857	0.05155
4383.87989	0.05164
4381.95122	0.05174
4380.02254	0.05183
4378.09387	0.05192
4376.16519	0.05201
4374.23652	0.05209
4372.30784	0.05216
4370.37916	0.05224
4368.45049	0.05232
4366.52181	0.05241
4364.59314	0.05251
4362.66446	0.05260
4360.73579	0.05269
4358.80711	0.05281
4356.87843	0.05292
4354.94976	0.05301
4353.02108	0.05311
4351.09241	0.05320
4349.16373	0.05328
4347.23506	0.05335
4345.30638	0.05344
4343.37770	0.05355
4341.44903	0.05364
4339.52035	0.05373
4337.59168	0.05383
4335.66300	0.05391
4333.73433	0.05400
4331.80565	0.05414
4329.87697	0.05427
4327.94830	0.05434
4326.01962	0.05439
4324.09095	0.05446
4322.16227	0.05456
4320.23360	0.05467
4318.30492	0.05479
4316.37624	0.05490
4314.44757	0.05499
4312.51889	0.05508
4310.59022	0.05516
4308.66154	0.05526
4306.73287	0.05537
4304.80419	0.05547
4302.87551	0.05557
4300.94684	0.05568
4299.01816	0.05578
4297.08949	0.05588
4295.16081	0.05598
4293.23214	0.05610
4291.30346	0.05621
4289.37478	0.05630
4287.44611	0.05638
4285.51743	0.05648
4283.58876	0.05661
4281.66008	0.05672
4279.73141	0.05682
4277.80273	0.05692
4275.87405	0.05704
4273.94538	0.05715
4272.01670	0.05723
4270.08803	0.05731
4268.15935	0.05741
4266.23068	0.05751
4264.30200	0.05763
4262.37332	0.05774
4260.44465	0.05785
4258.51597	0.05796
4256.58730	0.05807
4254.65862	0.05816
4252.72995	0.05825
4250.80127	0.05836
4248.87259	0.05848
4246.94392	0.05859
4245.01524	0.05870
4243.08657	0.05880
4241.15789	0.05890
4239.22922	0.05900
4237.30054	0.05909
4235.37186	0.05918
4233.44319	0.05930
4231.51451	0.05943
4229.58584	0.05955
4227.65716	0.05966
4225.72849	0.05975
4223.79981	0.05985
4221.87113	0.05996
4219.94246	0.06008
4218.01378	0.06019
4216.08511	0.06030
4214.15643	0.06042
4212.22776	0.06052
4210.29908	0.06061
4208.37040	0.06071
4206.44173	0.06082
4204.51305	0.06092
4202.58438	0.06106
4200.65570	0.06120
4198.72703	0.06132
4196.79835	0.06144
4194.86968	0.06157
4192.94100	0.06167
4191.01232	0.06176
4189.08365	0.06187
4187.15497	0.06198
4185.22630	0.06210
4183.29762	0.06223
4181.36895	0.06235
4179.44027	0.06245
4177.51159	0.06257
4175.58292	0.06268
4173.65424	0.06279
4171.72557	0.06290
4169.79689	0.06301
4167.86822	0.06315
4165.93954	0.06330
4164.01086	0.06342
4162.08219	0.06351
4160.15351	0.06361
4158.22484	0.06373
4156.29616	0.06384
4154.36749	0.06396
4152.43881	0.06408
4150.51013	0.06420
4148.58146	0.06433
4146.65278	0.06447
4144.72411	0.06460
4142.79543	0.06469
4140.86676	0.06480
4138.93808	0.06494
4137.00940	0.06506
4135.08073	0.06517
4133.15205	0.06528
4131.22338	0.06539
4129.29470	0.06551
4127.36603	0.06564
4125.43735	0.06579
4123.50867	0.06593
4121.58000	0.06606
4119.65132	0.06619
4117.72265	0.06632
4115.79397	0.06644
4113.86530	0.06654
4111.93662	0.06665
4110.00794	0.06675
4108.07927	0.06686
4106.15059	0.06697
4104.22192	0.06711
4102.29324	0.06726
4100.36457	0.06741
4098.43589	0.06756
4096.50721	0.06770
4094.57854	0.06783
4092.64986	0.06795
4090.72119	0.06805
4088.79251	0.06816
4086.86384	0.06828
4084.93516	0.06840
4083.00648	0.06852
4081.07781	0.06864
4079.14913	0.06879
4077.22046	0.06893
4075.29178	0.06906
4073.36311	0.06916
4071.43443	0.06928
4069.50575	0.06943
4067.57708	0.06957
4065.64840	0.06969
4063.71973	0.06983
4061.79105	0.06998
4059.86238	0.07013
4057.93370	0.07026
4056.00502	0.07038
4054.07635	0.07049
4052.14767	0.07061
4050.21900	0.07076
4048.29032	0.07091
4046.36165	0.07105
4044.43297	0.07118
4042.50429	0.07130
4040.57562	0.07144
4038.64694	0.07157
4036.71827	0.07169
4034.78959	0.07180
4032.86092	0.07193
4030.93224	0.07208
4029.00356	0.07222
4027.07489	0.07235
4025.14621	0.07249
4023.21754	0.07264
4021.28886	0.07278
4019.36019	0.07291
4017.43151	0.07304
4015.50283	0.07317
4013.57416	0.07330
4011.64548	0.07343
4009.71681	0.07353
4007.78813	0.07366
4005.85946	0.07382
4003.93078	0.07400
4002.00210	0.07416
4000.07343	0.07432
3998.14475	0.07446
3996.21608	0.07457
3994.28740	0.07470
3992.35873	0.07484
3990.43005	0.07498
3988.50137	0.07513
3986.57270	0.07528
3984.64402	0.07542
3982.71535	0.07553
3980.78667	0.07564
3978.85800	0.07576
3976.92932	0.07589
3975.00064	0.07604
3973.07197	0.07621
3971.14329	0.07638
3969.21462	0.07653
3967.28594	0.07668
3965.35727	0.07682
3963.42859	0.07692
3961.49991	0.07704
3959.57124	0.07722
3957.64256	0.07743
3955.71389	0.07757
3953.78521	0.07766
3951.85654	0.07774
3949.92786	0.07786
3947.99918	0.07802
3946.07051	0.07819
3944.14183	0.07831
3942.21316	0.07844
3940.28448	0.07863
3938.35581	0.07883
3936.42713	0.07897
3934.49845	0.07901
3932.56978	0.07905
3930.64110	0.07922
3928.71243	0.07944
3926.78375	0.07958
3924.85508	0.07969
3922.92640	0.07985
3920.99772	0.07998
3919.06905	0.08007
3917.14037	0.08021
3915.21170	0.08046
3913.28302	0.08074
3911.35435	0.08094
3909.42567	0.08105
3907.49699	0.08105
3905.56832	0.08094
3903.63964	0.08088
3901.71097	0.08100
3899.78229	0.08127
3897.85362	0.08167
3895.92494	0.08201
3893.99626	0.08214
3892.06759	0.08218
3890.13891	0.08233
3888.21024	0.08245
3886.28156	0.08248
3884.35289	0.08263
3882.42421	0.08281
3880.49553	0.08296
3878.56686	0.08322
3876.63818	0.08344
3874.70951	0.08354
3872.78083	0.08360
3870.85216	0.08364
3868.92348	0.08378
3866.99480	0.08399
3865.06613	0.08416
3863.13745	0.08439
3861.20878	0.08470
3859.28010	0.08490
3857.35143	0.08475
3855.42275	0.08433
3853.49407	0.08428
3851.56540	0.08487
3849.63672	0.08556
3847.70805	0.08593
3845.77937	0.08605
3843.85070	0.08606
3841.92202	0.08607
3839.99334	0.08611
3838.06467	0.08623
3836.13599	0.08647
3834.20732	0.08674
3832.27864	0.08700
3830.34997	0.08725
3828.42129	0.08745
3826.49261	0.08756
3824.56394	0.08761
3822.63526	0.08755
3820.70659	0.08764
3818.77791	0.08791
3816.84924	0.08816
3814.92056	0.08847
3812.99188	0.08886
3811.06321	0.08909
3809.13453	0.08908
3807.20586	0.08908
3805.27718	0.08921
3803.34851	0.08928
3801.41983	0.08938
3799.49115	0.08968
3797.56248	0.08998
3795.63380	0.09024
3793.70513	0.09055
3791.77645	0.09081
3789.84778	0.09096
3787.91910	0.09108
3785.99042	0.09121
3784.06175	0.09137
3782.13307	0.09149
3780.20440	0.09158
3778.27572	0.09176
3776.34705	0.09203
3774.41837	0.09225
3772.48969	0.09231
3770.56102	0.09234
3768.63234	0.09247
3766.70367	0.09268
3764.77499	0.09290
3762.84632	0.09309
3760.91764	0.09319
3758.98896	0.09332
3757.06029	0.09351
3755.13161	0.09355
3753.20294	0.09336
3751.27426	0.09321
3749.34559	0.09337
3747.41691	0.09352
3745.48823	0.09345
3743.55956	0.09373
3741.63088	0.09441
3739.70221	0.09474
3737.77353	0.09457
3735.84486	0.09451
3733.91618	0.09483
3731.98750	0.09536
3730.05883	0.09578
3728.13015	0.09598
3726.20148	0.09607
3724.27280	0.09624
3722.34413	0.09647
3720.41545	0.09673
3718.48677	0.09700
3716.55810	0.09717
3714.62942	0.09715
3712.70075	0.09706
3710.77207	0.09718
3708.84340	0.09759
3706.91472	0.09801
3704.98604	0.09820
3703.05737	0.09822
3701.12869	0.09839
3699.20002	0.09872
3697.27134	0.09900
3695.34267	0.09912
3693.41399	0.09909
3691.48531	0.09897
3689.55664	0.09902
3687.62796	0.09937
3685.69929	0.09984
3683.77061	0.10015
3681.84194	0.10025
3679.91326	0.10024
3677.98458	0.10008
3676.05591	0.09997
3674.12723	0.10018
3672.19856	0.10046
3670.26988	0.10062
3668.34121	0.10096
3666.41253	0.10143
3664.48385	0.10178
3662.55518	0.10198
3660.62650	0.10211
3658.69783	0.10212
3656.76915	0.10211
3654.84048	0.10220
3652.91180	0.10216
3650.98312	0.10186
3649.05445	0.10165
3647.12577	0.10192
3645.19710	0.10253
3643.26842	0.10307
3641.33975	0.10341
3639.41107	0.10365
3637.48239	0.10383
3635.55372	0.10391
3633.62504	0.10391
3631.69637	0.10373
3629.76769	0.10352
3627.83902	0.10376
3625.91034	0.10434
3623.98166	0.10471
3622.05299	0.10472
3620.12431	0.10462
3618.19564	0.10468
3616.26696	0.10486
3614.33829	0.10497
3612.40961	0.10502
3610.48093	0.10508
3608.55226	0.10523
3606.62358	0.10556
3604.69491	0.10590
3602.76623	0.10609
3600.83756	0.10617
3598.90888	0.10626
3596.98020	0.10636
3595.05153	0.10649
3593.12285	0.10666
3591.19418	0.10670
3589.26550	0.10659
3587.33683	0.10666
3585.40815	0.10702
3583.47947	0.10739
3581.55080	0.10761
3579.62212	0.10778
3577.69345	0.10796
3575.76477	0.10812
3573.83610	0.10825
3571.90742	0.10829
3569.97874	0.10816
3568.05007	0.10802
3566.12139	0.10817
3564.19272	0.10856
3562.26404	0.10889
3560.33537	0.10910
3558.40669	0.10927
3556.47801	0.10942
3554.54934	0.10954
3552.62066	0.10965
3550.69199	0.10977
3548.76331	0.10982
3546.83464	0.10983
3544.90596	0.10997
3542.97728	0.11022
3541.04861	0.11044
3539.11993	0.11057
3537.19126	0.11065
3535.26258	0.11074
3533.33391	0.11083
3531.40523	0.11087
3529.47655	0.11090
3527.54788	0.11095
3525.61920	0.11101
3523.69053	0.11111
3521.76185	0.11123
3519.83318	0.11135
3517.90450	0.11146
3515.97582	0.11157
3514.04715	0.11165
3512.11847	0.11167
3510.18980	0.11170
3508.26112	0.11178
3506.33245	0.11188
3504.40377	0.11192
3502.47509	0.11196
3500.54642	0.11203
3498.61774	0.11210
3496.68907	0.11214
3494.76039	0.11220
3492.83172	0.11223
3490.90304	0.11225
3488.97436	0.11228
3487.04569	0.11235
3485.11701	0.11243
3483.18834	0.11250
3481.25966	0.11258
3479.33099	0.11269
3477.40231	0.11280
3475.47363	0.11292
3473.54496	0.11309
3471.61628	0.11326
3469.68761	0.11342
3467.75893	0.11358
3465.83026	0.11374
3463.90158	0.11391
3461.97290	0.11412
3460.04423	0.11436
3458.11555	0.11458
3456.18688	0.11478
3454.25820	0.11496
3452.32953	0.11511
3450.40085	0.11523
3448.47217	0.11536
3446.54350	0.11552
3444.61482	0.11573
3442.68615	0.11594
3440.75747	0.11617
3438.82880	0.11641
3436.90012	0.11670
3434.97144	0.11703
3433.04277	0.11739
3431.11409	0.11778
3429.18542	0.11816
3427.25674	0.11854
3425.32807	0.11891
3423.39939	0.11924
3421.47071	0.11954
3419.54204	0.11987
3417.61336	0.12020
3415.68469	0.12052
3413.75601	0.12080
3411.82734	0.12108
3409.89866	0.12137
3407.96998	0.12164
3406.04131	0.12187
3404.11263	0.12208
3402.18396	0.12233
3400.25528	0.12259
3398.32661	0.12285
3396.39793	0.12308
3394.46925	0.12332
3392.54058	0.12357
3390.61190	0.12384
3388.68323	0.12411
3386.75455	0.12435
3384.82588	0.12458
3382.89720	0.12483
3380.96852	0.12510
3379.03985	0.12537
3377.11117	0.12562
3375.18250	0.12585
3373.25382	0.12607
3371.32515	0.12625
3369.39647	0.12646
3367.46779	0.12671
3365.53912	0.12697
3363.61044	0.12721
3361.68177	0.12744
3359.75309	0.12766
3357.82442	0.12786
3355.89574	0.12807
3353.96706	0.12831
3352.03839	0.12858
3350.10971	0.12881
3348.18104	0.12902
3346.25236	0.12924
3344.32369	0.12949
3342.39501	0.12975
3340.46633	0.12999
3338.53766	0.13020
3336.60898	0.13042
3334.68031	0.13067
3332.75163	0.13092
3330.82296	0.13113
3328.89428	0.13132
3326.96560	0.13153
3325.03693	0.13178
3323.10825	0.13202
3321.17958	0.13226
3319.25090	0.13249
3317.32223	0.13271
3315.39355	0.13293
3313.46487	0.13318
3311.53620	0.13343
3309.60752	0.13366
3307.67885	0.13388
3305.75017	0.13416
3303.82150	0.13445
3301.89282	0.13470
3299.96414	0.13492
3298.03547	0.13513
3296.10679	0.13534
3294.17812	0.13557
3292.24944	0.13582
3290.32077	0.13609
3288.39209	0.13637
3286.46341	0.13663
3284.53474	0.13690
3282.60606	0.13715
3280.67739	0.13739
3278.74871	0.13763
3276.82004	0.13786
3274.89136	0.13808
3272.96268	0.13833
3271.03401	0.13859
3269.10533	0.13883
3267.17666	0.13908
3265.24798	0.13933
3263.31931	0.13960
3261.39063	0.13985
3259.46195	0.14010
3257.53328	0.14037
3255.60460	0.14064
3253.67593	0.14085
3251.74725	0.14107
3249.81858	0.14134
3247.88990	0.14160
3245.96122	0.14185
3244.03255	0.14210
3242.10387	0.14237
3240.17520	0.14264
3238.24652	0.14290
3236.31785	0.14313
3234.38917	0.14335
3232.46049	0.14359
3230.53182	0.14385
3228.60314	0.14411
3226.67447	0.14438
3224.74579	0.14465
3222.81712	0.14488
3220.88844	0.14510
3218.95976	0.14533
3217.03109	0.14558
3215.10241	0.14582
3213.17374	0.14606
3211.24506	0.14631
3209.31639	0.14658
3207.38771	0.14685
3205.45903	0.14712
3203.53036	0.14737
3201.60168	0.14763
3199.67301	0.14792
3197.74433	0.14819
3195.81566	0.14845
3193.88698	0.14874
3191.95830	0.14903
3190.02963	0.14928
3188.10095	0.14952
3186.17228	0.14976
3184.24360	0.15003
3182.31493	0.15033
3180.38625	0.15065
3178.45757	0.15094
3176.52890	0.15121
3174.60022	0.15146
3172.67155	0.15172
3170.74287	0.15198
3168.81420	0.15224
3166.88552	0.15248
3164.95684	0.15271
3163.02817	0.15297
3161.09949	0.15324
3159.17082	0.15349
3157.24214	0.15374
3155.31347	0.15402
3153.38479	0.15429
3151.45611	0.15453
3149.52744	0.15478
3147.59876	0.15504
3145.67009	0.15530
3143.74141	0.15555
3141.81274	0.15581
3139.88406	0.15610
3137.95538	0.15637
3136.02671	0.15663
3134.09803	0.15686
3132.16936	0.15711
3130.24068	0.15739
3128.31201	0.15767
3126.38333	0.15791
3124.45465	0.15813
3122.52598	0.15840
3120.59730	0.15870
3118.66863	0.15896
3116.73995	0.15919
3114.81128	0.15943
3112.88260	0.15967
3110.95392	0.15993
3109.02525	0.16023
3107.09657	0.16053
3105.16790	0.16081
3103.23922	0.16105
3101.31055	0.16130
3099.38187	0.16155
3097.45319	0.16181
3095.52452	0.16206
3093.59584	0.16233
3091.66717	0.16260
3089.73849	0.16286
3087.80982	0.16310
3085.88114	0.16335
3083.95246	0.16359
3082.02379	0.16383
3080.09511	0.16409
3078.16644	0.16439
3076.23776	0.16468
3074.30909	0.16494
3072.38041	0.16517
3070.45173	0.16542
3068.52306	0.16567
3066.59438	0.16592
3064.66571	0.16618
3062.73703	0.16645
3060.80836	0.16671
3058.87968	0.16696
3056.95100	0.16721
3055.02233	0.16748
3053.09365	0.16774
3051.16498	0.16799
3049.23630	0.16825
3047.30763	0.16852
3045.37895	0.16877
3043.45027	0.16901
3041.52160	0.16926
3039.59292	0.16951
3037.66425	0.16977
3035.73557	0.17004
3033.80690	0.17031
3031.87822	0.17056
3029.94954	0.17080
3028.02087	0.17105
3026.09219	0.17130
3024.16352	0.17158
3022.23484	0.17189
3020.30617	0.17216
3018.37749	0.17240
3016.44881	0.17264
3014.52014	0.17290
3012.59146	0.17318
3010.66279	0.17347
3008.73411	0.17373
3006.80544	0.17396
3004.87676	0.17417
3002.94808	0.17443
3001.01941	0.17473
2999.09073	0.17502
2997.16206	0.17523
2995.23338	0.17541
2993.30471	0.17562
2991.37603	0.17587
2989.44735	0.17612
2987.51868	0.17634
2985.59000	0.17652
2983.66133	0.17667
2981.73265	0.17679
2979.80398	0.17692
2977.87530	0.17706
2975.94662	0.17714
2974.01795	0.17715
2972.08927	0.17711
2970.16060	0.17706
2968.23192	0.17703
2966.30325	0.17705
2964.37457	0.17716
2962.44589	0.17733
2960.51722	0.17755
2958.58854	0.17781
2956.65987	0.17813
2954.73119	0.17847
2952.80252	0.17882
2950.87384	0.17916
2948.94516	0.17947
2947.01649	0.17972
2945.08781	0.17991
2943.15914	0.18005
2941.23046	0.18010
2939.30179	0.18013
2937.37311	0.18014
2935.44443	0.18013
2933.51576	0.18007
2931.58708	0.18000
2929.65841	0.17994
2927.72973	0.17989
2925.80106	0.17987
2923.87238	0.17986
2921.94370	0.17985
2920.01503	0.17993
2918.08635	0.18021
2916.15768	0.18081
2914.22900	0.18165
2912.30033	0.18254
2910.37165	0.18334
2908.44297	0.18401
2906.51430	0.18456
2904.58562	0.18501
2902.65695	0.18540
2900.72827	0.18582
2898.79960	0.18624
2896.87092	0.18665
2894.94224	0.18703
2893.01357	0.18739
2891.08489	0.18773
2889.15622	0.18805
2887.22754	0.18835
2885.29887	0.18865
2883.37019	0.18899
2881.44151	0.18930
2879.51284	0.18956
2877.58416	0.18978
2875.65549	0.19003
2873.72681	0.19029
2871.79814	0.19055
2869.86946	0.19078
2867.94078	0.19100
2866.01211	0.19118
2864.08343	0.19135
2862.15476	0.19150
2860.22608	0.19160
2858.29741	0.19165
2856.36873	0.19164
2854.44005	0.19157
2852.51138	0.19153
2850.58270	0.19167
2848.65403	0.19219
2846.72535	0.19303
2844.79668	0.19391
2842.86800	0.19467
2840.93932	0.19533
2839.01065	0.19591
2837.08197	0.19639
2835.15330	0.19678
2833.22462	0.19714
2831.29595	0.19747
2829.36727	0.19779
2827.43859	0.19809
2825.50992	0.19840
2823.58124	0.19871
2821.65257	0.19901
2819.72389	0.19930
2817.79522	0.19956
2815.86654	0.19984
2813.93786	0.20017
2812.00919	0.20051
2810.08051	0.20080
2808.15184	0.20109
2806.22316	0.20141
2804.29449	0.20173
2802.36581	0.20201
2800.43713	0.20227
2798.50846	0.20254
2796.57978	0.20280
2794.65111	0.20308
2792.72243	0.20339
2790.79376	0.20369
2788.86508	0.20395
2786.93640	0.20423
2785.00773	0.20454
2783.07905	0.20485
2781.15038	0.20514
2779.22170	0.20543
2777.29303	0.20571
2775.36435	0.20595
2773.43567	0.20621
2771.50700	0.20650
2769.57832	0.20678
2767.64965	0.20704
2765.72097	0.20731
2763.79230	0.20759
2761.86362	0.20787
2759.93494	0.20815
2758.00627	0.20843
2756.07759	0.20872
2754.14892	0.20901
2752.22024	0.20930
2750.29157	0.20958
2748.36289	0.20983
2746.43421	0.21007
2744.50554	0.21030
2742.57686	0.21055
2740.64819	0.21083
2738.71951	0.21112
2736.79084	0.21142
2734.86216	0.21171
2732.93348	0.21196
2731.00481	0.21220
2729.07613	0.21246
2727.14746	0.21273
2725.21878	0.21300
2723.29011	0.21326
2721.36143	0.21355
2719.43275	0.21387
2717.50408	0.21415
2715.57540	0.21435
2713.64673	0.21456
2711.71805	0.21483
2709.78938	0.21513
2707.86070	0.21543
2705.93202	0.21571
2704.00335	0.21600
2702.07467	0.21627
2700.14600	0.21651
2698.21732	0.21675
2696.28865	0.21701
2694.35997	0.21728
2692.43129	0.21755
2690.50262	0.21785
2688.57394	0.21813
2686.64527	0.21838
2684.71659	0.21864
2682.78792	0.21893
2680.85924	0.21923
2678.93056	0.21953
2677.00189	0.21980
2675.07321	0.22003
2673.14454	0.22026
2671.21586	0.22052
2669.28719	0.22081
2667.35851	0.22109
2665.42983	0.22136
2663.50116	0.22161
2661.57248	0.22187
2659.64381	0.22215
2657.71513	0.22245
2655.78646	0.22273
2653.85778	0.22300
2651.92910	0.22330
2650.00043	0.22361
2648.07175	0.22389
2646.14308	0.22415
2644.21440	0.22443
2642.28573	0.22471
2640.35705	0.22501
2638.42837	0.22533
2636.49970	0.22565
2634.57102	0.22592
2632.64235	0.22617
2630.71367	0.22644
2628.78500	0.22673
2626.85632	0.22703
2624.92764	0.22731
2622.99897	0.22760
2621.07029	0.22789
2619.14162	0.22818
2617.21294	0.22847
2615.28427	0.22875
2613.35559	0.22904
2611.42691	0.22930
2609.49824	0.22960
2607.56956	0.22993
2605.64089	0.23023
2603.71221	0.23050
2601.78354	0.23079
2599.85486	0.23108
2597.92618	0.23136
2595.99751	0.23164
2594.06883	0.23195
2592.14016	0.23225
2590.21148	0.23252
2588.28281	0.23277
2586.35413	0.23305
2584.42545	0.23335
2582.49678	0.23365
2580.56810	0.23396
2578.63943	0.23428
2576.71075	0.23457
2574.78208	0.23483
2572.85340	0.23508
2570.92472	0.23535
2568.99605	0.23563
2567.06737	0.23592
2565.13870	0.23618
2563.21002	0.23642
2561.28135	0.23669
2559.35267	0.23697
2557.42399	0.23724
2555.49532	0.23752
2553.56664	0.23785
2551.63797	0.23818
2549.70929	0.23846
2547.78062	0.23873
2545.85194	0.23900
2543.92326	0.23927
2541.99459	0.23954
2540.06591	0.23979
2538.13724	0.24004
2536.20856	0.24031
2534.27989	0.24061
2532.35121	0.24091
2530.42253	0.24120
2528.49386	0.24146
2526.56518	0.24173
2524.63651	0.24202
2522.70783	0.24231
2520.77916	0.24261
2518.85048	0.24292
2516.92181	0.24322
2514.99313	0.24351
2513.06445	0.24378
2511.13578	0.24405
2509.20710	0.24435
2507.27843	0.24470
2505.34975	0.24504
2503.42108	0.24534
2501.49240	0.24563
2499.56372	0.24595
2497.63505	0.24628
2495.70637	0.24660
2493.77770	0.24690
2491.84902	0.24720
2489.92035	0.24750
2487.99167	0.24779
2486.06299	0.24810
2484.13432	0.24844
2482.20564	0.24874
2480.27697	0.24903
2478.34829	0.24935
2476.41962	0.24969
2474.49094	0.24998
2472.56226	0.25027
2470.63359	0.25057
2468.70491	0.25090
2466.77624	0.25122
2464.84756	0.25150
2462.91889	0.25175
2460.99021	0.25202
2459.06153	0.25232
2457.13286	0.25263
2455.20418	0.25293
2453.27551	0.25322
2451.34683	0.25350
2449.41816	0.25381
2447.48948	0.25415
2445.56080	0.25445
2443.63213	0.25474
2441.70345	0.25507
2439.77478	0.25540
2437.84610	0.25573
2435.91743	0.25604
2433.98875	0.25632
2432.06007	0.25660
2430.13140	0.25690
2428.20272	0.25719
2426.27405	0.25747
2424.34537	0.25776
2422.41670	0.25804
2420.48802	0.25835
2418.55934	0.25866
2416.63067	0.25897
2414.70199	0.25927
2412.77332	0.25954
2410.84464	0.25983
2408.91597	0.26014
2406.98729	0.26045
2405.05861	0.26076
2403.12994	0.26107
2401.20126	0.26134
2399.27259	0.26162
2397.34391	0.26192
2395.41524	0.26220
2393.48656	0.26247
2391.55788	0.26274
2389.62921	0.26301
2387.70053	0.26330
2385.77186	0.26360
2383.84318	0.26386
2381.91451	0.26407
2379.98583	0.26425
2378.05715	0.26440
2376.12848	0.26448
2374.19980	0.26454
2372.27113	0.26461
2370.34245	0.26466
2368.41378	0.26470
2366.48510	0.26477
2364.55642	0.26492
2362.62775	0.26514
2360.69907	0.26545
2358.77040	0.26582
2356.84172	0.26627
2354.91305	0.26682
2352.98437	0.26747
2351.05569	0.26812
2349.12702	0.26856
2347.19834	0.26871
2345.26967	0.26871
2343.34099	0.26875
2341.41232	0.26890
2339.48364	0.26917
2337.55496	0.26951
2335.62629	0.26983
2333.69761	0.27014
2331.76894	0.27048
2329.84026	0.27084
2327.91159	0.27121
2325.98291	0.27158
2324.05423	0.27195
2322.12556	0.27232
2320.19688	0.27269
2318.26821	0.27309
2316.33953	0.27351
2314.41086	0.27393
2312.48218	0.27432
2310.55350	0.27468
2308.62483	0.27501
2306.69615	0.27534
2304.76748	0.27569
2302.83880	0.27606
2300.91013	0.27645
2298.98145	0.27680
2297.05277	0.27712
2295.12410	0.27743
2293.19542	0.27775
2291.26675	0.27806
2289.33807	0.27835
2287.40940	0.27863
2285.48072	0.27893
2283.55204	0.27923
2281.62337	0.27951
2279.69469	0.27978
2277.76602	0.28007
2275.83734	0.28035
2273.90867	0.28065
2271.97999	0.28098
2270.05131	0.28130
2268.12264	0.28160
2266.19396	0.28193
2264.26529	0.28226
2262.33661	0.28256
2260.40794	0.28282
2258.47926	0.28307
2256.55058	0.28334
2254.62191	0.28363
2252.69323	0.28395
2250.76456	0.28430
2248.83588	0.28464
2246.90721	0.28495
2244.97853	0.28525
2243.04985	0.28555
2241.12118	0.28584
2239.19250	0.28609
2237.26383	0.28634
2235.33515	0.28661
2233.40648	0.28691
2231.47780	0.28723
2229.54912	0.28753
2227.62045	0.28781
2225.69177	0.28813
2223.76310	0.28847
2221.83442	0.28878
2219.90575	0.28906
2217.97707	0.28931
2216.04839	0.28954
2214.11972	0.28981
2212.19104	0.29011
2210.26237	0.29042
2208.33369	0.29072
2206.40502	0.29101
2204.47634	0.29129
2202.54766	0.29157
2200.61899	0.29184
2198.69031	0.29210
2196.76164	0.29238
2194.83296	0.29268
2192.90429	0.29301
2190.97561	0.29335
2189.04693	0.29365
2187.11826	0.29388
2185.18958	0.29412
2183.26091	0.29440
2181.33223	0.29472
2179.40356	0.29503
2177.47488	0.29533
2175.54620	0.29563
2173.61753	0.29595
2171.68885	0.29626
2169.76018	0.29656
2167.83150	0.29690
2165.90283	0.29723
2163.97415	0.29750
2162.04547	0.29776
2160.11680	0.29802
2158.18812	0.29829
2156.25945	0.29860
2154.33077	0.29895
2152.40210	0.29929
2150.47342	0.29962
2148.54474	0.29993
2146.61607	0.30022
2144.68739	0.30048
2142.75872	0.30077
2140.83004	0.30108
2138.90137	0.30139
2136.97269	0.30168
2135.04401	0.30197
2133.11534	0.30226
2131.18666	0.30255
2129.25799	0.30286
2127.32931	0.30318
2125.40064	0.30350
2123.47196	0.30380
2121.54328	0.30410
2119.61461	0.30440
2117.68593	0.30471
2115.75726	0.30503
2113.82858	0.30533
2111.89991	0.30562
2109.97123	0.30593
2108.04255	0.30629
2106.11388	0.30661
2104.18520	0.30685
2102.25653	0.30706
2100.32785	0.30737
2098.39918	0.30771
2096.47050	0.30803
2094.54182	0.30834
2092.61315	0.30864
2090.68447	0.30893
2088.75580	0.30922
2086.82712	0.30952
2084.89845	0.30981
2082.96977	0.31013
2081.04109	0.31045
2079.11242	0.31073
2077.18374	0.31099
2075.25507	0.31128
2073.32639	0.31158
2071.39772	0.31188
2069.46904	0.31218
2067.54036	0.31247
2065.61169	0.31275
2063.68301	0.31305
2061.75434	0.31340
2059.82566	0.31372
2057.89699	0.31403
2055.96831	0.31436
2054.03963	0.31467
2052.11096	0.31495
2050.18228	0.31524
2048.25361	0.31557
2046.32493	0.31590
2044.39626	0.31615
2042.46758	0.31637
2040.53890	0.31663
2038.61023	0.31695
2036.68155	0.31729
2034.75288	0.31762
2032.82420	0.31796
2030.89553	0.31829
2028.96685	0.31859
2027.03817	0.31887
2025.10950	0.31917
2023.18082	0.31949
2021.25215	0.31983
2019.32347	0.32014
2017.39480	0.32040
2015.46612	0.32071
2013.53744	0.32107
2011.60877	0.32140
2009.68009	0.32169
2007.75142	0.32198
2005.82274	0.32228
2003.89407	0.32257
2001.96539	0.32283
2000.03671	0.32309
1998.10804	0.32336
1996.17936	0.32364
1994.25069	0.32385
1992.32201	0.32405
1990.39334	0.32438
1988.46466	0.32478
1986.53598	0.32513
1984.60731	0.32541
1982.67863	0.32567
1980.74996	0.32593
1978.82128	0.32618
1976.89261	0.32644
1974.96393	0.32668
1973.03525	0.32689
1971.10658	0.32707
1969.17790	0.32726
1967.24923	0.32752
1965.32055	0.32786
1963.39188	0.32821
1961.46320	0.32852
1959.53452	0.32882
1957.60585	0.32911
1955.67717	0.32939
1953.74850	0.32966
1951.81982	0.32996
1949.89115	0.33027
1947.96247	0.33054
1946.03379	0.33073
1944.10512	0.33084
1942.17644	0.33106
1940.24777	0.33152
1938.31909	0.33201
1936.39042	0.33239
1934.46174	0.33270
1932.53306	0.33299
1930.60439	0.33325
1928.67571	0.33352
1926.74704	0.33376
1924.81836	0.33389
1922.88969	0.33403
1920.96101	0.33421
1919.03233	0.33437
1917.10366	0.33478
1915.17498	0.33543
1913.24631	0.33586
1911.31763	0.33604
1909.38896	0.33624
1907.46028	0.33660
1905.53160	0.33700
1903.60293	0.33734
1901.67425	0.33764
1899.74558	0.33793
1897.81690	0.33814
1895.88823	0.33829
1893.95955	0.33853
1892.03087	0.33876
1890.10220	0.33890
1888.17352	0.33923
1886.24485	0.33971
1884.31617	0.34011
1882.38750	0.34043
1880.45882	0.34069
1878.53014	0.34094
1876.60147	0.34124
1874.67279	0.34155
1872.74412	0.34170
1870.81544	0.34154
1868.88677	0.34151
1866.95809	0.34202
1865.02941	0.34274
1863.10074	0.34323
1861.17206	0.34356
1859.24339	0.34390
1857.31471	0.34426
1855.38604	0.34464
1853.45736	0.34498
1851.52868	0.34522
1849.60001	0.34535
1847.67133	0.34529
1845.74266	0.34505
1843.81398	0.34524
1841.88531	0.34609
1839.95663	0.34686
1838.02795	0.34720
1836.09928	0.34750
1834.17060	0.34778
1832.24193	0.34777
1830.31325	0.34769
1828.38458	0.34797
1826.45590	0.34840
1824.52722	0.34886
1822.59855	0.34946
1820.66987	0.34993
1818.74120	0.35015
1816.81252	0.35034
1814.88385	0.35059
1812.95517	0.35074
1811.02649	0.35086
1809.09782	0.35115
1807.16914	0.35153
1805.24047	0.35178
1803.31179	0.35177
1801.38312	0.35177
1799.45444	0.35209
1797.52576	0.35250
1795.59709	0.35259
1793.66841	0.35243
1791.73974	0.35261
1789.81106	0.35332
1787.88239	0.35388
1785.95371	0.35399
1784.02503	0.35409
1782.09636	0.35432
1780.16768	0.35459
1778.23901	0.35493
1776.31033	0.35503
1774.38166	0.35468
1772.45298	0.35437
1770.52430	0.35455
1768.59563	0.35510
1766.66695	0.35584
1764.73828	0.35636
1762.80960	0.35641
1760.88093	0.35648
1758.95225	0.35665
1757.02357	0.35677
1755.09490	0.35685
1753.16622	0.35651
1751.23755	0.35588
1749.30887	0.35578
1747.38020	0.35620
1745.45152	0.35653
1743.52284	0.35663
1741.59417	0.35663
1739.66549	0.35677
1737.73682	0.35681
1735.80814	0.35629
1733.87947	0.35596
1731.95079	0.35672
1730.02211	0.35789
1728.09344	0.35880
1726.16476	0.35937
1724.23609	0.35965
1722.30741	0.35967
1720.37874	0.35914
1718.45006	0.35843
1716.52138	0.35853
1714.59271	0.35947
1712.66403	0.36051
1710.73536	0.36107
1708.80668	0.36104
1706.87801	0.36072
1704.94933	0.36050
1703.02065	0.35993
1701.09198	0.35904
1699.16330	0.35895
1697.23463	0.35954
1695.30595	0.36027
1693.37728	0.36119
1691.44860	0.36164
1689.51992	0.36148
1687.59125	0.36102
1685.66257	0.36023
1683.73390	0.35999
1681.80522	0.36076
1679.87655	0.36164
1677.94787	0.36183
1676.01919	0.36155
1674.09052	0.36142
1672.16184	0.36133
1670.23317	0.36121
1668.30449	0.36174
1666.37582	0.36259
1664.44714	0.36283
1662.51846	0.36281
1660.58979	0.36312
1658.66111	0.36333
1656.73244	0.36253
1654.80376	0.36087
1652.87509	0.36028
1650.94641	0.36136
1649.01773	0.36213
1647.08906	0.36219
1645.16038	0.36284
1643.23171	0.36382
1641.30303	0.36421
1639.37436	0.36385
1637.44568	0.36310
1635.51700	0.36293
1633.58833	0.36380
1631.65965	0.36464
1629.73098	0.36465
1627.80230	0.36431
1625.87363	0.36388
1623.94495	0.36322
1622.01627	0.36274
1620.08760	0.36268
1618.15892	0.36296
1616.23025	0.36398
1614.30157	0.36560
1612.37290	0.36680
1610.44422	0.36732
1608.51554	0.36771
1606.58687	0.36821
1604.65819	0.36867
1602.72952	0.36903
1600.80084	0.36941
1598.87217	0.36981
1596.94349	0.37011
1595.01481	0.37032
1593.08614	0.37058
1591.15746	0.37092
1589.22879	0.37132
1587.30011	0.37173
1585.37144	0.37207
1583.44276	0.37235
1581.51408	0.37259
1579.58541	0.37255
1577.65673	0.37222
1575.72806	0.37226
1573.79938	0.37286
1571.87071	0.37307
1569.94203	0.37294
1568.01335	0.37329
1566.08468	0.37391
1564.15600	0.37420
1562.22733	0.37364
1560.29865	0.37232
1558.36998	0.37192
1556.44130	0.37313
1554.51262	0.37458
1552.58395	0.37539
1550.65527	0.37579
1548.72660	0.37608
1546.79792	0.37610
1544.86925	0.37558
1542.94057	0.37483
1541.01189	0.37447
1539.08322	0.37512
1537.15454	0.37631
1535.22587	0.37681
1533.29719	0.37688
1531.36852	0.37731
1529.43984	0.37763
1527.51116	0.37752
1525.58249	0.37730
1523.65381	0.37682
1521.72514	0.37628
1519.79646	0.37645
1517.86779	0.37711
1515.93911	0.37783
1514.01043	0.37845
1512.08176	0.37854
1510.15308	0.37790
1508.22441	0.37712
1506.29573	0.37746
1504.36706	0.37902
1502.43838	0.38014
1500.50970	0.38009
1498.58103	0.37977
1496.65235	0.38000
1494.72368	0.38063
1492.79500	0.38073
1490.86633	0.38016
1488.93765	0.37990
1487.00897	0.38043
1485.08030	0.38116
1483.15162	0.38156
1481.22295	0.38160
1479.29427	0.38137
1477.36560	0.38076
1475.43692	0.37990
1473.50824	0.37928
1471.57957	0.37935
1469.65089	0.37986
1467.72222	0.37995
1465.79354	0.37962
1463.86487	0.37968
1461.93619	0.37988
1460.00751	0.37917
1458.07884	0.37800
1456.15016	0.37806
1454.22149	0.37942
1452.29281	0.38056
1450.36414	0.38087
1448.43546	0.38088
1446.50678	0.38112
1444.57811	0.38155
1442.64943	0.38188
1440.72076	0.38181
1438.79208	0.38106
1436.86341	0.38042
1434.93473	0.38087
1433.00605	0.38162
1431.07738	0.38177
1429.14870	0.38177
1427.22003	0.38182
1425.29135	0.38167
1423.36268	0.38135
1421.43400	0.38070
1419.50532	0.37999
1417.57665	0.38013
1415.64797	0.38095
1413.71930	0.38148
1411.79062	0.38155
1409.86195	0.38152
1407.93327	0.38141
1406.00459	0.38119
1404.07592	0.38106
1402.14724	0.38094
1400.21857	0.38057
1398.28989	0.38013
1396.36122	0.37985
1394.43254	0.37995
1392.50386	0.38039
1390.57519	0.38042
1388.64651	0.37973
1386.71784	0.37906
1384.78916	0.37897
1382.86049	0.37921
1380.93181	0.37943
1379.00313	0.37942
1377.07446	0.37913
1375.14578	0.37882
1373.21711	0.37883
1371.28843	0.37905
1369.35976	0.37913
1367.43108	0.37908
1365.50240	0.37882
1363.57373	0.37839
1361.64505	0.37829
1359.71638	0.37865
1357.78770	0.37898
1355.85903	0.37904
1353.93035	0.37906
1352.00167	0.37916
1350.07300	0.37931
1348.14432	0.37950
1346.21565	0.37966
1344.28697	0.37971
1342.35830	0.37954
1340.42962	0.37923
1338.50094	0.37917
1336.57227	0.37942
1334.64359	0.37962
1332.71492	0.37961
1330.78624	0.37954
1328.85757	0.37944
1326.92889	0.37931
1325.00021	0.37917
1323.07154	0.37899
1321.14286	0.37872
1319.21419	0.37850
1317.28551	0.37839
1315.35684	0.37830
1313.42816	0.37819
1311.49948	0.37805
1309.57081	0.37784
1307.64213	0.37755
1305.71346	0.37718
1303.78478	0.37679
1301.85611	0.37636
1299.92743	0.37595
1297.99875	0.37561
1296.07008	0.37526
1294.14140	0.37487
1292.21273	0.37449
1290.28405	0.37407
1288.35538	0.37355
1286.42670	0.37304
1284.49802	0.37257
1282.56935	0.37205
1280.64067	0.37145
1278.71200	0.37074
1276.78332	0.36987
1274.85465	0.36888
1272.92597	0.36775
1270.99729	0.36636
1269.06862	0.36468
1267.13994	0.36287
1265.21127	0.36125
1263.28259	0.36006
1261.35392	0.35940
1259.42524	0.35926
1257.49656	0.35945
1255.56789	0.35967
1253.63921	0.35971
1251.71054	0.35946
1249.78186	0.35894
1247.85319	0.35829
1245.92451	0.35756
1243.99583	0.35680
1242.06716	0.35600
1240.13848	0.35514
1238.20981	0.35419
1236.28113	0.35312
1234.35246	0.35203
1232.42378	0.35100
1230.49510	0.34998
1228.56643	0.34895
1226.63775	0.34794
1224.70908	0.34697
1222.78040	0.34606
1220.85173	0.34522
1218.92305	0.34435
1216.99437	0.34339
1215.06570	0.34239
1213.13702	0.34142
1211.20835	0.34051
1209.27967	0.33965
1207.35100	0.33875
1205.42232	0.33777
1203.49364	0.33678
1201.56497	0.33587
1199.63629	0.33505
1197.70762	0.33419
1195.77894	0.33323
1193.85027	0.33225
1191.92159	0.33127
1189.99291	0.33023
1188.06424	0.32909
1186.13556	0.32787
1184.20689	0.32661
1182.27821	0.32530
1180.34954	0.32395
1178.42086	0.32259
1176.49218	0.32121
1174.56351	0.31975
1172.63483	0.31828
1170.70616	0.31686
1168.77748	0.31548
1166.84881	0.31407
1164.92013	0.31264
1162.99145	0.31124
1161.06278	0.30989
1159.13410	0.30857
1157.20543	0.30725
1155.27675	0.30599
1153.34808	0.30482
1151.41940	0.30368
1149.49072	0.30253
1147.56205	0.30138
1145.63337	0.30029
1143.70470	0.29918
1141.77602	0.29803
1139.84735	0.29687
1137.91867	0.29568
1135.98999	0.29447
1134.06132	0.29317
1132.13264	0.29181
1130.20397	0.29048
1128.27529	0.28924
1126.34662	0.28792
1124.41794	0.28643
1122.48926	0.28488
1120.56059	0.28339
1118.63191	0.28192
1116.70324	0.28037
1114.77456	0.27879
1112.84589	0.27722
1110.91721	0.27568
1108.98853	0.27416
1107.05986	0.27271
1105.13118	0.27129
1103.20251	0.26989
1101.27383	0.26853
1099.34516	0.26717
1097.41648	0.26580
1095.48780	0.26450
1093.55913	0.26328
1091.63045	0.26212
1089.70178	0.26102
1087.77310	0.25996
1085.84443	0.25888
1083.91575	0.25782
1081.98707	0.25679
1080.05840	0.25582
1078.12972	0.25495
1076.20105	0.25414
1074.27237	0.25342
1072.34370	0.25285
1070.41502	0.25248
1068.48634	0.25228
1066.55767	0.25215
1064.62899	0.25208
1062.70032	0.25210
1060.77164	0.25225
1058.84297	0.25245
1056.91429	0.25271
1054.98561	0.25306
1053.05694	0.25348
1051.12826	0.25397
1049.19959	0.25448
1047.27091	0.25499
1045.34224	0.25559
1043.41356	0.25633
1041.48488	0.25717
1039.55621	0.25800
1037.62753	0.25877
1035.69886	0.25954
1033.77018	0.26036
1031.84151	0.26114
1029.91283	0.26191
1027.98415	0.26274
1026.05548	0.26359
1024.12680	0.26438
1022.19813	0.26520
1020.26945	0.26611
1018.34078	0.26711
1016.41210	0.26826
1014.48342	0.26956
1012.55475	0.27094
1010.62607	0.27233
1008.69740	0.27368
1006.76872	0.27501
1004.84005	0.27627
1002.91137	0.27736
1000.98269	0.27832
999.05402	0.27928
997.12534	0.28018
995.19667	0.28093
993.26799	0.28160
991.33932	0.28225
989.41064	0.28285
987.48196	0.28345
985.55329	0.28408
983.62461	0.28466
981.69594	0.28515
979.76726	0.28548
977.83859	0.28559
975.90991	0.28559
973.98123	0.28558
972.05256	0.28555
970.12388	0.28547
968.19521	0.28540
966.26653	0.28530
964.33786	0.28511
962.40918	0.28484
960.48050	0.28454
958.55183	0.28423
956.62315	0.28388
954.69448	0.28350
952.76580	0.28307
950.83713	0.28260
948.90845	0.28211
946.97977	0.28158
945.05110	0.28102
943.12242	0.28045
941.19375	0.27985
939.26507	0.27919
937.33640	0.27851
935.40772	0.27788
933.47904	0.27728
931.55037	0.27663
929.62169	0.27594
927.69302	0.27526
925.76434	0.27458
923.83567	0.27382
921.90699	0.27301
919.97831	0.27227
918.04964	0.27165
916.12096	0.27100
914.19229	0.27026
912.26361	0.26944
910.33494	0.26858
908.40626	0.26774
906.47758	0.26689
904.54891	0.26605
902.62023	0.26517
900.69156	0.26424
898.76288	0.26330
896.83421	0.26240
894.90553	0.26151
892.97685	0.26064
891.04818	0.25979
889.11950	0.25893
887.19083	0.25801
885.26215	0.25714
883.33348	0.25639
881.40480	0.25563
879.47612	0.25475
877.54745	0.25387
875.61877	0.25308
873.69010	0.25234
871.76142	0.25152
869.83275	0.25067
867.90407	0.24993
865.97539	0.24928
864.04672	0.24856
862.11804	0.24779
860.18937	0.24699
858.26069	0.24606
856.33202	0.24502
854.40334	0.24401
852.47466	0.24308
850.54599	0.24219
848.61731	0.24133
846.68864	0.24045
844.75996	0.23950
842.83129	0.23852
840.90261	0.23760
838.97394	0.23675
837.04526	0.23581
835.11658	0.23480
833.18791	0.23393
831.25923	0.23315
829.33056	0.23222
827.40188	0.23105
825.47321	0.22972
823.54453	0.22845
821.61585	0.22737
819.68718	0.22646
817.75850	0.22557
815.82983	0.22463
813.90115	0.22368
811.97248	0.22271
810.04380	0.22163
808.11512	0.22053
806.18645	0.21960
804.25777	0.21885
802.32910	0.21817
800.40042	0.21754
798.47175	0.21701
796.54307	0.21657
794.61439	0.21615
792.68572	0.21577
790.75704	0.21550
788.82837	0.21530
786.89969	0.21506
784.97102	0.21469
783.04234	0.21421
781.11366	0.21371
779.18499	0.21326
777.25631	0.21290
775.32764	0.21255
773.39896	0.21208
771.47029	0.21150
769.54161	0.21087
767.61293	0.21021
765.68426	0.20958
763.75558	0.20901
761.82691	0.20844
759.89823	0.20771
757.96956	0.20683
756.04088	0.20587
754.11220	0.20488
752.18353	0.20393
750.25485	0.20305
748.32618	0.20217
746.39750	0.20128
744.46883	0.20040
742.54015	0.19957
740.61147	0.19873
738.68280	0.19788
736.75412	0.19709
734.82545	0.19634
732.89677	0.19557
730.96810	0.19485
729.03942	0.19427
727.11074	0.19370
725.18207	0.19301
723.25339	0.19226
721.32472	0.19147
719.39604	0.19067
717.46737	0.18985
715.53869	0.18903
713.61001	0.18824
711.68134	0.18748
709.75266	0.18676
707.82399	0.18603
705.89531	0.18521
703.96664	0.18436
702.03796	0.18362
700.10928	0.18296
698.18061	0.18220
696.25193	0.18136
694.32326	0.18055
692.39458	0.17975
690.46591	0.17888
688.53723	0.17805
686.60855	0.17724
684.67988	0.17629
682.75120	0.17517
680.82253	0.17399
678.89385	0.17281
676.96518	0.17166
675.03650	0.17048
673.10782	0.16923
671.17915	0.16778
669.25047	0.16614
667.32180	0.16457
665.39312	0.16323
663.46445	0.16189
661.53577	0.16034
659.60709	0.15870
657.67842	0.15714
655.74974	0.15572
653.82107	0.15435
651.89239	0.15298
649.96372	0.15153
648.03504	0.15000
646.10636	0.14847
644.17769	0.14695
642.24901	0.14530
640.32034	0.14352
638.39166	0.14175
636.46299	0.13997
634.53431	0.13808
632.60563	0.13618
630.67696	0.13439
628.74828	0.13263
626.81961	0.13080
624.89093	0.12901
622.96226	0.12741
621.03358	0.12600
619.10490	0.12455
617.17623	0.12290
615.24755	0.12106
613.31888	0.11919
611.39020	0.11739
609.46153	0.11564
607.53285	0.11393
605.60417	0.11229
603.67550	0.11077
601.74682	0.10931
599.81815	0.10789
597.88947	0.10655
595.96080	0.10528
594.03212	0.10401
592.10344	0.10287
590.17477	0.10184
588.24609	0.10082
586.31742	0.09977
584.38874	0.09869
582.46007	0.09760
580.53139	0.09659
578.60271	0.09563
576.67404	0.09461
574.74536	0.09352
572.81669	0.09240
570.88801	0.09132
568.95934	0.09047
567.03066	0.08977
565.10198	0.08893
563.17331	0.08795
561.24463	0.08705
559.31596	0.08630
557.38728	0.08565
555.45861	0.08504
553.52993	0.08447
551.60125	0.08391
549.67258	0.08329
547.74390	0.08265
545.81523	0.08212
543.88655	0.08169
541.95788	0.08123
540.02920	0.08069
538.10052	0.08014
536.17185	0.07964
534.24317	0.07916
532.31450	0.07865
530.38582	0.07802
528.45715	0.07728
526.52847	0.07659
524.59979	0.07598
522.67112	0.07528
520.74244	0.07450
518.81377	0.07368
516.88509	0.07283
514.95642	0.07201
513.02774	0.07122
511.09906	0.07043
509.17039	0.06963
507.24171	0.06881
505.31304	0.06790
503.38436	0.06692
501.45569	0.06592
499.52701	0.06481
497.59833	0.06358
495.66966	0.06235
493.74098	0.06120
491.81231	0.06005
489.88363	0.05879
487.95496	0.05752
486.02628	0.05633
484.09760	0.05519
482.16893	0.05402
480.24025	0.05284
478.31158	0.05168
476.38290	0.05045
474.45423	0.04914
472.52555	0.04796
470.59687	0.04701
468.66820	0.04615
466.73952	0.04541
464.81085	0.04489
462.88217	0.04446
460.95350	0.04401
459.02482	0.04368
457.09614	0.04357
455.16747	0.04352
453.23879	0.04342
451.31012	0.04333
449.38144	0.04326
447.45277	0.04309
445.52409	0.04272
443.59541	0.04219
441.66674	0.04163
439.73806	0.04104
437.80939	0.04031
435.88071	0.03937
433.95204	0.03830
432.02336	0.03719
430.09468	0.03611
428.16601	0.03496
426.23733	0.03365
424.30866	0.03225
422.37998	0.03085
420.45131	0.02951
418.52263	0.02828
416.59395	0.02714
414.66528	0.02595
412.73660	0.02474
410.80793	0.02355
408.87925	0.02244
406.95058	0.02144
405.02190	0.02040
403.09322	0.01916
401.16455	0.01786
399.23587	0.01670
397.30720	0.01571
395.37852	0.01476
393.44985	0.01381
391.52117	0.01290
389.59249	0.01202
387.66382	0.01119
385.73514	0.01042
383.80647	0.00972
381.87779	0.00901
379.94912	0.00822
378.02044	0.00747
376.09176	0.00682
374.16309	0.00628
372.23441	0.00579
370.30574	0.00526
368.37706	0.00467
