7496.76250	0.00221
7494.83382	0.00221
7492.90514	0.00220
7490.97647	0.00220
7489.04779	0.00220
7487.11912	0.00221
7485.19044	0.00222
7483.26177	0.00224
7481.33309	0.00225
7479.40441	0.00226
7477.47574	0.00226
7475.54706	0.00227
7473.61839	0.00228
7471.68971	0.00229
7469.76104	0.00229
7467.83236	0.00230
7465.90368	0.00230
7463.97501	0.00230
7462.04633	0.00228
7460.11766	0.00228
7458.18898	0.00230
7456.26031	0.00231
7454.33163	0.00232
7452.40295	0.00233
7450.47428	0.00234
7448.54560	0.00236
7446.61693	0.00237
7444.68825	0.00239
7442.75958	0.00239
7440.83090	0.00239
7438.90222	0.00238
7436.97355	0.00238
7435.04487	0.00239
7433.11620	0.00242
7431.18752	0.00243
7429.25885	0.00243
7427.33017	0.00243
7425.40149	0.00243
7423.47282	0.00242
7421.54414	0.00243
7419.61547	0.00245
7417.68679	0.00247
7415.75812	0.00248
7413.82944	0.00247
7411.90076	0.00247
7409.97209	0.00247
7408.04341	0.00248
7406.11474	0.00248
7404.18606	0.00249
7402.25739	0.00251
7400.32871	0.00251
7398.40003	0.00251
7396.47136	0.00251
7394.54268	0.00251
7392.61401	0.00251
7390.68533	0.00252
7388.75666	0.00254
7386.82798	0.00255
7384.89930	0.00256
7382.97063	0.00256
7381.04195	0.00257
7379.11328	0.00257
7377.18460	0.00258
7375.25593	0.00259
7373.32725	0.00260
7371.39857	0.00260
7369.46990	0.00259
7367.54122	0.00260
7365.61255	0.00261
7363.68387	0.00262
7361.75520	0.00264
7359.82652	0.00266
7357.89784	0.00266
7355.96917	0.00265
7354.04049	0.00265
7352.11182	0.00266
7350.18314	0.00267
7348.25447	0.00269
7346.32579	0.00269
7344.39711	0.00269
7342.46844	0.00269
7340.53976	0.00269
7338.61109	0.00270
7336.68241	0.00272
7334.75374	0.00273
7332.82506	0.00274
7330.89638	0.00275
7328.96771	0.00275
7327.03903	0.00274
7325.11036	0.00273
7323.18168	0.00275
7321.25301	0.00277
7319.32433	0.00278
7317.39565	0.00278
7315.46698	0.00280
7313.53830	0.00282
7311.60963	0.00281
7309.68095	0.00281
7307.75228	0.00281
7305.82360	0.00281
7303.89492	0.00282
7301.96625	0.00284
7300.03757	0.00286
7298.10890	0.00287
7296.18022	0.00287
7294.25155	0.00288
7292.32287	0.00288
7290.39419	0.00287
7288.46552	0.00287
7286.53684	0.00288
7284.60817	0.00289
7282.67949	0.00290
7280.75082	0.00290
7278.82214	0.00291
7276.89346	0.00292
7274.96479	0.00293
7273.03611	0.00294
7271.10744	0.00295
7269.17876	0.00296
7267.25009	0.00297
7265.32141	0.00297
7263.39273	0.00297
7261.46406	0.00298
7259.53538	0.00300
7257.60671	0.00300
7255.67803	0.00299
7253.74936	0.00299
7251.82068	0.00301
7249.89200	0.00303
7247.96333	0.00303
7246.03465	0.00303
7244.10598	0.00304
7242.17730	0.00305
7240.24863	0.00305
7238.31995	0.00305
7236.39127	0.00305
7234.46260	0.00305
7232.53392	0.00305
7230.60525	0.00306
7228.67657	0.00308
7226.74790	0.00309
7224.81922	0.00309
7222.89054	0.00310
7220.96187	0.00312
7219.03319	0.00313
7217.10452	0.00313
7215.17584	0.00314
7213.24717	0.00316
7211.31849	0.00317
7209.38981	0.00318
7207.46114	0.00319
7205.53246	0.00320
7203.60379	0.00320
7201.67511	0.00320
7199.74644	0.00321
7197.81776	0.00322
7195.88908	0.00323
7193.96041	0.00324
7192.03173	0.00324
7190.10306	0.00322
7188.17438	0.00323
7186.24571	0.00324
7184.31703	0.00326
7182.38835	0.00327
7180.45968	0.00328
7178.53100	0.00328
7176.60233	0.00328
7174.67365	0.00327
7172.74498	0.00327
7170.81630	0.00330
7168.88762	0.00333
7166.95895	0.00334
7165.03027	0.00333
7163.10160	0.00332
7161.17292	0.00332
7159.24425	0.00334
7157.31557	0.00335
7155.38689	0.00336
7153.45822	0.00336
7151.52954	0.00336
7149.60087	0.00338
7147.67219	0.00340
7145.74352	0.00341
7143.81484	0.00342
7141.88616	0.00342
7139.95749	0.00343
7138.02881	0.00344
7136.10014	0.00345
7134.17146	0.00345
7132.24279	0.00346
7130.31411	0.00347
7128.38543	0.00348
7126.45676	0.00349
7124.52808	0.00350
7122.59941	0.00351
7120.67073	0.00352
7118.74206	0.00351
7116.81338	0.00352
7114.88470	0.00354
7112.95603	0.00356
7111.02735	0.00356
7109.09868	0.00356
7107.17000	0.00356
7105.24133	0.00357
7103.31265	0.00358
7101.38397	0.00359
7099.45530	0.00359
7097.52662	0.00359
7095.59795	0.00360
7093.66927	0.00362
7091.74060	0.00364
7089.81192	0.00365
7087.88324	0.00366
7085.95457	0.00367
7084.02589	0.00367
7082.09722	0.00367
7080.16854	0.00367
7078.23987	0.00368
7076.31119	0.00369
7074.38251	0.00370
7072.45384	0.00371
7070.52516	0.00371
7068.59649	0.00371
7066.66781	0.00372
7064.73914	0.00373
7062.81046	0.00374
7060.88178	0.00376
7058.95311	0.00378
7057.02443	0.00377
7055.09576	0.00377
7053.16708	0.00378
7051.23841	0.00380
7049.30973	0.00382
7047.38105	0.00382
7045.45238	0.00382
7043.52370	0.00382
7041.59503	0.00382
7039.66635	0.00382
7037.73768	0.00383
7035.80900	0.00386
7033.88032	0.00388
7031.95165	0.00388
7030.02297	0.00388
7028.09430	0.00388
7026.16562	0.00388
7024.23695	0.00389
7022.30827	0.00391
7020.37959	0.00393
7018.45092	0.00395
7016.52224	0.00395
7014.59357	0.00395
7012.66489	0.00394
7010.73622	0.00395
7008.80754	0.00397
7006.87886	0.00396
7004.95019	0.00397
7003.02151	0.00400
7001.09284	0.00403
6999.16416	0.00404
6997.23549	0.00404
6995.30681	0.00404
6993.37813	0.00404
6991.44946	0.00404
6989.52078	0.00405
6987.59211	0.00406
6985.66343	0.00407
6983.73476	0.00407
6981.80608	0.00408
6979.87740	0.00409
6977.94873	0.00411
6976.02005	0.00413
6974.09138	0.00413
6972.16270	0.00413
6970.23403	0.00414
6968.30535	0.00415
6966.37667	0.00416
6964.44800	0.00417
6962.51932	0.00417
6960.59065	0.00417
6958.66197	0.00419
6956.73330	0.00421
6954.80462	0.00422
6952.87594	0.00422
6950.94727	0.00423
6949.01859	0.00424
6947.08992	0.00424
6945.16124	0.00425
6943.23257	0.00425
6941.30389	0.00427
6939.37521	0.00428
6937.44654	0.00429
6935.51786	0.00431
6933.58919	0.00433
6931.66051	0.00435
6929.73184	0.00435
6927.80316	0.00434
6925.87448	0.00433
6923.94581	0.00434
6922.01713	0.00435
6920.08846	0.00436
6918.15978	0.00436
6916.23111	0.00437
6914.30243	0.00440
6912.37375	0.00442
6910.44508	0.00443
6908.51640	0.00442
6906.58773	0.00442
6904.65905	0.00443
6902.73038	0.00445
6900.80170	0.00446
6898.87302	0.00447
6896.94435	0.00448
6895.01567	0.00449
6893.08700	0.00450
6891.15832	0.00451
6889.22965	0.00453
6887.30097	0.00454
6885.37229	0.00455
6883.44362	0.00456
6881.51494	0.00457
6879.58627	0.00457
6877.65759	0.00457
6875.72892	0.00457
6873.80024	0.00458
6871.87156	0.00460
6869.94289	0.00463
6868.01421	0.00463
6866.08554	0.00464
6864.15686	0.00464
6862.22819	0.00465
6860.29951	0.00467
6858.37083	0.00468
6856.44216	0.00468
6854.51348	0.00469
6852.58481	0.00471
6850.65613	0.00472
6848.72746	0.00472
6846.79878	0.00473
6844.87010	0.00474
6842.94143	0.00474
6841.01275	0.00476
6839.08408	0.00478
6837.15540	0.00478
6835.22673	0.00478
6833.29805	0.00479
6831.36937	0.00480
6829.44070	0.00482
6827.51202	0.00483
6825.58335	0.00485
6823.65467	0.00486
6821.72600	0.00488
6819.79732	0.00488
6817.86864	0.00488
6815.93997	0.00490
6814.01129	0.00492
6812.08262	0.00493
6810.15394	0.00494
6808.22527	0.00494
6806.29659	0.00494
6804.36791	0.00494
6802.43924	0.00496
6800.51056	0.00498
6798.58189	0.00500
6796.65321	0.00500
6794.72454	0.00501
6792.79586	0.00502
6790.86718	0.00503
6788.93851	0.00504
6787.00983	0.00505
6785.08116	0.00506
6783.15248	0.00507
6781.22381	0.00510
6779.29513	0.00513
6777.36645	0.00515
6775.43778	0.00514
6773.50910	0.00513
6771.58043	0.00515
6769.65175	0.00516
6767.72308	0.00517
6765.79440	0.00518
6763.86572	0.00519
6761.93705	0.00520
6760.00837	0.00520
6758.07970	0.00520
6756.15102	0.00521
6754.22235	0.00522
6752.29367	0.00523
6750.36499	0.00526
6748.43632	0.00528
6746.50764	0.00528
6744.57897	0.00527
6742.65029	0.00527
6740.72162	0.00529
6738.79294	0.00531
6736.86426	0.00531
6734.93559	0.00531
6733.00691	0.00532
6731.07824	0.00534
6729.14956	0.00535
6727.22089	0.00537
6725.29221	0.00538
6723.36353	0.00541
6721.43486	0.00543
6719.50618	0.00544
6717.57751	0.00545
6715.64883	0.00545
6713.72016	0.00546
6711.79148	0.00547
6709.86280	0.00548
6707.93413	0.00549
6706.00545	0.00551
6704.07678	0.00552
6702.14810	0.00552
6700.21943	0.00554
6698.29075	0.00557
6696.36207	0.00558
6694.43340	0.00558
6692.50472	0.00559
6690.57605	0.00560
6688.64737	0.00560
6686.71870	0.00561
6684.79002	0.00563
6682.86134	0.00566
6680.93267	0.00567
6679.00399	0.00567
6677.07532	0.00568
6675.14664	0.00569
6673.21797	0.00569
6671.28929	0.00570
6669.36061	0.00572
6667.43194	0.00574
6665.50326	0.00576
6663.57459	0.00576
6661.64591	0.00577
6659.71724	0.00578
6657.78856	0.00580
6655.85988	0.00582
6653.93121	0.00583
6652.00253	0.00583
6650.07386	0.00583
6648.14518	0.00585
6646.21651	0.00587
6644.28783	0.00588
6642.35915	0.00590
6640.43048	0.00591
6638.50180	0.00592
6636.57313	0.00593
6634.64445	0.00594
6632.71578	0.00595
6630.78710	0.00596
6628.85842	0.00597
6626.92975	0.00599
6625.00107	0.00600
6623.07240	0.00602
6621.14372	0.00603
6619.21505	0.00603
6617.28637	0.00603
6615.35769	0.00604
6613.42902	0.00606
6611.50034	0.00607
6609.57167	0.00608
6607.64299	0.00610
6605.71432	0.00611
6603.78564	0.00612
6601.85696	0.00613
6599.92829	0.00614
6597.99961	0.00616
6596.07094	0.00619
6594.14226	0.00620
6592.21359	0.00621
6590.28491	0.00624
6588.35623	0.00627
6586.42756	0.00630
6584.49888	0.00630
6582.57021	0.00628
6580.64153	0.00628
6578.71286	0.00629
6576.78418	0.00631
6574.85550	0.00633
6572.92683	0.00633
6570.99815	0.00633
6569.06948	0.00634
6567.14080	0.00637
6565.21213	0.00639
6563.28345	0.00641
6561.35477	0.00643
6559.42610	0.00644
6557.49742	0.00646
6555.56875	0.00647
6553.64007	0.00648
6551.71140	0.00650
6549.78272	0.00651
6547.85404	0.00653
6545.92537	0.00654
6543.99669	0.00655
6542.06802	0.00656
6540.13934	0.00657
6538.21067	0.00658
6536.28199	0.00660
6534.35331	0.00662
6532.42464	0.00664
6530.49596	0.00664
6528.56729	0.00664
6526.63861	0.00664
6524.70994	0.00666
6522.78126	0.00670
6520.85258	0.00671
6518.92391	0.00670
6516.99523	0.00670
6515.06656	0.00672
6513.13788	0.00674
6511.20921	0.00676
6509.28053	0.00678
6507.35185	0.00681
6505.42318	0.00682
6503.49450	0.00682
6501.56583	0.00682
6499.63715	0.00682
6497.70848	0.00683
6495.77980	0.00687
6493.85112	0.00691
6491.92245	0.00694
6489.99377	0.00696
6488.06510	0.00698
6486.13642	0.00699
6484.20775	0.00699
6482.27907	0.00699
6480.35039	0.00701
6478.42172	0.00703
6476.49304	0.00704
6474.56437	0.00705
6472.63569	0.00705
6470.70702	0.00705
6468.77834	0.00708
6466.84966	0.00711
6464.92099	0.00712
6462.99231	0.00713
6461.06364	0.00715
6459.13496	0.00717
6457.20629	0.00718
6455.27761	0.00720
6453.34893	0.00721
6451.42026	0.00723
6449.49158	0.00723
6447.56291	0.00723
6445.63423	0.00725
6443.70556	0.00728
6441.77688	0.00730
6439.84820	0.00732
6437.91953	0.00733
6435.99085	0.00735
6434.06218	0.00736
6432.13350	0.00737
6430.20483	0.00740
6428.27615	0.00742
6426.34747	0.00743
6424.41880	0.00744
6422.49012	0.00746
6420.56145	0.00749
6418.63277	0.00750
6416.70410	0.00749
6414.77542	0.00749
6412.84674	0.00751
6410.91807	0.00754
6408.98939	0.00757
6407.06072	0.00758
6405.13204	0.00759
6403.20337	0.00761
6401.27469	0.00763
6399.34601	0.00765
6397.41734	0.00767
6395.48866	0.00770
6393.55999	0.00770
6391.63131	0.00770
6389.70264	0.00770
6387.77396	0.00772
6385.84528	0.00774
6383.91661	0.00776
6381.98793	0.00777
6380.05926	0.00777
6378.13058	0.00778
6376.20191	0.00780
6374.27323	0.00783
6372.34455	0.00785
6370.41588	0.00786
6368.48720	0.00788
6366.55853	0.00792
6364.62985	0.00796
6362.70118	0.00797
6360.77250	0.00796
6358.84382	0.00796
6356.91515	0.00798
6354.98647	0.00801
6353.05780	0.00802
6351.12912	0.00802
6349.20045	0.00804
6347.27177	0.00808
6345.34309	0.00810
6343.41442	0.00812
6341.48574	0.00813
6339.55707	0.00813
6337.62839	0.00814
6335.69972	0.00815
6333.77104	0.00817
6331.84236	0.00821
6329.91369	0.00825
6327.98501	0.00826
6326.05634	0.00827
6324.12766	0.00829
6322.19899	0.00831
6320.27031	0.00833
6318.34163	0.00835
6316.41296	0.00836
6314.48428	0.00837
6312.55561	0.00838
6310.62693	0.00838
6308.69826	0.00839
6306.76958	0.00839
6304.84090	0.00841
6302.91223	0.00844
6300.98355	0.00847
6299.05488	0.00851
6297.12620	0.00854
6295.19753	0.00855
6293.26885	0.00857
6291.34017	0.00858
6289.41150	0.00860
6287.48282	0.00861
6285.55415	0.00863
6283.62547	0.00866
6281.69680	0.00868
6279.76812	0.00870
6277.83944	0.00873
6275.91077	0.00875
6273.98209	0.00876
6272.05342	0.00877
6270.12474	0.00878
6268.19607	0.00879
6266.26739	0.00880
6264.33871	0.00882
6262.41004	0.00886
6260.48136	0.00889
6258.55269	0.00890
6256.62401	0.00889
6254.69534	0.00890
6252.76666	0.00893
6250.83798	0.00896
6248.90931	0.00899
6246.98063	0.00901
6245.05196	0.00903
6243.12328	0.00904
6241.19461	0.00905
6239.26593	0.00905
6237.33725	0.00907
6235.40858	0.00911
6233.47990	0.00913
6231.55123	0.00914
6229.62255	0.00915
6227.69388	0.00916
6225.76520	0.00918
6223.83652	0.00920
6221.90785	0.00923
6219.97917	0.00925
6218.05050	0.00928
6216.12182	0.00930
6214.19315	0.00932
6212.26447	0.00934
6210.33579	0.00935
6208.40712	0.00937
6206.47844	0.00939
6204.54977	0.00940
6202.62109	0.00940
6200.69242	0.00943
6198.76374	0.00947
6196.83506	0.00951
6194.90639	0.00953
6192.97771	0.00952
6191.04904	0.00954
6189.12036	0.00957
6187.19169	0.00960
6185.26301	0.00960
6183.33433	0.00963
6181.40566	0.00966
6179.47698	0.00969
6177.54831	0.00971
6175.61963	0.00974
6173.69096	0.00976
6171.76228	0.00977
6169.83360	0.00979
6167.90493	0.00982
6165.97625	0.00985
6164.04758	0.00987
6162.11890	0.00988
6160.19023	0.00988
6158.26155	0.00990
6156.33287	0.00992
6154.40420	0.00993
6152.47552	0.00996
6150.54685	0.01000
6148.61817	0.01002
6146.68950	0.01002
6144.76082	0.01003
6142.83214	0.01006
6140.90347	0.01008
6138.97479	0.01010
6137.04612	0.01013
6135.11744	0.01016
6133.18877	0.01019
6131.26009	0.01019
6129.33141	0.01020
6127.40274	0.01023
6125.47406	0.01025
6123.54539	0.01028
6121.61671	0.01031
6119.68804	0.01031
6117.75936	0.01031
6115.83068	0.01033
6113.90201	0.01038
6111.97333	0.01042
6110.04466	0.01043
6108.11598	0.01044
6106.18731	0.01045
6104.25863	0.01048
6102.32995	0.01053
6100.40128	0.01057
6098.47260	0.01058
6096.54393	0.01058
6094.61525	0.01060
6092.68658	0.01061
6090.75790	0.01062
6088.82922	0.01062
6086.90055	0.01063
6084.97187	0.01067
6083.04320	0.01072
6081.11452	0.01075
6079.18585	0.01077
6077.25717	0.01079
6075.32849	0.01080
6073.39982	0.01082
6071.47114	0.01085
6069.54247	0.01088
6067.61379	0.01091
6065.68512	0.01095
6063.75644	0.01098
6061.82776	0.01101
6059.89909	0.01103
6057.97041	0.01104
6056.04174	0.01105
6054.11306	0.01107
6052.18439	0.01109
6050.25571	0.01111
6048.32703	0.01114
6046.39836	0.01116
6044.46968	0.01117
6042.54101	0.01118
6040.61233	0.01121
6038.68366	0.01124
6036.75498	0.01126
6034.82630	0.01128
6032.89763	0.01130
6030.96895	0.01134
6029.04028	0.01137
6027.11160	0.01140
6025.18293	0.01143
6023.25425	0.01146
6021.32557	0.01148
6019.39690	0.01148
6017.46822	0.01150
6015.53955	0.01151
6013.61087	0.01153
6011.68220	0.01155
6009.75352	0.01158
6007.82484	0.01160
6005.89617	0.01164
6003.96749	0.01167
6002.03882	0.01171
6000.11014	0.01173
5998.18147	0.01174
5996.25279	0.01175
5994.32411	0.01176
5992.39544	0.01179
5990.46676	0.01183
5988.53809	0.01185
5986.60941	0.01187
5984.68074	0.01189
5982.75206	0.01191
5980.82338	0.01192
5978.89471	0.01195
5976.96603	0.01200
5975.03736	0.01203
5973.10868	0.01204
5971.18001	0.01204
5969.25133	0.01206
5967.32265	0.01209
5965.39398	0.01214
5963.46530	0.01218
5961.53663	0.01222
5959.60795	0.01224
5957.67928	0.01227
5955.75060	0.01229
5953.82192	0.01230
5951.89325	0.01232
5949.96457	0.01235
5948.03590	0.01239
5946.10722	0.01241
5944.17855	0.01244
5942.24987	0.01248
5940.32119	0.01251
5938.39252	0.01253
5936.46384	0.01254
5934.53517	0.01256
5932.60649	0.01260
5930.67782	0.01264
5928.74914	0.01266
5926.82046	0.01269
5924.89179	0.01273
5922.96311	0.01276
5921.03444	0.01278
5919.10576	0.01278
5917.17709	0.01279
5915.24841	0.01280
5913.31973	0.01283
5911.39106	0.01287
5909.46238	0.01291
5907.53371	0.01293
5905.60503	0.01294
5903.67636	0.01296
5901.74768	0.01299
5899.81900	0.01302
5897.89033	0.01307
5895.96165	0.01312
5894.03298	0.01314
5892.10430	0.01315
5890.17563	0.01317
5888.24695	0.01319
5886.31827	0.01322
5884.38960	0.01325
5882.46092	0.01328
5880.53225	0.01331
5878.60357	0.01334
5876.67490	0.01336
5874.74622	0.01338
5872.81755	0.01339
5870.88887	0.01342
5868.96019	0.01346
5867.03152	0.01350
5865.10284	0.01355
5863.17417	0.01357
5861.24549	0.01356
5859.31682	0.01358
5857.38814	0.01362
5855.45946	0.01366
5853.53079	0.01369
5851.60211	0.01371
5849.67344	0.01373
5847.74476	0.01374
5845.81609	0.01377
5843.88741	0.01382
5841.95873	0.01386
5840.03006	0.01390
5838.10138	0.01394
5836.17271	0.01396
5834.24403	0.01398
5832.31536	0.01400
5830.38668	0.01402
5828.45800	0.01403
5826.52933	0.01404
5824.60065	0.01407
5822.67198	0.01413
5820.74330	0.01418
5818.81463	0.01420
5816.88595	0.01423
5814.95727	0.01425
5813.02860	0.01428
5811.09992	0.01431
5809.17125	0.01434
5807.24257	0.01435
5805.31390	0.01435
5803.38522	0.01438
5801.45654	0.01442
5799.52787	0.01447
5797.59919	0.01449
5795.67052	0.01452
5793.74184	0.01456
5791.81317	0.01461
5789.88449	0.01464
5787.95581	0.01467
5786.02714	0.01468
5784.09846	0.01471
5782.16979	0.01475
5780.24111	0.01479
5778.31244	0.01482
5776.38376	0.01485
5774.45508	0.01488
5772.52641	0.01490
5770.59773	0.01492
5768.66906	0.01496
5766.74038	0.01499
5764.81171	0.01501
5762.88303	0.01502
5760.95435	0.01504
5759.02568	0.01507
5757.09700	0.01510
5755.16833	0.01513
5753.23965	0.01517
5751.31098	0.01522
5749.38230	0.01525
5747.45362	0.01528
5745.52495	0.01531
5743.59627	0.01534
5741.66760	0.01537
5739.73892	0.01539
5737.81025	0.01540
5735.88157	0.01543
5733.95289	0.01548
5732.02422	0.01553
5730.09554	0.01557
5728.16687	0.01560
5726.23819	0.01564
5724.30952	0.01566
5722.38084	0.01568
5720.45216	0.01572
5718.52349	0.01576
5716.59481	0.01579
5714.66614	0.01583
5712.73746	0.01587
5710.80879	0.01591
5708.88011	0.01595
5706.95143	0.01597
5705.02276	0.01599
5703.09408	0.01600
5701.16541	0.01602
5699.23673	0.01606
5697.30806	0.01611
5695.37938	0.01614
5693.45070	0.01616
5691.52203	0.01618
5689.59335	0.01620
5687.66468	0.01623
5685.73600	0.01625
5683.80733	0.01628
5681.87865	0.01632
5679.94997	0.01637
5678.02130	0.01641
5676.09262	0.01645
5674.16395	0.01648
5672.23527	0.01652
5670.30660	0.01656
5668.37792	0.01659
5666.44924	0.01663
5664.52057	0.01668
5662.59189	0.01671
5660.66322	0.01671
5658.73454	0.01672
5656.80587	0.01674
5654.87719	0.01679
5652.94851	0.01684
5651.01984	0.01688
5649.09116	0.01691
5647.16249	0.01695
5645.23381	0.01699
5643.30514	0.01703
5641.37646	0.01706
5639.44778	0.01709
5637.51911	0.01714
5635.59043	0.01718
5633.66176	0.01721
5631.73308	0.01724
5629.80441	0.01727
5627.87573	0.01730
5625.94705	0.01733
5624.01838	0.01735
5622.08970	0.01737
5620.16103	0.01740
5618.23235	0.01745
5616.30368	0.01749
5614.37500	0.01751
5612.44632	0.01754
5610.51765	0.01759
5608.58897	0.01765
5606.66030	0.01769
5604.73162	0.01773
5602.80295	0.01776
5600.87427	0.01777
5598.94559	0.01778
5597.01692	0.01782
5595.08824	0.01788
5593.15957	0.01792
5591.23089	0.01795
5589.30222	0.01798
5587.37354	0.01801
5585.44486	0.01805
5583.51619	0.01808
5581.58751	0.01811
5579.65884	0.01814
5577.73016	0.01817
5575.80149	0.01821
5573.87281	0.01825
5571.94413	0.01828
5570.01546	0.01832
5568.08678	0.01835
5566.15811	0.01838
5564.22943	0.01841
5562.30076	0.01844
5560.37208	0.01847
5558.44340	0.01850
5556.51473	0.01854
5554.58605	0.01859
5552.65738	0.01864
5550.72870	0.01867
5548.80003	0.01870
5546.87135	0.01873
5544.94267	0.01878
5543.01400	0.01882
5541.08532	0.01885
5539.15665	0.01888
5537.22797	0.01892
5535.29930	0.01895
5533.37062	0.01897
5531.44194	0.01901
5529.51327	0.01906
5527.58459	0.01909
5525.65592	0.01914
5523.72724	0.01919
5521.79857	0.01923
5519.86989	0.01925
5517.94121	0.01927
5516.01254	0.01932
5514.08386	0.01936
5512.15519	0.01937
5510.22651	0.01939
5508.29784	0.01942
5506.36916	0.01946
5504.44048	0.01951
5502.51181	0.01957
5500.58313	0.01962
5498.65446	0.01966
5496.72578	0.01968
5494.79711	0.01971
5492.86843	0.01976
5490.93975	0.01982
5489.01108	0.01985
5487.08240	0.01987
5485.15373	0.01990
5483.22505	0.01993
5481.29638	0.01996
5479.36770	0.02000
5477.43902	0.02004
5475.51035	0.02008
5473.58167	0.02011
5471.65300	0.02015
5469.72432	0.02018
5467.79565	0.02023
5465.86697	0.02028
5463.93829	0.02032
5462.00962	0.02035
5460.08094	0.02038
5458.15227	0.02043
5456.22359	0.02049
5454.29492	0.02053
5452.36624	0.02055
5450.43756	0.02057
5448.50889	0.02061
5446.58021	0.02065
5444.65154	0.02069
5442.72286	0.02072
5440.79419	0.02075
5438.86551	0.02080
5436.93683	0.02084
5435.00816	0.02089
5433.07948	0.02093
5431.15081	0.02097
5429.22213	0.02100
5427.29346	0.02104
5425.36478	0.02109
5423.43610	0.02114
5421.50743	0.02118
5419.57875	0.02121
5417.65008	0.02124
5415.72140	0.02127
5413.79273	0.02128
5411.86405	0.02131
5409.93537	0.02136
5408.00670	0.02142
5406.07802	0.02146
5404.14935	0.02150
5402.22067	0.02156
5400.29200	0.02160
5398.36332	0.02163
5396.43464	0.02166
5394.50597	0.02170
5392.57729	0.02177
5390.64862	0.02182
5388.71994	0.02184
5386.79127	0.02186
5384.86259	0.02189
5382.93391	0.02194
5381.00524	0.02198
5379.07656	0.02201
5377.14789	0.02204
5375.21921	0.02209
5373.29054	0.02215
5371.36186	0.02219
5369.43318	0.02221
5367.50451	0.02225
5365.57583	0.02232
5363.64716	0.02237
5361.71848	0.02240
5359.78981	0.02243
5357.86113	0.02247
5355.93245	0.02252
5354.00378	0.02257
5352.07510	0.02261
5350.14643	0.02264
5348.21775	0.02266
5346.28908	0.02268
5344.36040	0.02272
5342.43172	0.02278
5340.50305	0.02283
5338.57437	0.02287
5336.64570	0.02293
5334.71702	0.02298
5332.78835	0.02302
5330.85967	0.02305
5328.93099	0.02310
5327.00232	0.02315
5325.07364	0.02321
5323.14497	0.02325
5321.21629	0.02327
5319.28762	0.02329
5317.35894	0.02333
5315.43026	0.02338
5313.50159	0.02342
5311.57291	0.02346
5309.64424	0.02349
5307.71556	0.02352
5305.78689	0.02356
5303.85821	0.02360
5301.92953	0.02366
5300.00086	0.02372
5298.07218	0.02378
5296.14351	0.02381
5294.21483	0.02384
5292.28616	0.02388
5290.35748	0.02394
5288.42880	0.02400
5286.50013	0.02403
5284.57145	0.02404
5282.64278	0.02405
5280.71410	0.02409
5278.78543	0.02415
5276.85675	0.02422
5274.92807	0.02426
5272.99940	0.02428
5271.07072	0.02431
5269.14205	0.02437
5267.21337	0.02443
5265.28470	0.02447
5263.35602	0.02451
5261.42734	0.02455
5259.49867	0.02458
5257.56999	0.02462
5255.64132	0.02468
5253.71264	0.02473
5251.78397	0.02476
5249.85529	0.02480
5247.92661	0.02484
5245.99794	0.02488
5244.06926	0.02493
5242.14059	0.02498
5240.21191	0.02503
5238.28324	0.02509
5236.35456	0.02514
5234.42588	0.02518
5232.49721	0.02521
5230.56853	0.02525
5228.63986	0.02527
5226.71118	0.02529
5224.78251	0.02533
5222.85383	0.02539
5220.92515	0.02545
5218.99648	0.02549
5217.06780	0.02553
5215.13913	0.02559
5213.21045	0.02565
5211.28178	0.02569
5209.35310	0.02571
5207.42442	0.02574
5205.49575	0.02579
5203.56707	0.02586
5201.63840	0.02591
5199.70972	0.02595
5197.78105	0.02600
5195.85237	0.02605
5193.92369	0.02610
5191.99502	0.02613
5190.06634	0.02616
5188.13767	0.02620
5186.20899	0.02625
5184.28032	0.02631
5182.35164	0.02636
5180.42296	0.02640
5178.49429	0.02643
5176.56561	0.02646
5174.63694	0.02651
5172.70826	0.02656
5170.77959	0.02662
5168.85091	0.02668
5166.92223	0.02671
5164.99356	0.02675
5163.06488	0.02679
5161.13621	0.02686
5159.20753	0.02692
5157.27886	0.02697
5155.35018	0.02699
5153.42150	0.02702
5151.49283	0.02707
5149.56415	0.02714
5147.63548	0.02720
5145.70680	0.02725
5143.77813	0.02729
5141.84945	0.02733
5139.92077	0.02737
5137.99210	0.02740
5136.06342	0.02744
5134.13475	0.02749
5132.20607	0.02754
5130.27740	0.02760
5128.34872	0.02766
5126.42004	0.02772
5124.49137	0.02777
5122.56269	0.02780
5120.63402	0.02782
5118.70534	0.02787
5116.77667	0.02794
5114.84799	0.02799
5112.91931	0.02802
5110.99064	0.02804
5109.06196	0.02808
5107.13329	0.02814
5105.20461	0.02820
5103.27594	0.02824
5101.34726	0.02827
5099.41858	0.02831
5097.48991	0.02835
5095.56123	0.02840
5093.63256	0.02843
5091.70388	0.02848
5089.77521	0.02855
5087.84653	0.02861
5085.91785	0.02865
5083.98918	0.02869
5082.06050	0.02873
5080.13183	0.02878
5078.20315	0.02884
5076.27448	0.02891
5074.34580	0.02897
5072.41712	0.02902
5070.48845	0.02905
5068.55977	0.02909
5066.63110	0.02913
5064.70242	0.02916
5062.77375	0.02921
5060.84507	0.02928
5058.91639	0.02935
5056.98772	0.02938
5055.05904	0.02941
5053.13037	0.02946
5051.20169	0.02952
5049.27302	0.02958
5047.34434	0.02963
5045.41566	0.02968
5043.48699	0.02972
5041.55831	0.02977
5039.62964	0.02982
5037.70096	0.02987
5035.77229	0.02990
5033.84361	0.02995
5031.91493	0.03000
5029.98626	0.03005
5028.05758	0.03011
5026.12891	0.03016
5024.20023	0.03020
5022.27156	0.03025
5020.34288	0.03030
5018.41420	0.03035
5016.48553	0.03039
5014.55685	0.03043
5012.62818	0.03049
5010.69950	0.03056
5008.77083	0.03060
5006.84215	0.03063
5004.91347	0.03067
5002.98480	0.03073
5001.05612	0.03079
4999.12745	0.03084
4997.19877	0.03089
4995.27010	0.03095
4993.34142	0.03100
4991.41274	0.03104
4989.48407	0.03108
4987.55539	0.03114
4985.62672	0.03120
4983.69804	0.03125
4981.76937	0.03128
4979.84069	0.03130
4977.91201	0.03135
4975.98334	0.03141
4974.05466	0.03149
4972.12599	0.03156
4970.19731	0.03162
4968.26864	0.03166
4966.33996	0.03169
4964.41128	0.03172
4962.48261	0.03179
4960.55393	0.03185
4958.62526	0.03190
4956.69658	0.03195
4954.76791	0.03202
4952.83923	0.03208
4950.91055	0.03212
4948.98188	0.03215
4947.05320	0.03219
4945.12453	0.03224
4943.19585	0.03231
4941.26718	0.03236
4939.33850	0.03241
4937.40982	0.03245
4935.48115	0.03249
4933.55247	0.03253
4931.62380	0.03259
4929.69512	0.03266
4927.76645	0.03272
4925.83777	0.03275
4923.90909	0.03278
4921.98042	0.03284
4920.05174	0.03292
4918.12307	0.03299
4916.19439	0.03306
4914.26572	0.03310
4912.33704	0.03316
4910.40836	0.03323
4908.47969	0.03329
4906.55101	0.03332
4904.62234	0.03334
4902.69366	0.03337
4900.76499	0.03343
4898.83631	0.03349
4896.90763	0.03355
4894.97896	0.03361
4893.05028	0.03366
4891.12161	0.03372
4889.19293	0.03378
4887.26426	0.03383
4885.33558	0.03388
4883.40690	0.03393
4881.47823	0.03398
4879.54955	0.03404
4877.62088	0.03410
4875.69220	0.03414
4873.76353	0.03417
4871.83485	0.03424
4869.90617	0.03433
4867.97750	0.03438
4866.04882	0.03442
4864.12015	0.03448
4862.19147	0.03454
4860.26280	0.03459
4858.33412	0.03462
4856.40544	0.03467
4854.47677	0.03471
4852.54809	0.03475
4850.61942	0.03480
4848.69074	0.03487
4846.76207	0.03494
4844.83339	0.03500
4842.90471	0.03506
4840.97604	0.03511
4839.04736	0.03517
4837.11869	0.03523
4835.19001	0.03528
4833.26134	0.03534
4831.33266	0.03540
4829.40398	0.03545
4827.47531	0.03549
4825.54663	0.03554
4823.61796	0.03560
4821.68928	0.03566
4819.76061	0.03573
4817.83193	0.03578
4815.90325	0.03582
4813.97458	0.03589
4812.04590	0.03596
4810.11723	0.03603
4808.18855	0.03607
4806.25988	0.03613
4804.33120	0.03619
4802.40252	0.03625
4800.47385	0.03631
4798.54517	0.03638
4796.61650	0.03644
4794.68782	0.03649
4792.75915	0.03655
4790.83047	0.03660
4788.90179	0.03665
4786.97312	0.03671
4785.04444	0.03676
4783.11577	0.03682
4781.18709	0.03688
4779.25842	0.03693
4777.32974	0.03698
4775.40106	0.03705
4773.47239	0.03712
4771.54371	0.03719
4769.61504	0.03726
4767.68636	0.03732
4765.75769	0.03738
4763.82901	0.03744
4761.90033	0.03751
4759.97166	0.03757
4758.04298	0.03761
4756.11431	0.03765
4754.18563	0.03769
4752.25696	0.03774
4750.32828	0.03781
4748.39960	0.03789
4746.47093	0.03795
4744.54225	0.03801
4742.61358	0.03806
4740.68490	0.03811
4738.75623	0.03817
4736.82755	0.03823
4734.89887	0.03830
4732.97020	0.03836
4731.04152	0.03842
4729.11285	0.03847
4727.18417	0.03853
4725.25550	0.03858
4723.32682	0.03865
4721.39814	0.03873
4719.46947	0.03879
4717.54079	0.03882
4715.61212	0.03887
4713.68344	0.03894
4711.75477	0.03902
4709.82609	0.03910
4707.89741	0.03915
4705.96874	0.03920
4704.04006	0.03925
4702.11139	0.03932
4700.18271	0.03940
4698.25404	0.03946
4696.32536	0.03953
4694.39668	0.03960
4692.46801	0.03967
4690.53933	0.03972
4688.61066	0.03978
4686.68198	0.03985
4684.75331	0.03992
4682.82463	0.03997
4680.89595	0.04002
4678.96728	0.04007
4677.03860	0.04013
4675.10993	0.04021
4673.18125	0.04030
4671.25258	0.04041
4669.32390	0.04047
4667.39522	0.04049
4665.46655	0.04052
4663.53787	0.04058
4661.60920	0.04066
4659.68052	0.04071
4657.75185	0.04075
4655.82317	0.04082
4653.89449	0.04091
4651.96582	0.04101
4650.03714	0.04109
4648.10847	0.04116
4646.17979	0.04122
4644.25112	0.04127
4642.32244	0.04132
4640.39376	0.04137
4638.46509	0.04143
4636.53641	0.04151
4634.60774	0.04159
4632.67906	0.04166
4630.75039	0.04172
4628.82171	0.04178
4626.89303	0.04184
4624.96436	0.04191
4623.03568	0.04197
4621.10701	0.04204
4619.17833	0.04212
4617.24966	0.04218
4615.32098	0.04226
4613.39230	0.04235
4611.46363	0.04243
4609.53495	0.04249
4607.60628	0.04254
4605.67760	0.04258
4603.74893	0.04264
4601.82025	0.04272
4599.89157	0.04280
4597.96290	0.04287
4596.03422	0.04293
4594.10555	0.04299
4592.17687	0.04306
4590.24820	0.04314
4588.31952	0.04323
4586.39084	0.04332
4584.46217	0.04339
4582.53349	0.04342
4580.60482	0.04347
4578.67614	0.04354
4576.74747	0.04364
4574.81879	0.04374
4572.89011	0.04383
4570.96144	0.04390
4569.03276	0.04395
4567.10409	0.04401
4565.17541	0.04407
4563.24674	0.04413
4561.31806	0.04421
4559.38938	0.04431
4557.46071	0.04440
4555.53203	0.04448
4553.60336	0.04453
4551.67468	0.04460
4549.74601	0.04468
4547.81733	0.04476
4545.88865	0.04485
4543.95998	0.04492
4542.03130	0.04497
4540.10263	0.04502
4538.17395	0.04509
4536.24528	0.04516
4534.31660	0.04524
4532.38792	0.04532
4530.45925	0.04539
4528.53057	0.04547
4526.60190	0.04554
4524.67322	0.04562
4522.74455	0.04572
4520.81587	0.04581
4518.88719	0.04588
4516.95852	0.04594
4515.02984	0.04600
4513.10117	0.04607
4511.17249	0.04616
4509.24382	0.04625
4507.31514	0.04633
4505.38646	0.04640
4503.45779	0.04648
4501.52911	0.04658
4499.60044	0.04665
4497.67176	0.04672
4495.74309	0.04678
4493.81441	0.04685
4491.88573	0.04692
4489.95706	0.04700
4488.02838	0.04707
4486.09971	0.04715
4484.17103	0.04724
4482.24236	0.04734
4480.31368	0.04743
4478.38500	0.04751
4476.45633	0.04757
4474.52765	0.04764
4472.59898	0.04771
4470.67030	0.04778
4468.74163	0.04786
4466.81295	0.04795
4464.88427	0.04805
4462.95560	0.04814
4461.02692	0.04825
4459.09825	0.04835
4457.16957	0.04843
4455.24090	0.04848
4453.31222	0.04854
4451.38354	0.04861
4449.45487	0.04868
4447.52619	0.04876
4445.59752	0.04883
4443.66884	0.04892
4441.74017	0.04900
4439.81149	0.04909
4437.88281	0.04920
4435.95414	0.04931
4434.02546	0.04941
4432.09679	0.04950
4430.16811	0.04959
4428.23944	0.04968
4426.31076	0.04977
4424.38208	0.04984
4422.45341	0.04989
4420.52473	0.04995
4418.59606	0.05002
4416.66738	0.05011
4414.73871	0.05020
4412.81003	0.05030
4410.88135	0.05040
4408.95268	0.05051
4407.02400	0.05061
4405.09533	0.05068
4403.16665	0.05074
4401.23798	0.05083
4399.30930	0.05094
4397.38062	0.05103
4395.45195	0.05111
4393.52327	0.05120
4391.59460	0.05131
4389.66592	0.05140
4387.73725	0.05148
4385.80857	0.05155
4383.87989	0.05162
4381.95122	0.05170
4380.02254	0.05180
4378.09387	0.05189
4376.16519	0.05198
4374.23652	0.05207
4372.30784	0.05215
4370.37916	0.05223
4368.45049	0.05232
4366.52181	0.05243
4364.59314	0.05252
4362.66446	0.05260
4360.73579	0.05268
4358.80711	0.05278
4356.87843	0.05288
4354.94976	0.05298
4353.02108	0.05304
4351.09241	0.05311
4349.16373	0.05323
4347.23506	0.05338
4345.30638	0.05349
4343.37770	0.05355
4341.44903	0.05362
4339.52035	0.05370
4337.59168	0.05379
4335.66300	0.05390
4333.73433	0.05402
4331.80565	0.05414
4329.87697	0.05425
4327.94830	0.05436
4326.01962	0.05445
4324.09095	0.05452
4322.16227	0.05459
4320.23360	0.05466
4318.30492	0.05476
4316.37624	0.05489
4314.44757	0.05502
4312.51889	0.05511
4310.59022	0.05518
4308.66154	0.05525
4306.73287	0.05535
4304.80419	0.05546
4302.87551	0.05556
4300.94684	0.05568
4299.01816	0.05581
4297.08949	0.05592
4295.16081	0.05599
4293.23214	0.05607
4291.30346	0.05617
4289.37478	0.05629
4287.44611	0.05641
4285.51743	0.05652
4283.58876	0.05662
4281.66008	0.05673
4279.73141	0.05684
4277.80273	0.05693
4275.87405	0.05702
4273.94538	0.05713
4272.01670	0.05725
4270.08803	0.05736
4268.15935	0.05747
4266.23068	0.05757
4264.30200	0.05767
4262.37332	0.05776
4260.44465	0.05785
4258.51597	0.05795
4256.58730	0.05805
4254.65862	0.05814
4252.72995	0.05825
4250.80127	0.05838
4248.87259	0.05849
4246.94392	0.05858
4245.01524	0.05866
4243.08657	0.05876
4241.15789	0.05889
4239.22922	0.05901
4237.30054	0.05911
4235.37186	0.05922
4233.44319	0.05934
4231.51451	0.05944
4229.58584	0.05955
4227.65716	0.05965
4225.72849	0.05975
4223.79981	0.05985
4221.87113	0.05996
4219.94246	0.06006
4218.01378	0.06016
4216.08511	0.06026
4214.15643	0.06038
4212.22776	0.06050
4210.29908	0.06060
4208.37040	0.06069
4206.44173	0.06081
4204.51305	0.06095
4202.58438	0.06107
4200.65570	0.06115
4198.72703	0.06125
4196.79835	0.06136
4194.86968	0.06148
4192.94100	0.06162
4191.01232	0.06175
4189.08365	0.06183
4187.15497	0.06192
4185.22630	0.06204
4183.29762	0.06214
4181.36895	0.06224
4179.44027	0.06237
4177.51159	0.06253
4175.58292	0.06268
4173.65424	0.06281
4171.72557	0.06290
4169.79689	0.06300
4167.86822	0.06312
4165.93954	0.06324
4164.01086	0.06337
4162.08219	0.06349
4160.15351	0.06361
4158.22484	0.06372
4156.29616	0.06383
4154.36749	0.06393
4152.43881	0.06403
4150.51013	0.06414
4148.58146	0.06425
4146.65278	0.06437
4144.72411	0.06450
4142.79543	0.06465
4140.86676	0.06477
4138.93808	0.06488
4137.00940	0.06499
4135.08073	0.06513
4133.15205	0.06527
4131.22338	0.06539
4129.29470	0.06548
4127.36603	0.06558
4125.43735	0.06572
4123.50867	0.06586
4121.58000	0.06597
4119.65132	0.06610
4117.72265	0.06625
4115.79397	0.06638
4113.86530	0.06651
4111.93662	0.06664
4110.00794	0.06674
4108.07927	0.06684
4106.15059	0.06697
4104.22192	0.06711
4102.29324	0.06722
4100.36457	0.06733
4098.43589	0.06747
4096.50721	0.06762
4094.57854	0.06775
4092.64986	0.06785
4090.72119	0.06797
4088.79251	0.06808
4086.86384	0.06819
4084.93516	0.06833
4083.00648	0.06846
4081.07781	0.06860
4079.14913	0.06875
4077.22046	0.06888
4075.29178	0.06899
4073.36311	0.06908
4071.43443	0.06920
4069.50575	0.06934
4067.57708	0.06950
4065.64840	0.06966
4063.71973	0.06980
4061.79105	0.06991
4059.86238	0.07002
4057.93370	0.07014
4056.00502	0.07028
4054.07635	0.07045
4052.14767	0.07058
4050.21900	0.07070
4048.29032	0.07082
4046.36165	0.07094
4044.43297	0.07106
4042.50429	0.07117
4040.57562	0.07130
4038.64694	0.07146
4036.71827	0.07164
4034.78959	0.07180
4032.86092	0.07193
4030.93224	0.07203
4029.00356	0.07213
4027.07489	0.07226
4025.14621	0.07243
4023.21754	0.07257
4021.28886	0.07268
4019.36019	0.07278
4017.43151	0.07291
4015.50283	0.07305
4013.57416	0.07322
4011.64548	0.07336
4009.71681	0.07350
4007.78813	0.07364
4005.85946	0.07379
4003.93078	0.07394
4002.00210	0.07408
4000.07343	0.07422
3998.14475	0.07436
3996.21608	0.07449
3994.28740	0.07462
3992.35873	0.07477
3990.43005	0.07492
3988.50137	0.07505
3986.57270	0.07516
3984.64402	0.07528
3982.71535	0.07539
3980.78667	0.07550
3978.85800	0.07565
3976.92932	0.07582
3975.00064	0.07597
3973.07197	0.07611
3971.14329	0.07627
3969.21462	0.07644
3967.28594	0.07660
3965.35727	0.07674
3963.42859	0.07686
3961.49991	0.07698
3959.57124	0.07710
3957.64256	0.07724
3955.71389	0.07741
3953.78521	0.07758
3951.85654	0.07772
3949.92786	0.07782
3947.99918	0.07794
3946.07051	0.07810
3944.14183	0.07822
3942.21316	0.07835
3940.28448	0.07851
3938.35581	0.07868
3936.42713	0.07882
3934.49845	0.07892
3932.56978	0.07901
3930.64110	0.07917
3928.71243	0.07935
3926.78375	0.07950
3924.85508	0.07963
3922.92640	0.07979
3920.99772	0.07991
3919.06905	0.07999
3917.14037	0.08011
3915.21170	0.08033
3913.28302	0.08059
3911.35435	0.08081
3909.42567	0.08097
3907.49699	0.08100
3905.56832	0.08091
3903.63964	0.08085
3901.71097	0.08095
3899.78229	0.08121
3897.85362	0.08157
3895.92494	0.08189
3893.99626	0.08200
3892.06759	0.08204
3890.13891	0.08218
3888.21024	0.08232
3886.28156	0.08236
3884.35289	0.08249
3882.42421	0.08268
3880.49553	0.08286
3878.56686	0.08313
3876.63818	0.08337
3874.70951	0.08345
3872.78083	0.08345
3870.85216	0.08348
3868.92348	0.08365
3866.99480	0.08390
3865.06613	0.08408
3863.13745	0.08429
3861.20878	0.08458
3859.28010	0.08477
3857.35143	0.08464
3855.42275	0.08424
3853.49407	0.08417
3851.56540	0.08475
3849.63672	0.08545
3847.70805	0.08583
3845.77937	0.08592
3843.85070	0.08593
3841.92202	0.08595
3839.99334	0.08599
3838.06467	0.08610
3836.13599	0.08634
3834.20732	0.08661
3832.27864	0.08686
3830.34997	0.08712
3828.42129	0.08732
3826.49261	0.08745
3824.56394	0.08749
3822.63526	0.08745
3820.70659	0.08755
3818.77791	0.08783
3816.84924	0.08806
3814.92056	0.08835
3812.99188	0.08873
3811.06321	0.08896
3809.13453	0.08896
3807.20586	0.08896
3805.27718	0.08908
3803.34851	0.08916
3801.41983	0.08924
3799.49115	0.08949
3797.56248	0.08977
3795.63380	0.09004
3793.70513	0.09035
3791.77645	0.09060
3789.84778	0.09077
3787.91910	0.09088
3785.99042	0.09099
3784.06175	0.09113
3782.13307	0.09127
3780.20440	0.09140
3778.27572	0.09161
3776.34705	0.09186
3774.41837	0.09202
3772.48969	0.09204
3770.56102	0.09206
3768.63234	0.09220
3766.70367	0.09244
3764.77499	0.09269
3762.84632	0.09291
3760.91764	0.09299
3758.98896	0.09308
3757.06029	0.09328
3755.13161	0.09335
3753.20294	0.09319
3751.27426	0.09309
3749.34559	0.09327
3747.41691	0.09342
3745.48823	0.09336
3743.55956	0.09361
3741.63088	0.09425
3739.70221	0.09458
3737.77353	0.09448
3735.84486	0.09443
3733.91618	0.09471
3731.98750	0.09519
3730.05883	0.09558
3728.13015	0.09575
3726.20148	0.09585
3724.27280	0.09604
3722.34413	0.09628
3720.41545	0.09652
3718.48677	0.09678
3716.55810	0.09696
3714.62942	0.09696
3712.70075	0.09689
3710.77207	0.09703
3708.84340	0.09742
3706.91472	0.09781
3704.98604	0.09802
3703.05737	0.09807
3701.12869	0.09821
3699.20002	0.09851
3697.27134	0.09878
3695.34267	0.09891
3693.41399	0.09890
3691.48531	0.09879
3689.55664	0.09881
3687.62796	0.09913
3685.69929	0.09957
3683.77061	0.09988
3681.84194	0.10000
3679.91326	0.10000
3677.98458	0.09988
3676.05591	0.09980
3674.12723	0.10000
3672.19856	0.10028
3670.26988	0.10048
3668.34121	0.10084
3666.41253	0.10128
3664.48385	0.10156
3662.55518	0.10174
3660.62650	0.10187
3658.69783	0.10190
3656.76915	0.10190
3654.84048	0.10198
3652.91180	0.10193
3650.98312	0.10164
3649.05445	0.10152
3647.12577	0.10182
3645.19710	0.10238
3643.26842	0.10289
3641.33975	0.10321
3639.41107	0.10343
3637.48239	0.10357
3635.55372	0.10367
3633.62504	0.10370
3631.69637	0.10358
3629.76769	0.10343
3627.83902	0.10369
3625.91034	0.10422
3623.98166	0.10451
3622.05299	0.10450
3620.12431	0.10443
3618.19564	0.10454
3616.26696	0.10475
3614.33829	0.10487
3612.40961	0.10493
3610.48093	0.10497
3608.55226	0.10511
3606.62358	0.10542
3604.69491	0.10574
3602.76623	0.10591
3600.83756	0.10602
3598.90888	0.10615
3596.98020	0.10625
3595.05153	0.10634
3593.12285	0.10647
3591.19418	0.10651
3589.26550	0.10642
3587.33683	0.10650
3585.40815	0.10684
3583.47947	0.10720
3581.55080	0.10740
3579.62212	0.10755
3577.69345	0.10771
3575.76477	0.10787
3573.83610	0.10804
3571.90742	0.10813
3569.97874	0.10805
3568.05007	0.10794
3566.12139	0.10807
3564.19272	0.10842
3562.26404	0.10873
3560.33537	0.10895
3558.40669	0.10911
3556.47801	0.10924
3554.54934	0.10935
3552.62066	0.10946
3550.69199	0.10959
3548.76331	0.10968
3546.83464	0.10975
3544.90596	0.10988
3542.97728	0.11008
3541.04861	0.11025
3539.11993	0.11035
3537.19126	0.11040
3535.26258	0.11048
3533.33391	0.11060
3531.40523	0.11071
3529.47655	0.11076
3527.54788	0.11081
3525.61920	0.11088
3523.69053	0.11098
3521.76185	0.11109
3519.83318	0.11119
3517.90450	0.11128
3515.97582	0.11136
3514.04715	0.11142
3512.11847	0.11145
3510.18980	0.11148
3508.26112	0.11156
3506.33245	0.11164
3504.40377	0.11168
3502.47509	0.11172
3500.54642	0.11178
3498.61774	0.11186
3496.68907	0.11191
3494.76039	0.11196
3492.83172	0.11201
3490.90304	0.11204
3488.97436	0.11206
3487.04569	0.11214
3485.11701	0.11224
3483.18834	0.11233
3481.25966	0.11242
3479.33099	0.11255
3477.40231	0.11267
3475.47363	0.11276
3473.54496	0.11288
3471.61628	0.11305
3469.68761	0.11323
3467.75893	0.11339
3465.83026	0.11355
3463.90158	0.11372
3461.97290	0.11392
3460.04423	0.11411
3458.11555	0.11430
3456.18688	0.11449
3454.25820	0.11468
3452.32953	0.11486
3450.40085	0.11501
3448.47217	0.11514
3446.54350	0.11532
3444.61482	0.11554
3442.68615	0.11578
3440.75747	0.11601
3438.82880	0.11624
3436.90012	0.11654
3434.97144	0.11687
3433.04277	0.11720
3431.11409	0.11753
3429.18542	0.11791
3427.25674	0.11830
3425.32807	0.11867
3423.39939	0.11901
3421.47071	0.11933
3419.54204	0.11964
3417.61336	0.11996
3415.68469	0.12028
3413.75601	0.12057
3411.82734	0.12082
3409.89866	0.12107
3407.96998	0.12133
3406.04131	0.12158
3404.11263	0.12183
3402.18396	0.12206
3400.25528	0.12229
3398.32661	0.12253
3396.39793	0.12278
3394.46925	0.12304
3392.54058	0.12331
3390.61190	0.12358
3388.68323	0.12383
3386.75455	0.12406
3384.82588	0.12432
3382.89720	0.12457
3380.96852	0.12483
3379.03985	0.12508
3377.11117	0.12531
3375.18250	0.12554
3373.25382	0.12574
3371.32515	0.12594
3369.39647	0.12617
3367.46779	0.12642
3365.53912	0.12667
3363.61044	0.12690
3361.68177	0.12710
3359.75309	0.12731
3357.82442	0.12754
3355.89574	0.12778
3353.96706	0.12804
3352.03839	0.12828
3350.10971	0.12850
3348.18104	0.12871
3346.25236	0.12894
3344.32369	0.12919
3342.39501	0.12940
3340.46633	0.12957
3338.53766	0.12977
3336.60898	0.13000
3334.68031	0.13022
3332.75163	0.13047
3330.82296	0.13075
3328.89428	0.13099
3326.96560	0.13120
3325.03693	0.13142
3323.10825	0.13167
3321.17958	0.13191
3319.25090	0.13213
3317.32223	0.13235
3315.39355	0.13259
3313.46487	0.13284
3311.53620	0.13309
3309.60752	0.13332
3307.67885	0.13356
3305.75017	0.13380
3303.82150	0.13404
3301.89282	0.13428
3299.96414	0.13452
3298.03547	0.13473
3296.10679	0.13493
3294.17812	0.13516
3292.24944	0.13540
3290.32077	0.13566
3288.39209	0.13596
3286.46341	0.13623
3284.53474	0.13645
3282.60606	0.13669
3280.67739	0.13696
3278.74871	0.13724
3276.82004	0.13750
3274.89136	0.13775
3272.96268	0.13797
3271.03401	0.13819
3269.10533	0.13844
3267.17666	0.13871
3265.24798	0.13894
3263.31931	0.13915
3261.39063	0.13938
3259.46195	0.13964
3257.53328	0.13992
3255.60460	0.14018
3253.67593	0.14041
3251.74725	0.14067
3249.81858	0.14095
3247.88990	0.14123
3245.96122	0.14146
3244.03255	0.14167
3242.10387	0.14194
3240.17520	0.14221
3238.24652	0.14245
3236.31785	0.14270
3234.38917	0.14296
3232.46049	0.14319
3230.53182	0.14343
3228.60314	0.14368
3226.67447	0.14394
3224.74579	0.14419
3222.81712	0.14441
3220.88844	0.14464
3218.95976	0.14489
3217.03109	0.14513
3215.10241	0.14537
3213.17374	0.14563
3211.24506	0.14589
3209.31639	0.14614
3207.38771	0.14639
3205.45903	0.14665
3203.53036	0.14693
3201.60168	0.14720
3199.67301	0.14746
3197.74433	0.14772
3195.81566	0.14800
3193.88698	0.14828
3191.95830	0.14855
3190.02963	0.14880
3188.10095	0.14905
3186.17228	0.14931
3184.24360	0.14957
3182.31493	0.14984
3180.38625	0.15009
3178.45757	0.15035
3176.52890	0.15063
3174.60022	0.15091
3172.67155	0.15118
3170.74287	0.15142
3168.81420	0.15167
3166.88552	0.15194
3164.95684	0.15222
3163.02817	0.15248
3161.09949	0.15273
3159.17082	0.15299
3157.24214	0.15324
3155.31347	0.15349
3153.38479	0.15376
3151.45611	0.15404
3149.52744	0.15430
3147.59876	0.15455
3145.67009	0.15480
3143.74141	0.15505
3141.81274	0.15531
3139.88406	0.15558
3137.95538	0.15584
3136.02671	0.15610
3134.09803	0.15634
3132.16936	0.15662
3130.24068	0.15691
3128.31201	0.15717
3126.38333	0.15741
3124.45465	0.15765
3122.52598	0.15790
3120.59730	0.15814
3118.66863	0.15838
3116.73995	0.15864
3114.81128	0.15891
3112.88260	0.15919
3110.95392	0.15947
3109.02525	0.15971
3107.09657	0.15995
3105.16790	0.16019
3103.23922	0.16044
3101.31055	0.16070
3099.38187	0.16099
3097.45319	0.16129
3095.52452	0.16158
3093.59584	0.16186
3091.66717	0.16211
3089.73849	0.16237
3087.80982	0.16261
3085.88114	0.16284
3083.95246	0.16306
3082.02379	0.16332
3080.09511	0.16357
3078.16644	0.16382
3076.23776	0.16408
3074.30909	0.16436
3072.38041	0.16463
3070.45173	0.16488
3068.52306	0.16514
3066.59438	0.16538
3064.66571	0.16559
3062.73703	0.16584
3060.80836	0.16614
3058.87968	0.16643
3056.95100	0.16671
3055.02233	0.16699
3053.09365	0.16725
3051.16498	0.16749
3049.23630	0.16771
3047.30763	0.16795
3045.37895	0.16818
3043.45027	0.16844
3041.52160	0.16872
3039.59292	0.16899
3037.66425	0.16925
3035.73557	0.16952
3033.80690	0.16977
3031.87822	0.16999
3029.94954	0.17021
3028.02087	0.17046
3026.09219	0.17074
3024.16352	0.17102
3022.23484	0.17130
3020.30617	0.17155
3018.37749	0.17179
3016.44881	0.17204
3014.52014	0.17226
3012.59146	0.17247
3010.66279	0.17273
3008.73411	0.17303
3006.80544	0.17331
3004.87676	0.17358
3002.94808	0.17387
3001.01941	0.17412
2999.09073	0.17434
2997.16206	0.17455
2995.23338	0.17480
2993.30471	0.17505
2991.37603	0.17530
2989.44735	0.17553
2987.51868	0.17573
2985.59000	0.17588
2983.66133	0.17601
2981.73265	0.17616
2979.80398	0.17630
2977.87530	0.17640
2975.94662	0.17646
2974.01795	0.17649
2972.08927	0.17649
2970.16060	0.17645
2968.23192	0.17640
2966.30325	0.17639
2964.37457	0.17647
2962.44589	0.17662
2960.51722	0.17685
2958.58854	0.17716
2956.65987	0.17750
2954.73119	0.17786
2952.80252	0.17824
2950.87384	0.17859
2948.94516	0.17885
2947.01649	0.17904
2945.08781	0.17921
2943.15914	0.17937
2941.23046	0.17948
2939.30179	0.17952
2937.37311	0.17949
2935.44443	0.17941
2933.51576	0.17933
2931.58708	0.17926
2929.65841	0.17922
2927.72973	0.17920
2925.80106	0.17919
2923.87238	0.17920
2921.94370	0.17926
2920.01503	0.17941
2918.08635	0.17970
2916.15768	0.18024
2914.22900	0.18104
2912.30033	0.18193
2910.37165	0.18274
2908.44297	0.18339
2906.51430	0.18391
2904.58562	0.18438
2902.65695	0.18482
2900.72827	0.18520
2898.79960	0.18555
2896.87092	0.18593
2894.94224	0.18632
2893.01357	0.18669
2891.08489	0.18704
2889.15622	0.18738
2887.22754	0.18769
2885.29887	0.18801
2883.37019	0.18833
2881.44151	0.18861
2879.51284	0.18887
2877.58416	0.18910
2875.65549	0.18932
2873.72681	0.18954
2871.79814	0.18978
2869.86946	0.19002
2867.94078	0.19023
2866.01211	0.19042
2864.08343	0.19060
2862.15476	0.19077
2860.22608	0.19087
2858.29741	0.19090
2856.36873	0.19087
2854.44005	0.19084
2852.51138	0.19084
2850.58270	0.19101
2848.65403	0.19153
2846.72535	0.19235
2844.79668	0.19322
2842.86800	0.19400
2840.93932	0.19466
2839.01065	0.19520
2837.08197	0.19564
2835.15330	0.19601
2833.22462	0.19634
2831.29595	0.19668
2829.36727	0.19704
2827.43859	0.19736
2825.50992	0.19764
2823.58124	0.19793
2821.65257	0.19824
2819.72389	0.19856
2817.79522	0.19887
2815.86654	0.19917
2813.93786	0.19945
2812.00919	0.19973
2810.08051	0.20005
2808.15184	0.20035
2806.22316	0.20060
2804.29449	0.20085
2802.36581	0.20115
2800.43713	0.20148
2798.50846	0.20177
2796.57978	0.20203
2794.65111	0.20230
2792.72243	0.20255
2790.79376	0.20279
2788.86508	0.20307
2786.93640	0.20340
2785.00773	0.20375
2783.07905	0.20404
2781.15038	0.20430
2779.22170	0.20456
2777.29303	0.20484
2775.36435	0.20513
2773.43567	0.20540
2771.50700	0.20564
2769.57832	0.20586
2767.64965	0.20611
2765.72097	0.20642
2763.79230	0.20677
2761.86362	0.20710
2759.93494	0.20740
2758.00627	0.20766
2756.07759	0.20791
2754.14892	0.20816
2752.22024	0.20842
2750.29157	0.20867
2748.36289	0.20891
2746.43421	0.20918
2744.50554	0.20945
2742.57686	0.20974
2740.64819	0.21002
2738.71951	0.21030
2736.79084	0.21057
2734.86216	0.21083
2732.93348	0.21111
2731.00481	0.21143
2729.07613	0.21172
2727.14746	0.21196
2725.21878	0.21218
2723.29011	0.21242
2721.36143	0.21272
2719.43275	0.21305
2717.50408	0.21335
2715.57540	0.21360
2713.64673	0.21386
2711.71805	0.21412
2709.78938	0.21438
2707.86070	0.21463
2705.93202	0.21491
2704.00335	0.21522
2702.07467	0.21550
2700.14600	0.21574
2698.21732	0.21596
2696.28865	0.21619
2694.35997	0.21643
2692.43129	0.21671
2690.50262	0.21699
2688.57394	0.21724
2686.64527	0.21748
2684.71659	0.21776
2682.78792	0.21806
2680.85924	0.21835
2678.93056	0.21862
2677.00189	0.21889
2675.07321	0.21919
2673.14454	0.21946
2671.21586	0.21968
2669.28719	0.21989
2667.35851	0.22013
2665.42983	0.22041
2663.50116	0.22071
2661.57248	0.22100
2659.64381	0.22130
2657.71513	0.22160
2655.78646	0.22188
2653.85778	0.22216
2651.92910	0.22243
2650.00043	0.22269
2648.07175	0.22296
2646.14308	0.22324
2644.21440	0.22349
2642.28573	0.22376
2640.35705	0.22407
2638.42837	0.22436
2636.49970	0.22464
2634.57102	0.22493
2632.64235	0.22523
2630.71367	0.22554
2628.78500	0.22584
2626.85632	0.22612
2624.92764	0.22640
2622.99897	0.22668
2621.07029	0.22699
2619.14162	0.22731
2617.21294	0.22763
2615.28427	0.22790
2613.35559	0.22816
2611.42691	0.22843
2609.49824	0.22871
2607.56956	0.22900
2605.64089	0.22929
2603.71221	0.22961
2601.78354	0.22995
2599.85486	0.23024
2597.92618	0.23050
2595.99751	0.23075
2594.06883	0.23102
2592.14016	0.23131
2590.21148	0.23162
2588.28281	0.23192
2586.35413	0.23218
2584.42545	0.23243
2582.49678	0.23271
2580.56810	0.23300
2578.63943	0.23329
2576.71075	0.23358
2574.78208	0.23386
2572.85340	0.23412
2570.92472	0.23437
2568.99605	0.23465
2567.06737	0.23494
2565.13870	0.23521
2563.21002	0.23546
2561.28135	0.23573
2559.35267	0.23601
2557.42399	0.23630
2555.49532	0.23658
2553.56664	0.23687
2551.63797	0.23715
2549.70929	0.23740
2547.78062	0.23767
2545.85194	0.23796
2543.92326	0.23824
2541.99459	0.23850
2540.06591	0.23878
2538.13724	0.23908
2536.20856	0.23937
2534.27989	0.23961
2532.35121	0.23984
2530.42253	0.24014
2528.49386	0.24047
2526.56518	0.24078
2524.63651	0.24109
2522.70783	0.24138
2520.77916	0.24166
2518.85048	0.24196
2516.92181	0.24227
2514.99313	0.24258
2513.06445	0.24286
2511.13578	0.24313
2509.20710	0.24341
2507.27843	0.24369
2505.34975	0.24401
2503.42108	0.24434
2501.49240	0.24466
2499.56372	0.24496
2497.63505	0.24526
2495.70637	0.24560
2493.77770	0.24594
2491.84902	0.24625
2489.92035	0.24655
2487.99167	0.24687
2486.06299	0.24720
2484.13432	0.24752
2482.20564	0.24783
2480.27697	0.24815
2478.34829	0.24844
2476.41962	0.24871
2474.49094	0.24900
2472.56226	0.24932
2470.63359	0.24962
2468.70491	0.24988
2466.77624	0.25014
2464.84756	0.25042
2462.91889	0.25073
2460.99021	0.25108
2459.06153	0.25141
2457.13286	0.25167
2455.20418	0.25193
2453.27551	0.25222
2451.34683	0.25253
2449.41816	0.25284
2447.48948	0.25314
2445.56080	0.25343
2443.63213	0.25374
2441.70345	0.25404
2439.77478	0.25433
2437.84610	0.25462
2435.91743	0.25493
2433.98875	0.25522
2432.06007	0.25552
2430.13140	0.25581
2428.20272	0.25609
2426.27405	0.25637
2424.34537	0.25670
2422.41670	0.25703
2420.48802	0.25735
2418.55934	0.25765
2416.63067	0.25793
2414.70199	0.25822
2412.77332	0.25850
2410.84464	0.25881
2408.91597	0.25912
2406.98729	0.25941
2405.05861	0.25970
2403.12994	0.25998
2401.20126	0.26025
2399.27259	0.26052
2397.34391	0.26078
2395.41524	0.26106
2393.48656	0.26137
2391.55788	0.26166
2389.62921	0.26193
2387.70053	0.26223
2385.77186	0.26253
2383.84318	0.26278
2381.91451	0.26297
2379.98583	0.26312
2378.05715	0.26324
2376.12848	0.26331
2374.19980	0.26334
2372.27113	0.26337
2370.34245	0.26342
2368.41378	0.26353
2366.48510	0.26369
2364.55642	0.26389
2362.62775	0.26413
2360.69907	0.26439
2358.77040	0.26472
2356.84172	0.26515
2354.91305	0.26566
2352.98437	0.26624
2351.05569	0.26684
2349.12702	0.26730
2347.19834	0.26748
2345.26967	0.26749
2343.34099	0.26756
2341.41232	0.26779
2339.48364	0.26810
2337.55496	0.26837
2335.62629	0.26864
2333.69761	0.26894
2331.76894	0.26926
2329.84026	0.26957
2327.91159	0.26988
2325.98291	0.27025
2324.05423	0.27069
2322.12556	0.27113
2320.19688	0.27152
2318.26821	0.27192
2316.33953	0.27236
2314.41086	0.27281
2312.48218	0.27319
2310.55350	0.27354
2308.62483	0.27388
2306.69615	0.27421
2304.76748	0.27459
2302.83880	0.27501
2300.91013	0.27537
2298.98145	0.27565
2297.05277	0.27590
2295.12410	0.27620
2293.19542	0.27653
2291.26675	0.27689
2289.33807	0.27722
2287.40940	0.27750
2285.48072	0.27779
2283.55204	0.27810
2281.62337	0.27838
2279.69469	0.27865
2277.76602	0.27893
2275.83734	0.27921
2273.90867	0.27951
2271.97999	0.27984
2270.05131	0.28017
2268.12264	0.28047
2266.19396	0.28077
2264.26529	0.28108
2262.33661	0.28135
2260.40794	0.28160
2258.47926	0.28187
2256.55058	0.28216
2254.62191	0.28246
2252.69323	0.28274
2250.76456	0.28305
2248.83588	0.28340
2246.90721	0.28372
2244.97853	0.28400
2243.04985	0.28425
2241.12118	0.28451
2239.19250	0.28480
2237.26383	0.28513
2235.33515	0.28545
2233.40648	0.28572
2231.47780	0.28598
2229.54912	0.28627
2227.62045	0.28661
2225.69177	0.28694
2223.76310	0.28722
2221.83442	0.28750
2219.90575	0.28777
2217.97707	0.28804
2216.04839	0.28835
2214.11972	0.28868
2212.19104	0.28898
2210.26237	0.28926
2208.33369	0.28954
2206.40502	0.28981
2204.47634	0.29006
2202.54766	0.29031
2200.61899	0.29060
2198.69031	0.29090
2196.76164	0.29115
2194.83296	0.29141
2192.90429	0.29173
2190.97561	0.29206
2189.04693	0.29237
2187.11826	0.29265
2185.18958	0.29294
2183.26091	0.29325
2181.33223	0.29357
2179.40356	0.29390
2177.47488	0.29420
2175.54620	0.29446
2173.61753	0.29471
2171.68885	0.29498
2169.76018	0.29526
2167.83150	0.29558
2165.90283	0.29592
2163.97415	0.29628
2162.04547	0.29660
2160.11680	0.29690
2158.18812	0.29720
2156.25945	0.29750
2154.33077	0.29780
2152.40210	0.29810
2150.47342	0.29840
2148.54474	0.29871
2146.61607	0.29902
2144.68739	0.29932
2142.75872	0.29961
2140.83004	0.29993
2138.90137	0.30023
2136.97269	0.30048
2135.04401	0.30072
2133.11534	0.30101
2131.18666	0.30134
2129.25799	0.30165
2127.32931	0.30191
2125.40064	0.30219
2123.47196	0.30253
2121.54328	0.30287
2119.61461	0.30316
2117.68593	0.30342
2115.75726	0.30369
2113.82858	0.30398
2111.89991	0.30429
2109.97123	0.30461
2108.04255	0.30492
2106.11388	0.30525
2104.18520	0.30559
2102.25653	0.30590
2100.32785	0.30619
2098.39918	0.30648
2096.47050	0.30676
2094.54182	0.30706
2092.61315	0.30740
2090.68447	0.30771
2088.75580	0.30796
2086.82712	0.30819
2084.89845	0.30846
2082.96977	0.30876
2081.04109	0.30909
2079.11242	0.30942
2077.18374	0.30974
2075.25507	0.31004
2073.32639	0.31034
2071.39772	0.31065
2069.46904	0.31094
2067.54036	0.31121
2065.61169	0.31148
2063.68301	0.31173
2061.75434	0.31202
2059.82566	0.31238
2057.89699	0.31276
2055.96831	0.31305
2054.03963	0.31332
2052.11096	0.31362
2050.18228	0.31394
2048.25361	0.31426
2046.32493	0.31454
2044.39626	0.31481
2042.46758	0.31510
2040.53890	0.31538
2038.61023	0.31567
2036.68155	0.31600
2034.75288	0.31635
2032.82420	0.31666
2030.89553	0.31692
2028.96685	0.31719
2027.03817	0.31749
2025.10950	0.31782
2023.18082	0.31817
2021.25215	0.31851
2019.32347	0.31877
2017.39480	0.31901
2015.46612	0.31932
2013.53744	0.31968
2011.60877	0.32000
2009.68009	0.32029
2007.75142	0.32058
2005.82274	0.32086
2003.89407	0.32113
2001.96539	0.32142
2000.03671	0.32172
1998.10804	0.32201
1996.17936	0.32229
1994.25069	0.32248
1992.32201	0.32266
1990.39334	0.32296
1988.46466	0.32330
1986.53598	0.32361
1984.60731	0.32394
1982.67863	0.32424
1980.74996	0.32449
1978.82128	0.32471
1976.89261	0.32493
1974.96393	0.32518
1973.03525	0.32548
1971.10658	0.32576
1969.17790	0.32596
1967.24923	0.32618
1965.32055	0.32650
1963.39188	0.32683
1961.46320	0.32709
1959.53452	0.32732
1957.60585	0.32759
1955.67717	0.32790
1953.74850	0.32823
1951.81982	0.32855
1949.89115	0.32887
1947.96247	0.32918
1946.03379	0.32937
1944.10512	0.32945
1942.17644	0.32966
1940.24777	0.33014
1938.31909	0.33066
1936.39042	0.33102
1934.46174	0.33125
1932.53306	0.33146
1930.60439	0.33170
1928.67571	0.33202
1926.74704	0.33238
1924.81836	0.33261
1922.88969	0.33276
1920.96101	0.33292
1919.03233	0.33304
1917.10366	0.33338
1915.17498	0.33398
1913.24631	0.33446
1911.31763	0.33467
1909.38896	0.33486
1907.46028	0.33517
1905.53160	0.33553
1903.60293	0.33585
1901.67425	0.33615
1899.74558	0.33646
1897.81690	0.33670
1895.88823	0.33691
1893.95955	0.33717
1892.03087	0.33736
1890.10220	0.33748
1888.17352	0.33781
1886.24485	0.33829
1884.31617	0.33871
1882.38750	0.33904
1880.45882	0.33931
1878.53014	0.33955
1876.60147	0.33980
1874.67279	0.34005
1872.74412	0.34014
1870.81544	0.34002
1868.88677	0.34007
1866.95809	0.34061
1865.02941	0.34134
1863.10074	0.34188
1861.17206	0.34221
1859.24339	0.34248
1857.31471	0.34279
1855.38604	0.34312
1853.45736	0.34345
1851.52868	0.34375
1849.60001	0.34393
1847.67133	0.34387
1845.74266	0.34367
1843.81398	0.34386
1841.88531	0.34465
1839.95663	0.34539
1838.02795	0.34579
1836.09928	0.34611
1834.17060	0.34637
1832.24193	0.34632
1830.31325	0.34621
1828.38458	0.34643
1826.45590	0.34681
1824.52722	0.34723
1822.59855	0.34783
1820.66987	0.34836
1818.74120	0.34864
1816.81252	0.34889
1814.88385	0.34915
1812.95517	0.34926
1811.02649	0.34937
1809.09782	0.34972
1807.16914	0.35020
1805.24047	0.35046
1803.31179	0.35037
1801.38312	0.35026
1799.45444	0.35051
1797.52576	0.35097
1795.59709	0.35114
1793.66841	0.35100
1791.73974	0.35116
1789.81106	0.35185
1787.88239	0.35241
1785.95371	0.35254
1784.02503	0.35265
1782.09636	0.35287
1780.16768	0.35316
1778.23901	0.35349
1776.31033	0.35357
1774.38166	0.35325
1772.45298	0.35300
1770.52430	0.35321
1768.59563	0.35376
1766.66695	0.35445
1764.73828	0.35489
1762.80960	0.35488
1760.88093	0.35494
1758.95225	0.35515
1757.02357	0.35529
1755.09490	0.35537
1753.16622	0.35499
1751.23755	0.35437
1749.30887	0.35430
1747.38020	0.35478
1745.45152	0.35516
1743.52284	0.35524
1741.59417	0.35519
1739.66549	0.35528
1737.73682	0.35530
1735.80814	0.35477
1733.87947	0.35448
1731.95079	0.35525
1730.02211	0.35639
1728.09344	0.35726
1726.16476	0.35781
1724.23609	0.35808
1722.30741	0.35811
1720.37874	0.35763
1718.45006	0.35698
1716.52138	0.35706
1714.59271	0.35795
1712.66403	0.35893
1710.73536	0.35951
1708.80668	0.35954
1706.87801	0.35926
1704.94933	0.35905
1703.02065	0.35853
1701.09198	0.35776
1699.16330	0.35773
1697.23463	0.35825
1695.30595	0.35887
1693.37728	0.35975
1691.44860	0.36025
1689.51992	0.36014
1687.59125	0.35967
1685.66257	0.35887
1683.73390	0.35859
1681.80522	0.35935
1679.87655	0.36022
1677.94787	0.36035
1676.01919	0.36002
1674.09052	0.35998
1672.16184	0.36000
1670.23317	0.35991
1668.30449	0.36036
1666.37582	0.36111
1664.44714	0.36130
1662.51846	0.36127
1660.58979	0.36156
1658.66111	0.36176
1656.73244	0.36104
1654.80376	0.35952
1652.87509	0.35896
1650.94641	0.35999
1649.01773	0.36072
1647.08906	0.36070
1645.16038	0.36124
1643.23171	0.36218
1641.30303	0.36263
1639.37436	0.36237
1637.44568	0.36170
1635.51700	0.36154
1633.58833	0.36235
1631.65965	0.36313
1629.73098	0.36313
1627.80230	0.36281
1625.87363	0.36240
1623.94495	0.36179
1622.01627	0.36132
1620.08760	0.36122
1618.15892	0.36149
1616.23025	0.36251
1614.30157	0.36404
1612.37290	0.36516
1610.44422	0.36570
1608.51554	0.36612
1606.58687	0.36661
1604.65819	0.36709
1602.72952	0.36752
1600.80084	0.36795
1598.87217	0.36830
1596.94349	0.36854
1595.01481	0.36877
1593.08614	0.36909
1591.15746	0.36943
1589.22879	0.36975
1587.30011	0.37008
1585.37144	0.37039
1583.44276	0.37070
1581.51408	0.37098
1579.58541	0.37095
1577.65673	0.37058
1575.72806	0.37063
1573.79938	0.37128
1571.87071	0.37155
1569.94203	0.37149
1568.01335	0.37187
1566.08468	0.37245
1564.15600	0.37264
1562.22733	0.37198
1560.29865	0.37073
1558.36998	0.37047
1556.44130	0.37173
1554.51262	0.37314
1552.58395	0.37390
1550.65527	0.37425
1548.72660	0.37449
1546.79792	0.37442
1544.86925	0.37383
1542.94057	0.37309
1541.01189	0.37277
1539.08322	0.37342
1537.15454	0.37462
1535.22587	0.37518
1533.29719	0.37529
1531.36852	0.37573
1529.43984	0.37604
1527.51116	0.37589
1525.58249	0.37564
1523.65381	0.37518
1521.72514	0.37470
1519.79646	0.37492
1517.86779	0.37562
1515.93911	0.37631
1514.01043	0.37689
1512.08176	0.37700
1510.15308	0.37644
1508.22441	0.37574
1506.29573	0.37609
1504.36706	0.37755
1502.43838	0.37863
1500.50970	0.37859
1498.58103	0.37819
1496.65235	0.37829
1494.72368	0.37882
1492.79500	0.37896
1490.86633	0.37853
1488.93765	0.37835
1487.00897	0.37885
1485.08030	0.37953
1483.15162	0.37986
1481.22295	0.37988
1479.29427	0.37964
1477.36560	0.37904
1475.43692	0.37823
1473.50824	0.37765
1471.57957	0.37771
1469.65089	0.37818
1467.72222	0.37825
1465.79354	0.37797
1463.86487	0.37802
1461.93619	0.37817
1460.00751	0.37747
1458.07884	0.37635
1456.15016	0.37646
1454.22149	0.37781
1452.29281	0.37889
1450.36414	0.37914
1448.43546	0.37915
1446.50678	0.37943
1444.57811	0.37986
1442.64943	0.38016
1440.72076	0.38011
1438.79208	0.37945
1436.86341	0.37883
1434.93473	0.37919
1433.00605	0.37986
1431.07738	0.38003
1429.14870	0.38010
1427.22003	0.38023
1425.29135	0.38012
1423.36268	0.37978
1421.43400	0.37910
1419.50532	0.37839
1417.57665	0.37853
1415.64797	0.37928
1413.71930	0.37972
1411.79062	0.37977
1409.86195	0.37973
1407.93327	0.37958
1406.00459	0.37934
1404.07592	0.37927
1402.14724	0.37927
1400.21857	0.37900
1398.28989	0.37862
1396.36122	0.37839
1394.43254	0.37843
1392.50386	0.37870
1390.57519	0.37861
1388.64651	0.37796
1386.71784	0.37735
1384.78916	0.37720
1382.86049	0.37737
1380.93181	0.37759
1379.00313	0.37766
1377.07446	0.37749
1375.14578	0.37725
1373.21711	0.37724
1371.28843	0.37741
1369.35976	0.37745
1367.43108	0.37736
1365.50240	0.37707
1363.57373	0.37665
1361.64505	0.37657
1359.71638	0.37689
1357.78770	0.37717
1355.85903	0.37729
1353.93035	0.37737
1352.00167	0.37746
1350.07300	0.37756
1348.14432	0.37776
1346.21565	0.37799
1344.28697	0.37806
1342.35830	0.37785
1340.42962	0.37751
1338.50094	0.37739
1336.57227	0.37757
1334.64359	0.37780
1332.71492	0.37789
1330.78624	0.37785
1328.85757	0.37772
1326.92889	0.37756
1325.00021	0.37745
1323.07154	0.37734
1321.14286	0.37715
1319.21419	0.37692
1317.28551	0.37677
1315.35684	0.37669
1313.42816	0.37655
1311.49948	0.37637
1309.57081	0.37612
1307.64213	0.37581
1305.71346	0.37552
1303.78478	0.37520
1301.85611	0.37481
1299.92743	0.37436
1297.99875	0.37393
1296.07008	0.37358
1294.14140	0.37323
1292.21273	0.37282
1290.28405	0.37237
1288.35538	0.37189
1286.42670	0.37138
1284.49802	0.37084
1282.56935	0.37029
1280.64067	0.36976
1278.71200	0.36912
1276.78332	0.36830
1274.85465	0.36736
1272.92597	0.36632
1270.99729	0.36505
1269.06862	0.36337
1267.13994	0.36142
1265.21127	0.35964
1263.28259	0.35839
1261.35392	0.35777
1259.42524	0.35772
1257.49656	0.35803
1255.56789	0.35831
1253.63921	0.35824
1251.71054	0.35787
1249.78186	0.35734
1247.85319	0.35672
1245.92451	0.35600
1243.99583	0.35522
1242.06716	0.35436
1240.13848	0.35342
1238.20981	0.35248
1236.28113	0.35156
1234.35246	0.35059
1232.42378	0.34954
1230.49510	0.34848
1228.56643	0.34747
1226.63775	0.34652
1224.70908	0.34558
1222.78040	0.34470
1220.85173	0.34385
1218.92305	0.34296
1216.99437	0.34200
1215.06570	0.34106
1213.13702	0.34014
1211.20835	0.33914
1209.27967	0.33806
1207.35100	0.33705
1205.42232	0.33618
1203.49364	0.33535
1201.56497	0.33452
1199.63629	0.33367
1197.70762	0.33276
1195.77894	0.33187
1193.85027	0.33099
1191.92159	0.33000
1189.99291	0.32894
1188.06424	0.32784
1186.13556	0.32667
1184.20689	0.32541
1182.27821	0.32406
1180.34954	0.32268
1178.42086	0.32130
1176.49218	0.31991
1174.56351	0.31849
1172.63483	0.31709
1170.70616	0.31570
1168.77748	0.31428
1166.84881	0.31287
1164.92013	0.31148
1162.99145	0.31008
1161.06278	0.30870
1159.13410	0.30742
1157.20543	0.30616
1155.27675	0.30487
1153.34808	0.30361
1151.41940	0.30242
1149.49072	0.30127
1147.56205	0.30018
1145.63337	0.29910
1143.70470	0.29797
1141.77602	0.29679
1139.84735	0.29562
1137.91867	0.29447
1135.98999	0.29332
1134.06132	0.29210
1132.13264	0.29079
1130.20397	0.28943
1128.27529	0.28804
1126.34662	0.28662
1124.41794	0.28516
1122.48926	0.28368
1120.56059	0.28221
1118.63191	0.28074
1116.70324	0.27923
1114.77456	0.27767
1112.84589	0.27610
1110.91721	0.27459
1108.98853	0.27312
1107.05986	0.27164
1105.13118	0.27019
1103.20251	0.26878
1101.27383	0.26742
1099.34516	0.26610
1097.41648	0.26483
1095.48780	0.26362
1093.55913	0.26241
1091.63045	0.26116
1089.70178	0.26001
1087.77310	0.25901
1085.84443	0.25803
1083.91575	0.25695
1081.98707	0.25589
1080.05840	0.25492
1078.12972	0.25397
1076.20105	0.25311
1074.27237	0.25240
1072.34370	0.25183
1070.41502	0.25141
1068.48634	0.25113
1066.55767	0.25102
1064.62899	0.25104
1062.70032	0.25117
1060.77164	0.25139
1058.84297	0.25165
1056.91429	0.25191
1054.98561	0.25217
1053.05694	0.25249
1051.12826	0.25291
1049.19959	0.25344
1047.27091	0.25404
1045.34224	0.25469
1043.41356	0.25542
1041.48488	0.25618
1039.55621	0.25691
1037.62753	0.25766
1035.69886	0.25850
1033.77018	0.25937
1031.84151	0.26018
1029.91283	0.26086
1027.98415	0.26157
1026.05548	0.26233
1024.12680	0.26311
1022.19813	0.26393
1020.26945	0.26486
1018.34078	0.26590
1016.41210	0.26704
1014.48342	0.26828
1012.55475	0.26961
1010.62607	0.27100
1008.69740	0.27243
1006.76872	0.27382
1004.84005	0.27510
1002.91137	0.27628
1000.98269	0.27729
999.05402	0.27811
997.12534	0.27883
995.19667	0.27960
993.26799	0.28034
991.33932	0.28096
989.41064	0.28150
987.48196	0.28207
985.55329	0.28267
983.62461	0.28319
981.69594	0.28361
979.76726	0.28397
977.83859	0.28421
975.90991	0.28428
973.98123	0.28429
972.05256	0.28427
970.12388	0.28421
968.19521	0.28416
966.26653	0.28408
964.33786	0.28393
962.40918	0.28372
960.48050	0.28346
958.55183	0.28313
956.62315	0.28274
954.69448	0.28231
952.76580	0.28181
950.83713	0.28123
948.90845	0.28065
946.97977	0.28011
945.05110	0.27959
943.12242	0.27907
941.19375	0.27852
939.26507	0.27794
937.33640	0.27733
935.40772	0.27669
933.47904	0.27599
931.55037	0.27526
929.62169	0.27457
927.69302	0.27390
925.76434	0.27321
923.83567	0.27250
921.90699	0.27180
919.97831	0.27110
918.04964	0.27034
916.12096	0.26953
914.19229	0.26878
912.26361	0.26806
910.33494	0.26729
908.40626	0.26649
906.47758	0.26567
904.54891	0.26476
902.62023	0.26379
900.69156	0.26289
898.76288	0.26205
896.83421	0.26121
894.90553	0.26034
892.97685	0.25943
891.04818	0.25854
889.11950	0.25773
887.19083	0.25690
885.26215	0.25594
883.33348	0.25496
881.40480	0.25410
879.47612	0.25330
877.54745	0.25251
875.61877	0.25177
873.69010	0.25106
871.76142	0.25036
869.83275	0.24965
867.90407	0.24886
865.97539	0.24803
864.04672	0.24722
862.11804	0.24642
860.18937	0.24559
858.26069	0.24475
856.33202	0.24387
854.40334	0.24297
852.47466	0.24205
850.54599	0.24112
848.61731	0.24025
846.68864	0.23940
844.75996	0.23848
842.83129	0.23748
840.90261	0.23650
838.97394	0.23564
837.04526	0.23482
835.11658	0.23397
833.18791	0.23307
831.25923	0.23209
829.33056	0.23098
827.40188	0.22980
825.47321	0.22860
823.54453	0.22747
821.61585	0.22649
819.68718	0.22558
817.75850	0.22465
815.82983	0.22373
813.90115	0.22280
811.97248	0.22177
810.04380	0.22069
808.11512	0.21976
806.18645	0.21896
804.25777	0.21820
802.32910	0.21748
800.40042	0.21682
798.47175	0.21619
796.54307	0.21561
794.61439	0.21518
792.68572	0.21492
790.75704	0.21472
788.82837	0.21449
786.89969	0.21417
784.97102	0.21374
783.04234	0.21326
781.11366	0.21280
779.18499	0.21235
777.25631	0.21191
775.32764	0.21146
773.39896	0.21110
771.47029	0.21075
769.54161	0.21024
767.61293	0.20957
765.68426	0.20885
763.75558	0.20813
761.82691	0.20738
759.89823	0.20660
757.96956	0.20581
756.04088	0.20498
754.11220	0.20406
752.18353	0.20314
750.25485	0.20225
748.32618	0.20136
746.39750	0.20047
744.46883	0.19958
742.54015	0.19870
740.61147	0.19791
738.68280	0.19717
736.75412	0.19647
734.82545	0.19578
732.89677	0.19504
730.96810	0.19425
729.03942	0.19347
727.11074	0.19279
725.18207	0.19216
723.25339	0.19141
721.32472	0.19056
719.39604	0.18976
717.46737	0.18900
715.53869	0.18823
713.61001	0.18747
711.68134	0.18669
709.75266	0.18588
707.82399	0.18506
705.89531	0.18426
703.96664	0.18353
702.03796	0.18284
700.10928	0.18212
698.18061	0.18134
696.25193	0.18047
694.32326	0.17960
692.39458	0.17880
690.46591	0.17802
688.53723	0.17721
686.60855	0.17636
684.67988	0.17544
682.75120	0.17447
680.82253	0.17343
678.89385	0.17224
676.96518	0.17099
675.03650	0.16973
673.10782	0.16842
671.17915	0.16697
669.25047	0.16539
667.32180	0.16398
665.39312	0.16274
663.46445	0.16131
661.53577	0.15966
659.60709	0.15807
657.67842	0.15667
655.74974	0.15535
653.82107	0.15397
651.89239	0.15250
649.96372	0.15105
648.03504	0.14959
646.10636	0.14800
644.17769	0.14625
642.24901	0.14446
640.32034	0.14271
638.39166	0.14101
636.46299	0.13929
634.53431	0.13752
632.60563	0.13574
630.67696	0.13393
628.74828	0.13211
626.81961	0.13039
624.89093	0.12878
622.96226	0.12720
621.03358	0.12557
619.10490	0.12390
617.17623	0.12219
615.24755	0.12043
613.31888	0.11866
611.39020	0.11691
609.46153	0.11524
607.53285	0.11368
605.60417	0.11213
603.67550	0.11056
601.74682	0.10904
599.81815	0.10761
597.88947	0.10632
595.96080	0.10509
594.03212	0.10389
592.10344	0.10281
590.17477	0.10180
588.24609	0.10072
586.31742	0.09956
584.38874	0.09838
582.46007	0.09725
580.53139	0.09621
578.60271	0.09517
576.67404	0.09403
574.74536	0.09289
572.81669	0.09183
570.88801	0.09086
568.95934	0.08998
567.03066	0.08919
565.10198	0.08848
563.17331	0.08778
561.24463	0.08702
559.31596	0.08628
557.38728	0.08558
555.45861	0.08479
553.52993	0.08399
551.60125	0.08335
549.67258	0.08286
547.74390	0.08236
545.81523	0.08181
543.88655	0.08133
541.95788	0.08094
540.02920	0.08053
538.10052	0.08004
536.17185	0.07941
534.24317	0.07874
532.31450	0.07815
530.38582	0.07761
528.45715	0.07699
526.52847	0.07632
524.59979	0.07562
522.67112	0.07490
520.74244	0.07413
518.81377	0.07335
516.88509	0.07264
514.95642	0.07192
513.02774	0.07109
511.09906	0.07027
509.17039	0.06952
507.24171	0.06868
505.31304	0.06773
503.38436	0.06676
501.45569	0.06574
499.52701	0.06460
497.59833	0.06338
495.66966	0.06220
493.74098	0.06108
491.81231	0.05990
489.88363	0.05860
487.95496	0.05729
486.02628	0.05609
484.09760	0.05490
482.16893	0.05368
480.24025	0.05250
478.31158	0.05134
476.38290	0.05015
474.45423	0.04898
472.52555	0.04789
470.59687	0.04688
468.66820	0.04604
466.73952	0.04538
464.81085	0.04485
462.88217	0.04434
460.95350	0.04378
459.02482	0.04331
457.09614	0.04308
455.16747	0.04305
453.23879	0.04307
451.31012	0.04305
449.38144	0.04292
447.45277	0.04272
445.52409	0.04251
443.59541	0.04216
441.66674	0.04163
439.73806	0.04093
437.80939	0.04004
435.88071	0.03911
433.95204	0.03821
432.02336	0.03720
430.09468	0.03597
428.16601	0.03460
426.23733	0.03322
424.30866	0.03198
422.37998	0.03081
420.45131	0.02957
418.52263	0.02827
416.59395	0.02700
414.66528	0.02582
412.73660	0.02473
410.80793	0.02363
408.87925	0.02248
406.95058	0.02130
405.02190	0.02017
403.09322	0.01901
401.16455	0.01779
399.23587	0.01664
397.30720	0.01563
395.37852	0.01467
393.44985	0.01369
391.52117	0.01276
389.59249	0.01194
387.66382	0.01124
385.73514	0.01054
383.80647	0.00972
381.87779	0.00888
379.94912	0.00815
378.02044	0.00751
376.09176	0.00689
374.16309	0.00623
372.23441	0.00554
370.30574	0.00494
368.37706	0.00443
