7496.76250	0.00120
7494.83382	0.00120
7492.90514	0.00122
7490.97647	0.00122
7489.04779	0.00122
7487.11912	0.00121
7485.19044	0.00121
7483.26177	0.00120
7481.33309	0.00121
7479.40441	0.00123
7477.47574	0.00123
7475.54706	0.00122
7473.61839	0.00121
7471.68971	0.00122
7469.76104	0.00124
7467.83236	0.00126
7465.90368	0.00126
7463.97501	0.00126
7462.04633	0.00125
7460.11766	0.00124
7458.18898	0.00124
7456.26031	0.00126
7454.33163	0.00127
7452.40295	0.00127
7450.47428	0.00128
7448.54560	0.00130
7446.61693	0.00130
7444.68825	0.00131
7442.75958	0.00130
7440.83090	0.00130
7438.90222	0.00129
7436.97355	0.00130
7435.04487	0.00131
7433.11620	0.00132
7431.18752	0.00132
7429.25885	0.00131
7427.33017	0.00132
7425.40149	0.00133
7423.47282	0.00133
7421.54414	0.00133
7419.61547	0.00134
7417.68679	0.00135
7415.75812	0.00134
7413.82944	0.00133
7411.90076	0.00134
7409.97209	0.00137
7408.04341	0.00137
7406.11474	0.00137
7404.18606	0.00138
7402.25739	0.00138
7400.32871	0.00137
7398.40003	0.00138
7396.47136	0.00138
7394.54268	0.00139
7392.61401	0.00141
7390.68533	0.00143
7388.75666	0.00142
7386.82798	0.00140
7384.89930	0.00138
7382.97063	0.00138
7381.04195	0.00139
7379.11328	0.00140
7377.18460	0.00142
7375.25593	0.00143
7373.32725	0.00144
7371.39857	0.00143
7369.46990	0.00143
7367.54122	0.00143
7365.61255	0.00145
7363.68387	0.00147
7361.75520	0.00147
7359.82652	0.00146
7357.89784	0.00146
7355.96917	0.00147
7354.04049	0.00147
7352.11182	0.00147
7350.18314	0.00147
7348.25447	0.00148
7346.32579	0.00149
7344.39711	0.00149
7342.46844	0.00149
7340.53976	0.00150
7338.61109	0.00150
7336.68241	0.00150
7334.75374	0.00150
7332.82506	0.00151
7330.89638	0.00151
7328.96771	0.00151
7327.03903	0.00153
7325.11036	0.00153
7323.18168	0.00153
7321.25301	0.00153
7319.32433	0.00154
7317.39565	0.00156
7315.46698	0.00158
7313.53830	0.00159
7311.60963	0.00158
7309.68095	0.00155
7307.75228	0.00154
7305.82360	0.00156
7303.89492	0.00158
7301.96625	0.00158
7300.03757	0.00159
7298.10890	0.00160
7296.18022	0.00161
7294.25155	0.00161
7292.32287	0.00160
7290.39419	0.00161
7288.46552	0.00161
7286.53684	0.00161
7284.60817	0.00163
7282.67949	0.00164
7280.75082	0.00164
7278.82214	0.00165
7276.89346	0.00166
7274.96479	0.00167
7273.03611	0.00165
7271.10744	0.00164
7269.17876	0.00164
7267.25009	0.00166
7265.32141	0.00167
7263.39273	0.00166
7261.46406	0.00165
7259.53538	0.00166
7257.60671	0.00169
7255.67803	0.00171
7253.74936	0.00172
7251.82068	0.00172
7249.89200	0.00171
7247.96333	0.00170
7246.03465	0.00170
7244.10598	0.00169
7242.17730	0.00170
7240.24863	0.00172
7238.31995	0.00174
7236.39127	0.00175
7234.46260	0.00174
7232.53392	0.00174
7230.60525	0.00175
7228.67657	0.00175
7226.74790	0.00173
7224.81922	0.00172
7222.89054	0.00173
7220.96187	0.00174
7219.03319	0.00175
7217.10452	0.00176
7215.17584	0.00177
7213.24717	0.00177
7211.31849	0.00178
7209.38981	0.00179
7207.46114	0.00180
7205.53246	0.00179
7203.60379	0.00179
7201.67511	0.00179
7199.74644	0.00180
7197.81776	0.00180
7195.88908	0.00181
7193.96041	0.00181
7192.03173	0.00182
7190.10306	0.00183
7188.17438	0.00184
7186.24571	0.00185
7184.31703	0.00187
7182.38835	0.00188
7180.45968	0.00188
7178.53100	0.00187
7176.60233	0.00186
7174.67365	0.00185
7172.74498	0.00184
7170.81630	0.00184
7168.88762	0.00186
7166.95895	0.00188
7165.03027	0.00190
7163.10160	0.00190
7161.17292	0.00190
7159.24425	0.00193
7157.31557	0.00193
7155.38689	0.00192
7153.45822	0.00192
7151.52954	0.00192
7149.60087	0.00193
7147.67219	0.00193
7145.74352	0.00194
7143.81484	0.00194
7141.88616	0.00195
7139.95749	0.00195
7138.02881	0.00195
7136.10014	0.00196
7134.17146	0.00198
7132.24279	0.00199
7130.31411	0.00198
7128.38543	0.00198
7126.45676	0.00199
7124.52808	0.00200
7122.59941	0.00201
7120.67073	0.00202
7118.74206	0.00202
7116.81338	0.00202
7114.88470	0.00203
7112.95603	0.00204
7111.02735	0.00205
7109.09868	0.00204
7107.17000	0.00205
7105.24133	0.00206
7103.31265	0.00207
7101.38397	0.00208
7099.45530	0.00209
7097.52662	0.00209
7095.59795	0.00208
7093.66927	0.00206
7091.74060	0.00206
7089.81192	0.00208
7087.88324	0.00208
7085.95457	0.00209
7084.02589	0.00210
7082.09722	0.00212
7080.16854	0.00212
7078.23987	0.00212
7076.31119	0.00213
7074.38251	0.00215
7072.45384	0.00216
7070.52516	0.00217
7068.59649	0.00216
7066.66781	0.00215
7064.73914	0.00217
7062.81046	0.00219
7060.88178	0.00219
7058.95311	0.00218
7057.02443	0.00217
7055.09576	0.00216
7053.16708	0.00217
7051.23841	0.00218
7049.30973	0.00220
7047.38105	0.00222
7045.45238	0.00224
7043.52370	0.00224
7041.59503	0.00223
7039.66635	0.00221
7037.73768	0.00220
7035.80900	0.00221
7033.88032	0.00222
7031.95165	0.00224
7030.02297	0.00225
7028.09430	0.00226
7026.16562	0.00226
7024.23695	0.00226
7022.30827	0.00227
7020.37959	0.00229
7018.45092	0.00229
7016.52224	0.00228
7014.59357	0.00228
7012.66489	0.00229
7010.73622	0.00230
7008.80754	0.00230
7006.87886	0.00230
7004.95019	0.00232
7003.02151	0.00233
7001.09284	0.00234
6999.16416	0.00235
6997.23549	0.00235
6995.30681	0.00236
6993.37813	0.00235
6991.44946	0.00235
6989.52078	0.00236
6987.59211	0.00237
6985.66343	0.00238
6983.73476	0.00239
6981.80608	0.00240
6979.87740	0.00240
6977.94873	0.00239
6976.02005	0.00239
6974.09138	0.00241
6972.16270	0.00243
6970.23403	0.00243
6968.30535	0.00243
6966.37667	0.00243
6964.44800	0.00244
6962.51932	0.00246
6960.59065	0.00247
6958.66197	0.00247
6956.73330	0.00247
6954.80462	0.00246
6952.87594	0.00245
6950.94727	0.00246
6949.01859	0.00248
6947.08992	0.00249
6945.16124	0.00249
6943.23257	0.00249
6941.30389	0.00248
6939.37521	0.00250
6937.44654	0.00253
6935.51786	0.00255
6933.58919	0.00255
6931.66051	0.00255
6929.73184	0.00255
6927.80316	0.00253
6925.87448	0.00253
6923.94581	0.00254
6922.01713	0.00256
6920.08846	0.00258
6918.15978	0.00259
6916.23111	0.00260
6914.30243	0.00261
6912.37375	0.00262
6910.44508	0.00262
6908.51640	0.00262
6906.58773	0.00264
6904.65905	0.00265
6902.73038	0.00265
6900.80170	0.00266
6898.87302	0.00268
6896.94435	0.00268
6895.01567	0.00266
6893.08700	0.00266
6891.15832	0.00267
6889.22965	0.00268
6887.30097	0.00268
6885.37229	0.00269
6883.44362	0.00270
6881.51494	0.00272
6879.58627	0.00274
6877.65759	0.00275
6875.72892	0.00276
6873.80024	0.00276
6871.87156	0.00276
6869.94289	0.00277
6868.01421	0.00277
6866.08554	0.00275
6864.15686	0.00275
6862.22819	0.00277
6860.29951	0.00278
6858.37083	0.00279
6856.44216	0.00279
6854.51348	0.00279
6852.58481	0.00281
6850.65613	0.00283
6848.72746	0.00284
6846.79878	0.00284
6844.87010	0.00285
6842.94143	0.00284
6841.01275	0.00285
6839.08408	0.00286
6837.15540	0.00288
6835.22673	0.00289
6833.29805	0.00289
6831.36937	0.00290
6829.44070	0.00291
6827.51202	0.00291
6825.58335	0.00292
6823.65467	0.00295
6821.72600	0.00296
6819.79732	0.00294
6817.86864	0.00293
6815.93997	0.00294
6814.01129	0.00295
6812.08262	0.00296
6810.15394	0.00296
6808.22527	0.00297
6806.29659	0.00298
6804.36791	0.00300
6802.43924	0.00301
6800.51056	0.00302
6798.58189	0.00302
6796.65321	0.00302
6794.72454	0.00302
6792.79586	0.00303
6790.86718	0.00304
6788.93851	0.00304
6787.00983	0.00304
6785.08116	0.00305
6783.15248	0.00307
6781.22381	0.00307
6779.29513	0.00309
6777.36645	0.00310
6775.43778	0.00311
6773.50910	0.00312
6771.58043	0.00312
6769.65175	0.00313
6767.72308	0.00314
6765.79440	0.00313
6763.86572	0.00313
6761.93705	0.00313
6760.00837	0.00314
6758.07970	0.00315
6756.15102	0.00316
6754.22235	0.00318
6752.29367	0.00320
6750.36499	0.00321
6748.43632	0.00321
6746.50764	0.00321
6744.57897	0.00321
6742.65029	0.00320
6740.72162	0.00320
6738.79294	0.00322
6736.86426	0.00324
6734.93559	0.00326
6733.00691	0.00327
6731.07824	0.00328
6729.14956	0.00328
6727.22089	0.00329
6725.29221	0.00331
6723.36353	0.00333
6721.43486	0.00334
6719.50618	0.00334
6717.57751	0.00334
6715.64883	0.00335
6713.72016	0.00336
6711.79148	0.00336
6709.86280	0.00336
6707.93413	0.00335
6706.00545	0.00335
6704.07678	0.00335
6702.14810	0.00336
6700.21943	0.00337
6698.29075	0.00340
6696.36207	0.00341
6694.43340	0.00342
6692.50472	0.00344
6690.57605	0.00346
6688.64737	0.00345
6686.71870	0.00345
6684.79002	0.00347
6682.86134	0.00349
6680.93267	0.00351
6679.00399	0.00351
6677.07532	0.00351
6675.14664	0.00350
6673.21797	0.00351
6671.28929	0.00354
6669.36061	0.00356
6667.43194	0.00357
6665.50326	0.00358
6663.57459	0.00359
6661.64591	0.00359
6659.71724	0.00360
6657.78856	0.00361
6655.85988	0.00362
6653.93121	0.00362
6652.00253	0.00362
6650.07386	0.00364
6648.14518	0.00365
6646.21651	0.00365
6644.28783	0.00366
6642.35915	0.00367
6640.43048	0.00367
6638.50180	0.00368
6636.57313	0.00369
6634.64445	0.00369
6632.71578	0.00369
6630.78710	0.00369
6628.85842	0.00371
6626.92975	0.00372
6625.00107	0.00374
6623.07240	0.00375
6621.14372	0.00375
6619.21505	0.00375
6617.28637	0.00377
6615.35769	0.00380
6613.42902	0.00382
6611.50034	0.00382
6609.57167	0.00382
6607.64299	0.00383
6605.71432	0.00384
6603.78564	0.00386
6601.85696	0.00387
6599.92829	0.00388
6597.99961	0.00389
6596.07094	0.00390
6594.14226	0.00389
6592.21359	0.00389
6590.28491	0.00390
6588.35623	0.00392
6586.42756	0.00393
6584.49888	0.00394
6582.57021	0.00394
6580.64153	0.00395
6578.71286	0.00397
6576.78418	0.00398
6574.85550	0.00399
6572.92683	0.00400
6570.99815	0.00401
6569.06948	0.00401
6567.14080	0.00401
6565.21213	0.00402
6563.28345	0.00404
6561.35477	0.00407
6559.42610	0.00408
6557.49742	0.00408
6555.56875	0.00408
6553.64007	0.00408
6551.71140	0.00409
6549.78272	0.00410
6547.85404	0.00412
6545.92537	0.00414
6543.99669	0.00416
6542.06802	0.00417
6540.13934	0.00416
6538.21067	0.00417
6536.28199	0.00419
6534.35331	0.00419
6532.42464	0.00419
6530.49596	0.00420
6528.56729	0.00422
6526.63861	0.00424
6524.70994	0.00425
6522.78126	0.00427
6520.85258	0.00428
6518.92391	0.00428
6516.99523	0.00428
6515.06656	0.00428
6513.13788	0.00429
6511.20921	0.00430
6509.28053	0.00431
6507.35185	0.00432
6505.42318	0.00433
6503.49450	0.00434
6501.56583	0.00434
6499.63715	0.00436
6497.70848	0.00438
6495.77980	0.00440
6493.85112	0.00442
6491.92245	0.00442
6489.99377	0.00442
6488.06510	0.00442
6486.13642	0.00443
6484.20775	0.00445
6482.27907	0.00445
6480.35039	0.00446
6478.42172	0.00446
6476.49304	0.00448
6474.56437	0.00449
6472.63569	0.00449
6470.70702	0.00450
6468.77834	0.00451
6466.84966	0.00453
6464.92099	0.00454
6462.99231	0.00456
6461.06364	0.00458
6459.13496	0.00461
6457.20629	0.00463
6455.27761	0.00465
6453.34893	0.00463
6451.42026	0.00462
6449.49158	0.00462
6447.56291	0.00464
6445.63423	0.00466
6443.70556	0.00467
6441.77688	0.00469
6439.84820	0.00472
6437.91953	0.00473
6435.99085	0.00473
6434.06218	0.00474
6432.13350	0.00475
6430.20483	0.00477
6428.27615	0.00478
6426.34747	0.00479
6424.41880	0.00480
6422.49012	0.00481
6420.56145	0.00481
6418.63277	0.00483
6416.70410	0.00484
6414.77542	0.00485
6412.84674	0.00487
6410.91807	0.00489
6408.98939	0.00489
6407.06072	0.00488
6405.13204	0.00489
6403.20337	0.00490
6401.27469	0.00492
6399.34601	0.00494
6397.41734	0.00496
6395.48866	0.00497
6393.55999	0.00497
6391.63131	0.00496
6389.70264	0.00497
6387.77396	0.00498
6385.84528	0.00499
6383.91661	0.00502
6381.98793	0.00506
6380.05926	0.00508
6378.13058	0.00508
6376.20191	0.00509
6374.27323	0.00510
6372.34455	0.00513
6370.41588	0.00515
6368.48720	0.00515
6366.55853	0.00516
6364.62985	0.00517
6362.70118	0.00517
6360.77250	0.00516
6358.84382	0.00516
6356.91515	0.00519
6354.98647	0.00523
6353.05780	0.00523
6351.12912	0.00522
6349.20045	0.00522
6347.27177	0.00524
6345.34309	0.00525
6343.41442	0.00526
6341.48574	0.00528
6339.55707	0.00531
6337.62839	0.00534
6335.69972	0.00536
6333.77104	0.00538
6331.84236	0.00538
6329.91369	0.00538
6327.98501	0.00538
6326.05634	0.00539
6324.12766	0.00541
6322.19899	0.00543
6320.27031	0.00545
6318.34163	0.00547
6316.41296	0.00547
6314.48428	0.00547
6312.55561	0.00548
6310.62693	0.00550
6308.69826	0.00551
6306.76958	0.00552
6304.84090	0.00553
6302.91223	0.00554
6300.98355	0.00555
6299.05488	0.00556
6297.12620	0.00557
6295.19753	0.00560
6293.26885	0.00562
6291.34017	0.00564
6289.41150	0.00565
6287.48282	0.00565
6285.55415	0.00565
6283.62547	0.00566
6281.69680	0.00568
6279.76812	0.00570
6277.83944	0.00572
6275.91077	0.00575
6273.98209	0.00576
6272.05342	0.00576
6270.12474	0.00576
6268.19607	0.00576
6266.26739	0.00577
6264.33871	0.00578
6262.41004	0.00580
6260.48136	0.00583
6258.55269	0.00585
6256.62401	0.00586
6254.69534	0.00587
6252.76666	0.00588
6250.83798	0.00589
6248.90931	0.00590
6246.98063	0.00593
6245.05196	0.00596
6243.12328	0.00597
6241.19461	0.00598
6239.26593	0.00599
6237.33725	0.00601
6235.40858	0.00601
6233.47990	0.00601
6231.55123	0.00602
6229.62255	0.00604
6227.69388	0.00607
6225.76520	0.00609
6223.83652	0.00611
6221.90785	0.00612
6219.97917	0.00613
6218.05050	0.00615
6216.12182	0.00616
6214.19315	0.00617
6212.26447	0.00616
6210.33579	0.00616
6208.40712	0.00616
6206.47844	0.00619
6204.54977	0.00621
6202.62109	0.00624
6200.69242	0.00627
6198.76374	0.00628
6196.83506	0.00628
6194.90639	0.00630
6192.97771	0.00631
6191.04904	0.00633
6189.12036	0.00634
6187.19169	0.00635
6185.26301	0.00637
6183.33433	0.00639
6181.40566	0.00642
6179.47698	0.00644
6177.54831	0.00645
6175.61963	0.00644
6173.69096	0.00645
6171.76228	0.00647
6169.83360	0.00649
6167.90493	0.00650
6165.97625	0.00651
6164.04758	0.00652
6162.11890	0.00654
6160.19023	0.00656
6158.26155	0.00657
6156.33287	0.00659
6154.40420	0.00661
6152.47552	0.00662
6150.54685	0.00663
6148.61817	0.00665
6146.68950	0.00667
6144.76082	0.00668
6142.83214	0.00669
6140.90347	0.00671
6138.97479	0.00671
6137.04612	0.00672
6135.11744	0.00675
6133.18877	0.00678
6131.26009	0.00680
6129.33141	0.00681
6127.40274	0.00682
6125.47406	0.00684
6123.54539	0.00685
6121.61671	0.00687
6119.68804	0.00690
6117.75936	0.00691
6115.83068	0.00691
6113.90201	0.00691
6111.97333	0.00693
6110.04466	0.00695
6108.11598	0.00695
6106.18731	0.00696
6104.25863	0.00699
6102.32995	0.00701
6100.40128	0.00703
6098.47260	0.00705
6096.54393	0.00707
6094.61525	0.00707
6092.68658	0.00708
6090.75790	0.00710
6088.82922	0.00712
6086.90055	0.00713
6084.97187	0.00713
6083.04320	0.00716
6081.11452	0.00719
6079.18585	0.00720
6077.25717	0.00722
6075.32849	0.00724
6073.39982	0.00726
6071.47114	0.00728
6069.54247	0.00730
6067.61379	0.00731
6065.68512	0.00731
6063.75644	0.00733
6061.82776	0.00734
6059.89909	0.00735
6057.97041	0.00736
6056.04174	0.00737
6054.11306	0.00739
6052.18439	0.00741
6050.25571	0.00744
6048.32703	0.00746
6046.39836	0.00748
6044.46968	0.00751
6042.54101	0.00753
6040.61233	0.00752
6038.68366	0.00750
6036.75498	0.00753
6034.82630	0.00756
6032.89763	0.00757
6030.96895	0.00758
6029.04028	0.00759
6027.11160	0.00761
6025.18293	0.00763
6023.25425	0.00766
6021.32557	0.00768
6019.39690	0.00770
6017.46822	0.00772
6015.53955	0.00773
6013.61087	0.00773
6011.68220	0.00773
6009.75352	0.00773
6007.82484	0.00775
6005.89617	0.00776
6003.96749	0.00778
6002.03882	0.00779
6000.11014	0.00782
5998.18147	0.00786
5996.25279	0.00788
5994.32411	0.00788
5992.39544	0.00790
5990.46676	0.00793
5988.53809	0.00797
5986.60941	0.00800
5984.68074	0.00803
5982.75206	0.00804
5980.82338	0.00804
5978.89471	0.00804
5976.96603	0.00804
5975.03736	0.00807
5973.10868	0.00810
5971.18001	0.00812
5969.25133	0.00813
5967.32265	0.00814
5965.39398	0.00815
5963.46530	0.00817
5961.53663	0.00818
5959.60795	0.00818
5957.67928	0.00820
5955.75060	0.00824
5953.82192	0.00827
5951.89325	0.00829
5949.96457	0.00832
5948.03590	0.00833
5946.10722	0.00834
5944.17855	0.00834
5942.24987	0.00836
5940.32119	0.00839
5938.39252	0.00841
5936.46384	0.00841
5934.53517	0.00840
5932.60649	0.00842
5930.67782	0.00846
5928.74914	0.00850
5926.82046	0.00852
5924.89179	0.00853
5922.96311	0.00854
5921.03444	0.00855
5919.10576	0.00857
5917.17709	0.00859
5915.24841	0.00861
5913.31973	0.00862
5911.39106	0.00863
5909.46238	0.00866
5907.53371	0.00869
5905.60503	0.00870
5903.67636	0.00871
5901.74768	0.00873
5899.81900	0.00876
5897.89033	0.00878
5895.96165	0.00879
5894.03298	0.00879
5892.10430	0.00881
5890.17563	0.00883
5888.24695	0.00886
5886.31827	0.00888
5884.38960	0.00889
5882.46092	0.00890
5880.53225	0.00893
5878.60357	0.00895
5876.67490	0.00896
5874.74622	0.00897
5872.81755	0.00901
5870.88887	0.00905
5868.96019	0.00906
5867.03152	0.00906
5865.10284	0.00907
5863.17417	0.00909
5861.24549	0.00912
5859.31682	0.00912
5857.38814	0.00912
5855.45946	0.00913
5853.53079	0.00916
5851.60211	0.00920
5849.67344	0.00923
5847.74476	0.00925
5845.81609	0.00926
5843.88741	0.00927
5841.95873	0.00929
5840.03006	0.00930
5838.10138	0.00932
5836.17271	0.00934
5834.24403	0.00936
5832.31536	0.00938
5830.38668	0.00940
5828.45800	0.00941
5826.52933	0.00942
5824.60065	0.00944
5822.67198	0.00946
5820.74330	0.00951
5818.81463	0.00955
5816.88595	0.00956
5814.95727	0.00955
5813.02860	0.00956
5811.09992	0.00959
5809.17125	0.00963
5807.24257	0.00965
5805.31390	0.00966
5803.38522	0.00966
5801.45654	0.00968
5799.52787	0.00970
5797.59919	0.00971
5795.67052	0.00973
5793.74184	0.00976
5791.81317	0.00979
5789.88449	0.00981
5787.95581	0.00982
5786.02714	0.00984
5784.09846	0.00986
5782.16979	0.00989
5780.24111	0.00992
5778.31244	0.00992
5776.38376	0.00992
5774.45508	0.00994
5772.52641	0.00995
5770.59773	0.00997
5768.66906	0.00999
5766.74038	0.01001
5764.81171	0.01005
5762.88303	0.01009
5760.95435	0.01012
5759.02568	0.01014
5757.09700	0.01015
5755.16833	0.01016
5753.23965	0.01017
5751.31098	0.01017
5749.38230	0.01018
5747.45362	0.01020
5745.52495	0.01024
5743.59627	0.01027
5741.66760	0.01029
5739.73892	0.01029
5737.81025	0.01030
5735.88157	0.01033
5733.95289	0.01035
5732.02422	0.01037
5730.09554	0.01040
5728.16687	0.01042
5726.23819	0.01044
5724.30952	0.01047
5722.38084	0.01049
5720.45216	0.01051
5718.52349	0.01053
5716.59481	0.01053
5714.66614	0.01054
5712.73746	0.01055
5710.80879	0.01058
5708.88011	0.01060
5706.95143	0.01063
5705.02276	0.01064
5703.09408	0.01065
5701.16541	0.01068
5699.23673	0.01070
5697.30806	0.01072
5695.37938	0.01075
5693.45070	0.01078
5691.52203	0.01080
5689.59335	0.01080
5687.66468	0.01082
5685.73600	0.01086
5683.80733	0.01089
5681.87865	0.01091
5679.94997	0.01091
5678.02130	0.01093
5676.09262	0.01096
5674.16395	0.01099
5672.23527	0.01098
5670.30660	0.01098
5668.37792	0.01100
5666.44924	0.01103
5664.52057	0.01106
5662.59189	0.01108
5660.66322	0.01111
5658.73454	0.01115
5656.80587	0.01117
5654.87719	0.01118
5652.94851	0.01118
5651.01984	0.01119
5649.09116	0.01122
5647.16249	0.01125
5645.23381	0.01129
5643.30514	0.01132
5641.37646	0.01133
5639.44778	0.01132
5637.51911	0.01133
5635.59043	0.01136
5633.66176	0.01139
5631.73308	0.01141
5629.80441	0.01142
5627.87573	0.01144
5625.94705	0.01147
5624.01838	0.01150
5622.08970	0.01153
5620.16103	0.01156
5618.23235	0.01158
5616.30368	0.01159
5614.37500	0.01161
5612.44632	0.01163
5610.51765	0.01163
5608.58897	0.01164
5606.66030	0.01167
5604.73162	0.01170
5602.80295	0.01173
5600.87427	0.01175
5598.94559	0.01176
5597.01692	0.01177
5595.08824	0.01179
5593.15957	0.01182
5591.23089	0.01184
5589.30222	0.01185
5587.37354	0.01186
5585.44486	0.01187
5583.51619	0.01189
5581.58751	0.01192
5579.65884	0.01196
5577.73016	0.01201
5575.80149	0.01205
5573.87281	0.01206
5571.94413	0.01207
5570.01546	0.01207
5568.08678	0.01207
5566.15811	0.01209
5564.22943	0.01213
5562.30076	0.01217
5560.37208	0.01220
5558.44340	0.01221
5556.51473	0.01221
5554.58605	0.01223
5552.65738	0.01227
5550.72870	0.01230
5548.80003	0.01232
5546.87135	0.01234
5544.94267	0.01235
5543.01400	0.01237
5541.08532	0.01240
5539.15665	0.01242
5537.22797	0.01242
5535.29930	0.01243
5533.37062	0.01244
5531.44194	0.01247
5529.51327	0.01251
5527.58459	0.01255
5525.65592	0.01257
5523.72724	0.01258
5521.79857	0.01260
5519.86989	0.01263
5517.94121	0.01266
5516.01254	0.01269
5514.08386	0.01270
5512.15519	0.01270
5510.22651	0.01270
5508.29784	0.01272
5506.36916	0.01276
5504.44048	0.01279
5502.51181	0.01279
5500.58313	0.01280
5498.65446	0.01282
5496.72578	0.01283
5494.79711	0.01286
5492.86843	0.01292
5490.93975	0.01298
5489.01108	0.01300
5487.08240	0.01299
5485.15373	0.01300
5483.22505	0.01302
5481.29638	0.01304
5479.36770	0.01306
5477.43902	0.01309
5475.51035	0.01311
5473.58167	0.01312
5471.65300	0.01313
5469.72432	0.01316
5467.79565	0.01320
5465.86697	0.01322
5463.93829	0.01324
5462.00962	0.01327
5460.08094	0.01328
5458.15227	0.01330
5456.22359	0.01332
5454.29492	0.01335
5452.36624	0.01336
5450.43756	0.01336
5448.50889	0.01337
5446.58021	0.01340
5444.65154	0.01344
5442.72286	0.01348
5440.79419	0.01350
5438.86551	0.01351
5436.93683	0.01352
5435.00816	0.01353
5433.07948	0.01355
5431.15081	0.01358
5429.22213	0.01360
5427.29346	0.01361
5425.36478	0.01364
5423.43610	0.01366
5421.50743	0.01368
5419.57875	0.01371
5417.65008	0.01374
5415.72140	0.01377
5413.79273	0.01377
5411.86405	0.01379
5409.93537	0.01382
5408.00670	0.01386
5406.07802	0.01388
5404.14935	0.01389
5402.22067	0.01392
5400.29200	0.01395
5398.36332	0.01398
5396.43464	0.01399
5394.50597	0.01400
5392.57729	0.01401
5390.64862	0.01404
5388.71994	0.01407
5386.79127	0.01409
5384.86259	0.01410
5382.93391	0.01412
5381.00524	0.01414
5379.07656	0.01416
5377.14789	0.01418
5375.21921	0.01420
5373.29054	0.01423
5371.36186	0.01426
5369.43318	0.01429
5367.50451	0.01432
5365.57583	0.01436
5363.64716	0.01441
5361.71848	0.01443
5359.78981	0.01442
5357.86113	0.01442
5355.93245	0.01443
5354.00378	0.01445
5352.07510	0.01446
5350.14643	0.01449
5348.21775	0.01451
5346.28908	0.01453
5344.36040	0.01455
5342.43172	0.01457
5340.50305	0.01460
5338.57437	0.01463
5336.64570	0.01466
5334.71702	0.01468
5332.78835	0.01469
5330.85967	0.01470
5328.93099	0.01472
5327.00232	0.01475
5325.07364	0.01480
5323.14497	0.01483
5321.21629	0.01485
5319.28762	0.01487
5317.35894	0.01490
5315.43026	0.01494
5313.50159	0.01495
5311.57291	0.01496
5309.64424	0.01497
5307.71556	0.01499
5305.78689	0.01500
5303.85821	0.01501
5301.92953	0.01504
5300.00086	0.01509
5298.07218	0.01512
5296.14351	0.01512
5294.21483	0.01514
5292.28616	0.01516
5290.35748	0.01518
5288.42880	0.01520
5286.50013	0.01524
5284.57145	0.01526
5282.64278	0.01527
5280.71410	0.01530
5278.78543	0.01533
5276.85675	0.01534
5274.92807	0.01534
5272.99940	0.01535
5271.07072	0.01538
5269.14205	0.01540
5267.21337	0.01543
5265.28470	0.01547
5263.35602	0.01551
5261.42734	0.01554
5259.49867	0.01556
5257.56999	0.01557
5255.64132	0.01559
5253.71264	0.01560
5251.78397	0.01561
5249.85529	0.01562
5247.92661	0.01564
5245.99794	0.01567
5244.06926	0.01571
5242.14059	0.01574
5240.21191	0.01576
5238.28324	0.01577
5236.35456	0.01577
5234.42588	0.01579
5232.49721	0.01583
5230.56853	0.01587
5228.63986	0.01593
5226.71118	0.01596
5224.78251	0.01597
5222.85383	0.01597
5220.92515	0.01598
5218.99648	0.01601
5217.06780	0.01605
5215.13913	0.01608
5213.21045	0.01610
5211.28178	0.01610
5209.35310	0.01609
5207.42442	0.01611
5205.49575	0.01614
5203.56707	0.01618
5201.63840	0.01621
5199.70972	0.01623
5197.78105	0.01625
5195.85237	0.01630
5193.92369	0.01635
5191.99502	0.01636
5190.06634	0.01635
5188.13767	0.01637
5186.20899	0.01639
5184.28032	0.01640
5182.35164	0.01641
5180.42296	0.01644
5178.49429	0.01647
5176.56561	0.01649
5174.63694	0.01651
5172.70826	0.01654
5170.77959	0.01655
5168.85091	0.01657
5166.92223	0.01661
5164.99356	0.01664
5163.06488	0.01665
5161.13621	0.01668
5159.20753	0.01672
5157.27886	0.01675
5155.35018	0.01677
5153.42150	0.01677
5151.49283	0.01677
5149.56415	0.01680
5147.63548	0.01685
5145.70680	0.01688
5143.77813	0.01689
5141.84945	0.01691
5139.92077	0.01694
5137.99210	0.01696
5136.06342	0.01698
5134.13475	0.01701
5132.20607	0.01703
5130.27740	0.01705
5128.34872	0.01706
5126.42004	0.01707
5124.49137	0.01709
5122.56269	0.01711
5120.63402	0.01715
5118.70534	0.01719
5116.77667	0.01722
5114.84799	0.01723
5112.91931	0.01722
5110.99064	0.01722
5109.06196	0.01724
5107.13329	0.01727
5105.20461	0.01731
5103.27594	0.01736
5101.34726	0.01739
5099.41858	0.01741
5097.48991	0.01743
5095.56123	0.01745
5093.63256	0.01747
5091.70388	0.01751
5089.77521	0.01754
5087.84653	0.01755
5085.91785	0.01755
5083.98918	0.01756
5082.06050	0.01758
5080.13183	0.01759
5078.20315	0.01761
5076.27448	0.01764
5074.34580	0.01768
5072.41712	0.01771
5070.48845	0.01773
5068.55977	0.01775
5066.63110	0.01776
5064.70242	0.01778
5062.77375	0.01783
5060.84507	0.01786
5058.91639	0.01788
5056.98772	0.01790
5055.05904	0.01792
5053.13037	0.01794
5051.20169	0.01796
5049.27302	0.01797
5047.34434	0.01798
5045.41566	0.01798
5043.48699	0.01801
5041.55831	0.01806
5039.62964	0.01810
5037.70096	0.01813
5035.77229	0.01816
5033.84361	0.01820
5031.91493	0.01822
5029.98626	0.01824
5028.05758	0.01825
5026.12891	0.01827
5024.20023	0.01830
5022.27156	0.01833
5020.34288	0.01834
5018.41420	0.01837
5016.48553	0.01839
5014.55685	0.01840
5012.62818	0.01841
5010.69950	0.01844
5008.77083	0.01847
5006.84215	0.01850
5004.91347	0.01854
5002.98480	0.01857
5001.05612	0.01860
4999.12745	0.01862
4997.19877	0.01863
4995.27010	0.01864
4993.34142	0.01867
4991.41274	0.01870
4989.48407	0.01874
4987.55539	0.01878
4985.62672	0.01881
4983.69804	0.01882
4981.76937	0.01883
4979.84069	0.01885
4977.91201	0.01887
4975.98334	0.01889
4974.05466	0.01890
4972.12599	0.01891
4970.19731	0.01894
4968.26864	0.01897
4966.33996	0.01899
4964.41128	0.01902
4962.48261	0.01905
4960.55393	0.01907
4958.62526	0.01909
4956.69658	0.01910
4954.76791	0.01912
4952.83923	0.01915
4950.91055	0.01917
4948.98188	0.01919
4947.05320	0.01924
4945.12453	0.01929
4943.19585	0.01931
4941.26718	0.01931
4939.33850	0.01932
4937.40982	0.01936
4935.48115	0.01939
4933.55247	0.01941
4931.62380	0.01944
4929.69512	0.01948
4927.76645	0.01951
4925.83777	0.01954
4923.90909	0.01956
4921.98042	0.01958
4920.05174	0.01959
4918.12307	0.01960
4916.19439	0.01961
4914.26572	0.01964
4912.33704	0.01969
4910.40836	0.01972
4908.47969	0.01974
4906.55101	0.01976
4904.62234	0.01979
4902.69366	0.01981
4900.76499	0.01983
4898.83631	0.01985
4896.90763	0.01987
4894.97896	0.01990
4893.05028	0.01995
4891.12161	0.01999
4889.19293	0.02001
4887.26426	0.02000
4885.33558	0.01999
4883.40690	0.02002
4881.47823	0.02004
4879.54955	0.02006
4877.62088	0.02008
4875.69220	0.02013
4873.76353	0.02015
4871.83485	0.02016
4869.90617	0.02019
4867.97750	0.02022
4866.04882	0.02024
4864.12015	0.02027
4862.19147	0.02031
4860.26280	0.02034
4858.33412	0.02034
4856.40544	0.02034
4854.47677	0.02036
4852.54809	0.02042
4850.61942	0.02046
4848.69074	0.02048
4846.76207	0.02050
4844.83339	0.02054
4842.90471	0.02059
4840.97604	0.02061
4839.04736	0.02063
4837.11869	0.02065
4835.19001	0.02066
4833.26134	0.02068
4831.33266	0.02072
4829.40398	0.02076
4827.47531	0.02078
4825.54663	0.02079
4823.61796	0.02080
4821.68928	0.02082
4819.76061	0.02086
4817.83193	0.02091
4815.90325	0.02097
4813.97458	0.02099
4812.04590	0.02098
4810.11723	0.02100
4808.18855	0.02105
4806.25988	0.02108
4804.33120	0.02108
4802.40252	0.02109
4800.47385	0.02114
4798.54517	0.02119
4796.61650	0.02121
4794.68782	0.02122
4792.75915	0.02124
4790.83047	0.02127
4788.90179	0.02130
4786.97312	0.02133
4785.04444	0.02138
4783.11577	0.02142
4781.18709	0.02145
4779.25842	0.02146
4777.32974	0.02147
4775.40106	0.02148
4773.47239	0.02149
4771.54371	0.02151
4769.61504	0.02156
4767.68636	0.02160
4765.75769	0.02161
4763.82901	0.02160
4761.90033	0.02161
4759.97166	0.02166
4758.04298	0.02170
4756.11431	0.02174
4754.18563	0.02178
4752.25696	0.02181
4750.32828	0.02183
4748.39960	0.02186
4746.47093	0.02189
4744.54225	0.02191
4742.61358	0.02194
4740.68490	0.02197
4738.75623	0.02199
4736.82755	0.02201
4734.89887	0.02205
4732.97020	0.02208
4731.04152	0.02210
4729.11285	0.02212
4727.18417	0.02217
4725.25550	0.02220
4723.32682	0.02221
4721.39814	0.02222
4719.46947	0.02225
4717.54079	0.02228
4715.61212	0.02231
4713.68344	0.02236
4711.75477	0.02240
4709.82609	0.02244
4707.89741	0.02246
4705.96874	0.02248
4704.04006	0.02251
4702.11139	0.02254
4700.18271	0.02256
4698.25404	0.02258
4696.32536	0.02262
4694.39668	0.02264
4692.46801	0.02265
4690.53933	0.02266
4688.61066	0.02268
4686.68198	0.02273
4684.75331	0.02278
4682.82463	0.02281
4680.89595	0.02282
4678.96728	0.02284
4677.03860	0.02289
4675.10993	0.02293
4673.18125	0.02296
4671.25258	0.02296
4669.32390	0.02296
4667.39522	0.02298
4665.46655	0.02304
4663.53787	0.02311
4661.60920	0.02315
4659.68052	0.02316
4657.75185	0.02319
4655.82317	0.02322
4653.89449	0.02324
4651.96582	0.02327
4650.03714	0.02331
4648.10847	0.02335
4646.17979	0.02340
4644.25112	0.02343
4642.32244	0.02343
4640.39376	0.02343
4638.46509	0.02346
4636.53641	0.02352
4634.60774	0.02357
4632.67906	0.02361
4630.75039	0.02365
4628.82171	0.02368
4626.89303	0.02372
4624.96436	0.02375
4623.03568	0.02377
4621.10701	0.02378
4619.17833	0.02381
4617.24966	0.02385
4615.32098	0.02389
4613.39230	0.02392
4611.46363	0.02394
4609.53495	0.02396
4607.60628	0.02401
4605.67760	0.02406
4603.74893	0.02408
4601.82025	0.02409
4599.89157	0.02411
4597.96290	0.02417
4596.03422	0.02422
4594.10555	0.02423
4592.17687	0.02423
4590.24820	0.02425
4588.31952	0.02430
4586.39084	0.02435
4584.46217	0.02437
4582.53349	0.02440
4580.60482	0.02444
4578.67614	0.02449
4576.74747	0.02452
4574.81879	0.02455
4572.89011	0.02459
4570.96144	0.02463
4569.03276	0.02466
4567.10409	0.02469
4565.17541	0.02471
4563.24674	0.02474
4561.31806	0.02478
4559.38938	0.02483
4557.46071	0.02487
4555.53203	0.02492
4553.60336	0.02495
4551.67468	0.02497
4549.74601	0.02500
4547.81733	0.02503
4545.88865	0.02507
4543.95998	0.02511
4542.03130	0.02515
4540.10263	0.02519
4538.17395	0.02521
4536.24528	0.02523
4534.31660	0.02524
4532.38792	0.02524
4530.45925	0.02525
4528.53057	0.02530
4526.60190	0.02537
4524.67322	0.02543
4522.74455	0.02547
4520.81587	0.02549
4518.88719	0.02553
4516.95852	0.02558
4515.02984	0.02563
4513.10117	0.02567
4511.17249	0.02570
4509.24382	0.02573
4507.31514	0.02577
4505.38646	0.02582
4503.45779	0.02587
4501.52911	0.02592
4499.60044	0.02596
4497.67176	0.02596
4495.74309	0.02597
4493.81441	0.02600
4491.88573	0.02606
4489.95706	0.02610
4488.02838	0.02612
4486.09971	0.02615
4484.17103	0.02619
4482.24236	0.02624
4480.31368	0.02630
4478.38500	0.02635
4476.45633	0.02639
4474.52765	0.02641
4472.59898	0.02644
4470.67030	0.02648
4468.74163	0.02652
4466.81295	0.02655
4464.88427	0.02658
4462.95560	0.02663
4461.02692	0.02669
4459.09825	0.02674
4457.16957	0.02677
4455.24090	0.02681
4453.31222	0.02686
4451.38354	0.02691
4449.45487	0.02694
4447.52619	0.02695
4445.59752	0.02697
4443.66884	0.02703
4441.74017	0.02709
4439.81149	0.02712
4437.88281	0.02715
4435.95414	0.02719
4434.02546	0.02723
4432.09679	0.02728
4430.16811	0.02733
4428.23944	0.02738
4426.31076	0.02743
4424.38208	0.02747
4422.45341	0.02751
4420.52473	0.02755
4418.59606	0.02759
4416.66738	0.02761
4414.73871	0.02764
4412.81003	0.02769
4410.88135	0.02773
4408.95268	0.02777
4407.02400	0.02782
4405.09533	0.02788
4403.16665	0.02792
4401.23798	0.02795
4399.30930	0.02797
4397.38062	0.02801
4395.45195	0.02805
4393.52327	0.02810
4391.59460	0.02817
4389.66592	0.02824
4387.73725	0.02828
4385.80857	0.02830
4383.87989	0.02835
4381.95122	0.02841
4380.02254	0.02846
4378.09387	0.02849
4376.16519	0.02852
4374.23652	0.02854
4372.30784	0.02858
4370.37916	0.02864
4368.45049	0.02871
4366.52181	0.02878
4364.59314	0.02881
4362.66446	0.02884
4360.73579	0.02887
4358.80711	0.02892
4356.87843	0.02898
4354.94976	0.02904
4353.02108	0.02909
4351.09241	0.02913
4349.16373	0.02917
4347.23506	0.02919
4345.30638	0.02922
4343.37770	0.02926
4341.44903	0.02931
4339.52035	0.02938
4337.59168	0.02947
4335.66300	0.02954
4333.73433	0.02959
4331.80565	0.02962
4329.87697	0.02965
4327.94830	0.02967
4326.01962	0.02970
4324.09095	0.02973
4322.16227	0.02979
4320.23360	0.02985
4318.30492	0.02993
4316.37624	0.02999
4314.44757	0.03005
4312.51889	0.03010
4310.59022	0.03014
4308.66154	0.03016
4306.73287	0.03019
4304.80419	0.03025
4302.87551	0.03031
4300.94684	0.03036
4299.01816	0.03039
4297.08949	0.03043
4295.16081	0.03050
4293.23214	0.03057
4291.30346	0.03063
4289.37478	0.03067
4287.44611	0.03071
4285.51743	0.03078
4283.58876	0.03085
4281.66008	0.03089
4279.73141	0.03093
4277.80273	0.03098
4275.87405	0.03104
4273.94538	0.03108
4272.01670	0.03113
4270.08803	0.03119
4268.15935	0.03124
4266.23068	0.03129
4264.30200	0.03133
4262.37332	0.03139
4260.44465	0.03144
4258.51597	0.03148
4256.58730	0.03151
4254.65862	0.03155
4252.72995	0.03163
4250.80127	0.03172
4248.87259	0.03178
4246.94392	0.03183
4245.01524	0.03187
4243.08657	0.03192
4241.15789	0.03198
4239.22922	0.03204
4237.30054	0.03208
4235.37186	0.03212
4233.44319	0.03217
4231.51451	0.03223
4229.58584	0.03230
4227.65716	0.03234
4225.72849	0.03238
4223.79981	0.03243
4221.87113	0.03250
4219.94246	0.03257
4218.01378	0.03263
4216.08511	0.03267
4214.15643	0.03273
4212.22776	0.03281
4210.29908	0.03288
4208.37040	0.03293
4206.44173	0.03298
4204.51305	0.03303
4202.58438	0.03308
4200.65570	0.03315
4198.72703	0.03319
4196.79835	0.03324
4194.86968	0.03329
4192.94100	0.03335
4191.01232	0.03342
4189.08365	0.03350
4187.15497	0.03358
4185.22630	0.03364
4183.29762	0.03370
4181.36895	0.03376
4179.44027	0.03380
4177.51159	0.03385
4175.58292	0.03391
4173.65424	0.03396
4171.72557	0.03401
4169.79689	0.03406
4167.86822	0.03412
4165.93954	0.03418
4164.01086	0.03425
4162.08219	0.03434
4160.15351	0.03441
4158.22484	0.03444
4156.29616	0.03449
4154.36749	0.03456
4152.43881	0.03463
4150.51013	0.03469
4148.58146	0.03475
4146.65278	0.03482
4144.72411	0.03489
4142.79543	0.03497
4140.86676	0.03503
4138.93808	0.03507
4137.00940	0.03511
4135.08073	0.03517
4133.15205	0.03524
4131.22338	0.03530
4129.29470	0.03536
4127.36603	0.03540
4125.43735	0.03546
4123.50867	0.03554
4121.58000	0.03562
4119.65132	0.03570
4117.72265	0.03576
4115.79397	0.03582
4113.86530	0.03589
4111.93662	0.03594
4110.00794	0.03599
4108.07927	0.03604
4106.15059	0.03610
4104.22192	0.03616
4102.29324	0.03623
4100.36457	0.03630
4098.43589	0.03637
4096.50721	0.03646
4094.57854	0.03653
4092.64986	0.03660
4090.72119	0.03666
4088.79251	0.03672
4086.86384	0.03677
4084.93516	0.03682
4083.00648	0.03689
4081.07781	0.03697
4079.14913	0.03705
4077.22046	0.03713
4075.29178	0.03719
4073.36311	0.03725
4071.43443	0.03732
4069.50575	0.03741
4067.57708	0.03748
4065.64840	0.03752
4063.71973	0.03756
4061.79105	0.03762
4059.86238	0.03771
4057.93370	0.03780
4056.00502	0.03788
4054.07635	0.03794
4052.14767	0.03800
4050.21900	0.03806
4048.29032	0.03813
4046.36165	0.03819
4044.43297	0.03824
4042.50429	0.03829
4040.57562	0.03835
4038.64694	0.03844
4036.71827	0.03853
4034.78959	0.03861
4032.86092	0.03867
4030.93224	0.03872
4029.00356	0.03879
4027.07489	0.03889
4025.14621	0.03900
4023.21754	0.03909
4021.28886	0.03915
4019.36019	0.03919
4017.43151	0.03926
4015.50283	0.03936
4013.57416	0.03944
4011.64548	0.03949
4009.71681	0.03956
4007.78813	0.03964
4005.85946	0.03972
4003.93078	0.03981
4002.00210	0.03990
4000.07343	0.03997
3998.14475	0.04004
3996.21608	0.04011
3994.28740	0.04016
3992.35873	0.04021
3990.43005	0.04028
3988.50137	0.04038
3986.57270	0.04047
3984.64402	0.04055
3982.71535	0.04062
3980.78667	0.04068
3978.85800	0.04075
3976.92932	0.04081
3975.00064	0.04088
3973.07197	0.04096
3971.14329	0.04105
3969.21462	0.04114
3967.28594	0.04125
3965.35727	0.04135
3963.42859	0.04143
3961.49991	0.04148
3959.57124	0.04153
3957.64256	0.04159
3955.71389	0.04164
3953.78521	0.04172
3951.85654	0.04181
3949.92786	0.04190
3947.99918	0.04197
3946.07051	0.04203
3944.14183	0.04209
3942.21316	0.04217
3940.28448	0.04229
3938.35581	0.04239
3936.42713	0.04247
3934.49845	0.04250
3932.56978	0.04255
3930.64110	0.04262
3928.71243	0.04271
3926.78375	0.04281
3924.85508	0.04291
3922.92640	0.04298
3920.99772	0.04304
3919.06905	0.04310
3917.14037	0.04319
3915.21170	0.04330
3913.28302	0.04341
3911.35435	0.04351
3909.42567	0.04357
3907.49699	0.04357
3905.56832	0.04353
3903.63964	0.04358
3901.71097	0.04371
3899.78229	0.04386
3897.85362	0.04400
3895.92494	0.04412
3893.99626	0.04419
3892.06759	0.04423
3890.13891	0.04430
3888.21024	0.04434
3886.28156	0.04435
3884.35289	0.04446
3882.42421	0.04462
3880.49553	0.04474
3878.56686	0.04488
3876.63818	0.04495
3874.70951	0.04495
3872.78083	0.04494
3870.85216	0.04495
3868.92348	0.04508
3866.99480	0.04527
3865.06613	0.04540
3863.13745	0.04550
3861.20878	0.04564
3859.28010	0.04577
3857.35143	0.04576
3855.42275	0.04561
3853.49407	0.04556
3851.56540	0.04578
3849.63672	0.04609
3847.70805	0.04628
3845.77937	0.04635
3843.85070	0.04635
3841.92202	0.04638
3839.99334	0.04644
3838.06467	0.04653
3836.13599	0.04666
3834.20732	0.04678
3832.27864	0.04689
3830.34997	0.04703
3828.42129	0.04715
3826.49261	0.04725
3824.56394	0.04728
3822.63526	0.04725
3820.70659	0.04729
3818.77791	0.04746
3816.84924	0.04764
3814.92056	0.04780
3812.99188	0.04795
3811.06321	0.04802
3809.13453	0.04802
3807.20586	0.04802
3805.27718	0.04810
3803.34851	0.04820
3801.41983	0.04831
3799.49115	0.04849
3797.56248	0.04864
3795.63380	0.04875
3793.70513	0.04887
3791.77645	0.04899
3789.84778	0.04908
3787.91910	0.04914
3785.99042	0.04920
3784.06175	0.04929
3782.13307	0.04936
3780.20440	0.04942
3778.27572	0.04956
3776.34705	0.04972
3774.41837	0.04982
3772.48969	0.04985
3770.56102	0.04989
3768.63234	0.04998
3766.70367	0.05009
3764.77499	0.05022
3762.84632	0.05035
3760.91764	0.05044
3758.98896	0.05050
3757.06029	0.05058
3755.13161	0.05063
3753.20294	0.05060
3751.27426	0.05052
3749.34559	0.05056
3747.41691	0.05072
3745.48823	0.05085
3743.55956	0.05100
3741.63088	0.05121
3739.70221	0.05132
3737.77353	0.05128
3735.84486	0.05124
3733.91618	0.05135
3731.98750	0.05160
3730.05883	0.05181
3728.13015	0.05189
3726.20148	0.05195
3724.27280	0.05204
3722.34413	0.05214
3720.41545	0.05226
3718.48677	0.05238
3716.55810	0.05242
3714.62942	0.05233
3712.70075	0.05222
3710.77207	0.05227
3708.84340	0.05242
3706.91472	0.05251
3704.98604	0.05248
3703.05737	0.05236
3701.12869	0.05229
3699.20002	0.05232
3697.27134	0.05236
3695.34267	0.05237
3693.41399	0.05235
3691.48531	0.05229
3689.55664	0.05224
3687.62796	0.05227
3685.69929	0.05233
3683.77061	0.05233
3681.84194	0.05228
3679.91326	0.05220
3677.98458	0.05205
3676.05591	0.05186
3674.12723	0.05179
3672.19856	0.05180
3670.26988	0.05184
3668.34121	0.05198
3666.41253	0.05212
3664.48385	0.05220
3662.55518	0.05221
3660.62650	0.05219
3658.69783	0.05215
3656.76915	0.05213
3654.84048	0.05217
3652.91180	0.05217
3650.98312	0.05204
3649.05445	0.05196
3647.12577	0.05204
3645.19710	0.05226
3643.26842	0.05247
3641.33975	0.05262
3639.41107	0.05273
3637.48239	0.05282
3635.55372	0.05285
3633.62504	0.05282
3631.69637	0.05272
3629.76769	0.05265
3627.83902	0.05282
3625.91034	0.05311
3623.98166	0.05331
3622.05299	0.05335
3620.12431	0.05334
3618.19564	0.05339
3616.26696	0.05350
3614.33829	0.05361
3612.40961	0.05369
3610.48093	0.05376
3608.55226	0.05382
3606.62358	0.05395
3604.69491	0.05410
3602.76623	0.05420
3600.83756	0.05427
3598.90888	0.05435
3596.98020	0.05441
3595.05153	0.05446
3593.12285	0.05452
3591.19418	0.05458
3589.26550	0.05464
3587.33683	0.05476
3585.40815	0.05497
3583.47947	0.05515
3581.55080	0.05526
3579.62212	0.05535
3577.69345	0.05543
3575.76477	0.05550
3573.83610	0.05559
3571.90742	0.05567
3569.97874	0.05570
3568.05007	0.05573
3566.12139	0.05584
3564.19272	0.05602
3562.26404	0.05617
3560.33537	0.05627
3558.40669	0.05636
3556.47801	0.05643
3554.54934	0.05649
3552.62066	0.05657
3550.69199	0.05667
3548.76331	0.05674
3546.83464	0.05677
3544.90596	0.05685
3542.97728	0.05697
3541.04861	0.05708
3539.11993	0.05716
3537.19126	0.05723
3535.26258	0.05731
3533.33391	0.05737
3531.40523	0.05742
3529.47655	0.05746
3527.54788	0.05751
3525.61920	0.05757
3523.69053	0.05762
3521.76185	0.05768
3519.83318	0.05774
3517.90450	0.05781
3515.97582	0.05789
3514.04715	0.05795
3512.11847	0.05798
3510.18980	0.05800
3508.26112	0.05806
3506.33245	0.05814
3504.40377	0.05819
3502.47509	0.05822
3500.54642	0.05828
3498.61774	0.05835
3496.68907	0.05840
3494.76039	0.05844
3492.83172	0.05846
3490.90304	0.05849
3488.97436	0.05852
3487.04569	0.05857
3485.11701	0.05863
3483.18834	0.05868
3481.25966	0.05875
3479.33099	0.05883
3477.40231	0.05890
3475.47363	0.05897
3473.54496	0.05906
3471.61628	0.05917
3469.68761	0.05927
3467.75893	0.05937
3465.83026	0.05947
3463.90158	0.05957
3461.97290	0.05968
3460.04423	0.05980
3458.11555	0.05992
3456.18688	0.06004
3454.25820	0.06013
3452.32953	0.06021
3450.40085	0.06030
3448.47217	0.06041
3446.54350	0.06053
3444.61482	0.06067
3442.68615	0.06083
3440.75747	0.06099
3438.82880	0.06115
3436.90012	0.06131
3434.97144	0.06148
3433.04277	0.06167
3431.11409	0.06189
3429.18542	0.06212
3427.25674	0.06235
3425.32807	0.06257
3423.39939	0.06278
3421.47071	0.06297
3419.54204	0.06315
3417.61336	0.06336
3415.68469	0.06356
3413.75601	0.06375
3411.82734	0.06391
3409.89866	0.06405
3407.96998	0.06421
3406.04131	0.06435
3404.11263	0.06449
3402.18396	0.06465
3400.25528	0.06482
3398.32661	0.06499
3396.39793	0.06515
3394.46925	0.06530
3392.54058	0.06545
3390.61190	0.06563
3388.68323	0.06579
3386.75455	0.06594
3384.82588	0.06609
3382.89720	0.06626
3380.96852	0.06643
3379.03985	0.06659
3377.11117	0.06675
3375.18250	0.06695
3373.25382	0.06715
3371.32515	0.06730
3369.39647	0.06741
3367.46779	0.06752
3365.53912	0.06766
3363.61044	0.06782
3361.68177	0.06799
3359.75309	0.06817
3357.82442	0.06835
3355.89574	0.06852
3353.96706	0.06869
3352.03839	0.06884
3350.10971	0.06898
3348.18104	0.06915
3346.25236	0.06932
3344.32369	0.06948
3342.39501	0.06964
3340.46633	0.06980
3338.53766	0.06994
3336.60898	0.07008
3334.68031	0.07024
3332.75163	0.07041
3330.82296	0.07058
3328.89428	0.07076
3326.96560	0.07092
3325.03693	0.07106
3323.10825	0.07123
3321.17958	0.07142
3319.25090	0.07161
3317.32223	0.07179
3315.39355	0.07195
3313.46487	0.07210
3311.53620	0.07227
3309.60752	0.07245
3307.67885	0.07264
3305.75017	0.07281
3303.82150	0.07298
3301.89282	0.07314
3299.96414	0.07330
3298.03547	0.07345
3296.10679	0.07360
3294.17812	0.07377
3292.24944	0.07394
3290.32077	0.07412
3288.39209	0.07431
3286.46341	0.07448
3284.53474	0.07462
3282.60606	0.07481
3280.67739	0.07502
3278.74871	0.07520
3276.82004	0.07535
3274.89136	0.07552
3272.96268	0.07572
3271.03401	0.07592
3269.10533	0.07610
3267.17666	0.07628
3265.24798	0.07646
3263.31931	0.07663
3261.39063	0.07681
3259.46195	0.07700
3257.53328	0.07721
3255.60460	0.07742
3253.67593	0.07763
3251.74725	0.07780
3249.81858	0.07793
3247.88990	0.07808
3245.96122	0.07826
3244.03255	0.07844
3242.10387	0.07866
3240.17520	0.07889
3238.24652	0.07909
3236.31785	0.07924
3234.38917	0.07938
3232.46049	0.07955
3230.53182	0.07975
3228.60314	0.07996
3226.67447	0.08013
3224.74579	0.08030
3222.81712	0.08049
3220.88844	0.08067
3218.95976	0.08083
3217.03109	0.08101
3215.10241	0.08120
3213.17374	0.08141
3211.24506	0.08161
3209.31639	0.08179
3207.38771	0.08198
3205.45903	0.08215
3203.53036	0.08233
3201.60168	0.08253
3199.67301	0.08272
3197.74433	0.08291
3195.81566	0.08313
3193.88698	0.08334
3191.95830	0.08353
3190.02963	0.08372
3188.10095	0.08392
3186.17228	0.08412
3184.24360	0.08430
3182.31493	0.08448
3180.38625	0.08466
3178.45757	0.08485
3176.52890	0.08505
3174.60022	0.08528
3172.67155	0.08549
3170.74287	0.08564
3168.81420	0.08580
3166.88552	0.08601
3164.95684	0.08622
3163.02817	0.08641
3161.09949	0.08662
3159.17082	0.08684
3157.24214	0.08705
3155.31347	0.08724
3153.38479	0.08741
3151.45611	0.08758
3149.52744	0.08777
3147.59876	0.08798
3145.67009	0.08818
3143.74141	0.08835
3141.81274	0.08852
3139.88406	0.08872
3137.95538	0.08894
3136.02671	0.08915
3134.09803	0.08933
3132.16936	0.08952
3130.24068	0.08973
3128.31201	0.08994
3126.38333	0.09014
3124.45465	0.09031
3122.52598	0.09050
3120.59730	0.09070
3118.66863	0.09091
3116.73995	0.09110
3114.81128	0.09127
3112.88260	0.09144
3110.95392	0.09163
3109.02525	0.09184
3107.09657	0.09202
3105.16790	0.09217
3103.23922	0.09234
3101.31055	0.09258
3099.38187	0.09282
3097.45319	0.09303
3095.52452	0.09321
3093.59584	0.09339
3091.66717	0.09357
3089.73849	0.09376
3087.80982	0.09396
3085.88114	0.09416
3083.95246	0.09436
3082.02379	0.09456
3080.09511	0.09476
3078.16644	0.09495
3076.23776	0.09514
3074.30909	0.09533
3072.38041	0.09553
3070.45173	0.09571
3068.52306	0.09588
3066.59438	0.09607
3064.66571	0.09627
3062.73703	0.09645
3060.80836	0.09664
3058.87968	0.09685
3056.95100	0.09707
3055.02233	0.09727
3053.09365	0.09746
3051.16498	0.09763
3049.23630	0.09780
3047.30763	0.09799
3045.37895	0.09822
3043.45027	0.09843
3041.52160	0.09861
3039.59292	0.09880
3037.66425	0.09901
3035.73557	0.09923
3033.80690	0.09943
3031.87822	0.09962
3029.94954	0.09980
3028.02087	0.09999
3026.09219	0.10018
3024.16352	0.10034
3022.23484	0.10052
3020.30617	0.10073
3018.37749	0.10094
3016.44881	0.10114
3014.52014	0.10134
3012.59146	0.10155
3010.66279	0.10176
3008.73411	0.10199
3006.80544	0.10220
3004.87676	0.10239
3002.94808	0.10259
3001.01941	0.10278
2999.09073	0.10292
2997.16206	0.10305
2995.23338	0.10321
2993.30471	0.10342
2991.37603	0.10364
2989.44735	0.10385
2987.51868	0.10403
2985.59000	0.10416
2983.66133	0.10428
2981.73265	0.10440
2979.80398	0.10449
2977.87530	0.10456
2975.94662	0.10463
2974.01795	0.10471
2972.08927	0.10478
2970.16060	0.10482
2968.23192	0.10485
2966.30325	0.10490
2964.37457	0.10500
2962.44589	0.10516
2960.51722	0.10532
2958.58854	0.10547
2956.65987	0.10569
2954.73119	0.10599
2952.80252	0.10629
2950.87384	0.10654
2948.94516	0.10674
2947.01649	0.10691
2945.08781	0.10706
2943.15914	0.10715
2941.23046	0.10722
2939.30179	0.10730
2937.37311	0.10737
2935.44443	0.10739
2933.51576	0.10739
2931.58708	0.10739
2929.65841	0.10739
2927.72973	0.10740
2925.80106	0.10744
2923.87238	0.10750
2921.94370	0.10757
2920.01503	0.10770
2918.08635	0.10794
2916.15768	0.10834
2914.22900	0.10887
2912.30033	0.10943
2910.37165	0.10992
2908.44297	0.11036
2906.51430	0.11075
2904.58562	0.11108
2902.65695	0.11138
2900.72827	0.11168
2898.79960	0.11198
2896.87092	0.11225
2894.94224	0.11251
2893.01357	0.11278
2891.08489	0.11306
2889.15622	0.11332
2887.22754	0.11358
2885.29887	0.11384
2883.37019	0.11409
2881.44151	0.11430
2879.51284	0.11448
2877.58416	0.11464
2875.65549	0.11480
2873.72681	0.11495
2871.79814	0.11513
2869.86946	0.11535
2867.94078	0.11557
2866.01211	0.11574
2864.08343	0.11587
2862.15476	0.11600
2860.22608	0.11611
2858.29741	0.11619
2856.36873	0.11624
2854.44005	0.11625
2852.51138	0.11627
2850.58270	0.11643
2848.65403	0.11678
2846.72535	0.11733
2844.79668	0.11795
2842.86800	0.11849
2840.93932	0.11891
2839.01065	0.11928
2837.08197	0.11961
2835.15330	0.11989
2833.22462	0.12012
2831.29595	0.12036
2829.36727	0.12062
2827.43859	0.12088
2825.50992	0.12112
2823.58124	0.12134
2821.65257	0.12155
2819.72389	0.12179
2817.79522	0.12206
2815.86654	0.12231
2813.93786	0.12252
2812.00919	0.12272
2810.08051	0.12295
2808.15184	0.12322
2806.22316	0.12347
2804.29449	0.12368
2802.36581	0.12387
2800.43713	0.12406
2798.50846	0.12428
2796.57978	0.12452
2794.65111	0.12477
2792.72243	0.12498
2790.79376	0.12517
2788.86508	0.12540
2786.93640	0.12565
2785.00773	0.12587
2783.07905	0.12607
2781.15038	0.12626
2779.22170	0.12645
2777.29303	0.12668
2775.36435	0.12694
2773.43567	0.12722
2771.50700	0.12748
2769.57832	0.12770
2767.64965	0.12790
2765.72097	0.12808
2763.79230	0.12829
2761.86362	0.12853
2759.93494	0.12873
2758.00627	0.12892
2756.07759	0.12913
2754.14892	0.12936
2752.22024	0.12958
2750.29157	0.12977
2748.36289	0.12997
2746.43421	0.13019
2744.50554	0.13041
2742.57686	0.13061
2740.64819	0.13080
2738.71951	0.13102
2736.79084	0.13128
2734.86216	0.13153
2732.93348	0.13173
2731.00481	0.13190
2729.07613	0.13209
2727.14746	0.13233
2725.21878	0.13259
2723.29011	0.13285
2721.36143	0.13306
2719.43275	0.13326
2717.50408	0.13345
2715.57540	0.13362
2713.64673	0.13380
2711.71805	0.13400
2709.78938	0.13422
2707.86070	0.13447
2705.93202	0.13470
2704.00335	0.13492
2702.07467	0.13514
2700.14600	0.13536
2698.21732	0.13556
2696.28865	0.13572
2694.35997	0.13589
2692.43129	0.13611
2690.50262	0.13635
2688.57394	0.13658
2686.64527	0.13678
2684.71659	0.13698
2682.78792	0.13719
2680.85924	0.13739
2678.93056	0.13761
2677.00189	0.13785
2675.07321	0.13810
2673.14454	0.13830
2671.21586	0.13849
2669.28719	0.13870
2667.35851	0.13892
2665.42983	0.13911
2663.50116	0.13929
2661.57248	0.13948
2659.64381	0.13970
2657.71513	0.13994
2655.78646	0.14021
2653.85778	0.14045
2651.92910	0.14066
2650.00043	0.14087
2648.07175	0.14108
2646.14308	0.14131
2644.21440	0.14156
2642.28573	0.14180
2640.35705	0.14203
2638.42837	0.14224
2636.49970	0.14245
2634.57102	0.14265
2632.64235	0.14286
2630.71367	0.14310
2628.78500	0.14337
2626.85632	0.14363
2624.92764	0.14381
2622.99897	0.14396
2621.07029	0.14415
2619.14162	0.14440
2617.21294	0.14465
2615.28427	0.14490
2613.35559	0.14516
2611.42691	0.14541
2609.49824	0.14562
2607.56956	0.14581
2605.64089	0.14601
2603.71221	0.14626
2601.78354	0.14654
2599.85486	0.14679
2597.92618	0.14697
2595.99751	0.14713
2594.06883	0.14733
2592.14016	0.14757
2590.21148	0.14783
2588.28281	0.14807
2586.35413	0.14829
2584.42545	0.14850
2582.49678	0.14871
2580.56810	0.14890
2578.63943	0.14909
2576.71075	0.14931
2574.78208	0.14953
2572.85340	0.14975
2570.92472	0.15000
2568.99605	0.15023
2567.06737	0.15045
2565.13870	0.15067
2563.21002	0.15089
2561.28135	0.15112
2559.35267	0.15134
2557.42399	0.15153
2555.49532	0.15174
2553.56664	0.15197
2551.63797	0.15217
2549.70929	0.15237
2547.78062	0.15259
2545.85194	0.15283
2543.92326	0.15308
2541.99459	0.15331
2540.06591	0.15350
2538.13724	0.15367
2536.20856	0.15388
2534.27989	0.15413
2532.35121	0.15438
2530.42253	0.15461
2528.49386	0.15483
2526.56518	0.15502
2524.63651	0.15523
2522.70783	0.15547
2520.77916	0.15574
2518.85048	0.15599
2516.92181	0.15622
2514.99313	0.15643
2513.06445	0.15662
2511.13578	0.15679
2509.20710	0.15700
2507.27843	0.15724
2505.34975	0.15750
2503.42108	0.15778
2501.49240	0.15804
2499.56372	0.15825
2497.63505	0.15844
2495.70637	0.15867
2493.77770	0.15891
2491.84902	0.15912
2489.92035	0.15932
2487.99167	0.15955
2486.06299	0.15981
2484.13432	0.16006
2482.20564	0.16030
2480.27697	0.16053
2478.34829	0.16076
2476.41962	0.16100
2474.49094	0.16125
2472.56226	0.16147
2470.63359	0.16166
2468.70491	0.16186
2466.77624	0.16208
2464.84756	0.16230
2462.91889	0.16251
2460.99021	0.16270
2459.06153	0.16289
2457.13286	0.16313
2455.20418	0.16338
2453.27551	0.16358
2451.34683	0.16377
2449.41816	0.16399
2447.48948	0.16423
2445.56080	0.16447
2443.63213	0.16469
2441.70345	0.16490
2439.77478	0.16512
2437.84610	0.16535
2435.91743	0.16555
2433.98875	0.16573
2432.06007	0.16593
2430.13140	0.16612
2428.20272	0.16629
2426.27405	0.16650
2424.34537	0.16673
2422.41670	0.16694
2420.48802	0.16711
2418.55934	0.16731
2416.63067	0.16755
2414.70199	0.16777
2412.77332	0.16798
2410.84464	0.16817
2408.91597	0.16834
2406.98729	0.16849
2405.05861	0.16865
2403.12994	0.16883
2401.20126	0.16904
2399.27259	0.16924
2397.34391	0.16940
2395.41524	0.16953
2393.48656	0.16968
2391.55788	0.16986
2389.62921	0.17004
2387.70053	0.17021
2385.77186	0.17036
2383.84318	0.17050
2381.91451	0.17060
2379.98583	0.17064
2378.05715	0.17064
2376.12848	0.17062
2374.19980	0.17056
2372.27113	0.17049
2370.34245	0.17040
2368.41378	0.17030
2366.48510	0.17022
2364.55642	0.17012
2362.62775	0.16993
2360.69907	0.16962
2358.77040	0.16909
2356.84172	0.16812
2354.91305	0.16637
2352.98437	0.16335
2351.05569	0.15865
2349.12702	0.15189
2347.19834	0.14332
2345.26967	0.13412
2343.34099	0.12643
2341.41232	0.12369
2339.48364	0.12875
2337.55496	0.14097
2335.62629	0.15474
2333.69761	0.16395
2331.76894	0.16817
2329.84026	0.17016
2327.91159	0.17151
2325.98291	0.17282
2324.05423	0.17408
2322.12556	0.17519
2320.19688	0.17608
2318.26821	0.17674
2316.33953	0.17725
2314.41086	0.17769
2312.48218	0.17812
2310.55350	0.17848
2308.62483	0.17877
2306.69615	0.17907
2304.76748	0.17936
2302.83880	0.17966
2300.91013	0.17997
2298.98145	0.18028
2297.05277	0.18057
2295.12410	0.18084
2293.19542	0.18109
2291.26675	0.18130
2289.33807	0.18150
2287.40940	0.18167
2285.48072	0.18184
2283.55204	0.18202
2281.62337	0.18219
2279.69469	0.18230
2277.76602	0.18239
2275.83734	0.18257
2273.90867	0.18291
2271.97999	0.18337
2270.05131	0.18380
2268.12264	0.18413
2266.19396	0.18440
2264.26529	0.18466
2262.33661	0.18492
2260.40794	0.18517
2258.47926	0.18541
2256.55058	0.18561
2254.62191	0.18582
2252.69323	0.18604
2250.76456	0.18627
2248.83588	0.18652
2246.90721	0.18676
2244.97853	0.18698
2243.04985	0.18720
2241.12118	0.18744
2239.19250	0.18766
2237.26383	0.18784
2235.33515	0.18800
2233.40648	0.18819
2231.47780	0.18841
2229.54912	0.18867
2227.62045	0.18894
2225.69177	0.18913
2223.76310	0.18928
2221.83442	0.18946
2219.90575	0.18969
2217.97707	0.18991
2216.04839	0.19010
2214.11972	0.19030
2212.19104	0.19052
2210.26237	0.19072
2208.33369	0.19089
2206.40502	0.19108
2204.47634	0.19128
2202.54766	0.19152
2200.61899	0.19176
2198.69031	0.19195
2196.76164	0.19210
2194.83296	0.19224
2192.90429	0.19239
2190.97561	0.19254
2189.04693	0.19274
2187.11826	0.19296
2185.18958	0.19318
2183.26091	0.19337
2181.33223	0.19354
2179.40356	0.19374
2177.47488	0.19398
2175.54620	0.19418
2173.61753	0.19435
2171.68885	0.19452
2169.76018	0.19468
2167.83150	0.19489
2165.90283	0.19517
2163.97415	0.19543
2162.04547	0.19561
2160.11680	0.19579
2158.18812	0.19597
2156.25945	0.19614
2154.33077	0.19630
2152.40210	0.19648
2150.47342	0.19668
2148.54474	0.19690
2146.61607	0.19711
2144.68739	0.19728
2142.75872	0.19744
2140.83004	0.19761
2138.90137	0.19780
2136.97269	0.19800
2135.04401	0.19820
2133.11534	0.19839
2131.18666	0.19859
2129.25799	0.19878
2127.32931	0.19894
2125.40064	0.19911
2123.47196	0.19927
2121.54328	0.19947
2119.61461	0.19968
2117.68593	0.19986
2115.75726	0.20002
2113.82858	0.20023
2111.89991	0.20047
2109.97123	0.20069
2108.04255	0.20084
2106.11388	0.20096
2104.18520	0.20108
2102.25653	0.20122
2100.32785	0.20139
2098.39918	0.20158
2096.47050	0.20177
2094.54182	0.20196
2092.61315	0.20214
2090.68447	0.20232
2088.75580	0.20250
2086.82712	0.20269
2084.89845	0.20288
2082.96977	0.20303
2081.04109	0.20316
2079.11242	0.20330
2077.18374	0.20347
2075.25507	0.20364
2073.32639	0.20380
2071.39772	0.20398
2069.46904	0.20414
2067.54036	0.20424
2065.61169	0.20433
2063.68301	0.20449
2061.75434	0.20469
2059.82566	0.20488
2057.89699	0.20505
2055.96831	0.20520
2054.03963	0.20535
2052.11096	0.20549
2050.18228	0.20558
2048.25361	0.20568
2046.32493	0.20582
2044.39626	0.20598
2042.46758	0.20610
2040.53890	0.20622
2038.61023	0.20636
2036.68155	0.20651
2034.75288	0.20666
2032.82420	0.20681
2030.89553	0.20696
2028.96685	0.20713
2027.03817	0.20727
2025.10950	0.20738
2023.18082	0.20750
2021.25215	0.20764
2019.32347	0.20777
2017.39480	0.20788
2015.46612	0.20800
2013.53744	0.20813
2011.60877	0.20826
2009.68009	0.20841
2007.75142	0.20856
2005.82274	0.20873
2003.89407	0.20891
2001.96539	0.20907
2000.03671	0.20921
1998.10804	0.20935
1996.17936	0.20944
1994.25069	0.20946
1992.32201	0.20950
1990.39334	0.20964
1988.46466	0.20984
1986.53598	0.21001
1984.60731	0.21016
1982.67863	0.21028
1980.74996	0.21039
1978.82128	0.21048
1976.89261	0.21059
1974.96393	0.21074
1973.03525	0.21086
1971.10658	0.21093
1969.17790	0.21101
1967.24923	0.21111
1965.32055	0.21122
1963.39188	0.21137
1961.46320	0.21154
1959.53452	0.21171
1957.60585	0.21183
1955.67717	0.21193
1953.74850	0.21206
1951.81982	0.21223
1949.89115	0.21237
1947.96247	0.21246
1946.03379	0.21255
1944.10512	0.21265
1942.17644	0.21281
1940.24777	0.21307
1938.31909	0.21332
1936.39042	0.21348
1934.46174	0.21362
1932.53306	0.21373
1930.60439	0.21381
1928.67571	0.21389
1926.74704	0.21399
1924.81836	0.21405
1922.88969	0.21412
1920.96101	0.21427
1919.03233	0.21441
1917.10366	0.21457
1915.17498	0.21480
1913.24631	0.21495
1911.31763	0.21499
1909.38896	0.21503
1907.46028	0.21514
1905.53160	0.21531
1903.60293	0.21547
1901.67425	0.21558
1899.74558	0.21567
1897.81690	0.21574
1895.88823	0.21578
1893.95955	0.21582
1892.03087	0.21579
1890.10220	0.21573
1888.17352	0.21581
1886.24485	0.21601
1884.31617	0.21619
1882.38750	0.21632
1880.45882	0.21642
1878.53014	0.21652
1876.60147	0.21663
1874.67279	0.21674
1872.74412	0.21674
1870.81544	0.21659
1868.88677	0.21656
1866.95809	0.21685
1865.02941	0.21723
1863.10074	0.21748
1861.17206	0.21764
1859.24339	0.21779
1857.31471	0.21794
1855.38604	0.21808
1853.45736	0.21821
1851.52868	0.21834
1849.60001	0.21847
1847.67133	0.21850
1845.74266	0.21841
1843.81398	0.21851
1841.88531	0.21890
1839.95663	0.21928
1838.02795	0.21951
1836.09928	0.21970
1834.17060	0.21983
1832.24193	0.21987
1830.31325	0.21992
1828.38458	0.22003
1826.45590	0.22016
1824.52722	0.22035
1822.59855	0.22062
1820.66987	0.22083
1818.74120	0.22098
1816.81252	0.22113
1814.88385	0.22126
1812.95517	0.22133
1811.02649	0.22142
1809.09782	0.22161
1807.16914	0.22179
1805.24047	0.22186
1803.31179	0.22181
1801.38312	0.22180
1799.45444	0.22196
1797.52576	0.22216
1795.59709	0.22215
1793.66841	0.22198
1791.73974	0.22202
1789.81106	0.22232
1787.88239	0.22255
1785.95371	0.22260
1784.02503	0.22267
1782.09636	0.22280
1780.16768	0.22292
1778.23901	0.22300
1776.31033	0.22293
1774.38166	0.22269
1772.45298	0.22250
1770.52430	0.22254
1768.59563	0.22278
1766.66695	0.22307
1764.73828	0.22321
1762.80960	0.22311
1760.88093	0.22302
1758.95225	0.22306
1757.02357	0.22311
1755.09490	0.22305
1753.16622	0.22268
1751.23755	0.22223
1749.30887	0.22220
1747.38020	0.22243
1745.45152	0.22253
1743.52284	0.22239
1741.59417	0.22214
1739.66549	0.22201
1737.73682	0.22197
1735.80814	0.22171
1733.87947	0.22149
1731.95079	0.22173
1730.02211	0.22217
1728.09344	0.22247
1726.16476	0.22259
1724.23609	0.22261
1722.30741	0.22258
1720.37874	0.22229
1718.45006	0.22187
1716.52138	0.22187
1714.59271	0.22231
1712.66403	0.22272
1710.73536	0.22294
1708.80668	0.22293
1706.87801	0.22276
1704.94933	0.22265
1703.02065	0.22245
1701.09198	0.22212
1699.16330	0.22206
1697.23463	0.22222
1695.30595	0.22240
1693.37728	0.22263
1691.44860	0.22270
1689.51992	0.22255
1687.59125	0.22223
1685.66257	0.22171
1683.73390	0.22142
1681.80522	0.22168
1679.87655	0.22200
1677.94787	0.22179
1676.01919	0.22131
1674.09052	0.22117
1672.16184	0.22127
1670.23317	0.22132
1668.30449	0.22150
1666.37582	0.22176
1664.44714	0.22176
1662.51846	0.22163
1660.58979	0.22166
1658.66111	0.22169
1656.73244	0.22127
1654.80376	0.22029
1652.87509	0.21966
1650.94641	0.22006
1649.01773	0.22057
1647.08906	0.22068
1645.16038	0.22088
1643.23171	0.22115
1641.30303	0.22117
1639.37436	0.22092
1637.44568	0.22059
1635.51700	0.22054
1633.58833	0.22082
1631.65965	0.22106
1629.73098	0.22102
1627.80230	0.22078
1625.87363	0.22039
1623.94495	0.21986
1622.01627	0.21947
1620.08760	0.21938
1618.15892	0.21953
1616.23025	0.22004
1614.30157	0.22078
1612.37290	0.22132
1610.44422	0.22160
1608.51554	0.22184
1606.58687	0.22212
1604.65819	0.22240
1602.72952	0.22262
1600.80084	0.22278
1598.87217	0.22289
1596.94349	0.22299
1595.01481	0.22311
1593.08614	0.22323
1591.15746	0.22333
1589.22879	0.22342
1587.30011	0.22350
1585.37144	0.22358
1583.44276	0.22365
1581.51408	0.22366
1579.58541	0.22345
1577.65673	0.22304
1575.72806	0.22298
1573.79938	0.22340
1571.87071	0.22360
1569.94203	0.22349
1568.01335	0.22351
1566.08468	0.22360
1564.15600	0.22357
1562.22733	0.22318
1560.29865	0.22249
1558.36998	0.22225
1556.44130	0.22279
1554.51262	0.22340
1552.58395	0.22362
1550.65527	0.22364
1548.72660	0.22363
1546.79792	0.22341
1544.86925	0.22289
1542.94057	0.22239
1541.01189	0.22229
1539.08322	0.22269
1537.15454	0.22311
1535.22587	0.22306
1533.29719	0.22291
1531.36852	0.22309
1529.43984	0.22319
1527.51116	0.22297
1525.58249	0.22265
1523.65381	0.22225
1521.72514	0.22195
1519.79646	0.22201
1517.86779	0.22217
1515.93911	0.22222
1514.01043	0.22225
1512.08176	0.22212
1510.15308	0.22161
1508.22441	0.22097
1506.29573	0.22097
1504.36706	0.22163
1502.43838	0.22200
1500.50970	0.22171
1498.58103	0.22116
1496.65235	0.22082
1494.72368	0.22082
1492.79500	0.22078
1490.86633	0.22045
1488.93765	0.22013
1487.00897	0.22001
1485.08030	0.21990
1483.15162	0.21962
1481.22295	0.21923
1479.29427	0.21875
1477.36560	0.21805
1475.43692	0.21720
1473.50824	0.21650
1471.57957	0.21621
1469.65089	0.21610
1467.72222	0.21570
1465.79354	0.21506
1463.86487	0.21469
1461.93619	0.21445
1460.00751	0.21376
1458.07884	0.21288
1456.15016	0.21261
1454.22149	0.21287
1452.29281	0.21302
1450.36414	0.21289
1448.43546	0.21270
1446.50678	0.21266
1444.57811	0.21273
1442.64943	0.21273
1440.72076	0.21253
1438.79208	0.21217
1436.86341	0.21189
1434.93473	0.21188
1433.00605	0.21191
1431.07738	0.21179
1429.14870	0.21173
1427.22003	0.21170
1425.29135	0.21152
1423.36268	0.21116
1421.43400	0.21056
1419.50532	0.20999
1417.57665	0.20998
1415.64797	0.21028
1413.71930	0.21035
1411.79062	0.21018
1409.86195	0.20995
1407.93327	0.20968
1406.00459	0.20935
1404.07592	0.20907
1402.14724	0.20881
1400.21857	0.20840
1398.28989	0.20793
1396.36122	0.20757
1394.43254	0.20736
1392.50386	0.20716
1390.57519	0.20673
1388.64651	0.20605
1386.71784	0.20538
1384.78916	0.20493
1382.86049	0.20471
1380.93181	0.20453
1379.00313	0.20424
1377.07446	0.20379
1375.14578	0.20330
1373.21711	0.20301
1371.28843	0.20292
1369.35976	0.20273
1367.43108	0.20237
1365.50240	0.20193
1363.57373	0.20148
1361.64505	0.20117
1359.71638	0.20098
1357.78770	0.20073
1355.85903	0.20038
1353.93035	0.20005
1352.00167	0.19980
1350.07300	0.19957
1348.14432	0.19930
1346.21565	0.19896
1344.28697	0.19855
1342.35830	0.19806
1340.42962	0.19753
1338.50094	0.19705
1336.57227	0.19667
1334.64359	0.19628
1332.71492	0.19577
1330.78624	0.19515
1328.85757	0.19449
1326.92889	0.19389
1325.00021	0.19335
1323.07154	0.19275
1321.14286	0.19203
1319.21419	0.19125
1317.28551	0.19050
1315.35684	0.18978
1313.42816	0.18908
1311.49948	0.18839
1309.57081	0.18765
1307.64213	0.18682
1305.71346	0.18598
1303.78478	0.18521
1301.85611	0.18444
1299.92743	0.18359
1297.99875	0.18273
1296.07008	0.18191
1294.14140	0.18109
1292.21273	0.18020
1290.28405	0.17924
1288.35538	0.17826
1286.42670	0.17730
1284.49802	0.17630
1282.56935	0.17523
1280.64067	0.17408
1278.71200	0.17285
1276.78332	0.17154
1274.85465	0.17015
1272.92597	0.16864
1270.99729	0.16695
1269.06862	0.16509
1267.13994	0.16309
1265.21127	0.16108
1263.28259	0.15919
1261.35392	0.15751
1259.42524	0.15595
1257.49656	0.15445
1255.56789	0.15296
1253.63921	0.15137
1251.71054	0.14958
1249.78186	0.14766
1247.85319	0.14570
1245.92451	0.14372
1243.99583	0.14174
1242.06716	0.13978
1240.13848	0.13790
1238.20981	0.13607
1236.28113	0.13425
1234.35246	0.13241
1232.42378	0.13057
1230.49510	0.12870
1228.56643	0.12688
1226.63775	0.12522
1224.70908	0.12363
1222.78040	0.12203
1220.85173	0.12046
1218.92305	0.11895
1216.99437	0.11743
1215.06570	0.11589
1213.13702	0.11439
1211.20835	0.11293
1209.27967	0.11145
1207.35100	0.11001
1205.42232	0.10861
1203.49364	0.10725
1201.56497	0.10594
1199.63629	0.10469
1197.70762	0.10349
1195.77894	0.10226
1193.85027	0.10101
1191.92159	0.09975
1189.99291	0.09847
1188.06424	0.09715
1186.13556	0.09585
1184.20689	0.09460
1182.27821	0.09338
1180.34954	0.09218
1178.42086	0.09095
1176.49218	0.08971
1174.56351	0.08846
1172.63483	0.08725
1170.70616	0.08606
1168.77748	0.08484
1166.84881	0.08362
1164.92013	0.08244
1162.99145	0.08130
1161.06278	0.08020
1159.13410	0.07909
1157.20543	0.07796
1155.27675	0.07691
1153.34808	0.07591
1151.41940	0.07489
1149.49072	0.07381
1147.56205	0.07272
1145.63337	0.07163
1143.70470	0.07053
1141.77602	0.06939
1139.84735	0.06821
1137.91867	0.06700
1135.98999	0.06568
1134.06132	0.06421
1132.13264	0.06266
1130.20397	0.06104
1128.27529	0.05925
1126.34662	0.05728
1124.41794	0.05518
1122.48926	0.05303
1120.56059	0.05085
1118.63191	0.04856
1116.70324	0.04611
1114.77456	0.04356
1112.84589	0.04098
1110.91721	0.03840
1108.98853	0.03583
1107.05986	0.03321
1105.13118	0.03062
1103.20251	0.02823
1101.27383	0.02613
1099.34516	0.02421
1097.41648	0.02241
1095.48780	0.02083
1093.55913	0.01957
1091.63045	0.01857
1089.70178	0.01775
1087.77310	0.01707
1085.84443	0.01653
1083.91575	0.01615
1081.98707	0.01587
1080.05840	0.01564
1078.12972	0.01551
1076.20105	0.01553
1074.27237	0.01567
1072.34370	0.01592
1070.41502	0.01623
1068.48634	0.01658
1066.55767	0.01698
1064.62899	0.01744
1062.70032	0.01797
1060.77164	0.01862
1058.84297	0.01934
1056.91429	0.02013
1054.98561	0.02102
1053.05694	0.02198
1051.12826	0.02297
1049.19959	0.02406
1047.27091	0.02535
1045.34224	0.02675
1043.41356	0.02816
1041.48488	0.02966
1039.55621	0.03133
1037.62753	0.03319
1035.69886	0.03517
1033.77018	0.03729
1031.84151	0.03956
1029.91283	0.04205
1027.98415	0.04477
1026.05548	0.04768
1024.12680	0.05078
1022.19813	0.05411
1020.26945	0.05770
1018.34078	0.06154
1016.41210	0.06560
1014.48342	0.06984
1012.55475	0.07429
1010.62607	0.07896
1008.69740	0.08380
1006.76872	0.08870
1004.84005	0.09359
1002.91137	0.09844
1000.98269	0.10316
999.05402	0.10768
997.12534	0.11194
995.19667	0.11598
993.26799	0.11981
991.33932	0.12341
989.41064	0.12670
987.48196	0.12965
985.55329	0.13226
983.62461	0.13459
981.69594	0.13666
979.76726	0.13837
977.83859	0.13973
975.90991	0.14083
973.98123	0.14176
972.05256	0.14257
970.12388	0.14320
968.19521	0.14366
966.26653	0.14406
964.33786	0.14442
962.40918	0.14472
960.48050	0.14497
958.55183	0.14520
956.62315	0.14540
954.69448	0.14552
952.76580	0.14547
950.83713	0.14530
948.90845	0.14513
946.97977	0.14496
945.05110	0.14470
943.12242	0.14430
941.19375	0.14381
939.26507	0.14335
937.33640	0.14291
935.40772	0.14242
933.47904	0.14189
931.55037	0.14127
929.62169	0.14062
927.69302	0.14006
925.76434	0.13956
923.83567	0.13904
921.90699	0.13847
919.97831	0.13784
918.04964	0.13716
916.12096	0.13646
914.19229	0.13574
912.26361	0.13500
910.33494	0.13428
908.40626	0.13362
906.47758	0.13306
904.54891	0.13252
902.62023	0.13194
900.69156	0.13137
898.76288	0.13089
896.83421	0.13049
894.90553	0.13012
892.97685	0.12972
891.04818	0.12934
889.11950	0.12904
887.19083	0.12871
885.26215	0.12832
883.33348	0.12787
881.40480	0.12743
879.47612	0.12703
877.54745	0.12667
875.61877	0.12637
873.69010	0.12605
871.76142	0.12554
869.83275	0.12480
867.90407	0.12398
865.97539	0.12314
864.04672	0.12229
862.11804	0.12145
860.18937	0.12059
858.26069	0.11962
856.33202	0.11850
854.40334	0.11731
852.47466	0.11607
850.54599	0.11474
848.61731	0.11334
846.68864	0.11192
844.75996	0.11055
842.83129	0.10926
840.90261	0.10806
838.97394	0.10685
837.04526	0.10553
835.11658	0.10413
833.18791	0.10272
831.25923	0.10125
829.33056	0.09964
827.40188	0.09800
825.47321	0.09652
823.54453	0.09526
821.61585	0.09415
819.68718	0.09317
817.75850	0.09239
815.82983	0.09184
813.90115	0.09146
811.97248	0.09122
810.04380	0.09102
808.11512	0.09085
806.18645	0.09081
804.25777	0.09095
802.32910	0.09124
800.40042	0.09146
798.47175	0.09148
796.54307	0.09148
794.61439	0.09162
792.68572	0.09195
790.75704	0.09248
788.82837	0.09309
786.89969	0.09374
784.97102	0.09440
783.04234	0.09505
781.11366	0.09568
779.18499	0.09632
777.25631	0.09700
775.32764	0.09770
773.39896	0.09836
771.47029	0.09886
769.54161	0.09920
767.61293	0.09943
765.68426	0.09947
763.75558	0.09931
761.82691	0.09903
759.89823	0.09876
757.96956	0.09852
756.04088	0.09816
754.11220	0.09769
752.18353	0.09715
750.25485	0.09653
748.32618	0.09587
746.39750	0.09523
744.46883	0.09454
742.54015	0.09375
740.61147	0.09298
738.68280	0.09248
736.75412	0.09228
734.82545	0.09225
732.89677	0.09232
730.96810	0.09240
729.03942	0.09243
727.11074	0.09249
725.18207	0.09257
723.25339	0.09265
721.32472	0.09277
719.39604	0.09299
717.46737	0.09329
715.53869	0.09364
713.61001	0.09395
711.68134	0.09424
709.75266	0.09448
707.82399	0.09458
705.89531	0.09450
703.96664	0.09426
702.03796	0.09392
700.10928	0.09347
698.18061	0.09294
696.25193	0.09237
694.32326	0.09174
692.39458	0.09111
690.46591	0.09058
688.53723	0.09005
686.60855	0.08946
684.67988	0.08886
682.75120	0.08828
680.82253	0.08768
678.89385	0.08706
676.96518	0.08643
675.03650	0.08571
673.10782	0.08483
671.17915	0.08378
669.25047	0.08274
667.32180	0.08188
665.39312	0.08096
663.46445	0.07968
661.53577	0.07815
659.60709	0.07669
657.67842	0.07552
655.74974	0.07466
653.82107	0.07407
651.89239	0.07366
649.96372	0.07321
648.03504	0.07262
646.10636	0.07189
644.17769	0.07106
642.24901	0.07018
640.32034	0.06926
638.39166	0.06831
636.46299	0.06729
634.53431	0.06616
632.60563	0.06473
630.67696	0.06256
628.74828	0.05930
626.81961	0.05515
624.89093	0.05092
622.96226	0.04759
621.03358	0.04555
619.10490	0.04445
617.17623	0.04368
615.24755	0.04284
613.31888	0.04180
611.39020	0.04073
609.46153	0.04011
607.53285	0.04011
605.60417	0.04037
603.67550	0.04074
601.74682	0.04134
599.81815	0.04219
597.88947	0.04306
595.96080	0.04370
594.03212	0.04411
592.10344	0.04436
590.17477	0.04439
588.24609	0.04420
586.31742	0.04392
584.38874	0.04368
582.46007	0.04346
580.53139	0.04314
578.60271	0.04271
576.67404	0.04217
574.74536	0.04157
572.81669	0.04095
570.88801	0.04034
568.95934	0.03978
567.03066	0.03932
565.10198	0.03897
563.17331	0.03866
561.24463	0.03834
559.31596	0.03805
557.38728	0.03783
555.45861	0.03759
553.52993	0.03735
551.60125	0.03720
549.67258	0.03708
547.74390	0.03689
545.81523	0.03667
543.88655	0.03651
541.95788	0.03636
540.02920	0.03614
538.10052	0.03587
536.17185	0.03561
534.24317	0.03534
532.31450	0.03504
530.38582	0.03473
528.45715	0.03445
526.52847	0.03417
524.59979	0.03380
522.67112	0.03334
520.74244	0.03277
518.81377	0.03204
516.88509	0.03124
514.95642	0.03055
513.02774	0.03010
511.09906	0.02977
509.17039	0.02937
507.24171	0.02884
505.31304	0.02822
503.38436	0.02759
501.45569	0.02707
499.52701	0.02653
497.59833	0.02579
495.66966	0.02491
493.74098	0.02410
491.81231	0.02338
489.88363	0.02254
487.95496	0.02151
486.02628	0.02051
484.09760	0.01966
482.16893	0.01883
480.24025	0.01799
478.31158	0.01722
476.38290	0.01646
474.45423	0.01566
472.52555	0.01487
470.59687	0.01416
468.66820	0.01355
466.73952	0.01307
464.81085	0.01272
462.88217	0.01245
460.95350	0.01220
459.02482	0.01198
457.09614	0.01181
455.16747	0.01172
453.23879	0.01171
451.31012	0.01175
449.38144	0.01179
447.45277	0.01178
445.52409	0.01170
443.59541	0.01160
441.66674	0.01153
439.73806	0.01150
437.80939	0.01148
435.88071	0.01145
433.95204	0.01143
432.02336	0.01139
430.09468	0.01134
428.16601	0.01123
426.23733	0.01094
424.30866	0.01062
422.37998	0.01038
420.45131	0.01014
418.52263	0.00988
416.59395	0.00969
414.66528	0.00952
412.73660	0.00933
410.80793	0.00914
408.87925	0.00888
406.95058	0.00842
405.02190	0.00791
403.09322	0.00756
401.16455	0.00727
399.23587	0.00689
397.30720	0.00641
395.37852	0.00600
393.44985	0.00573
391.52117	0.00550
389.59249	0.00517
387.66382	0.00477
385.73514	0.00449
383.80647	0.00433
381.87779	0.00413
379.94912	0.00379
378.02044	0.00345
376.09176	0.00314
374.16309	0.00279
372.23441	0.00249
370.30574	0.00235
368.37706	0.00222
