7496.76250	0.00121
7494.83382	0.00121
7492.90514	0.00119
7490.97647	0.00118
7489.04779	0.00118
7487.11912	0.00119
7485.19044	0.00120
7483.26177	0.00121
7481.33309	0.00121
7479.40441	0.00122
7477.47574	0.00122
7475.54706	0.00123
7473.61839	0.00123
7471.68971	0.00123
7469.76104	0.00123
7467.83236	0.00121
7465.90368	0.00121
7463.97501	0.00122
7462.04633	0.00125
7460.11766	0.00125
7458.18898	0.00124
7456.26031	0.00124
7454.33163	0.00125
7452.40295	0.00126
7450.47428	0.00128
7448.54560	0.00129
7446.61693	0.00130
7444.68825	0.00131
7442.75958	0.00130
7440.83090	0.00130
7438.90222	0.00131
7436.97355	0.00132
7435.04487	0.00132
7433.11620	0.00131
7431.18752	0.00131
7429.25885	0.00131
7427.33017	0.00132
7425.40149	0.00132
7423.47282	0.00133
7421.54414	0.00134
7419.61547	0.00135
7417.68679	0.00136
7415.75812	0.00136
7413.82944	0.00136
7411.90076	0.00136
7409.97209	0.00137
7408.04341	0.00136
7406.11474	0.00135
7404.18606	0.00136
7402.25739	0.00137
7400.32871	0.00136
7398.40003	0.00136
7396.47136	0.00136
7394.54268	0.00135
7392.61401	0.00136
7390.68533	0.00137
7388.75666	0.00140
7386.82798	0.00141
7384.89930	0.00140
7382.97063	0.00139
7381.04195	0.00141
7379.11328	0.00143
7377.18460	0.00141
7375.25593	0.00140
7373.32725	0.00141
7371.39857	0.00145
7369.46990	0.00146
7367.54122	0.00146
7365.61255	0.00145
7363.68387	0.00145
7361.75520	0.00146
7359.82652	0.00146
7357.89784	0.00146
7355.96917	0.00146
7354.04049	0.00146
7352.11182	0.00148
7350.18314	0.00148
7348.25447	0.00148
7346.32579	0.00148
7344.39711	0.00149
7342.46844	0.00149
7340.53976	0.00149
7338.61109	0.00149
7336.68241	0.00149
7334.75374	0.00150
7332.82506	0.00152
7330.89638	0.00153
7328.96771	0.00152
7327.03903	0.00151
7325.11036	0.00152
7323.18168	0.00153
7321.25301	0.00153
7319.32433	0.00153
7317.39565	0.00153
7315.46698	0.00155
7313.53830	0.00155
7311.60963	0.00155
7309.68095	0.00155
7307.75228	0.00156
7305.82360	0.00156
7303.89492	0.00157
7301.96625	0.00157
7300.03757	0.00158
7298.10890	0.00159
7296.18022	0.00159
7294.25155	0.00159
7292.32287	0.00160
7290.39419	0.00161
7288.46552	0.00162
7286.53684	0.00161
7284.60817	0.00159
7282.67949	0.00159
7280.75082	0.00160
7278.82214	0.00162
7276.89346	0.00162
7274.96479	0.00162
7273.03611	0.00164
7271.10744	0.00167
7269.17876	0.00167
7267.25009	0.00166
7265.32141	0.00164
7263.39273	0.00164
7261.46406	0.00165
7259.53538	0.00166
7257.60671	0.00167
7255.67803	0.00168
7253.74936	0.00170
7251.82068	0.00170
7249.89200	0.00170
7247.96333	0.00171
7246.03465	0.00172
7244.10598	0.00172
7242.17730	0.00170
7240.24863	0.00168
7238.31995	0.00168
7236.39127	0.00169
7234.46260	0.00171
7232.53392	0.00173
7230.60525	0.00174
7228.67657	0.00174
7226.74790	0.00174
7224.81922	0.00174
7222.89054	0.00175
7220.96187	0.00177
7219.03319	0.00178
7217.10452	0.00177
7215.17584	0.00177
7213.24717	0.00177
7211.31849	0.00178
7209.38981	0.00177
7207.46114	0.00178
7205.53246	0.00179
7203.60379	0.00180
7201.67511	0.00180
7199.74644	0.00180
7197.81776	0.00180
7195.88908	0.00180
7193.96041	0.00181
7192.03173	0.00182
7190.10306	0.00181
7188.17438	0.00181
7186.24571	0.00181
7184.31703	0.00181
7182.38835	0.00182
7180.45968	0.00183
7178.53100	0.00184
7176.60233	0.00185
7174.67365	0.00186
7172.74498	0.00187
7170.81630	0.00188
7168.88762	0.00188
7166.95895	0.00188
7165.03027	0.00189
7163.10160	0.00190
7161.17292	0.00189
7159.24425	0.00188
7157.31557	0.00188
7155.38689	0.00190
7153.45822	0.00192
7151.52954	0.00194
7149.60087	0.00194
7147.67219	0.00194
7145.74352	0.00194
7143.81484	0.00195
7141.88616	0.00195
7139.95749	0.00196
7138.02881	0.00195
7136.10014	0.00194
7134.17146	0.00195
7132.24279	0.00196
7130.31411	0.00196
7128.38543	0.00196
7126.45676	0.00197
7124.52808	0.00199
7122.59941	0.00200
7120.67073	0.00200
7118.74206	0.00199
7116.81338	0.00200
7114.88470	0.00201
7112.95603	0.00202
7111.02735	0.00202
7109.09868	0.00203
7107.17000	0.00203
7105.24133	0.00202
7103.31265	0.00202
7101.38397	0.00202
7099.45530	0.00203
7097.52662	0.00204
7095.59795	0.00204
7093.66927	0.00206
7091.74060	0.00207
7089.81192	0.00207
7087.88324	0.00207
7085.95457	0.00209
7084.02589	0.00211
7082.09722	0.00211
7080.16854	0.00209
7078.23987	0.00207
7076.31119	0.00207
7074.38251	0.00209
7072.45384	0.00211
7070.52516	0.00213
7068.59649	0.00215
7066.66781	0.00215
7064.73914	0.00214
7062.81046	0.00212
7060.88178	0.00213
7058.95311	0.00216
7057.02443	0.00218
7055.09576	0.00218
7053.16708	0.00218
7051.23841	0.00217
7049.30973	0.00217
7047.38105	0.00218
7045.45238	0.00219
7043.52370	0.00219
7041.59503	0.00219
7039.66635	0.00219
7037.73768	0.00221
7035.80900	0.00222
7033.88032	0.00224
7031.95165	0.00225
7030.02297	0.00224
7028.09430	0.00222
7026.16562	0.00223
7024.23695	0.00225
7022.30827	0.00226
7020.37959	0.00226
7018.45092	0.00227
7016.52224	0.00228
7014.59357	0.00228
7012.66489	0.00227
7010.73622	0.00228
7008.80754	0.00229
7006.87886	0.00231
7004.95019	0.00231
7003.02151	0.00231
7001.09284	0.00230
6999.16416	0.00230
6997.23549	0.00232
6995.30681	0.00234
6993.37813	0.00234
6991.44946	0.00234
6989.52078	0.00235
6987.59211	0.00236
6985.66343	0.00237
6983.73476	0.00237
6981.80608	0.00237
6979.87740	0.00237
6977.94873	0.00238
6976.02005	0.00238
6974.09138	0.00239
6972.16270	0.00241
6970.23403	0.00243
6968.30535	0.00243
6966.37667	0.00243
6964.44800	0.00244
6962.51932	0.00244
6960.59065	0.00244
6958.66197	0.00243
6956.73330	0.00243
6954.80462	0.00245
6952.87594	0.00247
6950.94727	0.00248
6949.01859	0.00248
6947.08992	0.00249
6945.16124	0.00250
6943.23257	0.00249
6941.30389	0.00250
6939.37521	0.00250
6937.44654	0.00250
6935.51786	0.00251
6933.58919	0.00253
6931.66051	0.00253
6929.73184	0.00253
6927.80316	0.00255
6925.87448	0.00258
6923.94581	0.00260
6922.01713	0.00260
6920.08846	0.00258
6918.15978	0.00257
6916.23111	0.00257
6914.30243	0.00258
6912.37375	0.00259
6910.44508	0.00260
6908.51640	0.00260
6906.58773	0.00260
6904.65905	0.00260
6902.73038	0.00261
6900.80170	0.00263
6898.87302	0.00265
6896.94435	0.00266
6895.01567	0.00267
6893.08700	0.00269
6891.15832	0.00271
6889.22965	0.00270
6887.30097	0.00268
6885.37229	0.00267
6883.44362	0.00267
6881.51494	0.00267
6879.58627	0.00268
6877.65759	0.00271
6875.72892	0.00275
6873.80024	0.00277
6871.87156	0.00276
6869.94289	0.00276
6868.01421	0.00275
6866.08554	0.00276
6864.15686	0.00278
6862.22819	0.00278
6860.29951	0.00278
6858.37083	0.00278
6856.44216	0.00278
6854.51348	0.00279
6852.58481	0.00280
6850.65613	0.00282
6848.72746	0.00284
6846.79878	0.00286
6844.87010	0.00286
6842.94143	0.00286
6841.01275	0.00287
6839.08408	0.00287
6837.15540	0.00287
6835.22673	0.00288
6833.29805	0.00289
6831.36937	0.00290
6829.44070	0.00290
6827.51202	0.00290
6825.58335	0.00289
6823.65467	0.00289
6821.72600	0.00289
6819.79732	0.00291
6817.86864	0.00293
6815.93997	0.00294
6814.01129	0.00294
6812.08262	0.00295
6810.15394	0.00297
6808.22527	0.00299
6806.29659	0.00300
6804.36791	0.00301
6802.43924	0.00300
6800.51056	0.00299
6798.58189	0.00299
6796.65321	0.00300
6794.72454	0.00302
6792.79586	0.00304
6790.86718	0.00304
6788.93851	0.00304
6787.00983	0.00303
6785.08116	0.00303
6783.15248	0.00305
6781.22381	0.00307
6779.29513	0.00308
6777.36645	0.00307
6775.43778	0.00306
6773.50910	0.00307
6771.58043	0.00309
6769.65175	0.00313
6767.72308	0.00314
6765.79440	0.00312
6763.86572	0.00311
6761.93705	0.00312
6760.00837	0.00313
6758.07970	0.00315
6756.15102	0.00316
6754.22235	0.00317
6752.29367	0.00318
6750.36499	0.00318
6748.43632	0.00319
6746.50764	0.00321
6744.57897	0.00323
6742.65029	0.00324
6740.72162	0.00324
6738.79294	0.00324
6736.86426	0.00324
6734.93559	0.00325
6733.00691	0.00326
6731.07824	0.00326
6729.14956	0.00326
6727.22089	0.00327
6725.29221	0.00328
6723.36353	0.00330
6721.43486	0.00331
6719.50618	0.00332
6717.57751	0.00334
6715.64883	0.00335
6713.72016	0.00334
6711.79148	0.00333
6709.86280	0.00334
6707.93413	0.00335
6706.00545	0.00338
6704.07678	0.00339
6702.14810	0.00340
6700.21943	0.00340
6698.29075	0.00340
6696.36207	0.00341
6694.43340	0.00341
6692.50472	0.00343
6690.57605	0.00345
6688.64737	0.00347
6686.71870	0.00348
6684.79002	0.00347
6682.86134	0.00347
6680.93267	0.00348
6679.00399	0.00349
6677.07532	0.00350
6675.14664	0.00350
6673.21797	0.00351
6671.28929	0.00352
6669.36061	0.00355
6667.43194	0.00356
6665.50326	0.00356
6663.57459	0.00356
6661.64591	0.00356
6659.71724	0.00356
6657.78856	0.00357
6655.85988	0.00359
6653.93121	0.00360
6652.00253	0.00360
6650.07386	0.00360
6648.14518	0.00361
6646.21651	0.00362
6644.28783	0.00362
6642.35915	0.00362
6640.43048	0.00363
6638.50180	0.00364
6636.57313	0.00365
6634.64445	0.00366
6632.71578	0.00369
6630.78710	0.00371
6628.85842	0.00372
6626.92975	0.00374
6625.00107	0.00375
6623.07240	0.00375
6621.14372	0.00376
6619.21505	0.00378
6617.28637	0.00380
6615.35769	0.00380
6613.42902	0.00380
6611.50034	0.00380
6609.57167	0.00380
6607.64299	0.00381
6605.71432	0.00384
6603.78564	0.00385
6601.85696	0.00385
6599.92829	0.00385
6597.99961	0.00386
6596.07094	0.00387
6594.14226	0.00388
6592.21359	0.00388
6590.28491	0.00389
6588.35623	0.00392
6586.42756	0.00393
6584.49888	0.00393
6582.57021	0.00394
6580.64153	0.00395
6578.71286	0.00396
6576.78418	0.00397
6574.85550	0.00396
6572.92683	0.00396
6570.99815	0.00397
6569.06948	0.00400
6567.14080	0.00402
6565.21213	0.00403
6563.28345	0.00402
6561.35477	0.00403
6559.42610	0.00405
6557.49742	0.00407
6555.56875	0.00408
6553.64007	0.00409
6551.71140	0.00409
6549.78272	0.00408
6547.85404	0.00408
6545.92537	0.00410
6543.99669	0.00412
6542.06802	0.00414
6540.13934	0.00416
6538.21067	0.00417
6536.28199	0.00419
6534.35331	0.00420
6532.42464	0.00421
6530.49596	0.00420
6528.56729	0.00421
6526.63861	0.00422
6524.70994	0.00423
6522.78126	0.00424
6520.85258	0.00424
6518.92391	0.00424
6516.99523	0.00424
6515.06656	0.00425
6513.13788	0.00426
6511.20921	0.00428
6509.28053	0.00429
6507.35185	0.00430
6505.42318	0.00431
6503.49450	0.00433
6501.56583	0.00436
6499.63715	0.00437
6497.70848	0.00438
6495.77980	0.00438
6493.85112	0.00439
6491.92245	0.00439
6489.99377	0.00441
6488.06510	0.00442
6486.13642	0.00442
6484.20775	0.00444
6482.27907	0.00447
6480.35039	0.00450
6478.42172	0.00449
6476.49304	0.00448
6474.56437	0.00449
6472.63569	0.00449
6470.70702	0.00450
6468.77834	0.00451
6466.84966	0.00453
6464.92099	0.00454
6462.99231	0.00454
6461.06364	0.00455
6459.13496	0.00457
6457.20629	0.00460
6455.27761	0.00461
6453.34893	0.00463
6451.42026	0.00463
6449.49158	0.00463
6447.56291	0.00462
6445.63423	0.00463
6443.70556	0.00466
6441.77688	0.00467
6439.84820	0.00468
6437.91953	0.00466
6435.99085	0.00465
6434.06218	0.00467
6432.13350	0.00470
6430.20483	0.00472
6428.27615	0.00474
6426.34747	0.00476
6424.41880	0.00477
6422.49012	0.00477
6420.56145	0.00478
6418.63277	0.00480
6416.70410	0.00481
6414.77542	0.00482
6412.84674	0.00483
6410.91807	0.00485
6408.98939	0.00487
6407.06072	0.00489
6405.13204	0.00490
6403.20337	0.00491
6401.27469	0.00493
6399.34601	0.00495
6397.41734	0.00495
6395.48866	0.00495
6393.55999	0.00495
6391.63131	0.00497
6389.70264	0.00499
6387.77396	0.00500
6385.84528	0.00501
6383.91661	0.00502
6381.98793	0.00504
6380.05926	0.00505
6378.13058	0.00507
6376.20191	0.00507
6374.27323	0.00507
6372.34455	0.00506
6370.41588	0.00507
6368.48720	0.00510
6366.55853	0.00511
6364.62985	0.00511
6362.70118	0.00511
6360.77250	0.00512
6358.84382	0.00514
6356.91515	0.00517
6354.98647	0.00519
6353.05780	0.00520
6351.12912	0.00521
6349.20045	0.00522
6347.27177	0.00524
6345.34309	0.00525
6343.41442	0.00525
6341.48574	0.00527
6339.55707	0.00531
6337.62839	0.00533
6335.69972	0.00533
6333.77104	0.00533
6331.84236	0.00534
6329.91369	0.00535
6327.98501	0.00536
6326.05634	0.00538
6324.12766	0.00540
6322.19899	0.00541
6320.27031	0.00542
6318.34163	0.00543
6316.41296	0.00546
6314.48428	0.00549
6312.55561	0.00548
6310.62693	0.00547
6308.69826	0.00547
6306.76958	0.00548
6304.84090	0.00551
6302.91223	0.00553
6300.98355	0.00553
6299.05488	0.00553
6297.12620	0.00553
6295.19753	0.00556
6293.26885	0.00559
6291.34017	0.00562
6289.41150	0.00563
6287.48282	0.00564
6285.55415	0.00565
6283.62547	0.00565
6281.69680	0.00567
6279.76812	0.00569
6277.83944	0.00571
6275.91077	0.00572
6273.98209	0.00574
6272.05342	0.00575
6270.12474	0.00575
6268.19607	0.00576
6266.26739	0.00580
6264.33871	0.00583
6262.41004	0.00583
6260.48136	0.00583
6258.55269	0.00585
6256.62401	0.00588
6254.69534	0.00590
6252.76666	0.00589
6250.83798	0.00589
6248.90931	0.00590
6246.98063	0.00591
6245.05196	0.00592
6243.12328	0.00595
6241.19461	0.00597
6239.26593	0.00597
6237.33725	0.00597
6235.40858	0.00597
6233.47990	0.00599
6231.55123	0.00601
6229.62255	0.00603
6227.69388	0.00605
6225.76520	0.00606
6223.83652	0.00605
6221.90785	0.00605
6219.97917	0.00608
6218.05050	0.00611
6216.12182	0.00613
6214.19315	0.00614
6212.26447	0.00615
6210.33579	0.00617
6208.40712	0.00618
6206.47844	0.00619
6204.54977	0.00621
6202.62109	0.00623
6200.69242	0.00625
6198.76374	0.00627
6196.83506	0.00629
6194.90639	0.00630
6192.97771	0.00629
6191.04904	0.00630
6189.12036	0.00630
6187.19169	0.00630
6185.26301	0.00630
6183.33433	0.00633
6181.40566	0.00637
6179.47698	0.00641
6177.54831	0.00643
6175.61963	0.00644
6173.69096	0.00645
6171.76228	0.00646
6169.83360	0.00646
6167.90493	0.00646
6165.97625	0.00647
6164.04758	0.00650
6162.11890	0.00653
6160.19023	0.00655
6158.26155	0.00655
6156.33287	0.00656
6154.40420	0.00658
6152.47552	0.00659
6150.54685	0.00659
6148.61817	0.00659
6146.68950	0.00660
6144.76082	0.00663
6142.83214	0.00666
6140.90347	0.00671
6138.97479	0.00674
6137.04612	0.00676
6135.11744	0.00678
6133.18877	0.00678
6131.26009	0.00677
6129.33141	0.00677
6127.40274	0.00678
6125.47406	0.00678
6123.54539	0.00678
6121.61671	0.00678
6119.68804	0.00681
6117.75936	0.00683
6115.83068	0.00685
6113.90201	0.00688
6111.97333	0.00692
6110.04466	0.00694
6108.11598	0.00694
6106.18731	0.00696
6104.25863	0.00698
6102.32995	0.00700
6100.40128	0.00700
6098.47260	0.00701
6096.54393	0.00703
6094.61525	0.00706
6092.68658	0.00708
6090.75790	0.00709
6088.82922	0.00710
6086.90055	0.00711
6084.97187	0.00712
6083.04320	0.00714
6081.11452	0.00716
6079.18585	0.00718
6077.25717	0.00721
6075.32849	0.00722
6073.39982	0.00724
6071.47114	0.00726
6069.54247	0.00727
6067.61379	0.00728
6065.68512	0.00729
6063.75644	0.00730
6061.82776	0.00732
6059.89909	0.00735
6057.97041	0.00736
6056.04174	0.00736
6054.11306	0.00737
6052.18439	0.00739
6050.25571	0.00741
6048.32703	0.00743
6046.39836	0.00745
6044.46968	0.00746
6042.54101	0.00746
6040.61233	0.00747
6038.68366	0.00749
6036.75498	0.00754
6034.82630	0.00757
6032.89763	0.00758
6030.96895	0.00758
6029.04028	0.00759
6027.11160	0.00762
6025.18293	0.00764
6023.25425	0.00764
6021.32557	0.00765
6019.39690	0.00767
6017.46822	0.00769
6015.53955	0.00770
6013.61087	0.00770
6011.68220	0.00771
6009.75352	0.00773
6007.82484	0.00775
6005.89617	0.00777
6003.96749	0.00778
6002.03882	0.00779
6000.11014	0.00781
5998.18147	0.00783
5996.25279	0.00785
5994.32411	0.00787
5992.39544	0.00791
5990.46676	0.00794
5988.53809	0.00796
5986.60941	0.00797
5984.68074	0.00797
5982.75206	0.00797
5980.82338	0.00798
5978.89471	0.00801
5976.96603	0.00804
5975.03736	0.00806
5973.10868	0.00807
5971.18001	0.00809
5969.25133	0.00810
5967.32265	0.00811
5965.39398	0.00812
5963.46530	0.00815
5961.53663	0.00816
5959.60795	0.00816
5957.67928	0.00818
5955.75060	0.00820
5953.82192	0.00823
5951.89325	0.00826
5949.96457	0.00830
5948.03590	0.00831
5946.10722	0.00831
5944.17855	0.00832
5942.24987	0.00835
5940.32119	0.00839
5938.39252	0.00841
5936.46384	0.00841
5934.53517	0.00841
5932.60649	0.00841
5930.67782	0.00842
5928.74914	0.00845
5926.82046	0.00847
5924.89179	0.00849
5922.96311	0.00851
5921.03444	0.00853
5919.10576	0.00855
5917.17709	0.00857
5915.24841	0.00859
5913.31973	0.00861
5911.39106	0.00862
5909.46238	0.00862
5907.53371	0.00862
5905.60503	0.00864
5903.67636	0.00868
5901.74768	0.00870
5899.81900	0.00871
5897.89033	0.00873
5895.96165	0.00876
5894.03298	0.00878
5892.10430	0.00881
5890.17563	0.00883
5888.24695	0.00884
5886.31827	0.00886
5884.38960	0.00887
5882.46092	0.00888
5880.53225	0.00890
5878.60357	0.00894
5876.67490	0.00896
5874.74622	0.00898
5872.81755	0.00900
5870.88887	0.00902
5868.96019	0.00903
5867.03152	0.00903
5865.10284	0.00906
5863.17417	0.00909
5861.24549	0.00911
5859.31682	0.00912
5857.38814	0.00913
5855.45946	0.00914
5853.53079	0.00917
5851.60211	0.00921
5849.67344	0.00923
5847.74476	0.00923
5845.81609	0.00923
5843.88741	0.00924
5841.95873	0.00926
5840.03006	0.00929
5838.10138	0.00932
5836.17271	0.00935
5834.24403	0.00936
5832.31536	0.00937
5830.38668	0.00938
5828.45800	0.00941
5826.52933	0.00943
5824.60065	0.00945
5822.67198	0.00947
5820.74330	0.00948
5818.81463	0.00949
5816.88595	0.00950
5814.95727	0.00952
5813.02860	0.00954
5811.09992	0.00956
5809.17125	0.00958
5807.24257	0.00961
5805.31390	0.00964
5803.38522	0.00966
5801.45654	0.00968
5799.52787	0.00969
5797.59919	0.00970
5795.67052	0.00971
5793.74184	0.00973
5791.81317	0.00975
5789.88449	0.00978
5787.95581	0.00981
5786.02714	0.00981
5784.09846	0.00983
5782.16979	0.00986
5780.24111	0.00989
5778.31244	0.00990
5776.38376	0.00992
5774.45508	0.00994
5772.52641	0.00995
5770.59773	0.00995
5768.66906	0.00996
5766.74038	0.00999
5764.81171	0.01003
5762.88303	0.01007
5760.95435	0.01008
5759.02568	0.01009
5757.09700	0.01011
5755.16833	0.01014
5753.23965	0.01015
5751.31098	0.01017
5749.38230	0.01018
5747.45362	0.01019
5745.52495	0.01021
5743.59627	0.01022
5741.66760	0.01024
5739.73892	0.01027
5737.81025	0.01029
5735.88157	0.01031
5733.95289	0.01033
5732.02422	0.01035
5730.09554	0.01038
5728.16687	0.01039
5726.23819	0.01040
5724.30952	0.01041
5722.38084	0.01044
5720.45216	0.01048
5718.52349	0.01051
5716.59481	0.01052
5714.66614	0.01053
5712.73746	0.01053
5710.80879	0.01055
5708.88011	0.01058
5706.95143	0.01061
5705.02276	0.01063
5703.09408	0.01065
5701.16541	0.01066
5699.23673	0.01067
5697.30806	0.01069
5695.37938	0.01071
5693.45070	0.01072
5691.52203	0.01073
5689.59335	0.01075
5687.66468	0.01078
5685.73600	0.01080
5683.80733	0.01083
5681.87865	0.01087
5679.94997	0.01090
5678.02130	0.01091
5676.09262	0.01091
5674.16395	0.01094
5672.23527	0.01097
5670.30660	0.01099
5668.37792	0.01099
5666.44924	0.01100
5664.52057	0.01102
5662.59189	0.01105
5660.66322	0.01108
5658.73454	0.01109
5656.80587	0.01111
5654.87719	0.01113
5652.94851	0.01115
5651.01984	0.01117
5649.09116	0.01119
5647.16249	0.01121
5645.23381	0.01124
5643.30514	0.01127
5641.37646	0.01128
5639.44778	0.01130
5637.51911	0.01133
5635.59043	0.01135
5633.66176	0.01136
5631.73308	0.01138
5629.80441	0.01139
5627.87573	0.01142
5625.94705	0.01145
5624.01838	0.01147
5622.08970	0.01148
5620.16103	0.01149
5618.23235	0.01150
5616.30368	0.01152
5614.37500	0.01155
5612.44632	0.01158
5610.51765	0.01161
5608.58897	0.01163
5606.66030	0.01164
5604.73162	0.01167
5602.80295	0.01170
5600.87427	0.01172
5598.94559	0.01173
5597.01692	0.01175
5595.08824	0.01176
5593.15957	0.01179
5591.23089	0.01183
5589.30222	0.01186
5587.37354	0.01188
5585.44486	0.01189
5583.51619	0.01189
5581.58751	0.01190
5579.65884	0.01193
5577.73016	0.01195
5575.80149	0.01196
5573.87281	0.01199
5571.94413	0.01202
5570.01546	0.01203
5568.08678	0.01204
5566.15811	0.01207
5564.22943	0.01210
5562.30076	0.01213
5560.37208	0.01217
5558.44340	0.01220
5556.51473	0.01223
5554.58605	0.01224
5552.65738	0.01225
5550.72870	0.01226
5548.80003	0.01228
5546.87135	0.01230
5544.94267	0.01233
5543.01400	0.01234
5541.08532	0.01234
5539.15665	0.01237
5537.22797	0.01241
5535.29930	0.01244
5533.37062	0.01246
5531.44194	0.01247
5529.51327	0.01248
5527.58459	0.01249
5525.65592	0.01251
5523.72724	0.01252
5521.79857	0.01254
5519.86989	0.01258
5517.94121	0.01262
5516.01254	0.01265
5514.08386	0.01266
5512.15519	0.01267
5510.22651	0.01268
5508.29784	0.01269
5506.36916	0.01272
5504.44048	0.01275
5502.51181	0.01277
5500.58313	0.01279
5498.65446	0.01282
5496.72578	0.01285
5494.79711	0.01288
5492.86843	0.01289
5490.93975	0.01289
5489.01108	0.01291
5487.08240	0.01294
5485.15373	0.01296
5483.22505	0.01297
5481.29638	0.01298
5479.36770	0.01301
5477.43902	0.01305
5475.51035	0.01306
5473.58167	0.01308
5471.65300	0.01312
5469.72432	0.01313
5467.79565	0.01313
5465.86697	0.01314
5463.93829	0.01317
5462.00962	0.01320
5460.08094	0.01323
5458.15227	0.01325
5456.22359	0.01326
5454.29492	0.01327
5452.36624	0.01328
5450.43756	0.01332
5448.50889	0.01334
5446.58021	0.01336
5444.65154	0.01339
5442.72286	0.01343
5440.79419	0.01346
5438.86551	0.01348
5436.93683	0.01347
5435.00816	0.01346
5433.07948	0.01348
5431.15081	0.01353
5429.22213	0.01357
5427.29346	0.01361
5425.36478	0.01364
5423.43610	0.01366
5421.50743	0.01367
5419.57875	0.01369
5417.65008	0.01372
5415.72140	0.01374
5413.79273	0.01376
5411.86405	0.01378
5409.93537	0.01382
5408.00670	0.01386
5406.07802	0.01387
5404.14935	0.01386
5402.22067	0.01386
5400.29200	0.01390
5398.36332	0.01393
5396.43464	0.01394
5394.50597	0.01395
5392.57729	0.01398
5390.64862	0.01402
5388.71994	0.01403
5386.79127	0.01404
5384.86259	0.01406
5382.93391	0.01410
5381.00524	0.01413
5379.07656	0.01416
5377.14789	0.01417
5375.21921	0.01418
5373.29054	0.01420
5371.36186	0.01423
5369.43318	0.01428
5367.50451	0.01429
5365.57583	0.01427
5363.64716	0.01428
5361.71848	0.01432
5359.78981	0.01436
5357.86113	0.01438
5355.93245	0.01439
5354.00378	0.01442
5352.07510	0.01446
5350.14643	0.01449
5348.21775	0.01450
5346.28908	0.01451
5344.36040	0.01453
5342.43172	0.01457
5340.50305	0.01458
5338.57437	0.01458
5336.64570	0.01459
5334.71702	0.01463
5332.78835	0.01468
5330.85967	0.01472
5328.93099	0.01473
5327.00232	0.01473
5325.07364	0.01476
5323.14497	0.01478
5321.21629	0.01480
5319.28762	0.01482
5317.35894	0.01484
5315.43026	0.01486
5313.50159	0.01489
5311.57291	0.01490
5309.64424	0.01491
5307.71556	0.01493
5305.78689	0.01495
5303.85821	0.01497
5301.92953	0.01500
5300.00086	0.01502
5298.07218	0.01504
5296.14351	0.01507
5294.21483	0.01510
5292.28616	0.01511
5290.35748	0.01512
5288.42880	0.01515
5286.50013	0.01519
5284.57145	0.01522
5282.64278	0.01522
5280.71410	0.01524
5278.78543	0.01527
5276.85675	0.01529
5274.92807	0.01529
5272.99940	0.01532
5271.07072	0.01536
5269.14205	0.01540
5267.21337	0.01541
5265.28470	0.01540
5263.35602	0.01540
5261.42734	0.01543
5259.49867	0.01547
5257.56999	0.01548
5255.64132	0.01550
5253.71264	0.01554
5251.78397	0.01557
5249.85529	0.01559
5247.92661	0.01562
5245.99794	0.01565
5244.06926	0.01567
5242.14059	0.01569
5240.21191	0.01572
5238.28324	0.01576
5236.35456	0.01580
5234.42588	0.01581
5232.49721	0.01582
5230.56853	0.01583
5228.63986	0.01584
5226.71118	0.01585
5224.78251	0.01587
5222.85383	0.01591
5220.92515	0.01596
5218.99648	0.01601
5217.06780	0.01604
5215.13913	0.01604
5213.21045	0.01604
5211.28178	0.01604
5209.35310	0.01605
5207.42442	0.01608
5205.49575	0.01611
5203.56707	0.01614
5201.63840	0.01616
5199.70972	0.01616
5197.78105	0.01618
5195.85237	0.01624
5193.92369	0.01630
5191.99502	0.01632
5190.06634	0.01631
5188.13767	0.01631
5186.20899	0.01632
5184.28032	0.01635
5182.35164	0.01639
5180.42296	0.01641
5178.49429	0.01642
5176.56561	0.01642
5174.63694	0.01645
5172.70826	0.01649
5170.77959	0.01652
5168.85091	0.01653
5166.92223	0.01656
5164.99356	0.01660
5163.06488	0.01664
5161.13621	0.01665
5159.20753	0.01666
5157.27886	0.01667
5155.35018	0.01669
5153.42150	0.01670
5151.49283	0.01672
5149.56415	0.01675
5147.63548	0.01677
5145.70680	0.01679
5143.77813	0.01682
5141.84945	0.01685
5139.92077	0.01688
5137.99210	0.01691
5136.06342	0.01695
5134.13475	0.01697
5132.20607	0.01699
5130.27740	0.01701
5128.34872	0.01704
5126.42004	0.01706
5124.49137	0.01707
5122.56269	0.01706
5120.63402	0.01708
5118.70534	0.01711
5116.77667	0.01714
5114.84799	0.01716
5112.91931	0.01719
5110.99064	0.01721
5109.06196	0.01724
5107.13329	0.01727
5105.20461	0.01729
5103.27594	0.01730
5101.34726	0.01730
5099.41858	0.01731
5097.48991	0.01735
5095.56123	0.01740
5093.63256	0.01744
5091.70388	0.01746
5089.77521	0.01748
5087.84653	0.01751
5085.91785	0.01753
5083.98918	0.01754
5082.06050	0.01755
5080.13183	0.01758
5078.20315	0.01762
5076.27448	0.01766
5074.34580	0.01767
5072.41712	0.01768
5070.48845	0.01770
5068.55977	0.01774
5066.63110	0.01777
5064.70242	0.01780
5062.77375	0.01781
5060.84507	0.01783
5058.91639	0.01785
5056.98772	0.01785
5055.05904	0.01785
5053.13037	0.01787
5051.20169	0.01790
5049.27302	0.01795
5047.34434	0.01799
5045.41566	0.01802
5043.48699	0.01804
5041.55831	0.01806
5039.62964	0.01807
5037.70096	0.01809
5035.77229	0.01812
5033.84361	0.01816
5031.91493	0.01818
5029.98626	0.01819
5028.05758	0.01821
5026.12891	0.01823
5024.20023	0.01825
5022.27156	0.01827
5020.34288	0.01828
5018.41420	0.01829
5016.48553	0.01832
5014.55685	0.01835
5012.62818	0.01837
5010.69950	0.01840
5008.77083	0.01845
5006.84215	0.01849
5004.91347	0.01851
5002.98480	0.01850
5001.05612	0.01850
4999.12745	0.01853
4997.19877	0.01858
4995.27010	0.01861
4993.34142	0.01864
4991.41274	0.01869
4989.48407	0.01872
4987.55539	0.01872
4985.62672	0.01872
4983.69804	0.01872
4981.76937	0.01874
4979.84069	0.01877
4977.91201	0.01880
4975.98334	0.01882
4974.05466	0.01884
4972.12599	0.01888
4970.19731	0.01891
4968.26864	0.01894
4966.33996	0.01896
4964.41128	0.01897
4962.48261	0.01901
4960.55393	0.01904
4958.62526	0.01904
4956.69658	0.01902
4954.76791	0.01903
4952.83923	0.01908
4950.91055	0.01911
4948.98188	0.01913
4947.05320	0.01916
4945.12453	0.01920
4943.19585	0.01922
4941.26718	0.01923
4939.33850	0.01924
4937.40982	0.01927
4935.48115	0.01931
4933.55247	0.01934
4931.62380	0.01937
4929.69512	0.01939
4927.76645	0.01941
4925.83777	0.01943
4923.90909	0.01948
4921.98042	0.01954
4920.05174	0.01957
4918.12307	0.01957
4916.19439	0.01956
4914.26572	0.01958
4912.33704	0.01961
4910.40836	0.01964
4908.47969	0.01967
4906.55101	0.01969
4904.62234	0.01972
4902.69366	0.01974
4900.76499	0.01976
4898.83631	0.01978
4896.90763	0.01980
4894.97896	0.01981
4893.05028	0.01985
4891.12161	0.01990
4889.19293	0.01992
4887.26426	0.01994
4885.33558	0.01995
4883.40690	0.01998
4881.47823	0.02000
4879.54955	0.02003
4877.62088	0.02005
4875.69220	0.02007
4873.76353	0.02010
4871.83485	0.02014
4869.90617	0.02017
4867.97750	0.02017
4866.04882	0.02017
4864.12015	0.02019
4862.19147	0.02023
4860.26280	0.02028
4858.33412	0.02031
4856.40544	0.02034
4854.47677	0.02036
4852.54809	0.02039
4850.61942	0.02041
4848.69074	0.02044
4846.76207	0.02047
4844.83339	0.02048
4842.90471	0.02049
4840.97604	0.02052
4839.04736	0.02055
4837.11869	0.02057
4835.19001	0.02061
4833.26134	0.02064
4831.33266	0.02068
4829.40398	0.02070
4827.47531	0.02071
4825.54663	0.02073
4823.61796	0.02075
4821.68928	0.02078
4819.76061	0.02081
4817.83193	0.02084
4815.90325	0.02087
4813.97458	0.02089
4812.04590	0.02089
4810.11723	0.02090
4808.18855	0.02094
4806.25988	0.02101
4804.33120	0.02108
4802.40252	0.02111
4800.47385	0.02112
4798.54517	0.02112
4796.61650	0.02112
4794.68782	0.02112
4792.75915	0.02113
4790.83047	0.02114
4788.90179	0.02117
4786.97312	0.02123
4785.04444	0.02129
4783.11577	0.02134
4781.18709	0.02136
4779.25842	0.02139
4777.32974	0.02141
4775.40106	0.02143
4773.47239	0.02145
4771.54371	0.02148
4769.61504	0.02152
4767.68636	0.02154
4765.75769	0.02156
4763.82901	0.02159
4761.90033	0.02161
4759.97166	0.02161
4758.04298	0.02161
4756.11431	0.02164
4754.18563	0.02171
4752.25696	0.02176
4750.32828	0.02176
4748.39960	0.02177
4746.47093	0.02180
4744.54225	0.02183
4742.61358	0.02186
4740.68490	0.02189
4738.75623	0.02192
4736.82755	0.02195
4734.89887	0.02199
4732.97020	0.02203
4731.04152	0.02206
4729.11285	0.02208
4727.18417	0.02210
4725.25550	0.02212
4723.32682	0.02216
4721.39814	0.02219
4719.46947	0.02221
4717.54079	0.02222
4715.61212	0.02223
4713.68344	0.02227
4711.75477	0.02232
4709.82609	0.02236
4707.89741	0.02239
4705.96874	0.02241
4704.04006	0.02244
4702.11139	0.02248
4700.18271	0.02252
4698.25404	0.02254
4696.32536	0.02256
4694.39668	0.02259
4692.46801	0.02261
4690.53933	0.02262
4688.61066	0.02264
4686.68198	0.02267
4684.75331	0.02271
4682.82463	0.02275
4680.89595	0.02280
4678.96728	0.02283
4677.03860	0.02285
4675.10993	0.02286
4673.18125	0.02289
4671.25258	0.02293
4669.32390	0.02298
4667.39522	0.02303
4665.46655	0.02306
4663.53787	0.02308
4661.60920	0.02310
4659.68052	0.02312
4657.75185	0.02314
4655.82317	0.02318
4653.89449	0.02321
4651.96582	0.02323
4650.03714	0.02325
4648.10847	0.02327
4646.17979	0.02327
4644.25112	0.02329
4642.32244	0.02334
4640.39376	0.02341
4638.46509	0.02347
4636.53641	0.02350
4634.60774	0.02351
4632.67906	0.02354
4630.75039	0.02358
4628.82171	0.02359
4626.89303	0.02362
4624.96436	0.02366
4623.03568	0.02369
4621.10701	0.02370
4619.17833	0.02372
4617.24966	0.02377
4615.32098	0.02382
4613.39230	0.02386
4611.46363	0.02388
4609.53495	0.02390
4607.60628	0.02392
4605.67760	0.02393
4603.74893	0.02395
4601.82025	0.02399
4599.89157	0.02403
4597.96290	0.02407
4596.03422	0.02411
4594.10555	0.02417
4592.17687	0.02422
4590.24820	0.02427
4588.31952	0.02430
4586.39084	0.02432
4584.46217	0.02433
4582.53349	0.02435
4580.60482	0.02440
4578.67614	0.02444
4576.74747	0.02446
4574.81879	0.02448
4572.89011	0.02454
4570.96144	0.02460
4569.03276	0.02462
4567.10409	0.02464
4565.17541	0.02467
4563.24674	0.02472
4561.31806	0.02476
4559.38938	0.02479
4557.46071	0.02482
4555.53203	0.02484
4553.60336	0.02487
4551.67468	0.02489
4549.74601	0.02492
4547.81733	0.02495
4545.88865	0.02498
4543.95998	0.02501
4542.03130	0.02506
4540.10263	0.02509
4538.17395	0.02511
4536.24528	0.02513
4534.31660	0.02516
4532.38792	0.02517
4530.45925	0.02520
4528.53057	0.02523
4526.60190	0.02527
4524.67322	0.02534
4522.74455	0.02540
4520.81587	0.02544
4518.88719	0.02545
4516.95852	0.02548
4515.02984	0.02552
4513.10117	0.02556
4511.17249	0.02560
4509.24382	0.02563
4507.31514	0.02569
4505.38646	0.02576
4503.45779	0.02580
4501.52911	0.02581
4499.60044	0.02582
4497.67176	0.02586
4495.74309	0.02591
4493.81441	0.02595
4491.88573	0.02597
4489.95706	0.02599
4488.02838	0.02603
4486.09971	0.02608
4484.17103	0.02613
4482.24236	0.02618
4480.31368	0.02621
4478.38500	0.02624
4476.45633	0.02628
4474.52765	0.02633
4472.59898	0.02640
4470.67030	0.02646
4468.74163	0.02649
4466.81295	0.02650
4464.88427	0.02652
4462.95560	0.02657
4461.02692	0.02661
4459.09825	0.02665
4457.16957	0.02668
4455.24090	0.02674
4453.31222	0.02678
4451.38354	0.02681
4449.45487	0.02685
4447.52619	0.02689
4445.59752	0.02692
4443.66884	0.02694
4441.74017	0.02699
4439.81149	0.02704
4437.88281	0.02709
4435.95414	0.02713
4434.02546	0.02717
4432.09679	0.02722
4430.16811	0.02726
4428.23944	0.02730
4426.31076	0.02734
4424.38208	0.02738
4422.45341	0.02742
4420.52473	0.02746
4418.59606	0.02751
4416.66738	0.02755
4414.73871	0.02758
4412.81003	0.02763
4410.88135	0.02770
4408.95268	0.02775
4407.02400	0.02778
4405.09533	0.02781
4403.16665	0.02783
4401.23798	0.02785
4399.30930	0.02789
4397.38062	0.02794
4395.45195	0.02798
4393.52327	0.02803
4391.59460	0.02809
4389.66592	0.02816
4387.73725	0.02821
4385.80857	0.02824
4383.87989	0.02828
4381.95122	0.02833
4380.02254	0.02836
4378.09387	0.02837
4376.16519	0.02840
4374.23652	0.02845
4372.30784	0.02853
4370.37916	0.02859
4368.45049	0.02863
4366.52181	0.02865
4364.59314	0.02869
4362.66446	0.02873
4360.73579	0.02878
4358.80711	0.02884
4356.87843	0.02888
4354.94976	0.02891
4353.02108	0.02895
4351.09241	0.02900
4349.16373	0.02905
4347.23506	0.02911
4345.30638	0.02915
4343.37770	0.02919
4341.44903	0.02924
4339.52035	0.02929
4337.59168	0.02931
4335.66300	0.02933
4333.73433	0.02938
4331.80565	0.02944
4329.87697	0.02951
4327.94830	0.02957
4326.01962	0.02964
4324.09095	0.02969
4322.16227	0.02973
4320.23360	0.02976
4318.30492	0.02979
4316.37624	0.02983
4314.44757	0.02990
4312.51889	0.02997
4310.59022	0.03004
4308.66154	0.03010
4306.73287	0.03014
4304.80419	0.03019
4302.87551	0.03022
4300.94684	0.03023
4299.01816	0.03026
4297.08949	0.03033
4295.16081	0.03041
4293.23214	0.03046
4291.30346	0.03050
4289.37478	0.03055
4287.44611	0.03061
4285.51743	0.03068
4283.58876	0.03074
4281.66008	0.03078
4279.73141	0.03083
4277.80273	0.03089
4275.87405	0.03093
4273.94538	0.03097
4272.01670	0.03103
4270.08803	0.03110
4268.15935	0.03115
4266.23068	0.03119
4264.30200	0.03122
4262.37332	0.03127
4260.44465	0.03131
4258.51597	0.03137
4256.58730	0.03143
4254.65862	0.03148
4252.72995	0.03153
4250.80127	0.03157
4248.87259	0.03162
4246.94392	0.03168
4245.01524	0.03174
4243.08657	0.03179
4241.15789	0.03184
4239.22922	0.03190
4237.30054	0.03198
4235.37186	0.03204
4233.44319	0.03208
4231.51451	0.03212
4229.58584	0.03217
4227.65716	0.03223
4225.72849	0.03230
4223.79981	0.03236
4221.87113	0.03244
4219.94246	0.03251
4218.01378	0.03255
4216.08511	0.03258
4214.15643	0.03263
4212.22776	0.03268
4210.29908	0.03275
4208.37040	0.03282
4206.44173	0.03290
4204.51305	0.03296
4202.58438	0.03300
4200.65570	0.03303
4198.72703	0.03307
4196.79835	0.03313
4194.86968	0.03320
4192.94100	0.03325
4191.01232	0.03331
4189.08365	0.03337
4187.15497	0.03344
4185.22630	0.03352
4183.29762	0.03359
4181.36895	0.03365
4179.44027	0.03370
4177.51159	0.03378
4175.58292	0.03385
4173.65424	0.03388
4171.72557	0.03390
4169.79689	0.03394
4167.86822	0.03399
4165.93954	0.03404
4164.01086	0.03412
4162.08219	0.03421
4160.15351	0.03428
4158.22484	0.03435
4156.29616	0.03442
4154.36749	0.03448
4152.43881	0.03453
4150.51013	0.03459
4148.58146	0.03466
4146.65278	0.03471
4144.72411	0.03475
4142.79543	0.03481
4140.86676	0.03489
4138.93808	0.03498
4137.00940	0.03504
4135.08073	0.03510
4133.15205	0.03515
4131.22338	0.03523
4129.29470	0.03531
4127.36603	0.03536
4125.43735	0.03539
4123.50867	0.03544
4121.58000	0.03550
4119.65132	0.03555
4117.72265	0.03563
4115.79397	0.03569
4113.86530	0.03574
4111.93662	0.03578
4110.00794	0.03584
4108.07927	0.03593
4106.15059	0.03602
4104.22192	0.03608
4102.29324	0.03613
4100.36457	0.03620
4098.43589	0.03626
4096.50721	0.03631
4094.57854	0.03639
4092.64986	0.03649
4090.72119	0.03658
4088.79251	0.03663
4086.86384	0.03667
4084.93516	0.03671
4083.00648	0.03678
4081.07781	0.03685
4079.14913	0.03692
4077.22046	0.03699
4075.29178	0.03708
4073.36311	0.03715
4071.43443	0.03721
4069.50575	0.03727
4067.57708	0.03734
4065.64840	0.03742
4063.71973	0.03750
4061.79105	0.03758
4059.86238	0.03764
4057.93370	0.03771
4056.00502	0.03777
4054.07635	0.03784
4052.14767	0.03790
4050.21900	0.03795
4048.29032	0.03801
4046.36165	0.03807
4044.43297	0.03812
4042.50429	0.03818
4040.57562	0.03827
4038.64694	0.03836
4036.71827	0.03845
4034.78959	0.03852
4032.86092	0.03858
4030.93224	0.03864
4029.00356	0.03869
4027.07489	0.03876
4025.14621	0.03886
4023.21754	0.03894
4021.28886	0.03900
4019.36019	0.03907
4017.43151	0.03916
4015.50283	0.03925
4013.57416	0.03933
4011.64548	0.03939
4009.71681	0.03944
4007.78813	0.03949
4005.85946	0.03959
4003.93078	0.03971
4002.00210	0.03981
4000.07343	0.03986
3998.14475	0.03989
3996.21608	0.03993
3994.28740	0.04000
3992.35873	0.04008
3990.43005	0.04017
3988.50137	0.04025
3986.57270	0.04033
3984.64402	0.04042
3982.71535	0.04049
3980.78667	0.04054
3978.85800	0.04058
3976.92932	0.04063
3975.00064	0.04073
3973.07197	0.04084
3971.14329	0.04094
3969.21462	0.04102
3967.28594	0.04109
3965.35727	0.04116
3963.42859	0.04125
3961.49991	0.04133
3959.57124	0.04139
3957.64256	0.04144
3955.71389	0.04151
3953.78521	0.04160
3951.85654	0.04166
3949.92786	0.04172
3947.99918	0.04179
3946.07051	0.04189
3944.14183	0.04196
3942.21316	0.04203
3940.28448	0.04211
3938.35581	0.04221
3936.42713	0.04231
3934.49845	0.04239
3932.56978	0.04247
3930.64110	0.04256
3928.71243	0.04264
3926.78375	0.04271
3924.85508	0.04277
3922.92640	0.04283
3920.99772	0.04289
3919.06905	0.04295
3917.14037	0.04303
3915.21170	0.04314
3913.28302	0.04325
3911.35435	0.04335
3909.42567	0.04342
3907.49699	0.04343
3905.56832	0.04339
3903.63964	0.04341
3901.71097	0.04351
3899.78229	0.04363
3897.85362	0.04379
3895.92494	0.04395
3893.99626	0.04402
3892.06759	0.04407
3890.13891	0.04415
3888.21024	0.04419
3886.28156	0.04420
3884.35289	0.04432
3882.42421	0.04446
3880.49553	0.04458
3878.56686	0.04472
3876.63818	0.04480
3874.70951	0.04479
3872.78083	0.04476
3870.85216	0.04476
3868.92348	0.04488
3866.99480	0.04509
3865.06613	0.04525
3863.13745	0.04537
3861.20878	0.04549
3859.28010	0.04556
3857.35143	0.04553
3855.42275	0.04539
3853.49407	0.04537
3851.56540	0.04561
3849.63672	0.04593
3847.70805	0.04612
3845.77937	0.04617
3843.85070	0.04618
3841.92202	0.04621
3839.99334	0.04628
3838.06467	0.04640
3836.13599	0.04654
3834.20732	0.04666
3832.27864	0.04676
3830.34997	0.04688
3828.42129	0.04701
3826.49261	0.04709
3824.56394	0.04710
3822.63526	0.04704
3820.70659	0.04711
3818.77791	0.04733
3816.84924	0.04751
3814.92056	0.04765
3812.99188	0.04779
3811.06321	0.04786
3809.13453	0.04785
3807.20586	0.04786
3805.27718	0.04795
3803.34851	0.04803
3801.41983	0.04813
3799.49115	0.04830
3797.56248	0.04847
3795.63380	0.04860
3793.70513	0.04873
3791.77645	0.04884
3789.84778	0.04894
3787.91910	0.04902
3785.99042	0.04908
3784.06175	0.04915
3782.13307	0.04920
3780.20440	0.04923
3778.27572	0.04935
3776.34705	0.04955
3774.41837	0.04969
3772.48969	0.04974
3770.56102	0.04977
3768.63234	0.04985
3766.70367	0.04995
3764.77499	0.05007
3762.84632	0.05021
3760.91764	0.05029
3758.98896	0.05033
3757.06029	0.05040
3755.13161	0.05045
3753.20294	0.05040
3751.27426	0.05029
3749.34559	0.05031
3747.41691	0.05047
3745.48823	0.05061
3743.55956	0.05079
3741.63088	0.05103
3739.70221	0.05113
3737.77353	0.05107
3735.84486	0.05102
3733.91618	0.05111
3731.98750	0.05133
3730.05883	0.05156
3728.13015	0.05171
3726.20148	0.05179
3724.27280	0.05188
3722.34413	0.05198
3720.41545	0.05208
3718.48677	0.05216
3716.55810	0.05218
3714.62942	0.05210
3712.70075	0.05198
3710.77207	0.05199
3708.84340	0.05214
3706.91472	0.05227
3704.98604	0.05230
3703.05737	0.05223
3701.12869	0.05217
3699.20002	0.05218
3697.27134	0.05220
3695.34267	0.05219
3693.41399	0.05213
3691.48531	0.05206
3689.55664	0.05202
3687.62796	0.05207
3685.69929	0.05213
3683.77061	0.05215
3681.84194	0.05210
3679.91326	0.05196
3677.98458	0.05175
3676.05591	0.05157
3674.12723	0.05157
3672.19856	0.05164
3670.26988	0.05170
3668.34121	0.05183
3666.41253	0.05197
3664.48385	0.05203
3662.55518	0.05205
3660.62650	0.05205
3658.69783	0.05196
3656.76915	0.05188
3654.84048	0.05192
3652.91180	0.05193
3650.98312	0.05178
3649.05445	0.05168
3647.12577	0.05180
3645.19710	0.05209
3643.26842	0.05235
3641.33975	0.05250
3639.41107	0.05256
3637.48239	0.05261
3635.55372	0.05265
3633.62504	0.05264
3631.69637	0.05254
3629.76769	0.05247
3627.83902	0.05265
3625.91034	0.05296
3623.98166	0.05316
3622.05299	0.05320
3620.12431	0.05315
3618.19564	0.05316
3616.26696	0.05326
3614.33829	0.05338
3612.40961	0.05350
3610.48093	0.05358
3608.55226	0.05364
3606.62358	0.05376
3604.69491	0.05391
3602.76623	0.05403
3600.83756	0.05410
3598.90888	0.05414
3596.98020	0.05416
3595.05153	0.05422
3593.12285	0.05434
3591.19418	0.05440
3589.26550	0.05439
3587.33683	0.05447
3585.40815	0.05468
3583.47947	0.05487
3581.55080	0.05497
3579.62212	0.05508
3577.69345	0.05520
3575.76477	0.05532
3573.83610	0.05542
3571.90742	0.05548
3569.97874	0.05549
3568.05007	0.05551
3566.12139	0.05561
3564.19272	0.05580
3562.26404	0.05596
3560.33537	0.05607
3558.40669	0.05617
3556.47801	0.05626
3554.54934	0.05635
3552.62066	0.05644
3550.69199	0.05650
3548.76331	0.05653
3546.83464	0.05657
3544.90596	0.05668
3542.97728	0.05680
3541.04861	0.05689
3539.11993	0.05696
3537.19126	0.05703
3535.26258	0.05711
3533.33391	0.05719
3531.40523	0.05723
3529.47655	0.05727
3527.54788	0.05732
3525.61920	0.05738
3523.69053	0.05742
3521.76185	0.05746
3519.83318	0.05751
3517.90450	0.05757
3515.97582	0.05766
3514.04715	0.05773
3512.11847	0.05776
3510.18980	0.05780
3508.26112	0.05786
3506.33245	0.05791
3504.40377	0.05795
3502.47509	0.05798
3500.54642	0.05804
3498.61774	0.05810
3496.68907	0.05814
3494.76039	0.05816
3492.83172	0.05819
3490.90304	0.05825
3488.97436	0.05829
3487.04569	0.05830
3485.11701	0.05831
3483.18834	0.05837
3481.25966	0.05845
3479.33099	0.05854
3477.40231	0.05863
3475.47363	0.05872
3473.54496	0.05881
3471.61628	0.05889
3469.68761	0.05897
3467.75893	0.05908
3465.83026	0.05921
3463.90158	0.05936
3461.97290	0.05950
3460.04423	0.05963
3458.11555	0.05977
3456.18688	0.05989
3454.25820	0.05998
3452.32953	0.06003
3450.40085	0.06010
3448.47217	0.06022
3446.54350	0.06035
3444.61482	0.06047
3442.68615	0.06059
3440.75747	0.06073
3438.82880	0.06088
3436.90012	0.06107
3434.97144	0.06129
3433.04277	0.06150
3431.11409	0.06170
3429.18542	0.06193
3427.25674	0.06215
3425.32807	0.06235
3423.39939	0.06252
3421.47071	0.06270
3419.54204	0.06290
3417.61336	0.06311
3415.68469	0.06332
3413.75601	0.06352
3411.82734	0.06369
3409.89866	0.06386
3407.96998	0.06402
3406.04131	0.06416
3404.11263	0.06426
3402.18396	0.06439
3400.25528	0.06454
3398.32661	0.06471
3396.39793	0.06488
3394.46925	0.06506
3392.54058	0.06524
3390.61190	0.06541
3388.68323	0.06558
3386.75455	0.06574
3384.82588	0.06586
3382.89720	0.06599
3380.96852	0.06617
3379.03985	0.06637
3377.11117	0.06654
3375.18250	0.06668
3373.25382	0.06683
3371.32515	0.06697
3369.39647	0.06713
3367.46779	0.06732
3365.53912	0.06749
3363.61044	0.06764
3361.68177	0.06780
3359.75309	0.06798
3357.82442	0.06814
3355.89574	0.06829
3353.96706	0.06845
3352.03839	0.06860
3350.10971	0.06875
3348.18104	0.06891
3346.25236	0.06906
3344.32369	0.06921
3342.39501	0.06936
3340.46633	0.06953
3338.53766	0.06970
3336.60898	0.06985
3334.68031	0.06999
3332.75163	0.07014
3330.82296	0.07031
3328.89428	0.07049
3326.96560	0.07067
3325.03693	0.07085
3323.10825	0.07100
3321.17958	0.07113
3319.25090	0.07128
3317.32223	0.07146
3315.39355	0.07165
3313.46487	0.07181
3311.53620	0.07195
3309.60752	0.07210
3307.67885	0.07229
3305.75017	0.07251
3303.82150	0.07271
3301.89282	0.07286
3299.96414	0.07298
3298.03547	0.07314
3296.10679	0.07333
3294.17812	0.07353
3292.24944	0.07370
3290.32077	0.07386
3288.39209	0.07403
3286.46341	0.07420
3284.53474	0.07435
3282.60606	0.07453
3280.67739	0.07474
3278.74871	0.07496
3276.82004	0.07513
3274.89136	0.07527
3272.96268	0.07544
3271.03401	0.07564
3269.10533	0.07583
3267.17666	0.07601
3265.24798	0.07618
3263.31931	0.07636
3261.39063	0.07654
3259.46195	0.07672
3257.53328	0.07693
3255.60460	0.07714
3253.67593	0.07733
3251.74725	0.07750
3249.81858	0.07767
3247.88990	0.07785
3245.96122	0.07803
3244.03255	0.07819
3242.10387	0.07839
3240.17520	0.07859
3238.24652	0.07876
3236.31785	0.07894
3234.38917	0.07911
3232.46049	0.07928
3230.53182	0.07945
3228.60314	0.07963
3226.67447	0.07983
3224.74579	0.08003
3222.81712	0.08021
3220.88844	0.08036
3218.95976	0.08053
3217.03109	0.08074
3215.10241	0.08094
3213.17374	0.08112
3211.24506	0.08131
3209.31639	0.08151
3207.38771	0.08169
3205.45903	0.08186
3203.53036	0.08204
3201.60168	0.08224
3199.67301	0.08244
3197.74433	0.08266
3195.81566	0.08286
3193.88698	0.08304
3191.95830	0.08320
3190.02963	0.08337
3188.10095	0.08355
3186.17228	0.08375
3184.24360	0.08396
3182.31493	0.08416
3180.38625	0.08436
3178.45757	0.08459
3176.52890	0.08482
3174.60022	0.08501
3172.67155	0.08519
3170.74287	0.08538
3168.81420	0.08556
3166.88552	0.08574
3164.95684	0.08591
3163.02817	0.08609
3161.09949	0.08628
3159.17082	0.08650
3157.24214	0.08671
3155.31347	0.08692
3153.38479	0.08712
3151.45611	0.08731
3149.52744	0.08750
3147.59876	0.08770
3145.67009	0.08789
3143.74141	0.08805
3141.81274	0.08821
3139.88406	0.08840
3137.95538	0.08863
3136.02671	0.08884
3134.09803	0.08902
3132.16936	0.08921
3130.24068	0.08941
3128.31201	0.08959
3126.38333	0.08977
3124.45465	0.08996
3122.52598	0.09015
3120.59730	0.09032
3118.66863	0.09051
3116.73995	0.09073
3114.81128	0.09095
3112.88260	0.09114
3110.95392	0.09131
3109.02525	0.09149
3107.09657	0.09169
3105.16790	0.09186
3103.23922	0.09204
3101.31055	0.09226
3099.38187	0.09250
3097.45319	0.09273
3095.52452	0.09293
3093.59584	0.09309
3091.66717	0.09325
3089.73849	0.09343
3087.80982	0.09363
3085.88114	0.09384
3083.95246	0.09404
3082.02379	0.09423
3080.09511	0.09444
3078.16644	0.09462
3076.23776	0.09478
3074.30909	0.09497
3072.38041	0.09519
3070.45173	0.09541
3068.52306	0.09562
3066.59438	0.09579
3064.66571	0.09597
3062.73703	0.09615
3060.80836	0.09634
3058.87968	0.09654
3056.95100	0.09675
3055.02233	0.09697
3053.09365	0.09716
3051.16498	0.09732
3049.23630	0.09751
3047.30763	0.09772
3045.37895	0.09791
3043.45027	0.09810
3041.52160	0.09828
3039.59292	0.09848
3037.66425	0.09870
3035.73557	0.09890
3033.80690	0.09907
3031.87822	0.09924
3029.94954	0.09943
3028.02087	0.09965
3026.09219	0.09986
3024.16352	0.10003
3022.23484	0.10021
3020.30617	0.10041
3018.37749	0.10059
3016.44881	0.10076
3014.52014	0.10095
3012.59146	0.10116
3010.66279	0.10136
3008.73411	0.10155
3006.80544	0.10177
3004.87676	0.10200
3002.94808	0.10220
3001.01941	0.10238
2999.09073	0.10256
2997.16206	0.10274
2995.23338	0.10291
2993.30471	0.10307
2991.37603	0.10323
2989.44735	0.10340
2987.51868	0.10357
2985.59000	0.10373
2983.66133	0.10389
2981.73265	0.10404
2979.80398	0.10417
2977.87530	0.10426
2975.94662	0.10434
2974.01795	0.10442
2972.08927	0.10447
2970.16060	0.10449
2968.23192	0.10450
2966.30325	0.10455
2964.37457	0.10465
2962.44589	0.10478
2960.51722	0.10495
2958.58854	0.10514
2956.65987	0.10537
2954.73119	0.10564
2952.80252	0.10593
2950.87384	0.10617
2948.94516	0.10634
2947.01649	0.10648
2945.08781	0.10663
2943.15914	0.10680
2941.23046	0.10692
2939.30179	0.10699
2937.37311	0.10704
2935.44443	0.10707
2933.51576	0.10704
2931.58708	0.10702
2929.65841	0.10705
2927.72973	0.10711
2925.80106	0.10713
2923.87238	0.10714
2921.94370	0.10720
2920.01503	0.10735
2918.08635	0.10760
2916.15768	0.10798
2914.22900	0.10852
2912.30033	0.10910
2910.37165	0.10959
2908.44297	0.11001
2906.51430	0.11038
2904.58562	0.11070
2902.65695	0.11101
2900.72827	0.11133
2898.79960	0.11163
2896.87092	0.11191
2894.94224	0.11219
2893.01357	0.11245
2891.08489	0.11268
2889.15622	0.11292
2887.22754	0.11317
2885.29887	0.11342
2883.37019	0.11366
2881.44151	0.11388
2879.51284	0.11407
2877.58416	0.11427
2875.65549	0.11448
2873.72681	0.11467
2871.79814	0.11483
2869.86946	0.11499
2867.94078	0.11516
2866.01211	0.11535
2864.08343	0.11552
2862.15476	0.11567
2860.22608	0.11577
2858.29741	0.11582
2856.36873	0.11584
2854.44005	0.11586
2852.51138	0.11590
2850.58270	0.11603
2848.65403	0.11635
2846.72535	0.11687
2844.79668	0.11750
2842.86800	0.11806
2840.93932	0.11851
2839.01065	0.11888
2837.08197	0.11920
2835.15330	0.11947
2833.22462	0.11969
2831.29595	0.11994
2829.36727	0.12022
2827.43859	0.12053
2825.50992	0.12080
2823.58124	0.12101
2821.65257	0.12121
2819.72389	0.12143
2817.79522	0.12168
2815.86654	0.12191
2813.93786	0.12210
2812.00919	0.12231
2810.08051	0.12255
2808.15184	0.12280
2806.22316	0.12303
2804.29449	0.12325
2802.36581	0.12348
2800.43713	0.12372
2798.50846	0.12394
2796.57978	0.12415
2794.65111	0.12434
2792.72243	0.12453
2790.79376	0.12474
2788.86508	0.12498
2786.93640	0.12524
2785.00773	0.12547
2783.07905	0.12566
2781.15038	0.12587
2779.22170	0.12612
2777.29303	0.12637
2775.36435	0.12660
2773.43567	0.12681
2771.50700	0.12699
2769.57832	0.12717
2767.64965	0.12739
2765.72097	0.12763
2763.79230	0.12784
2761.86362	0.12803
2759.93494	0.12826
2758.00627	0.12849
2756.07759	0.12869
2754.14892	0.12886
2752.22024	0.12904
2750.29157	0.12927
2748.36289	0.12953
2746.43421	0.12978
2744.50554	0.13002
2742.57686	0.13023
2740.64819	0.13042
2738.71951	0.13063
2736.79084	0.13083
2734.86216	0.13100
2732.93348	0.13117
2731.00481	0.13139
2729.07613	0.13165
2727.14746	0.13190
2725.21878	0.13211
2723.29011	0.13233
2721.36143	0.13256
2719.43275	0.13278
2717.50408	0.13300
2715.57540	0.13321
2713.64673	0.13339
2711.71805	0.13356
2709.78938	0.13378
2707.86070	0.13402
2705.93202	0.13422
2704.00335	0.13441
2702.07467	0.13463
2700.14600	0.13487
2698.21732	0.13509
2696.28865	0.13527
2694.35997	0.13546
2692.43129	0.13568
2690.50262	0.13591
2688.57394	0.13611
2686.64527	0.13630
2684.71659	0.13651
2682.78792	0.13672
2680.85924	0.13694
2678.93056	0.13717
2677.00189	0.13739
2675.07321	0.13759
2673.14454	0.13780
2671.21586	0.13802
2669.28719	0.13825
2667.35851	0.13848
2665.42983	0.13869
2663.50116	0.13889
2661.57248	0.13911
2659.64381	0.13934
2657.71513	0.13956
2655.78646	0.13976
2653.85778	0.13997
2651.92910	0.14019
2650.00043	0.14038
2648.07175	0.14057
2646.14308	0.14079
2644.21440	0.14105
2642.28573	0.14130
2640.35705	0.14153
2638.42837	0.14175
2636.49970	0.14195
2634.57102	0.14215
2632.64235	0.14235
2630.71367	0.14258
2628.78500	0.14283
2626.85632	0.14308
2624.92764	0.14334
2622.99897	0.14358
2621.07029	0.14378
2619.14162	0.14396
2617.21294	0.14416
2615.28427	0.14439
2613.35559	0.14464
2611.42691	0.14493
2609.49824	0.14520
2607.56956	0.14541
2605.64089	0.14556
2603.71221	0.14575
2601.78354	0.14599
2599.85486	0.14622
2597.92618	0.14648
2595.99751	0.14677
2594.06883	0.14702
2592.14016	0.14721
2590.21148	0.14742
2588.28281	0.14766
2586.35413	0.14788
2584.42545	0.14808
2582.49678	0.14826
2580.56810	0.14844
2578.63943	0.14863
2576.71075	0.14881
2574.78208	0.14903
2572.85340	0.14928
2570.92472	0.14953
2568.99605	0.14977
2567.06737	0.14999
2565.13870	0.15020
2563.21002	0.15042
2561.28135	0.15063
2559.35267	0.15082
2557.42399	0.15104
2555.49532	0.15128
2553.56664	0.15154
2551.63797	0.15177
2549.70929	0.15195
2547.78062	0.15211
2545.85194	0.15230
2543.92326	0.15251
2541.99459	0.15276
2540.06591	0.15301
2538.13724	0.15324
2536.20856	0.15344
2534.27989	0.15364
2532.35121	0.15386
2530.42253	0.15407
2528.49386	0.15426
2526.56518	0.15447
2524.63651	0.15470
2522.70783	0.15492
2520.77916	0.15515
2518.85048	0.15540
2516.92181	0.15563
2514.99313	0.15584
2513.06445	0.15605
2511.13578	0.15630
2509.20710	0.15655
2507.27843	0.15677
2505.34975	0.15699
2503.42108	0.15724
2501.49240	0.15751
2499.56372	0.15777
2497.63505	0.15801
2495.70637	0.15824
2493.77770	0.15847
2491.84902	0.15869
2489.92035	0.15890
2487.99167	0.15912
2486.06299	0.15936
2484.13432	0.15959
2482.20564	0.15983
2480.27697	0.16009
2478.34829	0.16031
2476.41962	0.16053
2474.49094	0.16077
2472.56226	0.16105
2470.63359	0.16127
2468.70491	0.16140
2466.77624	0.16153
2464.84756	0.16170
2462.91889	0.16191
2460.99021	0.16215
2459.06153	0.16241
2457.13286	0.16269
2455.20418	0.16293
2453.27551	0.16313
2451.34683	0.16329
2449.41816	0.16345
2447.48948	0.16367
2445.56080	0.16394
2443.63213	0.16418
2441.70345	0.16438
2439.77478	0.16456
2437.84610	0.16476
2435.91743	0.16499
2433.98875	0.16523
2432.06007	0.16547
2430.13140	0.16571
2428.20272	0.16592
2426.27405	0.16611
2424.34537	0.16626
2422.41670	0.16643
2420.48802	0.16660
2418.55934	0.16679
2416.63067	0.16700
2414.70199	0.16718
2412.77332	0.16738
2410.84464	0.16762
2408.91597	0.16785
2406.98729	0.16803
2405.05861	0.16818
2403.12994	0.16834
2401.20126	0.16852
2399.27259	0.16872
2397.34391	0.16889
2395.41524	0.16907
2393.48656	0.16926
2391.55788	0.16943
2389.62921	0.16955
2387.70053	0.16965
2385.77186	0.16978
2383.84318	0.16986
2381.91451	0.16993
2379.98583	0.17000
2378.05715	0.17002
2376.12848	0.16996
2374.19980	0.16989
2372.27113	0.16987
2370.34245	0.16983
2368.41378	0.16975
2366.48510	0.16964
2364.55642	0.16956
2362.62775	0.16940
2360.69907	0.16907
2358.77040	0.16851
2356.84172	0.16751
2354.91305	0.16577
2352.98437	0.16280
2351.05569	0.15813
2349.12702	0.15138
2347.19834	0.14280
2345.26967	0.13361
2343.34099	0.12596
2341.41232	0.12325
2339.48364	0.12828
2337.55496	0.14046
2335.62629	0.15421
2333.69761	0.16338
2331.76894	0.16757
2329.84026	0.16954
2327.91159	0.17089
2325.98291	0.17222
2324.05423	0.17351
2322.12556	0.17462
2320.19688	0.17549
2318.26821	0.17612
2316.33953	0.17663
2314.41086	0.17706
2312.48218	0.17748
2310.55350	0.17787
2308.62483	0.17823
2306.69615	0.17852
2304.76748	0.17877
2302.83880	0.17905
2300.91013	0.17937
2298.98145	0.17968
2297.05277	0.17993
2295.12410	0.18016
2293.19542	0.18039
2291.26675	0.18063
2289.33807	0.18089
2287.40940	0.18114
2285.48072	0.18136
2283.55204	0.18151
2281.62337	0.18162
2279.69469	0.18166
2277.76602	0.18172
2275.83734	0.18190
2273.90867	0.18228
2271.97999	0.18279
2270.05131	0.18326
2268.12264	0.18361
2266.19396	0.18386
2264.26529	0.18412
2262.33661	0.18438
2260.40794	0.18462
2258.47926	0.18483
2256.55058	0.18503
2254.62191	0.18525
2252.69323	0.18548
2250.76456	0.18570
2248.83588	0.18593
2246.90721	0.18616
2244.97853	0.18639
2243.04985	0.18663
2241.12118	0.18685
2239.19250	0.18704
2237.26383	0.18723
2235.33515	0.18745
2233.40648	0.18766
2231.47780	0.18786
2229.54912	0.18804
2227.62045	0.18825
2225.69177	0.18850
2223.76310	0.18875
2221.83442	0.18895
2219.90575	0.18910
2217.97707	0.18926
2216.04839	0.18945
2214.11972	0.18966
2212.19104	0.18990
2210.26237	0.19012
2208.33369	0.19030
2206.40502	0.19047
2204.47634	0.19065
2202.54766	0.19084
2200.61899	0.19106
2198.69031	0.19129
2196.76164	0.19147
2194.83296	0.19163
2192.90429	0.19182
2190.97561	0.19202
2189.04693	0.19223
2187.11826	0.19245
2185.18958	0.19266
2183.26091	0.19283
2181.33223	0.19300
2179.40356	0.19318
2177.47488	0.19338
2175.54620	0.19356
2173.61753	0.19372
2171.68885	0.19388
2169.76018	0.19406
2167.83150	0.19428
2165.90283	0.19451
2163.97415	0.19473
2162.04547	0.19495
2160.11680	0.19519
2158.18812	0.19538
2156.25945	0.19553
2154.33077	0.19570
2152.40210	0.19592
2150.47342	0.19616
2148.54474	0.19637
2146.61607	0.19654
2144.68739	0.19670
2142.75872	0.19687
2140.83004	0.19704
2138.90137	0.19722
2136.97269	0.19739
2135.04401	0.19754
2133.11534	0.19773
2131.18666	0.19799
2129.25799	0.19822
2127.32931	0.19840
2125.40064	0.19858
2123.47196	0.19877
2121.54328	0.19891
2119.61461	0.19906
2117.68593	0.19925
2115.75726	0.19943
2113.82858	0.19961
2111.89991	0.19981
2109.97123	0.20002
2108.04255	0.20020
2106.11388	0.20037
2104.18520	0.20054
2102.25653	0.20071
2100.32785	0.20086
2098.39918	0.20104
2096.47050	0.20122
2094.54182	0.20138
2092.61315	0.20154
2090.68447	0.20169
2088.75580	0.20185
2086.82712	0.20203
2084.89845	0.20224
2082.96977	0.20242
2081.04109	0.20258
2079.11242	0.20273
2077.18374	0.20289
2075.25507	0.20306
2073.32639	0.20321
2071.39772	0.20335
2069.46904	0.20349
2067.54036	0.20362
2065.61169	0.20377
2063.68301	0.20396
2061.75434	0.20410
2059.82566	0.20421
2057.89699	0.20433
2055.96831	0.20448
2054.03963	0.20464
2052.11096	0.20480
2050.18228	0.20495
2048.25361	0.20509
2046.32493	0.20525
2044.39626	0.20539
2042.46758	0.20548
2040.53890	0.20554
2038.61023	0.20566
2036.68155	0.20583
2034.75288	0.20599
2032.82420	0.20613
2030.89553	0.20628
2028.96685	0.20647
2027.03817	0.20667
2025.10950	0.20679
2023.18082	0.20686
2021.25215	0.20694
2019.32347	0.20705
2017.39480	0.20720
2015.46612	0.20739
2013.53744	0.20757
2011.60877	0.20772
2009.68009	0.20785
2007.75142	0.20796
2005.82274	0.20810
2003.89407	0.20826
2001.96539	0.20841
2000.03671	0.20853
1998.10804	0.20864
1996.17936	0.20872
1994.25069	0.20876
1992.32201	0.20881
1990.39334	0.20896
1988.46466	0.20914
1986.53598	0.20926
1984.60731	0.20940
1982.67863	0.20956
1980.74996	0.20970
1978.82128	0.20983
1976.89261	0.20998
1974.96393	0.21010
1973.03525	0.21019
1971.10658	0.21026
1969.17790	0.21035
1967.24923	0.21046
1965.32055	0.21061
1963.39188	0.21077
1961.46320	0.21091
1959.53452	0.21106
1957.60585	0.21118
1955.67717	0.21126
1953.74850	0.21138
1951.81982	0.21153
1949.89115	0.21168
1947.96247	0.21183
1946.03379	0.21193
1944.10512	0.21193
1942.17644	0.21200
1940.24777	0.21224
1938.31909	0.21249
1936.39042	0.21264
1934.46174	0.21279
1932.53306	0.21296
1930.60439	0.21310
1928.67571	0.21322
1926.74704	0.21332
1924.81836	0.21337
1922.88969	0.21344
1920.96101	0.21354
1919.03233	0.21364
1917.10366	0.21378
1915.17498	0.21401
1913.24631	0.21418
1911.31763	0.21430
1909.38896	0.21441
1907.46028	0.21456
1905.53160	0.21470
1903.60293	0.21478
1901.67425	0.21481
1899.74558	0.21485
1897.81690	0.21489
1895.88823	0.21495
1893.95955	0.21500
1892.03087	0.21499
1890.10220	0.21498
1888.17352	0.21515
1886.24485	0.21539
1884.31617	0.21553
1882.38750	0.21561
1880.45882	0.21571
1878.53014	0.21581
1876.60147	0.21593
1874.67279	0.21608
1872.74412	0.21612
1870.81544	0.21597
1868.88677	0.21588
1866.95809	0.21611
1865.02941	0.21648
1863.10074	0.21673
1861.17206	0.21686
1859.24339	0.21699
1857.31471	0.21717
1855.38604	0.21736
1853.45736	0.21753
1851.52868	0.21766
1849.60001	0.21776
1847.67133	0.21773
1845.74266	0.21761
1843.81398	0.21770
1841.88531	0.21812
1839.95663	0.21854
1838.02795	0.21874
1836.09928	0.21889
1834.17060	0.21901
1832.24193	0.21901
1830.31325	0.21901
1828.38458	0.21916
1826.45590	0.21939
1824.52722	0.21965
1822.59855	0.21997
1820.66987	0.22021
1818.74120	0.22030
1816.81252	0.22039
1814.88385	0.22054
1812.95517	0.22065
1811.02649	0.22073
1809.09782	0.22086
1807.16914	0.22099
1805.24047	0.22105
1803.31179	0.22102
1801.38312	0.22099
1799.45444	0.22112
1797.52576	0.22131
1795.59709	0.22135
1793.66841	0.22126
1791.73974	0.22135
1789.81106	0.22166
1787.88239	0.22184
1785.95371	0.22180
1784.02503	0.22182
1782.09636	0.22192
1780.16768	0.22199
1778.23901	0.22206
1776.31033	0.22204
1774.38166	0.22184
1772.45298	0.22166
1770.52430	0.22172
1768.59563	0.22199
1766.66695	0.22233
1764.73828	0.22249
1762.80960	0.22242
1760.88093	0.22236
1758.95225	0.22235
1757.02357	0.22233
1755.09490	0.22222
1753.16622	0.22180
1751.23755	0.22131
1749.30887	0.22124
1747.38020	0.22146
1745.45152	0.22161
1743.52284	0.22154
1741.59417	0.22130
1739.66549	0.22121
1737.73682	0.22124
1735.80814	0.22097
1733.87947	0.22069
1731.95079	0.22094
1730.02211	0.22138
1728.09344	0.22166
1726.16476	0.22180
1724.23609	0.22185
1722.30741	0.22180
1720.37874	0.22144
1718.45006	0.22096
1716.52138	0.22099
1714.59271	0.22153
1712.66403	0.22204
1710.73536	0.22222
1708.80668	0.22208
1706.87801	0.22182
1704.94933	0.22170
1703.02065	0.22149
1701.09198	0.22113
1699.16330	0.22104
1697.23463	0.22119
1695.30595	0.22139
1693.37728	0.22170
1691.44860	0.22182
1689.51992	0.22167
1687.59125	0.22137
1685.66257	0.22084
1683.73390	0.22050
1681.80522	0.22076
1679.87655	0.22115
1677.94787	0.22100
1676.01919	0.22052
1674.09052	0.22033
1672.16184	0.22039
1670.23317	0.22043
1668.30449	0.22065
1666.37582	0.22090
1664.44714	0.22086
1662.51846	0.22077
1660.58979	0.22087
1658.66111	0.22089
1656.73244	0.22036
1654.80376	0.21929
1652.87509	0.21866
1650.94641	0.21903
1649.01773	0.21945
1647.08906	0.21953
1645.16038	0.21989
1643.23171	0.22037
1641.30303	0.22049
1639.37436	0.22018
1637.44568	0.21971
1635.51700	0.21959
1633.58833	0.21990
1631.65965	0.22017
1629.73098	0.22010
1627.80230	0.21987
1625.87363	0.21954
1623.94495	0.21902
1622.01627	0.21856
1620.08760	0.21841
1618.15892	0.21857
1616.23025	0.21913
1614.30157	0.21992
1612.37290	0.22050
1610.44422	0.22079
1608.51554	0.22100
1606.58687	0.22125
1604.65819	0.22146
1602.72952	0.22165
1600.80084	0.22186
1598.87217	0.22204
1596.94349	0.22216
1595.01481	0.22224
1593.08614	0.22234
1591.15746	0.22242
1589.22879	0.22249
1587.30011	0.22261
1585.37144	0.22276
1583.44276	0.22285
1581.51408	0.22286
1579.58541	0.22261
1577.65673	0.22212
1575.72806	0.22202
1573.79938	0.22246
1571.87071	0.22269
1569.94203	0.22258
1568.01335	0.22256
1566.08468	0.22264
1564.15600	0.22265
1562.22733	0.22230
1560.29865	0.22158
1558.36998	0.22130
1556.44130	0.22183
1554.51262	0.22251
1552.58395	0.22281
1550.65527	0.22284
1548.72660	0.22278
1546.79792	0.22254
1544.86925	0.22196
1542.94057	0.22137
1541.01189	0.22123
1539.08322	0.22166
1537.15454	0.22214
1535.22587	0.22216
1533.29719	0.22210
1531.36852	0.22232
1529.43984	0.22242
1527.51116	0.22215
1525.58249	0.22174
1523.65381	0.22127
1521.72514	0.22100
1519.79646	0.22114
1517.86779	0.22130
1515.93911	0.22128
1514.01043	0.22124
1512.08176	0.22110
1510.15308	0.22059
1508.22441	0.21991
1506.29573	0.21987
1504.36706	0.22053
1502.43838	0.22091
1500.50970	0.22064
1498.58103	0.22017
1496.65235	0.21996
1494.72368	0.22004
1492.79500	0.21995
1490.86633	0.21952
1488.93765	0.21917
1487.00897	0.21906
1485.08030	0.21897
1483.15162	0.21875
1481.22295	0.21843
1479.29427	0.21794
1477.36560	0.21721
1475.43692	0.21633
1473.50824	0.21563
1471.57957	0.21535
1469.65089	0.21522
1467.72222	0.21479
1465.79354	0.21418
1463.86487	0.21382
1461.93619	0.21355
1460.00751	0.21286
1458.07884	0.21201
1456.15016	0.21178
1454.22149	0.21212
1452.29281	0.21228
1450.36414	0.21209
1448.43546	0.21188
1446.50678	0.21182
1444.57811	0.21185
1442.64943	0.21185
1440.72076	0.21176
1438.79208	0.21145
1436.86341	0.21116
1434.93473	0.21118
1433.00605	0.21128
1431.07738	0.21117
1429.14870	0.21103
1427.22003	0.21089
1425.29135	0.21065
1423.36268	0.21027
1421.43400	0.20963
1419.50532	0.20905
1417.57665	0.20913
1415.64797	0.20951
1413.71930	0.20956
1411.79062	0.20937
1409.86195	0.20917
1407.93327	0.20887
1406.00459	0.20845
1404.07592	0.20816
1402.14724	0.20794
1400.21857	0.20755
1398.28989	0.20711
1396.36122	0.20675
1394.43254	0.20650
1392.50386	0.20634
1390.57519	0.20602
1388.64651	0.20541
1386.71784	0.20476
1384.78916	0.20431
1382.86049	0.20404
1380.93181	0.20377
1379.00313	0.20346
1377.07446	0.20303
1375.14578	0.20253
1373.21711	0.20223
1371.28843	0.20215
1369.35976	0.20197
1367.43108	0.20162
1365.50240	0.20118
1363.57373	0.20070
1361.64505	0.20037
1359.71638	0.20017
1357.78770	0.19988
1355.85903	0.19954
1353.93035	0.19930
1352.00167	0.19914
1350.07300	0.19892
1348.14432	0.19862
1346.21565	0.19830
1344.28697	0.19792
1342.35830	0.19740
1340.42962	0.19682
1338.50094	0.19635
1336.57227	0.19598
1334.64359	0.19556
1332.71492	0.19501
1330.78624	0.19440
1328.85757	0.19378
1326.92889	0.19315
1325.00021	0.19247
1323.07154	0.19177
1321.14286	0.19110
1319.21419	0.19049
1317.28551	0.18992
1315.35684	0.18930
1313.42816	0.18857
1311.49948	0.18776
1309.57081	0.18695
1307.64213	0.18613
1305.71346	0.18530
1303.78478	0.18447
1301.85611	0.18364
1299.92743	0.18281
1297.99875	0.18200
1296.07008	0.18120
1294.14140	0.18037
1292.21273	0.17950
1290.28405	0.17858
1288.35538	0.17764
1286.42670	0.17663
1284.49802	0.17555
1282.56935	0.17446
1280.64067	0.17341
1278.71200	0.17229
1276.78332	0.17100
1274.85465	0.16957
1272.92597	0.16803
1270.99729	0.16633
1269.06862	0.16443
1267.13994	0.16239
1265.21127	0.16034
1263.28259	0.15840
1261.35392	0.15670
1259.42524	0.15520
1257.49656	0.15381
1255.56789	0.15238
1253.63921	0.15073
1251.71054	0.14888
1249.78186	0.14698
1247.85319	0.14505
1245.92451	0.14310
1243.99583	0.14117
1242.06716	0.13928
1240.13848	0.13739
1238.20981	0.13550
1236.28113	0.13365
1234.35246	0.13178
1232.42378	0.12991
1230.49510	0.12813
1228.56643	0.12646
1226.63775	0.12481
1224.70908	0.12318
1222.78040	0.12159
1220.85173	0.12001
1218.92305	0.11842
1216.99437	0.11682
1215.06570	0.11527
1213.13702	0.11381
1211.20835	0.11238
1209.27967	0.11096
1207.35100	0.10956
1205.42232	0.10822
1203.49364	0.10690
1201.56497	0.10558
1199.63629	0.10428
1197.70762	0.10301
1195.77894	0.10176
1193.85027	0.10051
1191.92159	0.09926
1189.99291	0.09797
1188.06424	0.09668
1186.13556	0.09540
1184.20689	0.09411
1182.27821	0.09286
1180.34954	0.09166
1178.42086	0.09045
1176.49218	0.08922
1174.56351	0.08801
1172.63483	0.08681
1170.70616	0.08562
1168.77748	0.08441
1166.84881	0.08322
1164.92013	0.08207
1162.99145	0.08093
1161.06278	0.07979
1159.13410	0.07869
1157.20543	0.07763
1155.27675	0.07659
1153.34808	0.07556
1151.41940	0.07453
1149.49072	0.07349
1147.56205	0.07239
1145.63337	0.07128
1143.70470	0.07016
1141.77602	0.06903
1139.84735	0.06782
1137.91867	0.06657
1135.98999	0.06528
1134.06132	0.06393
1132.13264	0.06242
1130.20397	0.06073
1128.27529	0.05888
1126.34662	0.05694
1124.41794	0.05492
1122.48926	0.05283
1120.56059	0.05062
1118.63191	0.04827
1116.70324	0.04581
1114.77456	0.04332
1112.84589	0.04083
1110.91721	0.03826
1108.98853	0.03562
1107.05986	0.03302
1105.13118	0.03053
1103.20251	0.02818
1101.27383	0.02597
1099.34516	0.02397
1097.41648	0.02224
1095.48780	0.02080
1093.55913	0.01960
1091.63045	0.01855
1089.70178	0.01766
1087.77310	0.01698
1085.84443	0.01646
1083.91575	0.01604
1081.98707	0.01575
1080.05840	0.01559
1078.12972	0.01553
1076.20105	0.01560
1074.27237	0.01580
1072.34370	0.01604
1070.41502	0.01626
1068.48634	0.01650
1066.55767	0.01684
1064.62899	0.01726
1062.70032	0.01779
1060.77164	0.01841
1058.84297	0.01914
1056.91429	0.02000
1054.98561	0.02091
1053.05694	0.02181
1051.12826	0.02277
1049.19959	0.02389
1047.27091	0.02512
1045.34224	0.02641
1043.41356	0.02782
1041.48488	0.02941
1039.55621	0.03116
1037.62753	0.03303
1035.69886	0.03500
1033.77018	0.03710
1031.84151	0.03935
1029.91283	0.04182
1027.98415	0.04453
1026.05548	0.04747
1024.12680	0.05056
1022.19813	0.05383
1020.26945	0.05734
1018.34078	0.06114
1016.41210	0.06521
1014.48342	0.06952
1012.55475	0.07404
1010.62607	0.07870
1008.69740	0.08341
1006.76872	0.08821
1004.84005	0.09314
1002.91137	0.09805
1000.98269	0.10276
999.05402	0.10725
997.12534	0.11152
995.19667	0.11557
993.26799	0.11939
991.33932	0.12298
989.41064	0.12624
987.48196	0.12913
985.55329	0.13172
983.62461	0.13406
981.69594	0.13604
979.76726	0.13766
977.83859	0.13905
975.90991	0.14024
973.98123	0.14117
972.05256	0.14189
970.12388	0.14253
968.19521	0.14307
966.26653	0.14351
964.33786	0.14386
962.40918	0.14414
960.48050	0.14431
958.55183	0.14435
956.62315	0.14437
954.69448	0.14445
952.76580	0.14457
950.83713	0.14460
948.90845	0.14445
946.97977	0.14420
945.05110	0.14389
943.12242	0.14354
941.19375	0.14317
939.26507	0.14275
937.33640	0.14229
935.40772	0.14182
933.47904	0.14134
931.55037	0.14083
929.62169	0.14022
927.69302	0.13957
925.76434	0.13897
923.83567	0.13837
921.90699	0.13772
919.97831	0.13709
918.04964	0.13648
916.12096	0.13581
914.19229	0.13511
912.26361	0.13442
910.33494	0.13372
908.40626	0.13306
906.47758	0.13251
904.54891	0.13200
902.62023	0.13144
900.69156	0.13092
898.76288	0.13047
896.83421	0.13002
894.90553	0.12962
892.97685	0.12929
891.04818	0.12893
889.11950	0.12852
887.19083	0.12812
885.26215	0.12774
883.33348	0.12737
881.40480	0.12700
879.47612	0.12664
877.54745	0.12629
875.61877	0.12588
873.69010	0.12535
871.76142	0.12476
869.83275	0.12419
867.90407	0.12361
865.97539	0.12287
864.04672	0.12198
862.11804	0.12102
860.18937	0.12006
858.26069	0.11905
856.33202	0.11797
854.40334	0.11677
852.47466	0.11547
850.54599	0.11413
848.61731	0.11281
846.68864	0.11152
844.75996	0.11026
842.83129	0.10899
840.90261	0.10769
838.97394	0.10639
837.04526	0.10504
835.11658	0.10361
833.18791	0.10214
831.25923	0.10063
829.33056	0.09904
827.40188	0.09746
825.47321	0.09607
823.54453	0.09490
821.61585	0.09389
819.68718	0.09300
817.75850	0.09222
815.82983	0.09157
813.90115	0.09111
811.97248	0.09084
810.04380	0.09063
808.11512	0.09042
806.18645	0.09036
804.25777	0.09058
802.32910	0.09088
800.40042	0.09106
798.47175	0.09108
796.54307	0.09104
794.61439	0.09112
792.68572	0.09142
790.75704	0.09191
788.82837	0.09253
786.89969	0.09323
784.97102	0.09392
783.04234	0.09456
781.11366	0.09520
779.18499	0.09589
777.25631	0.09655
775.32764	0.09716
773.39896	0.09779
771.47029	0.09837
769.54161	0.09876
767.61293	0.09892
765.68426	0.09896
763.75558	0.09892
761.82691	0.09879
759.89823	0.09851
757.96956	0.09815
756.04088	0.09774
754.11220	0.09728
752.18353	0.09679
750.25485	0.09626
748.32618	0.09564
746.39750	0.09494
744.46883	0.09418
742.54015	0.09340
740.61147	0.09273
738.68280	0.09229
736.75412	0.09217
734.82545	0.09223
732.89677	0.09227
730.96810	0.09225
729.03942	0.09222
727.11074	0.09225
725.18207	0.09234
723.25339	0.09243
721.32472	0.09254
719.39604	0.09268
717.46737	0.09289
715.53869	0.09320
713.61001	0.09365
711.68134	0.09408
709.75266	0.09432
707.82399	0.09434
705.89531	0.09419
703.96664	0.09392
702.03796	0.09352
700.10928	0.09300
698.18061	0.09244
696.25193	0.09185
694.32326	0.09124
692.39458	0.09064
690.46591	0.09011
688.53723	0.08959
686.60855	0.08904
684.67988	0.08849
682.75120	0.08790
680.82253	0.08725
678.89385	0.08658
676.96518	0.08591
675.03650	0.08522
673.10782	0.08448
671.17915	0.08353
669.25047	0.08247
667.32180	0.08155
665.39312	0.08062
663.46445	0.07936
661.53577	0.07785
659.60709	0.07641
657.67842	0.07525
655.74974	0.07439
653.82107	0.07376
651.89239	0.07328
649.96372	0.07284
648.03504	0.07233
646.10636	0.07169
644.17769	0.07090
642.24901	0.07001
640.32034	0.06901
638.39166	0.06798
636.46299	0.06698
634.53431	0.06594
632.60563	0.06453
630.67696	0.06228
628.74828	0.05897
626.81961	0.05487
624.89093	0.05071
622.96226	0.04741
621.03358	0.04536
619.10490	0.04423
617.17623	0.04348
615.24755	0.04272
613.31888	0.04177
611.39020	0.04076
609.46153	0.04008
607.53285	0.03995
605.60417	0.04019
603.67550	0.04061
601.74682	0.04129
599.81815	0.04223
597.88947	0.04310
595.96080	0.04366
594.03212	0.04395
592.10344	0.04416
590.17477	0.04428
588.24609	0.04420
586.31742	0.04394
584.38874	0.04357
582.46007	0.04312
580.53139	0.04269
578.60271	0.04234
576.67404	0.04197
574.74536	0.04148
572.81669	0.04088
570.88801	0.04027
568.95934	0.03969
567.03066	0.03918
565.10198	0.03878
563.17331	0.03843
561.24463	0.03813
559.31596	0.03785
557.38728	0.03758
555.45861	0.03738
553.52993	0.03724
551.60125	0.03710
549.67258	0.03688
547.74390	0.03658
545.81523	0.03631
543.88655	0.03617
541.95788	0.03609
540.02920	0.03598
538.10052	0.03578
536.17185	0.03555
534.24317	0.03531
532.31450	0.03500
530.38582	0.03467
528.45715	0.03434
526.52847	0.03399
524.59979	0.03363
522.67112	0.03322
520.74244	0.03264
518.81377	0.03191
516.88509	0.03116
514.95642	0.03049
513.02774	0.02997
511.09906	0.02956
509.17039	0.02912
507.24171	0.02864
505.31304	0.02818
503.38436	0.02770
501.45569	0.02710
499.52701	0.02636
497.59833	0.02556
495.66966	0.02479
493.74098	0.02410
491.81231	0.02335
489.88363	0.02251
487.95496	0.02171
486.02628	0.02089
484.09760	0.01987
482.16893	0.01883
480.24025	0.01793
478.31158	0.01705
476.38290	0.01618
474.45423	0.01541
472.52555	0.01477
470.59687	0.01429
468.66820	0.01382
466.73952	0.01324
464.81085	0.01266
462.88217	0.01222
460.95350	0.01194
459.02482	0.01169
457.09614	0.01145
455.16747	0.01138
453.23879	0.01148
451.31012	0.01155
449.38144	0.01158
447.45277	0.01160
445.52409	0.01156
443.59541	0.01147
441.66674	0.01151
439.73806	0.01161
437.80939	0.01163
435.88071	0.01160
433.95204	0.01154
432.02336	0.01146
430.09468	0.01133
428.16601	0.01113
426.23733	0.01088
424.30866	0.01068
422.37998	0.01053
420.45131	0.01037
418.52263	0.01011
416.59395	0.00977
414.66528	0.00943
412.73660	0.00909
410.80793	0.00878
408.87925	0.00850
406.95058	0.00827
405.02190	0.00804
403.09322	0.00773
401.16455	0.00733
399.23587	0.00693
397.30720	0.00654
395.37852	0.00611
393.44985	0.00568
391.52117	0.00538
389.59249	0.00522
387.66382	0.00500
385.73514	0.00463
383.80647	0.00431
381.87779	0.00411
379.94912	0.00384
378.02044	0.00350
376.09176	0.00330
374.16309	0.00314
372.23441	0.00286
370.30574	0.00248
368.37706	0.00211
