7496.76250	0.00119
7494.83382	0.00119
7492.90514	0.00119
7490.97647	0.00119
7489.04779	0.00120
7487.11912	0.00121
7485.19044	0.00122
7483.26177	0.00123
7481.33309	0.00123
7479.40441	0.00124
7477.47574	0.00124
7475.54706	0.00124
7473.61839	0.00123
7471.68971	0.00123
7469.76104	0.00125
7467.83236	0.00125
7465.90368	0.00125
7463.97501	0.00126
7462.04633	0.00127
7460.11766	0.00126
7458.18898	0.00125
7456.26031	0.00124
7454.33163	0.00126
7452.40295	0.00129
7450.47428	0.00130
7448.54560	0.00129
7446.61693	0.00129
7444.68825	0.00128
7442.75958	0.00128
7440.83090	0.00129
7438.90222	0.00129
7436.97355	0.00129
7435.04487	0.00130
7433.11620	0.00131
7431.18752	0.00131
7429.25885	0.00131
7427.33017	0.00131
7425.40149	0.00132
7423.47282	0.00134
7421.54414	0.00136
7419.61547	0.00135
7417.68679	0.00133
7415.75812	0.00132
7413.82944	0.00132
7411.90076	0.00133
7409.97209	0.00135
7408.04341	0.00136
7406.11474	0.00137
7404.18606	0.00137
7402.25739	0.00137
7400.32871	0.00137
7398.40003	0.00137
7396.47136	0.00138
7394.54268	0.00139
7392.61401	0.00139
7390.68533	0.00141
7388.75666	0.00142
7386.82798	0.00142
7384.89930	0.00141
7382.97063	0.00142
7381.04195	0.00143
7379.11328	0.00143
7377.18460	0.00143
7375.25593	0.00143
7373.32725	0.00144
7371.39857	0.00145
7369.46990	0.00146
7367.54122	0.00146
7365.61255	0.00144
7363.68387	0.00142
7361.75520	0.00142
7359.82652	0.00143
7357.89784	0.00144
7355.96917	0.00146
7354.04049	0.00147
7352.11182	0.00148
7350.18314	0.00148
7348.25447	0.00147
7346.32579	0.00146
7344.39711	0.00146
7342.46844	0.00148
7340.53976	0.00151
7338.61109	0.00153
7336.68241	0.00154
7334.75374	0.00153
7332.82506	0.00152
7330.89638	0.00151
7328.96771	0.00151
7327.03903	0.00154
7325.11036	0.00156
7323.18168	0.00158
7321.25301	0.00158
7319.32433	0.00157
7317.39565	0.00156
7315.46698	0.00156
7313.53830	0.00156
7311.60963	0.00157
7309.68095	0.00157
7307.75228	0.00158
7305.82360	0.00159
7303.89492	0.00159
7301.96625	0.00158
7300.03757	0.00158
7298.10890	0.00159
7296.18022	0.00160
7294.25155	0.00160
7292.32287	0.00160
7290.39419	0.00160
7288.46552	0.00160
7286.53684	0.00160
7284.60817	0.00161
7282.67949	0.00162
7280.75082	0.00162
7278.82214	0.00162
7276.89346	0.00162
7274.96479	0.00163
7273.03611	0.00164
7271.10744	0.00164
7269.17876	0.00165
7267.25009	0.00166
7265.32141	0.00167
7263.39273	0.00166
7261.46406	0.00166
7259.53538	0.00166
7257.60671	0.00167
7255.67803	0.00167
7253.74936	0.00167
7251.82068	0.00168
7249.89200	0.00168
7247.96333	0.00168
7246.03465	0.00170
7244.10598	0.00170
7242.17730	0.00171
7240.24863	0.00171
7238.31995	0.00172
7236.39127	0.00172
7234.46260	0.00172
7232.53392	0.00172
7230.60525	0.00174
7228.67657	0.00174
7226.74790	0.00175
7224.81922	0.00176
7222.89054	0.00176
7220.96187	0.00176
7219.03319	0.00177
7217.10452	0.00178
7215.17584	0.00179
7213.24717	0.00179
7211.31849	0.00178
7209.38981	0.00179
7207.46114	0.00179
7205.53246	0.00179
7203.60379	0.00179
7201.67511	0.00181
7199.74644	0.00183
7197.81776	0.00183
7195.88908	0.00183
7193.96041	0.00183
7192.03173	0.00183
7190.10306	0.00182
7188.17438	0.00183
7186.24571	0.00184
7184.31703	0.00185
7182.38835	0.00184
7180.45968	0.00184
7178.53100	0.00185
7176.60233	0.00186
7174.67365	0.00187
7172.74498	0.00188
7170.81630	0.00188
7168.88762	0.00188
7166.95895	0.00187
7165.03027	0.00187
7163.10160	0.00188
7161.17292	0.00188
7159.24425	0.00188
7157.31557	0.00188
7155.38689	0.00190
7153.45822	0.00191
7151.52954	0.00191
7149.60087	0.00191
7147.67219	0.00191
7145.74352	0.00193
7143.81484	0.00196
7141.88616	0.00198
7139.95749	0.00197
7138.02881	0.00196
7136.10014	0.00196
7134.17146	0.00198
7132.24279	0.00199
7130.31411	0.00200
7128.38543	0.00200
7126.45676	0.00201
7124.52808	0.00200
7122.59941	0.00200
7120.67073	0.00200
7118.74206	0.00201
7116.81338	0.00201
7114.88470	0.00200
7112.95603	0.00200
7111.02735	0.00202
7109.09868	0.00203
7107.17000	0.00204
7105.24133	0.00206
7103.31265	0.00207
7101.38397	0.00208
7099.45530	0.00208
7097.52662	0.00208
7095.59795	0.00208
7093.66927	0.00208
7091.74060	0.00208
7089.81192	0.00209
7087.88324	0.00210
7085.95457	0.00210
7084.02589	0.00210
7082.09722	0.00211
7080.16854	0.00212
7078.23987	0.00213
7076.31119	0.00212
7074.38251	0.00212
7072.45384	0.00212
7070.52516	0.00213
7068.59649	0.00213
7066.66781	0.00214
7064.73914	0.00215
7062.81046	0.00216
7060.88178	0.00217
7058.95311	0.00217
7057.02443	0.00218
7055.09576	0.00219
7053.16708	0.00220
7051.23841	0.00222
7049.30973	0.00221
7047.38105	0.00219
7045.45238	0.00219
7043.52370	0.00218
7041.59503	0.00219
7039.66635	0.00220
7037.73768	0.00222
7035.80900	0.00222
7033.88032	0.00223
7031.95165	0.00224
7030.02297	0.00225
7028.09430	0.00225
7026.16562	0.00226
7024.23695	0.00227
7022.30827	0.00228
7020.37959	0.00228
7018.45092	0.00230
7016.52224	0.00231
7014.59357	0.00231
7012.66489	0.00230
7010.73622	0.00230
7008.80754	0.00232
7006.87886	0.00234
7004.95019	0.00235
7003.02151	0.00234
7001.09284	0.00233
6999.16416	0.00232
6997.23549	0.00234
6995.30681	0.00235
6993.37813	0.00235
6991.44946	0.00234
6989.52078	0.00236
6987.59211	0.00240
6985.66343	0.00242
6983.73476	0.00243
6981.80608	0.00242
6979.87740	0.00239
6977.94873	0.00238
6976.02005	0.00238
6974.09138	0.00240
6972.16270	0.00242
6970.23403	0.00243
6968.30535	0.00244
6966.37667	0.00245
6964.44800	0.00246
6962.51932	0.00247
6960.59065	0.00248
6958.66197	0.00247
6956.73330	0.00246
6954.80462	0.00246
6952.87594	0.00247
6950.94727	0.00248
6949.01859	0.00248
6947.08992	0.00250
6945.16124	0.00251
6943.23257	0.00252
6941.30389	0.00253
6939.37521	0.00254
6937.44654	0.00255
6935.51786	0.00255
6933.58919	0.00255
6931.66051	0.00257
6929.73184	0.00258
6927.80316	0.00257
6925.87448	0.00255
6923.94581	0.00255
6922.01713	0.00257
6920.08846	0.00257
6918.15978	0.00256
6916.23111	0.00256
6914.30243	0.00258
6912.37375	0.00261
6910.44508	0.00262
6908.51640	0.00262
6906.58773	0.00262
6904.65905	0.00263
6902.73038	0.00263
6900.80170	0.00263
6898.87302	0.00262
6896.94435	0.00262
6895.01567	0.00264
6893.08700	0.00266
6891.15832	0.00268
6889.22965	0.00269
6887.30097	0.00269
6885.37229	0.00268
6883.44362	0.00268
6881.51494	0.00270
6879.58627	0.00272
6877.65759	0.00272
6875.72892	0.00273
6873.80024	0.00274
6871.87156	0.00276
6869.94289	0.00276
6868.01421	0.00276
6866.08554	0.00277
6864.15686	0.00280
6862.22819	0.00282
6860.29951	0.00281
6858.37083	0.00278
6856.44216	0.00277
6854.51348	0.00278
6852.58481	0.00280
6850.65613	0.00282
6848.72746	0.00282
6846.79878	0.00283
6844.87010	0.00285
6842.94143	0.00286
6841.01275	0.00286
6839.08408	0.00287
6837.15540	0.00288
6835.22673	0.00288
6833.29805	0.00288
6831.36937	0.00289
6829.44070	0.00293
6827.51202	0.00295
6825.58335	0.00293
6823.65467	0.00291
6821.72600	0.00291
6819.79732	0.00293
6817.86864	0.00294
6815.93997	0.00295
6814.01129	0.00295
6812.08262	0.00295
6810.15394	0.00296
6808.22527	0.00297
6806.29659	0.00299
6804.36791	0.00299
6802.43924	0.00299
6800.51056	0.00300
6798.58189	0.00302
6796.65321	0.00305
6794.72454	0.00305
6792.79586	0.00304
6790.86718	0.00306
6788.93851	0.00308
6787.00983	0.00308
6785.08116	0.00307
6783.15248	0.00306
6781.22381	0.00306
6779.29513	0.00307
6777.36645	0.00309
6775.43778	0.00310
6773.50910	0.00310
6771.58043	0.00311
6769.65175	0.00312
6767.72308	0.00313
6765.79440	0.00314
6763.86572	0.00315
6761.93705	0.00317
6760.00837	0.00317
6758.07970	0.00316
6756.15102	0.00315
6754.22235	0.00315
6752.29367	0.00316
6750.36499	0.00318
6748.43632	0.00321
6746.50764	0.00323
6744.57897	0.00324
6742.65029	0.00324
6740.72162	0.00324
6738.79294	0.00324
6736.86426	0.00326
6734.93559	0.00328
6733.00691	0.00329
6731.07824	0.00330
6729.14956	0.00331
6727.22089	0.00332
6725.29221	0.00331
6723.36353	0.00331
6721.43486	0.00331
6719.50618	0.00332
6717.57751	0.00332
6715.64883	0.00333
6713.72016	0.00334
6711.79148	0.00336
6709.86280	0.00338
6707.93413	0.00338
6706.00545	0.00337
6704.07678	0.00338
6702.14810	0.00339
6700.21943	0.00339
6698.29075	0.00341
6696.36207	0.00344
6694.43340	0.00344
6692.50472	0.00344
6690.57605	0.00344
6688.64737	0.00344
6686.71870	0.00345
6684.79002	0.00346
6682.86134	0.00348
6680.93267	0.00349
6679.00399	0.00349
6677.07532	0.00350
6675.14664	0.00351
6673.21797	0.00353
6671.28929	0.00354
6669.36061	0.00354
6667.43194	0.00354
6665.50326	0.00355
6663.57459	0.00357
6661.64591	0.00358
6659.71724	0.00359
6657.78856	0.00360
6655.85988	0.00362
6653.93121	0.00363
6652.00253	0.00364
6650.07386	0.00364
6648.14518	0.00364
6646.21651	0.00365
6644.28783	0.00367
6642.35915	0.00368
6640.43048	0.00367
6638.50180	0.00368
6636.57313	0.00371
6634.64445	0.00372
6632.71578	0.00373
6630.78710	0.00372
6628.85842	0.00372
6626.92975	0.00373
6625.00107	0.00375
6623.07240	0.00374
6621.14372	0.00374
6619.21505	0.00376
6617.28637	0.00379
6615.35769	0.00380
6613.42902	0.00380
6611.50034	0.00382
6609.57167	0.00384
6607.64299	0.00384
6605.71432	0.00383
6603.78564	0.00384
6601.85696	0.00385
6599.92829	0.00385
6597.99961	0.00387
6596.07094	0.00389
6594.14226	0.00391
6592.21359	0.00392
6590.28491	0.00393
6588.35623	0.00393
6586.42756	0.00393
6584.49888	0.00394
6582.57021	0.00396
6580.64153	0.00397
6578.71286	0.00397
6576.78418	0.00398
6574.85550	0.00400
6572.92683	0.00402
6570.99815	0.00402
6569.06948	0.00401
6567.14080	0.00401
6565.21213	0.00403
6563.28345	0.00404
6561.35477	0.00405
6559.42610	0.00406
6557.49742	0.00406
6555.56875	0.00406
6553.64007	0.00407
6551.71140	0.00408
6549.78272	0.00409
6547.85404	0.00410
6545.92537	0.00410
6543.99669	0.00410
6542.06802	0.00411
6540.13934	0.00413
6538.21067	0.00415
6536.28199	0.00418
6534.35331	0.00419
6532.42464	0.00421
6530.49596	0.00423
6528.56729	0.00424
6526.63861	0.00425
6524.70994	0.00424
6522.78126	0.00424
6520.85258	0.00425
6518.92391	0.00427
6516.99523	0.00429
6515.06656	0.00430
6513.13788	0.00430
6511.20921	0.00429
6509.28053	0.00429
6507.35185	0.00430
6505.42318	0.00431
6503.49450	0.00433
6501.56583	0.00436
6499.63715	0.00437
6497.70848	0.00438
6495.77980	0.00440
6493.85112	0.00442
6491.92245	0.00442
6489.99377	0.00442
6488.06510	0.00443
6486.13642	0.00444
6484.20775	0.00445
6482.27907	0.00446
6480.35039	0.00445
6478.42172	0.00445
6476.49304	0.00447
6474.56437	0.00450
6472.63569	0.00452
6470.70702	0.00452
6468.77834	0.00452
6466.84966	0.00455
6464.92099	0.00459
6462.99231	0.00461
6461.06364	0.00460
6459.13496	0.00458
6457.20629	0.00458
6455.27761	0.00459
6453.34893	0.00461
6451.42026	0.00464
6449.49158	0.00464
6447.56291	0.00463
6445.63423	0.00466
6443.70556	0.00469
6441.77688	0.00471
6439.84820	0.00471
6437.91953	0.00471
6435.99085	0.00473
6434.06218	0.00475
6432.13350	0.00475
6430.20483	0.00475
6428.27615	0.00476
6426.34747	0.00477
6424.41880	0.00479
6422.49012	0.00481
6420.56145	0.00482
6418.63277	0.00484
6416.70410	0.00485
6414.77542	0.00486
6412.84674	0.00487
6410.91807	0.00487
6408.98939	0.00489
6407.06072	0.00491
6405.13204	0.00492
6403.20337	0.00492
6401.27469	0.00492
6399.34601	0.00493
6397.41734	0.00496
6395.48866	0.00497
6393.55999	0.00498
6391.63131	0.00498
6389.70264	0.00499
6387.77396	0.00500
6385.84528	0.00501
6383.91661	0.00502
6381.98793	0.00503
6380.05926	0.00505
6378.13058	0.00506
6376.20191	0.00506
6374.27323	0.00506
6372.34455	0.00507
6370.41588	0.00510
6368.48720	0.00513
6366.55853	0.00515
6364.62985	0.00515
6362.70118	0.00516
6360.77250	0.00517
6358.84382	0.00520
6356.91515	0.00522
6354.98647	0.00524
6353.05780	0.00525
6351.12912	0.00525
6349.20045	0.00525
6347.27177	0.00525
6345.34309	0.00526
6343.41442	0.00528
6341.48574	0.00529
6339.55707	0.00530
6337.62839	0.00530
6335.69972	0.00531
6333.77104	0.00534
6331.84236	0.00536
6329.91369	0.00538
6327.98501	0.00538
6326.05634	0.00539
6324.12766	0.00541
6322.19899	0.00542
6320.27031	0.00542
6318.34163	0.00543
6316.41296	0.00544
6314.48428	0.00545
6312.55561	0.00546
6310.62693	0.00549
6308.69826	0.00552
6306.76958	0.00554
6304.84090	0.00554
6302.91223	0.00555
6300.98355	0.00558
6299.05488	0.00559
6297.12620	0.00560
6295.19753	0.00561
6293.26885	0.00563
6291.34017	0.00563
6289.41150	0.00563
6287.48282	0.00565
6285.55415	0.00566
6283.62547	0.00568
6281.69680	0.00568
6279.76812	0.00567
6277.83944	0.00568
6275.91077	0.00571
6273.98209	0.00573
6272.05342	0.00574
6270.12474	0.00576
6268.19607	0.00578
6266.26739	0.00579
6264.33871	0.00580
6262.41004	0.00581
6260.48136	0.00583
6258.55269	0.00584
6256.62401	0.00585
6254.69534	0.00586
6252.76666	0.00588
6250.83798	0.00591
6248.90931	0.00593
6246.98063	0.00594
6245.05196	0.00595
6243.12328	0.00595
6241.19461	0.00594
6239.26593	0.00595
6237.33725	0.00598
6235.40858	0.00601
6233.47990	0.00602
6231.55123	0.00603
6229.62255	0.00605
6227.69388	0.00608
6225.76520	0.00610
6223.83652	0.00609
6221.90785	0.00609
6219.97917	0.00610
6218.05050	0.00611
6216.12182	0.00613
6214.19315	0.00615
6212.26447	0.00616
6210.33579	0.00617
6208.40712	0.00619
6206.47844	0.00620
6204.54977	0.00621
6202.62109	0.00621
6200.69242	0.00623
6198.76374	0.00625
6196.83506	0.00626
6194.90639	0.00627
6192.97771	0.00629
6191.04904	0.00631
6189.12036	0.00634
6187.19169	0.00636
6185.26301	0.00636
6183.33433	0.00637
6181.40566	0.00638
6179.47698	0.00639
6177.54831	0.00642
6175.61963	0.00643
6173.69096	0.00645
6171.76228	0.00645
6169.83360	0.00647
6167.90493	0.00648
6165.97625	0.00649
6164.04758	0.00650
6162.11890	0.00652
6160.19023	0.00655
6158.26155	0.00657
6156.33287	0.00659
6154.40420	0.00661
6152.47552	0.00662
6150.54685	0.00663
6148.61817	0.00664
6146.68950	0.00666
6144.76082	0.00668
6142.83214	0.00669
6140.90347	0.00670
6138.97479	0.00671
6137.04612	0.00673
6135.11744	0.00674
6133.18877	0.00674
6131.26009	0.00675
6129.33141	0.00677
6127.40274	0.00679
6125.47406	0.00681
6123.54539	0.00683
6121.61671	0.00684
6119.68804	0.00686
6117.75936	0.00689
6115.83068	0.00690
6113.90201	0.00690
6111.97333	0.00691
6110.04466	0.00693
6108.11598	0.00696
6106.18731	0.00699
6104.25863	0.00700
6102.32995	0.00702
6100.40128	0.00705
6098.47260	0.00707
6096.54393	0.00709
6094.61525	0.00709
6092.68658	0.00709
6090.75790	0.00708
6088.82922	0.00709
6086.90055	0.00711
6084.97187	0.00715
6083.04320	0.00717
6081.11452	0.00717
6079.18585	0.00717
6077.25717	0.00721
6075.32849	0.00726
6073.39982	0.00728
6071.47114	0.00727
6069.54247	0.00727
6067.61379	0.00728
6065.68512	0.00730
6063.75644	0.00730
6061.82776	0.00731
6059.89909	0.00732
6057.97041	0.00733
6056.04174	0.00735
6054.11306	0.00738
6052.18439	0.00741
6050.25571	0.00742
6048.32703	0.00742
6046.39836	0.00743
6044.46968	0.00746
6042.54101	0.00749
6040.61233	0.00750
6038.68366	0.00750
6036.75498	0.00751
6034.82630	0.00752
6032.89763	0.00755
6030.96895	0.00757
6029.04028	0.00759
6027.11160	0.00761
6025.18293	0.00762
6023.25425	0.00764
6021.32557	0.00766
6019.39690	0.00767
6017.46822	0.00768
6015.53955	0.00770
6013.61087	0.00771
6011.68220	0.00772
6009.75352	0.00774
6007.82484	0.00777
6005.89617	0.00780
6003.96749	0.00780
6002.03882	0.00780
6000.11014	0.00781
5998.18147	0.00783
5996.25279	0.00786
5994.32411	0.00789
5992.39544	0.00791
5990.46676	0.00791
5988.53809	0.00791
5986.60941	0.00792
5984.68074	0.00794
5982.75206	0.00797
5980.82338	0.00800
5978.89471	0.00803
5976.96603	0.00806
5975.03736	0.00809
5973.10868	0.00810
5971.18001	0.00810
5969.25133	0.00809
5967.32265	0.00811
5965.39398	0.00814
5963.46530	0.00815
5961.53663	0.00816
5959.60795	0.00816
5957.67928	0.00819
5955.75060	0.00823
5953.82192	0.00825
5951.89325	0.00826
5949.96457	0.00826
5948.03590	0.00828
5946.10722	0.00831
5944.17855	0.00833
5942.24987	0.00834
5940.32119	0.00835
5938.39252	0.00837
5936.46384	0.00838
5934.53517	0.00840
5932.60649	0.00842
5930.67782	0.00845
5928.74914	0.00847
5926.82046	0.00849
5924.89179	0.00850
5922.96311	0.00852
5921.03444	0.00853
5919.10576	0.00855
5917.17709	0.00858
5915.24841	0.00860
5913.31973	0.00861
5911.39106	0.00863
5909.46238	0.00864
5907.53371	0.00865
5905.60503	0.00867
5903.67636	0.00869
5901.74768	0.00872
5899.81900	0.00875
5897.89033	0.00877
5895.96165	0.00880
5894.03298	0.00882
5892.10430	0.00883
5890.17563	0.00884
5888.24695	0.00884
5886.31827	0.00885
5884.38960	0.00888
5882.46092	0.00891
5880.53225	0.00893
5878.60357	0.00893
5876.67490	0.00894
5874.74622	0.00897
5872.81755	0.00899
5870.88887	0.00901
5868.96019	0.00904
5867.03152	0.00907
5865.10284	0.00907
5863.17417	0.00906
5861.24549	0.00907
5859.31682	0.00909
5857.38814	0.00911
5855.45946	0.00913
5853.53079	0.00917
5851.60211	0.00920
5849.67344	0.00922
5847.74476	0.00921
5845.81609	0.00922
5843.88741	0.00925
5841.95873	0.00928
5840.03006	0.00930
5838.10138	0.00931
5836.17271	0.00933
5834.24403	0.00934
5832.31536	0.00934
5830.38668	0.00937
5828.45800	0.00940
5826.52933	0.00942
5824.60065	0.00944
5822.67198	0.00947
5820.74330	0.00950
5818.81463	0.00952
5816.88595	0.00953
5814.95727	0.00954
5813.02860	0.00955
5811.09992	0.00959
5809.17125	0.00961
5807.24257	0.00962
5805.31390	0.00960
5803.38522	0.00961
5801.45654	0.00963
5799.52787	0.00966
5797.59919	0.00968
5795.67052	0.00971
5793.74184	0.00974
5791.81317	0.00976
5789.88449	0.00978
5787.95581	0.00980
5786.02714	0.00982
5784.09846	0.00985
5782.16979	0.00987
5780.24111	0.00988
5778.31244	0.00990
5776.38376	0.00991
5774.45508	0.00994
5772.52641	0.00997
5770.59773	0.00999
5768.66906	0.01000
5766.74038	0.01000
5764.81171	0.01002
5762.88303	0.01005
5760.95435	0.01008
5759.02568	0.01010
5757.09700	0.01010
5755.16833	0.01010
5753.23965	0.01013
5751.31098	0.01018
5749.38230	0.01020
5747.45362	0.01019
5745.52495	0.01019
5743.59627	0.01022
5741.66760	0.01025
5739.73892	0.01026
5737.81025	0.01027
5735.88157	0.01029
5733.95289	0.01032
5732.02422	0.01034
5730.09554	0.01037
5728.16687	0.01039
5726.23819	0.01042
5724.30952	0.01044
5722.38084	0.01045
5720.45216	0.01046
5718.52349	0.01048
5716.59481	0.01052
5714.66614	0.01055
5712.73746	0.01055
5710.80879	0.01054
5708.88011	0.01055
5706.95143	0.01057
5705.02276	0.01059
5703.09408	0.01061
5701.16541	0.01065
5699.23673	0.01070
5697.30806	0.01073
5695.37938	0.01073
5693.45070	0.01075
5691.52203	0.01077
5689.59335	0.01080
5687.66468	0.01083
5685.73600	0.01083
5683.80733	0.01083
5681.87865	0.01083
5679.94997	0.01086
5678.02130	0.01090
5676.09262	0.01093
5674.16395	0.01095
5672.23527	0.01098
5670.30660	0.01100
5668.37792	0.01101
5666.44924	0.01103
5664.52057	0.01103
5662.59189	0.01105
5660.66322	0.01107
5658.73454	0.01110
5656.80587	0.01113
5654.87719	0.01117
5652.94851	0.01119
5651.01984	0.01118
5649.09116	0.01117
5647.16249	0.01118
5645.23381	0.01121
5643.30514	0.01125
5641.37646	0.01127
5639.44778	0.01128
5637.51911	0.01129
5635.59043	0.01132
5633.66176	0.01135
5631.73308	0.01139
5629.80441	0.01142
5627.87573	0.01145
5625.94705	0.01145
5624.01838	0.01145
5622.08970	0.01148
5620.16103	0.01151
5618.23235	0.01151
5616.30368	0.01150
5614.37500	0.01150
5612.44632	0.01153
5610.51765	0.01158
5608.58897	0.01162
5606.66030	0.01165
5604.73162	0.01166
5602.80295	0.01166
5600.87427	0.01166
5598.94559	0.01169
5597.01692	0.01173
5595.08824	0.01176
5593.15957	0.01179
5591.23089	0.01181
5589.30222	0.01183
5587.37354	0.01184
5585.44486	0.01186
5583.51619	0.01188
5581.58751	0.01191
5579.65884	0.01193
5577.73016	0.01195
5575.80149	0.01197
5573.87281	0.01200
5571.94413	0.01202
5570.01546	0.01203
5568.08678	0.01202
5566.15811	0.01203
5564.22943	0.01208
5562.30076	0.01211
5560.37208	0.01213
5558.44340	0.01216
5556.51473	0.01218
5554.58605	0.01219
5552.65738	0.01220
5550.72870	0.01221
5548.80003	0.01223
5546.87135	0.01225
5544.94267	0.01226
5543.01400	0.01229
5541.08532	0.01232
5539.15665	0.01235
5537.22797	0.01238
5535.29930	0.01241
5533.37062	0.01244
5531.44194	0.01245
5529.51327	0.01245
5527.58459	0.01246
5525.65592	0.01246
5523.72724	0.01247
5521.79857	0.01250
5519.86989	0.01254
5517.94121	0.01257
5516.01254	0.01260
5514.08386	0.01264
5512.15519	0.01265
5510.22651	0.01267
5508.29784	0.01270
5506.36916	0.01274
5504.44048	0.01274
5502.51181	0.01273
5500.58313	0.01274
5498.65446	0.01278
5496.72578	0.01282
5494.79711	0.01283
5492.86843	0.01284
5490.93975	0.01287
5489.01108	0.01290
5487.08240	0.01293
5485.15373	0.01295
5483.22505	0.01298
5481.29638	0.01300
5479.36770	0.01300
5477.43902	0.01301
5475.51035	0.01302
5473.58167	0.01306
5471.65300	0.01310
5469.72432	0.01314
5467.79565	0.01316
5465.86697	0.01317
5463.93829	0.01318
5462.00962	0.01320
5460.08094	0.01323
5458.15227	0.01326
5456.22359	0.01329
5454.29492	0.01331
5452.36624	0.01331
5450.43756	0.01329
5448.50889	0.01329
5446.58021	0.01333
5444.65154	0.01337
5442.72286	0.01340
5440.79419	0.01342
5438.86551	0.01344
5436.93683	0.01344
5435.00816	0.01345
5433.07948	0.01347
5431.15081	0.01352
5429.22213	0.01355
5427.29346	0.01358
5425.36478	0.01360
5423.43610	0.01363
5421.50743	0.01365
5419.57875	0.01366
5417.65008	0.01367
5415.72140	0.01369
5413.79273	0.01371
5411.86405	0.01373
5409.93537	0.01376
5408.00670	0.01380
5406.07802	0.01382
5404.14935	0.01384
5402.22067	0.01387
5400.29200	0.01391
5398.36332	0.01391
5396.43464	0.01390
5394.50597	0.01390
5392.57729	0.01393
5390.64862	0.01396
5388.71994	0.01398
5386.79127	0.01401
5384.86259	0.01403
5382.93391	0.01405
5381.00524	0.01407
5379.07656	0.01410
5377.14789	0.01412
5375.21921	0.01413
5373.29054	0.01415
5371.36186	0.01418
5369.43318	0.01422
5367.50451	0.01425
5365.57583	0.01426
5363.64716	0.01425
5361.71848	0.01426
5359.78981	0.01429
5357.86113	0.01432
5355.93245	0.01434
5354.00378	0.01438
5352.07510	0.01441
5350.14643	0.01442
5348.21775	0.01442
5346.28908	0.01443
5344.36040	0.01446
5342.43172	0.01451
5340.50305	0.01455
5338.57437	0.01457
5336.64570	0.01459
5334.71702	0.01462
5332.78835	0.01465
5330.85967	0.01467
5328.93099	0.01468
5327.00232	0.01470
5325.07364	0.01473
5323.14497	0.01477
5321.21629	0.01479
5319.28762	0.01481
5317.35894	0.01481
5315.43026	0.01480
5313.50159	0.01482
5311.57291	0.01485
5309.64424	0.01489
5307.71556	0.01492
5305.78689	0.01496
5303.85821	0.01498
5301.92953	0.01500
5300.00086	0.01501
5298.07218	0.01504
5296.14351	0.01507
5294.21483	0.01509
5292.28616	0.01511
5290.35748	0.01512
5288.42880	0.01513
5286.50013	0.01514
5284.57145	0.01516
5282.64278	0.01518
5280.71410	0.01519
5278.78543	0.01521
5276.85675	0.01525
5274.92807	0.01527
5272.99940	0.01529
5271.07072	0.01531
5269.14205	0.01534
5267.21337	0.01535
5265.28470	0.01538
5263.35602	0.01541
5261.42734	0.01544
5259.49867	0.01544
5257.56999	0.01543
5255.64132	0.01546
5253.71264	0.01549
5251.78397	0.01553
5249.85529	0.01557
5247.92661	0.01560
5245.99794	0.01562
5244.06926	0.01564
5242.14059	0.01566
5240.21191	0.01567
5238.28324	0.01570
5236.35456	0.01574
5234.42588	0.01578
5232.49721	0.01580
5230.56853	0.01580
5228.63986	0.01582
5226.71118	0.01583
5224.78251	0.01585
5222.85383	0.01588
5220.92515	0.01590
5218.99648	0.01592
5217.06780	0.01594
5215.13913	0.01597
5213.21045	0.01600
5211.28178	0.01602
5209.35310	0.01603
5207.42442	0.01603
5205.49575	0.01606
5203.56707	0.01611
5201.63840	0.01615
5199.70972	0.01617
5197.78105	0.01618
5195.85237	0.01620
5193.92369	0.01623
5191.99502	0.01625
5190.06634	0.01625
5188.13767	0.01627
5186.20899	0.01630
5184.28032	0.01633
5182.35164	0.01635
5180.42296	0.01636
5178.49429	0.01640
5176.56561	0.01643
5174.63694	0.01644
5172.70826	0.01645
5170.77959	0.01648
5168.85091	0.01651
5166.92223	0.01652
5164.99356	0.01653
5163.06488	0.01656
5161.13621	0.01659
5159.20753	0.01662
5157.27886	0.01664
5155.35018	0.01668
5153.42150	0.01670
5151.49283	0.01670
5149.56415	0.01670
5147.63548	0.01673
5145.70680	0.01677
5143.77813	0.01679
5141.84945	0.01681
5139.92077	0.01683
5137.99210	0.01686
5136.06342	0.01688
5134.13475	0.01689
5132.20607	0.01690
5130.27740	0.01692
5128.34872	0.01697
5126.42004	0.01702
5124.49137	0.01706
5122.56269	0.01707
5120.63402	0.01707
5118.70534	0.01707
5116.77667	0.01710
5114.84799	0.01713
5112.91931	0.01715
5110.99064	0.01716
5109.06196	0.01719
5107.13329	0.01722
5105.20461	0.01725
5103.27594	0.01728
5101.34726	0.01730
5099.41858	0.01732
5097.48991	0.01734
5095.56123	0.01736
5093.63256	0.01736
5091.70388	0.01737
5089.77521	0.01740
5087.84653	0.01744
5085.91785	0.01748
5083.98918	0.01751
5082.06050	0.01754
5080.13183	0.01756
5078.20315	0.01758
5076.27448	0.01759
5074.34580	0.01760
5072.41712	0.01762
5070.48845	0.01764
5068.55977	0.01767
5066.63110	0.01769
5064.70242	0.01771
5062.77375	0.01773
5060.84507	0.01775
5058.91639	0.01777
5056.98772	0.01781
5055.05904	0.01784
5053.13037	0.01786
5051.20169	0.01790
5049.27302	0.01792
5047.34434	0.01792
5045.41566	0.01792
5043.48699	0.01795
5041.55831	0.01798
5039.62964	0.01801
5037.70096	0.01803
5035.77229	0.01806
5033.84361	0.01808
5031.91493	0.01810
5029.98626	0.01813
5028.05758	0.01816
5026.12891	0.01819
5024.20023	0.01822
5022.27156	0.01824
5020.34288	0.01827
5018.41420	0.01830
5016.48553	0.01831
5014.55685	0.01832
5012.62818	0.01834
5010.69950	0.01835
5008.77083	0.01838
5006.84215	0.01841
5004.91347	0.01845
5002.98480	0.01847
5001.05612	0.01849
4999.12745	0.01852
4997.19877	0.01856
4995.27010	0.01858
4993.34142	0.01860
4991.41274	0.01861
4989.48407	0.01862
4987.55539	0.01865
4985.62672	0.01868
4983.69804	0.01870
4981.76937	0.01872
4979.84069	0.01874
4977.91201	0.01877
4975.98334	0.01881
4974.05466	0.01884
4972.12599	0.01885
4970.19731	0.01885
4968.26864	0.01885
4966.33996	0.01887
4964.41128	0.01891
4962.48261	0.01895
4960.55393	0.01899
4958.62526	0.01902
4956.69658	0.01905
4954.76791	0.01908
4952.83923	0.01910
4950.91055	0.01912
4948.98188	0.01916
4947.05320	0.01921
4945.12453	0.01923
4943.19585	0.01923
4941.26718	0.01923
4939.33850	0.01926
4937.40982	0.01929
4935.48115	0.01931
4933.55247	0.01933
4931.62380	0.01936
4929.69512	0.01939
4927.76645	0.01941
4925.83777	0.01943
4923.90909	0.01946
4921.98042	0.01951
4920.05174	0.01953
4918.12307	0.01953
4916.19439	0.01954
4914.26572	0.01957
4912.33704	0.01959
4910.40836	0.01963
4908.47969	0.01968
4906.55101	0.01970
4904.62234	0.01970
4902.69366	0.01971
4900.76499	0.01973
4898.83631	0.01977
4896.90763	0.01981
4894.97896	0.01984
4893.05028	0.01987
4891.12161	0.01989
4889.19293	0.01989
4887.26426	0.01988
4885.33558	0.01990
4883.40690	0.01995
4881.47823	0.02000
4879.54955	0.02002
4877.62088	0.02004
4875.69220	0.02008
4873.76353	0.02011
4871.83485	0.02011
4869.90617	0.02012
4867.97750	0.02016
4866.04882	0.02018
4864.12015	0.02019
4862.19147	0.02021
4860.26280	0.02024
4858.33412	0.02028
4856.40544	0.02029
4854.47677	0.02031
4852.54809	0.02034
4850.61942	0.02037
4848.69074	0.02038
4846.76207	0.02041
4844.83339	0.02045
4842.90471	0.02047
4840.97604	0.02048
4839.04736	0.02051
4837.11869	0.02055
4835.19001	0.02057
4833.26134	0.02058
4831.33266	0.02061
4829.40398	0.02065
4827.47531	0.02068
4825.54663	0.02070
4823.61796	0.02074
4821.68928	0.02078
4819.76061	0.02081
4817.83193	0.02082
4815.90325	0.02084
4813.97458	0.02087
4812.04590	0.02088
4810.11723	0.02088
4808.18855	0.02088
4806.25988	0.02090
4804.33120	0.02094
4802.40252	0.02098
4800.47385	0.02100
4798.54517	0.02104
4796.61650	0.02108
4794.68782	0.02112
4792.75915	0.02114
4790.83047	0.02117
4788.90179	0.02121
4786.97312	0.02125
4785.04444	0.02128
4783.11577	0.02130
4781.18709	0.02130
4779.25842	0.02131
4777.32974	0.02134
4775.40106	0.02138
4773.47239	0.02140
4771.54371	0.02142
4769.61504	0.02145
4767.68636	0.02149
4765.75769	0.02151
4763.82901	0.02154
4761.90033	0.02157
4759.97166	0.02159
4758.04298	0.02162
4756.11431	0.02166
4754.18563	0.02169
4752.25696	0.02172
4750.32828	0.02175
4748.39960	0.02176
4746.47093	0.02178
4744.54225	0.02182
4742.61358	0.02186
4740.68490	0.02189
4738.75623	0.02191
4736.82755	0.02194
4734.89887	0.02199
4732.97020	0.02201
4731.04152	0.02203
4729.11285	0.02207
4727.18417	0.02210
4725.25550	0.02212
4723.32682	0.02214
4721.39814	0.02217
4719.46947	0.02219
4717.54079	0.02221
4715.61212	0.02224
4713.68344	0.02227
4711.75477	0.02231
4709.82609	0.02233
4707.89741	0.02234
4705.96874	0.02237
4704.04006	0.02241
4702.11139	0.02246
4700.18271	0.02251
4698.25404	0.02254
4696.32536	0.02255
4694.39668	0.02255
4692.46801	0.02257
4690.53933	0.02260
4688.61066	0.02264
4686.68198	0.02268
4684.75331	0.02271
4682.82463	0.02272
4680.89595	0.02272
4678.96728	0.02276
4677.03860	0.02281
4675.10993	0.02287
4673.18125	0.02290
4671.25258	0.02292
4669.32390	0.02294
4667.39522	0.02297
4665.46655	0.02301
4663.53787	0.02304
4661.60920	0.02306
4659.68052	0.02307
4657.75185	0.02310
4655.82317	0.02313
4653.89449	0.02317
4651.96582	0.02321
4650.03714	0.02324
4648.10847	0.02327
4646.17979	0.02331
4644.25112	0.02334
4642.32244	0.02335
4640.39376	0.02336
4638.46509	0.02339
4636.53641	0.02343
4634.60774	0.02346
4632.67906	0.02349
4630.75039	0.02352
4628.82171	0.02356
4626.89303	0.02361
4624.96436	0.02365
4623.03568	0.02368
4621.10701	0.02369
4619.17833	0.02371
4617.24966	0.02375
4615.32098	0.02380
4613.39230	0.02382
4611.46363	0.02384
4609.53495	0.02388
4607.60628	0.02395
4605.67760	0.02400
4603.74893	0.02401
4601.82025	0.02402
4599.89157	0.02405
4597.96290	0.02408
4596.03422	0.02412
4594.10555	0.02417
4592.17687	0.02422
4590.24820	0.02425
4588.31952	0.02429
4586.39084	0.02430
4584.46217	0.02431
4582.53349	0.02433
4580.60482	0.02437
4578.67614	0.02442
4576.74747	0.02446
4574.81879	0.02449
4572.89011	0.02451
4570.96144	0.02453
4569.03276	0.02455
4567.10409	0.02458
4565.17541	0.02463
4563.24674	0.02465
4561.31806	0.02468
4559.38938	0.02471
4557.46071	0.02475
4555.53203	0.02477
4553.60336	0.02480
4551.67468	0.02484
4549.74601	0.02488
4547.81733	0.02494
4545.88865	0.02498
4543.95998	0.02499
4542.03130	0.02500
4540.10263	0.02503
4538.17395	0.02510
4536.24528	0.02516
4534.31660	0.02519
4532.38792	0.02521
4530.45925	0.02525
4528.53057	0.02529
4526.60190	0.02531
4524.67322	0.02534
4522.74455	0.02538
4520.81587	0.02543
4518.88719	0.02546
4516.95852	0.02549
4515.02984	0.02553
4513.10117	0.02556
4511.17249	0.02559
4509.24382	0.02564
4507.31514	0.02568
4505.38646	0.02570
4503.45779	0.02573
4501.52911	0.02577
4499.60044	0.02581
4497.67176	0.02586
4495.74309	0.02591
4493.81441	0.02598
4491.88573	0.02603
4489.95706	0.02605
4488.02838	0.02607
4486.09971	0.02609
4484.17103	0.02613
4482.24236	0.02617
4480.31368	0.02621
4478.38500	0.02625
4476.45633	0.02631
4474.52765	0.02635
4472.59898	0.02636
4470.67030	0.02639
4468.74163	0.02643
4466.81295	0.02648
4464.88427	0.02651
4462.95560	0.02655
4461.02692	0.02659
4459.09825	0.02664
4457.16957	0.02670
4455.24090	0.02675
4453.31222	0.02677
4451.38354	0.02678
4449.45487	0.02681
4447.52619	0.02686
4445.59752	0.02693
4443.66884	0.02698
4441.74017	0.02700
4439.81149	0.02702
4437.88281	0.02706
4435.95414	0.02710
4434.02546	0.02715
4432.09679	0.02719
4430.16811	0.02721
4428.23944	0.02724
4426.31076	0.02730
4424.38208	0.02737
4422.45341	0.02743
4420.52473	0.02746
4418.59606	0.02747
4416.66738	0.02750
4414.73871	0.02754
4412.81003	0.02759
4410.88135	0.02764
4408.95268	0.02769
4407.02400	0.02774
4405.09533	0.02779
4403.16665	0.02785
4401.23798	0.02787
4399.30930	0.02790
4397.38062	0.02796
4395.45195	0.02803
4393.52327	0.02806
4391.59460	0.02806
4389.66592	0.02809
4387.73725	0.02814
4385.80857	0.02820
4383.87989	0.02825
4381.95122	0.02829
4380.02254	0.02833
4378.09387	0.02838
4376.16519	0.02845
4374.23652	0.02852
4372.30784	0.02858
4370.37916	0.02862
4368.45049	0.02864
4366.52181	0.02866
4364.59314	0.02870
4362.66446	0.02874
4360.73579	0.02880
4358.80711	0.02886
4356.87843	0.02891
4354.94976	0.02895
4353.02108	0.02898
4351.09241	0.02903
4349.16373	0.02909
4347.23506	0.02916
4345.30638	0.02919
4343.37770	0.02921
4341.44903	0.02925
4339.52035	0.02931
4337.59168	0.02936
4335.66300	0.02941
4333.73433	0.02945
4331.80565	0.02950
4329.87697	0.02956
4327.94830	0.02961
4326.01962	0.02964
4324.09095	0.02969
4322.16227	0.02976
4320.23360	0.02980
4318.30492	0.02984
4316.37624	0.02989
4314.44757	0.02997
4312.51889	0.03003
4310.59022	0.03004
4308.66154	0.03006
4306.73287	0.03013
4304.80419	0.03020
4302.87551	0.03025
4300.94684	0.03028
4299.01816	0.03032
4297.08949	0.03038
4295.16081	0.03044
4293.23214	0.03051
4291.30346	0.03058
4289.37478	0.03064
4287.44611	0.03070
4285.51743	0.03073
4283.58876	0.03076
4281.66008	0.03080
4279.73141	0.03084
4277.80273	0.03090
4275.87405	0.03098
4273.94538	0.03105
4272.01670	0.03108
4270.08803	0.03112
4268.15935	0.03117
4266.23068	0.03123
4264.30200	0.03127
4262.37332	0.03132
4260.44465	0.03138
4258.51597	0.03142
4256.58730	0.03147
4254.65862	0.03153
4252.72995	0.03159
4250.80127	0.03164
4248.87259	0.03169
4246.94392	0.03175
4245.01524	0.03179
4243.08657	0.03183
4241.15789	0.03188
4239.22922	0.03193
4237.30054	0.03197
4235.37186	0.03201
4233.44319	0.03208
4231.51451	0.03216
4229.58584	0.03223
4227.65716	0.03228
4225.72849	0.03232
4223.79981	0.03237
4221.87113	0.03243
4219.94246	0.03249
4218.01378	0.03254
4216.08511	0.03258
4214.15643	0.03263
4212.22776	0.03269
4210.29908	0.03275
4208.37040	0.03283
4206.44173	0.03290
4204.51305	0.03295
4202.58438	0.03299
4200.65570	0.03302
4198.72703	0.03309
4196.79835	0.03319
4194.86968	0.03327
4192.94100	0.03333
4191.01232	0.03338
4189.08365	0.03341
4187.15497	0.03344
4185.22630	0.03349
4183.29762	0.03359
4181.36895	0.03367
4179.44027	0.03372
4177.51159	0.03375
4175.58292	0.03380
4173.65424	0.03387
4171.72557	0.03394
4169.79689	0.03398
4167.86822	0.03404
4165.93954	0.03413
4164.01086	0.03422
4162.08219	0.03428
4160.15351	0.03433
4158.22484	0.03439
4156.29616	0.03445
4154.36749	0.03450
4152.43881	0.03456
4150.51013	0.03463
4148.58146	0.03469
4146.65278	0.03474
4144.72411	0.03480
4142.79543	0.03488
4140.86676	0.03495
4138.93808	0.03501
4137.00940	0.03506
4135.08073	0.03511
4133.15205	0.03517
4131.22338	0.03525
4129.29470	0.03533
4127.36603	0.03541
4125.43735	0.03546
4123.50867	0.03551
4121.58000	0.03557
4119.65132	0.03563
4117.72265	0.03569
4115.79397	0.03577
4113.86530	0.03586
4111.93662	0.03591
4110.00794	0.03595
4108.07927	0.03600
4106.15059	0.03606
4104.22192	0.03611
4102.29324	0.03617
4100.36457	0.03624
4098.43589	0.03631
4096.50721	0.03637
4094.57854	0.03644
4092.64986	0.03650
4090.72119	0.03656
4088.79251	0.03661
4086.86384	0.03668
4084.93516	0.03676
4083.00648	0.03683
4081.07781	0.03689
4079.14913	0.03695
4077.22046	0.03702
4075.29178	0.03711
4073.36311	0.03720
4071.43443	0.03728
4069.50575	0.03733
4067.57708	0.03738
4065.64840	0.03743
4063.71973	0.03749
4061.79105	0.03758
4059.86238	0.03767
4057.93370	0.03774
4056.00502	0.03781
4054.07635	0.03788
4052.14767	0.03794
4050.21900	0.03801
4048.29032	0.03808
4046.36165	0.03816
4044.43297	0.03823
4042.50429	0.03829
4040.57562	0.03834
4038.64694	0.03841
4036.71827	0.03850
4034.78959	0.03858
4032.86092	0.03865
4030.93224	0.03873
4029.00356	0.03880
4027.07489	0.03886
4025.14621	0.03893
4023.21754	0.03899
4021.28886	0.03905
4019.36019	0.03910
4017.43151	0.03917
4015.50283	0.03925
4013.57416	0.03933
4011.64548	0.03941
4009.71681	0.03948
4007.78813	0.03954
4005.85946	0.03961
4003.93078	0.03969
4002.00210	0.03977
4000.07343	0.03986
3998.14475	0.03995
3996.21608	0.04002
3994.28740	0.04011
3992.35873	0.04019
3990.43005	0.04025
3988.50137	0.04032
3986.57270	0.04038
3984.64402	0.04043
3982.71535	0.04051
3980.78667	0.04063
3978.85800	0.04073
3976.92932	0.04080
3975.00064	0.04087
3973.07197	0.04097
3971.14329	0.04103
3969.21462	0.04109
3967.28594	0.04117
3965.35727	0.04126
3963.42859	0.04132
3961.49991	0.04138
3959.57124	0.04147
3957.64256	0.04156
3955.71389	0.04163
3953.78521	0.04170
3951.85654	0.04176
3949.92786	0.04183
3947.99918	0.04192
3946.07051	0.04200
3944.14183	0.04207
3942.21316	0.04216
3940.28448	0.04227
3938.35581	0.04236
3936.42713	0.04243
3934.49845	0.04248
3932.56978	0.04255
3930.64110	0.04263
3928.71243	0.04271
3926.78375	0.04276
3924.85508	0.04283
3922.92640	0.04293
3920.99772	0.04303
3919.06905	0.04310
3917.14037	0.04317
3915.21170	0.04327
3913.28302	0.04340
3911.35435	0.04352
3909.42567	0.04360
3907.49699	0.04358
3905.56832	0.04352
3903.63964	0.04353
3901.71097	0.04365
3899.78229	0.04379
3897.85362	0.04394
3895.92494	0.04408
3893.99626	0.04415
3892.06759	0.04421
3890.13891	0.04430
3888.21024	0.04432
3886.28156	0.04430
3884.35289	0.04441
3882.42421	0.04458
3880.49553	0.04471
3878.56686	0.04483
3876.63818	0.04489
3874.70951	0.04487
3872.78083	0.04485
3870.85216	0.04489
3868.92348	0.04505
3866.99480	0.04527
3865.06613	0.04541
3863.13745	0.04550
3861.20878	0.04562
3859.28010	0.04571
3857.35143	0.04570
3855.42275	0.04559
3853.49407	0.04555
3851.56540	0.04575
3849.63672	0.04607
3847.70805	0.04627
3845.77937	0.04632
3843.85070	0.04630
3841.92202	0.04632
3839.99334	0.04642
3838.06467	0.04655
3836.13599	0.04669
3834.20732	0.04681
3832.27864	0.04691
3830.34997	0.04703
3828.42129	0.04714
3826.49261	0.04723
3824.56394	0.04723
3822.63526	0.04717
3820.70659	0.04723
3818.77791	0.04742
3816.84924	0.04759
3814.92056	0.04775
3812.99188	0.04793
3811.06321	0.04800
3809.13453	0.04797
3807.20586	0.04795
3805.27718	0.04805
3803.34851	0.04818
3801.41983	0.04830
3799.49115	0.04846
3797.56248	0.04862
3795.63380	0.04875
3793.70513	0.04887
3791.77645	0.04897
3789.84778	0.04904
3787.91910	0.04912
3785.99042	0.04918
3784.06175	0.04928
3782.13307	0.04938
3780.20440	0.04947
3778.27572	0.04959
3776.34705	0.04974
3774.41837	0.04985
3772.48969	0.04988
3770.56102	0.04988
3768.63234	0.04995
3766.70367	0.05007
3764.77499	0.05021
3762.84632	0.05032
3760.91764	0.05039
3758.98896	0.05044
3757.06029	0.05051
3755.13161	0.05055
3753.20294	0.05051
3751.27426	0.05045
3749.34559	0.05054
3747.41691	0.05072
3745.48823	0.05084
3743.55956	0.05099
3741.63088	0.05120
3739.70221	0.05128
3737.77353	0.05120
3735.84486	0.05112
3733.91618	0.05125
3731.98750	0.05153
3730.05883	0.05177
3728.13015	0.05189
3726.20148	0.05195
3724.27280	0.05205
3722.34413	0.05216
3720.41545	0.05225
3718.48677	0.05234
3716.55810	0.05240
3714.62942	0.05233
3712.70075	0.05219
3710.77207	0.05219
3708.84340	0.05234
3706.91472	0.05247
3704.98604	0.05247
3703.05737	0.05239
3701.12869	0.05234
3699.20002	0.05237
3697.27134	0.05239
3695.34267	0.05240
3693.41399	0.05236
3691.48531	0.05226
3689.55664	0.05217
3687.62796	0.05220
3685.69929	0.05228
3683.77061	0.05231
3681.84194	0.05228
3679.91326	0.05220
3677.98458	0.05202
3676.05591	0.05181
3674.12723	0.05176
3672.19856	0.05180
3670.26988	0.05185
3668.34121	0.05199
3666.41253	0.05215
3664.48385	0.05223
3662.55518	0.05224
3660.62650	0.05222
3658.69783	0.05212
3656.76915	0.05204
3654.84048	0.05208
3652.91180	0.05212
3650.98312	0.05201
3649.05445	0.05190
3647.12577	0.05202
3645.19710	0.05229
3643.26842	0.05252
3641.33975	0.05264
3639.41107	0.05272
3637.48239	0.05279
3635.55372	0.05282
3633.62504	0.05281
3631.69637	0.05270
3629.76769	0.05262
3627.83902	0.05281
3625.91034	0.05312
3623.98166	0.05332
3622.05299	0.05337
3620.12431	0.05337
3618.19564	0.05342
3616.26696	0.05354
3614.33829	0.05366
3612.40961	0.05374
3610.48093	0.05377
3608.55226	0.05381
3606.62358	0.05393
3604.69491	0.05409
3602.76623	0.05421
3600.83756	0.05428
3598.90888	0.05432
3596.98020	0.05436
3595.05153	0.05442
3593.12285	0.05453
3591.19418	0.05457
3589.26550	0.05457
3587.33683	0.05469
3585.40815	0.05492
3583.47947	0.05511
3581.55080	0.05521
3579.62212	0.05531
3577.69345	0.05543
3575.76477	0.05555
3573.83610	0.05565
3571.90742	0.05572
3569.97874	0.05574
3568.05007	0.05572
3566.12139	0.05578
3564.19272	0.05593
3562.26404	0.05610
3560.33537	0.05624
3558.40669	0.05635
3556.47801	0.05645
3554.54934	0.05656
3552.62066	0.05667
3550.69199	0.05676
3548.76331	0.05678
3546.83464	0.05681
3544.90596	0.05689
3542.97728	0.05700
3541.04861	0.05712
3539.11993	0.05719
3537.19126	0.05725
3535.26258	0.05734
3533.33391	0.05743
3531.40523	0.05747
3529.47655	0.05750
3527.54788	0.05755
3525.61920	0.05762
3523.69053	0.05770
3521.76185	0.05778
3519.83318	0.05783
3517.90450	0.05786
3515.97582	0.05789
3514.04715	0.05792
3512.11847	0.05798
3510.18980	0.05804
3508.26112	0.05808
3506.33245	0.05812
3504.40377	0.05816
3502.47509	0.05820
3500.54642	0.05824
3498.61774	0.05829
3496.68907	0.05834
3494.76039	0.05839
3492.83172	0.05844
3490.90304	0.05849
3488.97436	0.05855
3487.04569	0.05858
3485.11701	0.05860
3483.18834	0.05865
3481.25966	0.05872
3479.33099	0.05880
3477.40231	0.05887
3475.47363	0.05895
3473.54496	0.05904
3471.61628	0.05916
3469.68761	0.05929
3467.75893	0.05943
3465.83026	0.05954
3463.90158	0.05962
3461.97290	0.05970
3460.04423	0.05983
3458.11555	0.05999
3456.18688	0.06014
3454.25820	0.06024
3452.32953	0.06032
3450.40085	0.06042
3448.47217	0.06050
3446.54350	0.06059
3444.61482	0.06070
3442.68615	0.06086
3440.75747	0.06103
3438.82880	0.06118
3436.90012	0.06132
3434.97144	0.06150
3433.04277	0.06172
3431.11409	0.06196
3429.18542	0.06219
3427.25674	0.06241
3425.32807	0.06264
3423.39939	0.06284
3421.47071	0.06303
3419.54204	0.06323
3417.61336	0.06342
3415.68469	0.06359
3413.75601	0.06376
3411.82734	0.06390
3409.89866	0.06405
3407.96998	0.06421
3406.04131	0.06437
3404.11263	0.06451
3402.18396	0.06465
3400.25528	0.06481
3398.32661	0.06499
3396.39793	0.06518
3394.46925	0.06536
3392.54058	0.06551
3390.61190	0.06567
3388.68323	0.06586
3386.75455	0.06602
3384.82588	0.06615
3382.89720	0.06629
3380.96852	0.06648
3379.03985	0.06667
3377.11117	0.06682
3375.18250	0.06696
3373.25382	0.06712
3371.32515	0.06728
3369.39647	0.06743
3367.46779	0.06755
3365.53912	0.06766
3363.61044	0.06783
3361.68177	0.06803
3359.75309	0.06821
3357.82442	0.06836
3355.89574	0.06850
3353.96706	0.06866
3352.03839	0.06883
3350.10971	0.06899
3348.18104	0.06917
3346.25236	0.06935
3344.32369	0.06953
3342.39501	0.06968
3340.46633	0.06984
3338.53766	0.07001
3336.60898	0.07018
3334.68031	0.07034
3332.75163	0.07048
3330.82296	0.07060
3328.89428	0.07075
3326.96560	0.07095
3325.03693	0.07115
3323.10825	0.07130
3321.17958	0.07145
3319.25090	0.07163
3317.32223	0.07182
3315.39355	0.07196
3313.46487	0.07209
3311.53620	0.07225
3309.60752	0.07243
3307.67885	0.07263
3305.75017	0.07283
3303.82150	0.07299
3301.89282	0.07313
3299.96414	0.07327
3298.03547	0.07346
3296.10679	0.07365
3294.17812	0.07384
3292.24944	0.07403
3290.32077	0.07422
3288.39209	0.07440
3286.46341	0.07457
3284.53474	0.07473
3282.60606	0.07489
3280.67739	0.07505
3278.74871	0.07523
3276.82004	0.07540
3274.89136	0.07558
3272.96268	0.07578
3271.03401	0.07597
3269.10533	0.07615
3267.17666	0.07635
3265.24798	0.07656
3263.31931	0.07676
3261.39063	0.07691
3259.46195	0.07706
3257.53328	0.07724
3255.60460	0.07743
3253.67593	0.07761
3251.74725	0.07778
3249.81858	0.07795
3247.88990	0.07812
3245.96122	0.07832
3244.03255	0.07853
3242.10387	0.07871
3240.17520	0.07888
3238.24652	0.07909
3236.31785	0.07931
3234.38917	0.07951
3232.46049	0.07968
3230.53182	0.07982
3228.60314	0.07999
3226.67447	0.08017
3224.74579	0.08035
3222.81712	0.08054
3220.88844	0.08074
3218.95976	0.08094
3217.03109	0.08112
3215.10241	0.08129
3213.17374	0.08147
3211.24506	0.08165
3209.31639	0.08182
3207.38771	0.08200
3205.45903	0.08220
3203.53036	0.08241
3201.60168	0.08259
3199.67301	0.08277
3197.74433	0.08298
3195.81566	0.08320
3193.88698	0.08339
3191.95830	0.08358
3190.02963	0.08379
3188.10095	0.08402
3186.17228	0.08422
3184.24360	0.08440
3182.31493	0.08458
3180.38625	0.08477
3178.45757	0.08496
3176.52890	0.08515
3174.60022	0.08535
3172.67155	0.08555
3170.74287	0.08576
3168.81420	0.08599
3166.88552	0.08620
3164.95684	0.08637
3163.02817	0.08653
3161.09949	0.08672
3159.17082	0.08694
3157.24214	0.08718
3155.31347	0.08739
3153.38479	0.08753
3151.45611	0.08768
3149.52744	0.08786
3147.59876	0.08809
3145.67009	0.08831
3143.74141	0.08850
3141.81274	0.08867
3139.88406	0.08882
3137.95538	0.08898
3136.02671	0.08917
3134.09803	0.08939
3132.16936	0.08960
3130.24068	0.08980
3128.31201	0.09000
3126.38333	0.09021
3124.45465	0.09041
3122.52598	0.09058
3120.59730	0.09077
3118.66863	0.09099
3116.73995	0.09119
3114.81128	0.09136
3112.88260	0.09154
3110.95392	0.09175
3109.02525	0.09196
3107.09657	0.09215
3105.16790	0.09235
3103.23922	0.09254
3101.31055	0.09273
3099.38187	0.09291
3097.45319	0.09309
3095.52452	0.09328
3093.59584	0.09347
3091.66717	0.09367
3089.73849	0.09387
3087.80982	0.09407
3085.88114	0.09426
3083.95246	0.09444
3082.02379	0.09463
3080.09511	0.09483
3078.16644	0.09504
3076.23776	0.09525
3074.30909	0.09547
3072.38041	0.09567
3070.45173	0.09585
3068.52306	0.09603
3066.59438	0.09624
3064.66571	0.09645
3062.73703	0.09663
3060.80836	0.09682
3058.87968	0.09703
3056.95100	0.09725
3055.02233	0.09745
3053.09365	0.09762
3051.16498	0.09775
3049.23630	0.09792
3047.30763	0.09813
3045.37895	0.09835
3043.45027	0.09854
3041.52160	0.09870
3039.59292	0.09888
3037.66425	0.09909
3035.73557	0.09934
3033.80690	0.09955
3031.87822	0.09973
3029.94954	0.09991
3028.02087	0.10008
3026.09219	0.10026
3024.16352	0.10049
3022.23484	0.10072
3020.30617	0.10090
3018.37749	0.10108
3016.44881	0.10129
3014.52014	0.10148
3012.59146	0.10165
3010.66279	0.10184
3008.73411	0.10207
3006.80544	0.10232
3004.87676	0.10253
3002.94808	0.10268
3001.01941	0.10283
2999.09073	0.10301
2997.16206	0.10321
2995.23338	0.10340
2993.30471	0.10360
2991.37603	0.10380
2989.44735	0.10399
2987.51868	0.10414
2985.59000	0.10425
2983.66133	0.10436
2981.73265	0.10450
2979.80398	0.10462
2977.87530	0.10471
2975.94662	0.10479
2974.01795	0.10487
2972.08927	0.10491
2970.16060	0.10488
2968.23192	0.10486
2966.30325	0.10492
2964.37457	0.10506
2962.44589	0.10525
2960.51722	0.10545
2958.58854	0.10565
2956.65987	0.10587
2954.73119	0.10612
2952.80252	0.10639
2950.87384	0.10669
2948.94516	0.10695
2947.01649	0.10713
2945.08781	0.10726
2943.15914	0.10738
2941.23046	0.10746
2939.30179	0.10752
2937.37311	0.10754
2935.44443	0.10756
2933.51576	0.10756
2931.58708	0.10755
2929.65841	0.10752
2927.72973	0.10752
2925.80106	0.10757
2923.87238	0.10764
2921.94370	0.10772
2920.01503	0.10785
2918.08635	0.10807
2916.15768	0.10846
2914.22900	0.10902
2912.30033	0.10962
2910.37165	0.11014
2908.44297	0.11058
2906.51430	0.11095
2904.58562	0.11126
2902.65695	0.11154
2900.72827	0.11179
2898.79960	0.11206
2896.87092	0.11235
2894.94224	0.11266
2893.01357	0.11296
2891.08489	0.11323
2889.15622	0.11350
2887.22754	0.11378
2885.29887	0.11402
2883.37019	0.11420
2881.44151	0.11439
2879.51284	0.11458
2877.58416	0.11476
2875.65549	0.11492
2873.72681	0.11512
2871.79814	0.11534
2869.86946	0.11555
2867.94078	0.11574
2866.01211	0.11589
2864.08343	0.11600
2862.15476	0.11613
2860.22608	0.11623
2858.29741	0.11631
2856.36873	0.11638
2854.44005	0.11638
2852.51138	0.11636
2850.58270	0.11648
2848.65403	0.11687
2846.72535	0.11747
2844.79668	0.11811
2842.86800	0.11868
2840.93932	0.11913
2839.01065	0.11948
2837.08197	0.11976
2835.15330	0.12001
2833.22462	0.12028
2831.29595	0.12054
2829.36727	0.12076
2827.43859	0.12100
2825.50992	0.12125
2823.58124	0.12149
2821.65257	0.12173
2819.72389	0.12197
2817.79522	0.12220
2815.86654	0.12243
2813.93786	0.12268
2812.00919	0.12291
2810.08051	0.12313
2808.15184	0.12335
2806.22316	0.12356
2804.29449	0.12377
2802.36581	0.12400
2800.43713	0.12423
2798.50846	0.12444
2796.57978	0.12466
2794.65111	0.12489
2792.72243	0.12512
2790.79376	0.12533
2788.86508	0.12553
2786.93640	0.12576
2785.00773	0.12601
2783.07905	0.12624
2781.15038	0.12643
2779.22170	0.12663
2777.29303	0.12686
2775.36435	0.12712
2773.43567	0.12741
2771.50700	0.12767
2769.57832	0.12788
2767.64965	0.12804
2765.72097	0.12822
2763.79230	0.12845
2761.86362	0.12869
2759.93494	0.12891
2758.00627	0.12913
2756.07759	0.12936
2754.14892	0.12958
2752.22024	0.12977
2750.29157	0.12996
2748.36289	0.13015
2746.43421	0.13034
2744.50554	0.13055
2742.57686	0.13078
2740.64819	0.13101
2738.71951	0.13122
2736.79084	0.13143
2734.86216	0.13166
2732.93348	0.13190
2731.00481	0.13211
2729.07613	0.13232
2727.14746	0.13252
2725.21878	0.13271
2723.29011	0.13291
2721.36143	0.13314
2719.43275	0.13336
2717.50408	0.13356
2715.57540	0.13376
2713.64673	0.13397
2711.71805	0.13419
2709.78938	0.13442
2707.86070	0.13466
2705.93202	0.13487
2704.00335	0.13503
2702.07467	0.13521
2700.14600	0.13544
2698.21732	0.13568
2696.28865	0.13592
2694.35997	0.13614
2692.43129	0.13634
2690.50262	0.13653
2688.57394	0.13672
2686.64527	0.13693
2684.71659	0.13717
2682.78792	0.13737
2680.85924	0.13756
2678.93056	0.13777
2677.00189	0.13798
2675.07321	0.13819
2673.14454	0.13841
2671.21586	0.13865
2669.28719	0.13888
2667.35851	0.13910
2665.42983	0.13932
2663.50116	0.13953
2661.57248	0.13974
2659.64381	0.13993
2657.71513	0.14013
2655.78646	0.14035
2653.85778	0.14058
2651.92910	0.14081
2650.00043	0.14101
2648.07175	0.14122
2646.14308	0.14145
2644.21440	0.14170
2642.28573	0.14195
2640.35705	0.14218
2638.42837	0.14238
2636.49970	0.14258
2634.57102	0.14277
2632.64235	0.14299
2630.71367	0.14323
2628.78500	0.14348
2626.85632	0.14371
2624.92764	0.14394
2622.99897	0.14420
2621.07029	0.14447
2619.14162	0.14471
2617.21294	0.14490
2615.28427	0.14509
2613.35559	0.14531
2611.42691	0.14555
2609.49824	0.14581
2607.56956	0.14605
2605.64089	0.14623
2603.71221	0.14641
2601.78354	0.14664
2599.85486	0.14689
2597.92618	0.14709
2595.99751	0.14729
2594.06883	0.14751
2592.14016	0.14775
2590.21148	0.14800
2588.28281	0.14824
2586.35413	0.14845
2584.42545	0.14866
2582.49678	0.14885
2580.56810	0.14905
2578.63943	0.14925
2576.71075	0.14946
2574.78208	0.14968
2572.85340	0.14993
2570.92472	0.15020
2568.99605	0.15045
2567.06737	0.15068
2565.13870	0.15088
2563.21002	0.15108
2561.28135	0.15128
2559.35267	0.15146
2557.42399	0.15166
2555.49532	0.15188
2553.56664	0.15209
2551.63797	0.15230
2549.70929	0.15251
2547.78062	0.15273
2545.85194	0.15295
2543.92326	0.15317
2541.99459	0.15342
2540.06591	0.15367
2538.13724	0.15387
2536.20856	0.15403
2534.27989	0.15423
2532.35121	0.15448
2530.42253	0.15471
2528.49386	0.15491
2526.56518	0.15512
2524.63651	0.15536
2522.70783	0.15563
2520.77916	0.15585
2518.85048	0.15603
2516.92181	0.15623
2514.99313	0.15651
2513.06445	0.15678
2511.13578	0.15699
2509.20710	0.15717
2507.27843	0.15741
2505.34975	0.15769
2503.42108	0.15796
2501.49240	0.15820
2499.56372	0.15843
2497.63505	0.15863
2495.70637	0.15884
2493.77770	0.15909
2491.84902	0.15931
2489.92035	0.15952
2487.99167	0.15975
2486.06299	0.15999
2484.13432	0.16022
2482.20564	0.16045
2480.27697	0.16067
2478.34829	0.16090
2476.41962	0.16114
2474.49094	0.16136
2472.56226	0.16157
2470.63359	0.16179
2468.70491	0.16200
2466.77624	0.16223
2464.84756	0.16247
2462.91889	0.16271
2460.99021	0.16294
2459.06153	0.16316
2457.13286	0.16336
2455.20418	0.16353
2453.27551	0.16371
2451.34683	0.16393
2449.41816	0.16415
2447.48948	0.16435
2445.56080	0.16455
2443.63213	0.16477
2441.70345	0.16499
2439.77478	0.16519
2437.84610	0.16538
2435.91743	0.16557
2433.98875	0.16578
2432.06007	0.16601
2430.13140	0.16624
2428.20272	0.16646
2426.27405	0.16666
2424.34537	0.16687
2422.41670	0.16708
2420.48802	0.16727
2418.55934	0.16746
2416.63067	0.16766
2414.70199	0.16785
2412.77332	0.16805
2410.84464	0.16826
2408.91597	0.16844
2406.98729	0.16861
2405.05861	0.16880
2403.12994	0.16897
2401.20126	0.16914
2399.27259	0.16935
2397.34391	0.16956
2395.41524	0.16972
2393.48656	0.16984
2391.55788	0.17001
2389.62921	0.17021
2387.70053	0.17037
2385.77186	0.17047
2383.84318	0.17055
2381.91451	0.17064
2379.98583	0.17067
2378.05715	0.17066
2376.12848	0.17064
2374.19980	0.17063
2372.27113	0.17061
2370.34245	0.17055
2368.41378	0.17045
2366.48510	0.17034
2364.55642	0.17025
2362.62775	0.17009
2360.69907	0.16977
2358.77040	0.16917
2356.84172	0.16811
2354.91305	0.16634
2352.98437	0.16339
2351.05569	0.15877
2349.12702	0.15205
2347.19834	0.14349
2345.26967	0.13428
2343.34099	0.12658
2341.41232	0.12380
2339.48364	0.12881
2337.55496	0.14108
2335.62629	0.15492
2333.69761	0.16412
2331.76894	0.16835
2329.84026	0.17035
2327.91159	0.17170
2325.98291	0.17301
2324.05423	0.17427
2322.12556	0.17536
2320.19688	0.17620
2318.26821	0.17686
2316.33953	0.17740
2314.41086	0.17786
2312.48218	0.17827
2310.55350	0.17860
2308.62483	0.17891
2306.69615	0.17920
2304.76748	0.17947
2302.83880	0.17974
2300.91013	0.18005
2298.98145	0.18034
2297.05277	0.18059
2295.12410	0.18083
2293.19542	0.18107
2291.26675	0.18131
2289.33807	0.18156
2287.40940	0.18178
2285.48072	0.18197
2283.55204	0.18210
2281.62337	0.18219
2279.69469	0.18227
2277.76602	0.18241
2275.83734	0.18262
2273.90867	0.18298
2271.97999	0.18346
2270.05131	0.18390
2268.12264	0.18424
2266.19396	0.18453
2264.26529	0.18480
2262.33661	0.18505
2260.40794	0.18526
2258.47926	0.18547
2256.55058	0.18569
2254.62191	0.18595
2252.69323	0.18618
2250.76456	0.18638
2248.83588	0.18659
2246.90721	0.18681
2244.97853	0.18705
2243.04985	0.18728
2241.12118	0.18753
2239.19250	0.18775
2237.26383	0.18796
2235.33515	0.18816
2233.40648	0.18837
2231.47780	0.18858
2229.54912	0.18876
2227.62045	0.18896
2225.69177	0.18917
2223.76310	0.18939
2221.83442	0.18960
2219.90575	0.18980
2217.97707	0.19001
2216.04839	0.19024
2214.11972	0.19044
2212.19104	0.19062
2210.26237	0.19082
2208.33369	0.19102
2206.40502	0.19119
2204.47634	0.19137
2202.54766	0.19156
2200.61899	0.19173
2198.69031	0.19192
2196.76164	0.19212
2194.83296	0.19232
2192.90429	0.19252
2190.97561	0.19271
2189.04693	0.19289
2187.11826	0.19307
2185.18958	0.19326
2183.26091	0.19345
2181.33223	0.19363
2179.40356	0.19381
2177.47488	0.19397
2175.54620	0.19413
2173.61753	0.19435
2171.68885	0.19461
2169.76018	0.19485
2167.83150	0.19504
2165.90283	0.19520
2163.97415	0.19537
2162.04547	0.19556
2160.11680	0.19575
2158.18812	0.19595
2156.25945	0.19619
2154.33077	0.19642
2152.40210	0.19659
2150.47342	0.19674
2148.54474	0.19693
2146.61607	0.19716
2144.68739	0.19739
2142.75872	0.19759
2140.83004	0.19776
2138.90137	0.19793
2136.97269	0.19810
2135.04401	0.19830
2133.11534	0.19851
2131.18666	0.19869
2129.25799	0.19885
2127.32931	0.19903
2125.40064	0.19925
2123.47196	0.19946
2121.54328	0.19964
2119.61461	0.19982
2117.68593	0.20002
2115.75726	0.20018
2113.82858	0.20033
2111.89991	0.20052
2109.97123	0.20070
2108.04255	0.20086
2106.11388	0.20101
2104.18520	0.20117
2102.25653	0.20137
2100.32785	0.20159
2098.39918	0.20178
2096.47050	0.20195
2094.54182	0.20214
2092.61315	0.20232
2090.68447	0.20243
2088.75580	0.20253
2086.82712	0.20266
2084.89845	0.20283
2082.96977	0.20306
2081.04109	0.20329
2079.11242	0.20346
2077.18374	0.20357
2075.25507	0.20371
2073.32639	0.20390
2071.39772	0.20407
2069.46904	0.20421
2067.54036	0.20433
2065.61169	0.20445
2063.68301	0.20458
2061.75434	0.20474
2059.82566	0.20490
2057.89699	0.20506
2055.96831	0.20522
2054.03963	0.20537
2052.11096	0.20553
2050.18228	0.20567
2048.25361	0.20579
2046.32493	0.20591
2044.39626	0.20604
2042.46758	0.20616
2040.53890	0.20630
2038.61023	0.20650
2036.68155	0.20669
2034.75288	0.20682
2032.82420	0.20692
2030.89553	0.20708
2028.96685	0.20723
2027.03817	0.20735
2025.10950	0.20746
2023.18082	0.20761
2021.25215	0.20775
2019.32347	0.20787
2017.39480	0.20800
2015.46612	0.20813
2013.53744	0.20825
2011.60877	0.20835
2009.68009	0.20846
2007.75142	0.20860
2005.82274	0.20875
2003.89407	0.20889
2001.96539	0.20903
2000.03671	0.20917
1998.10804	0.20933
1996.17936	0.20946
1994.25069	0.20949
1992.32201	0.20951
1990.39334	0.20964
1988.46466	0.20984
1986.53598	0.21001
1984.60731	0.21016
1982.67863	0.21031
1980.74996	0.21045
1978.82128	0.21056
1976.89261	0.21067
1974.96393	0.21076
1973.03525	0.21085
1971.10658	0.21094
1969.17790	0.21104
1967.24923	0.21116
1965.32055	0.21130
1963.39188	0.21144
1961.46320	0.21161
1959.53452	0.21177
1957.60585	0.21190
1955.67717	0.21205
1953.74850	0.21220
1951.81982	0.21230
1949.89115	0.21241
1947.96247	0.21255
1946.03379	0.21265
1944.10512	0.21266
1942.17644	0.21275
1940.24777	0.21304
1938.31909	0.21336
1936.39042	0.21355
1934.46174	0.21365
1932.53306	0.21371
1930.60439	0.21381
1928.67571	0.21397
1926.74704	0.21409
1924.81836	0.21411
1922.88969	0.21413
1920.96101	0.21422
1919.03233	0.21434
1917.10366	0.21454
1915.17498	0.21482
1913.24631	0.21500
1911.31763	0.21507
1909.38896	0.21511
1907.46028	0.21519
1905.53160	0.21530
1903.60293	0.21541
1901.67425	0.21554
1899.74558	0.21566
1897.81690	0.21571
1895.88823	0.21574
1893.95955	0.21581
1892.03087	0.21586
1890.10220	0.21583
1888.17352	0.21591
1886.24485	0.21610
1884.31617	0.21624
1882.38750	0.21635
1880.45882	0.21647
1878.53014	0.21658
1876.60147	0.21669
1874.67279	0.21681
1872.74412	0.21684
1870.81544	0.21671
1868.88677	0.21665
1866.95809	0.21690
1865.02941	0.21727
1863.10074	0.21750
1861.17206	0.21761
1859.24339	0.21774
1857.31471	0.21793
1855.38604	0.21811
1853.45736	0.21826
1851.52868	0.21842
1849.60001	0.21849
1847.67133	0.21841
1845.74266	0.21829
1843.81398	0.21845
1841.88531	0.21891
1839.95663	0.21933
1838.02795	0.21954
1836.09928	0.21967
1834.17060	0.21978
1832.24193	0.21985
1830.31325	0.21993
1828.38458	0.22010
1826.45590	0.22023
1824.52722	0.22035
1822.59855	0.22059
1820.66987	0.22089
1818.74120	0.22113
1816.81252	0.22129
1814.88385	0.22135
1812.95517	0.22135
1811.02649	0.22142
1809.09782	0.22160
1807.16914	0.22178
1805.24047	0.22182
1803.31179	0.22173
1801.38312	0.22167
1799.45444	0.22180
1797.52576	0.22201
1795.59709	0.22202
1793.66841	0.22186
1791.73974	0.22194
1789.81106	0.22235
1787.88239	0.22266
1785.95371	0.22265
1784.02503	0.22259
1782.09636	0.22264
1780.16768	0.22277
1778.23901	0.22291
1776.31033	0.22290
1774.38166	0.22266
1772.45298	0.22242
1770.52430	0.22247
1768.59563	0.22276
1766.66695	0.22308
1764.73828	0.22321
1762.80960	0.22310
1760.88093	0.22304
1758.95225	0.22309
1757.02357	0.22310
1755.09490	0.22299
1753.16622	0.22256
1751.23755	0.22205
1749.30887	0.22196
1747.38020	0.22216
1745.45152	0.22226
1743.52284	0.22220
1741.59417	0.22202
1739.66549	0.22193
1737.73682	0.22194
1735.80814	0.22170
1733.87947	0.22142
1731.95079	0.22161
1730.02211	0.22203
1728.09344	0.22233
1726.16476	0.22250
1724.23609	0.22256
1722.30741	0.22251
1720.37874	0.22215
1718.45006	0.22163
1716.52138	0.22163
1714.59271	0.22216
1712.66403	0.22266
1710.73536	0.22287
1708.80668	0.22281
1706.87801	0.22264
1704.94933	0.22261
1703.02065	0.22249
1701.09198	0.22214
1699.16330	0.22198
1697.23463	0.22206
1695.30595	0.22224
1693.37728	0.22252
1691.44860	0.22259
1689.51992	0.22244
1687.59125	0.22212
1685.66257	0.22151
1683.73390	0.22115
1681.80522	0.22147
1679.87655	0.22190
1677.94787	0.22174
1676.01919	0.22122
1674.09052	0.22104
1672.16184	0.22110
1670.23317	0.22115
1668.30449	0.22143
1666.37582	0.22174
1664.44714	0.22170
1662.51846	0.22155
1660.58979	0.22159
1658.66111	0.22157
1656.73244	0.22100
1654.80376	0.21991
1652.87509	0.21934
1650.94641	0.21982
1649.01773	0.22025
1647.08906	0.22028
1645.16038	0.22059
1643.23171	0.22102
1641.30303	0.22109
1639.37436	0.22079
1637.44568	0.22037
1635.51700	0.22029
1633.58833	0.22064
1631.65965	0.22095
1629.73098	0.22090
1627.80230	0.22067
1625.87363	0.22032
1623.94495	0.21981
1622.01627	0.21941
1620.08760	0.21928
1618.15892	0.21941
1616.23025	0.21998
1614.30157	0.22078
1612.37290	0.22130
1610.44422	0.22151
1608.51554	0.22172
1606.58687	0.22199
1604.65819	0.22221
1602.72952	0.22240
1600.80084	0.22264
1598.87217	0.22285
1596.94349	0.22296
1595.01481	0.22304
1593.08614	0.22314
1591.15746	0.22321
1589.22879	0.22327
1587.30011	0.22335
1585.37144	0.22348
1583.44276	0.22365
1581.51408	0.22375
1579.58541	0.22351
1577.65673	0.22300
1575.72806	0.22288
1573.79938	0.22330
1571.87071	0.22348
1569.94203	0.22329
1568.01335	0.22331
1566.08468	0.22347
1564.15600	0.22348
1562.22733	0.22308
1560.29865	0.22233
1558.36998	0.22203
1556.44130	0.22260
1554.51262	0.22332
1552.58395	0.22357
1550.65527	0.22356
1548.72660	0.22357
1546.79792	0.22338
1544.86925	0.22280
1542.94057	0.22219
1541.01189	0.22198
1539.08322	0.22236
1537.15454	0.22288
1535.22587	0.22294
1533.29719	0.22285
1531.36852	0.22305
1529.43984	0.22316
1527.51116	0.22294
1525.58249	0.22258
1523.65381	0.22210
1521.72514	0.22176
1519.79646	0.22188
1517.86779	0.22210
1515.93911	0.22214
1514.01043	0.22216
1512.08176	0.22206
1510.15308	0.22152
1508.22441	0.22078
1506.29573	0.22077
1504.36706	0.22150
1502.43838	0.22190
1500.50970	0.22157
1498.58103	0.22100
1496.65235	0.22068
1494.72368	0.22077
1492.79500	0.22078
1490.86633	0.22039
1488.93765	0.22000
1487.00897	0.21990
1485.08030	0.21989
1483.15162	0.21967
1481.22295	0.21929
1479.29427	0.21882
1477.36560	0.21815
1475.43692	0.21734
1473.50824	0.21667
1471.57957	0.21636
1469.65089	0.21617
1467.72222	0.21565
1465.79354	0.21493
1463.86487	0.21454
1461.93619	0.21431
1460.00751	0.21362
1458.07884	0.21272
1456.15016	0.21252
1454.22149	0.21294
1452.29281	0.21313
1450.36414	0.21294
1448.43546	0.21270
1446.50678	0.21261
1444.57811	0.21267
1442.64943	0.21271
1440.72076	0.21259
1438.79208	0.21226
1436.86341	0.21197
1434.93473	0.21198
1433.00605	0.21211
1431.07738	0.21210
1429.14870	0.21202
1427.22003	0.21185
1425.29135	0.21153
1423.36268	0.21115
1421.43400	0.21060
1419.50532	0.21002
1417.57665	0.20997
1415.64797	0.21028
1413.71930	0.21036
1411.79062	0.21018
1409.86195	0.20995
1407.93327	0.20968
1406.00459	0.20938
1404.07592	0.20913
1402.14724	0.20888
1400.21857	0.20846
1398.28989	0.20793
1396.36122	0.20752
1394.43254	0.20731
1392.50386	0.20718
1390.57519	0.20686
1388.64651	0.20625
1386.71784	0.20561
1384.78916	0.20517
1382.86049	0.20492
1380.93181	0.20468
1379.00313	0.20435
1377.07446	0.20390
1375.14578	0.20342
1373.21711	0.20314
1371.28843	0.20302
1369.35976	0.20282
1367.43108	0.20252
1365.50240	0.20212
1363.57373	0.20165
1361.64505	0.20132
1359.71638	0.20111
1357.78770	0.20085
1355.85903	0.20052
1353.93035	0.20021
1352.00167	0.19995
1350.07300	0.19970
1348.14432	0.19942
1346.21565	0.19909
1344.28697	0.19870
1342.35830	0.19822
1340.42962	0.19770
1338.50094	0.19727
1336.57227	0.19688
1334.64359	0.19644
1332.71492	0.19590
1330.78624	0.19530
1328.85757	0.19471
1326.92889	0.19410
1325.00021	0.19344
1323.07154	0.19275
1321.14286	0.19205
1319.21419	0.19136
1317.28551	0.19068
1315.35684	0.19000
1313.42816	0.18928
1311.49948	0.18852
1309.57081	0.18775
1307.64213	0.18697
1305.71346	0.18611
1303.78478	0.18524
1301.85611	0.18444
1299.92743	0.18368
1297.99875	0.18286
1296.07008	0.18199
1294.14140	0.18113
1292.21273	0.18026
1290.28405	0.17937
1288.35538	0.17844
1286.42670	0.17744
1284.49802	0.17641
1282.56935	0.17538
1280.64067	0.17430
1278.71200	0.17314
1276.78332	0.17187
1274.85465	0.17046
1272.92597	0.16891
1270.99729	0.16722
1269.06862	0.16534
1267.13994	0.16332
1265.21127	0.16128
1263.28259	0.15936
1261.35392	0.15769
1259.42524	0.15622
1257.49656	0.15477
1255.56789	0.15320
1253.63921	0.15151
1251.71054	0.14972
1249.78186	0.14781
1247.85319	0.14584
1245.92451	0.14391
1243.99583	0.14203
1242.06716	0.14020
1240.13848	0.13835
1238.20981	0.13643
1236.28113	0.13447
1234.35246	0.13254
1232.42378	0.13069
1230.49510	0.12892
1228.56643	0.12719
1226.63775	0.12551
1224.70908	0.12391
1222.78040	0.12239
1220.85173	0.12087
1218.92305	0.11933
1216.99437	0.11779
1215.06570	0.11626
1213.13702	0.11474
1211.20835	0.11327
1209.27967	0.11181
1207.35100	0.11034
1205.42232	0.10891
1203.49364	0.10761
1201.56497	0.10639
1199.63629	0.10512
1197.70762	0.10380
1195.77894	0.10253
1193.85027	0.10125
1191.92159	0.09994
1189.99291	0.09867
1188.06424	0.09743
1186.13556	0.09618
1184.20689	0.09493
1182.27821	0.09366
1180.34954	0.09235
1178.42086	0.09108
1176.49218	0.08990
1174.56351	0.08876
1172.63483	0.08758
1170.70616	0.08636
1168.77748	0.08511
1166.84881	0.08388
1164.92013	0.08270
1162.99145	0.08158
1161.06278	0.08050
1159.13410	0.07946
1157.20543	0.07841
1155.27675	0.07733
1153.34808	0.07624
1151.41940	0.07515
1149.49072	0.07403
1147.56205	0.07292
1145.63337	0.07183
1143.70470	0.07069
1141.77602	0.06951
1139.84735	0.06833
1137.91867	0.06713
1135.98999	0.06587
1134.06132	0.06448
1132.13264	0.06293
1130.20397	0.06121
1128.27529	0.05935
1126.34662	0.05738
1124.41794	0.05527
1122.48926	0.05311
1120.56059	0.05093
1118.63191	0.04870
1116.70324	0.04635
1114.77456	0.04385
1112.84589	0.04130
1110.91721	0.03876
1108.98853	0.03615
1107.05986	0.03352
1105.13118	0.03095
1103.20251	0.02848
1101.27383	0.02624
1099.34516	0.02428
1097.41648	0.02256
1095.48780	0.02106
1093.55913	0.01979
1091.63045	0.01876
1089.70178	0.01791
1087.77310	0.01718
1085.84443	0.01656
1083.91575	0.01615
1081.98707	0.01592
1080.05840	0.01581
1078.12972	0.01580
1076.20105	0.01585
1074.27237	0.01597
1072.34370	0.01616
1070.41502	0.01639
1068.48634	0.01670
1066.55767	0.01714
1064.62899	0.01762
1062.70032	0.01814
1060.77164	0.01871
1058.84297	0.01933
1056.91429	0.02007
1054.98561	0.02093
1053.05694	0.02194
1051.12826	0.02312
1049.19959	0.02432
1047.27091	0.02553
1045.34224	0.02685
1043.41356	0.02829
1041.48488	0.02982
1039.55621	0.03146
1037.62753	0.03325
1035.69886	0.03520
1033.77018	0.03729
1031.84151	0.03957
1029.91283	0.04208
1027.98415	0.04478
1026.05548	0.04768
1024.12680	0.05082
1022.19813	0.05420
1020.26945	0.05778
1018.34078	0.06158
1016.41210	0.06565
1014.48342	0.06999
1012.55475	0.07456
1010.62607	0.07925
1008.69740	0.08407
1006.76872	0.08895
1004.84005	0.09380
1002.91137	0.09858
1000.98269	0.10327
999.05402	0.10779
997.12534	0.11211
995.19667	0.11622
993.26799	0.12007
991.33932	0.12355
989.41064	0.12667
987.48196	0.12959
985.55329	0.13232
983.62461	0.13472
981.69594	0.13670
979.76726	0.13827
977.83859	0.13954
975.90991	0.14065
973.98123	0.14166
972.05256	0.14253
970.12388	0.14321
968.19521	0.14374
966.26653	0.14411
964.33786	0.14437
962.40918	0.14462
960.48050	0.14489
958.55183	0.14512
956.62315	0.14528
954.69448	0.14537
952.76580	0.14539
950.83713	0.14535
948.90845	0.14520
946.97977	0.14494
945.05110	0.14469
943.12242	0.14443
941.19375	0.14401
939.26507	0.14345
937.33640	0.14292
935.40772	0.14242
933.47904	0.14187
931.55037	0.14128
929.62169	0.14069
927.69302	0.14009
925.76434	0.13953
923.83567	0.13897
921.90699	0.13837
919.97831	0.13774
918.04964	0.13708
916.12096	0.13640
914.19229	0.13572
912.26361	0.13502
910.33494	0.13433
908.40626	0.13367
906.47758	0.13307
904.54891	0.13256
902.62023	0.13209
900.69156	0.13161
898.76288	0.13114
896.83421	0.13067
894.90553	0.13021
892.97685	0.12972
891.04818	0.12923
889.11950	0.12885
887.19083	0.12858
885.26215	0.12829
883.33348	0.12792
881.40480	0.12751
879.47612	0.12713
877.54745	0.12677
875.61877	0.12638
873.69010	0.12590
871.76142	0.12535
869.83275	0.12466
867.90407	0.12385
865.97539	0.12307
864.04672	0.12238
862.11804	0.12164
860.18937	0.12074
858.26069	0.11969
856.33202	0.11857
854.40334	0.11736
852.47466	0.11607
850.54599	0.11475
848.61731	0.11343
846.68864	0.11213
844.75996	0.11086
842.83129	0.10957
840.90261	0.10822
838.97394	0.10686
837.04526	0.10549
835.11658	0.10407
833.18791	0.10257
831.25923	0.10103
829.33056	0.09951
827.40188	0.09804
825.47321	0.09666
823.54453	0.09542
821.61585	0.09431
819.68718	0.09331
817.75850	0.09250
815.82983	0.09193
813.90115	0.09147
811.97248	0.09106
810.04380	0.09079
808.11512	0.09071
806.18645	0.09080
804.25777	0.09103
802.32910	0.09130
800.40042	0.09148
798.47175	0.09149
796.54307	0.09143
794.61439	0.09155
792.68572	0.09196
790.75704	0.09250
788.82837	0.09309
786.89969	0.09374
784.97102	0.09443
783.04234	0.09512
781.11366	0.09575
779.18499	0.09636
777.25631	0.09705
775.32764	0.09782
773.39896	0.09846
771.47029	0.09890
769.54161	0.09920
767.61293	0.09939
765.68426	0.09940
763.75558	0.09929
761.82691	0.09911
759.89823	0.09886
757.96956	0.09850
756.04088	0.09810
754.11220	0.09764
752.18353	0.09714
750.25485	0.09659
748.32618	0.09593
746.39750	0.09518
744.46883	0.09443
742.54015	0.09368
740.61147	0.09294
738.68280	0.09242
736.75412	0.09225
734.82545	0.09227
732.89677	0.09237
730.96810	0.09249
729.03942	0.09256
727.11074	0.09257
725.18207	0.09262
723.25339	0.09277
721.32472	0.09290
719.39604	0.09295
717.46737	0.09302
715.53869	0.09338
713.61001	0.09397
711.68134	0.09441
709.75266	0.09453
707.82399	0.09448
705.89531	0.09439
703.96664	0.09424
702.03796	0.09391
700.10928	0.09335
698.18061	0.09273
696.25193	0.09218
694.32326	0.09163
692.39458	0.09100
690.46591	0.09036
688.53723	0.08979
686.60855	0.08934
684.67988	0.08886
682.75120	0.08826
680.82253	0.08761
678.89385	0.08698
676.96518	0.08629
675.03650	0.08550
673.10782	0.08469
671.17915	0.08391
669.25047	0.08303
667.32180	0.08203
665.39312	0.08096
663.46445	0.07969
661.53577	0.07815
659.60709	0.07661
657.67842	0.07538
655.74974	0.07454
653.82107	0.07401
651.89239	0.07365
649.96372	0.07325
648.03504	0.07268
646.10636	0.07196
644.17769	0.07114
642.24901	0.07023
640.32034	0.06925
638.39166	0.06827
636.46299	0.06729
634.53431	0.06619
632.60563	0.06473
630.67696	0.06245
628.74828	0.05915
626.81961	0.05505
624.89093	0.05088
622.96226	0.04757
621.03358	0.04547
619.10490	0.04428
617.17623	0.04352
615.24755	0.04271
613.31888	0.04167
611.39020	0.04068
609.46153	0.04018
607.53285	0.04016
605.60417	0.04037
603.67550	0.04086
601.74682	0.04168
599.81815	0.04258
597.88947	0.04329
595.96080	0.04373
594.03212	0.04403
592.10344	0.04426
590.17477	0.04438
588.24609	0.04432
586.31742	0.04412
584.38874	0.04386
582.46007	0.04348
580.53139	0.04302
578.60271	0.04256
576.67404	0.04205
574.74536	0.04152
572.81669	0.04101
570.88801	0.04046
568.95934	0.03984
567.03066	0.03925
565.10198	0.03878
563.17331	0.03848
561.24463	0.03830
559.31596	0.03811
557.38728	0.03791
555.45861	0.03767
553.52993	0.03746
551.60125	0.03728
549.67258	0.03706
547.74390	0.03682
545.81523	0.03667
543.88655	0.03662
541.95788	0.03654
540.02920	0.03628
538.10052	0.03593
536.17185	0.03566
534.24317	0.03551
532.31450	0.03536
530.38582	0.03511
528.45715	0.03469
526.52847	0.03415
524.59979	0.03362
522.67112	0.03322
520.74244	0.03284
518.81377	0.03221
516.88509	0.03127
514.95642	0.03040
513.02774	0.02992
511.09906	0.02971
509.17039	0.02941
507.24171	0.02890
505.31304	0.02832
503.38436	0.02778
501.45569	0.02723
499.52701	0.02653
497.59833	0.02569
495.66966	0.02485
493.74098	0.02408
491.81231	0.02328
489.88363	0.02245
487.95496	0.02166
486.02628	0.02084
484.09760	0.01998
482.16893	0.01903
480.24025	0.01801
478.31158	0.01705
476.38290	0.01623
474.45423	0.01549
472.52555	0.01479
470.59687	0.01414
468.66820	0.01352
466.73952	0.01296
464.81085	0.01252
462.88217	0.01220
460.95350	0.01198
459.02482	0.01181
457.09614	0.01174
455.16747	0.01176
453.23879	0.01175
451.31012	0.01169
449.38144	0.01166
447.45277	0.01165
445.52409	0.01163
443.59541	0.01159
441.66674	0.01154
439.73806	0.01148
437.80939	0.01151
435.88071	0.01154
433.95204	0.01147
432.02336	0.01135
430.09468	0.01121
428.16601	0.01107
426.23733	0.01091
424.30866	0.01070
422.37998	0.01055
420.45131	0.01040
418.52263	0.01007
416.59395	0.00967
414.66528	0.00936
412.73660	0.00913
410.80793	0.00893
408.87925	0.00877
406.95058	0.00848
405.02190	0.00801
403.09322	0.00758
401.16455	0.00732
399.23587	0.00710
397.30720	0.00683
395.37852	0.00657
393.44985	0.00627
391.52117	0.00577
389.59249	0.00521
387.66382	0.00483
385.73514	0.00458
383.80647	0.00430
381.87779	0.00399
379.94912	0.00375
378.02044	0.00352
376.09176	0.00319
374.16309	0.00285
372.23441	0.00262
370.30574	0.00250
368.37706	0.00238
