7496.76250	0.00227
7494.83382	0.00226
7492.90514	0.00224
7490.97647	0.00224
7489.04779	0.00224
7487.11912	0.00225
7485.19044	0.00226
7483.26177	0.00228
7481.33309	0.00229
7479.40441	0.00228
7477.47574	0.00227
7475.54706	0.00227
7473.61839	0.00228
7471.68971	0.00229
7469.76104	0.00230
7467.83236	0.00232
7465.90368	0.00234
7463.97501	0.00233
7462.04633	0.00233
7460.11766	0.00234
7458.18898	0.00234
7456.26031	0.00235
7454.33163	0.00236
7452.40295	0.00237
7450.47428	0.00239
7448.54560	0.00242
7446.61693	0.00243
7444.68825	0.00242
7442.75958	0.00241
7440.83090	0.00241
7438.90222	0.00241
7436.97355	0.00240
7435.04487	0.00240
7433.11620	0.00241
7431.18752	0.00242
7429.25885	0.00244
7427.33017	0.00245
7425.40149	0.00245
7423.47282	0.00246
7421.54414	0.00245
7419.61547	0.00246
7417.68679	0.00247
7415.75812	0.00250
7413.82944	0.00252
7411.90076	0.00252
7409.97209	0.00252
7408.04341	0.00253
7406.11474	0.00253
7404.18606	0.00253
7402.25739	0.00253
7400.32871	0.00254
7398.40003	0.00254
7396.47136	0.00255
7394.54268	0.00256
7392.61401	0.00258
7390.68533	0.00258
7388.75666	0.00258
7386.82798	0.00259
7384.89930	0.00262
7382.97063	0.00263
7381.04195	0.00262
7379.11328	0.00262
7377.18460	0.00262
7375.25593	0.00263
7373.32725	0.00263
7371.39857	0.00262
7369.46990	0.00261
7367.54122	0.00262
7365.61255	0.00263
7363.68387	0.00265
7361.75520	0.00267
7359.82652	0.00268
7357.89784	0.00267
7355.96917	0.00267
7354.04049	0.00268
7352.11182	0.00270
7350.18314	0.00271
7348.25447	0.00272
7346.32579	0.00272
7344.39711	0.00272
7342.46844	0.00272
7340.53976	0.00273
7338.61109	0.00275
7336.68241	0.00277
7334.75374	0.00278
7332.82506	0.00278
7330.89638	0.00279
7328.96771	0.00279
7327.03903	0.00280
7325.11036	0.00280
7323.18168	0.00279
7321.25301	0.00279
7319.32433	0.00279
7317.39565	0.00281
7315.46698	0.00281
7313.53830	0.00280
7311.60963	0.00282
7309.68095	0.00284
7307.75228	0.00284
7305.82360	0.00284
7303.89492	0.00285
7301.96625	0.00287
7300.03757	0.00288
7298.10890	0.00289
7296.18022	0.00290
7294.25155	0.00291
7292.32287	0.00291
7290.39419	0.00292
7288.46552	0.00293
7286.53684	0.00293
7284.60817	0.00295
7282.67949	0.00296
7280.75082	0.00296
7278.82214	0.00296
7276.89346	0.00296
7274.96479	0.00297
7273.03611	0.00299
7271.10744	0.00298
7269.17876	0.00298
7267.25009	0.00299
7265.32141	0.00300
7263.39273	0.00300
7261.46406	0.00301
7259.53538	0.00302
7257.60671	0.00304
7255.67803	0.00305
7253.74936	0.00305
7251.82068	0.00305
7249.89200	0.00306
7247.96333	0.00309
7246.03465	0.00310
7244.10598	0.00309
7242.17730	0.00308
7240.24863	0.00309
7238.31995	0.00311
7236.39127	0.00312
7234.46260	0.00312
7232.53392	0.00313
7230.60525	0.00313
7228.67657	0.00314
7226.74790	0.00315
7224.81922	0.00315
7222.89054	0.00315
7220.96187	0.00315
7219.03319	0.00316
7217.10452	0.00318
7215.17584	0.00320
7213.24717	0.00321
7211.31849	0.00321
7209.38981	0.00322
7207.46114	0.00322
7205.53246	0.00323
7203.60379	0.00324
7201.67511	0.00323
7199.74644	0.00324
7197.81776	0.00327
7195.88908	0.00330
7193.96041	0.00331
7192.03173	0.00330
7190.10306	0.00331
7188.17438	0.00331
7186.24571	0.00331
7184.31703	0.00331
7182.38835	0.00331
7180.45968	0.00333
7178.53100	0.00335
7176.60233	0.00336
7174.67365	0.00334
7172.74498	0.00333
7170.81630	0.00333
7168.88762	0.00335
7166.95895	0.00337
7165.03027	0.00338
7163.10160	0.00339
7161.17292	0.00340
7159.24425	0.00341
7157.31557	0.00341
7155.38689	0.00341
7153.45822	0.00341
7151.52954	0.00342
7149.60087	0.00343
7147.67219	0.00344
7145.74352	0.00345
7143.81484	0.00346
7141.88616	0.00346
7139.95749	0.00347
7138.02881	0.00348
7136.10014	0.00351
7134.17146	0.00353
7132.24279	0.00352
7130.31411	0.00351
7128.38543	0.00351
7126.45676	0.00352
7124.52808	0.00353
7122.59941	0.00353
7120.67073	0.00353
7118.74206	0.00355
7116.81338	0.00357
7114.88470	0.00358
7112.95603	0.00358
7111.02735	0.00358
7109.09868	0.00358
7107.17000	0.00360
7105.24133	0.00362
7103.31265	0.00363
7101.38397	0.00364
7099.45530	0.00366
7097.52662	0.00367
7095.59795	0.00367
7093.66927	0.00367
7091.74060	0.00369
7089.81192	0.00370
7087.88324	0.00371
7085.95457	0.00371
7084.02589	0.00370
7082.09722	0.00371
7080.16854	0.00373
7078.23987	0.00374
7076.31119	0.00374
7074.38251	0.00374
7072.45384	0.00375
7070.52516	0.00375
7068.59649	0.00375
7066.66781	0.00376
7064.73914	0.00378
7062.81046	0.00379
7060.88178	0.00380
7058.95311	0.00380
7057.02443	0.00379
7055.09576	0.00378
7053.16708	0.00379
7051.23841	0.00382
7049.30973	0.00384
7047.38105	0.00386
7045.45238	0.00386
7043.52370	0.00387
7041.59503	0.00388
7039.66635	0.00389
7037.73768	0.00391
7035.80900	0.00392
7033.88032	0.00392
7031.95165	0.00393
7030.02297	0.00394
7028.09430	0.00396
7026.16562	0.00398
7024.23695	0.00398
7022.30827	0.00397
7020.37959	0.00397
7018.45092	0.00397
7016.52224	0.00398
7014.59357	0.00398
7012.66489	0.00398
7010.73622	0.00398
7008.80754	0.00400
7006.87886	0.00402
7004.95019	0.00404
7003.02151	0.00406
7001.09284	0.00407
6999.16416	0.00407
6997.23549	0.00407
6995.30681	0.00408
6993.37813	0.00408
6991.44946	0.00409
6989.52078	0.00410
6987.59211	0.00412
6985.66343	0.00413
6983.73476	0.00415
6981.80608	0.00416
6979.87740	0.00416
6977.94873	0.00416
6976.02005	0.00417
6974.09138	0.00418
6972.16270	0.00418
6970.23403	0.00417
6968.30535	0.00418
6966.37667	0.00420
6964.44800	0.00423
6962.51932	0.00424
6960.59065	0.00425
6958.66197	0.00427
6956.73330	0.00428
6954.80462	0.00427
6952.87594	0.00426
6950.94727	0.00427
6949.01859	0.00428
6947.08992	0.00431
6945.16124	0.00432
6943.23257	0.00432
6941.30389	0.00431
6939.37521	0.00431
6937.44654	0.00432
6935.51786	0.00433
6933.58919	0.00435
6931.66051	0.00436
6929.73184	0.00437
6927.80316	0.00439
6925.87448	0.00441
6923.94581	0.00443
6922.01713	0.00442
6920.08846	0.00442
6918.15978	0.00442
6916.23111	0.00443
6914.30243	0.00445
6912.37375	0.00448
6910.44508	0.00449
6908.51640	0.00449
6906.58773	0.00449
6904.65905	0.00450
6902.73038	0.00452
6900.80170	0.00453
6898.87302	0.00454
6896.94435	0.00454
6895.01567	0.00455
6893.08700	0.00457
6891.15832	0.00457
6889.22965	0.00458
6887.30097	0.00459
6885.37229	0.00460
6883.44362	0.00462
6881.51494	0.00463
6879.58627	0.00462
6877.65759	0.00461
6875.72892	0.00461
6873.80024	0.00464
6871.87156	0.00467
6869.94289	0.00468
6868.01421	0.00468
6866.08554	0.00469
6864.15686	0.00470
6862.22819	0.00471
6860.29951	0.00471
6858.37083	0.00473
6856.44216	0.00474
6854.51348	0.00476
6852.58481	0.00478
6850.65613	0.00479
6848.72746	0.00479
6846.79878	0.00480
6844.87010	0.00480
6842.94143	0.00480
6841.01275	0.00481
6839.08408	0.00482
6837.15540	0.00484
6835.22673	0.00485
6833.29805	0.00486
6831.36937	0.00487
6829.44070	0.00488
6827.51202	0.00490
6825.58335	0.00491
6823.65467	0.00490
6821.72600	0.00491
6819.79732	0.00492
6817.86864	0.00493
6815.93997	0.00494
6814.01129	0.00495
6812.08262	0.00496
6810.15394	0.00497
6808.22527	0.00497
6806.29659	0.00499
6804.36791	0.00501
6802.43924	0.00501
6800.51056	0.00500
6798.58189	0.00500
6796.65321	0.00501
6794.72454	0.00503
6792.79586	0.00504
6790.86718	0.00507
6788.93851	0.00510
6787.00983	0.00512
6785.08116	0.00512
6783.15248	0.00512
6781.22381	0.00513
6779.29513	0.00514
6777.36645	0.00516
6775.43778	0.00518
6773.50910	0.00518
6771.58043	0.00518
6769.65175	0.00518
6767.72308	0.00519
6765.79440	0.00520
6763.86572	0.00523
6761.93705	0.00526
6760.00837	0.00529
6758.07970	0.00529
6756.15102	0.00528
6754.22235	0.00529
6752.29367	0.00530
6750.36499	0.00531
6748.43632	0.00530
6746.50764	0.00530
6744.57897	0.00532
6742.65029	0.00534
6740.72162	0.00535
6738.79294	0.00536
6736.86426	0.00538
6734.93559	0.00540
6733.00691	0.00542
6731.07824	0.00545
6729.14956	0.00547
6727.22089	0.00548
6725.29221	0.00548
6723.36353	0.00549
6721.43486	0.00549
6719.50618	0.00549
6717.57751	0.00549
6715.64883	0.00550
6713.72016	0.00552
6711.79148	0.00554
6709.86280	0.00554
6707.93413	0.00555
6706.00545	0.00557
6704.07678	0.00560
6702.14810	0.00563
6700.21943	0.00564
6698.29075	0.00564
6696.36207	0.00563
6694.43340	0.00563
6692.50472	0.00565
6690.57605	0.00567
6688.64737	0.00570
6686.71870	0.00572
6684.79002	0.00573
6682.86134	0.00574
6680.93267	0.00576
6679.00399	0.00578
6677.07532	0.00578
6675.14664	0.00577
6673.21797	0.00576
6671.28929	0.00577
6669.36061	0.00580
6667.43194	0.00582
6665.50326	0.00582
6663.57459	0.00583
6661.64591	0.00584
6659.71724	0.00584
6657.78856	0.00584
6655.85988	0.00585
6653.93121	0.00588
6652.00253	0.00590
6650.07386	0.00591
6648.14518	0.00591
6646.21651	0.00593
6644.28783	0.00594
6642.35915	0.00595
6640.43048	0.00597
6638.50180	0.00598
6636.57313	0.00599
6634.64445	0.00600
6632.71578	0.00601
6630.78710	0.00602
6628.85842	0.00605
6626.92975	0.00606
6625.00107	0.00607
6623.07240	0.00607
6621.14372	0.00610
6619.21505	0.00613
6617.28637	0.00614
6615.35769	0.00614
6613.42902	0.00616
6611.50034	0.00618
6609.57167	0.00619
6607.64299	0.00620
6605.71432	0.00620
6603.78564	0.00621
6601.85696	0.00622
6599.92829	0.00623
6597.99961	0.00625
6596.07094	0.00626
6594.14226	0.00628
6592.21359	0.00631
6590.28491	0.00632
6588.35623	0.00633
6586.42756	0.00634
6584.49888	0.00636
6582.57021	0.00637
6580.64153	0.00637
6578.71286	0.00639
6576.78418	0.00642
6574.85550	0.00645
6572.92683	0.00645
6570.99815	0.00644
6569.06948	0.00644
6567.14080	0.00646
6565.21213	0.00648
6563.28345	0.00649
6561.35477	0.00651
6559.42610	0.00653
6557.49742	0.00654
6555.56875	0.00654
6553.64007	0.00654
6551.71140	0.00655
6549.78272	0.00656
6547.85404	0.00656
6545.92537	0.00657
6543.99669	0.00659
6542.06802	0.00661
6540.13934	0.00661
6538.21067	0.00661
6536.28199	0.00663
6534.35331	0.00666
6532.42464	0.00669
6530.49596	0.00672
6528.56729	0.00674
6526.63861	0.00676
6524.70994	0.00677
6522.78126	0.00678
6520.85258	0.00678
6518.92391	0.00679
6516.99523	0.00682
6515.06656	0.00683
6513.13788	0.00685
6511.20921	0.00687
6509.28053	0.00689
6507.35185	0.00690
6505.42318	0.00691
6503.49450	0.00691
6501.56583	0.00692
6499.63715	0.00693
6497.70848	0.00695
6495.77980	0.00696
6493.85112	0.00696
6491.92245	0.00696
6489.99377	0.00698
6488.06510	0.00702
6486.13642	0.00705
6484.20775	0.00707
6482.27907	0.00709
6480.35039	0.00711
6478.42172	0.00711
6476.49304	0.00713
6474.56437	0.00716
6472.63569	0.00719
6470.70702	0.00721
6468.77834	0.00722
6466.84966	0.00722
6464.92099	0.00721
6462.99231	0.00722
6461.06364	0.00724
6459.13496	0.00725
6457.20629	0.00727
6455.27761	0.00728
6453.34893	0.00729
6451.42026	0.00730
6449.49158	0.00733
6447.56291	0.00735
6445.63423	0.00736
6443.70556	0.00737
6441.77688	0.00738
6439.84820	0.00739
6437.91953	0.00740
6435.99085	0.00742
6434.06218	0.00746
6432.13350	0.00750
6430.20483	0.00751
6428.27615	0.00751
6426.34747	0.00750
6424.41880	0.00751
6422.49012	0.00752
6420.56145	0.00754
6418.63277	0.00757
6416.70410	0.00760
6414.77542	0.00761
6412.84674	0.00762
6410.91807	0.00763
6408.98939	0.00766
6407.06072	0.00769
6405.13204	0.00770
6403.20337	0.00772
6401.27469	0.00773
6399.34601	0.00773
6397.41734	0.00773
6395.48866	0.00775
6393.55999	0.00778
6391.63131	0.00779
6389.70264	0.00779
6387.77396	0.00781
6385.84528	0.00784
6383.91661	0.00788
6381.98793	0.00790
6380.05926	0.00791
6378.13058	0.00791
6376.20191	0.00792
6374.27323	0.00793
6372.34455	0.00795
6370.41588	0.00796
6368.48720	0.00798
6366.55853	0.00801
6364.62985	0.00803
6362.70118	0.00804
6360.77250	0.00804
6358.84382	0.00807
6356.91515	0.00810
6354.98647	0.00811
6353.05780	0.00812
6351.12912	0.00814
6349.20045	0.00817
6347.27177	0.00819
6345.34309	0.00821
6343.41442	0.00823
6341.48574	0.00824
6339.55707	0.00825
6337.62839	0.00826
6335.69972	0.00829
6333.77104	0.00831
6331.84236	0.00832
6329.91369	0.00833
6327.98501	0.00834
6326.05634	0.00835
6324.12766	0.00838
6322.19899	0.00840
6320.27031	0.00841
6318.34163	0.00842
6316.41296	0.00843
6314.48428	0.00844
6312.55561	0.00846
6310.62693	0.00849
6308.69826	0.00851
6306.76958	0.00853
6304.84090	0.00855
6302.91223	0.00858
6300.98355	0.00859
6299.05488	0.00861
6297.12620	0.00863
6295.19753	0.00865
6293.26885	0.00866
6291.34017	0.00866
6289.41150	0.00867
6287.48282	0.00869
6285.55415	0.00872
6283.62547	0.00873
6281.69680	0.00874
6279.76812	0.00877
6277.83944	0.00879
6275.91077	0.00882
6273.98209	0.00884
6272.05342	0.00885
6270.12474	0.00887
6268.19607	0.00888
6266.26739	0.00890
6264.33871	0.00892
6262.41004	0.00895
6260.48136	0.00898
6258.55269	0.00899
6256.62401	0.00899
6254.69534	0.00901
6252.76666	0.00903
6250.83798	0.00906
6248.90931	0.00908
6246.98063	0.00911
6245.05196	0.00913
6243.12328	0.00915
6241.19461	0.00918
6239.26593	0.00919
6237.33725	0.00919
6235.40858	0.00921
6233.47990	0.00923
6231.55123	0.00926
6229.62255	0.00931
6227.69388	0.00935
6225.76520	0.00935
6223.83652	0.00936
6221.90785	0.00938
6219.97917	0.00939
6218.05050	0.00939
6216.12182	0.00940
6214.19315	0.00944
6212.26447	0.00947
6210.33579	0.00949
6208.40712	0.00950
6206.47844	0.00951
6204.54977	0.00953
6202.62109	0.00955
6200.69242	0.00957
6198.76374	0.00959
6196.83506	0.00961
6194.90639	0.00963
6192.97771	0.00964
6191.04904	0.00964
6189.12036	0.00966
6187.19169	0.00970
6185.26301	0.00974
6183.33433	0.00975
6181.40566	0.00975
6179.47698	0.00979
6177.54831	0.00983
6175.61963	0.00985
6173.69096	0.00986
6171.76228	0.00987
6169.83360	0.00989
6167.90493	0.00991
6165.97625	0.00993
6164.04758	0.00995
6162.11890	0.00998
6160.19023	0.00999
6158.26155	0.01002
6156.33287	0.01004
6154.40420	0.01006
6152.47552	0.01007
6150.54685	0.01008
6148.61817	0.01009
6146.68950	0.01011
6144.76082	0.01013
6142.83214	0.01016
6140.90347	0.01019
6138.97479	0.01021
6137.04612	0.01024
6135.11744	0.01027
6133.18877	0.01027
6131.26009	0.01027
6129.33141	0.01029
6127.40274	0.01034
6125.47406	0.01036
6123.54539	0.01037
6121.61671	0.01040
6119.68804	0.01045
6117.75936	0.01048
6115.83068	0.01049
6113.90201	0.01051
6111.97333	0.01054
6110.04466	0.01057
6108.11598	0.01058
6106.18731	0.01059
6104.25863	0.01061
6102.32995	0.01064
6100.40128	0.01067
6098.47260	0.01069
6096.54393	0.01070
6094.61525	0.01072
6092.68658	0.01074
6090.75790	0.01077
6088.82922	0.01079
6086.90055	0.01080
6084.97187	0.01082
6083.04320	0.01085
6081.11452	0.01086
6079.18585	0.01088
6077.25717	0.01090
6075.32849	0.01094
6073.39982	0.01097
6071.47114	0.01099
6069.54247	0.01102
6067.61379	0.01105
6065.68512	0.01108
6063.75644	0.01109
6061.82776	0.01110
6059.89909	0.01111
6057.97041	0.01113
6056.04174	0.01115
6054.11306	0.01117
6052.18439	0.01120
6050.25571	0.01124
6048.32703	0.01126
6046.39836	0.01127
6044.46968	0.01129
6042.54101	0.01132
6040.61233	0.01135
6038.68366	0.01137
6036.75498	0.01139
6034.82630	0.01141
6032.89763	0.01143
6030.96895	0.01144
6029.04028	0.01147
6027.11160	0.01151
6025.18293	0.01153
6023.25425	0.01155
6021.32557	0.01158
6019.39690	0.01161
6017.46822	0.01163
6015.53955	0.01166
6013.61087	0.01170
6011.68220	0.01172
6009.75352	0.01173
6007.82484	0.01175
6005.89617	0.01177
6003.96749	0.01179
6002.03882	0.01182
6000.11014	0.01186
5998.18147	0.01189
5996.25279	0.01190
5994.32411	0.01192
5992.39544	0.01194
5990.46676	0.01198
5988.53809	0.01200
5986.60941	0.01202
5984.68074	0.01205
5982.75206	0.01207
5980.82338	0.01209
5978.89471	0.01210
5976.96603	0.01212
5975.03736	0.01216
5973.10868	0.01220
5971.18001	0.01224
5969.25133	0.01227
5967.32265	0.01230
5965.39398	0.01230
5963.46530	0.01229
5961.53663	0.01230
5959.60795	0.01235
5957.67928	0.01241
5955.75060	0.01246
5953.82192	0.01249
5951.89325	0.01251
5949.96457	0.01252
5948.03590	0.01252
5946.10722	0.01254
5944.17855	0.01258
5942.24987	0.01263
5940.32119	0.01266
5938.39252	0.01268
5936.46384	0.01270
5934.53517	0.01271
5932.60649	0.01272
5930.67782	0.01274
5928.74914	0.01277
5926.82046	0.01281
5924.89179	0.01284
5922.96311	0.01286
5921.03444	0.01289
5919.10576	0.01292
5917.17709	0.01294
5915.24841	0.01296
5913.31973	0.01299
5911.39106	0.01302
5909.46238	0.01306
5907.53371	0.01311
5905.60503	0.01312
5903.67636	0.01312
5901.74768	0.01314
5899.81900	0.01317
5897.89033	0.01321
5895.96165	0.01324
5894.03298	0.01326
5892.10430	0.01327
5890.17563	0.01330
5888.24695	0.01333
5886.31827	0.01337
5884.38960	0.01339
5882.46092	0.01342
5880.53225	0.01346
5878.60357	0.01349
5876.67490	0.01352
5874.74622	0.01353
5872.81755	0.01355
5870.88887	0.01358
5868.96019	0.01362
5867.03152	0.01365
5865.10284	0.01367
5863.17417	0.01370
5861.24549	0.01372
5859.31682	0.01375
5857.38814	0.01379
5855.45946	0.01382
5853.53079	0.01387
5851.60211	0.01390
5849.67344	0.01391
5847.74476	0.01392
5845.81609	0.01395
5843.88741	0.01398
5841.95873	0.01400
5840.03006	0.01402
5838.10138	0.01404
5836.17271	0.01409
5834.24403	0.01414
5832.31536	0.01415
5830.38668	0.01415
5828.45800	0.01416
5826.52933	0.01420
5824.60065	0.01425
5822.67198	0.01429
5820.74330	0.01430
5818.81463	0.01431
5816.88595	0.01434
5814.95727	0.01439
5813.02860	0.01443
5811.09992	0.01447
5809.17125	0.01450
5807.24257	0.01453
5805.31390	0.01457
5803.38522	0.01460
5801.45654	0.01462
5799.52787	0.01465
5797.59919	0.01469
5795.67052	0.01473
5793.74184	0.01475
5791.81317	0.01478
5789.88449	0.01481
5787.95581	0.01484
5786.02714	0.01488
5784.09846	0.01490
5782.16979	0.01493
5780.24111	0.01495
5778.31244	0.01497
5776.38376	0.01499
5774.45508	0.01501
5772.52641	0.01503
5770.59773	0.01506
5768.66906	0.01509
5766.74038	0.01513
5764.81171	0.01519
5762.88303	0.01525
5760.95435	0.01529
5759.02568	0.01530
5757.09700	0.01531
5755.16833	0.01534
5753.23965	0.01536
5751.31098	0.01539
5749.38230	0.01543
5747.45362	0.01549
5745.52495	0.01552
5743.59627	0.01554
5741.66760	0.01556
5739.73892	0.01559
5737.81025	0.01561
5735.88157	0.01562
5733.95289	0.01565
5732.02422	0.01570
5730.09554	0.01574
5728.16687	0.01576
5726.23819	0.01578
5724.30952	0.01581
5722.38084	0.01584
5720.45216	0.01587
5718.52349	0.01591
5716.59481	0.01594
5714.66614	0.01597
5712.73746	0.01599
5710.80879	0.01601
5708.88011	0.01604
5706.95143	0.01611
5705.02276	0.01617
5703.09408	0.01622
5701.16541	0.01625
5699.23673	0.01626
5697.30806	0.01629
5695.37938	0.01631
5693.45070	0.01633
5691.52203	0.01635
5689.59335	0.01639
5687.66468	0.01641
5685.73600	0.01644
5683.80733	0.01648
5681.87865	0.01652
5679.94997	0.01657
5678.02130	0.01662
5676.09262	0.01666
5674.16395	0.01668
5672.23527	0.01671
5670.30660	0.01675
5668.37792	0.01678
5666.44924	0.01681
5664.52057	0.01684
5662.59189	0.01687
5660.66322	0.01689
5658.73454	0.01692
5656.80587	0.01695
5654.87719	0.01699
5652.94851	0.01703
5651.01984	0.01706
5649.09116	0.01707
5647.16249	0.01710
5645.23381	0.01715
5643.30514	0.01720
5641.37646	0.01723
5639.44778	0.01726
5637.51911	0.01729
5635.59043	0.01734
5633.66176	0.01739
5631.73308	0.01742
5629.80441	0.01744
5627.87573	0.01746
5625.94705	0.01749
5624.01838	0.01753
5622.08970	0.01757
5620.16103	0.01761
5618.23235	0.01765
5616.30368	0.01769
5614.37500	0.01774
5612.44632	0.01779
5610.51765	0.01781
5608.58897	0.01783
5606.66030	0.01784
5604.73162	0.01785
5602.80295	0.01788
5600.87427	0.01793
5598.94559	0.01798
5597.01692	0.01802
5595.08824	0.01806
5593.15957	0.01808
5591.23089	0.01811
5589.30222	0.01816
5587.37354	0.01820
5585.44486	0.01823
5583.51619	0.01827
5581.58751	0.01830
5579.65884	0.01835
5577.73016	0.01838
5575.80149	0.01841
5573.87281	0.01845
5571.94413	0.01850
5570.01546	0.01855
5568.08678	0.01858
5566.15811	0.01859
5564.22943	0.01859
5562.30076	0.01859
5560.37208	0.01863
5558.44340	0.01868
5556.51473	0.01875
5554.58605	0.01880
5552.65738	0.01883
5550.72870	0.01885
5548.80003	0.01888
5546.87135	0.01892
5544.94267	0.01896
5543.01400	0.01900
5541.08532	0.01905
5539.15665	0.01910
5537.22797	0.01913
5535.29930	0.01914
5533.37062	0.01916
5531.44194	0.01920
5529.51327	0.01925
5527.58459	0.01930
5525.65592	0.01933
5523.72724	0.01938
5521.79857	0.01943
5519.86989	0.01948
5517.94121	0.01952
5516.01254	0.01955
5514.08386	0.01957
5512.15519	0.01959
5510.22651	0.01962
5508.29784	0.01967
5506.36916	0.01972
5504.44048	0.01976
5502.51181	0.01978
5500.58313	0.01980
5498.65446	0.01983
5496.72578	0.01988
5494.79711	0.01991
5492.86843	0.01995
5490.93975	0.02000
5489.01108	0.02006
5487.08240	0.02010
5485.15373	0.02014
5483.22505	0.02017
5481.29638	0.02022
5479.36770	0.02026
5477.43902	0.02031
5475.51035	0.02035
5473.58167	0.02039
5471.65300	0.02040
5469.72432	0.02042
5467.79565	0.02045
5465.86697	0.02051
5463.93829	0.02057
5462.00962	0.02061
5460.08094	0.02062
5458.15227	0.02063
5456.22359	0.02068
5454.29492	0.02074
5452.36624	0.02078
5450.43756	0.02080
5448.50889	0.02082
5446.58021	0.02085
5444.65154	0.02090
5442.72286	0.02096
5440.79419	0.02100
5438.86551	0.02104
5436.93683	0.02107
5435.00816	0.02110
5433.07948	0.02114
5431.15081	0.02118
5429.22213	0.02121
5427.29346	0.02126
5425.36478	0.02130
5423.43610	0.02134
5421.50743	0.02138
5419.57875	0.02145
5417.65008	0.02150
5415.72140	0.02152
5413.79273	0.02154
5411.86405	0.02156
5409.93537	0.02158
5408.00670	0.02162
5406.07802	0.02168
5404.14935	0.02173
5402.22067	0.02177
5400.29200	0.02180
5398.36332	0.02182
5396.43464	0.02185
5394.50597	0.02189
5392.57729	0.02196
5390.64862	0.02202
5388.71994	0.02207
5386.79127	0.02211
5384.86259	0.02216
5382.93391	0.02220
5381.00524	0.02223
5379.07656	0.02225
5377.14789	0.02228
5375.21921	0.02233
5373.29054	0.02240
5371.36186	0.02246
5369.43318	0.02249
5367.50451	0.02253
5365.57583	0.02257
5363.64716	0.02259
5361.71848	0.02262
5359.78981	0.02267
5357.86113	0.02273
5355.93245	0.02278
5354.00378	0.02282
5352.07510	0.02285
5350.14643	0.02289
5348.21775	0.02294
5346.28908	0.02298
5344.36040	0.02300
5342.43172	0.02303
5340.50305	0.02305
5338.57437	0.02307
5336.64570	0.02313
5334.71702	0.02320
5332.78835	0.02325
5330.85967	0.02329
5328.93099	0.02332
5327.00232	0.02336
5325.07364	0.02341
5323.14497	0.02345
5321.21629	0.02351
5319.28762	0.02357
5317.35894	0.02362
5315.43026	0.02364
5313.50159	0.02366
5311.57291	0.02369
5309.64424	0.02373
5307.71556	0.02377
5305.78689	0.02382
5303.85821	0.02387
5301.92953	0.02391
5300.00086	0.02395
5298.07218	0.02400
5296.14351	0.02405
5294.21483	0.02408
5292.28616	0.02410
5290.35748	0.02412
5288.42880	0.02418
5286.50013	0.02426
5284.57145	0.02431
5282.64278	0.02433
5280.71410	0.02437
5278.78543	0.02444
5276.85675	0.02450
5274.92807	0.02453
5272.99940	0.02455
5271.07072	0.02459
5269.14205	0.02463
5267.21337	0.02467
5265.28470	0.02469
5263.35602	0.02470
5261.42734	0.02476
5259.49867	0.02485
5257.56999	0.02490
5255.64132	0.02492
5253.71264	0.02494
5251.78397	0.02499
5249.85529	0.02505
5247.92661	0.02509
5245.99794	0.02513
5244.06926	0.02518
5242.14059	0.02525
5240.21191	0.02530
5238.28324	0.02535
5236.35456	0.02540
5234.42588	0.02542
5232.49721	0.02544
5230.56853	0.02549
5228.63986	0.02555
5226.71118	0.02558
5224.78251	0.02563
5222.85383	0.02568
5220.92515	0.02572
5218.99648	0.02577
5217.06780	0.02583
5215.13913	0.02590
5213.21045	0.02595
5211.28178	0.02600
5209.35310	0.02602
5207.42442	0.02605
5205.49575	0.02608
5203.56707	0.02612
5201.63840	0.02616
5199.70972	0.02620
5197.78105	0.02625
5195.85237	0.02630
5193.92369	0.02637
5191.99502	0.02644
5190.06634	0.02647
5188.13767	0.02650
5186.20899	0.02653
5184.28032	0.02657
5182.35164	0.02661
5180.42296	0.02666
5178.49429	0.02670
5176.56561	0.02674
5174.63694	0.02679
5172.70826	0.02684
5170.77959	0.02688
5168.85091	0.02693
5166.92223	0.02699
5164.99356	0.02704
5163.06488	0.02709
5161.13621	0.02714
5159.20753	0.02718
5157.27886	0.02721
5155.35018	0.02724
5153.42150	0.02731
5151.49283	0.02738
5149.56415	0.02744
5147.63548	0.02749
5145.70680	0.02752
5143.77813	0.02755
5141.84945	0.02759
5139.92077	0.02764
5137.99210	0.02768
5136.06342	0.02771
5134.13475	0.02775
5132.20607	0.02780
5130.27740	0.02785
5128.34872	0.02789
5126.42004	0.02795
5124.49137	0.02801
5122.56269	0.02805
5120.63402	0.02808
5118.70534	0.02811
5116.77667	0.02815
5114.84799	0.02821
5112.91931	0.02828
5110.99064	0.02833
5109.06196	0.02837
5107.13329	0.02841
5105.20461	0.02846
5103.27594	0.02851
5101.34726	0.02856
5099.41858	0.02860
5097.48991	0.02866
5095.56123	0.02873
5093.63256	0.02878
5091.70388	0.02882
5089.77521	0.02885
5087.84653	0.02888
5085.91785	0.02893
5083.98918	0.02898
5082.06050	0.02903
5080.13183	0.02908
5078.20315	0.02914
5076.27448	0.02919
5074.34580	0.02924
5072.41712	0.02928
5070.48845	0.02933
5068.55977	0.02937
5066.63110	0.02943
5064.70242	0.02949
5062.77375	0.02954
5060.84507	0.02958
5058.91639	0.02962
5056.98772	0.02966
5055.05904	0.02971
5053.13037	0.02977
5051.20169	0.02982
5049.27302	0.02986
5047.34434	0.02989
5045.41566	0.02994
5043.48699	0.02999
5041.55831	0.03003
5039.62964	0.03007
5037.70096	0.03013
5035.77229	0.03018
5033.84361	0.03023
5031.91493	0.03027
5029.98626	0.03033
5028.05758	0.03039
5026.12891	0.03043
5024.20023	0.03047
5022.27156	0.03054
5020.34288	0.03060
5018.41420	0.03066
5016.48553	0.03070
5014.55685	0.03072
5012.62818	0.03077
5010.69950	0.03083
5008.77083	0.03089
5006.84215	0.03094
5004.91347	0.03100
5002.98480	0.03106
5001.05612	0.03112
4999.12745	0.03117
4997.19877	0.03121
4995.27010	0.03123
4993.34142	0.03129
4991.41274	0.03137
4989.48407	0.03142
4987.55539	0.03145
4985.62672	0.03148
4983.69804	0.03153
4981.76937	0.03160
4979.84069	0.03165
4977.91201	0.03170
4975.98334	0.03174
4974.05466	0.03179
4972.12599	0.03184
4970.19731	0.03188
4968.26864	0.03193
4966.33996	0.03199
4964.41128	0.03203
4962.48261	0.03208
4960.55393	0.03214
4958.62526	0.03220
4956.69658	0.03226
4954.76791	0.03231
4952.83923	0.03236
4950.91055	0.03242
4948.98188	0.03248
4947.05320	0.03254
4945.12453	0.03259
4943.19585	0.03265
4941.26718	0.03272
4939.33850	0.03277
4937.40982	0.03280
4935.48115	0.03283
4933.55247	0.03287
4931.62380	0.03292
4929.69512	0.03298
4927.76645	0.03304
4925.83777	0.03308
4923.90909	0.03312
4921.98042	0.03317
4920.05174	0.03323
4918.12307	0.03329
4916.19439	0.03336
4914.26572	0.03341
4912.33704	0.03347
4910.40836	0.03352
4908.47969	0.03357
4906.55101	0.03363
4904.62234	0.03369
4902.69366	0.03373
4900.76499	0.03377
4898.83631	0.03381
4896.90763	0.03383
4894.97896	0.03388
4893.05028	0.03397
4891.12161	0.03406
4889.19293	0.03413
4887.26426	0.03417
4885.33558	0.03420
4883.40690	0.03423
4881.47823	0.03428
4879.54955	0.03434
4877.62088	0.03441
4875.69220	0.03446
4873.76353	0.03452
4871.83485	0.03459
4869.90617	0.03466
4867.97750	0.03472
4866.04882	0.03477
4864.12015	0.03480
4862.19147	0.03485
4860.26280	0.03489
4858.33412	0.03494
4856.40544	0.03499
4854.47677	0.03505
4852.54809	0.03511
4850.61942	0.03516
4848.69074	0.03523
4846.76207	0.03530
4844.83339	0.03536
4842.90471	0.03542
4840.97604	0.03547
4839.04736	0.03551
4837.11869	0.03555
4835.19001	0.03560
4833.26134	0.03566
4831.33266	0.03571
4829.40398	0.03575
4827.47531	0.03581
4825.54663	0.03587
4823.61796	0.03595
4821.68928	0.03602
4819.76061	0.03607
4817.83193	0.03612
4815.90325	0.03618
4813.97458	0.03625
4812.04590	0.03629
4810.11723	0.03632
4808.18855	0.03636
4806.25988	0.03643
4804.33120	0.03650
4802.40252	0.03657
4800.47385	0.03665
4798.54517	0.03671
4796.61650	0.03676
4794.68782	0.03681
4792.75915	0.03688
4790.83047	0.03694
4788.90179	0.03699
4786.97312	0.03705
4785.04444	0.03710
4783.11577	0.03715
4781.18709	0.03721
4779.25842	0.03727
4777.32974	0.03734
4775.40106	0.03742
4773.47239	0.03748
4771.54371	0.03753
4769.61504	0.03759
4767.68636	0.03763
4765.75769	0.03768
4763.82901	0.03775
4761.90033	0.03784
4759.97166	0.03791
4758.04298	0.03795
4756.11431	0.03799
4754.18563	0.03802
4752.25696	0.03809
4750.32828	0.03817
4748.39960	0.03825
4746.47093	0.03830
4744.54225	0.03835
4742.61358	0.03841
4740.68490	0.03848
4738.75623	0.03855
4736.82755	0.03862
4734.89887	0.03868
4732.97020	0.03873
4731.04152	0.03879
4729.11285	0.03884
4727.18417	0.03889
4725.25550	0.03895
4723.32682	0.03903
4721.39814	0.03910
4719.46947	0.03915
4717.54079	0.03921
4715.61212	0.03928
4713.68344	0.03934
4711.75477	0.03939
4709.82609	0.03944
4707.89741	0.03950
4705.96874	0.03955
4704.04006	0.03961
4702.11139	0.03969
4700.18271	0.03976
4698.25404	0.03983
4696.32536	0.03990
4694.39668	0.03998
4692.46801	0.04005
4690.53933	0.04010
4688.61066	0.04014
4686.68198	0.04021
4684.75331	0.04026
4682.82463	0.04031
4680.89595	0.04038
4678.96728	0.04045
4677.03860	0.04052
4675.10993	0.04060
4673.18125	0.04069
4671.25258	0.04076
4669.32390	0.04083
4667.39522	0.04088
4665.46655	0.04093
4663.53787	0.04097
4661.60920	0.04101
4659.68052	0.04109
4657.75185	0.04120
4655.82317	0.04127
4653.89449	0.04133
4651.96582	0.04138
4650.03714	0.04145
4648.10847	0.04151
4646.17979	0.04158
4644.25112	0.04164
4642.32244	0.04170
4640.39376	0.04177
4638.46509	0.04185
4636.53641	0.04192
4634.60774	0.04197
4632.67906	0.04205
4630.75039	0.04214
4628.82171	0.04222
4626.89303	0.04228
4624.96436	0.04233
4623.03568	0.04240
4621.10701	0.04248
4619.17833	0.04256
4617.24966	0.04259
4615.32098	0.04263
4613.39230	0.04269
4611.46363	0.04278
4609.53495	0.04286
4607.60628	0.04294
4605.67760	0.04301
4603.74893	0.04307
4601.82025	0.04314
4599.89157	0.04320
4597.96290	0.04326
4596.03422	0.04332
4594.10555	0.04340
4592.17687	0.04348
4590.24820	0.04357
4588.31952	0.04364
4586.39084	0.04371
4584.46217	0.04380
4582.53349	0.04388
4580.60482	0.04394
4578.67614	0.04398
4576.74747	0.04404
4574.81879	0.04414
4572.89011	0.04424
4570.96144	0.04433
4569.03276	0.04439
4567.10409	0.04443
4565.17541	0.04448
4563.24674	0.04454
4561.31806	0.04461
4559.38938	0.04469
4557.46071	0.04478
4555.53203	0.04486
4553.60336	0.04494
4551.67468	0.04501
4549.74601	0.04509
4547.81733	0.04516
4545.88865	0.04525
4543.95998	0.04535
4542.03130	0.04542
4540.10263	0.04548
4538.17395	0.04555
4536.24528	0.04561
4534.31660	0.04567
4532.38792	0.04574
4530.45925	0.04582
4528.53057	0.04590
4526.60190	0.04598
4524.67322	0.04605
4522.74455	0.04611
4520.81587	0.04618
4518.88719	0.04626
4516.95852	0.04635
4515.02984	0.04642
4513.10117	0.04650
4511.17249	0.04658
4509.24382	0.04665
4507.31514	0.04673
4505.38646	0.04681
4503.45779	0.04690
4501.52911	0.04698
4499.60044	0.04706
4497.67176	0.04714
4495.74309	0.04722
4493.81441	0.04730
4491.88573	0.04739
4489.95706	0.04747
4488.02838	0.04755
4486.09971	0.04761
4484.17103	0.04767
4482.24236	0.04775
4480.31368	0.04786
4478.38500	0.04797
4476.45633	0.04807
4474.52765	0.04815
4472.59898	0.04825
4470.67030	0.04833
4468.74163	0.04840
4466.81295	0.04847
4464.88427	0.04854
4462.95560	0.04860
4461.02692	0.04866
4459.09825	0.04873
4457.16957	0.04881
4455.24090	0.04889
4453.31222	0.04898
4451.38354	0.04908
4449.45487	0.04918
4447.52619	0.04927
4445.59752	0.04933
4443.66884	0.04940
4441.74017	0.04950
4439.81149	0.04961
4437.88281	0.04969
4435.95414	0.04974
4434.02546	0.04980
4432.09679	0.04989
4430.16811	0.05000
4428.23944	0.05010
4426.31076	0.05019
4424.38208	0.05028
4422.45341	0.05035
4420.52473	0.05043
4418.59606	0.05054
4416.66738	0.05063
4414.73871	0.05071
4412.81003	0.05078
4410.88135	0.05088
4408.95268	0.05098
4407.02400	0.05109
4405.09533	0.05119
4403.16665	0.05129
4401.23798	0.05138
4399.30930	0.05146
4397.38062	0.05153
4395.45195	0.05159
4393.52327	0.05166
4391.59460	0.05175
4389.66592	0.05184
4387.73725	0.05195
4385.80857	0.05206
4383.87989	0.05216
4381.95122	0.05223
4380.02254	0.05231
4378.09387	0.05241
4376.16519	0.05252
4374.23652	0.05260
4372.30784	0.05267
4370.37916	0.05275
4368.45049	0.05283
4366.52181	0.05292
4364.59314	0.05301
4362.66446	0.05310
4360.73579	0.05318
4358.80711	0.05328
4356.87843	0.05340
4354.94976	0.05351
4353.02108	0.05362
4351.09241	0.05371
4349.16373	0.05381
4347.23506	0.05391
4345.30638	0.05402
4343.37770	0.05413
4341.44903	0.05422
4339.52035	0.05428
4337.59168	0.05435
4335.66300	0.05445
4333.73433	0.05456
4331.80565	0.05467
4329.87697	0.05476
4327.94830	0.05483
4326.01962	0.05492
4324.09095	0.05504
4322.16227	0.05515
4320.23360	0.05524
4318.30492	0.05533
4316.37624	0.05542
4314.44757	0.05552
4312.51889	0.05563
4310.59022	0.05574
4308.66154	0.05583
4306.73287	0.05593
4304.80419	0.05605
4302.87551	0.05617
4300.94684	0.05628
4299.01816	0.05635
4297.08949	0.05642
4295.16081	0.05653
4293.23214	0.05664
4291.30346	0.05675
4289.37478	0.05685
4287.44611	0.05695
4285.51743	0.05705
4283.58876	0.05717
4281.66008	0.05730
4279.73141	0.05741
4277.80273	0.05751
4275.87405	0.05761
4273.94538	0.05771
4272.01670	0.05781
4270.08803	0.05791
4268.15935	0.05800
4266.23068	0.05810
4264.30200	0.05819
4262.37332	0.05830
4260.44465	0.05840
4258.51597	0.05850
4256.58730	0.05860
4254.65862	0.05874
4252.72995	0.05888
4250.80127	0.05900
4248.87259	0.05908
4246.94392	0.05915
4245.01524	0.05922
4243.08657	0.05931
4241.15789	0.05944
4239.22922	0.05957
4237.30054	0.05968
4235.37186	0.05979
4233.44319	0.05990
4231.51451	0.06001
4229.58584	0.06010
4227.65716	0.06021
4225.72849	0.06033
4223.79981	0.06045
4221.87113	0.06058
4219.94246	0.06070
4218.01378	0.06080
4216.08511	0.06089
4214.15643	0.06098
4212.22776	0.06109
4210.29908	0.06122
4208.37040	0.06134
4206.44173	0.06145
4204.51305	0.06155
4202.58438	0.06167
4200.65570	0.06180
4198.72703	0.06192
4196.79835	0.06202
4194.86968	0.06212
4192.94100	0.06225
4191.01232	0.06239
4189.08365	0.06251
4187.15497	0.06261
4185.22630	0.06268
4183.29762	0.06278
4181.36895	0.06293
4179.44027	0.06308
4177.51159	0.06323
4175.58292	0.06336
4173.65424	0.06347
4171.72557	0.06358
4169.79689	0.06369
4167.86822	0.06379
4165.93954	0.06389
4164.01086	0.06400
4162.08219	0.06413
4160.15351	0.06426
4158.22484	0.06439
4156.29616	0.06450
4154.36749	0.06461
4152.43881	0.06473
4150.51013	0.06485
4148.58146	0.06495
4146.65278	0.06506
4144.72411	0.06518
4142.79543	0.06531
4140.86676	0.06543
4138.93808	0.06557
4137.00940	0.06570
4135.08073	0.06583
4133.15205	0.06594
4131.22338	0.06605
4129.29470	0.06617
4127.36603	0.06631
4125.43735	0.06645
4123.50867	0.06659
4121.58000	0.06671
4119.65132	0.06682
4117.72265	0.06692
4115.79397	0.06704
4113.86530	0.06716
4111.93662	0.06729
4110.00794	0.06743
4108.07927	0.06757
4106.15059	0.06769
4104.22192	0.06779
4102.29324	0.06790
4100.36457	0.06804
4098.43589	0.06819
4096.50721	0.06831
4094.57854	0.06841
4092.64986	0.06852
4090.72119	0.06866
4088.79251	0.06880
4086.86384	0.06894
4084.93516	0.06908
4083.00648	0.06921
4081.07781	0.06934
4079.14913	0.06947
4077.22046	0.06959
4075.29178	0.06971
4073.36311	0.06983
4071.43443	0.06996
4069.50575	0.07009
4067.57708	0.07023
4065.64840	0.07038
4063.71973	0.07053
4061.79105	0.07067
4059.86238	0.07080
4057.93370	0.07094
4056.00502	0.07111
4054.07635	0.07126
4052.14767	0.07139
4050.21900	0.07150
4048.29032	0.07162
4046.36165	0.07175
4044.43297	0.07187
4042.50429	0.07197
4040.57562	0.07207
4038.64694	0.07220
4036.71827	0.07235
4034.78959	0.07250
4032.86092	0.07265
4030.93224	0.07280
4029.00356	0.07294
4027.07489	0.07304
4025.14621	0.07316
4023.21754	0.07331
4021.28886	0.07346
4019.36019	0.07359
4017.43151	0.07372
4015.50283	0.07386
4013.57416	0.07401
4011.64548	0.07414
4009.71681	0.07426
4007.78813	0.07440
4005.85946	0.07456
4003.93078	0.07469
4002.00210	0.07483
4000.07343	0.07498
3998.14475	0.07513
3996.21608	0.07528
3994.28740	0.07544
3992.35873	0.07558
3990.43005	0.07572
3988.50137	0.07587
3986.57270	0.07602
3984.64402	0.07615
3982.71535	0.07627
3980.78667	0.07640
3978.85800	0.07654
3976.92932	0.07668
3975.00064	0.07681
3973.07197	0.07694
3971.14329	0.07708
3969.21462	0.07724
3967.28594	0.07740
3965.35727	0.07754
3963.42859	0.07766
3961.49991	0.07782
3959.57124	0.07799
3957.64256	0.07814
3955.71389	0.07829
3953.78521	0.07843
3951.85654	0.07854
3949.92786	0.07862
3947.99918	0.07876
3946.07051	0.07893
3944.14183	0.07909
3942.21316	0.07921
3940.28448	0.07937
3938.35581	0.07956
3936.42713	0.07971
3934.49845	0.07980
3932.56978	0.07989
3930.64110	0.08005
3928.71243	0.08023
3926.78375	0.08036
3924.85508	0.08049
3922.92640	0.08067
3920.99772	0.08083
3919.06905	0.08093
3917.14037	0.08106
3915.21170	0.08128
3913.28302	0.08151
3911.35435	0.08170
3909.42567	0.08184
3907.49699	0.08188
3905.56832	0.08181
3903.63964	0.08181
3901.71097	0.08196
3899.78229	0.08223
3897.85362	0.08256
3895.92494	0.08284
3893.99626	0.08294
3892.06759	0.08299
3890.13891	0.08316
3888.21024	0.08332
3886.28156	0.08338
3884.35289	0.08351
3882.42421	0.08369
3880.49553	0.08387
3878.56686	0.08414
3876.63818	0.08436
3874.70951	0.08443
3872.78083	0.08445
3870.85216	0.08449
3868.92348	0.08467
3866.99480	0.08490
3865.06613	0.08505
3863.13745	0.08523
3861.20878	0.08550
3859.28010	0.08571
3857.35143	0.08563
3855.42275	0.08530
3853.49407	0.08526
3851.56540	0.08578
3849.63672	0.08642
3847.70805	0.08679
3845.77937	0.08692
3843.85070	0.08695
3841.92202	0.08699
3839.99334	0.08705
3838.06467	0.08718
3836.13599	0.08740
3834.20732	0.08766
3832.27864	0.08789
3830.34997	0.08812
3828.42129	0.08831
3826.49261	0.08848
3824.56394	0.08858
3822.63526	0.08854
3820.70659	0.08860
3818.77791	0.08884
3816.84924	0.08905
3814.92056	0.08930
3812.99188	0.08965
3811.06321	0.08988
3809.13453	0.08992
3807.20586	0.08995
3805.27718	0.09009
3803.34851	0.09020
3801.41983	0.09030
3799.49115	0.09057
3797.56248	0.09087
3795.63380	0.09113
3793.70513	0.09140
3791.77645	0.09162
3789.84778	0.09179
3787.91910	0.09193
3785.99042	0.09208
3784.06175	0.09225
3782.13307	0.09239
3780.20440	0.09250
3778.27572	0.09268
3776.34705	0.09291
3774.41837	0.09308
3772.48969	0.09315
3770.56102	0.09322
3768.63234	0.09337
3766.70367	0.09359
3764.77499	0.09382
3762.84632	0.09400
3760.91764	0.09408
3758.98896	0.09419
3757.06029	0.09436
3755.13161	0.09443
3753.20294	0.09431
3751.27426	0.09423
3749.34559	0.09441
3747.41691	0.09459
3745.48823	0.09459
3743.55956	0.09486
3741.63088	0.09546
3739.70221	0.09579
3737.77353	0.09575
3735.84486	0.09573
3733.91618	0.09595
3731.98750	0.09636
3730.05883	0.09674
3728.13015	0.09694
3726.20148	0.09702
3724.27280	0.09715
3722.34413	0.09737
3720.41545	0.09762
3718.48677	0.09786
3716.55810	0.09803
3714.62942	0.09807
3712.70075	0.09806
3710.77207	0.09822
3708.84340	0.09860
3706.91472	0.09898
3704.98604	0.09919
3703.05737	0.09925
3701.12869	0.09938
3699.20002	0.09962
3697.27134	0.09987
3695.34267	0.10003
3693.41399	0.10005
3691.48531	0.09998
3689.55664	0.10002
3687.62796	0.10035
3685.69929	0.10079
3683.77061	0.10107
3681.84194	0.10119
3679.91326	0.10122
3677.98458	0.10112
3676.05591	0.10107
3674.12723	0.10128
3672.19856	0.10153
3670.26988	0.10170
3668.34121	0.10204
3666.41253	0.10249
3664.48385	0.10280
3662.55518	0.10299
3660.62650	0.10310
3658.69783	0.10313
3656.76915	0.10314
3654.84048	0.10322
3652.91180	0.10316
3650.98312	0.10289
3649.05445	0.10276
3647.12577	0.10305
3645.19710	0.10359
3643.26842	0.10407
3641.33975	0.10438
3639.41107	0.10461
3637.48239	0.10477
3635.55372	0.10488
3633.62504	0.10494
3631.69637	0.10485
3629.76769	0.10471
3627.83902	0.10492
3625.91034	0.10538
3623.98166	0.10566
3622.05299	0.10568
3620.12431	0.10563
3618.19564	0.10574
3616.26696	0.10596
3614.33829	0.10611
3612.40961	0.10619
3610.48093	0.10627
3608.55226	0.10641
3606.62358	0.10667
3604.69491	0.10695
3602.76623	0.10712
3600.83756	0.10724
3598.90888	0.10738
3596.98020	0.10748
3595.05153	0.10758
3593.12285	0.10772
3591.19418	0.10781
3589.26550	0.10778
3587.33683	0.10787
3585.40815	0.10819
3583.47947	0.10853
3581.55080	0.10873
3579.62212	0.10886
3577.69345	0.10900
3575.76477	0.10917
3573.83610	0.10934
3571.90742	0.10944
3569.97874	0.10940
3568.05007	0.10935
3566.12139	0.10951
3564.19272	0.10982
3562.26404	0.11007
3560.33537	0.11024
3558.40669	0.11040
3556.47801	0.11055
3554.54934	0.11066
3552.62066	0.11076
3550.69199	0.11089
3548.76331	0.11099
3546.83464	0.11106
3544.90596	0.11120
3542.97728	0.11141
3541.04861	0.11157
3539.11993	0.11168
3537.19126	0.11177
3535.26258	0.11187
3533.33391	0.11200
3531.40523	0.11209
3529.47655	0.11214
3527.54788	0.11219
3525.61920	0.11226
3523.69053	0.11235
3521.76185	0.11245
3519.83318	0.11253
3517.90450	0.11260
3515.97582	0.11268
3514.04715	0.11277
3512.11847	0.11283
3510.18980	0.11286
3508.26112	0.11292
3506.33245	0.11299
3504.40377	0.11303
3502.47509	0.11308
3500.54642	0.11316
3498.61774	0.11324
3496.68907	0.11330
3494.76039	0.11336
3492.83172	0.11342
3490.90304	0.11347
3488.97436	0.11351
3487.04569	0.11358
3485.11701	0.11365
3483.18834	0.11369
3481.25966	0.11377
3479.33099	0.11390
3477.40231	0.11405
3475.47363	0.11419
3473.54496	0.11433
3471.61628	0.11449
3469.68761	0.11464
3467.75893	0.11476
3465.83026	0.11491
3463.90158	0.11509
3461.97290	0.11531
3460.04423	0.11554
3458.11555	0.11575
3456.18688	0.11592
3454.25820	0.11608
3452.32953	0.11624
3450.40085	0.11641
3448.47217	0.11657
3446.54350	0.11673
3444.61482	0.11692
3442.68615	0.11715
3440.75747	0.11741
3438.82880	0.11769
3436.90012	0.11798
3434.97144	0.11828
3433.04277	0.11862
3431.11409	0.11899
3429.18542	0.11938
3427.25674	0.11976
3425.32807	0.12013
3423.39939	0.12047
3421.47071	0.12079
3419.54204	0.12113
3417.61336	0.12148
3415.68469	0.12179
3413.75601	0.12206
3411.82734	0.12233
3409.89866	0.12258
3407.96998	0.12281
3406.04131	0.12306
3404.11263	0.12331
3402.18396	0.12356
3400.25528	0.12382
3398.32661	0.12411
3396.39793	0.12440
3394.46925	0.12467
3392.54058	0.12493
3390.61190	0.12517
3388.68323	0.12538
3386.75455	0.12559
3384.82588	0.12584
3382.89720	0.12609
3380.96852	0.12635
3379.03985	0.12661
3377.11117	0.12685
3375.18250	0.12708
3373.25382	0.12731
3371.32515	0.12754
3369.39647	0.12776
3367.46779	0.12796
3365.53912	0.12819
3363.61044	0.12844
3361.68177	0.12867
3359.75309	0.12889
3357.82442	0.12912
3355.89574	0.12935
3353.96706	0.12959
3352.03839	0.12982
3350.10971	0.13007
3348.18104	0.13033
3346.25236	0.13056
3344.32369	0.13077
3342.39501	0.13098
3340.46633	0.13120
3338.53766	0.13143
3336.60898	0.13168
3334.68031	0.13193
3332.75163	0.13216
3330.82296	0.13238
3328.89428	0.13263
3326.96560	0.13288
3325.03693	0.13309
3323.10825	0.13329
3321.17958	0.13350
3319.25090	0.13373
3317.32223	0.13398
3315.39355	0.13423
3313.46487	0.13448
3311.53620	0.13474
3309.60752	0.13497
3307.67885	0.13522
3305.75017	0.13549
3303.82150	0.13574
3301.89282	0.13595
3299.96414	0.13616
3298.03547	0.13640
3296.10679	0.13666
3294.17812	0.13692
3292.24944	0.13717
3290.32077	0.13741
3288.39209	0.13765
3286.46341	0.13790
3284.53474	0.13816
3282.60606	0.13842
3280.67739	0.13868
3278.74871	0.13891
3276.82004	0.13914
3274.89136	0.13939
3272.96268	0.13967
3271.03401	0.13996
3269.10533	0.14021
3267.17666	0.14043
3265.24798	0.14068
3263.31931	0.14096
3261.39063	0.14122
3259.46195	0.14145
3257.53328	0.14169
3255.60460	0.14194
3253.67593	0.14219
3251.74725	0.14247
3249.81858	0.14273
3247.88990	0.14297
3245.96122	0.14321
3244.03255	0.14345
3242.10387	0.14371
3240.17520	0.14398
3238.24652	0.14427
3236.31785	0.14452
3234.38917	0.14475
3232.46049	0.14498
3230.53182	0.14522
3228.60314	0.14545
3226.67447	0.14569
3224.74579	0.14596
3222.81712	0.14623
3220.88844	0.14648
3218.95976	0.14672
3217.03109	0.14695
3215.10241	0.14720
3213.17374	0.14746
3211.24506	0.14769
3209.31639	0.14792
3207.38771	0.14817
3205.45903	0.14844
3203.53036	0.14870
3201.60168	0.14897
3199.67301	0.14926
3197.74433	0.14956
3195.81566	0.14986
3193.88698	0.15013
3191.95830	0.15038
3190.02963	0.15064
3188.10095	0.15092
3186.17228	0.15122
3184.24360	0.15151
3182.31493	0.15178
3180.38625	0.15203
3178.45757	0.15228
3176.52890	0.15255
3174.60022	0.15282
3172.67155	0.15307
3170.74287	0.15334
3168.81420	0.15362
3166.88552	0.15389
3164.95684	0.15413
3163.02817	0.15434
3161.09949	0.15458
3159.17082	0.15487
3157.24214	0.15518
3155.31347	0.15546
3153.38479	0.15571
3151.45611	0.15596
3149.52744	0.15622
3147.59876	0.15648
3145.67009	0.15675
3143.74141	0.15701
3141.81274	0.15728
3139.88406	0.15754
3137.95538	0.15781
3136.02671	0.15808
3134.09803	0.15833
3132.16936	0.15857
3130.24068	0.15880
3128.31201	0.15904
3126.38333	0.15929
3124.45465	0.15953
3122.52598	0.15980
3120.59730	0.16010
3118.66863	0.16039
3116.73995	0.16064
3114.81128	0.16087
3112.88260	0.16111
3110.95392	0.16137
3109.02525	0.16163
3107.09657	0.16192
3105.16790	0.16219
3103.23922	0.16243
3101.31055	0.16268
3099.38187	0.16297
3097.45319	0.16328
3095.52452	0.16355
3093.59584	0.16382
3091.66717	0.16412
3089.73849	0.16440
3087.80982	0.16465
3085.88114	0.16489
3083.95246	0.16514
3082.02379	0.16538
3080.09511	0.16562
3078.16644	0.16586
3076.23776	0.16611
3074.30909	0.16637
3072.38041	0.16664
3070.45173	0.16689
3068.52306	0.16711
3066.59438	0.16737
3064.66571	0.16766
3062.73703	0.16794
3060.80836	0.16820
3058.87968	0.16845
3056.95100	0.16870
3055.02233	0.16897
3053.09365	0.16925
3051.16498	0.16953
3049.23630	0.16977
3047.30763	0.17002
3045.37895	0.17028
3043.45027	0.17053
3041.52160	0.17077
3039.59292	0.17102
3037.66425	0.17128
3035.73557	0.17154
3033.80690	0.17178
3031.87822	0.17203
3029.94954	0.17231
3028.02087	0.17260
3026.09219	0.17290
3024.16352	0.17321
3022.23484	0.17348
3020.30617	0.17374
3018.37749	0.17397
3016.44881	0.17420
3014.52014	0.17442
3012.59146	0.17466
3010.66279	0.17495
3008.73411	0.17525
3006.80544	0.17552
3004.87676	0.17577
3002.94808	0.17603
3001.01941	0.17628
2999.09073	0.17653
2997.16206	0.17678
2995.23338	0.17704
2993.30471	0.17729
2991.37603	0.17751
2989.44735	0.17770
2987.51868	0.17787
2985.59000	0.17802
2983.66133	0.17819
2981.73265	0.17837
2979.80398	0.17848
2977.87530	0.17857
2975.94662	0.17865
2974.01795	0.17869
2972.08927	0.17868
2970.16060	0.17864
2968.23192	0.17859
2966.30325	0.17858
2964.37457	0.17864
2962.44589	0.17880
2960.51722	0.17903
2958.58854	0.17931
2956.65987	0.17964
2954.73119	0.18003
2952.80252	0.18042
2950.87384	0.18076
2948.94516	0.18104
2947.01649	0.18125
2945.08781	0.18142
2943.15914	0.18155
2941.23046	0.18164
2939.30179	0.18168
2937.37311	0.18167
2935.44443	0.18164
2933.51576	0.18157
2931.58708	0.18148
2929.65841	0.18138
2927.72973	0.18131
2925.80106	0.18128
2923.87238	0.18131
2921.94370	0.18139
2920.01503	0.18154
2918.08635	0.18184
2916.15768	0.18239
2914.22900	0.18319
2912.30033	0.18410
2910.37165	0.18492
2908.44297	0.18560
2906.51430	0.18614
2904.58562	0.18658
2902.65695	0.18698
2900.72827	0.18739
2898.79960	0.18779
2896.87092	0.18819
2894.94224	0.18860
2893.01357	0.18898
2891.08489	0.18931
2889.15622	0.18964
2887.22754	0.19000
2885.29887	0.19035
2883.37019	0.19066
2881.44151	0.19094
2879.51284	0.19119
2877.58416	0.19143
2875.65549	0.19163
2873.72681	0.19187
2871.79814	0.19213
2869.86946	0.19237
2867.94078	0.19261
2866.01211	0.19284
2864.08343	0.19303
2862.15476	0.19314
2860.22608	0.19321
2858.29741	0.19323
2856.36873	0.19321
2854.44005	0.19316
2852.51138	0.19313
2850.58270	0.19330
2848.65403	0.19384
2846.72535	0.19468
2844.79668	0.19558
2842.86800	0.19634
2840.93932	0.19695
2839.01065	0.19747
2837.08197	0.19794
2835.15330	0.19836
2833.22462	0.19875
2831.29595	0.19911
2829.36727	0.19945
2827.43859	0.19974
2825.50992	0.20001
2823.58124	0.20033
2821.65257	0.20067
2819.72389	0.20098
2817.79522	0.20125
2815.86654	0.20154
2813.93786	0.20185
2812.00919	0.20214
2810.08051	0.20240
2808.15184	0.20270
2806.22316	0.20301
2804.29449	0.20330
2802.36581	0.20359
2800.43713	0.20390
2798.50846	0.20419
2796.57978	0.20446
2794.65111	0.20475
2792.72243	0.20506
2790.79376	0.20536
2788.86508	0.20565
2786.93640	0.20594
2785.00773	0.20624
2783.07905	0.20652
2781.15038	0.20680
2779.22170	0.20710
2777.29303	0.20738
2775.36435	0.20765
2773.43567	0.20793
2771.50700	0.20823
2769.57832	0.20855
2767.64965	0.20884
2765.72097	0.20911
2763.79230	0.20935
2761.86362	0.20961
2759.93494	0.20988
2758.00627	0.21013
2756.07759	0.21039
2754.14892	0.21068
2752.22024	0.21098
2750.29157	0.21124
2748.36289	0.21150
2746.43421	0.21180
2744.50554	0.21211
2742.57686	0.21240
2740.64819	0.21267
2738.71951	0.21291
2736.79084	0.21316
2734.86216	0.21341
2732.93348	0.21368
2731.00481	0.21396
2729.07613	0.21423
2727.14746	0.21450
2725.21878	0.21477
2723.29011	0.21505
2721.36143	0.21535
2719.43275	0.21563
2717.50408	0.21590
2715.57540	0.21616
2713.64673	0.21644
2711.71805	0.21669
2709.78938	0.21693
2707.86070	0.21723
2705.93202	0.21753
2704.00335	0.21780
2702.07467	0.21804
2700.14600	0.21832
2698.21732	0.21861
2696.28865	0.21891
2694.35997	0.21918
2692.43129	0.21945
2690.50262	0.21971
2688.57394	0.21996
2686.64527	0.22021
2684.71659	0.22049
2682.78792	0.22079
2680.85924	0.22106
2678.93056	0.22130
2677.00189	0.22153
2675.07321	0.22179
2673.14454	0.22209
2671.21586	0.22241
2669.28719	0.22269
2667.35851	0.22296
2665.42983	0.22323
2663.50116	0.22350
2661.57248	0.22379
2659.64381	0.22406
2657.71513	0.22431
2655.78646	0.22456
2653.85778	0.22482
2651.92910	0.22510
2650.00043	0.22537
2648.07175	0.22566
2646.14308	0.22595
2644.21440	0.22623
2642.28573	0.22652
2640.35705	0.22684
2638.42837	0.22718
2636.49970	0.22748
2634.57102	0.22774
2632.64235	0.22803
2630.71367	0.22835
2628.78500	0.22866
2626.85632	0.22897
2624.92764	0.22926
2622.99897	0.22951
2621.07029	0.22976
2619.14162	0.23006
2617.21294	0.23037
2615.28427	0.23067
2613.35559	0.23099
2611.42691	0.23131
2609.49824	0.23160
2607.56956	0.23185
2605.64089	0.23210
2603.71221	0.23240
2601.78354	0.23271
2599.85486	0.23298
2597.92618	0.23325
2595.99751	0.23355
2594.06883	0.23387
2592.14016	0.23417
2590.21148	0.23444
2588.28281	0.23470
2586.35413	0.23497
2584.42545	0.23526
2582.49678	0.23559
2580.56810	0.23592
2578.63943	0.23624
2576.71075	0.23653
2574.78208	0.23678
2572.85340	0.23703
2570.92472	0.23729
2568.99605	0.23755
2567.06737	0.23781
2565.13870	0.23807
2563.21002	0.23834
2561.28135	0.23862
2559.35267	0.23893
2557.42399	0.23923
2555.49532	0.23950
2553.56664	0.23978
2551.63797	0.24008
2549.70929	0.24039
2547.78062	0.24067
2545.85194	0.24089
2543.92326	0.24112
2541.99459	0.24140
2540.06591	0.24171
2538.13724	0.24201
2536.20856	0.24227
2534.27989	0.24253
2532.35121	0.24284
2530.42253	0.24314
2528.49386	0.24342
2526.56518	0.24370
2524.63651	0.24400
2522.70783	0.24431
2520.77916	0.24462
2518.85048	0.24494
2516.92181	0.24525
2514.99313	0.24553
2513.06445	0.24582
2511.13578	0.24614
2509.20710	0.24646
2507.27843	0.24678
2505.34975	0.24707
2503.42108	0.24735
2501.49240	0.24764
2499.56372	0.24792
2497.63505	0.24825
2495.70637	0.24862
2493.77770	0.24896
2491.84902	0.24927
2489.92035	0.24957
2487.99167	0.24988
2486.06299	0.25020
2484.13432	0.25052
2482.20564	0.25084
2480.27697	0.25114
2478.34829	0.25146
2476.41962	0.25178
2474.49094	0.25207
2472.56226	0.25235
2470.63359	0.25261
2468.70491	0.25288
2466.77624	0.25316
2464.84756	0.25348
2462.91889	0.25381
2460.99021	0.25413
2459.06153	0.25444
2457.13286	0.25477
2455.20418	0.25509
2453.27551	0.25535
2451.34683	0.25559
2449.41816	0.25591
2447.48948	0.25625
2445.56080	0.25656
2443.63213	0.25685
2441.70345	0.25716
2439.77478	0.25749
2437.84610	0.25782
2435.91743	0.25811
2433.98875	0.25839
2432.06007	0.25871
2430.13140	0.25903
2428.20272	0.25932
2426.27405	0.25960
2424.34537	0.25989
2422.41670	0.26018
2420.48802	0.26045
2418.55934	0.26074
2416.63067	0.26105
2414.70199	0.26136
2412.77332	0.26165
2410.84464	0.26197
2408.91597	0.26233
2406.98729	0.26265
2405.05861	0.26290
2403.12994	0.26313
2401.20126	0.26338
2399.27259	0.26369
2397.34391	0.26403
2395.41524	0.26434
2393.48656	0.26463
2391.55788	0.26491
2389.62921	0.26519
2387.70053	0.26548
2385.77186	0.26576
2383.84318	0.26599
2381.91451	0.26617
2379.98583	0.26631
2378.05715	0.26644
2376.12848	0.26650
2374.19980	0.26653
2372.27113	0.26656
2370.34245	0.26660
2368.41378	0.26667
2366.48510	0.26680
2364.55642	0.26700
2362.62775	0.26723
2360.69907	0.26753
2358.77040	0.26790
2356.84172	0.26833
2354.91305	0.26889
2352.98437	0.26956
2351.05569	0.27018
2349.12702	0.27060
2347.19834	0.27073
2345.26967	0.27074
2343.34099	0.27083
2341.41232	0.27104
2339.48364	0.27133
2337.55496	0.27163
2335.62629	0.27189
2333.69761	0.27216
2331.76894	0.27247
2329.84026	0.27284
2327.91159	0.27320
2325.98291	0.27354
2324.05423	0.27393
2322.12556	0.27435
2320.19688	0.27477
2318.26821	0.27521
2316.33953	0.27566
2314.41086	0.27606
2312.48218	0.27643
2310.55350	0.27682
2308.62483	0.27720
2306.69615	0.27757
2304.76748	0.27794
2302.83880	0.27832
2300.91013	0.27867
2298.98145	0.27900
2297.05277	0.27933
2295.12410	0.27962
2293.19542	0.27990
2291.26675	0.28020
2289.33807	0.28051
2287.40940	0.28085
2285.48072	0.28117
2283.55204	0.28148
2281.62337	0.28179
2279.69469	0.28208
2277.76602	0.28236
2275.83734	0.28263
2273.90867	0.28291
2271.97999	0.28325
2270.05131	0.28359
2268.12264	0.28390
2266.19396	0.28420
2264.26529	0.28450
2262.33661	0.28480
2260.40794	0.28509
2258.47926	0.28538
2256.55058	0.28568
2254.62191	0.28596
2252.69323	0.28625
2250.76456	0.28657
2248.83588	0.28687
2246.90721	0.28717
2244.97853	0.28746
2243.04985	0.28777
2241.12118	0.28807
2239.19250	0.28836
2237.26383	0.28865
2235.33515	0.28892
2233.40648	0.28922
2231.47780	0.28954
2229.54912	0.28986
2227.62045	0.29017
2225.69177	0.29045
2223.76310	0.29072
2221.83442	0.29097
2219.90575	0.29125
2217.97707	0.29158
2216.04839	0.29193
2214.11972	0.29224
2212.19104	0.29251
2210.26237	0.29279
2208.33369	0.29309
2206.40502	0.29340
2204.47634	0.29368
2202.54766	0.29393
2200.61899	0.29420
2198.69031	0.29451
2196.76164	0.29483
2194.83296	0.29512
2192.90429	0.29539
2190.97561	0.29567
2189.04693	0.29593
2187.11826	0.29620
2185.18958	0.29652
2183.26091	0.29686
2181.33223	0.29716
2179.40356	0.29744
2177.47488	0.29774
2175.54620	0.29804
2173.61753	0.29833
2171.68885	0.29863
2169.76018	0.29895
2167.83150	0.29928
2165.90283	0.29959
2163.97415	0.29990
2162.04547	0.30021
2160.11680	0.30053
2158.18812	0.30086
2156.25945	0.30115
2154.33077	0.30141
2152.40210	0.30169
2150.47342	0.30200
2148.54474	0.30233
2146.61607	0.30265
2144.68739	0.30297
2142.75872	0.30328
2140.83004	0.30359
2138.90137	0.30389
2136.97269	0.30417
2135.04401	0.30445
2133.11534	0.30474
2131.18666	0.30499
2129.25799	0.30526
2127.32931	0.30557
2125.40064	0.30587
2123.47196	0.30614
2121.54328	0.30644
2119.61461	0.30679
2117.68593	0.30713
2115.75726	0.30744
2113.82858	0.30775
2111.89991	0.30806
2109.97123	0.30838
2108.04255	0.30871
2106.11388	0.30904
2104.18520	0.30936
2102.25653	0.30967
2100.32785	0.30996
2098.39918	0.31025
2096.47050	0.31052
2094.54182	0.31076
2092.61315	0.31101
2090.68447	0.31129
2088.75580	0.31160
2086.82712	0.31195
2084.89845	0.31229
2082.96977	0.31258
2081.04109	0.31286
2079.11242	0.31316
2077.18374	0.31351
2075.25507	0.31386
2073.32639	0.31416
2071.39772	0.31442
2069.46904	0.31469
2067.54036	0.31496
2065.61169	0.31525
2063.68301	0.31557
2061.75434	0.31589
2059.82566	0.31620
2057.89699	0.31653
2055.96831	0.31688
2054.03963	0.31720
2052.11096	0.31747
2050.18228	0.31772
2048.25361	0.31799
2046.32493	0.31829
2044.39626	0.31857
2042.46758	0.31887
2040.53890	0.31922
2038.61023	0.31958
2036.68155	0.31990
2034.75288	0.32019
2032.82420	0.32046
2030.89553	0.32075
2028.96685	0.32106
2027.03817	0.32140
2025.10950	0.32177
2023.18082	0.32211
2021.25215	0.32240
2019.32347	0.32264
2017.39480	0.32291
2015.46612	0.32326
2013.53744	0.32364
2011.60877	0.32397
2009.68009	0.32424
2007.75142	0.32448
2005.82274	0.32478
2003.89407	0.32513
2001.96539	0.32544
2000.03671	0.32569
1998.10804	0.32596
1996.17936	0.32626
1994.25069	0.32648
1992.32201	0.32670
1990.39334	0.32703
1988.46466	0.32738
1986.53598	0.32769
1984.60731	0.32797
1982.67863	0.32826
1980.74996	0.32853
1978.82128	0.32876
1976.89261	0.32899
1974.96393	0.32922
1973.03525	0.32944
1971.10658	0.32968
1969.17790	0.32989
1967.24923	0.33010
1965.32055	0.33037
1963.39188	0.33070
1961.46320	0.33102
1959.53452	0.33135
1957.60585	0.33164
1955.67717	0.33191
1953.74850	0.33219
1951.81982	0.33250
1949.89115	0.33284
1947.96247	0.33317
1946.03379	0.33338
1944.10512	0.33350
1942.17644	0.33376
1940.24777	0.33427
1938.31909	0.33477
1936.39042	0.33508
1934.46174	0.33529
1932.53306	0.33550
1930.60439	0.33576
1928.67571	0.33608
1926.74704	0.33641
1924.81836	0.33666
1922.88969	0.33688
1920.96101	0.33707
1919.03233	0.33722
1917.10366	0.33757
1915.17498	0.33814
1913.24631	0.33856
1911.31763	0.33878
1909.38896	0.33902
1907.46028	0.33933
1905.53160	0.33963
1903.60293	0.33992
1901.67425	0.34023
1899.74558	0.34053
1897.81690	0.34078
1895.88823	0.34100
1893.95955	0.34125
1892.03087	0.34146
1890.10220	0.34162
1888.17352	0.34196
1886.24485	0.34243
1884.31617	0.34283
1882.38750	0.34315
1880.45882	0.34345
1878.53014	0.34375
1876.60147	0.34405
1874.67279	0.34432
1872.74412	0.34445
1870.81544	0.34437
1868.88677	0.34440
1866.95809	0.34486
1865.02941	0.34550
1863.10074	0.34598
1861.17206	0.34630
1859.24339	0.34661
1857.31471	0.34696
1855.38604	0.34730
1853.45736	0.34761
1851.52868	0.34789
1849.60001	0.34811
1847.67133	0.34812
1845.74266	0.34792
1843.81398	0.34807
1841.88531	0.34885
1839.95663	0.34963
1838.02795	0.35002
1836.09928	0.35031
1834.17060	0.35059
1832.24193	0.35062
1830.31325	0.35061
1828.38458	0.35088
1826.45590	0.35121
1824.52722	0.35158
1822.59855	0.35214
1820.66987	0.35266
1818.74120	0.35295
1816.81252	0.35321
1814.88385	0.35348
1812.95517	0.35365
1811.02649	0.35377
1809.09782	0.35402
1807.16914	0.35438
1805.24047	0.35465
1803.31179	0.35472
1801.38312	0.35473
1799.45444	0.35498
1797.52576	0.35537
1795.59709	0.35547
1793.66841	0.35530
1791.73974	0.35542
1789.81106	0.35604
1787.88239	0.35659
1785.95371	0.35678
1784.02503	0.35696
1782.09636	0.35721
1780.16768	0.35746
1778.23901	0.35775
1776.31033	0.35787
1774.38166	0.35765
1772.45298	0.35750
1770.52430	0.35776
1768.59563	0.35825
1766.66695	0.35884
1764.73828	0.35924
1762.80960	0.35923
1760.88093	0.35930
1758.95225	0.35953
1757.02357	0.35970
1755.09490	0.35982
1753.16622	0.35951
1751.23755	0.35896
1749.30887	0.35889
1747.38020	0.35928
1745.45152	0.35962
1743.52284	0.35974
1741.59417	0.35971
1739.66549	0.35972
1737.73682	0.35967
1735.80814	0.35922
1733.87947	0.35904
1731.95079	0.35979
1730.02211	0.36084
1728.09344	0.36165
1726.16476	0.36220
1724.23609	0.36249
1722.30741	0.36253
1720.37874	0.36212
1718.45006	0.36159
1716.52138	0.36171
1714.59271	0.36254
1712.66403	0.36343
1710.73536	0.36393
1708.80668	0.36393
1706.87801	0.36370
1704.94933	0.36352
1703.02065	0.36301
1701.09198	0.36227
1699.16330	0.36228
1697.23463	0.36283
1695.30595	0.36343
1693.37728	0.36421
1691.44860	0.36467
1689.51992	0.36462
1687.59125	0.36420
1685.66257	0.36339
1683.73390	0.36310
1681.80522	0.36384
1679.87655	0.36465
1677.94787	0.36472
1676.01919	0.36443
1674.09052	0.36448
1672.16184	0.36460
1670.23317	0.36451
1668.30449	0.36486
1666.37582	0.36554
1664.44714	0.36574
1662.51846	0.36574
1660.58979	0.36607
1658.66111	0.36634
1656.73244	0.36571
1654.80376	0.36428
1652.87509	0.36376
1650.94641	0.36471
1649.01773	0.36538
1647.08906	0.36543
1645.16038	0.36599
1643.23171	0.36685
1641.30303	0.36724
1639.37436	0.36698
1637.44568	0.36636
1635.51700	0.36623
1633.58833	0.36701
1631.65965	0.36777
1629.73098	0.36781
1627.80230	0.36751
1625.87363	0.36709
1623.94495	0.36643
1622.01627	0.36591
1620.08760	0.36580
1618.15892	0.36612
1616.23025	0.36716
1614.30157	0.36866
1612.37290	0.36974
1610.44422	0.37025
1608.51554	0.37067
1606.58687	0.37119
1604.65819	0.37167
1602.72952	0.37207
1600.80084	0.37249
1598.87217	0.37288
1596.94349	0.37315
1595.01481	0.37339
1593.08614	0.37375
1591.15746	0.37411
1589.22879	0.37442
1587.30011	0.37473
1585.37144	0.37505
1583.44276	0.37536
1581.51408	0.37562
1579.58541	0.37560
1577.65673	0.37529
1575.72806	0.37537
1573.79938	0.37599
1571.87071	0.37628
1569.94203	0.37625
1568.01335	0.37659
1566.08468	0.37712
1564.15600	0.37735
1562.22733	0.37683
1560.29865	0.37564
1558.36998	0.37531
1556.44130	0.37647
1554.51262	0.37783
1552.58395	0.37860
1550.65527	0.37899
1548.72660	0.37925
1546.79792	0.37923
1544.86925	0.37873
1542.94057	0.37804
1541.01189	0.37772
1539.08322	0.37833
1537.15454	0.37945
1535.22587	0.37992
1533.29719	0.37997
1531.36852	0.38038
1529.43984	0.38074
1527.51116	0.38069
1525.58249	0.38051
1523.65381	0.38011
1521.72514	0.37969
1519.79646	0.37995
1517.86779	0.38062
1515.93911	0.38122
1514.01043	0.38169
1512.08176	0.38179
1510.15308	0.38133
1508.22441	0.38070
1506.29573	0.38096
1504.36706	0.38227
1502.43838	0.38331
1500.50970	0.38334
1498.58103	0.38299
1496.65235	0.38306
1494.72368	0.38355
1492.79500	0.38369
1490.86633	0.38328
1488.93765	0.38316
1487.00897	0.38365
1485.08030	0.38423
1483.15162	0.38450
1481.22295	0.38452
1479.29427	0.38433
1477.36560	0.38383
1475.43692	0.38309
1473.50824	0.38247
1471.57957	0.38241
1469.65089	0.38281
1467.72222	0.38292
1465.79354	0.38268
1463.86487	0.38275
1461.93619	0.38294
1460.00751	0.38233
1458.07884	0.38129
1456.15016	0.38135
1454.22149	0.38256
1452.29281	0.38354
1450.36414	0.38377
1448.43546	0.38378
1446.50678	0.38406
1444.57811	0.38452
1442.64943	0.38480
1440.72076	0.38473
1438.79208	0.38416
1436.86341	0.38367
1434.93473	0.38403
1433.00605	0.38464
1431.07738	0.38477
1429.14870	0.38476
1427.22003	0.38484
1425.29135	0.38481
1423.36268	0.38460
1421.43400	0.38405
1419.50532	0.38341
1417.57665	0.38347
1415.64797	0.38406
1413.71930	0.38438
1411.79062	0.38439
1409.86195	0.38436
1407.93327	0.38430
1406.00459	0.38413
1404.07592	0.38402
1402.14724	0.38395
1400.21857	0.38367
1398.28989	0.38333
1396.36122	0.38313
1394.43254	0.38317
1392.50386	0.38347
1390.57519	0.38343
1388.64651	0.38276
1386.71784	0.38206
1384.78916	0.38185
1382.86049	0.38203
1380.93181	0.38228
1379.00313	0.38235
1377.07446	0.38218
1375.14578	0.38196
1373.21711	0.38193
1371.28843	0.38206
1369.35976	0.38209
1367.43108	0.38201
1365.50240	0.38178
1363.57373	0.38143
1361.64505	0.38139
1359.71638	0.38168
1357.78770	0.38189
1355.85903	0.38191
1353.93035	0.38196
1352.00167	0.38207
1350.07300	0.38222
1348.14432	0.38242
1346.21565	0.38262
1344.28697	0.38268
1342.35830	0.38254
1340.42962	0.38230
1338.50094	0.38225
1336.57227	0.38243
1334.64359	0.38259
1332.71492	0.38260
1330.78624	0.38252
1328.85757	0.38239
1326.92889	0.38224
1325.00021	0.38213
1323.07154	0.38202
1321.14286	0.38183
1319.21419	0.38161
1317.28551	0.38148
1315.35684	0.38135
1313.42816	0.38115
1311.49948	0.38093
1309.57081	0.38072
1307.64213	0.38044
1305.71346	0.38009
1303.78478	0.37973
1301.85611	0.37936
1299.92743	0.37895
1297.99875	0.37859
1296.07008	0.37831
1294.14140	0.37801
1292.21273	0.37759
1290.28405	0.37707
1288.35538	0.37650
1286.42670	0.37592
1284.49802	0.37536
1282.56935	0.37482
1280.64067	0.37427
1278.71200	0.37362
1276.78332	0.37280
1274.85465	0.37183
1272.92597	0.37073
1270.99729	0.36936
1269.06862	0.36765
1267.13994	0.36579
1265.21127	0.36409
1263.28259	0.36279
1261.35392	0.36208
1259.42524	0.36202
1257.49656	0.36236
1255.56789	0.36265
1253.63921	0.36261
1251.71054	0.36228
1249.78186	0.36172
1247.85319	0.36104
1245.92451	0.36034
1243.99583	0.35960
1242.06716	0.35879
1240.13848	0.35789
1238.20981	0.35691
1236.28113	0.35590
1234.35246	0.35490
1232.42378	0.35391
1230.49510	0.35288
1228.56643	0.35183
1226.63775	0.35080
1224.70908	0.34984
1222.78040	0.34897
1220.85173	0.34808
1218.92305	0.34713
1216.99437	0.34618
1215.06570	0.34521
1213.13702	0.34423
1211.20835	0.34330
1209.27967	0.34241
1207.35100	0.34146
1205.42232	0.34046
1203.49364	0.33952
1201.56497	0.33863
1199.63629	0.33776
1197.70762	0.33689
1195.77894	0.33598
1193.85027	0.33500
1191.92159	0.33399
1189.99291	0.33293
1188.06424	0.33179
1186.13556	0.33057
1184.20689	0.32932
1182.27821	0.32799
1180.34954	0.32661
1178.42086	0.32526
1176.49218	0.32392
1174.56351	0.32254
1172.63483	0.32110
1170.70616	0.31959
1168.77748	0.31810
1166.84881	0.31664
1164.92013	0.31519
1162.99145	0.31376
1161.06278	0.31242
1159.13410	0.31117
1157.20543	0.30997
1155.27675	0.30878
1153.34808	0.30759
1151.41940	0.30638
1149.49072	0.30514
1147.56205	0.30392
1145.63337	0.30274
1143.70470	0.30159
1141.77602	0.30045
1139.84735	0.29927
1137.91867	0.29805
1135.98999	0.29678
1134.06132	0.29549
1132.13264	0.29424
1130.20397	0.29297
1128.27529	0.29160
1126.34662	0.29017
1124.41794	0.28874
1122.48926	0.28729
1120.56059	0.28577
1118.63191	0.28419
1116.70324	0.28261
1114.77456	0.28107
1112.84589	0.27954
1110.91721	0.27804
1108.98853	0.27657
1107.05986	0.27510
1105.13118	0.27363
1103.20251	0.27217
1101.27383	0.27073
1099.34516	0.26935
1097.41648	0.26805
1095.48780	0.26681
1093.55913	0.26564
1091.63045	0.26453
1089.70178	0.26341
1087.77310	0.26228
1085.84443	0.26116
1083.91575	0.26008
1081.98707	0.25904
1080.05840	0.25803
1078.12972	0.25712
1076.20105	0.25633
1074.27237	0.25567
1072.34370	0.25514
1070.41502	0.25474
1068.48634	0.25445
1066.55767	0.25425
1064.62899	0.25416
1062.70032	0.25419
1060.77164	0.25435
1058.84297	0.25459
1056.91429	0.25484
1054.98561	0.25517
1053.05694	0.25562
1051.12826	0.25613
1049.19959	0.25667
1047.27091	0.25726
1045.34224	0.25793
1043.41356	0.25866
1041.48488	0.25944
1039.55621	0.26022
1037.62753	0.26100
1035.69886	0.26179
1033.77018	0.26257
1031.84151	0.26332
1029.91283	0.26405
1027.98415	0.26478
1026.05548	0.26551
1024.12680	0.26631
1022.19813	0.26722
1020.26945	0.26820
1018.34078	0.26922
1016.41210	0.27031
1014.48342	0.27153
1012.55475	0.27286
1010.62607	0.27428
1008.69740	0.27575
1006.76872	0.27717
1004.84005	0.27845
1002.91137	0.27961
1000.98269	0.28066
999.05402	0.28156
997.12534	0.28234
995.19667	0.28309
993.26799	0.28379
991.33932	0.28441
989.41064	0.28500
987.48196	0.28567
985.55329	0.28634
983.62461	0.28694
981.69594	0.28743
979.76726	0.28773
977.83859	0.28783
975.90991	0.28786
973.98123	0.28788
972.05256	0.28785
970.12388	0.28784
968.19521	0.28779
966.26653	0.28758
964.33786	0.28729
962.40918	0.28699
960.48050	0.28670
958.55183	0.28639
956.62315	0.28607
954.69448	0.28570
952.76580	0.28524
950.83713	0.28473
948.90845	0.28418
946.97977	0.28364
945.05110	0.28311
943.12242	0.28250
941.19375	0.28183
939.26507	0.28116
937.33640	0.28048
935.40772	0.27977
933.47904	0.27904
931.55037	0.27836
929.62169	0.27777
927.69302	0.27720
925.76434	0.27657
923.83567	0.27593
921.90699	0.27533
919.97831	0.27467
918.04964	0.27386
916.12096	0.27297
914.19229	0.27215
912.26361	0.27138
910.33494	0.27053
908.40626	0.26957
906.47758	0.26865
904.54891	0.26785
902.62023	0.26703
900.69156	0.26610
898.76288	0.26511
896.83421	0.26413
894.90553	0.26324
892.97685	0.26243
891.04818	0.26162
889.11950	0.26073
887.19083	0.25978
885.26215	0.25883
883.33348	0.25794
881.40480	0.25712
879.47612	0.25632
877.54745	0.25552
875.61877	0.25479
873.69010	0.25417
871.76142	0.25354
869.83275	0.25278
867.90407	0.25194
865.97539	0.25105
864.04672	0.25015
862.11804	0.24924
860.18937	0.24833
858.26069	0.24742
856.33202	0.24656
854.40334	0.24572
852.47466	0.24481
850.54599	0.24383
848.61731	0.24289
846.68864	0.24203
844.75996	0.24117
842.83129	0.24029
840.90261	0.23941
838.97394	0.23849
837.04526	0.23760
835.11658	0.23675
833.18791	0.23589
831.25923	0.23496
829.33056	0.23392
827.40188	0.23274
825.47321	0.23149
823.54453	0.23027
821.61585	0.22913
819.68718	0.22811
817.75850	0.22723
815.82983	0.22633
813.90115	0.22531
811.97248	0.22421
810.04380	0.22317
808.11512	0.22223
806.18645	0.22134
804.25777	0.22055
802.32910	0.21991
800.40042	0.21930
798.47175	0.21869
796.54307	0.21824
794.61439	0.21796
792.68572	0.21773
790.75704	0.21748
788.82837	0.21716
786.89969	0.21677
784.97102	0.21636
783.04234	0.21592
781.11366	0.21548
779.18499	0.21505
777.25631	0.21461
775.32764	0.21416
773.39896	0.21369
771.47029	0.21315
769.54161	0.21258
767.61293	0.21202
765.68426	0.21143
763.75558	0.21075
761.82691	0.21001
759.89823	0.20930
757.96956	0.20856
756.04088	0.20767
754.11220	0.20668
752.18353	0.20565
750.25485	0.20467
748.32618	0.20374
746.39750	0.20283
744.46883	0.20193
742.54015	0.20108
740.61147	0.20026
738.68280	0.19945
736.75412	0.19867
734.82545	0.19796
732.89677	0.19729
730.96810	0.19657
729.03942	0.19585
727.11074	0.19515
725.18207	0.19442
723.25339	0.19360
721.32472	0.19275
719.39604	0.19196
717.46737	0.19130
715.53869	0.19064
713.61001	0.18982
711.68134	0.18897
709.75266	0.18824
707.82399	0.18752
705.89531	0.18671
703.96664	0.18592
702.03796	0.18513
700.10928	0.18432
698.18061	0.18351
696.25193	0.18274
694.32326	0.18196
692.39458	0.18114
690.46591	0.18029
688.53723	0.17937
686.60855	0.17839
684.67988	0.17750
682.75120	0.17664
680.82253	0.17563
678.89385	0.17445
676.96518	0.17320
675.03650	0.17196
673.10782	0.17072
671.17915	0.16924
669.25047	0.16751
667.32180	0.16596
665.39312	0.16471
663.46445	0.16334
661.53577	0.16170
659.60709	0.16005
657.67842	0.15858
655.74974	0.15719
653.82107	0.15575
651.89239	0.15428
649.96372	0.15276
648.03504	0.15116
646.10636	0.14957
644.17769	0.14803
642.24901	0.14646
640.32034	0.14478
638.39166	0.14295
636.46299	0.14105
634.53431	0.13921
632.60563	0.13747
630.67696	0.13576
628.74828	0.13402
626.81961	0.13225
624.89093	0.13052
622.96226	0.12891
621.03358	0.12735
619.10490	0.12573
617.17623	0.12398
615.24755	0.12212
613.31888	0.12020
611.39020	0.11829
609.46153	0.11651
607.53285	0.11491
605.60417	0.11347
603.67550	0.11206
601.74682	0.11060
599.81815	0.10907
597.88947	0.10756
595.96080	0.10620
594.03212	0.10502
592.10344	0.10391
590.17477	0.10284
588.24609	0.10178
586.31742	0.10066
584.38874	0.09946
582.46007	0.09833
580.53139	0.09729
578.60271	0.09625
576.67404	0.09519
574.74536	0.09415
572.81669	0.09317
570.88801	0.09220
568.95934	0.09122
567.03066	0.09031
565.10198	0.08951
563.17331	0.08875
561.24463	0.08807
559.31596	0.08741
557.38728	0.08669
555.45861	0.08597
553.52993	0.08527
551.60125	0.08456
549.67258	0.08396
547.74390	0.08343
545.81523	0.08286
543.88655	0.08228
541.95788	0.08181
540.02920	0.08140
538.10052	0.08095
536.17185	0.08045
534.24317	0.07990
532.31450	0.07931
530.38582	0.07878
528.45715	0.07830
526.52847	0.07770
524.59979	0.07694
522.67112	0.07608
520.74244	0.07518
518.81377	0.07432
516.88509	0.07346
514.95642	0.07265
513.02774	0.07191
511.09906	0.07112
509.17039	0.07025
507.24171	0.06939
505.31304	0.06846
503.38436	0.06741
501.45569	0.06635
499.52701	0.06537
497.59833	0.06436
495.66966	0.06314
493.74098	0.06181
491.81231	0.06056
489.88363	0.05931
487.95496	0.05809
486.02628	0.05697
484.09760	0.05580
482.16893	0.05446
480.24025	0.05309
478.31158	0.05186
476.38290	0.05078
474.45423	0.04971
472.52555	0.04867
470.59687	0.04767
468.66820	0.04672
466.73952	0.04589
464.81085	0.04524
462.88217	0.04469
460.95350	0.04427
459.02482	0.04397
457.09614	0.04380
455.16747	0.04378
453.23879	0.04386
451.31012	0.04387
449.38144	0.04370
447.45277	0.04339
445.52409	0.04301
443.59541	0.04260
441.66674	0.04213
439.73806	0.04146
437.80939	0.04055
435.88071	0.03952
433.95204	0.03847
432.02336	0.03744
430.09468	0.03642
428.16601	0.03527
426.23733	0.03385
424.30866	0.03240
422.37998	0.03111
420.45131	0.02992
418.52263	0.02876
416.59395	0.02754
414.66528	0.02630
412.73660	0.02511
410.80793	0.02386
408.87925	0.02259
406.95058	0.02139
405.02190	0.02023
403.09322	0.01913
401.16455	0.01810
399.23587	0.01704
397.30720	0.01594
395.37852	0.01498
393.44985	0.01412
391.52117	0.01315
389.59249	0.01208
387.66382	0.01115
385.73514	0.01046
383.80647	0.00984
381.87779	0.00912
379.94912	0.00834
378.02044	0.00757
376.09176	0.00691
374.16309	0.00646
372.23441	0.00605
370.30574	0.00555
368.37706	0.00496
