PE UV                   SPECTRUM    ASCII       PEDS        1.60        
  -1
S19_04.SP
12/04/05
07:25:20.00
12/04/05
07:34:20.00


190.000000
1









4444

SCAN
1
1


0.0
1920.0
2.00
MANUAL



UV/VIS




































#HDR
-1
-1
#GR
NM
%R
0.00002384185791015625
0.0
1000.000000
1.000000
811
8
138.885000
24.972000
#DATA
1000.000000	56.989999  
999.000000	 57.407000  
998.000000	 57.679000  
997.000000	 57.428999  
996.000000	 57.276000  
995.000000	 57.099000  
994.000000	 57.518000  
993.000000	 57.346000  
992.000000	 57.275000  
991.000000	 57.438999  
990.000000	 56.644000  
989.000000	 56.671000  
988.000000	 57.128000  
987.000000	 57.068000  
986.000000	 56.677000  
985.000000	 56.604000  
984.000000	 56.659000  
983.000000	 56.494000  
982.000000	 56.493000  
981.000000	 56.399000  
980.000000	 56.373000  
979.000000	 56.666000  
978.000000	 56.517000  
977.000000	 56.327000  
976.000000	 55.776000  
975.000000	 56.035000  
974.000000	 56.384000  
973.000000	 56.434000  
972.000000	 56.001000  
971.000000	 55.458000  
970.000000	 55.556000  
969.000000	 55.556000  
968.000000	 55.713000  
967.000000	 55.685000  
966.000000	 55.050000  
965.000000	 55.433000  
964.000000	 55.259000  
963.000000	 55.215000  
962.000000	 54.922000  
961.000000	 54.905000  
960.000000	 54.884000  
959.000000	 55.389999  
958.000000	 54.837000  
957.000000	 54.860000  
956.000000	 54.703000  
955.000000	 54.370000  
954.000000	 54.645000  
953.000000	 54.659000  
952.000000	 54.484999  
951.000000	 54.258000  
950.000000	 54.367000  
949.000000	 54.161000  
948.000000	 54.060000  
947.000000	 54.093999  
946.000000	 54.092000  
945.000000	 53.957000  
944.000000	 53.880000  
943.000000	 53.883000  
942.000000	 53.651000  
941.000000	 53.357000  
940.000000	 53.252000  
939.000000	 53.435000  
938.000000	 53.187000  
937.000000	 53.157000  
936.000000	 53.050000  
935.000000	 53.103000  
934.000000	 53.079000  
933.000000	 52.981000  
932.000000	 52.876000  
931.000000	 52.622000  
930.000000	 52.507000  
929.000000	 52.635000  
928.000000	 52.486999  
927.000000	 52.511000  
926.000000	 52.479000  
925.000000	 52.271000  
924.000000	 51.980000  
923.000000	 51.966000  
922.000000	 52.061000  
921.000000	 51.922000  
920.000000	 51.605999  
919.000000	 51.928000  
918.000000	 51.858000  
917.000000	 51.639000  
916.000000	 51.447000  
915.000000	 51.322000  
914.000000	 51.273000  
913.000000	 51.285000  
912.000000	 51.222000  
911.000000	 51.371000  
910.000000	 50.637000  
909.000000	 50.727999  
908.000000	 50.825000  
907.000000	 51.041000  
906.000000	 50.630000  
905.000000	 50.694000  
904.000000	 50.815000  
903.000000	 50.308000  
902.000000	 50.012000  
901.000000	 50.153000  
900.000000	 50.432000  
899.000000	 50.005000  
898.000000	 50.023000  
897.000000	 49.908000  
896.000000	 49.604000  
895.000000	 49.632000  
894.000000	 49.735000  
893.000000	 49.689000  
892.000000	 49.764000  
891.000000	 49.498000  
890.000000	 49.167000  
889.000000	 49.242000  
888.000000	 49.374000  
887.000000	 48.958000  
886.000000	 48.681000  
885.000000	 48.445000  
884.000000	 48.428000  
883.000000	 48.896000  
882.000000	 48.446000  
881.000000	 48.656000  
880.000000	 48.890000  
879.000000	 48.375000  
878.000000	 47.665000  
877.000000	 47.934000  
876.000000	 48.979000  
875.000000	 47.917000  
874.000000	 48.106000  
873.000000	 48.182000  
872.000000	 48.324000  
871.000000	 47.721999  
870.000000	 47.758000  
869.000000	 47.334000  
868.000000	 47.206000  
867.000000	 47.542000  
866.000000	 47.407000  
865.000000	 47.194000  
864.000000	 47.093000  
863.000000	 47.021000  
862.000000	 46.875000  
861.000000	 46.761000  
860.000000	 46.496000  
859.000000	 46.524000  
858.000000	 46.119000  
857.000000	 46.361999  
856.000000	 46.751000  
855.000000	 46.063000  
854.000000	 45.946000  
853.000000	 45.904000  
852.000000	 45.903000  
851.000000	 45.317000  
850.000000	 45.490000  
849.000000	 45.743000  
848.000000	 45.866000  
847.000000	 45.341000  
846.000000	 45.478000  
845.000000	 45.742000  
844.000000	 45.294000  
843.000000	 45.123000  
842.000000	 44.990000  
841.000000	 44.698000  
840.000000	 44.643000  
839.000000	 44.623000  
838.000000	 44.629000  
837.000000	 44.604000  
836.000000	 44.189000  
835.000000	 44.247000  
834.000000	 44.144000  
833.000000	 43.549000  
832.000000	 43.544000  
831.000000	 44.020000  
830.000000	 43.761000  
829.000000	 43.571000  
828.000000	 43.462000  
827.000000	 43.310000  
826.000000	 43.297999  
825.000000	 43.573000  
824.000000	 43.349000  
823.000000	 43.198000  
822.000000	 42.940000  
821.000000	 43.129000  
820.000000	 42.935000  
819.000000	 42.923000  
818.000000	 42.799000  
817.000000	 42.487000  
816.000000	 41.946000  
815.000000	 42.467000  
814.000000	 42.639000  
813.000000	 42.256000  
812.000000	 41.958000  
811.000000	 42.164000  
810.000000	 42.103000  
809.000000	 41.974000  
808.000000	 41.638000  
807.000000	 41.341000  
806.000000	 41.658000  
805.000000	 41.586000  
804.000000	 41.190000  
803.000000	 41.396000  
802.000000	 41.351000  
801.000000	 40.963000  
800.000000	 40.743000  
799.000000	 40.828000  
798.000000	 40.579000  
797.000000	 40.807000  
796.000000	 40.889000  
795.000000	 40.499000  
794.000000	 40.331000  
793.000000	 40.288000  
792.000000	 40.025000  
791.000000	 39.756000  
790.000000	 39.789000  
789.000000	 39.792000  
788.000000	 39.988000  
787.000000	 39.539000  
786.000000	 39.632000  
785.000000	 39.632000  
784.000000	 39.375000  
783.000000	 39.013000  
782.000000	 39.179000  
781.000000	 39.010000  
780.000000	 38.706000  
779.000000	 38.528000  
778.000000	 38.644000  
777.000000	 38.686000  
776.000000	 38.632000  
775.000000	 38.650000  
774.000000	 38.433000  
773.000000	 38.320000  
772.000000	 38.122000  
771.000000	 37.950000  
770.000000	 37.868000  
769.000000	 37.773000  
768.000000	 38.055000  
767.000000	 38.025000  
766.000000	 37.619000  
765.000000	 37.408000  
764.000000	 37.391000  
763.000000	 37.177000  
762.000000	 37.241000  
761.000000	 37.117000  
760.000000	 37.069000  
759.000000	 36.944000  
758.000000	 36.863000  
757.000000	 36.858000  
756.000000	 36.667000  
755.000000	 36.564000  
754.000000	 36.358000  
753.000000	 36.224000  
752.000000	 36.092000  
751.000000	 36.239000  
750.000000	 36.094000  
749.000000	 35.912000  
748.000000	 35.724000  
747.000000	 35.498000  
746.000000	 35.404000  
745.000000	 35.408000  
744.000000	 35.410000  
743.000000	 35.197000  
742.000000	 34.998000  
741.000000	 35.175000  
740.000000	 34.951000  
739.000000	 34.681000  
738.000000	 34.733999  
737.000000	 34.772000  
736.000000	 34.639000  
735.000000	 34.516000  
734.000000	 34.427000  
733.000000	 34.336000  
732.000000	 34.135000  
731.000000	 34.105000  
730.000000	 33.959000  
729.000000	 33.726000  
728.000000	 33.709000  
727.000000	 33.824000  
726.000000	 33.678000  
725.000000	 33.525000  
724.000000	 33.439000  
723.000000	 33.374000  
722.000000	 33.176000  
721.000000	 33.111000  
720.000000	 33.063000  
719.000000	 32.962000  
718.000000	 32.830000  
717.000000	 32.774000  
716.000000	 32.696000  
715.000000	 32.808000  
714.000000	 32.686000  
713.000000	 32.504000  
712.000000	 32.379000  
711.000000	 32.125000  
710.000000	 32.190000  
709.000000	 32.218000  
708.000000	 32.164000  
707.000000	 31.996000  
706.000000	 31.849000  
705.000000	 31.667000  
704.000000	 31.726000  
703.000000	 31.483000  
702.000000	 31.317000  
701.000000	 31.388000  
700.000000	 31.253000  
699.000000	 31.232000  
698.000000	 31.172000  
697.000000	 30.861000  
696.000000	 31.003000  
695.000000	 30.781000  
694.000000	 30.714000  
693.000000	 30.642000  
692.000000	 30.651000  
691.000000	 30.501000  
690.000000	 30.475000  
689.000000	 30.482000  
688.000000	 30.276000  
687.000000	 29.951000  
686.000000	 29.974000  
685.000000	 29.973000  
684.000000	 29.816000  
683.000000	 29.774000  
682.000000	 29.774000  
681.000000	 29.670000  
680.000000	 29.593000  
679.000000	 29.540000  
678.000000	 29.451000  
677.000000	 29.250000  
676.000000	 29.047000  
675.000000	 29.027000  
674.000000	 28.980000  
673.000000	 28.960000  
672.000000	 28.955000  
671.000000	 28.849000  
670.000000	 28.722000  
669.000000	 28.584000  
668.000000	 28.490000  
667.000000	 28.654000  
666.000000	 28.573000  
665.000000	 28.396000  
664.000000	 28.242000  
663.000000	 28.266000  
662.000000	 28.117000  
661.000000	 28.016000  
660.000000	 27.984000  
659.000000	 28.186000  
658.000000	 28.006000  
657.000000	 27.853000  
656.000000	 27.828000  
655.000000	 27.552000  
654.000000	 27.412000  
653.000000	 27.507000  
652.000000	 27.440000  
651.000000	 27.283000  
650.000000	 27.270000  
649.000000	 27.183000  
648.000000	 26.977000  
647.000000	 26.951000  
646.000000	 26.909000  
645.000000	 26.870000  
644.000000	 26.797000  
643.000000	 26.829000  
642.000000	 26.800000  
641.000000	 26.732000  
640.000000	 26.756000  
639.000000	 26.556000  
638.000000	 26.409000  
637.000000	 26.509000  
636.000000	 26.469000  
635.000000	 26.381000  
634.000000	 26.311000  
633.000000	 26.289000  
632.000000	 26.229000  
631.000000	 26.218000  
630.000000	 26.094000  
629.000000	 25.955000  
628.000000	 25.886000  
627.000000	 25.976000  
626.000000	 25.884000  
625.000000	 25.829000  
624.000000	 25.790000  
623.000000	 25.793000  
622.000000	 25.750000  
621.000000	 25.613000  
620.000000	 25.606000  
619.000000	 25.535000  
618.000000	 25.540000  
617.000000	 25.386000  
616.000000	 25.464000  
615.000000	 25.486000  
614.000000	 25.494000  
613.000000	 25.436000  
612.000000	 25.353000  
611.000000	 25.281000  
610.000000	 25.340000  
609.000000	 25.207000  
608.000000	 25.262000  
607.000000	 25.217000  
606.000000	 25.235000  
605.000000	 25.256000  
604.000000	 25.111000  
603.000000	 25.055000  
602.000000	 25.124000  
601.000000	 25.211000  
600.000000	 25.019000  
599.000000	 25.083000  
598.000000	 25.084000  
597.000000	 25.083000  
596.000000	 25.068000  
595.000000	 24.976000  
594.000000	 24.972000  
593.000000	 25.027000  
592.000000	 25.096000  
591.000000	 25.062000  
590.000000	 25.060000  
589.000000	 25.075000  
588.000000	 25.110000  
587.000000	 25.025000  
586.000000	 24.974000  
585.000000	 25.016000  
584.000000	 25.028000  
583.000000	 25.009000  
582.000000	 25.103000  
581.000000	 25.095000  
580.000000	 25.065000  
579.000000	 25.142000  
578.000000	 25.195000  
577.000000	 25.103000  
576.000000	 25.078000  
575.000000	 25.244000  
574.000000	 25.343000  
573.000000	 25.399000  
572.000000	 25.292000  
571.000000	 25.307000  
570.000000	 25.375000  
569.000000	 25.365000  
568.000000	 25.482000  
567.000000	 25.528000  
566.000000	 25.529000  
565.000000	 25.614000  
564.000000	 25.638000  
563.000000	 25.747000  
562.000000	 25.703000  
561.000000	 25.723000  
560.000000	 25.721000  
559.000000	 25.824000  
558.000000	 25.933000  
557.000000	 26.006000  
556.000000	 26.112000  
555.000000	 26.185000  
554.000000	 26.239000  
553.000000	 26.229000  
552.000000	 26.290000  
551.000000	 26.416000  
550.000000	 26.484000  
549.000000	 26.582000  
548.000000	 26.672000  
547.000000	 26.705000  
546.000000	 26.836000  
545.000000	 26.950000  
544.000000	 26.883000  
543.000000	 27.004000  
542.000000	 27.183000  
541.000000	 27.214000  
540.000000	 27.277000  
539.000000	 27.517000  
538.000000	 27.635000  
537.000000	 27.712000  
536.000000	 27.863000  
535.000000	 27.986000  
534.000000	 28.049000  
533.000000	 28.107000  
532.000000	 28.207000  
531.000000	 28.313000  
530.000000	 28.529000  
529.000000	 28.598000  
528.000000	 28.906000  
527.000000	 28.990000  
526.000000	 29.038000  
525.000000	 29.185000  
524.000000	 29.333000  
523.000000	 29.557000  
522.000000	 29.661000  
521.000000	 29.885000  
520.000000	 30.117000  
519.000000	 30.113000  
518.000000	 30.296000  
517.000000	 30.492000  
516.000000	 30.691000  
515.000000	 30.768000  
514.000000	 30.911000  
513.000000	 31.144000  
512.000000	 31.288000  
511.000000	 31.594000  
510.000000	 31.778000  
509.000000	 31.850000  
508.000000	 32.060000  
507.000000	 32.244000  
506.000000	 32.381000  
505.000000	 32.624000  
504.000000	 32.911000  
503.000000	 33.161000  
502.000000	 33.362000  
501.000000	 33.548000  
500.000000	 33.765000  
499.000000	 33.989999  
498.000000	 34.235000  
497.000000	 34.466000  
496.000000	 34.768000  
495.000000	 34.953000  
494.000000	 35.179000  
493.000000	 35.493000  
492.000000	 35.794000  
491.000000	 35.952000  
490.000000	 36.184000  
489.000000	 36.408000  
488.000000	 36.417000  
487.000000	 36.856000  
486.000000	 37.019000  
485.000000	 37.408000  
484.000000	 37.708000  
483.000000	 37.961000  
482.000000	 38.171000  
481.000000	 38.364000  
480.000000	 38.647000  
479.000000	 39.038000  
478.000000	 39.474000  
477.000000	 39.616000  
476.000000	 39.812000  
475.000000	 40.271000  
474.000000	 40.580000  
473.000000	 40.933000  
472.000000	 41.244000  
471.000000	 41.498000  
470.000000	 41.815000  
469.000000	 42.264000  
468.000000	 42.711000  
467.000000	 42.900000  
466.000000	 43.141000  
465.000000	 43.534000  
464.000000	 43.818000  
463.000000	 44.195000  
462.000000	 44.489000  
461.000000	 44.813000  
460.000000	 45.280000  
459.000000	 45.692000  
458.000000	 45.925000  
457.000000	 46.377000  
456.000000	 46.799000  
455.000000	 47.136000  
454.000000	 47.323000  
453.000000	 47.728000  
452.000000	 48.134000  
451.000000	 48.572000  
450.000000	 48.881000  
449.000000	 49.272000  
448.000000	 49.706000  
447.000000	 50.097000  
446.000000	 50.401000  
445.000000	 50.770000  
444.000000	 51.542000  
443.000000	 52.022000  
442.000000	 52.230000  
441.000000	 52.564000  
440.000000	 52.915000  
439.000000	 53.378000  
438.000000	 53.762000  
437.000000	 54.300000  
436.000000	 54.966000  
435.000000	 55.253000  
434.000000	 55.789999  
433.000000	 56.023999  
432.000000	 56.699000  
431.000000	 56.962000  
430.000000	 57.484000  
429.000000	 57.815000  
428.000000	 58.079000  
427.000000	 58.512000  
426.000000	 58.991000  
425.000000	 59.666000  
424.000000	 60.281000  
423.000000	 60.831000  
422.000000	 61.037000  
421.000000	 61.494000  
420.000000	 62.043000  
419.000000	 62.463000  
418.000000	 62.858000  
417.000000	 63.643000  
416.000000	 64.305000  
415.000000	 64.509000  
414.000000	 65.200000  
413.000000	 65.904000  
412.000000	 65.982000  
411.000000	 66.188000  
410.000000	 66.888000  
409.000000	 67.679999  
408.000000	 68.093999  
407.000000	 68.648000  
406.000000	 69.277999  
405.000000	 69.813999  
404.000000	 70.111999  
403.000000	 70.676000  
402.000000	 71.069999  
401.000000	 71.432000  
400.000000	 72.202000  
399.000000	 72.877000  
398.000000	 73.143000  
397.000000	 73.497000  
396.000000	 74.262000  
395.000000	 74.272000  
394.000000	 75.428000  
393.000000	 75.853000  
392.000000	 76.411000  
391.000000	 76.663000  
390.000000	 77.983999  
389.000000	 78.395000  
388.000000	 78.431000  
387.000000	 78.999000  
386.000000	 79.435999  
385.000000	 80.036000  
384.000000	 80.730000  
383.000000	 81.386000  
382.000000	 81.777000  
381.000000	 81.744000  
380.000000	 81.206000  
379.000000	 83.746000  
378.000000	 83.783000  
377.000000	 84.530000  
376.000000	 85.373000  
375.000000	 86.181000  
374.000000	 86.923000  
373.000000	 87.054000  
372.000000	 87.468999  
371.000000	 88.461000  
370.000000	 88.719000  
369.000000	 88.873000  
368.000000	 89.383000  
367.000000	 89.596000  
366.000000	 89.804000  
365.000000	 90.301000  
364.000000	 90.844000  
363.000000	 91.795000  
362.000000	 92.152000  
361.000000	 92.054999  
360.000000	 91.586999  
359.000000	 92.678000  
358.000000	 92.622000  
357.000000	 92.262999  
356.000000	 93.050999  
355.000000	 93.893000  
354.000000	 94.426000  
353.000000	 95.291000  
352.000000	 95.831000  
351.000000	 95.240000  
350.000000	 94.777999  
349.000000	 94.882000  
348.000000	 96.289000  
347.000000	 95.887000  
346.000000	 96.174000  
345.000000	 97.011000  
344.000000	 96.552000  
343.000000	 97.084999  
342.000000	 96.914999  
341.000000	 97.113000  
340.000000	 98.212000  
339.000000	 97.988000  
338.000000	 98.063999  
337.000000	 98.039000  
336.000000	 98.178000  
335.000000	 98.899000  
334.000000	 98.765000  
333.000000	 98.949000  
332.000000	 99.216000  
331.000000	 98.982000  
330.000000	 98.504000  
329.000000	 99.315000  
328.000000	 99.752000  
327.000000	 100.325000 
326.000000	 100.837000 
325.000000	 101.041000 
324.000000	 101.109000 
323.000000	 100.856000 
322.000000	 101.089000 
321.000000	 100.725000 
320.000000	 100.037000 
319.000000	 100.679000 
318.000000	 100.854000 
317.000000	 100.781000 
316.000000	 100.705000 
315.000000	 101.926000 
314.000000	 101.894000 
313.000000	 101.503000 
312.000000	 100.726000 
311.000000	 100.842000 
310.000000	 101.185000 
309.000000	 101.359000 
308.000000	 102.216000 
307.000000	 101.693000 
306.000000	 101.429000 
305.000000	 101.153000 
304.000000	 101.248000 
303.000000	 100.843000 
302.000000	 101.012000 
301.000000	 101.405000 
300.000000	 101.971000 
299.000000	 101.198000 
298.000000	 101.201000 
297.000000	 101.157000 
296.000000	 100.905000 
295.000000	 100.777000 
294.000000	 100.623000 
293.000000	 100.180000 
292.000000	 99.816000  
291.000000	 99.886000  
290.000000	 99.708000  
289.000000	 99.778000  
288.000000	 99.727000  
287.000000	 100.012000 
286.000000	 99.605000  
285.000000	 99.685999  
284.000000	 100.173000 
283.000000	 100.273000 
282.000000	 99.845000  
281.000000	 99.408000  
280.000000	 99.330000  
279.000000	 98.745000  
278.000000	 98.841000  
277.000000	 99.144000  
276.000000	 98.815000  
275.000000	 98.151000  
274.000000	 98.173999  
273.000000	 98.535000  
272.000000	 98.042000  
271.000000	 97.499000  
270.000000	 97.201000  
269.000000	 97.111000  
268.000000	 96.525000  
267.000000	 95.982000  
266.000000	 95.760000  
265.000000	 95.528000  
264.000000	 94.596000  
263.000000	 94.388000  
262.000000	 94.146000  
261.000000	 93.020000  
260.000000	 92.791000  
259.000000	 92.315000  
258.000000	 91.522000  
257.000000	 90.898000  
256.000000	 89.786000  
255.000000	 89.427000  
254.000000	 88.414000  
253.000000	 88.168000  
252.000000	 87.526000  
251.000000	 85.961000  
250.000000	 85.199000  
249.000000	 84.628000  
248.000000	 83.587999  
247.000000	 82.563000  
246.000000	 81.866000  
245.000000	 80.574000  
244.000000	 79.291000  
243.000000	 78.215999  
242.000000	 77.450000  
241.000000	 76.271000  
240.000000	 74.786000  
239.000000	 73.977999  
238.000000	 73.241999  
237.000000	 72.062000  
236.000000	 71.358999  
235.000000	 70.667999  
234.000000	 69.896999  
233.000000	 69.166000  
232.000000	 68.745000  
231.000000	 67.927000  
230.000000	 67.120000  
229.000000	 67.496000  
228.000000	 67.785000  
227.000000	 66.902000  
226.000000	 65.475000  
225.000000	 64.887000  
224.000000	 64.546000  
223.000000	 64.188000  
222.000000	 65.116000  
221.000000	 65.310000  
220.000000	 64.694000  
219.000000	 63.660000  
218.000000	 63.671000  
217.000000	 64.950000  
216.000000	 65.389000  
215.000000	 63.548000  
214.000000	 65.247999  
213.000000	 65.687000  
212.000000	 65.354999  
211.000000	 68.617999  
210.000000	 67.795000  
209.000000	 68.569999  
208.000000	 71.213000  
207.000000	 73.177000  
206.000000	 76.581999  
205.000000	 79.624000  
204.000000	 81.258000  
203.000000	 76.551000  
202.000000	 77.495000  
201.000000	 83.430000  
200.000000	 87.921000  
199.000000	 90.422000  
198.000000	 85.515000  
197.000000	 76.941999  
196.000000	 70.559000  
195.000000	 70.250999  
194.000000	 76.732999  
193.000000	 82.113000  
192.000000	 132.040000 
191.000000	 138.885000 
190.000000	 109.027000 

