PE UV                   SPECTRUM    ASCII       PEDS        1.60        
  -1
S19_07.SP
12/04/05
07:31:17.00
12/04/05
07:34:20.00


190.000000
1









4444

SCAN
1
1


0.0
1920.0
2.00
MANUAL



UV/VIS




































#HDR
-1
-1
#GR
NM
%R
0.00002384185791015625
0.0
1000.000000
1.000000
811
8
138.673000
24.897000
#DATA
1000.000000	57.003000  
999.000000	 57.562000  
998.000000	 57.743999  
997.000000	 57.746000  
996.000000	 56.950999  
995.000000	 57.627000  
994.000000	 57.455000  
993.000000	 57.346000  
992.000000	 57.586000  
991.000000	 57.274000  
990.000000	 56.717000  
989.000000	 56.584000  
988.000000	 56.840999  
987.000000	 56.855000  
986.000000	 57.010000  
985.000000	 57.040000  
984.000000	 56.857000  
983.000000	 56.521999  
982.000000	 56.434000  
981.000000	 56.543000  
980.000000	 56.401000  
979.000000	 55.971000  
978.000000	 56.002000  
977.000000	 56.432000  
976.000000	 56.033000  
975.000000	 56.017000  
974.000000	 55.927000  
973.000000	 55.614000  
972.000000	 55.639000  
971.000000	 55.815000  
970.000000	 55.717000  
969.000000	 55.360000  
968.000000	 55.154000  
967.000000	 55.184000  
966.000000	 55.330000  
965.000000	 55.283000  
964.000000	 55.685000  
963.000000	 55.383000  
962.000000	 55.005000  
961.000000	 54.791000  
960.000000	 54.805000  
959.000000	 55.016000  
958.000000	 54.747000  
957.000000	 54.235000  
956.000000	 54.871000  
955.000000	 54.479000  
954.000000	 54.492000  
953.000000	 54.656000  
952.000000	 54.343000  
951.000000	 54.554000  
950.000000	 54.289000  
949.000000	 53.996000  
948.000000	 53.824000  
947.000000	 54.004000  
946.000000	 53.842000  
945.000000	 53.828000  
944.000000	 53.906000  
943.000000	 53.915000  
942.000000	 53.747000  
941.000000	 53.623000  
940.000000	 53.564000  
939.000000	 53.386999  
938.000000	 53.301000  
937.000000	 53.081000  
936.000000	 53.284000  
935.000000	 52.879000  
934.000000	 52.779000  
933.000000	 52.841000  
932.000000	 52.642999  
931.000000	 52.634000  
930.000000	 52.438000  
929.000000	 52.447999  
928.000000	 52.358000  
927.000000	 52.181000  
926.000000	 52.188999  
925.000000	 52.161000  
924.000000	 52.227999  
923.000000	 52.083000  
922.000000	 51.957000  
921.000000	 51.878000  
920.000000	 51.916000  
919.000000	 51.802000  
918.000000	 51.694000  
917.000000	 51.776999  
916.000000	 51.442000  
915.000000	 51.467000  
914.000000	 51.265000  
913.000000	 51.340000  
912.000000	 51.090999  
911.000000	 50.934000  
910.000000	 51.047000  
909.000000	 50.796000  
908.000000	 50.870000  
907.000000	 50.803000  
906.000000	 50.238000  
905.000000	 50.168000  
904.000000	 50.463000  
903.000000	 50.391000  
902.000000	 50.494000  
901.000000	 50.285999  
900.000000	 50.139000  
899.000000	 50.392000  
898.000000	 50.246000  
897.000000	 49.938000  
896.000000	 49.655000  
895.000000	 49.577000  
894.000000	 49.437000  
893.000000	 49.236000  
892.000000	 49.235000  
891.000000	 49.235000  
890.000000	 48.999000  
889.000000	 49.143000  
888.000000	 48.783000  
887.000000	 48.731000  
886.000000	 48.716000  
885.000000	 48.768000  
884.000000	 48.624000  
883.000000	 48.816000  
882.000000	 48.599000  
881.000000	 48.749000  
880.000000	 48.346000  
879.000000	 48.011000  
878.000000	 48.372000  
877.000000	 48.004000  
876.000000	 48.029000  
875.000000	 47.945000  
874.000000	 48.018000  
873.000000	 47.801000  
872.000000	 47.846000  
871.000000	 47.474000  
870.000000	 47.429000  
869.000000	 47.428000  
868.000000	 47.160000  
867.000000	 46.893000  
866.000000	 47.186000  
865.000000	 47.236000  
864.000000	 47.249000  
863.000000	 46.864000  
862.000000	 46.643000  
861.000000	 46.419000  
860.000000	 46.976000  
859.000000	 46.607000  
858.000000	 46.678000  
857.000000	 46.455000  
856.000000	 46.303000  
855.000000	 46.127000  
854.000000	 45.816000  
853.000000	 45.730000  
852.000000	 45.706000  
851.000000	 45.867000  
850.000000	 45.807000  
849.000000	 45.803000  
848.000000	 46.018000  
847.000000	 45.749000  
846.000000	 45.497000  
845.000000	 45.427000  
844.000000	 45.280000  
843.000000	 45.112000  
842.000000	 44.972000  
841.000000	 44.612000  
840.000000	 45.029000  
839.000000	 44.843000  
838.000000	 44.493000  
837.000000	 44.098000  
836.000000	 44.016000  
835.000000	 44.331000  
834.000000	 44.170000  
833.000000	 43.854000  
832.000000	 43.403000  
831.000000	 43.599000  
830.000000	 43.821000  
829.000000	 43.813000  
828.000000	 43.628000  
827.000000	 43.708000  
826.000000	 43.258000  
825.000000	 43.104000  
824.000000	 43.136000  
823.000000	 43.012000  
822.000000	 43.090000  
821.000000	 43.044000  
820.000000	 43.025000  
819.000000	 42.986999  
818.000000	 42.668000  
817.000000	 42.334000  
816.000000	 42.134000  
815.000000	 42.170000  
814.000000	 42.114000  
813.000000	 42.152000  
812.000000	 42.202000  
811.000000	 41.989000  
810.000000	 41.899000  
809.000000	 41.720000  
808.000000	 41.525000  
807.000000	 41.492000  
806.000000	 41.357000  
805.000000	 41.317000  
804.000000	 40.951000  
803.000000	 40.996000  
802.000000	 41.331000  
801.000000	 40.990000  
800.000000	 40.918000  
799.000000	 40.776000  
798.000000	 40.585000  
797.000000	 40.294000  
796.000000	 40.463000  
795.000000	 40.648000  
794.000000	 40.303000  
793.000000	 40.199000  
792.000000	 40.246000  
791.000000	 39.902000  
790.000000	 39.828000  
789.000000	 39.750000  
788.000000	 39.650000  
787.000000	 39.337000  
786.000000	 39.461000  
785.000000	 39.444000  
784.000000	 39.556000  
783.000000	 39.105000  
782.000000	 39.022000  
781.000000	 39.067000  
780.000000	 38.714000  
779.000000	 39.020000  
778.000000	 38.805000  
777.000000	 38.542000  
776.000000	 38.448000  
775.000000	 38.310000  
774.000000	 38.385000  
773.000000	 38.241000  
772.000000	 38.126000  
771.000000	 38.046000  
770.000000	 37.968000  
769.000000	 37.905000  
768.000000	 37.741000  
767.000000	 37.801000  
766.000000	 37.605000  
765.000000	 37.280000  
764.000000	 37.258000  
763.000000	 37.166000  
762.000000	 37.039000  
761.000000	 37.099000  
760.000000	 37.103000  
759.000000	 36.828000  
758.000000	 36.614999  
757.000000	 36.514000  
756.000000	 36.366000  
755.000000	 36.364000  
754.000000	 36.330000  
753.000000	 36.392000  
752.000000	 36.250000  
751.000000	 35.926000  
750.000000	 36.006000  
749.000000	 35.854000  
748.000000	 35.842000  
747.000000	 35.475000  
746.000000	 35.436000  
745.000000	 35.408000  
744.000000	 35.169000  
743.000000	 35.437000  
742.000000	 35.199000  
741.000000	 35.095000  
740.000000	 35.023000  
739.000000	 34.878000  
738.000000	 34.931000  
737.000000	 34.825000  
736.000000	 34.605999  
735.000000	 34.497000  
734.000000	 34.429000  
733.000000	 34.333000  
732.000000	 34.222000  
731.000000	 34.105000  
730.000000	 33.964000  
729.000000	 33.835000  
728.000000	 33.608000  
727.000000	 33.603000  
726.000000	 33.671000  
725.000000	 33.530000  
724.000000	 33.387000  
723.000000	 33.370000  
722.000000	 33.234000  
721.000000	 33.104000  
720.000000	 32.961000  
719.000000	 32.882000  
718.000000	 32.813000  
717.000000	 32.824000  
716.000000	 32.736000  
715.000000	 32.687000  
714.000000	 32.543000  
713.000000	 32.460000  
712.000000	 32.270000  
711.000000	 32.179000  
710.000000	 32.042000  
709.000000	 32.096999  
708.000000	 31.900000  
707.000000	 31.786000  
706.000000	 31.847000  
705.000000	 31.765000  
704.000000	 31.464000  
703.000000	 31.563000  
702.000000	 31.492000  
701.000000	 31.386000  
700.000000	 31.232000  
699.000000	 31.156000  
698.000000	 31.086000  
697.000000	 31.024000  
696.000000	 30.880000  
695.000000	 30.755000  
694.000000	 30.631000  
693.000000	 30.552000  
692.000000	 30.621000  
691.000000	 30.510000  
690.000000	 30.335000  
689.000000	 30.354000  
688.000000	 30.344000  
687.000000	 30.111000  
686.000000	 29.927000  
685.000000	 29.837000  
684.000000	 29.745000  
683.000000	 29.725000  
682.000000	 29.745000  
681.000000	 29.690000  
680.000000	 29.572000  
679.000000	 29.434000  
678.000000	 29.326000  
677.000000	 29.184000  
676.000000	 29.169000  
675.000000	 29.043000  
674.000000	 28.917000  
673.000000	 28.903000  
672.000000	 28.929000  
671.000000	 28.837000  
670.000000	 28.763000  
669.000000	 28.613000  
668.000000	 28.632000  
667.000000	 28.652000  
666.000000	 28.372000  
665.000000	 28.213000  
664.000000	 28.190000  
663.000000	 28.066000  
662.000000	 28.000000  
661.000000	 27.808000  
660.000000	 28.021000  
659.000000	 27.860000  
658.000000	 27.798000  
657.000000	 27.539000  
656.000000	 27.616000  
655.000000	 27.498000  
654.000000	 27.562000  
653.000000	 27.514000  
652.000000	 27.603000  
651.000000	 27.425000  
650.000000	 27.241000  
649.000000	 27.141000  
648.000000	 27.024000  
647.000000	 26.857000  
646.000000	 26.964000  
645.000000	 26.839000  
644.000000	 26.812000  
643.000000	 26.853000  
642.000000	 26.766000  
641.000000	 26.681000  
640.000000	 26.659000  
639.000000	 26.533000  
638.000000	 26.353000  
637.000000	 26.351000  
636.000000	 26.474000  
635.000000	 26.464000  
634.000000	 26.334000  
633.000000	 26.174000  
632.000000	 26.151000  
631.000000	 26.046000  
630.000000	 26.017000  
629.000000	 25.940000  
628.000000	 25.933000  
627.000000	 25.925000  
626.000000	 25.904000  
625.000000	 25.844000  
624.000000	 25.658000  
623.000000	 25.691000  
622.000000	 25.682000  
621.000000	 25.574000  
620.000000	 25.456000  
619.000000	 25.422000  
618.000000	 25.494000  
617.000000	 25.471000  
616.000000	 25.450000  
615.000000	 25.438000  
614.000000	 25.475000  
613.000000	 25.345000  
612.000000	 25.328000  
611.000000	 25.313000  
610.000000	 25.314000  
609.000000	 25.209000  
608.000000	 25.189000  
607.000000	 25.195000  
606.000000	 25.230000  
605.000000	 25.147000  
604.000000	 25.092000  
603.000000	 25.035000  
602.000000	 25.051000  
601.000000	 25.053000  
600.000000	 25.089000  
599.000000	 25.097000  
598.000000	 25.153000  
597.000000	 25.117000  
596.000000	 24.970000  
595.000000	 24.970000  
594.000000	 24.975000  
593.000000	 24.897000  
592.000000	 24.913000  
591.000000	 24.936000  
590.000000	 25.001000  
589.000000	 25.065000  
588.000000	 25.048000  
587.000000	 24.959000  
586.000000	 24.913000  
585.000000	 24.935000  
584.000000	 24.981000  
583.000000	 24.958000  
582.000000	 25.000000  
581.000000	 25.061000  
580.000000	 25.079000  
579.000000	 25.089000  
578.000000	 25.024000  
577.000000	 25.161000  
576.000000	 25.092000  
575.000000	 25.068000  
574.000000	 25.255000  
573.000000	 25.344000  
572.000000	 25.384000  
571.000000	 25.274000  
570.000000	 25.353000  
569.000000	 25.310000  
568.000000	 25.365000  
567.000000	 25.450000  
566.000000	 25.512000  
565.000000	 25.551000  
564.000000	 25.650000  
563.000000	 25.607000  
562.000000	 25.635000  
561.000000	 25.735000  
560.000000	 25.795000  
559.000000	 25.842000  
558.000000	 25.889000  
557.000000	 25.931000  
556.000000	 26.000000  
555.000000	 26.057000  
554.000000	 26.126000  
553.000000	 26.189000  
552.000000	 26.261000  
551.000000	 26.346000  
550.000000	 26.420000  
549.000000	 26.462000  
548.000000	 26.621000  
547.000000	 26.740000  
546.000000	 26.779000  
545.000000	 26.912000  
544.000000	 26.947000  
543.000000	 26.982000  
542.000000	 27.117000  
541.000000	 27.172000  
540.000000	 27.269000  
539.000000	 27.425000  
538.000000	 27.495000  
537.000000	 27.636000  
536.000000	 27.791000  
535.000000	 27.861000  
534.000000	 27.928000  
533.000000	 27.995000  
532.000000	 28.109000  
531.000000	 28.291000  
530.000000	 28.525000  
529.000000	 28.607000  
528.000000	 28.732000  
527.000000	 28.794000  
526.000000	 28.913000  
525.000000	 29.081000  
524.000000	 29.149000  
523.000000	 29.380000  
522.000000	 29.610000  
521.000000	 29.721000  
520.000000	 29.906000  
519.000000	 30.035000  
518.000000	 30.262000  
517.000000	 30.336000  
516.000000	 30.420000  
515.000000	 30.582000  
514.000000	 30.782000  
513.000000	 30.959000  
512.000000	 31.252000  
511.000000	 31.397000  
510.000000	 31.677000  
509.000000	 31.836000  
508.000000	 31.950000  
507.000000	 32.140000  
506.000000	 32.361000  
505.000000	 32.576000  
504.000000	 32.810000  
503.000000	 33.064000  
502.000000	 33.267000  
501.000000	 33.443000  
500.000000	 33.678999  
499.000000	 33.869000  
498.000000	 34.100000  
497.000000	 34.324000  
496.000000	 34.582000  
495.000000	 34.792000  
494.000000	 35.054000  
493.000000	 35.313000  
492.000000	 35.608000  
491.000000	 35.751000  
490.000000	 35.980000  
489.000000	 36.295000  
488.000000	 36.492000  
487.000000	 36.805000  
486.000000	 37.174000  
485.000000	 37.388000  
484.000000	 37.640000  
483.000000	 37.870000  
482.000000	 38.172000  
481.000000	 38.331000  
480.000000	 38.683000  
479.000000	 38.994000  
478.000000	 39.303000  
477.000000	 39.495000  
476.000000	 39.924000  
475.000000	 40.292000  
474.000000	 40.534000  
473.000000	 40.668000  
472.000000	 41.097000  
471.000000	 41.313000  
470.000000	 41.691000  
469.000000	 41.954000  
468.000000	 42.323000  
467.000000	 42.711000  
466.000000	 43.076000  
465.000000	 43.419999  
464.000000	 43.777000  
463.000000	 44.110000  
462.000000	 44.596999  
461.000000	 44.973000  
460.000000	 45.229000  
459.000000	 45.555000  
458.000000	 45.926000  
457.000000	 46.184000  
456.000000	 46.528000  
455.000000	 46.950000  
454.000000	 47.444000  
453.000000	 47.634000  
452.000000	 48.196000  
451.000000	 48.714000  
450.000000	 48.946000  
449.000000	 49.459000  
448.000000	 49.825000  
447.000000	 50.126000  
446.000000	 50.367000  
445.000000	 50.688000  
444.000000	 50.918000  
443.000000	 51.863000  
442.000000	 52.066000  
441.000000	 52.583000  
440.000000	 52.951000  
439.000000	 53.322000  
438.000000	 53.782000  
437.000000	 54.212000  
436.000000	 54.515000  
435.000000	 54.911000  
434.000000	 55.698000  
433.000000	 56.377000  
432.000000	 56.799000  
431.000000	 56.789000  
430.000000	 57.306000  
429.000000	 57.779000  
428.000000	 58.159000  
427.000000	 59.032000  
426.000000	 59.361000  
425.000000	 59.645000  
424.000000	 60.182000  
423.000000	 60.744000  
422.000000	 61.024000  
421.000000	 61.441999  
420.000000	 62.082000  
419.000000	 62.511000  
418.000000	 63.015000  
417.000000	 63.459000  
416.000000	 64.026000  
415.000000	 64.290000  
414.000000	 64.873000  
413.000000	 65.563999  
412.000000	 65.810000  
411.000000	 66.327000  
410.000000	 66.714000  
409.000000	 67.511000  
408.000000	 68.105000  
407.000000	 68.521000  
406.000000	 68.957000  
405.000000	 69.420999  
404.000000	 69.647000  
403.000000	 70.340000  
402.000000	 70.812000  
401.000000	 71.206000  
400.000000	 72.194000  
399.000000	 72.952000  
398.000000	 73.202000  
397.000000	 74.012000  
396.000000	 74.341000  
395.000000	 75.137000  
394.000000	 75.366999  
393.000000	 75.904000  
392.000000	 76.652000  
391.000000	 76.858999  
390.000000	 77.302000  
389.000000	 78.774999  
388.000000	 78.834000  
387.000000	 79.166000  
386.000000	 79.951000  
385.000000	 80.651000  
384.000000	 81.000000  
383.000000	 81.486000  
382.000000	 82.851000  
381.000000	 82.030000  
380.000000	 81.777000  
379.000000	 84.708000  
378.000000	 84.699000  
377.000000	 84.627000  
376.000000	 85.393000  
375.000000	 86.477999  
374.000000	 86.948000  
373.000000	 87.286000  
372.000000	 87.956999  
371.000000	 88.530000  
370.000000	 88.622000  
369.000000	 89.455000  
368.000000	 89.727000  
367.000000	 90.354000  
366.000000	 90.696000  
365.000000	 91.242999  
364.000000	 91.251000  
363.000000	 91.416000  
362.000000	 91.810999  
361.000000	 91.968000  
360.000000	 92.489000  
359.000000	 92.490000  
358.000000	 93.113999  
357.000000	 93.008000  
356.000000	 93.247000  
355.000000	 93.649000  
354.000000	 94.384000  
353.000000	 94.403000  
352.000000	 94.810000  
351.000000	 94.911000  
350.000000	 95.081000  
349.000000	 94.791000  
348.000000	 97.028000  
347.000000	 96.053000  
346.000000	 96.634000  
345.000000	 97.241999  
344.000000	 97.713000  
343.000000	 96.419999  
342.000000	 96.926999  
341.000000	 97.504000  
340.000000	 97.851000  
339.000000	 98.215000  
338.000000	 98.087000  
337.000000	 99.169000  
336.000000	 97.843000  
335.000000	 98.029000  
334.000000	 98.819999  
333.000000	 99.142000  
332.000000	 98.642000  
331.000000	 98.284000  
330.000000	 99.431000  
329.000000	 100.349000 
328.000000	 99.581000  
327.000000	 99.775000  
326.000000	 100.189000 
325.000000	 100.476000 
324.000000	 100.873000 
323.000000	 100.543000 
322.000000	 100.440000 
321.000000	 100.395000 
320.000000	 100.046000 
319.000000	 101.008000 
318.000000	 101.227000 
317.000000	 100.810000 
316.000000	 100.493000 
315.000000	 101.071000 
314.000000	 101.637000 
313.000000	 101.396000 
312.000000	 101.948000 
311.000000	 101.680000 
310.000000	 101.130000 
309.000000	 100.930000 
308.000000	 101.152000 
307.000000	 101.159000 
306.000000	 101.646000 
305.000000	 101.320000 
304.000000	 101.051000 
303.000000	 100.834000 
302.000000	 101.270000 
301.000000	 101.070000 
300.000000	 101.200000 
299.000000	 100.668000 
298.000000	 100.658000 
297.000000	 100.835000 
296.000000	 100.261000 
295.000000	 100.366000 
294.000000	 100.576000 
293.000000	 100.195000 
292.000000	 100.200000 
291.000000	 100.151000 
290.000000	 100.388000 
289.000000	 100.042000 
288.000000	 99.458000  
287.000000	 99.801000  
286.000000	 99.785000  
285.000000	 99.175000  
284.000000	 99.496000  
283.000000	 99.569000  
282.000000	 99.139000  
281.000000	 99.212999  
280.000000	 99.321000  
279.000000	 99.182999  
278.000000	 99.116000  
277.000000	 99.056000  
276.000000	 98.696000  
275.000000	 98.393000  
274.000000	 97.994000  
273.000000	 97.727000  
272.000000	 97.757000  
271.000000	 97.072999  
270.000000	 97.429000  
269.000000	 97.398000  
268.000000	 96.521999  
267.000000	 95.973000  
266.000000	 95.860999  
265.000000	 95.618000  
264.000000	 94.565999  
263.000000	 93.825000  
262.000000	 93.872999  
261.000000	 93.081999  
260.000000	 92.435000  
259.000000	 91.979000  
258.000000	 91.137999  
257.000000	 90.602999  
256.000000	 90.361999  
255.000000	 89.448000  
254.000000	 88.439000  
253.000000	 87.607000  
252.000000	 87.083999  
251.000000	 85.934000  
250.000000	 85.152000  
249.000000	 84.687000  
248.000000	 83.545000  
247.000000	 82.438999  
246.000000	 81.627000  
245.000000	 81.194999  
244.000000	 80.179999  
243.000000	 78.532000  
242.000000	 77.441000  
241.000000	 76.271999  
240.000000	 74.702000  
239.000000	 73.321000  
238.000000	 72.675000  
237.000000	 72.450999  
236.000000	 71.252000  
235.000000	 70.684000  
234.000000	 69.799000  
233.000000	 68.488000  
232.000000	 67.907000  
231.000000	 68.003999  
230.000000	 67.600000  
229.000000	 67.005000  
228.000000	 67.388000  
227.000000	 65.946000  
226.000000	 65.171000  
225.000000	 64.963000  
224.000000	 64.727999  
223.000000	 63.277000  
222.000000	 63.453000  
221.000000	 64.157000  
220.000000	 64.768000  
219.000000	 63.604000  
218.000000	 65.381999  
217.000000	 65.157000  
216.000000	 65.381000  
215.000000	 63.808000  
214.000000	 66.399000  
213.000000	 67.057000  
212.000000	 65.687000  
211.000000	 67.081000  
210.000000	 68.171000  
209.000000	 69.568000  
208.000000	 71.218000  
207.000000	 71.902000  
206.000000	 71.676000  
205.000000	 74.535000  
204.000000	 76.932999  
203.000000	 79.662000  
202.000000	 76.717000  
201.000000	 77.900000  
200.000000	 82.130000  
199.000000	 82.918000  
198.000000	 90.914000  
197.000000	 100.460000 
196.000000	 83.910000  
195.000000	 72.878000  
194.000000	 83.514000  
193.000000	 138.673000 
192.000000	 132.811000 
191.000000	 67.003000  
190.000000	 70.033999  

