7496.76250	0.003219
7494.83382	0.003240
7492.90514	0.003274
7490.97647	0.003291
7489.04779	0.003287
7487.11912	0.003274
7485.19044	0.003253
7483.26177	0.003237
7481.33309	0.003243
7479.40441	0.003261
7477.47574	0.003274
7475.54706	0.003289
7473.61839	0.003307
7471.68971	0.003310
7469.76104	0.003298
7467.83236	0.003292
7465.90368	0.003307
7463.97501	0.003342
7462.04633	0.003370
7460.11766	0.003380
7458.18898	0.003391
7456.26031	0.003415
7454.33163	0.003430
7452.40295	0.003430
7450.47428	0.003430
7448.54560	0.003436
7446.61693	0.003440
7444.68825	0.003445
7442.75958	0.003450
7440.83090	0.003460
7438.90222	0.003470
7436.97355	0.003465
7435.04487	0.003458
7433.11620	0.003469
7431.18752	0.003483
7429.25885	0.003480
7427.33017	0.003477
7425.40149	0.003490
7423.47282	0.003508
7421.54414	0.003518
7419.61547	0.003527
7417.68679	0.003541
7415.75812	0.003546
7413.82944	0.003541
7411.90076	0.003541
7409.97209	0.003554
7408.04341	0.003573
7406.11474	0.003588
7404.18606	0.003599
7402.25739	0.003614
7400.32871	0.003617
7398.40003	0.003614
7396.47136	0.003632
7394.54268	0.003652
7392.61401	0.003666
7390.68533	0.003693
7388.75666	0.003714
7386.82798	0.003705
7384.89930	0.003698
7382.97063	0.003713
7381.04195	0.003727
7379.11328	0.003732
7377.18460	0.003744
7375.25593	0.003758
7373.32725	0.003767
7371.39857	0.003786
7369.46990	0.003817
7367.54122	0.003827
7365.61255	0.003810
7363.68387	0.003792
7361.75520	0.003797
7359.82652	0.003819
7357.89784	0.003829
7355.96917	0.003825
7354.04049	0.003829
7352.11182	0.003844
7350.18314	0.003861
7348.25447	0.003872
7346.32579	0.003869
7344.39711	0.003861
7342.46844	0.003867
7340.53976	0.003876
7338.61109	0.003883
7336.68241	0.003896
7334.75374	0.003920
7332.82506	0.003943
7330.89638	0.003959
7328.96771	0.003973
7327.03903	0.003984
7325.11036	0.003991
7323.18168	0.003996
7321.25301	0.003995
7319.32433	0.003988
7317.39565	0.003995
7315.46698	0.004032
7313.53830	0.004064
7311.60963	0.004054
7309.68095	0.004036
7307.75228	0.004043
7305.82360	0.004068
7303.89492	0.004103
7301.96625	0.004123
7300.03757	0.004118
7298.10890	0.004104
7296.18022	0.004094
7294.25155	0.004100
7292.32287	0.004125
7290.39419	0.004151
7288.46552	0.004167
7286.53684	0.004165
7284.60817	0.004161
7282.67949	0.004175
7280.75082	0.004192
7278.82214	0.004202
7276.89346	0.004204
7274.96479	0.004200
7273.03611	0.004213
7271.10744	0.004247
7269.17876	0.004275
7267.25009	0.004284
7265.32141	0.004278
7263.39273	0.004274
7261.46406	0.004290
7259.53538	0.004310
7257.60671	0.004313
7255.67803	0.004319
7253.74936	0.004337
7251.82068	0.004358
7249.89200	0.004375
7247.96333	0.004383
7246.03465	0.004377
7244.10598	0.004363
7242.17730	0.004362
7240.24863	0.004371
7238.31995	0.004385
7236.39127	0.004410
7234.46260	0.004433
7232.53392	0.004439
7230.60525	0.004438
7228.67657	0.004445
7226.74790	0.004459
7224.81922	0.004476
7222.89054	0.004495
7220.96187	0.004508
7219.03319	0.004505
7217.10452	0.004510
7215.17584	0.004543
7213.24717	0.004575
7211.31849	0.004584
7209.38981	0.004581
7207.46114	0.004569
7205.53246	0.004554
7203.60379	0.004553
7201.67511	0.004571
7199.74644	0.004593
7197.81776	0.004606
7195.88908	0.004617
7193.96041	0.004635
7192.03173	0.004640
7190.10306	0.004632
7188.17438	0.004649
7186.24571	0.004686
7184.31703	0.004710
7182.38835	0.004723
7180.45968	0.004742
7178.53100	0.004762
7176.60233	0.004760
7174.67365	0.004737
7172.74498	0.004727
7170.81630	0.004743
7168.88762	0.004764
7166.95895	0.004773
7165.03027	0.004777
7163.10160	0.004790
7161.17292	0.004817
7159.24425	0.004841
7157.31557	0.004848
7155.38689	0.004853
7153.45822	0.004863
7151.52954	0.004875
7149.60087	0.004882
7147.67219	0.004888
7145.74352	0.004900
7143.81484	0.004910
7141.88616	0.004913
7139.95749	0.004919
7138.02881	0.004934
7136.10014	0.004951
7134.17146	0.004951
7132.24279	0.004940
7130.31411	0.004950
7128.38543	0.004982
7126.45676	0.005005
7124.52808	0.005010
7122.59941	0.005007
7120.67073	0.005016
7118.74206	0.005039
7116.81338	0.005056
7114.88470	0.005071
7112.95603	0.005093
7111.02735	0.005113
7109.09868	0.005125
7107.17000	0.005135
7105.24133	0.005130
7103.31265	0.005121
7101.38397	0.005128
7099.45530	0.005137
7097.52662	0.005142
7095.59795	0.005165
7093.66927	0.005198
7091.74060	0.005227
7089.81192	0.005247
7087.88324	0.005248
7085.95457	0.005236
7084.02589	0.005223
7082.09722	0.005217
7080.16854	0.005238
7078.23987	0.005284
7076.31119	0.005314
7074.38251	0.005322
7072.45384	0.005331
7070.52516	0.005346
7068.59649	0.005370
7066.66781	0.005394
7064.73914	0.005393
7062.81046	0.005373
7060.88178	0.005365
7058.95311	0.005380
7057.02443	0.005401
7055.09576	0.005422
7053.16708	0.005450
7051.23841	0.005477
7049.30973	0.005495
7047.38105	0.005518
7045.45238	0.005551
7043.52370	0.005563
7041.59503	0.005545
7039.66635	0.005532
7037.73768	0.005534
7035.80900	0.005542
7033.88032	0.005564
7031.95165	0.005597
7030.02297	0.005616
7028.09430	0.005612
7026.16562	0.005608
7024.23695	0.005623
7022.30827	0.005641
7020.37959	0.005643
7018.45092	0.005645
7016.52224	0.005666
7014.59357	0.005683
7012.66489	0.005686
7010.73622	0.005688
7008.80754	0.005696
7006.87886	0.005714
7004.95019	0.005735
7003.02151	0.005755
7001.09284	0.005776
6999.16416	0.005799
6997.23549	0.005812
6995.30681	0.005802
6993.37813	0.005787
6991.44946	0.005792
6989.52078	0.005815
6987.59211	0.005836
6985.66343	0.005846
6983.73476	0.005852
6981.80608	0.005870
6979.87740	0.005895
6977.94873	0.005916
6976.02005	0.005931
6974.09138	0.005944
6972.16270	0.005960
6970.23403	0.005988
6968.30535	0.006019
6966.37667	0.006031
6964.44800	0.006026
6962.51932	0.006028
6960.59065	0.006049
6958.66197	0.006074
6956.73330	0.006090
6954.80462	0.006108
6952.87594	0.006123
6950.94727	0.006117
6949.01859	0.006111
6947.08992	0.006124
6945.16124	0.006145
6943.23257	0.006166
6941.30389	0.006191
6939.37521	0.006213
6937.44654	0.006212
6935.51786	0.006202
6933.58919	0.006214
6931.66051	0.006249
6929.73184	0.006281
6927.80316	0.006289
6925.87448	0.006289
6923.94581	0.006301
6922.01713	0.006319
6920.08846	0.006330
6918.15978	0.006339
6916.23111	0.006347
6914.30243	0.006345
6912.37375	0.006349
6910.44508	0.006374
6908.51640	0.006403
6906.58773	0.006426
6904.65905	0.006447
6902.73038	0.006472
6900.80170	0.006507
6898.87302	0.006531
6896.94435	0.006527
6895.01567	0.006524
6893.08700	0.006545
6891.15832	0.006571
6889.22965	0.006582
6887.30097	0.006592
6885.37229	0.006607
6883.44362	0.006613
6881.51494	0.006618
6879.58627	0.006627
6877.65759	0.006624
6875.72892	0.006614
6873.80024	0.006622
6871.87156	0.006647
6869.94289	0.006671
6868.01421	0.006694
6866.08554	0.006718
6864.15686	0.006740
6862.22819	0.006757
6860.29951	0.006764
6858.37083	0.006762
6856.44216	0.006766
6854.51348	0.006779
6852.58481	0.006801
6850.65613	0.006825
6848.72746	0.006834
6846.79878	0.006838
6844.87010	0.006854
6842.94143	0.006871
6841.01275	0.006884
6839.08408	0.006904
6837.15540	0.006940
6835.22673	0.006964
6833.29805	0.006973
6831.36937	0.006994
6829.44070	0.007030
6827.51202	0.007061
6825.58335	0.007081
6823.65467	0.007095
6821.72600	0.007107
6819.79732	0.007118
6817.86864	0.007120
6815.93997	0.007115
6814.01129	0.007119
6812.08262	0.007147
6810.15394	0.007195
6808.22527	0.007239
6806.29659	0.007262
6804.36791	0.007261
6802.43924	0.007255
6800.51056	0.007265
6798.58189	0.007295
6796.65321	0.007322
6794.72454	0.007331
6792.79586	0.007336
6790.86718	0.007347
6788.93851	0.007356
6787.00983	0.007362
6785.08116	0.007373
6783.15248	0.007393
6781.22381	0.007411
6779.29513	0.007424
6777.36645	0.007441
6775.43778	0.007457
6773.50910	0.007473
6771.58043	0.007495
6769.65175	0.007514
6767.72308	0.007531
6765.79440	0.007556
6763.86572	0.007577
6761.93705	0.007588
6760.00837	0.007592
6758.07970	0.007594
6756.15102	0.007602
6754.22235	0.007622
6752.29367	0.007652
6750.36499	0.007668
6748.43632	0.007672
6746.50764	0.007687
6744.57897	0.007706
6742.65029	0.007715
6740.72162	0.007730
6738.79294	0.007754
6736.86426	0.007765
6734.93559	0.007770
6733.00691	0.007793
6731.07824	0.007833
6729.14956	0.007873
6727.22089	0.007904
6725.29221	0.007917
6723.36353	0.007909
6721.43486	0.007901
6719.50618	0.007922
6717.57751	0.007958
6715.64883	0.007983
6713.72016	0.007989
6711.79148	0.007998
6709.86280	0.008027
6707.93413	0.008063
6706.00545	0.008087
6704.07678	0.008092
6702.14810	0.008092
6700.21943	0.008105
6698.29075	0.008131
6696.36207	0.008160
6694.43340	0.008181
6692.50472	0.008187
6690.57605	0.008192
6688.64737	0.008216
6686.71870	0.008258
6684.79002	0.008295
6682.86134	0.008307
6680.93267	0.008302
6679.00399	0.008316
6677.07532	0.008352
6675.14664	0.008380
6673.21797	0.008394
6671.28929	0.008398
6669.36061	0.008396
6667.43194	0.008404
6665.50326	0.008428
6663.57459	0.008457
6661.64591	0.008488
6659.71724	0.008518
6657.78856	0.008538
6655.85988	0.008563
6653.93121	0.008598
6652.00253	0.008613
6650.07386	0.008601
6648.14518	0.008593
6646.21651	0.008614
6644.28783	0.008661
6642.35915	0.008705
6640.43048	0.008724
6638.50180	0.008723
6636.57313	0.008720
6634.64445	0.008718
6632.71578	0.008727
6630.78710	0.008757
6628.85842	0.008798
6626.92975	0.008818
6625.00107	0.008812
6623.07240	0.008807
6621.14372	0.008826
6619.21505	0.008862
6617.28637	0.008896
6615.35769	0.008913
6613.42902	0.008918
6611.50034	0.008934
6609.57167	0.008982
6607.64299	0.009043
6605.71432	0.009070
6603.78564	0.009055
6601.85696	0.009038
6599.92829	0.009051
6597.99961	0.009077
6596.07094	0.009087
6594.14226	0.009094
6592.21359	0.009129
6590.28491	0.009178
6588.35623	0.009216
6586.42756	0.009237
6584.49888	0.009250
6582.57021	0.009259
6580.64153	0.009270
6578.71286	0.009288
6576.78418	0.009308
6574.85550	0.009328
6572.92683	0.009355
6570.99815	0.009387
6569.06948	0.009413
6567.14080	0.009427
6565.21213	0.009437
6563.28345	0.009460
6561.35477	0.009498
6559.42610	0.009535
6557.49742	0.009561
6555.56875	0.009581
6553.64007	0.009604
6551.71140	0.009616
6549.78272	0.009613
6547.85404	0.009614
6545.92537	0.009633
6543.99669	0.009671
6542.06802	0.009712
6540.13934	0.009743
6538.21067	0.009768
6536.28199	0.009789
6534.35331	0.009803
6532.42464	0.009808
6530.49596	0.009820
6528.56729	0.009844
6526.63861	0.009858
6524.70994	0.009863
6522.78126	0.009879
6520.85258	0.009900
6518.92391	0.009927
6516.99523	0.009974
6515.06656	0.010022
6513.13788	0.010038
6511.20921	0.010024
6509.28053	0.010021
6507.35185	0.010043
6505.42318	0.010068
6503.49450	0.010091
6501.56583	0.010114
6499.63715	0.010134
6497.70848	0.010161
6495.77980	0.010195
6493.85112	0.010228
6491.92245	0.010245
6489.99377	0.010253
6488.06510	0.010271
6486.13642	0.010295
6484.20775	0.010318
6482.27907	0.010350
6480.35039	0.010382
6478.42172	0.010403
6476.49304	0.010418
6474.56437	0.010433
6472.63569	0.010454
6470.70702	0.010487
6468.77834	0.010525
6466.84966	0.010551
6464.92099	0.010568
6462.99231	0.010584
6461.06364	0.010595
6459.13496	0.010611
6457.20629	0.010634
6455.27761	0.010646
6453.34893	0.010656
6451.42026	0.010696
6449.49158	0.010744
6447.56291	0.010769
6445.63423	0.010791
6443.70556	0.010826
6441.77688	0.010854
6439.84820	0.010862
6437.91953	0.010874
6435.99085	0.010900
6434.06218	0.010920
6432.13350	0.010938
6430.20483	0.010969
6428.27615	0.011004
6426.34747	0.011034
6424.41880	0.011054
6422.49012	0.011072
6420.56145	0.011092
6418.63277	0.011109
6416.70410	0.011130
6414.77542	0.011171
6412.84674	0.011223
6410.91807	0.011262
6408.98939	0.011286
6407.06072	0.011307
6405.13204	0.011326
6403.20337	0.011342
6401.27469	0.011350
6399.34601	0.011366
6397.41734	0.011399
6395.48866	0.011435
6393.55999	0.011465
6391.63131	0.011478
6389.70264	0.011478
6387.77396	0.011500
6385.84528	0.011550
6383.91661	0.011598
6381.98793	0.011641
6380.05926	0.011680
6378.13058	0.011694
6376.20191	0.011694
6374.27323	0.011705
6372.34455	0.011730
6370.41588	0.011769
6368.48720	0.011802
6366.55853	0.011816
6364.62985	0.011832
6362.70118	0.011864
6360.77250	0.011892
6358.84382	0.011911
6356.91515	0.011921
6354.98647	0.011924
6353.05780	0.011941
6351.12912	0.011988
6349.20045	0.012042
6347.27177	0.012085
6345.34309	0.012122
6343.41442	0.012158
6341.48574	0.012192
6339.55707	0.012215
6337.62839	0.012233
6335.69972	0.012246
6333.77104	0.012257
6331.84236	0.012282
6329.91369	0.012314
6327.98501	0.012333
6326.05634	0.012352
6324.12766	0.012376
6322.19899	0.012395
6320.27031	0.012414
6318.34163	0.012445
6316.41296	0.012482
6314.48428	0.012518
6312.55561	0.012540
6310.62693	0.012542
6308.69826	0.012560
6306.76958	0.012603
6304.84090	0.012634
6302.91223	0.012651
6300.98355	0.012685
6299.05488	0.012736
6297.12620	0.012772
6295.19753	0.012789
6293.26885	0.012824
6291.34017	0.012881
6289.41150	0.012920
6287.48282	0.012934
6285.55415	0.012949
6283.62547	0.012972
6281.69680	0.012993
6279.76812	0.013015
6277.83944	0.013031
6275.91077	0.013029
6273.98209	0.013037
6272.05342	0.013086
6270.12474	0.013158
6268.19607	0.013223
6266.26739	0.013263
6264.33871	0.013284
6262.41004	0.013310
6260.48136	0.013345
6258.55269	0.013372
6256.62401	0.013394
6254.69534	0.013432
6252.76666	0.013465
6250.83798	0.013472
6248.90931	0.013472
6246.98063	0.013474
6245.05196	0.013477
6243.12328	0.013503
6241.19461	0.013564
6239.26593	0.013635
6237.33725	0.013689
6235.40858	0.013716
6233.47990	0.013713
6231.55123	0.013699
6229.62255	0.013719
6227.69388	0.013784
6225.76520	0.013854
6223.83652	0.013895
6221.90785	0.013916
6219.97917	0.013934
6218.05050	0.013960
6216.12182	0.013997
6214.19315	0.014029
6212.26447	0.014052
6210.33579	0.014063
6208.40712	0.014065
6206.47844	0.014090
6204.54977	0.014142
6202.62109	0.014197
6200.69242	0.014254
6198.76374	0.014309
6196.83506	0.014339
6194.90639	0.014345
6192.97771	0.014353
6191.04904	0.014378
6189.12036	0.014415
6187.19169	0.014448
6185.26301	0.014477
6183.33433	0.014510
6181.40566	0.014541
6179.47698	0.014565
6177.54831	0.014587
6175.61963	0.014611
6173.69096	0.014652
6171.76228	0.014712
6169.83360	0.014759
6167.90493	0.014778
6165.97625	0.014792
6164.04758	0.014826
6162.11890	0.014877
6160.19023	0.014923
6158.26155	0.014966
6156.33287	0.015014
6154.40420	0.015042
6152.47552	0.015037
6150.54685	0.015037
6148.61817	0.015068
6146.68950	0.015114
6144.76082	0.015154
6142.83214	0.015180
6140.90347	0.015204
6138.97479	0.015236
6137.04612	0.015263
6135.11744	0.015288
6133.18877	0.015316
6131.26009	0.015341
6129.33141	0.015376
6127.40274	0.015434
6125.47406	0.015493
6123.54539	0.015529
6121.61671	0.015551
6119.68804	0.015579
6117.75936	0.015623
6115.83068	0.015673
6113.90201	0.015716
6111.97333	0.015748
6110.04466	0.015766
6108.11598	0.015768
6106.18731	0.015779
6104.25863	0.015817
6102.32995	0.015864
6100.40128	0.015890
6098.47260	0.015907
6096.54393	0.015947
6094.61525	0.015996
6092.68658	0.016033
6090.75790	0.016083
6088.82922	0.016144
6086.90055	0.016176
6084.97187	0.016189
6083.04320	0.016218
6081.11452	0.016261
6079.18585	0.016318
6077.25717	0.016374
6075.32849	0.016408
6073.39982	0.016430
6071.47114	0.016462
6069.54247	0.016493
6067.61379	0.016521
6065.68512	0.016563
6063.75644	0.016616
6061.82776	0.016652
6059.89909	0.016658
6057.97041	0.016671
6056.04174	0.016712
6054.11306	0.016755
6052.18439	0.016784
6050.25571	0.016805
6048.32703	0.016836
6046.39836	0.016885
6044.46968	0.016938
6042.54101	0.016976
6040.61233	0.017010
6038.68366	0.017053
6036.75498	0.017101
6034.82630	0.017154
6032.89763	0.017205
6030.96895	0.017242
6029.04028	0.017271
6027.11160	0.017283
6025.18293	0.017280
6023.25425	0.017295
6021.32557	0.017332
6019.39690	0.017376
6017.46822	0.017415
6015.53955	0.017449
6013.61087	0.017494
6011.68220	0.017546
6009.75352	0.017596
6007.82484	0.017643
6005.89617	0.017676
6003.96749	0.017702
6002.03882	0.017741
6000.11014	0.017782
5998.18147	0.017821
5996.25279	0.017862
5994.32411	0.017900
5992.39544	0.017937
5990.46676	0.017972
5988.53809	0.017994
5986.60941	0.018014
5984.68074	0.018056
5982.75206	0.018107
5980.82338	0.018140
5978.89471	0.018171
5976.96603	0.018229
5975.03736	0.018289
5973.10868	0.018321
5971.18001	0.018348
5969.25133	0.018385
5967.32265	0.018425
5965.39398	0.018470
5963.46530	0.018516
5961.53663	0.018557
5959.60795	0.018597
5957.67928	0.018632
5955.75060	0.018658
5953.82192	0.018689
5951.89325	0.018733
5949.96457	0.018776
5948.03590	0.018812
5946.10722	0.018849
5944.17855	0.018882
5942.24987	0.018908
5940.32119	0.018944
5938.39252	0.018995
5936.46384	0.019048
5934.53517	0.019105
5932.60649	0.019152
5930.67782	0.019181
5928.74914	0.019217
5926.82046	0.019265
5924.89179	0.019314
5922.96311	0.019362
5921.03444	0.019413
5919.10576	0.019475
5917.17709	0.019533
5915.24841	0.019564
5913.31973	0.019590
5911.39106	0.019636
5909.46238	0.019683
5907.53371	0.019710
5905.60503	0.019730
5903.67636	0.019762
5901.74768	0.019811
5899.81900	0.019862
5897.89033	0.019896
5895.96165	0.019912
5894.03298	0.019930
5892.10430	0.019975
5890.17563	0.020037
5888.24695	0.020084
5886.31827	0.020117
5884.38960	0.020160
5882.46092	0.020211
5880.53225	0.020262
5878.60357	0.020319
5876.67490	0.020379
5874.74622	0.020437
5872.81755	0.020486
5870.88887	0.020510
5868.96019	0.020522
5867.03152	0.020548
5865.10284	0.020587
5863.17417	0.020639
5861.24549	0.020700
5859.31682	0.020752
5857.38814	0.020810
5855.45946	0.020871
5853.53079	0.020904
5851.60211	0.020922
5849.67344	0.020957
5847.74476	0.021005
5845.81609	0.021045
5843.88741	0.021073
5841.95873	0.021111
5840.03006	0.021170
5838.10138	0.021231
5836.17271	0.021285
5834.24403	0.021332
5832.31536	0.021369
5830.38668	0.021408
5828.45800	0.021451
5826.52933	0.021491
5824.60065	0.021541
5822.67198	0.021594
5820.74330	0.021623
5818.81463	0.021645
5816.88595	0.021692
5814.95727	0.021748
5813.02860	0.021800
5811.09992	0.021849
5809.17125	0.021883
5807.24257	0.021910
5805.31390	0.021956
5803.38522	0.022001
5801.45654	0.022032
5799.52787	0.022072
5797.59919	0.022131
5795.67052	0.022203
5793.74184	0.022274
5791.81317	0.022332
5789.88449	0.022368
5787.95581	0.022384
5786.02714	0.022404
5784.09846	0.022440
5782.16979	0.022486
5780.24111	0.022533
5778.31244	0.022574
5776.38376	0.022620
5774.45508	0.022667
5772.52641	0.022710
5770.59773	0.022771
5768.66906	0.022848
5766.74038	0.022912
5764.81171	0.022962
5762.88303	0.023009
5760.95435	0.023050
5759.02568	0.023094
5757.09700	0.023152
5755.16833	0.023199
5753.23965	0.023225
5751.31098	0.023268
5749.38230	0.023327
5747.45362	0.023361
5745.52495	0.023387
5743.59627	0.023442
5741.66760	0.023510
5739.73892	0.023548
5737.81025	0.023565
5735.88157	0.023610
5733.95289	0.023684
5732.02422	0.023771
5730.09554	0.023852
5728.16687	0.023897
5726.23819	0.023909
5724.30952	0.023930
5722.38084	0.023973
5720.45216	0.024033
5718.52349	0.024091
5716.59481	0.024135
5714.66614	0.024185
5712.73746	0.024257
5710.80879	0.024326
5708.88011	0.024369
5706.95143	0.024396
5705.02276	0.024430
5703.09408	0.024483
5701.16541	0.024542
5699.23673	0.024582
5697.30806	0.024612
5695.37938	0.024655
5693.45070	0.024707
5691.52203	0.024768
5689.59335	0.024840
5687.66468	0.024902
5685.73600	0.024942
5683.80733	0.024976
5681.87865	0.025028
5679.94997	0.025082
5678.02130	0.025119
5676.09262	0.025152
5674.16395	0.025198
5672.23527	0.025247
5670.30660	0.025287
5668.37792	0.025338
5666.44924	0.025400
5664.52057	0.025453
5662.59189	0.025502
5660.66322	0.025561
5658.73454	0.025618
5656.80587	0.025663
5654.87719	0.025707
5652.94851	0.025764
5651.01984	0.025822
5649.09116	0.025874
5647.16249	0.025932
5645.23381	0.025995
5643.30514	0.026041
5641.37646	0.026056
5639.44778	0.026068
5637.51911	0.026122
5635.59043	0.026225
5633.66176	0.026335
5631.73308	0.026410
5629.80441	0.026448
5627.87573	0.026468
5625.94705	0.026494
5624.01838	0.026552
5622.08970	0.026629
5620.16103	0.026680
5618.23235	0.026700
5616.30368	0.026735
5614.37500	0.026799
5612.44632	0.026866
5610.51765	0.026933
5608.58897	0.027000
5606.66030	0.027049
5604.73162	0.027083
5602.80295	0.027127
5600.87427	0.027184
5598.94559	0.027248
5597.01692	0.027303
5595.08824	0.027345
5593.15957	0.027394
5591.23089	0.027451
5589.30222	0.027492
5587.37354	0.027528
5585.44486	0.027575
5583.51619	0.027638
5581.58751	0.027704
5579.65884	0.027757
5577.73016	0.027804
5575.80149	0.027858
5573.87281	0.027921
5571.94413	0.027989
5570.01546	0.028051
5568.08678	0.028105
5566.15811	0.028155
5564.22943	0.028204
5562.30076	0.028256
5560.37208	0.028309
5558.44340	0.028360
5556.51473	0.028428
5554.58605	0.028512
5552.65738	0.028566
5550.72870	0.028596
5548.80003	0.028652
5546.87135	0.028734
5544.94267	0.028801
5543.01400	0.028844
5541.08532	0.028874
5539.15665	0.028905
5537.22797	0.028954
5535.29930	0.029022
5533.37062	0.029080
5531.44194	0.029113
5529.51327	0.029150
5527.58459	0.029220
5525.65592	0.029304
5523.72724	0.029366
5521.79857	0.029416
5519.86989	0.029475
5517.94121	0.029547
5516.01254	0.029608
5514.08386	0.029637
5512.15519	0.029647
5510.22651	0.029682
5508.29784	0.029771
5506.36916	0.029878
5504.44048	0.029950
5502.51181	0.029982
5500.58313	0.030013
5498.65446	0.030075
5496.72578	0.030146
5494.79711	0.030197
5492.86843	0.030243
5490.93975	0.030302
5489.01108	0.030375
5487.08240	0.030444
5485.15373	0.030505
5483.22505	0.030571
5481.29638	0.030648
5479.36770	0.030715
5477.43902	0.030753
5475.51035	0.030773
5473.58167	0.030797
5471.65300	0.030833
5469.72432	0.030889
5467.79565	0.030961
5465.86697	0.031028
5463.93829	0.031085
5462.00962	0.031157
5460.08094	0.031266
5458.15227	0.031364
5456.22359	0.031409
5454.29492	0.031432
5452.36624	0.031462
5450.43756	0.031505
5448.50889	0.031572
5446.58021	0.031645
5444.65154	0.031714
5442.72286	0.031786
5440.79419	0.031860
5438.86551	0.031936
5436.93683	0.031998
5435.00816	0.032038
5433.07948	0.032076
5431.15081	0.032111
5429.22213	0.032155
5427.29346	0.032226
5425.36478	0.032303
5423.43610	0.032378
5421.50743	0.032460
5419.57875	0.032542
5417.65008	0.032603
5415.72140	0.032619
5413.79273	0.032610
5411.86405	0.032640
5409.93537	0.032729
5408.00670	0.032839
5406.07802	0.032925
5404.14935	0.032986
5402.22067	0.033048
5400.29200	0.033128
5398.36332	0.033205
5396.43464	0.033252
5394.50597	0.033279
5392.57729	0.033320
5390.64862	0.033380
5388.71994	0.033432
5386.79127	0.033484
5384.86259	0.033574
5382.93391	0.033676
5381.00524	0.033727
5379.07656	0.033724
5377.14789	0.033734
5375.21921	0.033814
5373.29054	0.033940
5371.36186	0.034048
5369.43318	0.034117
5367.50451	0.034165
5365.57583	0.034204
5363.64716	0.034254
5361.71848	0.034322
5359.78981	0.034393
5357.86113	0.034459
5355.93245	0.034514
5354.00378	0.034572
5352.07510	0.034639
5350.14643	0.034693
5348.21775	0.034729
5346.28908	0.034766
5344.36040	0.034827
5342.43172	0.034907
5340.50305	0.034971
5338.57437	0.035027
5336.64570	0.035113
5334.71702	0.035197
5332.78835	0.035246
5330.85967	0.035296
5328.93099	0.035367
5327.00232	0.035433
5325.07364	0.035489
5323.14497	0.035553
5321.21629	0.035636
5319.28762	0.035725
5317.35894	0.035791
5315.43026	0.035842
5313.50159	0.035906
5311.57291	0.035975
5309.64424	0.036021
5307.71556	0.036065
5305.78689	0.036140
5303.85821	0.036222
5301.92953	0.036282
5300.00086	0.036347
5298.07218	0.036426
5296.14351	0.036497
5294.21483	0.036557
5292.28616	0.036614
5290.35748	0.036665
5288.42880	0.036716
5286.50013	0.036778
5284.57145	0.036856
5282.64278	0.036934
5280.71410	0.036987
5278.78543	0.037024
5276.85675	0.037080
5274.92807	0.037161
5272.99940	0.037247
5271.07072	0.037316
5269.14205	0.037380
5267.21337	0.037439
5265.28470	0.037473
5263.35602	0.037513
5261.42734	0.037602
5259.49867	0.037689
5257.56999	0.037715
5255.64132	0.037720
5253.71264	0.037789
5251.78397	0.037909
5249.85529	0.038002
5247.92661	0.038060
5245.99794	0.038121
5244.06926	0.038185
5242.14059	0.038258
5240.21191	0.038364
5238.28324	0.038477
5236.35456	0.038544
5234.42588	0.038571
5232.49721	0.038591
5230.56853	0.038627
5228.63986	0.038702
5226.71118	0.038813
5224.78251	0.038921
5222.85383	0.038998
5220.92515	0.039060
5218.99648	0.039130
5217.06780	0.039200
5215.13913	0.039256
5213.21045	0.039305
5211.28178	0.039346
5209.35310	0.039376
5207.42442	0.039427
5205.49575	0.039526
5203.56707	0.039636
5201.63840	0.039723
5199.70972	0.039786
5197.78105	0.039837
5195.85237	0.039915
5193.92369	0.040023
5191.99502	0.040111
5190.06634	0.040156
5188.13767	0.040184
5186.20899	0.040238
5184.28032	0.040333
5182.35164	0.040428
5180.42296	0.040495
5178.49429	0.040552
5176.56561	0.040606
5174.63694	0.040659
5172.70826	0.040711
5170.77959	0.040748
5168.85091	0.040784
5166.92223	0.040849
5164.99356	0.040940
5163.06488	0.041038
5161.13621	0.041125
5159.20753	0.041207
5157.27886	0.041296
5155.35018	0.041377
5153.42150	0.041441
5151.49283	0.041503
5149.56415	0.041578
5147.63548	0.041650
5145.70680	0.041699
5143.77813	0.041754
5141.84945	0.041839
5139.92077	0.041929
5137.99210	0.042009
5136.06342	0.042082
5134.13475	0.042160
5132.20607	0.042249
5130.27740	0.042326
5128.34872	0.042376
5126.42004	0.042432
5124.49137	0.042500
5122.56269	0.042572
5120.63402	0.042658
5118.70534	0.042741
5116.77667	0.042796
5114.84799	0.042844
5112.91931	0.042920
5110.99064	0.043003
5109.06196	0.043061
5107.13329	0.043116
5105.20461	0.043190
5103.27594	0.043269
5101.34726	0.043355
5099.41858	0.043452
5097.48991	0.043549
5095.56123	0.043627
5093.63256	0.043683
5091.70388	0.043727
5089.77521	0.043783
5087.84653	0.043866
5085.91785	0.043964
5083.98918	0.044059
5082.06050	0.044131
5080.13183	0.044186
5078.20315	0.044251
5076.27448	0.044319
5074.34580	0.044379
5072.41712	0.044460
5070.48845	0.044567
5068.55977	0.044660
5066.63110	0.044720
5064.70242	0.044756
5062.77375	0.044799
5060.84507	0.044890
5058.91639	0.045001
5056.98772	0.045065
5055.05904	0.045104
5053.13037	0.045179
5051.20169	0.045281
5049.27302	0.045378
5047.34434	0.045477
5045.41566	0.045563
5043.48699	0.045617
5041.55831	0.045658
5039.62964	0.045720
5037.70096	0.045826
5035.77229	0.045941
5033.84361	0.046026
5031.91493	0.046088
5029.98626	0.046126
5028.05758	0.046153
5026.12891	0.046212
5024.20023	0.046302
5022.27156	0.046402
5020.34288	0.046502
5018.41420	0.046584
5016.48553	0.046656
5014.55685	0.046720
5012.62818	0.046769
5010.69950	0.046820
5008.77083	0.046903
5006.84215	0.047029
5004.91347	0.047159
5002.98480	0.047238
5001.05612	0.047270
4999.12745	0.047321
4997.19877	0.047411
4995.27010	0.047496
4993.34142	0.047560
4991.41274	0.047636
4989.48407	0.047735
4987.55539	0.047828
4985.62672	0.047895
4983.69804	0.047955
4981.76937	0.048025
4979.84069	0.048101
4977.91201	0.048189
4975.98334	0.048274
4974.05466	0.048329
4972.12599	0.048372
4970.19731	0.048441
4968.26864	0.048557
4966.33996	0.048694
4964.41128	0.048794
4962.48261	0.048844
4960.55393	0.048879
4958.62526	0.048929
4956.69658	0.049010
4954.76791	0.049109
4952.83923	0.049203
4950.91055	0.049294
4948.98188	0.049370
4947.05320	0.049418
4945.12453	0.049480
4943.19585	0.049598
4941.26718	0.049722
4939.33850	0.049802
4937.40982	0.049867
4935.48115	0.049943
4933.55247	0.050031
4931.62380	0.050135
4929.69512	0.050232
4927.76645	0.050296
4925.83777	0.050356
4923.90909	0.050444
4921.98042	0.050543
4920.05174	0.050634
4918.12307	0.050726
4916.19439	0.050824
4914.26572	0.050912
4912.33704	0.050989
4910.40836	0.051068
4908.47969	0.051144
4906.55101	0.051221
4904.62234	0.051299
4902.69366	0.051372
4900.76499	0.051459
4898.83631	0.051557
4896.90763	0.051650
4894.97896	0.051749
4893.05028	0.051836
4891.12161	0.051885
4889.19293	0.051918
4887.26426	0.051972
4885.33558	0.052061
4883.40690	0.052158
4881.47823	0.052238
4879.54955	0.052316
4877.62088	0.052418
4875.69220	0.052533
4873.76353	0.052637
4871.83485	0.052747
4869.90617	0.052869
4867.97750	0.052962
4866.04882	0.053021
4864.12015	0.053089
4862.19147	0.053174
4860.26280	0.053254
4858.33412	0.053333
4856.40544	0.053434
4854.47677	0.053548
4852.54809	0.053646
4850.61942	0.053719
4848.69074	0.053781
4846.76207	0.053853
4844.83339	0.053948
4842.90471	0.054048
4840.97604	0.054122
4839.04736	0.054164
4837.11869	0.054227
4835.19001	0.054364
4833.26134	0.054530
4831.33266	0.054642
4829.40398	0.054700
4827.47531	0.054755
4825.54663	0.054832
4823.61796	0.054920
4821.68928	0.055007
4819.76061	0.055084
4817.83193	0.055151
4815.90325	0.055230
4813.97458	0.055336
4812.04590	0.055455
4810.11723	0.055551
4808.18855	0.055626
4806.25988	0.055729
4804.33120	0.055864
4802.40252	0.055969
4800.47385	0.056024
4798.54517	0.056070
4796.61650	0.056145
4794.68782	0.056252
4792.75915	0.056343
4790.83047	0.056398
4788.90179	0.056462
4786.97312	0.056561
4785.04444	0.056674
4783.11577	0.056777
4781.18709	0.056880
4779.25842	0.056994
4777.32974	0.057094
4775.40106	0.057173
4773.47239	0.057262
4771.54371	0.057362
4769.61504	0.057460
4767.68636	0.057564
4765.75769	0.057688
4763.82901	0.057803
4761.90033	0.057884
4759.97166	0.057966
4758.04298	0.058080
4756.11431	0.058188
4754.18563	0.058267
4752.25696	0.058341
4750.32828	0.058426
4748.39960	0.058518
4746.47093	0.058610
4744.54225	0.058708
4742.61358	0.058797
4740.68490	0.058877
4738.75623	0.058982
4736.82755	0.059121
4734.89887	0.059250
4732.97020	0.059348
4731.04152	0.059442
4729.11285	0.059541
4727.18417	0.059632
4725.25550	0.059715
4723.32682	0.059803
4721.39814	0.059895
4719.46947	0.059988
4717.54079	0.060086
4715.61212	0.060180
4713.68344	0.060274
4711.75477	0.060385
4709.82609	0.060493
4707.89741	0.060584
4705.96874	0.060683
4704.04006	0.060809
4702.11139	0.060947
4700.18271	0.061068
4698.25404	0.061169
4696.32536	0.061280
4694.39668	0.061390
4692.46801	0.061465
4690.53933	0.061527
4688.61066	0.061616
4686.68198	0.061722
4684.75331	0.061828
4682.82463	0.061939
4680.89595	0.062067
4678.96728	0.062195
4677.03860	0.062296
4675.10993	0.062383
4673.18125	0.062481
4671.25258	0.062589
4669.32390	0.062696
4667.39522	0.062799
4665.46655	0.062895
4663.53787	0.062989
4661.60920	0.063088
4659.68052	0.063199
4657.75185	0.063323
4655.82317	0.063438
4653.89449	0.063552
4651.96582	0.063688
4650.03714	0.063816
4648.10847	0.063904
4646.17979	0.063980
4644.25112	0.064080
4642.32244	0.064193
4640.39376	0.064292
4638.46509	0.064385
4636.53641	0.064505
4634.60774	0.064630
4632.67906	0.064736
4630.75039	0.064835
4628.82171	0.064925
4626.89303	0.065020
4624.96436	0.065158
4623.03568	0.065323
4621.10701	0.065461
4619.17833	0.065556
4617.24966	0.065646
4615.32098	0.065747
4613.39230	0.065846
4611.46363	0.065948
4609.53495	0.066058
4607.60628	0.066173
4605.67760	0.066290
4603.74893	0.066413
4601.82025	0.066538
4599.89157	0.066659
4597.96290	0.066766
4596.03422	0.066876
4594.10555	0.066999
4592.17687	0.067122
4590.24820	0.067251
4588.31952	0.067389
4586.39084	0.067517
4584.46217	0.067639
4582.53349	0.067759
4580.60482	0.067869
4578.67614	0.067979
4576.74747	0.068089
4574.81879	0.068176
4572.89011	0.068255
4570.96144	0.068383
4569.03276	0.068548
4567.10409	0.068695
4565.17541	0.068807
4563.24674	0.068902
4561.31806	0.069001
4559.38938	0.069106
4557.46071	0.069215
4555.53203	0.069331
4553.60336	0.069456
4551.67468	0.069586
4549.74601	0.069728
4547.81733	0.069883
4545.88865	0.070020
4543.95998	0.070137
4542.03130	0.070264
4540.10263	0.070389
4538.17395	0.070493
4536.24528	0.070597
4534.31660	0.070719
4532.38792	0.070841
4530.45925	0.070951
4528.53057	0.071059
4526.60190	0.071182
4524.67322	0.071327
4522.74455	0.071485
4520.81587	0.071634
4518.88719	0.071761
4516.95852	0.071871
4515.02984	0.071991
4513.10117	0.072136
4511.17249	0.072259
4509.24382	0.072346
4507.31514	0.072458
4505.38646	0.072607
4503.45779	0.072762
4501.52911	0.072919
4499.60044	0.073072
4497.67176	0.073207
4495.74309	0.073326
4493.81441	0.073436
4491.88573	0.073543
4489.95706	0.073651
4488.02838	0.073773
4486.09971	0.073912
4484.17103	0.074049
4482.24236	0.074172
4480.31368	0.074299
4478.38500	0.074433
4476.45633	0.074572
4474.52765	0.074733
4472.59898	0.074901
4470.67030	0.075043
4468.74163	0.075164
4466.81295	0.075295
4464.88427	0.075437
4462.95560	0.075575
4461.02692	0.075692
4459.09825	0.075797
4457.16957	0.075920
4455.24090	0.076073
4453.31222	0.076237
4451.38354	0.076392
4449.45487	0.076534
4447.52619	0.076670
4445.59752	0.076798
4443.66884	0.076943
4441.74017	0.077127
4439.81149	0.077299
4437.88281	0.077405
4435.95414	0.077475
4434.02546	0.077589
4432.09679	0.077774
4430.16811	0.077959
4428.23944	0.078077
4426.31076	0.078174
4424.38208	0.078317
4422.45341	0.078493
4420.52473	0.078664
4418.59606	0.078817
4416.66738	0.078933
4414.73871	0.079019
4412.81003	0.079130
4410.88135	0.079308
4408.95268	0.079506
4407.02400	0.079655
4405.09533	0.079767
4403.16665	0.079899
4401.23798	0.080049
4399.30930	0.080185
4397.38062	0.080337
4395.45195	0.080528
4393.52327	0.080705
4391.59460	0.080833
4389.66592	0.080966
4387.73725	0.081146
4385.80857	0.081323
4383.87989	0.081456
4381.95122	0.081573
4380.02254	0.081699
4378.09387	0.081833
4376.16519	0.081987
4374.23652	0.082158
4372.30784	0.082328
4370.37916	0.082489
4368.45049	0.082625
4366.52181	0.082726
4364.59314	0.082836
4362.66446	0.082993
4360.73579	0.083178
4358.80711	0.083356
4356.87843	0.083522
4354.94976	0.083683
4353.02108	0.083840
4351.09241	0.083998
4349.16373	0.084160
4347.23506	0.084323
4345.30638	0.084488
4343.37770	0.084641
4341.44903	0.084780
4339.52035	0.084931
4337.59168	0.085100
4335.66300	0.085265
4333.73433	0.085422
4331.80565	0.085582
4329.87697	0.085751
4327.94830	0.085905
4326.01962	0.086040
4324.09095	0.086184
4322.16227	0.086345
4320.23360	0.086523
4318.30492	0.086712
4316.37624	0.086892
4314.44757	0.087055
4312.51889	0.087215
4310.59022	0.087396
4308.66154	0.087582
4306.73287	0.087752
4304.80419	0.087920
4302.87551	0.088098
4300.94684	0.088273
4299.01816	0.088423
4297.08949	0.088546
4295.16081	0.088697
4293.23214	0.088904
4291.30346	0.089110
4289.37478	0.089284
4287.44611	0.089459
4285.51743	0.089632
4283.58876	0.089793
4281.66008	0.089976
4279.73141	0.090169
4277.80273	0.090322
4275.87405	0.090463
4273.94538	0.090659
4272.01670	0.090879
4270.08803	0.091051
4268.15935	0.091178
4266.23068	0.091318
4264.30200	0.091483
4262.37332	0.091655
4260.44465	0.091825
4258.51597	0.091989
4256.58730	0.092152
4254.65862	0.092319
4252.72995	0.092484
4250.80127	0.092658
4248.87259	0.092848
4246.94392	0.093034
4245.01524	0.093213
4243.08657	0.093394
4241.15789	0.093574
4239.22922	0.093752
4237.30054	0.093916
4235.37186	0.094081
4233.44319	0.094281
4231.51451	0.094491
4229.58584	0.094672
4227.65716	0.094825
4225.72849	0.094964
4223.79981	0.095112
4221.87113	0.095294
4219.94246	0.095495
4218.01378	0.095693
4216.08511	0.095907
4214.15643	0.096122
4212.22776	0.096300
4210.29908	0.096471
4208.37040	0.096647
4206.44173	0.096823
4204.51305	0.097008
4202.58438	0.097190
4200.65570	0.097375
4198.72703	0.097587
4196.79835	0.097792
4194.86968	0.097971
4192.94100	0.098150
4191.01232	0.098330
4189.08365	0.098514
4187.15497	0.098714
4185.22630	0.098910
4183.29762	0.099095
4181.36895	0.099287
4179.44027	0.099473
4177.51159	0.099655
4175.58292	0.099855
4173.65424	0.100064
4171.72557	0.100258
4169.79689	0.100445
4167.86822	0.100638
4165.93954	0.100823
4164.01086	0.100988
4162.08219	0.101156
4160.15351	0.101359
4158.22484	0.101580
4156.29616	0.101782
4154.36749	0.101964
4152.43881	0.102157
4150.51013	0.102375
4148.58146	0.102592
4146.65278	0.102771
4144.72411	0.102929
4142.79543	0.103104
4140.86676	0.103295
4138.93808	0.103478
4137.00940	0.103672
4135.08073	0.103910
4133.15205	0.104155
4131.22338	0.104358
4129.29470	0.104549
4127.36603	0.104754
4125.43735	0.104955
4123.50867	0.105154
4121.58000	0.105360
4119.65132	0.105562
4117.72265	0.105764
4115.79397	0.105957
4113.86530	0.106123
4111.93662	0.106311
4110.00794	0.106536
4108.07927	0.106750
4106.15059	0.106959
4104.22192	0.107176
4102.29324	0.107365
4100.36457	0.107543
4098.43589	0.107754
4096.50721	0.107980
4094.57854	0.108199
4092.64986	0.108417
4090.72119	0.108615
4088.79251	0.108791
4086.86384	0.109007
4084.93516	0.109259
4083.00648	0.109482
4081.07781	0.109679
4079.14913	0.109867
4077.22046	0.110054
4075.29178	0.110275
4073.36311	0.110518
4071.43443	0.110754
4069.50575	0.110987
4067.57708	0.111197
4065.64840	0.111378
4063.71973	0.111559
4061.79105	0.111765
4059.86238	0.111991
4057.93370	0.112230
4056.00502	0.112476
4054.07635	0.112707
4052.14767	0.112928
4050.21900	0.113165
4048.29032	0.113385
4046.36165	0.113556
4044.43297	0.113727
4042.50429	0.113944
4040.57562	0.114201
4038.64694	0.114475
4036.71827	0.114726
4034.78959	0.114928
4032.86092	0.115113
4030.93224	0.115318
4029.00356	0.115534
4027.07489	0.115744
4025.14621	0.115962
4023.21754	0.116190
4021.28886	0.116424
4019.36019	0.116678
4017.43151	0.116933
4015.50283	0.117149
4013.57416	0.117356
4011.64548	0.117592
4009.71681	0.117820
4007.78813	0.118026
4005.85946	0.118247
4003.93078	0.118487
4002.00210	0.118723
4000.07343	0.118944
3998.14475	0.119157
3996.21608	0.119378
3994.28740	0.119616
3992.35873	0.119857
3990.43005	0.120088
3988.50137	0.120312
3986.57270	0.120549
3984.64402	0.120804
3982.71535	0.121044
3980.78667	0.121249
3978.85800	0.121428
3976.92932	0.121605
3975.00064	0.121828
3973.07197	0.122102
3971.14329	0.122362
3969.21462	0.122586
3967.28594	0.122818
3965.35727	0.123053
3963.42859	0.123262
3961.49991	0.123460
3959.57124	0.123677
3957.64256	0.123925
3955.71389	0.124181
3953.78521	0.124401
3951.85654	0.124573
3949.92786	0.124731
3947.99918	0.124944
3946.07051	0.125210
3944.14183	0.125455
3942.21316	0.125708
3940.28448	0.126014
3938.35581	0.126305
3936.42713	0.126507
3934.49845	0.126602
3932.56978	0.126710
3930.64110	0.126984
3928.71243	0.127333
3926.78375	0.127593
3924.85508	0.127804
3922.92640	0.128029
3920.99772	0.128214
3919.06905	0.128352
3917.14037	0.128569
3915.21170	0.128946
3913.28302	0.129364
3911.35435	0.129672
3909.42567	0.129854
3907.49699	0.129863
3905.56832	0.129717
3903.63964	0.129680
3901.71097	0.129912
3899.78229	0.130351
3897.85362	0.130914
3895.92494	0.131386
3893.99626	0.131552
3892.06759	0.131634
3890.13891	0.131918
3888.21024	0.132143
3886.28156	0.132197
3884.35289	0.132430
3882.42421	0.132751
3880.49553	0.133040
3878.56686	0.133464
3876.63818	0.133801
3874.70951	0.133937
3872.78083	0.134027
3870.85216	0.134127
3868.92348	0.134392
3866.99480	0.134741
3865.06613	0.134986
3863.13745	0.135307
3861.20878	0.135774
3859.28010	0.136121
3857.35143	0.135960
3855.42275	0.135376
3853.49407	0.135318
3851.56540	0.136219
3849.63672	0.137270
3847.70805	0.137825
3845.77937	0.137968
3843.85070	0.137994
3841.92202	0.138070
3839.99334	0.138183
3838.06467	0.138388
3836.13599	0.138761
3834.20732	0.139193
3832.27864	0.139629
3830.34997	0.140092
3828.42129	0.140436
3826.49261	0.140628
3824.56394	0.140673
3822.63526	0.140552
3820.70659	0.140662
3818.77791	0.141106
3816.84924	0.141544
3814.92056	0.142063
3812.99188	0.142639
3811.06321	0.142922
3809.13453	0.142897
3807.20586	0.142962
3805.27718	0.143239
3803.34851	0.143381
3801.41983	0.143507
3799.49115	0.143899
3797.56248	0.144339
3795.63380	0.144789
3793.70513	0.145321
3791.77645	0.145740
3789.84778	0.145975
3787.91910	0.146118
3785.99042	0.146284
3784.06175	0.146558
3782.13307	0.146818
3780.20440	0.147011
3778.27572	0.147316
3776.34705	0.147717
3774.41837	0.147992
3772.48969	0.148056
3770.56102	0.148091
3768.63234	0.148302
3766.70367	0.148629
3764.77499	0.149000
3762.84632	0.149322
3760.91764	0.149464
3758.98896	0.149625
3757.06029	0.149910
3755.13161	0.149991
3753.20294	0.149731
3751.27426	0.149579
3749.34559	0.149926
3747.41691	0.150242
3745.48823	0.150215
3743.55956	0.150672
3741.63088	0.151629
3739.70221	0.152042
3737.77353	0.151835
3735.84486	0.151776
3733.91618	0.152216
3731.98750	0.152958
3730.05883	0.153637
3728.13015	0.154000
3726.20148	0.154166
3724.27280	0.154400
3722.34413	0.154735
3720.41545	0.155144
3718.48677	0.155577
3716.55810	0.155877
3714.62942	0.155889
3712.70075	0.155765
3710.77207	0.155945
3708.84340	0.156505
3706.91472	0.157108
3704.98604	0.157476
3703.05737	0.157641
3701.12869	0.157891
3699.20002	0.158294
3697.27134	0.158661
3695.34267	0.158877
3693.41399	0.158887
3691.48531	0.158757
3689.55664	0.158842
3687.62796	0.159403
3685.69929	0.160135
3683.77061	0.160613
3681.84194	0.160802
3679.91326	0.160792
3677.98458	0.160569
3676.05591	0.160464
3674.12723	0.160868
3672.19856	0.161357
3670.26988	0.161680
3668.34121	0.162262
3666.41253	0.163001
3664.48385	0.163465
3662.55518	0.163668
3660.62650	0.163786
3658.69783	0.163826
3656.76915	0.163892
3654.84048	0.164066
3652.91180	0.163969
3650.98312	0.163498
3649.05445	0.163306
3647.12577	0.163828
3645.19710	0.164742
3643.26842	0.165544
3641.33975	0.166084
3639.41107	0.166426
3637.48239	0.166612
3635.55372	0.166726
3633.62504	0.166765
3631.69637	0.166537
3629.76769	0.166324
3627.83902	0.166806
3625.91034	0.167725
3623.98166	0.168244
3622.05299	0.168210
3620.12431	0.168065
3618.19564	0.168234
3616.26696	0.168573
3614.33829	0.168759
3612.40961	0.168849
3610.48093	0.168963
3608.55226	0.169235
3606.62358	0.169735
3604.69491	0.170208
3602.76623	0.170458
3600.83756	0.170612
3598.90888	0.170770
3596.98020	0.170887
3595.05153	0.171042
3593.12285	0.171302
3591.19418	0.171415
3589.26550	0.171304
3587.33683	0.171431
3585.40815	0.171987
3583.47947	0.172547
3581.55080	0.172858
3579.62212	0.173081
3577.69345	0.173350
3575.76477	0.173631
3573.83610	0.173873
3571.90742	0.173993
3569.97874	0.173861
3568.05007	0.173699
3566.12139	0.173935
3564.19272	0.174476
3562.26404	0.174932
3560.33537	0.175275
3558.40669	0.175594
3556.47801	0.175806
3554.54934	0.175899
3552.62066	0.176016
3550.69199	0.176204
3548.76331	0.176347
3546.83464	0.176447
3544.90596	0.176646
3542.97728	0.176963
3541.04861	0.177286
3539.11993	0.177505
3537.19126	0.177613
3535.26258	0.177697
3533.33391	0.177799
3531.40523	0.177887
3529.47655	0.177950
3527.54788	0.178012
3525.61920	0.178088
3523.69053	0.178198
3521.76185	0.178359
3519.83318	0.178544
3517.90450	0.178707
3515.97582	0.178837
3514.04715	0.178940
3512.11847	0.179004
3510.18980	0.179060
3508.26112	0.179164
3506.33245	0.179272
3504.40377	0.179329
3502.47509	0.179397
3500.54642	0.179489
3498.61774	0.179527
3496.68907	0.179554
3494.76039	0.179648
3492.83172	0.179745
3490.90304	0.179770
3488.97436	0.179763
3487.04569	0.179805
3485.11701	0.179891
3483.18834	0.179988
3481.25966	0.180133
3479.33099	0.180346
3477.40231	0.180571
3475.47363	0.180777
3473.54496	0.180998
3471.61628	0.181260
3469.68761	0.181541
3467.75893	0.181829
3465.83026	0.182125
3463.90158	0.182397
3461.97290	0.182656
3460.04423	0.182965
3458.11555	0.183322
3456.18688	0.183665
3454.25820	0.183964
3452.32953	0.184219
3450.40085	0.184424
3448.47217	0.184633
3446.54350	0.184927
3444.61482	0.185262
3442.68615	0.185575
3440.75747	0.185940
3438.82880	0.186415
3436.90012	0.186963
3434.97144	0.187543
3433.04277	0.188139
3431.11409	0.188747
3429.18542	0.189395
3427.25674	0.190084
3425.32807	0.190728
3423.39939	0.191278
3421.47071	0.191818
3419.54204	0.192410
3417.61336	0.192998
3415.68469	0.193517
3413.75601	0.193978
3411.82734	0.194411
3409.89866	0.194816
3407.96998	0.195225
3406.04131	0.195669
3404.11263	0.196095
3402.18396	0.196460
3400.25528	0.196788
3398.32661	0.197141
3396.39793	0.197558
3394.46925	0.198011
3392.54058	0.198460
3390.61190	0.198890
3388.68323	0.199288
3386.75455	0.199668
3384.82588	0.200048
3382.89720	0.200443
3380.96852	0.200878
3379.03985	0.201315
3377.11117	0.201706
3375.18250	0.202059
3373.25382	0.202383
3371.32515	0.202695
3369.39647	0.203029
3367.46779	0.203388
3365.53912	0.203760
3363.61044	0.204135
3361.68177	0.204513
3359.75309	0.204889
3357.82442	0.205263
3355.89574	0.205633
3353.96706	0.205989
3352.03839	0.206355
3350.10971	0.206747
3348.18104	0.207115
3346.25236	0.207440
3344.32369	0.207763
3342.39501	0.208097
3340.46633	0.208433
3338.53766	0.208785
3336.60898	0.209177
3334.68031	0.209596
3332.75163	0.209983
3330.82296	0.210312
3328.89428	0.210640
3326.96560	0.211022
3325.03693	0.211432
3323.10825	0.211827
3321.17958	0.212209
3319.25090	0.212596
3317.32223	0.212991
3315.39355	0.213394
3313.46487	0.213782
3311.53620	0.214134
3309.60752	0.214481
3307.67885	0.214873
3305.75017	0.215331
3303.82150	0.215810
3301.89282	0.216231
3299.96414	0.216603
3298.03547	0.216997
3296.10679	0.217409
3294.17812	0.217798
3292.24944	0.218173
3290.32077	0.218568
3288.39209	0.218975
3286.46341	0.219385
3284.53474	0.219793
3282.60606	0.220186
3280.67739	0.220570
3278.74871	0.220953
3276.82004	0.221355
3274.89136	0.221792
3272.96268	0.222243
3271.03401	0.222697
3269.10533	0.223143
3267.17666	0.223546
3265.24798	0.223916
3263.31931	0.224302
3261.39063	0.224724
3259.46195	0.225164
3257.53328	0.225600
3255.60460	0.226018
3253.67593	0.226404
3251.74725	0.226764
3249.81858	0.227143
3247.88990	0.227541
3245.96122	0.227942
3244.03255	0.228373
3242.10387	0.228817
3240.17520	0.229208
3238.24652	0.229557
3236.31785	0.229927
3234.38917	0.230342
3232.46049	0.230777
3230.53182	0.231193
3228.60314	0.231581
3226.67447	0.231987
3224.74579	0.232420
3222.81712	0.232852
3220.88844	0.233281
3218.95976	0.233703
3217.03109	0.234106
3215.10241	0.234505
3213.17374	0.234908
3211.24506	0.235278
3209.31639	0.235624
3207.38771	0.235996
3205.45903	0.236402
3203.53036	0.236848
3201.60168	0.237332
3199.67301	0.237789
3197.74433	0.238219
3195.81566	0.238665
3193.88698	0.239092
3191.95830	0.239497
3190.02963	0.239924
3188.10095	0.240382
3186.17228	0.240865
3184.24360	0.241337
3182.31493	0.241756
3180.38625	0.242148
3178.45757	0.242570
3176.52890	0.243032
3174.60022	0.243505
3172.67155	0.243947
3170.74287	0.244343
3168.81420	0.244720
3166.88552	0.245101
3164.95684	0.245505
3163.02817	0.245952
3161.09949	0.246427
3159.17082	0.246902
3157.24214	0.247338
3155.31347	0.247735
3153.38479	0.248147
3151.45611	0.248574
3149.52744	0.248999
3147.59876	0.249431
3145.67009	0.249847
3143.74141	0.250237
3141.81274	0.250658
3139.88406	0.251117
3137.95538	0.251561
3136.02671	0.251976
3134.09803	0.252369
3132.16936	0.252763
3130.24068	0.253188
3128.31201	0.253616
3126.38333	0.254034
3124.45465	0.254468
3122.52598	0.254902
3120.59730	0.255315
3118.66863	0.255722
3116.73995	0.256147
3114.81128	0.256600
3112.88260	0.257064
3110.95392	0.257524
3109.02525	0.257964
3107.09657	0.258375
3105.16790	0.258779
3103.23922	0.259184
3101.31055	0.259609
3099.38187	0.260065
3097.45319	0.260505
3095.52452	0.260929
3093.59584	0.261364
3091.66717	0.261762
3089.73849	0.262150
3087.80982	0.262617
3085.88114	0.263139
3083.95246	0.263615
3082.02379	0.264017
3080.09511	0.264394
3078.16644	0.264790
3076.23776	0.265200
3074.30909	0.265621
3072.38041	0.266072
3070.45173	0.266514
3068.52306	0.266904
3066.59438	0.267289
3064.66571	0.267710
3062.73703	0.268131
3060.80836	0.268527
3058.87968	0.268934
3056.95100	0.269395
3055.02233	0.269896
3053.09365	0.270381
3051.16498	0.270820
3049.23630	0.271224
3047.30763	0.271627
3045.37895	0.272034
3043.45027	0.272422
3041.52160	0.272822
3039.59292	0.273271
3037.66425	0.273731
3035.73557	0.274146
3033.80690	0.274515
3031.87822	0.274901
3029.94954	0.275339
3028.02087	0.275775
3026.09219	0.276192
3024.16352	0.276628
3022.23484	0.277083
3020.30617	0.277525
3018.37749	0.277925
3016.44881	0.278288
3014.52014	0.278672
3012.59146	0.279110
3010.66279	0.279577
3008.73411	0.280038
3006.80544	0.280458
3004.87676	0.280862
3002.94808	0.281298
3001.01941	0.281744
2999.09073	0.282170
2997.16206	0.282594
2995.23338	0.283038
2993.30471	0.283481
2991.37603	0.283860
2989.44735	0.284170
2987.51868	0.284476
2985.59000	0.284807
2983.66133	0.285107
2981.73265	0.285311
2979.80398	0.285427
2977.87530	0.285518
2975.94662	0.285618
2974.01795	0.285694
2972.08927	0.285689
2970.16060	0.285581
2968.23192	0.285460
2966.30325	0.285481
2964.37457	0.285653
2962.44589	0.285879
2960.51722	0.286175
2958.58854	0.286605
2956.65987	0.287138
2954.73119	0.287717
2952.80252	0.288298
2950.87384	0.288859
2948.94516	0.289385
2947.01649	0.289812
2945.08781	0.290092
2943.15914	0.290253
2941.23046	0.290343
2939.30179	0.290371
2937.37311	0.290336
2935.44443	0.290222
2933.51576	0.290010
2931.58708	0.289758
2929.65841	0.289547
2927.72973	0.289400
2925.80106	0.289294
2923.87238	0.289218
2921.94370	0.289219
2920.01503	0.289391
2918.08635	0.289878
2916.15768	0.290854
2914.22900	0.292313
2912.30033	0.293956
2910.37165	0.295442
2908.44297	0.296660
2906.51430	0.297669
2904.58562	0.298535
2902.65695	0.299300
2900.72827	0.300018
2898.79960	0.300712
2896.87092	0.301367
2894.94224	0.301986
2893.01357	0.302583
2891.08489	0.303178
2889.15622	0.303774
2887.22754	0.304361
2885.29887	0.304940
2883.37019	0.305465
2881.44151	0.305895
2879.51284	0.306269
2877.58416	0.306645
2875.65549	0.307033
2873.72681	0.307425
2871.79814	0.307831
2869.86946	0.308258
2867.94078	0.308679
2866.01211	0.309046
2864.08343	0.309334
2862.15476	0.309515
2860.22608	0.309559
2858.29741	0.309497
2856.36873	0.309372
2854.44005	0.309207
2852.51138	0.309089
2850.58270	0.309273
2848.65403	0.310118
2846.72535	0.311652
2844.79668	0.313400
2842.86800	0.314889
2840.93932	0.316008
2839.01065	0.316883
2837.08197	0.317677
2835.15330	0.318448
2833.22462	0.319142
2831.29595	0.319733
2829.36727	0.320275
2827.43859	0.320816
2825.50992	0.321356
2823.58124	0.321893
2821.65257	0.322429
2819.72389	0.322931
2817.79522	0.323402
2815.86654	0.323893
2813.93786	0.324424
2812.00919	0.324970
2810.08051	0.325489
2808.15184	0.325945
2806.22316	0.326373
2804.29449	0.326831
2802.36581	0.327332
2800.43713	0.327850
2798.50846	0.328359
2796.57978	0.328864
2794.65111	0.329365
2792.72243	0.329857
2790.79376	0.330358
2788.86508	0.330860
2786.93640	0.331345
2785.00773	0.331813
2783.07905	0.332267
2781.15038	0.332708
2779.22170	0.333174
2777.29303	0.333713
2775.36435	0.334293
2773.43567	0.334826
2771.50700	0.335294
2769.57832	0.335746
2767.64965	0.336207
2765.72097	0.336684
2763.79230	0.337188
2761.86362	0.337678
2759.93494	0.338118
2758.00627	0.338541
2756.07759	0.338997
2754.14892	0.339481
2752.22024	0.339959
2750.29157	0.340441
2748.36289	0.340918
2746.43421	0.341366
2744.50554	0.341817
2742.57686	0.342275
2740.64819	0.342711
2738.71951	0.343152
2736.79084	0.343631
2734.86216	0.344113
2732.93348	0.344578
2731.00481	0.345047
2729.07613	0.345512
2727.14746	0.345947
2725.21878	0.346367
2723.29011	0.346815
2721.36143	0.347296
2719.43275	0.347780
2717.50408	0.348243
2715.57540	0.348693
2713.64673	0.349123
2711.71805	0.349508
2709.78938	0.349894
2707.86070	0.350346
2705.93202	0.350830
2704.00335	0.351288
2702.07467	0.351728
2700.14600	0.352194
2698.21732	0.352689
2696.28865	0.353157
2694.35997	0.353579
2692.43129	0.353997
2690.50262	0.354428
2688.57394	0.354872
2686.64527	0.355318
2684.71659	0.355764
2682.78792	0.356224
2680.85924	0.356657
2678.93056	0.357019
2677.00189	0.357375
2675.07321	0.357808
2673.14454	0.358329
2671.21586	0.358879
2669.28719	0.359391
2667.35851	0.359866
2665.42983	0.360309
2663.50116	0.360717
2661.57248	0.361158
2659.64381	0.361672
2657.71513	0.362194
2655.78646	0.362662
2653.85778	0.363082
2651.92910	0.363523
2650.00043	0.364005
2648.07175	0.364477
2646.14308	0.364960
2644.21440	0.365477
2642.28573	0.365982
2640.35705	0.366459
2638.42837	0.366932
2636.49970	0.367415
2634.57102	0.367915
2632.64235	0.368431
2630.71367	0.368950
2628.78500	0.369469
2626.85632	0.369979
2624.92764	0.370463
2622.99897	0.370958
2621.07029	0.371500
2619.14162	0.372048
2617.21294	0.372582
2615.28427	0.373118
2613.35559	0.373636
2611.42691	0.374121
2609.49824	0.374609
2607.56956	0.375131
2605.64089	0.375678
2603.71221	0.376225
2601.78354	0.376738
2599.85486	0.377192
2597.92618	0.377640
2595.99751	0.378161
2594.06883	0.378718
2592.14016	0.379217
2590.21148	0.379672
2588.28281	0.380163
2586.35413	0.380683
2584.42545	0.381178
2582.49678	0.381634
2580.56810	0.382072
2578.63943	0.382546
2576.71075	0.383057
2574.78208	0.383533
2572.85340	0.384001
2570.92472	0.384520
2568.99605	0.385040
2567.06737	0.385545
2565.13870	0.386040
2563.21002	0.386464
2561.28135	0.386833
2559.35267	0.387241
2557.42399	0.387700
2555.49532	0.388155
2553.56664	0.388614
2551.63797	0.389101
2549.70929	0.389558
2547.78062	0.389966
2545.85194	0.390399
2543.92326	0.390866
2541.99459	0.391315
2540.06591	0.391749
2538.13724	0.392195
2536.20856	0.392662
2534.27989	0.393155
2532.35121	0.393656
2530.42253	0.394127
2528.49386	0.394557
2526.56518	0.394992
2524.63651	0.395477
2522.70783	0.395981
2520.77916	0.396464
2518.85048	0.396944
2516.92181	0.397457
2514.99313	0.397993
2513.06445	0.398510
2511.13578	0.399033
2509.20710	0.399594
2507.27843	0.400161
2505.34975	0.400676
2503.42108	0.401165
2501.49240	0.401715
2499.56372	0.402314
2497.63505	0.402879
2495.70637	0.403413
2493.77770	0.403977
2491.84902	0.404571
2489.92035	0.405139
2487.99167	0.405666
2486.06299	0.406188
2484.13432	0.406728
2482.20564	0.407293
2480.27697	0.407866
2478.34829	0.408400
2476.41962	0.408898
2474.49094	0.409447
2472.56226	0.410043
2470.63359	0.410577
2468.70491	0.411048
2466.77624	0.411515
2464.84756	0.411979
2462.91889	0.412475
2460.99021	0.413021
2459.06153	0.413551
2457.13286	0.414041
2455.20418	0.414534
2453.27551	0.415033
2451.34683	0.415517
2449.41816	0.416021
2447.48948	0.416559
2445.56080	0.417081
2443.63213	0.417576
2441.70345	0.418081
2439.77478	0.418594
2437.84610	0.419114
2435.91743	0.419663
2433.98875	0.420214
2432.06007	0.420728
2430.13140	0.421207
2428.20272	0.421680
2426.27405	0.422176
2424.34537	0.422732
2422.41670	0.423326
2420.48802	0.423881
2418.55934	0.424362
2416.63067	0.424810
2414.70199	0.425285
2412.77332	0.425784
2410.84464	0.426288
2408.91597	0.426814
2406.98729	0.427350
2405.05861	0.427848
2403.12994	0.428307
2401.20126	0.428772
2399.27259	0.429281
2397.34391	0.429811
2395.41524	0.430310
2393.48656	0.430792
2391.55788	0.431292
2389.62921	0.431769
2387.70053	0.432205
2385.77186	0.432609
2383.84318	0.432934
2381.91451	0.433133
2379.98583	0.433210
2378.05715	0.433223
2376.12848	0.433243
2374.19980	0.433270
2372.27113	0.433287
2370.34245	0.433364
2368.41378	0.433549
2366.48510	0.433828
2364.55642	0.434170
2362.62775	0.434534
2360.69907	0.434961
2358.77040	0.435555
2356.84172	0.436310
2354.91305	0.437150
2352.98437	0.438122
2351.05569	0.439193
2349.12702	0.439960
2347.19834	0.440160
2345.26967	0.440144
2343.34099	0.440349
2341.41232	0.440825
2339.48364	0.441401
2337.55496	0.441932
2335.62629	0.442414
2333.69761	0.442914
2331.76894	0.443444
2329.84026	0.443987
2327.91159	0.444565
2325.98291	0.445185
2324.05423	0.445829
2322.12556	0.446521
2320.19688	0.447252
2318.26821	0.447940
2316.33953	0.448591
2314.41086	0.449296
2312.48218	0.450047
2310.55350	0.450783
2308.62483	0.451499
2306.69615	0.452192
2304.76748	0.452846
2302.83880	0.453476
2300.91013	0.454099
2298.98145	0.454694
2297.05277	0.455225
2295.12410	0.455727
2293.19542	0.456272
2291.26675	0.456874
2289.33807	0.457462
2287.40940	0.457977
2285.48072	0.458464
2283.55204	0.458968
2281.62337	0.459478
2279.69469	0.459991
2277.76602	0.460489
2275.83734	0.460931
2273.90867	0.461345
2271.97999	0.461818
2270.05131	0.462371
2268.12264	0.462903
2266.19396	0.463345
2264.26529	0.463792
2262.33661	0.464337
2260.40794	0.464922
2258.47926	0.465440
2256.55058	0.465891
2254.62191	0.466360
2252.69323	0.466876
2250.76456	0.467400
2248.83588	0.467899
2246.90721	0.468387
2244.97853	0.468912
2243.04985	0.469429
2241.12118	0.469846
2239.19250	0.470214
2237.26383	0.470656
2235.33515	0.471193
2233.40648	0.471759
2231.47780	0.472315
2229.54912	0.472855
2227.62045	0.473361
2225.69177	0.473825
2223.76310	0.474285
2221.83442	0.474758
2219.90575	0.475200
2217.97707	0.475624
2216.04839	0.476092
2214.11972	0.476604
2212.19104	0.477126
2210.26237	0.477592
2208.33369	0.477985
2206.40502	0.478393
2204.47634	0.478846
2202.54766	0.479309
2200.61899	0.479784
2198.69031	0.480267
2196.76164	0.480716
2194.83296	0.481138
2192.90429	0.481612
2190.97561	0.482146
2189.04693	0.482670
2187.11826	0.483163
2185.18958	0.483599
2183.26091	0.483981
2181.33223	0.484428
2179.40356	0.484986
2177.47488	0.485574
2175.54620	0.486103
2173.61753	0.486524
2171.68885	0.486916
2169.76018	0.487427
2167.83150	0.488011
2165.90283	0.488491
2163.97415	0.488880
2162.04547	0.489345
2160.11680	0.489901
2158.18812	0.490443
2156.25945	0.490920
2154.33077	0.491370
2152.40210	0.491846
2150.47342	0.492329
2148.54474	0.492770
2146.61607	0.493214
2144.68739	0.493701
2142.75872	0.494179
2140.83004	0.494658
2138.90137	0.495204
2136.97269	0.495766
2135.04401	0.496240
2133.11534	0.496654
2131.18666	0.497110
2129.25799	0.497630
2127.32931	0.498165
2125.40064	0.498665
2123.47196	0.499113
2121.54328	0.499573
2119.61461	0.500078
2117.68593	0.500555
2115.75726	0.500980
2113.82858	0.501409
2111.89991	0.501869
2109.97123	0.502378
2108.04255	0.502925
2106.11388	0.503428
2104.18520	0.503868
2102.25653	0.504345
2100.32785	0.504879
2098.39918	0.505387
2096.47050	0.505866
2094.54182	0.506352
2092.61315	0.506813
2090.68447	0.507249
2088.75580	0.507710
2086.82712	0.508215
2084.89845	0.508747
2082.96977	0.509281
2081.04109	0.509792
2079.11242	0.510255
2077.18374	0.510674
2075.25507	0.511077
2073.32639	0.511471
2071.39772	0.511882
2069.46904	0.512355
2067.54036	0.512864
2065.61169	0.513340
2063.68301	0.513804
2061.75434	0.514288
2059.82566	0.514764
2057.89699	0.515232
2055.96831	0.515723
2054.03963	0.516216
2052.11096	0.516654
2050.18228	0.517041
2048.25361	0.517474
2046.32493	0.518012
2044.39626	0.518551
2042.46758	0.519017
2040.53890	0.519483
2038.61023	0.519982
2036.68155	0.520475
2034.75288	0.520966
2032.82420	0.521447
2030.89553	0.521889
2028.96685	0.522307
2027.03817	0.522737
2025.10950	0.523204
2023.18082	0.523701
2021.25215	0.524161
2019.32347	0.524517
2017.39480	0.524909
2015.46612	0.525493
2013.53744	0.526152
2011.60877	0.526722
2009.68009	0.527199
2007.75142	0.527635
2005.82274	0.528084
2003.89407	0.528580
2001.96539	0.529082
2000.03671	0.529517
1998.10804	0.529901
1996.17936	0.530286
1994.25069	0.530632
1992.32201	0.530979
1990.39334	0.531458
1988.46466	0.532022
1986.53598	0.532536
1984.60731	0.532960
1982.67863	0.533341
1980.74996	0.533764
1978.82128	0.534230
1976.89261	0.534654
1974.96393	0.535007
1973.03525	0.535357
1971.10658	0.535713
1969.17790	0.536023
1967.24923	0.536373
1965.32055	0.536866
1963.39188	0.537397
1961.46320	0.537856
1959.53452	0.538315
1957.60585	0.538820
1955.67717	0.539326
1953.74850	0.539823
1951.81982	0.540300
1949.89115	0.540713
1947.96247	0.541051
1946.03379	0.541281
1944.10512	0.541456
1942.17644	0.541912
1940.24777	0.542733
1938.31909	0.543479
1936.39042	0.543951
1934.46174	0.544350
1932.53306	0.544775
1930.60439	0.545197
1928.67571	0.545651
1926.74704	0.546113
1924.81836	0.546463
1922.88969	0.546799
1920.96101	0.547110
1919.03233	0.547303
1917.10366	0.547815
1915.17498	0.548737
1913.24631	0.549430
1911.31763	0.549722
1909.38896	0.549996
1907.46028	0.550460
1905.53160	0.551018
1903.60293	0.551555
1901.67425	0.552088
1899.74558	0.552612
1897.81690	0.552994
1895.88823	0.553232
1893.95955	0.553532
1892.03087	0.553843
1890.10220	0.554121
1888.17352	0.554624
1886.24485	0.555283
1884.31617	0.555832
1882.38750	0.556275
1880.45882	0.556684
1878.53014	0.557147
1876.60147	0.557686
1874.67279	0.558175
1872.74412	0.558348
1870.81544	0.558105
1868.88677	0.558076
1866.95809	0.558914
1865.02941	0.560140
1863.10074	0.560971
1861.17206	0.561415
1859.24339	0.561836
1857.31471	0.562399
1855.38604	0.563005
1853.45736	0.563493
1851.52868	0.563853
1849.60001	0.564131
1847.67133	0.564075
1845.74266	0.563662
1843.81398	0.563891
1841.88531	0.565150
1839.95663	0.566335
1838.02795	0.566946
1836.09928	0.567456
1834.17060	0.567908
1832.24193	0.567923
1830.31325	0.567804
1828.38458	0.568120
1826.45590	0.568640
1824.52722	0.569298
1822.59855	0.570248
1820.66987	0.571044
1818.74120	0.571509
1816.81252	0.571935
1814.88385	0.572307
1812.95517	0.572441
1811.02649	0.572580
1809.09782	0.573070
1807.16914	0.573729
1805.24047	0.574057
1803.31179	0.573913
1801.38312	0.573868
1799.45444	0.574410
1797.52576	0.575129
1795.59709	0.575289
1793.66841	0.574946
1791.73974	0.575122
1789.81106	0.576165
1787.88239	0.577027
1785.95371	0.577219
1784.02503	0.577366
1782.09636	0.577700
1780.16768	0.578145
1778.23901	0.578688
1776.31033	0.578868
1774.38166	0.578406
1772.45298	0.577986
1770.52430	0.578223
1768.59563	0.578970
1766.66695	0.579990
1764.73828	0.580637
1762.80960	0.580580
1760.88093	0.580632
1758.95225	0.580919
1757.02357	0.581111
1755.09490	0.581146
1753.16622	0.580468
1751.23755	0.579491
1749.30887	0.579451
1747.38020	0.580136
1745.45152	0.580560
1743.52284	0.580554
1741.59417	0.580452
1739.66549	0.580572
1737.73682	0.580515
1735.80814	0.579666
1733.87947	0.579346
1731.95079	0.580686
1730.02211	0.582411
1728.09344	0.583612
1726.16476	0.584356
1724.23609	0.584790
1722.30741	0.584933
1720.37874	0.584276
1718.45006	0.583335
1716.52138	0.583502
1714.59271	0.584821
1712.66403	0.586252
1710.73536	0.587080
1708.80668	0.587078
1706.87801	0.586609
1704.94933	0.586220
1703.02065	0.585312
1701.09198	0.584045
1699.16330	0.584048
1697.23463	0.584958
1695.30595	0.585952
1693.37728	0.587210
1691.44860	0.587825
1689.51992	0.587573
1687.59125	0.586793
1685.66257	0.585470
1683.73390	0.585028
1681.80522	0.586194
1679.87655	0.587435
1677.94787	0.587516
1676.01919	0.587008
1674.09052	0.586928
1672.16184	0.586847
1670.23317	0.586580
1668.30449	0.587272
1666.37582	0.588494
1664.44714	0.588827
1662.51846	0.588862
1660.58979	0.589481
1658.66111	0.589856
1656.73244	0.588607
1654.80376	0.586050
1652.87509	0.585088
1650.94641	0.586587
1649.01773	0.587594
1647.08906	0.587608
1645.16038	0.588565
1643.23171	0.590018
1641.30303	0.590643
1639.37436	0.590173
1637.44568	0.589041
1635.51700	0.588750
1633.58833	0.590064
1631.65965	0.591343
1629.73098	0.591339
1627.80230	0.590759
1625.87363	0.589925
1623.94495	0.588655
1622.01627	0.587703
1620.08760	0.587522
1618.15892	0.588045
1616.23025	0.589782
1614.30157	0.592334
1612.37290	0.594205
1610.44422	0.595111
1608.51554	0.595835
1606.58687	0.596697
1604.65819	0.597500
1602.72952	0.598168
1600.80084	0.598812
1598.87217	0.599376
1596.94349	0.599741
1595.01481	0.600055
1593.08614	0.600521
1591.15746	0.601076
1589.22879	0.601631
1587.30011	0.602190
1585.37144	0.602718
1583.44276	0.603189
1581.51408	0.603530
1579.58541	0.603389
1577.65673	0.602809
1575.72806	0.602962
1573.79938	0.604026
1571.87071	0.604457
1569.94203	0.604333
1568.01335	0.604927
1566.08468	0.605907
1564.15600	0.606340
1562.22733	0.605359
1560.29865	0.603200
1558.36998	0.602490
1556.44130	0.604306
1554.51262	0.606546
1552.58395	0.607792
1550.65527	0.608362
1548.72660	0.608743
1546.79792	0.608622
1544.86925	0.607691
1542.94057	0.606562
1541.01189	0.606137
1539.08322	0.607209
1537.15454	0.609011
1535.22587	0.609779
1533.29719	0.609988
1531.36852	0.610773
1529.43984	0.611306
1527.51116	0.611110
1525.58249	0.610745
1523.65381	0.609937
1521.72514	0.609148
1519.79646	0.609605
1517.86779	0.610769
1515.93911	0.611769
1514.01043	0.612509
1512.08176	0.612597
1510.15308	0.611741
1508.22441	0.610703
1506.29573	0.611271
1504.36706	0.613586
1502.43838	0.615263
1500.50970	0.615188
1498.58103	0.614652
1496.65235	0.614988
1494.72368	0.615954
1492.79500	0.616073
1490.86633	0.615205
1488.93765	0.614959
1487.00897	0.615892
1485.08030	0.616970
1483.15162	0.617389
1481.22295	0.617335
1479.29427	0.616990
1477.36560	0.616131
1475.43692	0.614921
1473.50824	0.613976
1471.57957	0.613995
1469.65089	0.614705
1467.72222	0.614815
1465.79354	0.614401
1463.86487	0.614620
1461.93619	0.614946
1460.00751	0.613843
1458.07884	0.612133
1456.15016	0.612378
1454.22149	0.614510
1452.29281	0.616284
1450.36414	0.616907
1448.43546	0.617072
1446.50678	0.617583
1444.57811	0.618459
1442.64943	0.619115
1440.72076	0.619051
1438.79208	0.618012
1436.86341	0.617175
1434.93473	0.617865
1433.00605	0.618976
1431.07738	0.619276
1429.14870	0.619376
1427.22003	0.619564
1425.29135	0.619428
1423.36268	0.618969
1421.43400	0.617994
1419.50532	0.616920
1417.57665	0.617078
1415.64797	0.618211
1413.71930	0.618939
1411.79062	0.619064
1409.86195	0.619084
1407.93327	0.619025
1406.00459	0.618817
1404.07592	0.618784
1402.14724	0.618728
1400.21857	0.618232
1398.28989	0.617632
1396.36122	0.617274
1394.43254	0.617462
1392.50386	0.618141
1390.57519	0.618143
1388.64651	0.617042
1386.71784	0.616063
1384.78916	0.615943
1382.86049	0.616233
1380.93181	0.616502
1379.00313	0.616617
1377.07446	0.616436
1375.14578	0.616133
1373.21711	0.616216
1371.28843	0.616588
1369.35976	0.616799
1367.43108	0.616838
1365.50240	0.616515
1363.57373	0.615951
1361.64505	0.615940
1359.71638	0.616483
1357.78770	0.616882
1355.85903	0.617002
1353.93035	0.617129
1352.00167	0.617368
1350.07300	0.617682
1348.14432	0.618072
1346.21565	0.618512
1344.28697	0.618759
1342.35830	0.618515
1340.42962	0.618024
1338.50094	0.617905
1336.57227	0.618244
1334.64359	0.618617
1332.71492	0.618795
1330.78624	0.618825
1328.85757	0.618751
1326.92889	0.618623
1325.00021	0.618490
1323.07154	0.618244
1321.14286	0.617825
1319.21419	0.617417
1317.28551	0.617156
1315.35684	0.616942
1313.42816	0.616642
1311.49948	0.616228
1309.57081	0.615747
1307.64213	0.615228
1305.71346	0.614646
1303.78478	0.613991
1301.85611	0.613341
1299.92743	0.612739
1297.99875	0.612120
1296.07008	0.611472
1294.14140	0.610847
1292.21273	0.610202
1290.28405	0.609401
1288.35538	0.608441
1286.42670	0.607449
1284.49802	0.606461
1282.56935	0.605468
1280.64067	0.604425
1278.71200	0.603193
1276.78332	0.601704
1274.85465	0.599975
1272.92597	0.597963
1270.99729	0.595551
1269.06862	0.592651
1267.13994	0.589439
1265.21127	0.586486
1263.28259	0.584323
1261.35392	0.583082
1259.42524	0.582610
1257.49656	0.582573
1255.56789	0.582495
1253.63921	0.581986
1251.71054	0.581018
1249.78186	0.579782
1247.85319	0.578368
1245.92451	0.576772
1243.99583	0.574986
1242.06716	0.573061
1240.13848	0.571093
1238.20981	0.569147
1236.28113	0.567192
1234.35246	0.565133
1232.42378	0.563050
1230.49510	0.561152
1228.56643	0.559467
1226.63775	0.557857
1224.70908	0.556181
1222.78040	0.554436
1220.85173	0.552706
1218.92305	0.551000
1216.99437	0.549300
1215.06570	0.547579
1213.13702	0.545833
1211.20835	0.544118
1209.27967	0.542437
1207.35100	0.540792
1205.42232	0.539145
1203.49364	0.537452
1201.56497	0.535792
1199.63629	0.534217
1197.70762	0.532699
1195.77894	0.531181
1193.85027	0.529549
1191.92159	0.527747
1189.99291	0.525822
1188.06424	0.523804
1186.13556	0.521691
1184.20689	0.519479
1182.27821	0.517212
1180.34954	0.514982
1178.42086	0.512732
1176.49218	0.510286
1174.56351	0.507657
1172.63483	0.505040
1170.70616	0.502523
1168.77748	0.500035
1166.84881	0.497526
1164.92013	0.495034
1162.99145	0.492596
1161.06278	0.490234
1159.13410	0.487976
1157.20543	0.485811
1155.27675	0.483653
1153.34808	0.481523
1151.41940	0.479585
1149.49072	0.477786
1147.56205	0.475904
1145.63337	0.473987
1143.70470	0.472132
1141.77602	0.470239
1139.84735	0.468302
1137.91867	0.466455
1135.98999	0.464649
1134.06132	0.462681
1132.13264	0.460507
1130.20397	0.458309
1128.27529	0.456215
1126.34662	0.454155
1124.41794	0.452007
1122.48926	0.449683
1120.56059	0.447173
1118.63191	0.444600
1116.70324	0.442066
1114.77456	0.439574
1112.84589	0.437107
1110.91721	0.434679
1108.98853	0.432289
1107.05986	0.429888
1105.13118	0.427547
1103.20251	0.425357
1101.27383	0.423204
1099.34516	0.421014
1097.41648	0.418872
1095.48780	0.416827
1093.55913	0.414879
1091.63045	0.413059
1089.70178	0.411348
1087.77310	0.409684
1085.84443	0.408060
1083.91575	0.406479
1081.98707	0.404896
1080.05840	0.403315
1078.12972	0.401880
1076.20105	0.400646
1074.27237	0.399593
1072.34370	0.398801
1070.41502	0.398224
1068.48634	0.397800
1066.55767	0.397650
1064.62899	0.397754
1062.70032	0.397941
1060.77164	0.398186
1058.84297	0.398552
1056.91429	0.399089
1054.98561	0.399761
1053.05694	0.400456
1051.12826	0.401228
1049.19959	0.402183
1047.27091	0.403246
1045.34224	0.404286
1043.41356	0.405316
1041.48488	0.406446
1039.55621	0.407682
1037.62753	0.408973
1035.69886	0.410296
1033.77018	0.411560
1031.84151	0.412735
1029.91283	0.413903
1027.98415	0.415132
1026.05548	0.416479
1024.12680	0.417951
1022.19813	0.419529
1020.26945	0.421201
1018.34078	0.422956
1016.41210	0.424819
1014.48342	0.426844
1012.55475	0.429040
1010.62607	0.431376
1008.69740	0.433779
1006.76872	0.436158
1004.84005	0.438430
1002.91137	0.440504
1000.98269	0.442388
999.05402	0.444138
997.12534	0.445700
995.19667	0.447061
993.26799	0.448394
991.33932	0.449765
989.41064	0.451026
987.48196	0.452210
985.55329	0.453460
983.62461	0.454636
981.69594	0.455538
979.76726	0.456195
977.83859	0.456677
975.90991	0.456951
973.98123	0.456999
972.05256	0.456956
970.12388	0.456998
968.19521	0.457093
966.26653	0.457038
964.33786	0.456724
962.40918	0.456230
960.48050	0.455703
958.55183	0.455198
956.62315	0.454590
954.69448	0.453751
952.76580	0.452776
950.83713	0.451834
948.90845	0.450961
946.97977	0.450045
945.05110	0.448958
943.12242	0.447720
941.19375	0.446395
939.26507	0.445011
937.33640	0.443648
935.40772	0.442311
933.47904	0.440922
931.55037	0.439472
929.62169	0.437943
927.69302	0.436326
925.76434	0.434719
923.83567	0.433229
921.90699	0.431826
919.97831	0.430355
918.04964	0.428716
916.12096	0.426976
914.19229	0.425285
912.26361	0.423702
910.33494	0.422148
908.40626	0.420596
906.47758	0.419001
904.54891	0.417264
902.62023	0.415506
900.69156	0.413885
898.76288	0.412266
896.83421	0.410496
894.90553	0.408677
892.97685	0.406941
891.04818	0.405300
889.11950	0.403731
887.19083	0.402181
885.26215	0.400609
883.33348	0.399050
881.40480	0.397595
879.47612	0.396250
877.54745	0.394850
875.61877	0.393349
873.69010	0.391891
871.76142	0.390531
869.83275	0.389216
867.90407	0.387894
865.97539	0.386517
864.04672	0.385079
862.11804	0.383598
860.18937	0.382046
858.26069	0.380483
856.33202	0.379044
854.40334	0.377713
852.47466	0.376406
850.54599	0.375086
848.61731	0.373733
846.68864	0.372386
844.75996	0.371107
842.83129	0.369898
840.90261	0.368665
838.97394	0.367367
837.04526	0.366067
835.11658	0.364775
833.18791	0.363442
831.25923	0.361976
829.33056	0.360364
827.40188	0.358747
825.47321	0.357156
823.54453	0.355608
821.61585	0.354261
819.68718	0.353004
817.75850	0.351630
815.82983	0.350253
813.90115	0.348954
811.97248	0.347620
810.04380	0.346150
808.11512	0.344567
806.18645	0.343111
804.25777	0.342010
802.32910	0.341158
800.40042	0.340364
798.47175	0.339646
796.54307	0.339031
794.61439	0.338536
792.68572	0.338263
790.75704	0.338157
788.82837	0.338037
786.89969	0.337786
784.97102	0.337347
783.04234	0.336736
781.11366	0.336065
779.18499	0.335538
777.25631	0.335177
775.32764	0.334758
773.39896	0.334225
771.47029	0.333709
769.54161	0.333206
767.61293	0.332548
765.68426	0.331615
763.75558	0.330536
761.82691	0.329478
759.89823	0.328408
757.96956	0.327308
756.04088	0.326257
754.11220	0.325201
752.18353	0.323995
750.25485	0.322702
748.32618	0.321472
746.39750	0.320295
744.46883	0.319154
742.54015	0.318014
740.61147	0.316823
738.68280	0.315658
736.75412	0.314568
734.82545	0.313533
732.89677	0.312569
730.96810	0.311607
729.03942	0.310546
727.11074	0.309455
725.18207	0.308389
723.25339	0.307225
721.32472	0.306010
719.39604	0.304947
717.46737	0.303937
715.53869	0.302760
713.61001	0.301516
711.68134	0.300381
709.75266	0.299305
707.82399	0.298215
705.89531	0.297129
703.96664	0.296090
702.03796	0.295096
700.10928	0.294028
698.18061	0.292827
696.25193	0.291607
694.32326	0.290401
692.39458	0.289147
690.46591	0.287924
688.53723	0.286810
686.60855	0.285721
684.67988	0.284530
682.75120	0.283207
680.82253	0.281799
678.89385	0.280313
676.96518	0.278685
675.03650	0.276846
673.10782	0.274795
671.17915	0.272374
669.25047	0.269628
667.32180	0.267449
665.39312	0.266018
663.46445	0.264241
661.53577	0.261840
659.60709	0.259383
657.67842	0.257083
655.74974	0.254929
653.82107	0.252813
651.89239	0.250581
649.96372	0.248289
648.03504	0.246074
646.10636	0.243871
644.17769	0.241484
642.24901	0.238787
640.32034	0.235838
638.39166	0.232818
636.46299	0.229797
634.53431	0.226828
632.60563	0.224011
630.67696	0.221256
628.74828	0.218366
626.81961	0.215318
624.89093	0.212245
622.96226	0.209265
621.03358	0.206447
619.10490	0.203809
617.17623	0.201235
615.24755	0.198435
613.31888	0.195311
611.39020	0.192195
609.46153	0.189333
607.53285	0.186576
605.60417	0.183767
603.67550	0.180963
601.74682	0.178314
599.81815	0.175960
597.88947	0.173871
595.96080	0.171836
594.03212	0.169785
592.10344	0.167876
590.17477	0.166167
588.24609	0.164454
586.31742	0.162624
584.38874	0.160777
582.46007	0.158990
580.53139	0.157307
578.60271	0.155626
576.67404	0.153812
574.74536	0.151964
572.81669	0.150129
570.88801	0.148282
568.95934	0.146617
567.03066	0.145290
565.10198	0.144069
563.17331	0.142730
561.24463	0.141393
559.31596	0.140084
557.38728	0.138675
555.45861	0.137376
553.52993	0.136354
551.60125	0.135285
549.67258	0.134027
547.74390	0.132884
545.81523	0.131951
543.88655	0.131047
541.95788	0.130031
540.02920	0.128920
538.10052	0.127886
536.17185	0.127000
534.24317	0.126135
532.31450	0.125156
530.38582	0.123979
528.45715	0.122639
526.52847	0.121324
524.59979	0.120115
522.67112	0.118834
520.74244	0.117409
518.81377	0.115977
516.88509	0.114548
514.95642	0.113096
513.02774	0.111749
511.09906	0.110604
509.17039	0.109470
507.24171	0.108098
505.31304	0.106512
503.38436	0.104800
501.45569	0.103053
499.52701	0.101307
497.59833	0.099478
495.66966	0.097549
493.74098	0.095505
491.81231	0.093411
489.88363	0.091428
487.95496	0.089619
486.02628	0.087949
484.09760	0.086138
482.16893	0.083989
480.24025	0.081776
478.31158	0.079805
476.38290	0.078081
474.45423	0.076402
472.52555	0.074719
470.59687	0.073187
468.66820	0.071822
466.73952	0.070622
464.81085	0.069677
462.88217	0.069019
460.95350	0.068536
459.02482	0.068060
457.09614	0.067638
455.16747	0.067472
453.23879	0.067576
451.31012	0.067688
449.38144	0.067535
447.45277	0.067163
445.52409	0.066775
443.59541	0.066254
441.66674	0.065394
439.73806	0.064252
437.80939	0.062937
435.88071	0.061582
433.95204	0.060345
432.02336	0.059191
430.09468	0.057858
428.16601	0.056086
426.23733	0.053923
424.30866	0.051678
422.37998	0.049510
420.45131	0.047401
418.52263	0.045440
416.59395	0.043611
414.66528	0.041740
412.73660	0.039852
410.80793	0.038044
408.87925	0.036285
406.95058	0.034397
405.02190	0.032243
403.09322	0.030120
401.16455	0.028415
399.23587	0.027046
397.30720	0.025662
395.37852	0.024097
393.44985	0.022375
391.52117	0.020618
389.59249	0.019077
387.66382	0.017865
385.73514	0.016845
383.80647	0.015876
381.87779	0.014737
379.94912	0.013270
378.02044	0.011788
376.09176	0.010701
374.16309	0.009997
372.23441	0.009288
370.30574	0.008326
368.37706	0.007357
