7496.76250	0.003066
7494.83382	0.003076
7492.90514	0.003091
7490.97647	0.003104
7489.04779	0.003126
7487.11912	0.003150
7485.19044	0.003159
7483.26177	0.003152
7481.33309	0.003152
7479.40441	0.003176
7477.47574	0.003208
7475.54706	0.003226
7473.61839	0.003216
7471.68971	0.003186
7469.76104	0.003162
7467.83236	0.003156
7465.90368	0.003166
7463.97501	0.003177
7462.04633	0.003182
7460.11766	0.003193
7458.18898	0.003221
7456.26031	0.003256
7454.33163	0.003276
7452.40295	0.003273
7450.47428	0.003263
7448.54560	0.003263
7446.61693	0.003269
7444.68825	0.003288
7442.75958	0.003321
7440.83090	0.003334
7438.90222	0.003319
7436.97355	0.003312
7435.04487	0.003332
7433.11620	0.003361
7431.18752	0.003379
7429.25885	0.003373
7427.33017	0.003359
7425.40149	0.003369
7423.47282	0.003392
7421.54414	0.003398
7419.61547	0.003392
7417.68679	0.003391
7415.75812	0.003404
7413.82944	0.003431
7411.90076	0.003452
7409.97209	0.003449
7408.04341	0.003440
7406.11474	0.003444
7404.18606	0.003456
7402.25739	0.003470
7400.32871	0.003478
7398.40003	0.003468
7396.47136	0.003452
7394.54268	0.003459
7392.61401	0.003489
7390.68533	0.003512
7388.75666	0.003527
7386.82798	0.003547
7384.89930	0.003553
7382.97063	0.003539
7381.04195	0.003536
7379.11328	0.003553
7377.18460	0.003576
7375.25593	0.003607
7373.32725	0.003628
7371.39857	0.003615
7369.46990	0.003598
7367.54122	0.003618
7365.61255	0.003656
7363.68387	0.003674
7361.75520	0.003673
7359.82652	0.003675
7357.89784	0.003694
7355.96917	0.003709
7354.04049	0.003708
7352.11182	0.003713
7350.18314	0.003722
7348.25447	0.003725
7346.32579	0.003733
7344.39711	0.003734
7342.46844	0.003722
7340.53976	0.003723
7338.61109	0.003744
7336.68241	0.003769
7334.75374	0.003786
7332.82506	0.003795
7330.89638	0.003807
7328.96771	0.003825
7327.03903	0.003838
7325.11036	0.003841
7323.18168	0.003835
7321.25301	0.003834
7319.32433	0.003844
7317.39565	0.003852
7315.46698	0.003866
7313.53830	0.003893
7311.60963	0.003912
7309.68095	0.003913
7307.75228	0.003907
7305.82360	0.003906
7303.89492	0.003910
7301.96625	0.003923
7300.03757	0.003943
7298.10890	0.003940
7296.18022	0.003923
7294.25155	0.003934
7292.32287	0.003969
7290.39419	0.003997
7288.46552	0.004005
7286.53684	0.004008
7284.60817	0.004024
7282.67949	0.004042
7280.75082	0.004041
7278.82214	0.004035
7276.89346	0.004043
7274.96479	0.004062
7273.03611	0.004080
7271.10744	0.004099
7269.17876	0.004121
7267.25009	0.004131
7265.32141	0.004125
7263.39273	0.004127
7261.46406	0.004143
7259.53538	0.004163
7257.60671	0.004180
7255.67803	0.004184
7253.74936	0.004168
7251.82068	0.004159
7249.89200	0.004171
7247.96333	0.004189
7246.03465	0.004197
7244.10598	0.004195
7242.17730	0.004191
7240.24863	0.004205
7238.31995	0.004236
7236.39127	0.004260
7234.46260	0.004272
7232.53392	0.004284
7230.60525	0.004287
7228.67657	0.004272
7226.74790	0.004263
7224.81922	0.004286
7222.89054	0.004323
7220.96187	0.004342
7219.03319	0.004345
7217.10452	0.004348
7215.17584	0.004346
7213.24717	0.004342
7211.31849	0.004352
7209.38981	0.004372
7207.46114	0.004391
7205.53246	0.004405
7203.60379	0.004411
7201.67511	0.004425
7199.74644	0.004446
7197.81776	0.004459
7195.88908	0.004466
7193.96041	0.004479
7192.03173	0.004494
7190.10306	0.004499
7188.17438	0.004501
7186.24571	0.004518
7184.31703	0.004534
7182.38835	0.004530
7180.45968	0.004520
7178.53100	0.004526
7176.60233	0.004541
7174.67365	0.004540
7172.74498	0.004536
7170.81630	0.004549
7168.88762	0.004566
7166.95895	0.004572
7165.03027	0.004578
7163.10160	0.004602
7161.17292	0.004639
7159.24425	0.004662
7157.31557	0.004667
7155.38689	0.004671
7153.45822	0.004687
7151.52954	0.004704
7149.60087	0.004703
7147.67219	0.004696
7145.74352	0.004700
7143.81484	0.004706
7141.88616	0.004716
7139.95749	0.004746
7138.02881	0.004785
7136.10014	0.004804
7134.17146	0.004805
7132.24279	0.004805
7130.31411	0.004807
7128.38543	0.004812
7126.45676	0.004820
7124.52808	0.004825
7122.59941	0.004827
7120.67073	0.004838
7118.74206	0.004866
7116.81338	0.004894
7114.88470	0.004902
7112.95603	0.004892
7111.02735	0.004883
7109.09868	0.004891
7107.17000	0.004915
7105.24133	0.004946
7103.31265	0.004975
7101.38397	0.004988
7099.45530	0.004982
7097.52662	0.004977
7095.59795	0.004983
7093.66927	0.004997
7091.74060	0.005025
7089.81192	0.005061
7087.88324	0.005083
7085.95457	0.005081
7084.02589	0.005069
7082.09722	0.005072
7080.16854	0.005102
7078.23987	0.005130
7076.31119	0.005131
7074.38251	0.005131
7072.45384	0.005152
7070.52516	0.005163
7068.59649	0.005158
7066.66781	0.005167
7064.73914	0.005179
7062.81046	0.005185
7060.88178	0.005203
7058.95311	0.005221
7057.02443	0.005233
7055.09576	0.005255
7053.16708	0.005284
7051.23841	0.005300
7049.30973	0.005300
7047.38105	0.005294
7045.45238	0.005296
7043.52370	0.005311
7041.59503	0.005331
7039.66635	0.005340
7037.73768	0.005346
7035.80900	0.005350
7033.88032	0.005344
7031.95165	0.005336
7030.02297	0.005347
7028.09430	0.005373
7026.16562	0.005391
7024.23695	0.005403
7022.30827	0.005427
7020.37959	0.005450
7018.45092	0.005463
7016.52224	0.005490
7014.59357	0.005527
7012.66489	0.005542
7010.73622	0.005538
7008.80754	0.005542
7006.87886	0.005563
7004.95019	0.005585
7003.02151	0.005590
7001.09284	0.005582
6999.16416	0.005581
6997.23549	0.005593
6995.30681	0.005607
6993.37813	0.005624
6991.44946	0.005648
6989.52078	0.005678
6987.59211	0.005712
6985.66343	0.005725
6983.73476	0.005717
6981.80608	0.005713
6979.87740	0.005721
6977.94873	0.005748
6976.02005	0.005780
6974.09138	0.005786
6972.16270	0.005772
6970.23403	0.005777
6968.30535	0.005812
6966.37667	0.005846
6964.44800	0.005849
6962.51932	0.005840
6960.59065	0.005849
6958.66197	0.005873
6956.73330	0.005898
6954.80462	0.005916
6952.87594	0.005914
6950.94727	0.005910
6949.01859	0.005934
6947.08992	0.005968
6945.16124	0.005987
6943.23257	0.006004
6941.30389	0.006019
6939.37521	0.006010
6937.44654	0.005989
6935.51786	0.005991
6933.58919	0.006019
6931.66051	0.006047
6929.73184	0.006071
6927.80316	0.006108
6925.87448	0.006142
6923.94581	0.006140
6922.01713	0.006120
6920.08846	0.006119
6918.15978	0.006138
6916.23111	0.006159
6914.30243	0.006178
6912.37375	0.006195
6910.44508	0.006201
6908.51640	0.006200
6906.58773	0.006214
6904.65905	0.006241
6902.73038	0.006257
6900.80170	0.006261
6898.87302	0.006265
6896.94435	0.006272
6895.01567	0.006283
6893.08700	0.006299
6891.15832	0.006306
6889.22965	0.006294
6887.30097	0.006287
6885.37229	0.006322
6883.44362	0.006383
6881.51494	0.006416
6879.58627	0.006404
6877.65759	0.006386
6875.72892	0.006404
6873.80024	0.006462
6871.87156	0.006518
6869.94289	0.006531
6868.01421	0.006515
6866.08554	0.006512
6864.15686	0.006523
6862.22819	0.006524
6860.29951	0.006527
6858.37083	0.006554
6856.44216	0.006585
6854.51348	0.006600
6852.58481	0.006605
6850.65613	0.006619
6848.72746	0.006647
6846.79878	0.006668
6844.87010	0.006673
6842.94143	0.006677
6841.01275	0.006680
6839.08408	0.006677
6837.15540	0.006685
6835.22673	0.006718
6833.29805	0.006762
6831.36937	0.006794
6829.44070	0.006810
6827.51202	0.006822
6825.58335	0.006838
6823.65467	0.006849
6821.72600	0.006843
6819.79732	0.006824
6817.86864	0.006826
6815.93997	0.006863
6814.01129	0.006918
6812.08262	0.006962
6810.15394	0.006965
6808.22527	0.006952
6806.29659	0.006971
6804.36791	0.007015
6802.43924	0.007043
6800.51056	0.007045
6798.58189	0.007045
6796.65321	0.007061
6794.72454	0.007088
6792.79586	0.007114
6790.86718	0.007132
6788.93851	0.007144
6787.00983	0.007142
6785.08116	0.007124
6783.15248	0.007120
6781.22381	0.007142
6779.29513	0.007164
6777.36645	0.007173
6775.43778	0.007192
6773.50910	0.007224
6771.58043	0.007256
6769.65175	0.007288
6767.72308	0.007312
6765.79440	0.007318
6763.86572	0.007321
6761.93705	0.007342
6760.00837	0.007376
6758.07970	0.007393
6756.15102	0.007403
6754.22235	0.007431
6752.29367	0.007463
6750.36499	0.007482
6748.43632	0.007499
6746.50764	0.007504
6744.57897	0.007482
6742.65029	0.007460
6740.72162	0.007466
6738.79294	0.007495
6736.86426	0.007534
6734.93559	0.007562
6733.00691	0.007568
6731.07824	0.007568
6729.14956	0.007584
6727.22089	0.007631
6725.29221	0.007683
6723.36353	0.007698
6721.43486	0.007691
6719.50618	0.007706
6717.57751	0.007739
6715.64883	0.007755
6713.72016	0.007750
6711.79148	0.007751
6709.86280	0.007767
6707.93413	0.007790
6706.00545	0.007814
6704.07678	0.007843
6702.14810	0.007875
6700.21943	0.007894
6698.29075	0.007887
6696.36207	0.007866
6694.43340	0.007876
6692.50472	0.007931
6690.57605	0.007988
6688.64737	0.008013
6686.71870	0.008015
6684.79002	0.008017
6682.86134	0.008030
6680.93267	0.008047
6679.00399	0.008059
6677.07532	0.008078
6675.14664	0.008104
6673.21797	0.008113
6671.28929	0.008119
6669.36061	0.008144
6667.43194	0.008172
6665.50326	0.008189
6663.57459	0.008208
6661.64591	0.008235
6659.71724	0.008264
6657.78856	0.008292
6655.85988	0.008306
6653.93121	0.008308
6652.00253	0.008321
6650.07386	0.008340
6648.14518	0.008356
6646.21651	0.008371
6644.28783	0.008382
6642.35915	0.008385
6640.43048	0.008386
6638.50180	0.008401
6636.57313	0.008441
6634.64445	0.008493
6632.71578	0.008549
6630.78710	0.008591
6628.85842	0.008604
6626.92975	0.008598
6625.00107	0.008600
6623.07240	0.008612
6621.14372	0.008618
6619.21505	0.008610
6617.28637	0.008616
6615.35769	0.008658
6613.42902	0.008692
6611.50034	0.008687
6609.57167	0.008685
6607.64299	0.008712
6605.71432	0.008753
6603.78564	0.008787
6601.85696	0.008808
6599.92829	0.008833
6597.99961	0.008855
6596.07094	0.008854
6594.14226	0.008862
6592.21359	0.008899
6590.28491	0.008933
6588.35623	0.008949
6586.42756	0.008960
6584.49888	0.008980
6582.57021	0.009013
6580.64153	0.009036
6578.71286	0.009046
6576.78418	0.009070
6574.85550	0.009096
6572.92683	0.009110
6570.99815	0.009133
6569.06948	0.009163
6567.14080	0.009172
6565.21213	0.009184
6563.28345	0.009226
6561.35477	0.009262
6559.42610	0.009266
6557.49742	0.009261
6555.56875	0.009274
6553.64007	0.009301
6551.71140	0.009322
6549.78272	0.009322
6547.85404	0.009313
6545.92537	0.009326
6543.99669	0.009361
6542.06802	0.009401
6540.13934	0.009441
6538.21067	0.009490
6536.28199	0.009533
6534.35331	0.009549
6532.42464	0.009548
6530.49596	0.009546
6528.56729	0.009552
6526.63861	0.009565
6524.70994	0.009573
6522.78126	0.009587
6520.85258	0.009624
6518.92391	0.009667
6516.99523	0.009685
6515.06656	0.009699
6513.13788	0.009733
6511.20921	0.009766
6509.28053	0.009773
6507.35185	0.009765
6505.42318	0.009764
6503.49450	0.009784
6501.56583	0.009830
6499.63715	0.009879
6497.70848	0.009900
6495.77980	0.009907
6493.85112	0.009928
6491.92245	0.009956
6489.99377	0.009978
6488.06510	0.010001
6486.13642	0.010033
6484.20775	0.010057
6482.27907	0.010060
6480.35039	0.010068
6478.42172	0.010095
6476.49304	0.010123
6474.56437	0.010156
6472.63569	0.010199
6470.70702	0.010235
6468.77834	0.010261
6466.84966	0.010288
6464.92099	0.010320
6462.99231	0.010353
6461.06364	0.010369
6459.13496	0.010365
6457.20629	0.010369
6455.27761	0.010394
6453.34893	0.010426
6451.42026	0.010451
6449.49158	0.010478
6447.56291	0.010520
6445.63423	0.010565
6443.70556	0.010584
6441.77688	0.010585
6439.84820	0.010594
6437.91953	0.010605
6435.99085	0.010615
6434.06218	0.010631
6432.13350	0.010649
6430.20483	0.010676
6428.27615	0.010711
6426.34747	0.010747
6424.41880	0.010780
6422.49012	0.010804
6420.56145	0.010824
6418.63277	0.010837
6416.70410	0.010848
6414.77542	0.010874
6412.84674	0.010906
6410.91807	0.010944
6408.98939	0.010996
6407.06072	0.011039
6405.13204	0.011064
6403.20337	0.011082
6401.27469	0.011088
6399.34601	0.011082
6397.41734	0.011086
6395.48866	0.011107
6393.55999	0.011135
6391.63131	0.011164
6389.70264	0.011192
6387.77396	0.011217
6385.84528	0.011245
6383.91661	0.011277
6381.98793	0.011306
6380.05926	0.011326
6378.13058	0.011347
6376.20191	0.011383
6374.27323	0.011429
6372.34455	0.011466
6370.41588	0.011491
6368.48720	0.011500
6366.55853	0.011501
6364.62985	0.011513
6362.70118	0.011536
6360.77250	0.011560
6358.84382	0.011590
6356.91515	0.011630
6354.98647	0.011665
6353.05780	0.011682
6351.12912	0.011693
6349.20045	0.011724
6347.27177	0.011759
6345.34309	0.011766
6343.41442	0.011772
6341.48574	0.011806
6339.55707	0.011854
6337.62839	0.011900
6335.69972	0.011929
6333.77104	0.011949
6331.84236	0.011969
6329.91369	0.011985
6327.98501	0.012007
6326.05634	0.012045
6324.12766	0.012086
6322.19899	0.012119
6320.27031	0.012146
6318.34163	0.012173
6316.41296	0.012198
6314.48428	0.012212
6312.55561	0.012220
6310.62693	0.012230
6308.69826	0.012248
6306.76958	0.012289
6304.84090	0.012347
6302.91223	0.012389
6300.98355	0.012418
6299.05488	0.012449
6297.12620	0.012476
6295.19753	0.012493
6293.26885	0.012511
6291.34017	0.012538
6289.41150	0.012575
6287.48282	0.012605
6285.55415	0.012621
6283.62547	0.012641
6281.69680	0.012679
6279.76812	0.012727
6277.83944	0.012766
6275.91077	0.012792
6273.98209	0.012818
6272.05342	0.012847
6270.12474	0.012872
6268.19607	0.012895
6266.26739	0.012916
6264.33871	0.012934
6262.41004	0.012943
6260.48136	0.012946
6258.55269	0.012982
6256.62401	0.013047
6254.69534	0.013084
6252.76666	0.013092
6250.83798	0.013121
6248.90931	0.013177
6246.98063	0.013221
6245.05196	0.013236
6243.12328	0.013236
6241.19461	0.013246
6239.26593	0.013269
6237.33725	0.013303
6235.40858	0.013350
6233.47990	0.013394
6231.55123	0.013413
6229.62255	0.013427
6227.69388	0.013464
6225.76520	0.013504
6223.83652	0.013530
6221.90785	0.013556
6219.97917	0.013591
6218.05050	0.013626
6216.12182	0.013655
6214.19315	0.013683
6212.26447	0.013700
6210.33579	0.013715
6208.40712	0.013755
6206.47844	0.013813
6204.54977	0.013847
6202.62109	0.013856
6200.69242	0.013886
6198.76374	0.013938
6196.83506	0.013969
6194.90639	0.013981
6192.97771	0.013984
6191.04904	0.013980
6189.12036	0.013995
6187.19169	0.014043
6185.26301	0.014105
6183.33433	0.014156
6181.40566	0.014191
6179.47698	0.014211
6177.54831	0.014230
6175.61963	0.014262
6173.69096	0.014311
6171.76228	0.014363
6169.83360	0.014396
6167.90493	0.014401
6165.97625	0.014404
6164.04758	0.014423
6162.11890	0.014459
6160.19023	0.014504
6158.26155	0.014550
6156.33287	0.014593
6154.40420	0.014634
6152.47552	0.014661
6150.54685	0.014678
6148.61817	0.014711
6146.68950	0.014752
6144.76082	0.014783
6142.83214	0.014821
6140.90347	0.014871
6138.97479	0.014907
6137.04612	0.014921
6135.11744	0.014935
6133.18877	0.014965
6131.26009	0.014996
6129.33141	0.015018
6127.40274	0.015044
6125.47406	0.015088
6123.54539	0.015142
6121.61671	0.015194
6119.68804	0.015236
6117.75936	0.015263
6115.83068	0.015287
6113.90201	0.015325
6111.97333	0.015366
6110.04466	0.015394
6108.11598	0.015408
6106.18731	0.015421
6104.25863	0.015451
6102.32995	0.015496
6100.40128	0.015539
6098.47260	0.015571
6096.54393	0.015605
6094.61525	0.015648
6092.68658	0.015690
6090.75790	0.015734
6088.82922	0.015776
6086.90055	0.015795
6084.97187	0.015813
6083.04320	0.015852
6081.11452	0.015894
6079.18585	0.015914
6077.25717	0.015906
6075.32849	0.015899
6073.39982	0.015931
6071.47114	0.015999
6069.54247	0.016061
6067.61379	0.016098
6065.68512	0.016129
6063.75644	0.016174
6061.82776	0.016227
6059.89909	0.016255
6057.97041	0.016269
6056.04174	0.016305
6054.11306	0.016358
6052.18439	0.016402
6050.25571	0.016435
6048.32703	0.016472
6046.39836	0.016507
6044.46968	0.016528
6042.54101	0.016552
6040.61233	0.016597
6038.68366	0.016654
6036.75498	0.016710
6034.82630	0.016767
6032.89763	0.016819
6030.96895	0.016864
6029.04028	0.016902
6027.11160	0.016927
6025.18293	0.016948
6023.25425	0.016974
6021.32557	0.016996
6019.39690	0.017017
6017.46822	0.017040
6015.53955	0.017059
6013.61087	0.017083
6011.68220	0.017129
6009.75352	0.017191
6007.82484	0.017243
6005.89617	0.017275
6003.96749	0.017299
6002.03882	0.017324
6000.11014	0.017361
5998.18147	0.017423
5996.25279	0.017483
5994.32411	0.017526
5992.39544	0.017567
5990.46676	0.017611
5988.53809	0.017640
5986.60941	0.017662
5984.68074	0.017697
5982.75206	0.017735
5980.82338	0.017763
5978.89471	0.017796
5976.96603	0.017846
5975.03736	0.017910
5973.10868	0.017957
5971.18001	0.017969
5969.25133	0.017972
5967.32265	0.017992
5965.39398	0.018040
5963.46530	0.018100
5961.53663	0.018146
5959.60795	0.018172
5957.67928	0.018194
5955.75060	0.018240
5953.82192	0.018292
5951.89325	0.018320
5949.96457	0.018342
5948.03590	0.018391
5946.10722	0.018456
5944.17855	0.018508
5942.24987	0.018543
5940.32119	0.018572
5938.39252	0.018598
5936.46384	0.018624
5934.53517	0.018666
5932.60649	0.018727
5930.67782	0.018784
5928.74914	0.018816
5926.82046	0.018844
5924.89179	0.018897
5922.96311	0.018949
5921.03444	0.018982
5919.10576	0.019021
5917.17709	0.019061
5915.24841	0.019091
5913.31973	0.019135
5911.39106	0.019196
5909.46238	0.019233
5907.53371	0.019246
5905.60503	0.019284
5903.67636	0.019348
5901.74768	0.019397
5899.81900	0.019419
5897.89033	0.019435
5895.96165	0.019476
5894.03298	0.019538
5892.10430	0.019590
5890.17563	0.019620
5888.24695	0.019655
5886.31827	0.019717
5884.38960	0.019786
5882.46092	0.019827
5880.53225	0.019839
5878.60357	0.019853
5876.67490	0.019888
5874.74622	0.019934
5872.81755	0.019983
5870.88887	0.020049
5868.96019	0.020122
5867.03152	0.020168
5865.10284	0.020186
5863.17417	0.020200
5861.24549	0.020215
5859.31682	0.020239
5857.38814	0.020297
5855.45946	0.020376
5853.53079	0.020427
5851.60211	0.020440
5849.67344	0.020454
5847.74476	0.020489
5845.81609	0.020533
5843.88741	0.020575
5841.95873	0.020616
5840.03006	0.020668
5838.10138	0.020733
5836.17271	0.020792
5834.24403	0.020844
5832.31536	0.020906
5830.38668	0.020960
5828.45800	0.020993
5826.52933	0.021027
5824.60065	0.021068
5822.67198	0.021109
5820.74330	0.021142
5818.81463	0.021172
5816.88595	0.021223
5814.95727	0.021294
5813.02860	0.021352
5811.09992	0.021393
5809.17125	0.021434
5807.24257	0.021471
5805.31390	0.021500
5803.38522	0.021535
5801.45654	0.021581
5799.52787	0.021626
5797.59919	0.021661
5795.67052	0.021702
5793.74184	0.021758
5791.81317	0.021816
5789.88449	0.021863
5787.95581	0.021905
5786.02714	0.021944
5784.09846	0.021992
5782.16979	0.022055
5780.24111	0.022112
5778.31244	0.022139
5776.38376	0.022153
5774.45508	0.022175
5772.52641	0.022211
5770.59773	0.022274
5768.66906	0.022351
5766.74038	0.022414
5764.81171	0.022470
5762.88303	0.022535
5760.95435	0.022602
5759.02568	0.022653
5757.09700	0.022686
5755.16833	0.022718
5753.23965	0.022757
5751.31098	0.022798
5749.38230	0.022835
5747.45362	0.022869
5745.52495	0.022903
5743.59627	0.022950
5741.66760	0.023016
5739.73892	0.023078
5737.81025	0.023115
5735.88157	0.023140
5733.95289	0.023177
5732.02422	0.023224
5730.09554	0.023277
5728.16687	0.023333
5726.23819	0.023394
5724.30952	0.023461
5722.38084	0.023522
5720.45216	0.023560
5718.52349	0.023600
5716.59481	0.023658
5714.66614	0.023720
5712.73746	0.023770
5710.80879	0.023803
5708.88011	0.023821
5706.95143	0.023847
5705.02276	0.023900
5703.09408	0.023966
5701.16541	0.024013
5699.23673	0.024040
5697.30806	0.024066
5695.37938	0.024098
5693.45070	0.024140
5691.52203	0.024195
5689.59335	0.024267
5687.66468	0.024341
5685.73600	0.024404
5683.80733	0.024463
5681.87865	0.024524
5679.94997	0.024573
5678.02130	0.024605
5676.09262	0.024649
5674.16395	0.024716
5672.23527	0.024764
5670.30660	0.024787
5668.37792	0.024825
5666.44924	0.024884
5664.52057	0.024951
5662.59189	0.025008
5660.66322	0.025049
5658.73454	0.025099
5656.80587	0.025161
5654.87719	0.025212
5652.94851	0.025254
5651.01984	0.025304
5649.09116	0.025346
5647.16249	0.025367
5645.23381	0.025400
5643.30514	0.025457
5641.37646	0.025514
5639.44778	0.025575
5637.51911	0.025659
5635.59043	0.025738
5633.66176	0.025782
5631.73308	0.025813
5629.80441	0.025870
5627.87573	0.025963
5625.94705	0.026062
5624.01838	0.026125
5622.08970	0.026164
5620.16103	0.026204
5618.23235	0.026233
5616.30368	0.026256
5614.37500	0.026297
5612.44632	0.026343
5610.51765	0.026376
5608.58897	0.026410
5606.66030	0.026462
5604.73162	0.026520
5602.80295	0.026580
5600.87427	0.026648
5598.94559	0.026706
5597.01692	0.026741
5595.08824	0.026782
5593.15957	0.026851
5591.23089	0.026931
5589.30222	0.027001
5587.37354	0.027071
5585.44486	0.027138
5583.51619	0.027171
5581.58751	0.027186
5579.65884	0.027238
5577.73016	0.027312
5575.80149	0.027350
5573.87281	0.027373
5571.94413	0.027425
5570.01546	0.027497
5568.08678	0.027573
5566.15811	0.027642
5564.22943	0.027694
5562.30076	0.027737
5560.37208	0.027774
5558.44340	0.027813
5556.51473	0.027875
5554.58605	0.027936
5552.65738	0.027961
5550.72870	0.027980
5548.80003	0.028038
5546.87135	0.028128
5544.94267	0.028211
5543.01400	0.028280
5541.08532	0.028336
5539.15665	0.028358
5537.22797	0.028375
5535.29930	0.028433
5533.37062	0.028515
5531.44194	0.028587
5529.51327	0.028657
5527.58459	0.028729
5525.65592	0.028786
5523.72724	0.028821
5521.79857	0.028864
5519.86989	0.028928
5517.94121	0.028981
5516.01254	0.029022
5514.08386	0.029081
5512.15519	0.029155
5510.22651	0.029216
5508.29784	0.029264
5506.36916	0.029312
5504.44048	0.029354
5502.51181	0.029402
5500.58313	0.029473
5498.65446	0.029546
5496.72578	0.029588
5494.79711	0.029610
5492.86843	0.029656
5490.93975	0.029742
5489.01108	0.029835
5487.08240	0.029918
5485.15373	0.029996
5483.22505	0.030059
5481.29638	0.030094
5479.36770	0.030115
5477.43902	0.030143
5475.51035	0.030194
5473.58167	0.030265
5471.65300	0.030329
5469.72432	0.030379
5467.79565	0.030437
5465.86697	0.030499
5463.93829	0.030554
5462.00962	0.030603
5460.08094	0.030650
5458.15227	0.030708
5456.22359	0.030779
5454.29492	0.030839
5452.36624	0.030882
5450.43756	0.030924
5448.50889	0.030980
5446.58021	0.031038
5444.65154	0.031084
5442.72286	0.031128
5440.79419	0.031187
5438.86551	0.031262
5436.93683	0.031319
5435.00816	0.031363
5433.07948	0.031423
5431.15081	0.031486
5429.22213	0.031554
5427.29346	0.031639
5425.36478	0.031725
5423.43610	0.031803
5421.50743	0.031876
5419.57875	0.031937
5417.65008	0.031978
5415.72140	0.032003
5413.79273	0.032039
5411.86405	0.032092
5409.93537	0.032135
5408.00670	0.032180
5406.07802	0.032258
5404.14935	0.032350
5402.22067	0.032416
5400.29200	0.032459
5398.36332	0.032508
5396.43464	0.032565
5394.50597	0.032636
5392.57729	0.032723
5390.64862	0.032791
5388.71994	0.032823
5386.79127	0.032860
5384.86259	0.032940
5382.93391	0.033050
5381.00524	0.033135
5379.07656	0.033171
5377.14789	0.033190
5375.21921	0.033229
5373.29054	0.033292
5371.36186	0.033361
5369.43318	0.033430
5367.50451	0.033497
5365.57583	0.033548
5363.64716	0.033594
5361.71848	0.033660
5359.78981	0.033743
5357.86113	0.033823
5355.93245	0.033873
5354.00378	0.033903
5352.07510	0.033955
5350.14643	0.034029
5348.21775	0.034089
5346.28908	0.034130
5344.36040	0.034198
5342.43172	0.034296
5340.50305	0.034364
5338.57437	0.034406
5336.64570	0.034480
5334.71702	0.034564
5332.78835	0.034606
5330.85967	0.034639
5328.93099	0.034713
5327.00232	0.034805
5325.07364	0.034881
5323.14497	0.034950
5321.21629	0.035013
5319.28762	0.035058
5317.35894	0.035097
5315.43026	0.035158
5313.50159	0.035241
5311.57291	0.035320
5309.64424	0.035372
5307.71556	0.035416
5305.78689	0.035485
5303.85821	0.035579
5301.92953	0.035665
5300.00086	0.035730
5298.07218	0.035799
5296.14351	0.035882
5294.21483	0.035947
5292.28616	0.035972
5290.35748	0.036003
5288.42880	0.036080
5286.50013	0.036167
5284.57145	0.036242
5282.64278	0.036314
5280.71410	0.036376
5278.78543	0.036435
5276.85675	0.036493
5274.92807	0.036539
5272.99940	0.036588
5271.07072	0.036653
5269.14205	0.036720
5267.21337	0.036768
5265.28470	0.036799
5263.35602	0.036859
5261.42734	0.036973
5259.49867	0.037086
5257.56999	0.037142
5255.64132	0.037164
5253.71264	0.037208
5251.78397	0.037284
5249.85529	0.037357
5247.92661	0.037413
5245.99794	0.037469
5244.06926	0.037541
5242.14059	0.037628
5240.21191	0.037716
5238.28324	0.037801
5236.35456	0.037860
5234.42588	0.037874
5232.49721	0.037891
5230.56853	0.037962
5228.63986	0.038055
5226.71118	0.038129
5224.78251	0.038199
5222.85383	0.038288
5220.92515	0.038382
5218.99648	0.038460
5217.06780	0.038517
5215.13913	0.038571
5213.21045	0.038635
5211.28178	0.038693
5209.35310	0.038735
5207.42442	0.038777
5205.49575	0.038862
5203.56707	0.038992
5201.63840	0.039111
5199.70972	0.039192
5197.78105	0.039243
5195.85237	0.039272
5193.92369	0.039302
5191.99502	0.039355
5190.06634	0.039428
5188.13767	0.039501
5186.20899	0.039565
5184.28032	0.039620
5182.35164	0.039670
5180.42296	0.039732
5178.49429	0.039822
5176.56561	0.039917
5174.63694	0.039991
5172.70826	0.040059
5170.77959	0.040140
5168.85091	0.040207
5166.92223	0.040240
5164.99356	0.040257
5163.06488	0.040289
5161.13621	0.040362
5159.20753	0.040474
5157.27886	0.040582
5155.35018	0.040642
5153.42150	0.040669
5151.49283	0.040718
5149.56415	0.040804
5147.63548	0.040907
5145.70680	0.041010
5143.77813	0.041085
5141.84945	0.041117
5139.92077	0.041154
5137.99210	0.041238
5136.06342	0.041351
5134.13475	0.041443
5132.20607	0.041490
5130.27740	0.041546
5128.34872	0.041655
5126.42004	0.041761
5124.49137	0.041827
5122.56269	0.041888
5120.63402	0.041964
5118.70534	0.042045
5116.77667	0.042110
5114.84799	0.042154
5112.91931	0.042193
5110.99064	0.042255
5109.06196	0.042340
5107.13329	0.042403
5105.20461	0.042447
5103.27594	0.042526
5101.34726	0.042629
5099.41858	0.042720
5097.48991	0.042800
5095.56123	0.042874
5093.63256	0.042931
5091.70388	0.042980
5089.77521	0.043045
5087.84653	0.043136
5085.91785	0.043232
5083.98918	0.043314
5082.06050	0.043389
5080.13183	0.043470
5078.20315	0.043551
5076.27448	0.043609
5074.34580	0.043643
5072.41712	0.043691
5070.48845	0.043766
5068.55977	0.043846
5066.63110	0.043922
5064.70242	0.044001
5062.77375	0.044081
5060.84507	0.044154
5058.91639	0.044230
5056.98772	0.044321
5055.05904	0.044428
5053.13037	0.044535
5051.20169	0.044629
5049.27302	0.044703
5047.34434	0.044761
5045.41566	0.044822
5043.48699	0.044889
5041.55831	0.044954
5039.62964	0.045022
5037.70096	0.045083
5035.77229	0.045129
5033.84361	0.045175
5031.91493	0.045242
5029.98626	0.045334
5028.05758	0.045427
5026.12891	0.045518
5024.20023	0.045615
5022.27156	0.045693
5020.34288	0.045742
5018.41420	0.045806
5016.48553	0.045903
5014.55685	0.045989
5012.62818	0.046056
5010.69950	0.046138
5008.77083	0.046229
5006.84215	0.046300
5004.91347	0.046355
5002.98480	0.046410
5001.05612	0.046485
4999.12745	0.046578
4997.19877	0.046658
4995.27010	0.046707
4993.34142	0.046759
4991.41274	0.046856
4989.48407	0.046966
4987.55539	0.047045
4985.62672	0.047106
4983.69804	0.047176
4981.76937	0.047266
4979.84069	0.047361
4977.91201	0.047450
4975.98334	0.047535
4974.05466	0.047597
4972.12599	0.047645
4970.19731	0.047719
4968.26864	0.047815
4966.33996	0.047898
4964.41128	0.047960
4962.48261	0.048023
4960.55393	0.048100
4958.62526	0.048181
4956.69658	0.048260
4954.76791	0.048339
4952.83923	0.048421
4950.91055	0.048492
4948.98188	0.048550
4947.05320	0.048614
4945.12453	0.048691
4943.19585	0.048783
4941.26718	0.048873
4939.33850	0.048952
4937.40982	0.049040
4935.48115	0.049135
4933.55247	0.049219
4931.62380	0.049306
4929.69512	0.049391
4927.76645	0.049457
4925.83777	0.049524
4923.90909	0.049627
4921.98042	0.049737
4920.05174	0.049806
4918.12307	0.049871
4916.19439	0.049967
4914.26572	0.050054
4912.33704	0.050122
4910.40836	0.050216
4908.47969	0.050339
4906.55101	0.050437
4904.62234	0.050504
4902.69366	0.050580
4900.76499	0.050677
4898.83631	0.050773
4896.90763	0.050859
4894.97896	0.050938
4893.05028	0.051008
4891.12161	0.051069
4889.19293	0.051126
4887.26426	0.051183
4885.33558	0.051254
4883.40690	0.051340
4881.47823	0.051427
4879.54955	0.051528
4877.62088	0.051649
4875.69220	0.051759
4873.76353	0.051842
4871.83485	0.051912
4869.90617	0.051986
4867.97750	0.052073
4866.04882	0.052166
4864.12015	0.052257
4862.19147	0.052336
4860.26280	0.052394
4858.33412	0.052454
4856.40544	0.052546
4854.47677	0.052653
4852.54809	0.052752
4850.61942	0.052854
4848.69074	0.052957
4846.76207	0.053040
4844.83339	0.053122
4842.90471	0.053204
4840.97604	0.053278
4839.04736	0.053384
4837.11869	0.053515
4835.19001	0.053613
4833.26134	0.053673
4831.33266	0.053725
4829.40398	0.053790
4827.47531	0.053873
4825.54663	0.053960
4823.61796	0.054054
4821.68928	0.054164
4819.76061	0.054275
4817.83193	0.054374
4815.90325	0.054468
4813.97458	0.054549
4812.04590	0.054613
4810.11723	0.054677
4808.18855	0.054767
4806.25988	0.054893
4804.33120	0.055019
4802.40252	0.055106
4800.47385	0.055179
4798.54517	0.055267
4796.61650	0.055352
4794.68782	0.055432
4792.75915	0.055523
4790.83047	0.055613
4788.90179	0.055694
4786.97312	0.055771
4785.04444	0.055835
4783.11577	0.055905
4781.18709	0.056007
4779.25842	0.056133
4777.32974	0.056274
4775.40106	0.056392
4773.47239	0.056463
4771.54371	0.056538
4769.61504	0.056640
4767.68636	0.056728
4765.75769	0.056796
4763.82901	0.056862
4761.90033	0.056937
4759.97166	0.057036
4758.04298	0.057150
4756.11431	0.057258
4754.18563	0.057367
4752.25696	0.057476
4750.32828	0.057565
4748.39960	0.057646
4746.47093	0.057753
4744.54225	0.057878
4742.61358	0.057989
4740.68490	0.058080
4738.75623	0.058163
4736.82755	0.058252
4734.89887	0.058351
4732.97020	0.058447
4731.04152	0.058533
4729.11285	0.058630
4727.18417	0.058745
4725.25550	0.058857
4723.32682	0.058940
4721.39814	0.058995
4719.46947	0.059075
4717.54079	0.059208
4715.61212	0.059340
4713.68344	0.059434
4711.75477	0.059520
4709.82609	0.059617
4707.89741	0.059725
4705.96874	0.059850
4704.04006	0.059976
4702.11139	0.060083
4700.18271	0.060176
4698.25404	0.060262
4696.32536	0.060347
4694.39668	0.060445
4692.46801	0.060561
4690.53933	0.060680
4688.61066	0.060786
4686.68198	0.060886
4684.75331	0.060986
4682.82463	0.061088
4680.89595	0.061189
4678.96728	0.061269
4677.03860	0.061326
4675.10993	0.061399
4673.18125	0.061520
4671.25258	0.061652
4669.32390	0.061771
4667.39522	0.061885
4665.46655	0.061991
4663.53787	0.062078
4661.60920	0.062161
4659.68052	0.062283
4657.75185	0.062431
4655.82317	0.062540
4653.89449	0.062622
4651.96582	0.062738
4650.03714	0.062874
4648.10847	0.062987
4646.17979	0.063085
4644.25112	0.063184
4642.32244	0.063291
4640.39376	0.063400
4638.46509	0.063498
4636.53641	0.063590
4634.60774	0.063690
4632.67906	0.063808
4630.75039	0.063937
4628.82171	0.064057
4626.89303	0.064158
4624.96436	0.064255
4623.03568	0.064365
4621.10701	0.064480
4619.17833	0.064594
4617.24966	0.064720
4615.32098	0.064843
4613.39230	0.064947
4611.46363	0.065055
4609.53495	0.065168
4607.60628	0.065272
4605.67760	0.065377
4603.74893	0.065495
4601.82025	0.065624
4599.89157	0.065760
4597.96290	0.065878
4596.03422	0.065966
4594.10555	0.066059
4592.17687	0.066179
4590.24820	0.066313
4588.31952	0.066443
4586.39084	0.066551
4584.46217	0.066648
4582.53349	0.066753
4580.60482	0.066857
4578.67614	0.066959
4576.74747	0.067062
4574.81879	0.067162
4572.89011	0.067274
4570.96144	0.067401
4569.03276	0.067528
4567.10409	0.067650
4565.17541	0.067787
4563.24674	0.067933
4561.31806	0.068044
4559.38938	0.068123
4557.46071	0.068218
4555.53203	0.068344
4553.60336	0.068486
4551.67468	0.068635
4549.74601	0.068776
4547.81733	0.068899
4545.88865	0.069005
4543.95998	0.069105
4542.03130	0.069226
4540.10263	0.069382
4538.17395	0.069542
4536.24528	0.069679
4534.31660	0.069806
4532.38792	0.069925
4530.45925	0.070022
4528.53057	0.070112
4526.60190	0.070229
4524.67322	0.070372
4522.74455	0.070502
4520.81587	0.070616
4518.88719	0.070728
4516.95852	0.070846
4515.02984	0.070988
4513.10117	0.071137
4511.17249	0.071252
4509.24382	0.071360
4507.31514	0.071499
4505.38646	0.071644
4503.45779	0.071766
4501.52911	0.071882
4499.60044	0.071997
4497.67176	0.072112
4495.74309	0.072248
4493.81441	0.072388
4491.88573	0.072507
4489.95706	0.072639
4488.02838	0.072807
4486.09971	0.072969
4484.17103	0.073101
4482.24236	0.073233
4480.31368	0.073366
4478.38500	0.073482
4476.45633	0.073598
4474.52765	0.073729
4472.59898	0.073847
4470.67030	0.073958
4468.74163	0.074087
4466.81295	0.074224
4464.88427	0.074362
4462.95560	0.074521
4461.02692	0.074690
4459.09825	0.074839
4457.16957	0.074967
4455.24090	0.075100
4453.31222	0.075252
4451.38354	0.075399
4449.45487	0.075540
4447.52619	0.075692
4445.59752	0.075835
4443.66884	0.075941
4441.74017	0.076045
4439.81149	0.076189
4437.88281	0.076346
4435.95414	0.076483
4434.02546	0.076621
4432.09679	0.076759
4430.16811	0.076888
4428.23944	0.077037
4426.31076	0.077193
4424.38208	0.077330
4422.45341	0.077463
4420.52473	0.077607
4418.59606	0.077759
4416.66738	0.077912
4414.73871	0.078057
4412.81003	0.078208
4410.88135	0.078360
4408.95268	0.078490
4407.02400	0.078603
4405.09533	0.078716
4403.16665	0.078839
4401.23798	0.078984
4399.30930	0.079143
4397.38062	0.079301
4395.45195	0.079441
4393.52327	0.079573
4391.59460	0.079732
4389.66592	0.079919
4387.73725	0.080100
4385.80857	0.080249
4383.87989	0.080381
4381.95122	0.080518
4380.02254	0.080657
4378.09387	0.080784
4376.16519	0.080915
4374.23652	0.081068
4372.30784	0.081240
4370.37916	0.081422
4368.45049	0.081588
4366.52181	0.081718
4364.59314	0.081835
4362.66446	0.081978
4360.73579	0.082144
4358.80711	0.082303
4356.87843	0.082445
4354.94976	0.082589
4353.02108	0.082743
4351.09241	0.082894
4349.16373	0.083035
4347.23506	0.083183
4345.30638	0.083346
4343.37770	0.083500
4341.44903	0.083640
4339.52035	0.083804
4337.59168	0.083987
4335.66300	0.084149
4333.73433	0.084296
4331.80565	0.084456
4329.87697	0.084650
4327.94830	0.084856
4326.01962	0.085032
4324.09095	0.085178
4322.16227	0.085318
4320.23360	0.085463
4318.30492	0.085622
4316.37624	0.085782
4314.44757	0.085925
4312.51889	0.086068
4310.59022	0.086233
4308.66154	0.086417
4306.73287	0.086597
4304.80419	0.086772
4302.87551	0.086956
4300.94684	0.087154
4299.01816	0.087355
4297.08949	0.087533
4295.16081	0.087692
4293.23214	0.087878
4291.30346	0.088078
4289.37478	0.088232
4287.44611	0.088340
4285.51743	0.088453
4283.58876	0.088617
4281.66008	0.088823
4279.73141	0.089028
4277.80273	0.089208
4275.87405	0.089367
4273.94538	0.089503
4272.01670	0.089631
4270.08803	0.089782
4268.15935	0.089969
4266.23068	0.090171
4264.30200	0.090361
4262.37332	0.090529
4260.44465	0.090688
4258.51597	0.090846
4256.58730	0.091009
4254.65862	0.091177
4252.72995	0.091337
4250.80127	0.091502
4248.87259	0.091687
4246.94392	0.091869
4245.01524	0.092037
4243.08657	0.092211
4241.15789	0.092389
4239.22922	0.092566
4237.30054	0.092762
4235.37186	0.092960
4233.44319	0.093124
4231.51451	0.093286
4229.58584	0.093477
4227.65716	0.093662
4225.72849	0.093817
4223.79981	0.093969
4221.87113	0.094142
4219.94246	0.094335
4218.01378	0.094529
4216.08511	0.094717
4214.15643	0.094911
4212.22776	0.095089
4210.29908	0.095243
4208.37040	0.095424
4206.44173	0.095644
4204.51305	0.095862
4202.58438	0.096050
4200.65570	0.096210
4198.72703	0.096370
4196.79835	0.096550
4194.86968	0.096745
4192.94100	0.096958
4191.01232	0.097168
4189.08365	0.097347
4187.15497	0.097505
4185.22630	0.097673
4183.29762	0.097865
4181.36895	0.098054
4179.44027	0.098234
4177.51159	0.098410
4175.58292	0.098581
4173.65424	0.098785
4171.72557	0.099022
4169.79689	0.099234
4167.86822	0.099420
4165.93954	0.099608
4164.01086	0.099791
4162.08219	0.099968
4160.15351	0.100141
4158.22484	0.100327
4156.29616	0.100547
4154.36749	0.100776
4152.43881	0.100987
4150.51013	0.101189
4148.58146	0.101378
4146.65278	0.101531
4144.72411	0.101683
4142.79543	0.101869
4140.86676	0.102072
4138.93808	0.102273
4137.00940	0.102491
4135.08073	0.102733
4133.15205	0.102945
4131.22338	0.103081
4129.29470	0.103214
4127.36603	0.103428
4125.43735	0.103681
4123.50867	0.103897
4121.58000	0.104055
4119.65132	0.104199
4117.72265	0.104404
4115.79397	0.104657
4113.86530	0.104888
4111.93662	0.105080
4110.00794	0.105276
4108.07927	0.105487
4106.15059	0.105693
4104.22192	0.105908
4102.29324	0.106137
4100.36457	0.106350
4098.43589	0.106541
4096.50721	0.106748
4094.57854	0.106976
4092.64986	0.107182
4090.72119	0.107373
4088.79251	0.107586
4086.86384	0.107809
4084.93516	0.108026
4083.00648	0.108247
4081.07781	0.108456
4079.14913	0.108640
4077.22046	0.108821
4075.29178	0.109013
4073.36311	0.109211
4071.43443	0.109411
4069.50575	0.109624
4067.57708	0.109870
4065.64840	0.110119
4063.71973	0.110330
4061.79105	0.110525
4059.86238	0.110747
4057.93370	0.110985
4056.00502	0.111199
4054.07635	0.111400
4052.14767	0.111625
4050.21900	0.111870
4048.29032	0.112094
4046.36165	0.112279
4044.43297	0.112457
4042.50429	0.112653
4040.57562	0.112868
4038.64694	0.113115
4036.71827	0.113368
4034.78959	0.113584
4032.86092	0.113771
4030.93224	0.113976
4029.00356	0.114214
4027.07489	0.114448
4025.14621	0.114647
4023.21754	0.114831
4021.28886	0.115043
4019.36019	0.115306
4017.43151	0.115582
4015.50283	0.115828
4013.57416	0.116042
4011.64548	0.116243
4009.71681	0.116454
4007.78813	0.116680
4005.85946	0.116931
4003.93078	0.117188
4002.00210	0.117414
4000.07343	0.117613
3998.14475	0.117804
3996.21608	0.118011
3994.28740	0.118251
3992.35873	0.118496
3990.43005	0.118719
3988.50137	0.118946
3986.57270	0.119187
3984.64402	0.119426
3982.71535	0.119652
3980.78667	0.119858
3978.85800	0.120052
3976.92932	0.120249
3975.00064	0.120454
3973.07197	0.120686
3971.14329	0.120942
3969.21462	0.121181
3967.28594	0.121409
3965.35727	0.121662
3963.42859	0.121906
3961.49991	0.122118
3959.57124	0.122347
3957.64256	0.122608
3955.71389	0.122857
3953.78521	0.123059
3951.85654	0.123212
3949.92786	0.123366
3947.99918	0.123591
3946.07051	0.123860
3944.14183	0.124089
3942.21316	0.124315
3940.28448	0.124614
3938.35581	0.124911
3936.42713	0.125092
3934.49845	0.125182
3932.56978	0.125333
3930.64110	0.125617
3928.71243	0.125915
3926.78375	0.126128
3924.85508	0.126343
3922.92640	0.126613
3920.99772	0.126818
3919.06905	0.126944
3917.14037	0.127182
3915.21170	0.127598
3913.28302	0.128010
3911.35435	0.128300
3909.42567	0.128490
3907.49699	0.128499
3905.56832	0.128344
3903.63964	0.128310
3901.71097	0.128544
3899.78229	0.128963
3897.85362	0.129480
3895.92494	0.129931
3893.99626	0.130134
3892.06759	0.130251
3890.13891	0.130508
3888.21024	0.130697
3886.28156	0.130780
3884.35289	0.131057
3882.42421	0.131385
3880.49553	0.131652
3878.56686	0.132040
3876.63818	0.132366
3874.70951	0.132486
3872.78083	0.132520
3870.85216	0.132597
3868.92348	0.132918
3866.99480	0.133343
3865.06613	0.133633
3863.13745	0.133940
3861.20878	0.134335
3859.28010	0.134631
3857.35143	0.134518
3855.42275	0.134031
3853.49407	0.134014
3851.56540	0.134890
3849.63672	0.135907
3847.70805	0.136462
3845.77937	0.136635
3843.85070	0.136655
3841.92202	0.136680
3839.99334	0.136740
3838.06467	0.136927
3836.13599	0.137325
3834.20732	0.137773
3832.27864	0.138164
3830.34997	0.138549
3828.42129	0.138878
3826.49261	0.139147
3824.56394	0.139293
3822.63526	0.139229
3820.70659	0.139338
3818.77791	0.139736
3816.84924	0.140100
3814.92056	0.140537
3812.99188	0.141085
3811.06321	0.141426
3809.13453	0.141478
3807.20586	0.141561
3805.27718	0.141817
3803.34851	0.141961
3801.41983	0.142109
3799.49115	0.142488
3797.56248	0.142870
3795.63380	0.143257
3793.70513	0.143749
3791.77645	0.144178
3789.84778	0.144478
3787.91910	0.144695
3785.99042	0.144880
3784.06175	0.145085
3782.13307	0.145257
3780.20440	0.145438
3778.27572	0.145786
3776.34705	0.146222
3774.41837	0.146514
3772.48969	0.146589
3770.56102	0.146632
3768.63234	0.146870
3766.70367	0.147229
3764.77499	0.147593
3762.84632	0.147889
3760.91764	0.148007
3758.98896	0.148139
3757.06029	0.148417
3755.13161	0.148545
3753.20294	0.148357
3751.27426	0.148224
3749.34559	0.148493
3747.41691	0.148713
3745.48823	0.148683
3743.55956	0.149175
3741.63088	0.150157
3739.70221	0.150616
3737.77353	0.150429
3735.84486	0.150333
3733.91618	0.150728
3731.98750	0.151445
3730.05883	0.152101
3728.13015	0.152437
3726.20148	0.152588
3724.27280	0.152823
3722.34413	0.153175
3720.41545	0.153610
3718.48677	0.154056
3716.55810	0.154347
3714.62942	0.154346
3712.70075	0.154229
3710.77207	0.154429
3708.84340	0.155011
3706.91472	0.155610
3704.98604	0.155921
3703.05737	0.156036
3701.12869	0.156304
3699.20002	0.156745
3697.27134	0.157128
3695.34267	0.157363
3693.41399	0.157413
3691.48531	0.157320
3689.55664	0.157397
3687.62796	0.157896
3685.69929	0.158561
3683.77061	0.159011
3681.84194	0.159210
3679.91326	0.159230
3677.98458	0.159046
3676.05591	0.158971
3674.12723	0.159351
3672.19856	0.159795
3670.26988	0.160092
3668.34121	0.160615
3666.41253	0.161294
3664.48385	0.161791
3662.55518	0.162088
3660.62650	0.162262
3658.69783	0.162296
3656.76915	0.162341
3654.84048	0.162515
3652.91180	0.162446
3650.98312	0.162017
3649.05445	0.161820
3647.12577	0.162281
3645.19710	0.163153
3643.26842	0.163941
3641.33975	0.164471
3639.41107	0.164843
3637.48239	0.165089
3635.55372	0.165228
3633.62504	0.165270
3631.69637	0.165070
3629.76769	0.164864
3627.83902	0.165248
3625.91034	0.166034
3623.98166	0.166531
3622.05299	0.166572
3620.12431	0.166488
3618.19564	0.166671
3616.26696	0.167017
3614.33829	0.167212
3612.40961	0.167306
3610.48093	0.167404
3608.55226	0.167619
3606.62358	0.168071
3604.69491	0.168562
3602.76623	0.168875
3600.83756	0.169082
3598.90888	0.169271
3596.98020	0.169422
3595.05153	0.169593
3593.12285	0.169813
3591.19418	0.169876
3589.26550	0.169746
3587.33683	0.169862
3585.40815	0.170400
3583.47947	0.170962
3581.55080	0.171305
3579.62212	0.171559
3577.69345	0.171804
3575.76477	0.172001
3573.83610	0.172177
3571.90742	0.172295
3569.97874	0.172231
3568.05007	0.172183
3566.12139	0.172492
3564.19272	0.173029
3562.26404	0.173439
3560.33537	0.173687
3558.40669	0.173904
3556.47801	0.174102
3554.54934	0.174241
3552.62066	0.174388
3550.69199	0.174581
3548.76331	0.174729
3546.83464	0.174861
3544.90596	0.175110
3542.97728	0.175427
3541.04861	0.175690
3539.11993	0.175878
3537.19126	0.176027
3535.26258	0.176170
3533.33391	0.176280
3531.40523	0.176323
3529.47655	0.176379
3527.54788	0.176507
3525.61920	0.176633
3523.69053	0.176727
3521.76185	0.176829
3519.83318	0.176943
3517.90450	0.177069
3515.97582	0.177199
3514.04715	0.177297
3512.11847	0.177355
3510.18980	0.177424
3508.26112	0.177521
3506.33245	0.177569
3504.40377	0.177569
3502.47509	0.177651
3500.54642	0.177809
3498.61774	0.177902
3496.68907	0.177918
3494.76039	0.177938
3492.83172	0.177974
3490.90304	0.178007
3488.97436	0.178078
3487.04569	0.178218
3485.11701	0.178355
3483.18834	0.178427
3481.25966	0.178506
3479.33099	0.178663
3477.40231	0.178881
3475.47363	0.179122
3473.54496	0.179373
3471.61628	0.179646
3469.68761	0.179950
3467.75893	0.180262
3465.83026	0.180536
3463.90158	0.180776
3461.97290	0.181049
3460.04423	0.181377
3458.11555	0.181713
3456.18688	0.182026
3454.25820	0.182316
3452.32953	0.182581
3450.40085	0.182807
3448.47217	0.183021
3446.54350	0.183294
3444.61482	0.183625
3442.68615	0.183968
3440.75747	0.184360
3438.82880	0.184841
3436.90012	0.185371
3434.97144	0.185927
3433.04277	0.186533
3431.11409	0.187177
3429.18542	0.187797
3427.25674	0.188382
3425.32807	0.188979
3423.39939	0.189592
3421.47071	0.190169
3419.54204	0.190699
3417.61336	0.191209
3415.68469	0.191687
3413.75601	0.192147
3411.82734	0.192627
3409.89866	0.193112
3407.96998	0.193570
3406.04131	0.193992
3404.11263	0.194391
3402.18396	0.194772
3400.25528	0.195147
3398.32661	0.195539
3396.39793	0.195933
3394.46925	0.196328
3392.54058	0.196751
3390.61190	0.197196
3388.68323	0.197626
3386.75455	0.198028
3384.82588	0.198405
3382.89720	0.198761
3380.96852	0.199121
3379.03985	0.199514
3377.11117	0.199920
3375.18250	0.200296
3373.25382	0.200658
3371.32515	0.201018
3369.39647	0.201348
3367.46779	0.201677
3365.53912	0.202061
3363.61044	0.202472
3361.68177	0.202857
3359.75309	0.203224
3357.82442	0.203591
3355.89574	0.203940
3353.96706	0.204271
3352.03839	0.204619
3350.10971	0.205010
3348.18104	0.205414
3346.25236	0.205778
3344.32369	0.206109
3342.39501	0.206454
3340.46633	0.206809
3338.53766	0.207137
3336.60898	0.207476
3334.68031	0.207856
3332.75163	0.208222
3330.82296	0.208579
3328.89428	0.208972
3326.96560	0.209373
3325.03693	0.209753
3323.10825	0.210126
3321.17958	0.210506
3319.25090	0.210914
3317.32223	0.211341
3315.39355	0.211751
3313.46487	0.212132
3311.53620	0.212483
3309.60752	0.212823
3307.67885	0.213182
3305.75017	0.213567
3303.82150	0.213958
3301.89282	0.214325
3299.96414	0.214677
3298.03547	0.215066
3296.10679	0.215496
3294.17812	0.215927
3292.24944	0.216338
3290.32077	0.216746
3288.39209	0.217157
3286.46341	0.217566
3284.53474	0.217993
3282.60606	0.218454
3280.67739	0.218900
3278.74871	0.219263
3276.82004	0.219579
3274.89136	0.219949
3272.96268	0.220389
3271.03401	0.220837
3269.10533	0.221280
3267.17666	0.221714
3265.24798	0.222093
3263.31931	0.222451
3261.39063	0.222860
3259.46195	0.223285
3257.53328	0.223668
3255.60460	0.224050
3253.67593	0.224479
3251.74725	0.224929
3249.81858	0.225368
3247.88990	0.225763
3245.96122	0.226140
3244.03255	0.226572
3242.10387	0.227023
3240.17520	0.227437
3238.24652	0.227839
3236.31785	0.228259
3234.38917	0.228704
3232.46049	0.229110
3230.53182	0.229442
3228.60314	0.229794
3226.67447	0.230219
3224.74579	0.230655
3222.81712	0.231052
3220.88844	0.231421
3218.95976	0.231801
3217.03109	0.232198
3215.10241	0.232564
3213.17374	0.232910
3211.24506	0.233295
3209.31639	0.233731
3207.38771	0.234195
3205.45903	0.234635
3203.53036	0.235028
3201.60168	0.235432
3199.67301	0.235896
3197.74433	0.236392
3195.81566	0.236869
3193.88698	0.237315
3191.95830	0.237740
3190.02963	0.238153
3188.10095	0.238583
3186.17228	0.239046
3184.24360	0.239510
3182.31493	0.239932
3180.38625	0.240323
3178.45757	0.240738
3176.52890	0.241196
3174.60022	0.241649
3172.67155	0.242083
3170.74287	0.242527
3168.81420	0.242971
3166.88552	0.243376
3164.95684	0.243749
3163.02817	0.244133
3161.09949	0.244554
3159.17082	0.244986
3157.24214	0.245392
3155.31347	0.245801
3153.38479	0.246245
3151.45611	0.246691
3149.52744	0.247109
3147.59876	0.247510
3145.67009	0.247918
3143.74141	0.248326
3141.81274	0.248739
3139.88406	0.249177
3137.95538	0.249612
3136.02671	0.250003
3134.09803	0.250389
3132.16936	0.250846
3130.24068	0.251344
3128.31201	0.251792
3126.38333	0.252184
3124.45465	0.252564
3122.52598	0.252976
3120.59730	0.253432
3118.66863	0.253884
3116.73995	0.254296
3114.81128	0.254689
3112.88260	0.255105
3110.95392	0.255567
3109.02525	0.256040
3107.09657	0.256460
3105.16790	0.256834
3103.23922	0.257223
3101.31055	0.257632
3099.38187	0.258031
3097.45319	0.258436
3095.52452	0.258872
3093.59584	0.259337
3091.66717	0.259819
3089.73849	0.260286
3087.80982	0.260713
3085.88114	0.261117
3083.95246	0.261535
3082.02379	0.261960
3080.09511	0.262377
3078.16644	0.262814
3076.23776	0.263272
3074.30909	0.263710
3072.38041	0.264124
3070.45173	0.264535
3068.52306	0.264921
3066.59438	0.265282
3064.66571	0.265667
3062.73703	0.266109
3060.80836	0.266580
3058.87968	0.267044
3056.95100	0.267508
3055.02233	0.267973
3053.09365	0.268430
3051.16498	0.268871
3049.23630	0.269285
3047.30763	0.269684
3045.37895	0.270067
3043.45027	0.270420
3041.52160	0.270797
3039.59292	0.271244
3037.66425	0.271717
3035.73557	0.272140
3033.80690	0.272519
3031.87822	0.272922
3029.94954	0.273365
3028.02087	0.273805
3026.09219	0.274220
3024.16352	0.274647
3022.23484	0.275117
3020.30617	0.275583
3018.37749	0.276002
3016.44881	0.276423
3014.52014	0.276870
3012.59146	0.277311
3010.66279	0.277751
3008.73411	0.278145
3006.80544	0.278467
3004.87676	0.278824
3002.94808	0.279258
3001.01941	0.279718
2999.09073	0.280164
2997.16206	0.280587
2995.23338	0.280990
2993.30471	0.281406
2991.37603	0.281855
2989.44735	0.282267
2987.51868	0.282584
2985.59000	0.282859
2983.66133	0.283116
2981.73265	0.283314
2979.80398	0.283458
2977.87530	0.283586
2975.94662	0.283698
2974.01795	0.283767
2972.08927	0.283768
2970.16060	0.283674
2968.23192	0.283546
2966.30325	0.283518
2964.37457	0.283633
2962.44589	0.283857
2960.51722	0.284193
2958.58854	0.284636
2956.65987	0.285161
2954.73119	0.285758
2952.80252	0.286377
2950.87384	0.286941
2948.94516	0.287393
2947.01649	0.287746
2945.08781	0.288047
2943.15914	0.288266
2941.23046	0.288366
2939.30179	0.288373
2937.37311	0.288326
2935.44443	0.288232
2933.51576	0.288049
2931.58708	0.287774
2929.65841	0.287501
2927.72973	0.287305
2925.80106	0.287174
2923.87238	0.287109
2921.94370	0.287168
2920.01503	0.287410
2918.08635	0.287940
2916.15768	0.288932
2914.22900	0.290401
2912.30033	0.292041
2910.37165	0.293518
2908.44297	0.294724
2906.51430	0.295692
2904.58562	0.296506
2902.65695	0.297228
2900.72827	0.297900
2898.79960	0.298583
2896.87092	0.299267
2894.94224	0.299917
2893.01357	0.300558
2891.08489	0.301184
2889.15622	0.301773
2887.22754	0.302336
2885.29887	0.302868
2883.37019	0.303366
2881.44151	0.303843
2879.51284	0.304294
2877.58416	0.304717
2875.65549	0.305123
2873.72681	0.305516
2871.79814	0.305902
2869.86946	0.306308
2867.94078	0.306711
2866.01211	0.307045
2864.08343	0.307294
2862.15476	0.307470
2860.22608	0.307549
2858.29741	0.307504
2856.36873	0.307356
2854.44005	0.307163
2852.51138	0.307002
2850.58270	0.307165
2848.65403	0.308091
2846.72535	0.309734
2844.79668	0.311487
2842.86800	0.312934
2840.93932	0.314069
2839.01065	0.314958
2837.08197	0.315661
2835.15330	0.316302
2833.22462	0.316931
2831.29595	0.317518
2829.36727	0.318093
2827.43859	0.318669
2825.50992	0.319213
2823.58124	0.319751
2821.65257	0.320269
2819.72389	0.320736
2817.79522	0.321208
2815.86654	0.321729
2813.93786	0.322274
2812.00919	0.322807
2810.08051	0.323320
2808.15184	0.323829
2806.22316	0.324347
2804.29449	0.324865
2802.36581	0.325353
2800.43713	0.325798
2798.50846	0.326244
2796.57978	0.326746
2794.65111	0.327292
2792.72243	0.327810
2790.79376	0.328266
2788.86508	0.328704
2786.93640	0.329167
2785.00773	0.329662
2783.07905	0.330184
2781.15038	0.330698
2779.22170	0.331182
2777.29303	0.331660
2775.36435	0.332159
2773.43567	0.332655
2771.50700	0.333139
2769.57832	0.333645
2767.64965	0.334133
2765.72097	0.334562
2763.79230	0.334987
2761.86362	0.335463
2759.93494	0.335970
2758.00627	0.336455
2756.07759	0.336923
2754.14892	0.337409
2752.22024	0.337888
2750.29157	0.338332
2748.36289	0.338773
2746.43421	0.339237
2744.50554	0.339695
2742.57686	0.340129
2740.64819	0.340563
2738.71951	0.341021
2736.79084	0.341478
2734.86216	0.341921
2732.93348	0.342395
2731.00481	0.342899
2729.07613	0.343390
2727.14746	0.343858
2725.21878	0.344291
2723.29011	0.344682
2721.36143	0.345094
2719.43275	0.345559
2717.50408	0.346012
2715.57540	0.346438
2713.64673	0.346899
2711.71805	0.347380
2709.78938	0.347829
2707.86070	0.348268
2705.93202	0.348721
2704.00335	0.349153
2702.07467	0.349559
2700.14600	0.349990
2698.21732	0.350473
2696.28865	0.350977
2694.35997	0.351444
2692.43129	0.351856
2690.50262	0.352267
2688.57394	0.352736
2686.64527	0.353227
2684.71659	0.353658
2682.78792	0.354028
2680.85924	0.354434
2678.93056	0.354925
2677.00189	0.355440
2675.07321	0.355917
2673.14454	0.356344
2671.21586	0.356753
2669.28719	0.357171
2667.35851	0.357585
2665.42983	0.358012
2663.50116	0.358467
2661.57248	0.358925
2659.64381	0.359411
2657.71513	0.359961
2655.78646	0.360508
2653.85778	0.360992
2651.92910	0.361436
2650.00043	0.361884
2648.07175	0.362345
2646.14308	0.362794
2644.21440	0.363260
2642.28573	0.363789
2640.35705	0.364316
2638.42837	0.364795
2636.49970	0.365268
2634.57102	0.365761
2632.64235	0.366270
2630.71367	0.366786
2628.78500	0.367300
2626.85632	0.367803
2624.92764	0.368325
2622.99897	0.368865
2621.07029	0.369374
2619.14162	0.369871
2617.21294	0.370404
2615.28427	0.370950
2613.35559	0.371478
2611.42691	0.372002
2609.49824	0.372521
2607.56956	0.372999
2605.64089	0.373464
2603.71221	0.373961
2601.78354	0.374461
2599.85486	0.374947
2597.92618	0.375439
2595.99751	0.375939
2594.06883	0.376462
2592.14016	0.377004
2590.21148	0.377496
2588.28281	0.377928
2586.35413	0.378378
2584.42545	0.378868
2582.49678	0.379350
2580.56810	0.379841
2578.63943	0.380388
2576.71075	0.380921
2574.78208	0.381358
2572.85340	0.381756
2570.92472	0.382216
2568.99605	0.382741
2567.06737	0.383238
2565.13870	0.383666
2563.21002	0.384089
2561.28135	0.384538
2559.35267	0.385006
2557.42399	0.385512
2555.49532	0.386015
2553.56664	0.386483
2551.63797	0.386937
2549.70929	0.387352
2547.78062	0.387726
2545.85194	0.388136
2543.92326	0.388594
2541.99459	0.389053
2540.06591	0.389511
2538.13724	0.389975
2536.20856	0.390431
2534.27989	0.390889
2532.35121	0.391377
2530.42253	0.391903
2528.49386	0.392428
2526.56518	0.392913
2524.63651	0.393372
2522.70783	0.393836
2520.77916	0.394303
2518.85048	0.394775
2516.92181	0.395279
2514.99313	0.395815
2513.06445	0.396360
2511.13578	0.396903
2509.20710	0.397428
2507.27843	0.397939
2505.34975	0.398485
2503.42108	0.399056
2501.49240	0.399577
2499.56372	0.400071
2497.63505	0.400605
2495.70637	0.401146
2493.77770	0.401677
2491.84902	0.402243
2489.92035	0.402842
2487.99167	0.403414
2486.06299	0.403944
2484.13432	0.404484
2482.20564	0.405054
2480.27697	0.405624
2478.34829	0.406161
2476.41962	0.406665
2474.49094	0.407173
2472.56226	0.407691
2470.63359	0.408200
2468.70491	0.408723
2466.77624	0.409264
2464.84756	0.409796
2462.91889	0.410319
2460.99021	0.410824
2459.06153	0.411303
2457.13286	0.411783
2455.20418	0.412282
2453.27551	0.412791
2451.34683	0.413295
2449.41816	0.413806
2447.48948	0.414348
2445.56080	0.414885
2443.63213	0.415412
2441.70345	0.415971
2439.77478	0.416526
2437.84610	0.417017
2435.91743	0.417478
2433.98875	0.417964
2432.06007	0.418465
2430.13140	0.418957
2428.20272	0.419447
2426.27405	0.419939
2424.34537	0.420455
2422.41670	0.420995
2420.48802	0.421524
2418.55934	0.422061
2416.63067	0.422605
2414.70199	0.423076
2412.77332	0.423491
2410.84464	0.423960
2408.91597	0.424488
2406.98729	0.425013
2405.05861	0.425533
2403.12994	0.426045
2401.20126	0.426549
2399.27259	0.427093
2397.34391	0.427648
2395.41524	0.428144
2393.48656	0.428594
2391.55788	0.429037
2389.62921	0.429489
2387.70053	0.429950
2385.77186	0.430388
2383.84318	0.430733
2381.91451	0.430933
2379.98583	0.431019
2378.05715	0.431065
2376.12848	0.431087
2374.19980	0.431097
2372.27113	0.431161
2370.34245	0.431305
2368.41378	0.431503
2366.48510	0.431770
2364.55642	0.432101
2362.62775	0.432461
2360.69907	0.432905
2358.77040	0.433491
2356.84172	0.434171
2354.91305	0.434941
2352.98437	0.435911
2351.05569	0.437022
2349.12702	0.437849
2347.19834	0.438111
2345.26967	0.438123
2343.34099	0.438304
2341.41232	0.438721
2339.48364	0.439235
2337.55496	0.439735
2335.62629	0.440206
2333.69761	0.440667
2331.76894	0.441158
2329.84026	0.441718
2327.91159	0.442333
2325.98291	0.442961
2324.05423	0.443596
2322.12556	0.444273
2320.19688	0.445014
2318.26821	0.445783
2316.33953	0.446540
2314.41086	0.447253
2312.48218	0.447917
2310.55350	0.448575
2308.62483	0.449262
2306.69615	0.449963
2304.76748	0.450638
2302.83880	0.451288
2300.91013	0.451927
2298.98145	0.452516
2297.05277	0.453056
2295.12410	0.453590
2293.19542	0.454112
2291.26675	0.454625
2289.33807	0.455182
2287.40940	0.455747
2285.48072	0.456251
2283.55204	0.456745
2281.62337	0.457300
2279.69469	0.457883
2277.76602	0.458406
2275.83734	0.458836
2273.90867	0.459258
2271.97999	0.459731
2270.05131	0.460222
2268.12264	0.460723
2266.19396	0.461219
2264.26529	0.461664
2262.33661	0.462100
2260.40794	0.462576
2258.47926	0.463075
2256.55058	0.463583
2254.62191	0.464109
2252.69323	0.464653
2250.76456	0.465174
2248.83588	0.465628
2246.90721	0.466048
2244.97853	0.466523
2243.04985	0.467065
2241.12118	0.467567
2239.19250	0.468007
2237.26383	0.468475
2235.33515	0.469000
2233.40648	0.469541
2231.47780	0.470050
2229.54912	0.470522
2227.62045	0.470990
2225.69177	0.471474
2223.76310	0.471959
2221.83442	0.472432
2219.90575	0.472905
2217.97707	0.473378
2216.04839	0.473847
2214.11972	0.474317
2212.19104	0.474776
2210.26237	0.475200
2208.33369	0.475615
2206.40502	0.476078
2204.47634	0.476572
2202.54766	0.477046
2200.61899	0.477521
2198.69031	0.478038
2196.76164	0.478565
2194.83296	0.479071
2192.90429	0.479548
2190.97561	0.479972
2189.04693	0.480349
2187.11826	0.480780
2185.18958	0.481296
2183.26091	0.481782
2181.33223	0.482244
2179.40356	0.482752
2177.47488	0.483240
2175.54620	0.483672
2173.61753	0.484126
2171.68885	0.484638
2169.76018	0.485173
2167.83150	0.485706
2165.90283	0.486199
2163.97415	0.486653
2162.04547	0.487155
2160.11680	0.487722
2158.18812	0.488280
2156.25945	0.488772
2154.33077	0.489196
2152.40210	0.489612
2150.47342	0.490062
2148.54474	0.490546
2146.61607	0.491050
2144.68739	0.491531
2142.75872	0.491963
2140.83004	0.492406
2138.90137	0.492925
2136.97269	0.493480
2135.04401	0.494016
2133.11534	0.494532
2131.18666	0.495022
2129.25799	0.495468
2127.32931	0.495900
2125.40064	0.496356
2123.47196	0.496816
2121.54328	0.497262
2119.61461	0.497728
2117.68593	0.498239
2115.75726	0.498772
2113.82858	0.499278
2111.89991	0.499727
2109.97123	0.500166
2108.04255	0.500641
2106.11388	0.501142
2104.18520	0.501673
2102.25653	0.502216
2100.32785	0.502715
2098.39918	0.503159
2096.47050	0.503614
2094.54182	0.504116
2092.61315	0.504611
2090.68447	0.505055
2088.75580	0.505490
2086.82712	0.505975
2084.89845	0.506478
2082.96977	0.506933
2081.04109	0.507345
2079.11242	0.507788
2077.18374	0.508309
2075.25507	0.508828
2073.32639	0.509269
2071.39772	0.509718
2069.46904	0.510221
2067.54036	0.510692
2065.61169	0.511122
2063.68301	0.511579
2061.75434	0.512054
2059.82566	0.512511
2057.89699	0.512956
2055.96831	0.513418
2054.03963	0.513908
2052.11096	0.514372
2050.18228	0.514805
2048.25361	0.515264
2046.32493	0.515744
2044.39626	0.516206
2042.46758	0.516648
2040.53890	0.517124
2038.61023	0.517629
2036.68155	0.518094
2034.75288	0.518550
2032.82420	0.519039
2030.89553	0.519496
2028.96685	0.519887
2027.03817	0.520307
2025.10950	0.520831
2023.18082	0.521405
2021.25215	0.521906
2019.32347	0.522303
2017.39480	0.522737
2015.46612	0.523321
2013.53744	0.523932
2011.60877	0.524431
2009.68009	0.524871
2007.75142	0.525323
2005.82274	0.525777
2003.89407	0.526234
2001.96539	0.526710
2000.03671	0.527175
1998.10804	0.527616
1996.17936	0.528044
1994.25069	0.528427
1992.32201	0.528817
1990.39334	0.529310
1988.46466	0.529847
1986.53598	0.530327
1984.60731	0.530730
1982.67863	0.531084
1980.74996	0.531434
1978.82128	0.531839
1976.89261	0.532318
1974.96393	0.532786
1973.03525	0.533183
1971.10658	0.533509
1969.17790	0.533750
1967.24923	0.534073
1965.32055	0.534641
1963.39188	0.535255
1961.46320	0.535724
1959.53452	0.536110
1957.60585	0.536490
1955.67717	0.536945
1953.74850	0.537489
1951.81982	0.538001
1949.89115	0.538452
1947.96247	0.538896
1946.03379	0.539240
1944.10512	0.539444
1942.17644	0.539822
1940.24777	0.540506
1938.31909	0.541156
1936.39042	0.541635
1934.46174	0.542085
1932.53306	0.542525
1930.60439	0.542925
1928.67571	0.543358
1926.74704	0.543803
1924.81836	0.544138
1922.88969	0.544475
1920.96101	0.544812
1919.03233	0.545057
1917.10366	0.545585
1915.17498	0.546420
1913.24631	0.547024
1911.31763	0.547350
1909.38896	0.547725
1907.46028	0.548239
1905.53160	0.548794
1903.60293	0.549330
1901.67425	0.549835
1899.74558	0.550245
1897.81690	0.550544
1895.88823	0.550848
1893.95955	0.551265
1892.03087	0.551665
1890.10220	0.552022
1888.17352	0.552553
1886.24485	0.553144
1884.31617	0.553613
1882.38750	0.554076
1880.45882	0.554568
1878.53014	0.555020
1876.60147	0.555432
1874.67279	0.555835
1872.74412	0.556026
1870.81544	0.555856
1868.88677	0.555902
1866.95809	0.556700
1865.02941	0.557802
1863.10074	0.558622
1861.17206	0.559151
1859.24339	0.559589
1857.31471	0.560046
1855.38604	0.560517
1853.45736	0.561002
1851.52868	0.561464
1849.60001	0.561763
1847.67133	0.561689
1845.74266	0.561388
1843.81398	0.561778
1841.88531	0.563085
1839.95663	0.564211
1838.02795	0.564729
1836.09928	0.565194
1834.17060	0.565644
1832.24193	0.565626
1830.31325	0.565467
1828.38458	0.565804
1826.45590	0.566386
1824.52722	0.567057
1822.59855	0.567984
1820.66987	0.568782
1818.74120	0.569240
1816.81252	0.569652
1814.88385	0.570072
1812.95517	0.570294
1811.02649	0.570487
1809.09782	0.570981
1807.16914	0.571611
1805.24047	0.571966
1803.31179	0.571915
1801.38312	0.571838
1799.45444	0.572203
1797.52576	0.572834
1795.59709	0.573095
1793.66841	0.572897
1791.73974	0.573081
1789.81106	0.574046
1787.88239	0.574893
1785.95371	0.575134
1784.02503	0.575318
1782.09636	0.575632
1780.16768	0.576019
1778.23901	0.576514
1776.31033	0.576667
1774.38166	0.576205
1772.45298	0.575835
1770.52430	0.576158
1768.59563	0.576917
1766.66695	0.577863
1764.73828	0.578534
1762.80960	0.578596
1760.88093	0.578661
1758.95225	0.578870
1757.02357	0.578989
1755.09490	0.578996
1753.16622	0.578386
1751.23755	0.577473
1749.30887	0.577341
1747.38020	0.577872
1745.45152	0.578290
1743.52284	0.578379
1741.59417	0.578297
1739.66549	0.578428
1737.73682	0.578478
1735.80814	0.577727
1733.87947	0.577380
1731.95079	0.578648
1730.02211	0.580367
1728.09344	0.581576
1726.16476	0.582326
1724.23609	0.582748
1722.30741	0.582811
1720.37874	0.582085
1718.45006	0.581133
1716.52138	0.581341
1714.59271	0.582766
1712.66403	0.584270
1710.73536	0.585037
1708.80668	0.584934
1706.87801	0.584439
1704.94933	0.584082
1703.02065	0.583265
1701.09198	0.582102
1699.16330	0.582077
1697.23463	0.582868
1695.30595	0.583781
1693.37728	0.585019
1691.44860	0.585667
1689.51992	0.585468
1687.59125	0.584764
1685.66257	0.583535
1683.73390	0.583102
1681.80522	0.584206
1679.87655	0.585457
1677.94787	0.585592
1676.01919	0.585061
1674.09052	0.584951
1672.16184	0.584967
1670.23317	0.584820
1668.30449	0.585489
1666.37582	0.586599
1664.44714	0.586866
1662.51846	0.586857
1660.58979	0.587397
1658.66111	0.587748
1656.73244	0.586615
1654.80376	0.584228
1652.87509	0.583329
1650.94641	0.584770
1649.01773	0.585746
1647.08906	0.585764
1645.16038	0.586712
1643.23171	0.588143
1641.30303	0.588685
1639.37436	0.588143
1637.44568	0.587026
1635.51700	0.586736
1633.58833	0.587979
1631.65965	0.589207
1629.73098	0.589233
1627.80230	0.588686
1625.87363	0.587865
1623.94495	0.586617
1622.01627	0.585591
1620.08760	0.585303
1618.15892	0.585861
1616.23025	0.587684
1614.30157	0.590270
1612.37290	0.592196
1610.44422	0.593158
1608.51554	0.593860
1606.58687	0.594644
1604.65819	0.595406
1602.72952	0.596099
1600.80084	0.596740
1598.87217	0.597237
1596.94349	0.597589
1595.01481	0.597978
1593.08614	0.598486
1591.15746	0.599029
1589.22879	0.599571
1587.30011	0.600086
1585.37144	0.600524
1583.44276	0.600963
1581.51408	0.601382
1579.58541	0.601369
1577.65673	0.600919
1575.72806	0.601114
1573.79938	0.602088
1571.87071	0.602460
1569.94203	0.602377
1568.01335	0.602969
1566.08468	0.603871
1564.15600	0.604243
1562.22733	0.603290
1560.29865	0.601290
1558.36998	0.600764
1556.44130	0.602577
1554.51262	0.604669
1552.58395	0.605837
1550.65527	0.606372
1548.72660	0.606677
1546.79792	0.606567
1544.86925	0.605765
1542.94057	0.604728
1541.01189	0.604334
1539.08322	0.605440
1537.15454	0.607229
1535.22587	0.607889
1533.29719	0.607969
1531.36852	0.608695
1529.43984	0.609215
1527.51116	0.608973
1525.58249	0.608601
1523.65381	0.607924
1521.72514	0.607256
1519.79646	0.607678
1517.86779	0.608739
1515.93911	0.609710
1514.01043	0.610507
1512.08176	0.610684
1510.15308	0.609967
1508.22441	0.609040
1506.29573	0.609504
1504.36706	0.611565
1502.43838	0.613109
1500.50970	0.613062
1498.58103	0.612559
1496.65235	0.612827
1494.72368	0.613687
1492.79500	0.613874
1490.86633	0.613210
1488.93765	0.613001
1487.00897	0.613790
1485.08030	0.614739
1483.15162	0.615113
1481.22295	0.615084
1479.29427	0.614856
1477.36560	0.614163
1475.43692	0.613028
1473.50824	0.612070
1471.57957	0.612048
1469.65089	0.612653
1467.72222	0.612699
1465.79354	0.612344
1463.86487	0.612621
1461.93619	0.612979
1460.00751	0.611998
1458.07884	0.610433
1456.15016	0.610697
1454.22149	0.612766
1452.29281	0.614448
1450.36414	0.614973
1448.43546	0.615136
1446.50678	0.615661
1444.57811	0.616410
1442.64943	0.616905
1440.72076	0.616821
1438.79208	0.615907
1436.86341	0.615199
1434.93473	0.615898
1433.00605	0.616967
1431.07738	0.617323
1429.14870	0.617533
1427.22003	0.617738
1425.29135	0.617519
1423.36268	0.616968
1421.43400	0.615991
1419.50532	0.615036
1417.57665	0.615270
1415.64797	0.616311
1413.71930	0.616914
1411.79062	0.617001
1409.86195	0.616986
1407.93327	0.616863
1406.00459	0.616608
1404.07592	0.616536
1402.14724	0.616491
1400.21857	0.616062
1398.28989	0.615500
1396.36122	0.615195
1394.43254	0.615448
1392.50386	0.616110
1390.57519	0.616097
1388.64651	0.615039
1386.71784	0.614064
1384.78916	0.613948
1382.86049	0.614327
1380.93181	0.614694
1379.00313	0.614803
1377.07446	0.614510
1375.14578	0.614099
1373.21711	0.614179
1371.28843	0.614625
1369.35976	0.614854
1367.43108	0.614812
1365.50240	0.614452
1363.57373	0.613900
1361.64505	0.613823
1359.71638	0.614322
1357.78770	0.614808
1355.85903	0.614989
1353.93035	0.615103
1352.00167	0.615375
1350.07300	0.615760
1348.14432	0.616185
1346.21565	0.616580
1344.28697	0.616750
1342.35830	0.616527
1340.42962	0.616138
1338.50094	0.616059
1336.57227	0.616376
1334.64359	0.616739
1332.71492	0.616905
1330.78624	0.616905
1328.85757	0.616840
1326.92889	0.616721
1325.00021	0.616486
1323.07154	0.616163
1321.14286	0.615819
1319.21419	0.615512
1317.28551	0.615276
1315.35684	0.614994
1313.42816	0.614597
1311.49948	0.614174
1309.57081	0.613729
1307.64213	0.613172
1305.71346	0.612508
1303.78478	0.611850
1301.85611	0.611263
1299.92743	0.610709
1297.99875	0.610103
1296.07008	0.609430
1294.14140	0.608794
1292.21273	0.608187
1290.28405	0.607452
1288.35538	0.606579
1286.42670	0.605686
1284.49802	0.604774
1282.56935	0.603783
1280.64067	0.602683
1278.71200	0.601441
1276.78332	0.600043
1274.85465	0.598417
1272.92597	0.596423
1270.99729	0.593946
1269.06862	0.590962
1267.13994	0.587708
1265.21127	0.584711
1263.28259	0.582480
1261.35392	0.581177
1259.42524	0.580685
1257.49656	0.580707
1255.56789	0.580693
1253.63921	0.580220
1251.71054	0.579321
1249.78186	0.578116
1247.85319	0.576645
1245.92451	0.574991
1243.99583	0.573199
1242.06716	0.571288
1240.13848	0.569340
1238.20981	0.567376
1236.28113	0.565347
1234.35246	0.563302
1232.42378	0.561336
1230.49510	0.559487
1228.56643	0.557747
1226.63775	0.556048
1224.70908	0.554359
1222.78040	0.552720
1220.85173	0.551102
1218.92305	0.549437
1216.99437	0.547713
1215.06570	0.545950
1213.13702	0.544200
1211.20835	0.542535
1209.27967	0.540965
1207.35100	0.539437
1205.42232	0.537860
1203.49364	0.536208
1201.56497	0.534553
1199.63629	0.532936
1197.70762	0.531363
1195.77894	0.529792
1193.85027	0.528125
1191.92159	0.526311
1189.99291	0.524366
1188.06424	0.522339
1186.13556	0.520246
1184.20689	0.518095
1182.27821	0.515946
1180.34954	0.513758
1178.42086	0.511418
1176.49218	0.508941
1174.56351	0.506427
1172.63483	0.503898
1170.70616	0.501327
1168.77748	0.498742
1166.84881	0.496206
1164.92013	0.493697
1162.99145	0.491166
1161.06278	0.488719
1159.13410	0.486477
1157.20543	0.484392
1155.27675	0.482313
1153.34808	0.480184
1151.41940	0.478131
1149.49072	0.476226
1147.56205	0.474368
1145.63337	0.472558
1143.70470	0.470794
1141.77602	0.468937
1139.84735	0.466977
1137.91867	0.465035
1135.98999	0.463177
1134.06132	0.461345
1132.13264	0.459395
1130.20397	0.457227
1128.27529	0.454929
1126.34662	0.452664
1124.41794	0.450419
1122.48926	0.448119
1120.56059	0.445782
1118.63191	0.443398
1116.70324	0.440950
1114.77456	0.438503
1112.84589	0.436067
1110.91721	0.433574
1108.98853	0.431048
1107.05986	0.428585
1105.13118	0.426277
1103.20251	0.424150
1101.27383	0.422064
1099.34516	0.419962
1097.41648	0.417903
1095.48780	0.415867
1093.55913	0.413882
1091.63045	0.412023
1089.70178	0.410287
1087.77310	0.408620
1085.84443	0.406963
1083.91575	0.405314
1081.98707	0.403761
1080.05840	0.402304
1078.12972	0.400859
1076.20105	0.399531
1074.27237	0.398499
1072.34370	0.397727
1070.41502	0.397094
1068.48634	0.396620
1066.55767	0.396403
1064.62899	0.396470
1062.70032	0.396703
1060.77164	0.396963
1058.84297	0.397329
1056.91429	0.397909
1054.98561	0.398594
1053.05694	0.399293
1051.12826	0.400022
1049.19959	0.400812
1047.27091	0.401718
1045.34224	0.402741
1043.41356	0.403860
1041.48488	0.405107
1039.55621	0.406472
1037.62753	0.407851
1035.69886	0.409147
1033.77018	0.410392
1031.84151	0.411613
1029.91283	0.412784
1027.98415	0.414013
1026.05548	0.415349
1024.12680	0.416664
1022.19813	0.417999
1020.26945	0.419558
1018.34078	0.421385
1016.41210	0.423366
1014.48342	0.425428
1012.55475	0.427613
1010.62607	0.429960
1008.69740	0.432427
1006.76872	0.434911
1004.84005	0.437227
1002.91137	0.439255
1000.98269	0.441046
999.05402	0.442688
997.12534	0.444202
995.19667	0.445592
993.26799	0.446925
991.33932	0.448213
989.41064	0.449397
987.48196	0.450534
985.55329	0.451715
983.62461	0.452915
981.69594	0.453997
979.76726	0.454776
977.83859	0.455219
975.90991	0.455487
973.98123	0.455710
972.05256	0.455820
970.12388	0.455775
968.19521	0.455676
966.26653	0.455448
964.33786	0.455021
962.40918	0.454610
960.48050	0.454275
958.55183	0.453835
956.62315	0.453243
954.69448	0.452519
952.76580	0.451640
950.83713	0.450669
948.90845	0.449650
946.97977	0.448519
945.05110	0.447279
943.12242	0.446055
941.19375	0.444877
939.26507	0.443610
937.33640	0.442199
935.40772	0.440785
933.47904	0.439496
931.55037	0.438241
929.62169	0.436812
927.69302	0.435167
925.76434	0.433497
923.83567	0.431915
921.90699	0.430337
919.97831	0.428763
918.04964	0.427279
916.12096	0.425820
914.19229	0.424231
912.26361	0.422501
910.33494	0.420783
908.40626	0.419106
906.47758	0.417401
904.54891	0.415755
902.62023	0.414227
900.69156	0.412671
898.76288	0.410992
896.83421	0.409303
894.90553	0.407666
892.97685	0.405951
891.04818	0.404186
889.11950	0.402556
887.19083	0.400997
885.26215	0.399374
883.33348	0.397761
881.40480	0.396212
879.47612	0.394707
877.54745	0.393255
875.61877	0.391888
873.69010	0.390627
871.76142	0.389425
869.83275	0.388198
867.90407	0.386841
865.97539	0.385342
864.04672	0.383821
862.11804	0.382291
860.18937	0.380745
858.26069	0.379292
856.33202	0.377963
854.40334	0.376674
852.47466	0.375386
850.54599	0.374088
848.61731	0.372727
846.68864	0.371275
844.75996	0.369786
842.83129	0.368393
840.90261	0.367158
838.97394	0.365957
837.04526	0.364630
835.11658	0.363197
833.18791	0.361832
831.25923	0.360559
829.33056	0.359142
827.40188	0.357462
825.47321	0.355786
823.54453	0.354342
821.61585	0.352979
819.68718	0.351616
817.75850	0.350341
815.82983	0.349028
813.90115	0.347568
811.97248	0.346080
810.04380	0.344656
808.11512	0.343319
806.18645	0.342081
804.25777	0.340971
802.32910	0.340004
800.40042	0.339137
798.47175	0.338353
796.54307	0.337673
794.61439	0.337219
792.68572	0.337086
790.75704	0.337114
788.82837	0.337054
786.89969	0.336785
784.97102	0.336356
783.04234	0.335919
781.11366	0.335483
779.18499	0.334950
777.25631	0.334408
775.32764	0.333951
773.39896	0.333503
771.47029	0.332996
769.54161	0.332352
767.61293	0.331480
765.68426	0.330458
763.75558	0.329431
761.82691	0.328438
759.89823	0.327448
757.96956	0.326438
756.04088	0.325352
754.11220	0.324138
752.18353	0.322879
750.25485	0.321643
748.32618	0.320337
746.39750	0.318971
744.46883	0.317699
742.54015	0.316581
740.61147	0.315559
738.68280	0.314521
736.75412	0.313453
734.82545	0.312429
732.89677	0.311455
730.96810	0.310519
729.03942	0.309536
727.11074	0.308459
725.18207	0.307404
723.25339	0.306360
721.32472	0.305254
719.39604	0.304124
717.46737	0.302969
715.53869	0.301775
713.61001	0.300587
711.68134	0.299434
709.75266	0.298325
707.82399	0.297304
705.89531	0.296366
703.96664	0.295387
702.03796	0.294260
700.10928	0.293082
698.18061	0.292063
696.25193	0.291132
694.32326	0.289956
692.39458	0.288577
690.46591	0.287329
688.53723	0.286181
686.60855	0.284959
684.67988	0.283748
682.75120	0.282562
680.82253	0.281157
678.89385	0.279464
676.96518	0.277730
675.03650	0.276010
673.10782	0.274024
671.17915	0.271458
669.25047	0.268622
667.32180	0.266525
665.39312	0.265168
663.46445	0.263487
661.53577	0.261241
659.60709	0.258834
657.67842	0.256451
655.74974	0.254126
653.82107	0.251839
651.89239	0.249610
649.96372	0.247422
648.03504	0.245203
646.10636	0.242908
644.17769	0.240434
642.24901	0.237773
640.32034	0.235024
638.39166	0.232191
636.46299	0.229249
634.53431	0.226227
632.60563	0.223210
630.67696	0.220329
628.74828	0.217589
626.81961	0.214805
624.89093	0.211851
622.96226	0.208843
621.03358	0.206006
619.10490	0.203402
617.17623	0.200826
615.24755	0.197930
613.31888	0.194672
611.39020	0.191516
609.46153	0.188737
607.53285	0.186048
605.60417	0.183270
603.67550	0.180527
601.74682	0.177951
599.81815	0.175617
597.88947	0.173393
595.96080	0.171153
594.03212	0.169064
592.10344	0.167290
590.17477	0.165744
588.24609	0.164193
586.31742	0.162511
584.38874	0.160687
582.46007	0.158712
580.53139	0.156718
578.60271	0.154839
576.67404	0.153021
574.74536	0.151324
572.81669	0.149841
570.88801	0.148344
568.95934	0.146651
567.03066	0.144990
565.10198	0.143583
563.17331	0.142263
561.24463	0.140874
559.31596	0.139571
557.38728	0.138351
555.45861	0.137046
553.52993	0.135729
551.60125	0.134536
549.67258	0.133448
547.74390	0.132415
545.81523	0.131453
543.88655	0.130541
541.95788	0.129651
540.02920	0.128748
538.10052	0.127750
536.17185	0.126722
534.24317	0.125722
532.31450	0.124640
530.38582	0.123470
528.45715	0.122311
526.52847	0.121131
524.59979	0.119814
522.67112	0.118419
520.74244	0.117061
518.81377	0.115703
516.88509	0.114309
514.95642	0.112915
513.02774	0.111592
511.09906	0.110326
509.17039	0.108978
507.24171	0.107541
505.31304	0.106050
503.38436	0.104463
501.45569	0.102810
499.52701	0.101082
497.59833	0.099220
495.66966	0.097247
493.74098	0.095237
491.81231	0.093310
489.88363	0.091510
487.95496	0.089656
486.02628	0.087630
484.09760	0.085594
482.16893	0.083635
480.24025	0.081675
478.31158	0.079711
476.38290	0.077694
474.45423	0.075689
472.52555	0.073980
470.59687	0.072587
468.66820	0.071329
466.73952	0.070214
464.81085	0.069248
462.88217	0.068502
460.95350	0.068077
459.02482	0.067750
457.09614	0.067432
455.16747	0.067342
453.23879	0.067372
451.31012	0.067288
449.38144	0.067150
447.45277	0.066963
445.52409	0.066528
443.59541	0.065812
441.66674	0.064982
439.73806	0.064116
437.80939	0.063057
435.88071	0.061713
433.95204	0.060298
432.02336	0.058857
430.09468	0.057168
428.16601	0.055261
426.23733	0.053294
424.30866	0.051288
422.37998	0.049318
420.45131	0.047445
418.52263	0.045576
416.59395	0.043698
414.66528	0.041822
412.73660	0.039866
410.80793	0.037841
408.87925	0.035812
406.95058	0.033898
405.02190	0.032189
403.09322	0.030525
401.16455	0.028711
399.23587	0.026800
397.30720	0.024994
395.37852	0.023438
393.44985	0.022117
391.52117	0.020793
389.59249	0.019319
387.66382	0.017901
385.73514	0.016705
383.80647	0.015645
381.87779	0.014554
379.94912	0.013427
378.02044	0.012409
376.09176	0.011401
374.16309	0.010200
372.23441	0.008908
370.30574	0.007918
368.37706	0.007328
