7496.76250	0.00123
7494.83382	0.00123
7492.90514	0.00124
7490.97647	0.00124
7489.04779	0.00124
7487.11912	0.00123
7485.19044	0.00123
7483.26177	0.00123
7481.33309	0.00123
7479.40441	0.00122
7477.47574	0.00122
7475.54706	0.00121
7473.61839	0.00122
7471.68971	0.00123
7469.76104	0.00124
7467.83236	0.00123
7465.90368	0.00123
7463.97501	0.00123
7462.04633	0.00124
7460.11766	0.00123
7458.18898	0.00124
7456.26031	0.00126
7454.33163	0.00128
7452.40295	0.00129
7450.47428	0.00129
7448.54560	0.00129
7446.61693	0.00129
7444.68825	0.00129
7442.75958	0.00129
7440.83090	0.00130
7438.90222	0.00130
7436.97355	0.00131
7435.04487	0.00131
7433.11620	0.00132
7431.18752	0.00132
7429.25885	0.00133
7427.33017	0.00132
7425.40149	0.00132
7423.47282	0.00132
7421.54414	0.00133
7419.61547	0.00134
7417.68679	0.00134
7415.75812	0.00133
7413.82944	0.00131
7411.90076	0.00131
7409.97209	0.00131
7408.04341	0.00132
7406.11474	0.00133
7404.18606	0.00134
7402.25739	0.00136
7400.32871	0.00137
7398.40003	0.00138
7396.47136	0.00138
7394.54268	0.00138
7392.61401	0.00138
7390.68533	0.00139
7388.75666	0.00140
7386.82798	0.00141
7384.89930	0.00141
7382.97063	0.00141
7381.04195	0.00140
7379.11328	0.00141
7377.18460	0.00141
7375.25593	0.00141
7373.32725	0.00141
7371.39857	0.00143
7369.46990	0.00144
7367.54122	0.00145
7365.61255	0.00145
7363.68387	0.00144
7361.75520	0.00145
7359.82652	0.00146
7357.89784	0.00147
7355.96917	0.00147
7354.04049	0.00146
7352.11182	0.00145
7350.18314	0.00145
7348.25447	0.00145
7346.32579	0.00144
7344.39711	0.00145
7342.46844	0.00147
7340.53976	0.00149
7338.61109	0.00148
7336.68241	0.00147
7334.75374	0.00148
7332.82506	0.00151
7330.89638	0.00152
7328.96771	0.00151
7327.03903	0.00150
7325.11036	0.00150
7323.18168	0.00151
7321.25301	0.00151
7319.32433	0.00151
7317.39565	0.00152
7315.46698	0.00153
7313.53830	0.00154
7311.60963	0.00155
7309.68095	0.00156
7307.75228	0.00155
7305.82360	0.00154
7303.89492	0.00154
7301.96625	0.00155
7300.03757	0.00157
7298.10890	0.00157
7296.18022	0.00156
7294.25155	0.00157
7292.32287	0.00157
7290.39419	0.00157
7288.46552	0.00159
7286.53684	0.00160
7284.60817	0.00161
7282.67949	0.00160
7280.75082	0.00159
7278.82214	0.00159
7276.89346	0.00159
7274.96479	0.00159
7273.03611	0.00159
7271.10744	0.00159
7269.17876	0.00159
7267.25009	0.00160
7265.32141	0.00162
7263.39273	0.00164
7261.46406	0.00165
7259.53538	0.00164
7257.60671	0.00163
7255.67803	0.00162
7253.74936	0.00161
7251.82068	0.00161
7249.89200	0.00162
7247.96333	0.00163
7246.03465	0.00163
7244.10598	0.00163
7242.17730	0.00164
7240.24863	0.00165
7238.31995	0.00166
7236.39127	0.00167
7234.46260	0.00167
7232.53392	0.00168
7230.60525	0.00169
7228.67657	0.00169
7226.74790	0.00168
7224.81922	0.00168
7222.89054	0.00168
7220.96187	0.00169
7219.03319	0.00170
7217.10452	0.00171
7215.17584	0.00172
7213.24717	0.00172
7211.31849	0.00172
7209.38981	0.00171
7207.46114	0.00170
7205.53246	0.00171
7203.60379	0.00174
7201.67511	0.00176
7199.74644	0.00177
7197.81776	0.00176
7195.88908	0.00177
7193.96041	0.00177
7192.03173	0.00178
7190.10306	0.00177
7188.17438	0.00176
7186.24571	0.00175
7184.31703	0.00174
7182.38835	0.00175
7180.45968	0.00179
7178.53100	0.00182
7176.60233	0.00183
7174.67365	0.00183
7172.74498	0.00182
7170.81630	0.00182
7168.88762	0.00182
7166.95895	0.00183
7165.03027	0.00182
7163.10160	0.00182
7161.17292	0.00182
7159.24425	0.00183
7157.31557	0.00184
7155.38689	0.00185
7153.45822	0.00186
7151.52954	0.00187
7149.60087	0.00189
7147.67219	0.00189
7145.74352	0.00189
7143.81484	0.00189
7141.88616	0.00187
7139.95749	0.00187
7138.02881	0.00187
7136.10014	0.00187
7134.17146	0.00187
7132.24279	0.00188
7130.31411	0.00190
7128.38543	0.00190
7126.45676	0.00190
7124.52808	0.00190
7122.59941	0.00191
7120.67073	0.00192
7118.74206	0.00193
7116.81338	0.00194
7114.88470	0.00194
7112.95603	0.00193
7111.02735	0.00193
7109.09868	0.00193
7107.17000	0.00194
7105.24133	0.00195
7103.31265	0.00196
7101.38397	0.00198
7099.45530	0.00200
7097.52662	0.00199
7095.59795	0.00197
7093.66927	0.00198
7091.74060	0.00198
7089.81192	0.00198
7087.88324	0.00199
7085.95457	0.00200
7084.02589	0.00201
7082.09722	0.00201
7080.16854	0.00201
7078.23987	0.00202
7076.31119	0.00203
7074.38251	0.00204
7072.45384	0.00204
7070.52516	0.00204
7068.59649	0.00204
7066.66781	0.00204
7064.73914	0.00204
7062.81046	0.00205
7060.88178	0.00206
7058.95311	0.00205
7057.02443	0.00206
7055.09576	0.00207
7053.16708	0.00208
7051.23841	0.00208
7049.30973	0.00209
7047.38105	0.00209
7045.45238	0.00211
7043.52370	0.00212
7041.59503	0.00211
7039.66635	0.00210
7037.73768	0.00210
7035.80900	0.00210
7033.88032	0.00210
7031.95165	0.00211
7030.02297	0.00213
7028.09430	0.00215
7026.16562	0.00215
7024.23695	0.00214
7022.30827	0.00213
7020.37959	0.00213
7018.45092	0.00213
7016.52224	0.00214
7014.59357	0.00216
7012.66489	0.00218
7010.73622	0.00219
7008.80754	0.00220
7006.87886	0.00221
7004.95019	0.00221
7003.02151	0.00219
7001.09284	0.00219
6999.16416	0.00219
6997.23549	0.00220
6995.30681	0.00220
6993.37813	0.00220
6991.44946	0.00220
6989.52078	0.00222
6987.59211	0.00224
6985.66343	0.00225
6983.73476	0.00226
6981.80608	0.00227
6979.87740	0.00227
6977.94873	0.00227
6976.02005	0.00228
6974.09138	0.00227
6972.16270	0.00226
6970.23403	0.00226
6968.30535	0.00226
6966.37667	0.00227
6964.44800	0.00229
6962.51932	0.00229
6960.59065	0.00229
6958.66197	0.00229
6956.73330	0.00229
6954.80462	0.00229
6952.87594	0.00230
6950.94727	0.00229
6949.01859	0.00229
6947.08992	0.00231
6945.16124	0.00233
6943.23257	0.00234
6941.30389	0.00235
6939.37521	0.00236
6937.44654	0.00237
6935.51786	0.00236
6933.58919	0.00235
6931.66051	0.00236
6929.73184	0.00238
6927.80316	0.00240
6925.87448	0.00241
6923.94581	0.00240
6922.01713	0.00238
6920.08846	0.00239
6918.15978	0.00240
6916.23111	0.00241
6914.30243	0.00241
6912.37375	0.00241
6910.44508	0.00242
6908.51640	0.00242
6906.58773	0.00243
6904.65905	0.00243
6902.73038	0.00243
6900.80170	0.00244
6898.87302	0.00246
6896.94435	0.00247
6895.01567	0.00248
6893.08700	0.00248
6891.15832	0.00247
6889.22965	0.00247
6887.30097	0.00248
6885.37229	0.00248
6883.44362	0.00248
6881.51494	0.00249
6879.58627	0.00249
6877.65759	0.00250
6875.72892	0.00252
6873.80024	0.00253
6871.87156	0.00252
6869.94289	0.00252
6868.01421	0.00252
6866.08554	0.00252
6864.15686	0.00253
6862.22819	0.00255
6860.29951	0.00256
6858.37083	0.00257
6856.44216	0.00258
6854.51348	0.00259
6852.58481	0.00259
6850.65613	0.00259
6848.72746	0.00259
6846.79878	0.00260
6844.87010	0.00260
6842.94143	0.00259
6841.01275	0.00259
6839.08408	0.00259
6837.15540	0.00261
6835.22673	0.00262
6833.29805	0.00263
6831.36937	0.00263
6829.44070	0.00264
6827.51202	0.00264
6825.58335	0.00265
6823.65467	0.00266
6821.72600	0.00268
6819.79732	0.00270
6817.86864	0.00270
6815.93997	0.00269
6814.01129	0.00269
6812.08262	0.00269
6810.15394	0.00269
6808.22527	0.00268
6806.29659	0.00270
6804.36791	0.00272
6802.43924	0.00274
6800.51056	0.00274
6798.58189	0.00274
6796.65321	0.00275
6794.72454	0.00276
6792.79586	0.00276
6790.86718	0.00275
6788.93851	0.00276
6787.00983	0.00276
6785.08116	0.00276
6783.15248	0.00274
6781.22381	0.00275
6779.29513	0.00276
6777.36645	0.00278
6775.43778	0.00279
6773.50910	0.00279
6771.58043	0.00280
6769.65175	0.00282
6767.72308	0.00283
6765.79440	0.00282
6763.86572	0.00281
6761.93705	0.00281
6760.00837	0.00283
6758.07970	0.00285
6756.15102	0.00285
6754.22235	0.00284
6752.29367	0.00286
6750.36499	0.00288
6748.43632	0.00289
6746.50764	0.00289
6744.57897	0.00289
6742.65029	0.00289
6740.72162	0.00289
6738.79294	0.00289
6736.86426	0.00290
6734.93559	0.00292
6733.00691	0.00293
6731.07824	0.00293
6729.14956	0.00293
6727.22089	0.00294
6725.29221	0.00296
6723.36353	0.00297
6721.43486	0.00298
6719.50618	0.00298
6717.57751	0.00298
6715.64883	0.00299
6713.72016	0.00300
6711.79148	0.00301
6709.86280	0.00301
6707.93413	0.00300
6706.00545	0.00299
6704.07678	0.00300
6702.14810	0.00302
6700.21943	0.00304
6698.29075	0.00307
6696.36207	0.00307
6694.43340	0.00306
6692.50472	0.00305
6690.57605	0.00305
6688.64737	0.00306
6686.71870	0.00306
6684.79002	0.00307
6682.86134	0.00308
6680.93267	0.00308
6679.00399	0.00308
6677.07532	0.00309
6675.14664	0.00311
6673.21797	0.00314
6671.28929	0.00316
6669.36061	0.00316
6667.43194	0.00316
6665.50326	0.00315
6663.57459	0.00315
6661.64591	0.00316
6659.71724	0.00318
6657.78856	0.00318
6655.85988	0.00317
6653.93121	0.00317
6652.00253	0.00318
6650.07386	0.00320
6648.14518	0.00321
6646.21651	0.00321
6644.28783	0.00323
6642.35915	0.00324
6640.43048	0.00324
6638.50180	0.00324
6636.57313	0.00324
6634.64445	0.00325
6632.71578	0.00327
6630.78710	0.00327
6628.85842	0.00326
6626.92975	0.00326
6625.00107	0.00327
6623.07240	0.00330
6621.14372	0.00332
6619.21505	0.00332
6617.28637	0.00331
6615.35769	0.00331
6613.42902	0.00332
6611.50034	0.00333
6609.57167	0.00334
6607.64299	0.00335
6605.71432	0.00335
6603.78564	0.00336
6601.85696	0.00337
6599.92829	0.00336
6597.99961	0.00335
6596.07094	0.00337
6594.14226	0.00340
6592.21359	0.00341
6590.28491	0.00340
6588.35623	0.00340
6586.42756	0.00340
6584.49888	0.00343
6582.57021	0.00345
6580.64153	0.00346
6578.71286	0.00346
6576.78418	0.00347
6574.85550	0.00348
6572.92683	0.00348
6570.99815	0.00350
6569.06948	0.00351
6567.14080	0.00352
6565.21213	0.00352
6563.28345	0.00352
6561.35477	0.00353
6559.42610	0.00354
6557.49742	0.00352
6555.56875	0.00352
6553.64007	0.00353
6551.71140	0.00355
6549.78272	0.00359
6547.85404	0.00362
6545.92537	0.00362
6543.99669	0.00360
6542.06802	0.00359
6540.13934	0.00359
6538.21067	0.00359
6536.28199	0.00360
6534.35331	0.00362
6532.42464	0.00362
6530.49596	0.00363
6528.56729	0.00365
6526.63861	0.00366
6524.70994	0.00366
6522.78126	0.00366
6520.85258	0.00366
6518.92391	0.00366
6516.99523	0.00368
6515.06656	0.00371
6513.13788	0.00373
6511.20921	0.00376
6509.28053	0.00376
6507.35185	0.00375
6505.42318	0.00374
6503.49450	0.00375
6501.56583	0.00376
6499.63715	0.00377
6497.70848	0.00378
6495.77980	0.00379
6493.85112	0.00379
6491.92245	0.00377
6489.99377	0.00376
6488.06510	0.00378
6486.13642	0.00381
6484.20775	0.00384
6482.27907	0.00385
6480.35039	0.00385
6478.42172	0.00385
6476.49304	0.00386
6474.56437	0.00387
6472.63569	0.00387
6470.70702	0.00386
6468.77834	0.00387
6466.84966	0.00388
6464.92099	0.00389
6462.99231	0.00391
6461.06364	0.00392
6459.13496	0.00391
6457.20629	0.00392
6455.27761	0.00394
6453.34893	0.00395
6451.42026	0.00397
6449.49158	0.00400
6447.56291	0.00399
6445.63423	0.00398
6443.70556	0.00399
6441.77688	0.00400
6439.84820	0.00401
6437.91953	0.00401
6435.99085	0.00402
6434.06218	0.00402
6432.13350	0.00403
6430.20483	0.00405
6428.27615	0.00407
6426.34747	0.00406
6424.41880	0.00407
6422.49012	0.00408
6420.56145	0.00409
6418.63277	0.00409
6416.70410	0.00411
6414.77542	0.00412
6412.84674	0.00413
6410.91807	0.00414
6408.98939	0.00415
6407.06072	0.00417
6405.13204	0.00418
6403.20337	0.00418
6401.27469	0.00418
6399.34601	0.00418
6397.41734	0.00419
6395.48866	0.00420
6393.55999	0.00420
6391.63131	0.00420
6389.70264	0.00420
6387.77396	0.00422
6385.84528	0.00423
6383.91661	0.00424
6381.98793	0.00426
6380.05926	0.00428
6378.13058	0.00429
6376.20191	0.00429
6374.27323	0.00429
6372.34455	0.00430
6370.41588	0.00432
6368.48720	0.00435
6366.55853	0.00437
6364.62985	0.00438
6362.70118	0.00437
6360.77250	0.00436
6358.84382	0.00434
6356.91515	0.00434
6354.98647	0.00436
6353.05780	0.00439
6351.12912	0.00440
6349.20045	0.00441
6347.27177	0.00442
6345.34309	0.00442
6343.41442	0.00441
6341.48574	0.00441
6339.55707	0.00443
6337.62839	0.00447
6335.69972	0.00450
6333.77104	0.00451
6331.84236	0.00452
6329.91369	0.00453
6327.98501	0.00453
6326.05634	0.00452
6324.12766	0.00452
6322.19899	0.00454
6320.27031	0.00455
6318.34163	0.00457
6316.41296	0.00457
6314.48428	0.00458
6312.55561	0.00459
6310.62693	0.00459
6308.69826	0.00459
6306.76958	0.00461
6304.84090	0.00462
6302.91223	0.00462
6300.98355	0.00464
6299.05488	0.00467
6297.12620	0.00469
6295.19753	0.00470
6293.26885	0.00471
6291.34017	0.00471
6289.41150	0.00471
6287.48282	0.00472
6285.55415	0.00473
6283.62547	0.00474
6281.69680	0.00475
6279.76812	0.00477
6277.83944	0.00478
6275.91077	0.00479
6273.98209	0.00480
6272.05342	0.00480
6270.12474	0.00480
6268.19607	0.00480
6266.26739	0.00480
6264.33871	0.00482
6262.41004	0.00484
6260.48136	0.00486
6258.55269	0.00488
6256.62401	0.00490
6254.69534	0.00489
6252.76666	0.00489
6250.83798	0.00491
6248.90931	0.00493
6246.98063	0.00493
6245.05196	0.00495
6243.12328	0.00498
6241.19461	0.00500
6239.26593	0.00501
6237.33725	0.00501
6235.40858	0.00501
6233.47990	0.00502
6231.55123	0.00503
6229.62255	0.00503
6227.69388	0.00503
6225.76520	0.00503
6223.83652	0.00504
6221.90785	0.00506
6219.97917	0.00508
6218.05050	0.00510
6216.12182	0.00511
6214.19315	0.00512
6212.26447	0.00513
6210.33579	0.00513
6208.40712	0.00514
6206.47844	0.00517
6204.54977	0.00520
6202.62109	0.00522
6200.69242	0.00523
6198.76374	0.00522
6196.83506	0.00521
6194.90639	0.00522
6192.97771	0.00523
6191.04904	0.00523
6189.12036	0.00523
6187.19169	0.00524
6185.26301	0.00524
6183.33433	0.00524
6181.40566	0.00524
6179.47698	0.00525
6177.54831	0.00528
6175.61963	0.00531
6173.69096	0.00533
6171.76228	0.00533
6169.83360	0.00534
6167.90493	0.00536
6165.97625	0.00538
6164.04758	0.00540
6162.11890	0.00541
6160.19023	0.00543
6158.26155	0.00544
6156.33287	0.00544
6154.40420	0.00543
6152.47552	0.00544
6150.54685	0.00545
6148.61817	0.00546
6146.68950	0.00547
6144.76082	0.00547
6142.83214	0.00549
6140.90347	0.00552
6138.97479	0.00555
6137.04612	0.00555
6135.11744	0.00555
6133.18877	0.00555
6131.26009	0.00556
6129.33141	0.00558
6127.40274	0.00559
6125.47406	0.00558
6123.54539	0.00560
6121.61671	0.00564
6119.68804	0.00567
6117.75936	0.00568
6115.83068	0.00568
6113.90201	0.00569
6111.97333	0.00571
6110.04466	0.00572
6108.11598	0.00573
6106.18731	0.00573
6104.25863	0.00574
6102.32995	0.00575
6100.40128	0.00577
6098.47260	0.00578
6096.54393	0.00579
6094.61525	0.00580
6092.68658	0.00580
6090.75790	0.00579
6088.82922	0.00579
6086.90055	0.00582
6084.97187	0.00585
6083.04320	0.00587
6081.11452	0.00588
6079.18585	0.00589
6077.25717	0.00590
6075.32849	0.00592
6073.39982	0.00594
6071.47114	0.00595
6069.54247	0.00596
6067.61379	0.00597
6065.68512	0.00598
6063.75644	0.00599
6061.82776	0.00599
6059.89909	0.00601
6057.97041	0.00602
6056.04174	0.00604
6054.11306	0.00606
6052.18439	0.00608
6050.25571	0.00610
6048.32703	0.00611
6046.39836	0.00613
6044.46968	0.00615
6042.54101	0.00615
6040.61233	0.00615
6038.68366	0.00616
6036.75498	0.00617
6034.82630	0.00619
6032.89763	0.00621
6030.96895	0.00622
6029.04028	0.00621
6027.11160	0.00622
6025.18293	0.00624
6023.25425	0.00627
6021.32557	0.00630
6019.39690	0.00631
6017.46822	0.00631
6015.53955	0.00630
6013.61087	0.00632
6011.68220	0.00634
6009.75352	0.00636
6007.82484	0.00638
6005.89617	0.00640
6003.96749	0.00641
6002.03882	0.00642
6000.11014	0.00643
5998.18147	0.00644
5996.25279	0.00644
5994.32411	0.00645
5992.39544	0.00646
5990.46676	0.00647
5988.53809	0.00649
5986.60941	0.00651
5984.68074	0.00654
5982.75206	0.00655
5980.82338	0.00654
5978.89471	0.00655
5976.96603	0.00656
5975.03736	0.00659
5973.10868	0.00662
5971.18001	0.00665
5969.25133	0.00667
5967.32265	0.00667
5965.39398	0.00666
5963.46530	0.00668
5961.53663	0.00671
5959.60795	0.00673
5957.67928	0.00673
5955.75060	0.00673
5953.82192	0.00673
5951.89325	0.00674
5949.96457	0.00675
5948.03590	0.00676
5946.10722	0.00678
5944.17855	0.00680
5942.24987	0.00681
5940.32119	0.00681
5938.39252	0.00682
5936.46384	0.00684
5934.53517	0.00685
5932.60649	0.00686
5930.67782	0.00689
5928.74914	0.00693
5926.82046	0.00695
5924.89179	0.00695
5922.96311	0.00695
5921.03444	0.00696
5919.10576	0.00698
5917.17709	0.00702
5915.24841	0.00704
5913.31973	0.00705
5911.39106	0.00706
5909.46238	0.00707
5907.53371	0.00708
5905.60503	0.00708
5903.67636	0.00710
5901.74768	0.00713
5899.81900	0.00714
5897.89033	0.00715
5895.96165	0.00718
5894.03298	0.00721
5892.10430	0.00722
5890.17563	0.00721
5888.24695	0.00721
5886.31827	0.00722
5884.38960	0.00725
5882.46092	0.00727
5880.53225	0.00728
5878.60357	0.00729
5876.67490	0.00729
5874.74622	0.00731
5872.81755	0.00733
5870.88887	0.00735
5868.96019	0.00737
5867.03152	0.00739
5865.10284	0.00740
5863.17417	0.00741
5861.24549	0.00742
5859.31682	0.00744
5857.38814	0.00747
5855.45946	0.00750
5853.53079	0.00751
5851.60211	0.00751
5849.67344	0.00752
5847.74476	0.00754
5845.81609	0.00757
5843.88741	0.00759
5841.95873	0.00759
5840.03006	0.00758
5838.10138	0.00760
5836.17271	0.00763
5834.24403	0.00765
5832.31536	0.00766
5830.38668	0.00769
5828.45800	0.00771
5826.52933	0.00772
5824.60065	0.00771
5822.67198	0.00772
5820.74330	0.00775
5818.81463	0.00779
5816.88595	0.00781
5814.95727	0.00781
5813.02860	0.00781
5811.09992	0.00781
5809.17125	0.00782
5807.24257	0.00785
5805.31390	0.00787
5803.38522	0.00790
5801.45654	0.00793
5799.52787	0.00794
5797.59919	0.00795
5795.67052	0.00796
5793.74184	0.00799
5791.81317	0.00802
5789.88449	0.00803
5787.95581	0.00802
5786.02714	0.00802
5784.09846	0.00804
5782.16979	0.00807
5780.24111	0.00809
5778.31244	0.00810
5776.38376	0.00811
5774.45508	0.00812
5772.52641	0.00813
5770.59773	0.00814
5768.66906	0.00817
5766.74038	0.00819
5764.81171	0.00820
5762.88303	0.00822
5760.95435	0.00825
5759.02568	0.00828
5757.09700	0.00830
5755.16833	0.00831
5753.23965	0.00833
5751.31098	0.00835
5749.38230	0.00836
5747.45362	0.00836
5745.52495	0.00836
5743.59627	0.00838
5741.66760	0.00841
5739.73892	0.00844
5737.81025	0.00846
5735.88157	0.00847
5733.95289	0.00848
5732.02422	0.00849
5730.09554	0.00849
5728.16687	0.00851
5726.23819	0.00854
5724.30952	0.00856
5722.38084	0.00857
5720.45216	0.00859
5718.52349	0.00863
5716.59481	0.00866
5714.66614	0.00868
5712.73746	0.00869
5710.80879	0.00869
5708.88011	0.00870
5706.95143	0.00872
5705.02276	0.00874
5703.09408	0.00875
5701.16541	0.00877
5699.23673	0.00880
5697.30806	0.00883
5695.37938	0.00884
5693.45070	0.00884
5691.52203	0.00885
5689.59335	0.00888
5687.66468	0.00889
5685.73600	0.00891
5683.80733	0.00893
5681.87865	0.00895
5679.94997	0.00897
5678.02130	0.00898
5676.09262	0.00901
5674.16395	0.00903
5672.23527	0.00906
5670.30660	0.00908
5668.37792	0.00909
5666.44924	0.00910
5664.52057	0.00912
5662.59189	0.00913
5660.66322	0.00914
5658.73454	0.00916
5656.80587	0.00918
5654.87719	0.00921
5652.94851	0.00923
5651.01984	0.00925
5649.09116	0.00927
5647.16249	0.00927
5645.23381	0.00928
5643.30514	0.00930
5641.37646	0.00934
5639.44778	0.00937
5637.51911	0.00938
5635.59043	0.00937
5633.66176	0.00939
5631.73308	0.00941
5629.80441	0.00944
5627.87573	0.00946
5625.94705	0.00947
5624.01838	0.00949
5622.08970	0.00953
5620.16103	0.00957
5618.23235	0.00959
5616.30368	0.00960
5614.37500	0.00961
5612.44632	0.00964
5610.51765	0.00966
5608.58897	0.00966
5606.66030	0.00967
5604.73162	0.00969
5602.80295	0.00972
5600.87427	0.00974
5598.94559	0.00975
5597.01692	0.00976
5595.08824	0.00978
5593.15957	0.00982
5591.23089	0.00985
5589.30222	0.00986
5587.37354	0.00987
5585.44486	0.00988
5583.51619	0.00990
5581.58751	0.00991
5579.65884	0.00993
5577.73016	0.00995
5575.80149	0.00998
5573.87281	0.01001
5571.94413	0.01002
5570.01546	0.01004
5568.08678	0.01006
5566.15811	0.01008
5564.22943	0.01010
5562.30076	0.01011
5560.37208	0.01011
5558.44340	0.01012
5556.51473	0.01014
5554.58605	0.01017
5552.65738	0.01019
5550.72870	0.01021
5548.80003	0.01024
5546.87135	0.01028
5544.94267	0.01029
5543.01400	0.01028
5541.08532	0.01029
5539.15665	0.01031
5537.22797	0.01035
5535.29930	0.01038
5533.37062	0.01042
5531.44194	0.01043
5529.51327	0.01043
5527.58459	0.01043
5525.65592	0.01043
5523.72724	0.01046
5521.79857	0.01050
5519.86989	0.01053
5517.94121	0.01055
5516.01254	0.01057
5514.08386	0.01058
5512.15519	0.01060
5510.22651	0.01062
5508.29784	0.01064
5506.36916	0.01065
5504.44048	0.01068
5502.51181	0.01071
5500.58313	0.01074
5498.65446	0.01075
5496.72578	0.01075
5494.79711	0.01074
5492.86843	0.01077
5490.93975	0.01081
5489.01108	0.01083
5487.08240	0.01087
5485.15373	0.01090
5483.22505	0.01092
5481.29638	0.01093
5479.36770	0.01095
5477.43902	0.01098
5475.51035	0.01100
5473.58167	0.01102
5471.65300	0.01103
5469.72432	0.01104
5467.79565	0.01105
5465.86697	0.01109
5463.93829	0.01112
5462.00962	0.01115
5460.08094	0.01116
5458.15227	0.01117
5456.22359	0.01120
5454.29492	0.01124
5452.36624	0.01126
5450.43756	0.01127
5448.50889	0.01130
5446.58021	0.01132
5444.65154	0.01133
5442.72286	0.01134
5440.79419	0.01136
5438.86551	0.01137
5436.93683	0.01139
5435.00816	0.01142
5433.07948	0.01146
5431.15081	0.01147
5429.22213	0.01147
5427.29346	0.01151
5425.36478	0.01156
5423.43610	0.01159
5421.50743	0.01161
5419.57875	0.01163
5417.65008	0.01165
5415.72140	0.01164
5413.79273	0.01164
5411.86405	0.01168
5409.93537	0.01174
5408.00670	0.01177
5406.07802	0.01177
5404.14935	0.01179
5402.22067	0.01182
5400.29200	0.01185
5398.36332	0.01186
5396.43464	0.01186
5394.50597	0.01187
5392.57729	0.01189
5390.64862	0.01191
5388.71994	0.01193
5386.79127	0.01196
5384.86259	0.01200
5382.93391	0.01203
5381.00524	0.01205
5379.07656	0.01206
5377.14789	0.01207
5375.21921	0.01209
5373.29054	0.01212
5371.36186	0.01213
5369.43318	0.01215
5367.50451	0.01218
5365.57583	0.01222
5363.64716	0.01224
5361.71848	0.01225
5359.78981	0.01227
5357.86113	0.01231
5355.93245	0.01233
5354.00378	0.01234
5352.07510	0.01234
5350.14643	0.01236
5348.21775	0.01238
5346.28908	0.01241
5344.36040	0.01243
5342.43172	0.01246
5340.50305	0.01249
5338.57437	0.01251
5336.64570	0.01254
5334.71702	0.01256
5332.78835	0.01258
5330.85967	0.01260
5328.93099	0.01261
5327.00232	0.01262
5325.07364	0.01264
5323.14497	0.01268
5321.21629	0.01273
5319.28762	0.01275
5317.35894	0.01274
5315.43026	0.01274
5313.50159	0.01277
5311.57291	0.01282
5309.64424	0.01287
5307.71556	0.01291
5305.78689	0.01293
5303.85821	0.01294
5301.92953	0.01295
5300.00086	0.01295
5298.07218	0.01296
5296.14351	0.01300
5294.21483	0.01303
5292.28616	0.01306
5290.35748	0.01309
5288.42880	0.01311
5286.50013	0.01312
5284.57145	0.01313
5282.64278	0.01315
5280.71410	0.01320
5278.78543	0.01323
5276.85675	0.01324
5274.92807	0.01325
5272.99940	0.01328
5271.07072	0.01329
5269.14205	0.01328
5267.21337	0.01330
5265.28470	0.01334
5263.35602	0.01339
5261.42734	0.01344
5259.49867	0.01347
5257.56999	0.01350
5255.64132	0.01351
5253.71264	0.01351
5251.78397	0.01352
5249.85529	0.01354
5247.92661	0.01357
5245.99794	0.01359
5244.06926	0.01362
5242.14059	0.01367
5240.21191	0.01371
5238.28324	0.01373
5236.35456	0.01375
5234.42588	0.01378
5232.49721	0.01380
5230.56853	0.01381
5228.63986	0.01383
5226.71118	0.01386
5224.78251	0.01389
5222.85383	0.01390
5220.92515	0.01393
5218.99648	0.01395
5217.06780	0.01397
5215.13913	0.01401
5213.21045	0.01404
5211.28178	0.01406
5209.35310	0.01406
5207.42442	0.01407
5205.49575	0.01411
5203.56707	0.01416
5201.63840	0.01419
5199.70972	0.01421
5197.78105	0.01422
5195.85237	0.01424
5193.92369	0.01426
5191.99502	0.01430
5190.06634	0.01432
5188.13767	0.01434
5186.20899	0.01436
5184.28032	0.01440
5182.35164	0.01444
5180.42296	0.01446
5178.49429	0.01447
5176.56561	0.01449
5174.63694	0.01451
5172.70826	0.01452
5170.77959	0.01454
5168.85091	0.01458
5166.92223	0.01461
5164.99356	0.01463
5163.06488	0.01466
5161.13621	0.01470
5159.20753	0.01473
5157.27886	0.01473
5155.35018	0.01473
5153.42150	0.01474
5151.49283	0.01477
5149.56415	0.01480
5147.63548	0.01483
5145.70680	0.01488
5143.77813	0.01493
5141.84945	0.01495
5139.92077	0.01495
5137.99210	0.01495
5136.06342	0.01496
5134.13475	0.01498
5132.20607	0.01501
5130.27740	0.01506
5128.34872	0.01509
5126.42004	0.01511
5124.49137	0.01513
5122.56269	0.01515
5120.63402	0.01519
5118.70534	0.01523
5116.77667	0.01527
5114.84799	0.01529
5112.91931	0.01530
5110.99064	0.01532
5109.06196	0.01534
5107.13329	0.01537
5105.20461	0.01540
5103.27594	0.01543
5101.34726	0.01548
5099.41858	0.01551
5097.48991	0.01552
5095.56123	0.01553
5093.63256	0.01555
5091.70388	0.01558
5089.77521	0.01561
5087.84653	0.01563
5085.91785	0.01565
5083.98918	0.01568
5082.06050	0.01572
5080.13183	0.01575
5078.20315	0.01577
5076.27448	0.01580
5074.34580	0.01582
5072.41712	0.01584
5070.48845	0.01587
5068.55977	0.01591
5066.63110	0.01593
5064.70242	0.01595
5062.77375	0.01597
5060.84507	0.01600
5058.91639	0.01602
5056.98772	0.01604
5055.05904	0.01608
5053.13037	0.01613
5051.20169	0.01616
5049.27302	0.01617
5047.34434	0.01619
5045.41566	0.01621
5043.48699	0.01622
5041.55831	0.01625
5039.62964	0.01628
5037.70096	0.01632
5035.77229	0.01634
5033.84361	0.01637
5031.91493	0.01640
5029.98626	0.01644
5028.05758	0.01648
5026.12891	0.01651
5024.20023	0.01651
5022.27156	0.01650
5020.34288	0.01653
5018.41420	0.01659
5016.48553	0.01663
5014.55685	0.01666
5012.62818	0.01669
5010.69950	0.01672
5008.77083	0.01675
5006.84215	0.01679
5004.91347	0.01681
5002.98480	0.01682
5001.05612	0.01683
4999.12745	0.01684
4997.19877	0.01686
4995.27010	0.01689
4993.34142	0.01692
4991.41274	0.01695
4989.48407	0.01697
4987.55539	0.01702
4985.62672	0.01708
4983.69804	0.01713
4981.76937	0.01715
4979.84069	0.01715
4977.91201	0.01717
4975.98334	0.01719
4974.05466	0.01720
4972.12599	0.01722
4970.19731	0.01725
4968.26864	0.01727
4966.33996	0.01731
4964.41128	0.01737
4962.48261	0.01743
4960.55393	0.01745
4958.62526	0.01743
4956.69658	0.01742
4954.76791	0.01745
4952.83923	0.01749
4950.91055	0.01753
4948.98188	0.01757
4947.05320	0.01761
4945.12453	0.01764
4943.19585	0.01767
4941.26718	0.01770
4939.33850	0.01772
4937.40982	0.01775
4935.48115	0.01778
4933.55247	0.01779
4931.62380	0.01781
4929.69512	0.01785
4927.76645	0.01788
4925.83777	0.01791
4923.90909	0.01795
4921.98042	0.01799
4920.05174	0.01802
4918.12307	0.01803
4916.19439	0.01803
4914.26572	0.01805
4912.33704	0.01808
4910.40836	0.01811
4908.47969	0.01815
4906.55101	0.01819
4904.62234	0.01823
4902.69366	0.01828
4900.76499	0.01831
4898.83631	0.01833
4896.90763	0.01834
4894.97896	0.01835
4893.05028	0.01839
4891.12161	0.01843
4889.19293	0.01846
4887.26426	0.01849
4885.33558	0.01852
4883.40690	0.01854
4881.47823	0.01854
4879.54955	0.01856
4877.62088	0.01859
4875.69220	0.01863
4873.76353	0.01867
4871.83485	0.01871
4869.90617	0.01874
4867.97750	0.01877
4866.04882	0.01880
4864.12015	0.01883
4862.19147	0.01885
4860.26280	0.01887
4858.33412	0.01889
4856.40544	0.01892
4854.47677	0.01897
4852.54809	0.01901
4850.61942	0.01906
4848.69074	0.01911
4846.76207	0.01915
4844.83339	0.01917
4842.90471	0.01918
4840.97604	0.01920
4839.04736	0.01923
4837.11869	0.01925
4835.19001	0.01928
4833.26134	0.01933
4831.33266	0.01934
4829.40398	0.01935
4827.47531	0.01938
4825.54663	0.01943
4823.61796	0.01948
4821.68928	0.01953
4819.76061	0.01956
4817.83193	0.01958
4815.90325	0.01960
4813.97458	0.01961
4812.04590	0.01964
4810.11723	0.01969
4808.18855	0.01972
4806.25988	0.01974
4804.33120	0.01976
4802.40252	0.01981
4800.47385	0.01987
4798.54517	0.01990
4796.61650	0.01992
4794.68782	0.01994
4792.75915	0.01996
4790.83047	0.01998
4788.90179	0.02000
4786.97312	0.02004
4785.04444	0.02008
4783.11577	0.02011
4781.18709	0.02012
4779.25842	0.02014
4777.32974	0.02018
4775.40106	0.02021
4773.47239	0.02024
4771.54371	0.02029
4769.61504	0.02034
4767.68636	0.02039
4765.75769	0.02043
4763.82901	0.02046
4761.90033	0.02048
4759.97166	0.02050
4758.04298	0.02053
4756.11431	0.02056
4754.18563	0.02059
4752.25696	0.02061
4750.32828	0.02065
4748.39960	0.02070
4746.47093	0.02075
4744.54225	0.02077
4742.61358	0.02078
4740.68490	0.02081
4738.75623	0.02085
4736.82755	0.02091
4734.89887	0.02097
4732.97020	0.02101
4731.04152	0.02103
4729.11285	0.02105
4727.18417	0.02107
4725.25550	0.02109
4723.32682	0.02111
4721.39814	0.02113
4719.46947	0.02116
4717.54079	0.02120
4715.61212	0.02123
4713.68344	0.02126
4711.75477	0.02131
4709.82609	0.02135
4707.89741	0.02139
4705.96874	0.02143
4704.04006	0.02148
4702.11139	0.02151
4700.18271	0.02153
4698.25404	0.02157
4696.32536	0.02163
4694.39668	0.02167
4692.46801	0.02168
4690.53933	0.02168
4688.61066	0.02171
4686.68198	0.02177
4684.75331	0.02182
4682.82463	0.02187
4680.89595	0.02190
4678.96728	0.02193
4677.03860	0.02196
4675.10993	0.02199
4673.18125	0.02203
4671.25258	0.02205
4669.32390	0.02207
4667.39522	0.02211
4665.46655	0.02217
4663.53787	0.02222
4661.60920	0.02225
4659.68052	0.02229
4657.75185	0.02233
4655.82317	0.02236
4653.89449	0.02238
4651.96582	0.02240
4650.03714	0.02243
4648.10847	0.02246
4646.17979	0.02250
4644.25112	0.02255
4642.32244	0.02259
4640.39376	0.02262
4638.46509	0.02266
4636.53641	0.02270
4634.60774	0.02273
4632.67906	0.02276
4630.75039	0.02280
4628.82171	0.02285
4626.89303	0.02290
4624.96436	0.02293
4623.03568	0.02295
4621.10701	0.02298
4619.17833	0.02302
4617.24966	0.02306
4615.32098	0.02309
4613.39230	0.02313
4611.46363	0.02316
4609.53495	0.02321
4607.60628	0.02326
4605.67760	0.02332
4603.74893	0.02337
4601.82025	0.02340
4599.89157	0.02342
4597.96290	0.02345
4596.03422	0.02348
4594.10555	0.02352
4592.17687	0.02357
4590.24820	0.02359
4588.31952	0.02361
4586.39084	0.02365
4584.46217	0.02371
4582.53349	0.02377
4580.60482	0.02381
4578.67614	0.02383
4576.74747	0.02386
4574.81879	0.02390
4572.89011	0.02393
4570.96144	0.02396
4569.03276	0.02400
4567.10409	0.02406
4565.17541	0.02411
4563.24674	0.02414
4561.31806	0.02416
4559.38938	0.02419
4557.46071	0.02424
4555.53203	0.02428
4553.60336	0.02432
4551.67468	0.02436
4549.74601	0.02440
4547.81733	0.02443
4545.88865	0.02449
4543.95998	0.02455
4542.03130	0.02459
4540.10263	0.02463
4538.17395	0.02467
4536.24528	0.02470
4534.31660	0.02473
4532.38792	0.02479
4530.45925	0.02486
4528.53057	0.02491
4526.60190	0.02493
4524.67322	0.02497
4522.74455	0.02501
4520.81587	0.02504
4518.88719	0.02507
4516.95852	0.02510
4515.02984	0.02513
4513.10117	0.02520
4511.17249	0.02526
4509.24382	0.02531
4507.31514	0.02535
4505.38646	0.02539
4503.45779	0.02545
4501.52911	0.02549
4499.60044	0.02554
4497.67176	0.02558
4495.74309	0.02560
4493.81441	0.02563
4491.88573	0.02567
4489.95706	0.02573
4488.02838	0.02577
4486.09971	0.02580
4484.17103	0.02586
4482.24236	0.02591
4480.31368	0.02593
4478.38500	0.02595
4476.45633	0.02600
4474.52765	0.02606
4472.59898	0.02612
4470.67030	0.02617
4468.74163	0.02622
4466.81295	0.02625
4464.88427	0.02629
4462.95560	0.02634
4461.02692	0.02639
4459.09825	0.02642
4457.16957	0.02644
4455.24090	0.02648
4453.31222	0.02656
4451.38354	0.02663
4449.45487	0.02670
4447.52619	0.02675
4445.59752	0.02676
4443.66884	0.02678
4441.74017	0.02683
4439.81149	0.02688
4437.88281	0.02693
4435.95414	0.02697
4434.02546	0.02701
4432.09679	0.02705
4430.16811	0.02710
4428.23944	0.02714
4426.31076	0.02719
4424.38208	0.02725
4422.45341	0.02732
4420.52473	0.02739
4418.59606	0.02743
4416.66738	0.02746
4414.73871	0.02751
4412.81003	0.02756
4410.88135	0.02760
4408.95268	0.02764
4407.02400	0.02770
4405.09533	0.02775
4403.16665	0.02779
4401.23798	0.02782
4399.30930	0.02785
4397.38062	0.02790
4395.45195	0.02798
4393.52327	0.02804
4391.59460	0.02810
4389.66592	0.02814
4387.73725	0.02818
4385.80857	0.02823
4383.87989	0.02828
4381.95122	0.02833
4380.02254	0.02837
4378.09387	0.02841
4376.16519	0.02846
4374.23652	0.02852
4372.30784	0.02858
4370.37916	0.02864
4368.45049	0.02869
4366.52181	0.02872
4364.59314	0.02875
4362.66446	0.02881
4360.73579	0.02887
4358.80711	0.02892
4356.87843	0.02896
4354.94976	0.02899
4353.02108	0.02902
4351.09241	0.02907
4349.16373	0.02914
4347.23506	0.02922
4345.30638	0.02929
4343.37770	0.02934
4341.44903	0.02938
4339.52035	0.02942
4337.59168	0.02949
4335.66300	0.02954
4333.73433	0.02959
4331.80565	0.02964
4329.87697	0.02969
4327.94830	0.02974
4326.01962	0.02976
4324.09095	0.02980
4322.16227	0.02987
4320.23360	0.02996
4318.30492	0.03002
4316.37624	0.03007
4314.44757	0.03012
4312.51889	0.03015
4310.59022	0.03019
4308.66154	0.03026
4306.73287	0.03034
4304.80419	0.03038
4302.87551	0.03042
4300.94684	0.03047
4299.01816	0.03054
4297.08949	0.03061
4295.16081	0.03068
4293.23214	0.03074
4291.30346	0.03078
4289.37478	0.03082
4287.44611	0.03087
4285.51743	0.03095
4283.58876	0.03103
4281.66008	0.03108
4279.73141	0.03114
4277.80273	0.03122
4275.87405	0.03127
4273.94538	0.03130
4272.01670	0.03135
4270.08803	0.03140
4268.15935	0.03146
4266.23068	0.03154
4264.30200	0.03160
4262.37332	0.03165
4260.44465	0.03168
4258.51597	0.03174
4256.58730	0.03182
4254.65862	0.03190
4252.72995	0.03196
4250.80127	0.03201
4248.87259	0.03207
4246.94392	0.03211
4245.01524	0.03215
4243.08657	0.03220
4241.15789	0.03226
4239.22922	0.03233
4237.30054	0.03240
4235.37186	0.03245
4233.44319	0.03250
4231.51451	0.03255
4229.58584	0.03258
4227.65716	0.03262
4225.72849	0.03269
4223.79981	0.03279
4221.87113	0.03288
4219.94246	0.03294
4218.01378	0.03301
4216.08511	0.03306
4214.15643	0.03311
4212.22776	0.03315
4210.29908	0.03321
4208.37040	0.03329
4206.44173	0.03336
4204.51305	0.03343
4202.58438	0.03349
4200.65570	0.03354
4198.72703	0.03358
4196.79835	0.03363
4194.86968	0.03369
4192.94100	0.03375
4191.01232	0.03382
4189.08365	0.03389
4187.15497	0.03398
4185.22630	0.03405
4183.29762	0.03410
4181.36895	0.03413
4179.44027	0.03420
4177.51159	0.03428
4175.58292	0.03434
4173.65424	0.03439
4171.72557	0.03446
4169.79689	0.03454
4167.86822	0.03461
4165.93954	0.03466
4164.01086	0.03473
4162.08219	0.03480
4160.15351	0.03486
4158.22484	0.03491
4156.29616	0.03498
4154.36749	0.03504
4152.43881	0.03510
4150.51013	0.03518
4148.58146	0.03526
4146.65278	0.03534
4144.72411	0.03542
4142.79543	0.03550
4140.86676	0.03556
4138.93808	0.03559
4137.00940	0.03563
4135.08073	0.03568
4133.15205	0.03573
4131.22338	0.03579
4129.29470	0.03586
4127.36603	0.03594
4125.43735	0.03603
4123.50867	0.03612
4121.58000	0.03619
4119.65132	0.03625
4117.72265	0.03632
4115.79397	0.03640
4113.86530	0.03647
4111.93662	0.03652
4110.00794	0.03656
4108.07927	0.03662
4106.15059	0.03670
4104.22192	0.03679
4102.29324	0.03687
4100.36457	0.03694
4098.43589	0.03702
4096.50721	0.03709
4094.57854	0.03716
4092.64986	0.03722
4090.72119	0.03730
4088.79251	0.03738
4086.86384	0.03743
4084.93516	0.03749
4083.00648	0.03758
4081.07781	0.03765
4079.14913	0.03769
4077.22046	0.03776
4075.29178	0.03786
4073.36311	0.03795
4071.43443	0.03801
4069.50575	0.03807
4067.57708	0.03814
4065.64840	0.03822
4063.71973	0.03829
4061.79105	0.03835
4059.86238	0.03842
4057.93370	0.03850
4056.00502	0.03857
4054.07635	0.03863
4052.14767	0.03867
4050.21900	0.03874
4048.29032	0.03883
4046.36165	0.03893
4044.43297	0.03902
4042.50429	0.03910
4040.57562	0.03918
4038.64694	0.03924
4036.71827	0.03931
4034.78959	0.03937
4032.86092	0.03943
4030.93224	0.03949
4029.00356	0.03956
4027.07489	0.03964
4025.14621	0.03975
4023.21754	0.03986
4021.28886	0.03993
4019.36019	0.03997
4017.43151	0.04002
4015.50283	0.04010
4013.57416	0.04019
4011.64548	0.04028
4009.71681	0.04036
4007.78813	0.04044
4005.85946	0.04050
4003.93078	0.04055
4002.00210	0.04062
4000.07343	0.04071
3998.14475	0.04079
3996.21608	0.04087
3994.28740	0.04094
3992.35873	0.04101
3990.43005	0.04109
3988.50137	0.04116
3986.57270	0.04125
3984.64402	0.04133
3982.71535	0.04141
3980.78667	0.04147
3978.85800	0.04156
3976.92932	0.04165
3975.00064	0.04173
3973.07197	0.04182
3971.14329	0.04191
3969.21462	0.04198
3967.28594	0.04203
3965.35727	0.04208
3963.42859	0.04215
3961.49991	0.04225
3959.57124	0.04235
3957.64256	0.04244
3955.71389	0.04251
3953.78521	0.04258
3951.85654	0.04263
3949.92786	0.04269
3947.99918	0.04276
3946.07051	0.04286
3944.14183	0.04296
3942.21316	0.04305
3940.28448	0.04314
3938.35581	0.04321
3936.42713	0.04326
3934.49845	0.04330
3932.56978	0.04336
3930.64110	0.04345
3928.71243	0.04355
3926.78375	0.04363
3924.85508	0.04370
3922.92640	0.04380
3920.99772	0.04386
3919.06905	0.04389
3917.14037	0.04396
3915.21170	0.04409
3913.28302	0.04423
3911.35435	0.04435
3909.42567	0.04443
3907.49699	0.04444
3905.56832	0.04439
3903.63964	0.04436
3901.71097	0.04441
3899.78229	0.04457
3897.85362	0.04479
3895.92494	0.04495
3893.99626	0.04498
3892.06759	0.04498
3890.13891	0.04508
3888.21024	0.04522
3886.28156	0.04531
3884.35289	0.04537
3882.42421	0.04539
3880.49553	0.04541
3878.56686	0.04556
3876.63818	0.04574
3874.70951	0.04582
3872.78083	0.04585
3870.85216	0.04589
3868.92348	0.04598
3866.99480	0.04608
3865.06613	0.04614
3863.13745	0.04625
3861.20878	0.04642
3859.28010	0.04653
3857.35143	0.04644
3855.42275	0.04623
3853.49407	0.04622
3851.56540	0.04654
3849.63672	0.04691
3847.70805	0.04712
3845.77937	0.04720
3843.85070	0.04723
3841.92202	0.04724
3839.99334	0.04722
3838.06467	0.04722
3836.13599	0.04734
3834.20732	0.04754
3832.27864	0.04772
3830.34997	0.04786
3828.42129	0.04793
3826.49261	0.04800
3824.56394	0.04806
3822.63526	0.04810
3820.70659	0.04815
3818.77791	0.04819
3816.84924	0.04820
3814.92056	0.04836
3812.99188	0.04867
3811.06321	0.04888
3809.13453	0.04893
3807.20586	0.04897
3805.27718	0.04903
3803.34851	0.04902
3801.41983	0.04900
3799.49115	0.04911
3797.56248	0.04926
3795.63380	0.04945
3793.70513	0.04965
3791.77645	0.04978
3789.84778	0.04985
3787.91910	0.04990
3785.99042	0.04996
3784.06175	0.05008
3782.13307	0.05021
3780.20440	0.05031
3778.27572	0.05040
3776.34705	0.05050
3774.41837	0.05057
3772.48969	0.05058
3770.56102	0.05058
3768.63234	0.05064
3766.70367	0.05077
3764.77499	0.05094
3762.84632	0.05106
3760.91764	0.05109
3758.98896	0.05112
3757.06029	0.05124
3755.13161	0.05127
3753.20294	0.05117
3751.27426	0.05118
3749.34559	0.05133
3747.41691	0.05131
3745.48823	0.05111
3743.55956	0.05122
3741.63088	0.05168
3739.70221	0.05192
3737.77353	0.05186
3735.84486	0.05188
3733.91618	0.05210
3731.98750	0.05236
3730.05883	0.05256
3728.13015	0.05267
3726.20148	0.05270
3724.27280	0.05275
3722.34413	0.05286
3720.41545	0.05303
3718.48677	0.05321
3716.55810	0.05333
3714.62942	0.05336
3712.70075	0.05334
3710.77207	0.05338
3708.84340	0.05354
3706.91472	0.05372
3704.98604	0.05383
3703.05737	0.05388
3701.12869	0.05396
3699.20002	0.05412
3697.27134	0.05425
3695.34267	0.05433
3693.41399	0.05432
3691.48531	0.05422
3689.55664	0.05421
3687.62796	0.05440
3685.69929	0.05469
3683.77061	0.05488
3681.84194	0.05498
3679.91326	0.05500
3677.98458	0.05492
3676.05591	0.05488
3674.12723	0.05502
3672.19856	0.05518
3670.26988	0.05524
3668.34121	0.05539
3666.41253	0.05566
3664.48385	0.05588
3662.55518	0.05600
3660.62650	0.05607
3658.69783	0.05611
3656.76915	0.05613
3654.84048	0.05615
3652.91180	0.05607
3650.98312	0.05590
3649.05445	0.05583
3647.12577	0.05598
3645.19710	0.05628
3643.26842	0.05657
3641.33975	0.05675
3639.41107	0.05686
3637.48239	0.05695
3635.55372	0.05702
3633.62504	0.05705
3631.69637	0.05702
3629.76769	0.05698
3627.83902	0.05710
3625.91034	0.05734
3623.98166	0.05748
3622.05299	0.05743
3620.12431	0.05737
3618.19564	0.05748
3616.26696	0.05763
3614.33829	0.05765
3612.40961	0.05762
3610.48093	0.05766
3608.55226	0.05779
3606.62358	0.05800
3604.69491	0.05818
3602.76623	0.05826
3600.83756	0.05832
3598.90888	0.05842
3596.98020	0.05851
3595.05153	0.05857
3593.12285	0.05865
3591.19418	0.05870
3589.26550	0.05866
3587.33683	0.05866
3585.40815	0.05882
3583.47947	0.05903
3581.55080	0.05916
3579.62212	0.05924
3577.69345	0.05930
3575.76477	0.05938
3573.83610	0.05947
3571.90742	0.05952
3569.97874	0.05950
3568.05007	0.05948
3566.12139	0.05959
3564.19272	0.05977
3562.26404	0.05990
3560.33537	0.05996
3558.40669	0.06005
3556.47801	0.06016
3554.54934	0.06024
3552.62066	0.06026
3550.69199	0.06030
3548.76331	0.06037
3546.83464	0.06040
3544.90596	0.06045
3542.97728	0.06057
3541.04861	0.06070
3539.11993	0.06078
3537.19126	0.06083
3535.26258	0.06088
3533.33391	0.06095
3531.40523	0.06101
3529.47655	0.06105
3527.54788	0.06109
3525.61920	0.06112
3523.69053	0.06116
3521.76185	0.06121
3519.83318	0.06126
3517.90450	0.06131
3515.97582	0.06136
3514.04715	0.06140
3512.11847	0.06141
3510.18980	0.06142
3508.26112	0.06146
3506.33245	0.06151
3504.40377	0.06153
3502.47509	0.06156
3500.54642	0.06164
3498.61774	0.06173
3496.68907	0.06177
3494.76039	0.06179
3492.83172	0.06180
3490.90304	0.06181
3488.97436	0.06183
3487.04569	0.06187
3485.11701	0.06193
3483.18834	0.06198
3481.25966	0.06202
3479.33099	0.06210
3477.40231	0.06217
3475.47363	0.06221
3473.54496	0.06227
3471.61628	0.06236
3469.68761	0.06244
3467.75893	0.06252
3465.83026	0.06261
3463.90158	0.06270
3461.97290	0.06280
3460.04423	0.06292
3458.11555	0.06306
3456.18688	0.06318
3454.25820	0.06325
3452.32953	0.06332
3450.40085	0.06339
3448.47217	0.06348
3446.54350	0.06356
3444.61482	0.06364
3442.68615	0.06374
3440.75747	0.06389
3438.82880	0.06406
3436.90012	0.06422
3434.97144	0.06441
3433.04277	0.06461
3431.11409	0.06482
3429.18542	0.06502
3427.25674	0.06521
3425.32807	0.06538
3423.39939	0.06557
3421.47071	0.06578
3419.54204	0.06597
3417.61336	0.06612
3415.68469	0.06628
3413.75601	0.06645
3411.82734	0.06662
3409.89866	0.06677
3407.96998	0.06693
3406.04131	0.06706
3404.11263	0.06715
3402.18396	0.06727
3400.25528	0.06742
3398.32661	0.06756
3396.39793	0.06770
3394.46925	0.06784
3392.54058	0.06800
3390.61190	0.06816
3388.68323	0.06831
3386.75455	0.06842
3384.82588	0.06853
3382.89720	0.06867
3380.96852	0.06881
3379.03985	0.06892
3377.11117	0.06904
3375.18250	0.06915
3373.25382	0.06925
3371.32515	0.06935
3369.39647	0.06947
3367.46779	0.06961
3365.53912	0.06976
3363.61044	0.06988
3361.68177	0.06998
3359.75309	0.07010
3357.82442	0.07025
3355.89574	0.07042
3353.96706	0.07055
3352.03839	0.07065
3350.10971	0.07076
3348.18104	0.07087
3346.25236	0.07099
3344.32369	0.07111
3342.39501	0.07125
3340.46633	0.07138
3338.53766	0.07149
3336.60898	0.07161
3334.68031	0.07175
3332.75163	0.07189
3330.82296	0.07202
3328.89428	0.07215
3326.96560	0.07226
3325.03693	0.07237
3323.10825	0.07249
3321.17958	0.07263
3319.25090	0.07277
3317.32223	0.07291
3315.39355	0.07305
3313.46487	0.07319
3311.53620	0.07332
3309.60752	0.07343
3307.67885	0.07354
3305.75017	0.07366
3303.82150	0.07379
3301.89282	0.07391
3299.96414	0.07404
3298.03547	0.07420
3296.10679	0.07435
3294.17812	0.07449
3292.24944	0.07461
3290.32077	0.07473
3288.39209	0.07486
3286.46341	0.07498
3284.53474	0.07510
3282.60606	0.07523
3280.67739	0.07537
3278.74871	0.07553
3276.82004	0.07567
3274.89136	0.07581
3272.96268	0.07598
3271.03401	0.07615
3269.10533	0.07631
3267.17666	0.07643
3265.24798	0.07654
3263.31931	0.07666
3261.39063	0.07680
3259.46195	0.07693
3257.53328	0.07704
3255.60460	0.07715
3253.67593	0.07730
3251.74725	0.07745
3249.81858	0.07762
3247.88990	0.07777
3245.96122	0.07789
3244.03255	0.07802
3242.10387	0.07818
3240.17520	0.07832
3238.24652	0.07844
3236.31785	0.07857
3234.38917	0.07872
3232.46049	0.07885
3230.53182	0.07898
3228.60314	0.07912
3226.67447	0.07926
3224.74579	0.07941
3222.81712	0.07955
3220.88844	0.07968
3218.95976	0.07979
3217.03109	0.07990
3215.10241	0.08002
3213.17374	0.08015
3211.24506	0.08028
3209.31639	0.08043
3207.38771	0.08058
3205.45903	0.08074
3203.53036	0.08089
3201.60168	0.08104
3199.67301	0.08118
3197.74433	0.08133
3195.81566	0.08148
3193.88698	0.08161
3191.95830	0.08176
3190.02963	0.08194
3188.10095	0.08209
3186.17228	0.08221
3184.24360	0.08233
3182.31493	0.08248
3180.38625	0.08263
3178.45757	0.08279
3176.52890	0.08297
3174.60022	0.08313
3172.67155	0.08326
3170.74287	0.08337
3168.81420	0.08350
3166.88552	0.08363
3164.95684	0.08375
3163.02817	0.08388
3161.09949	0.08402
3159.17082	0.08418
3157.24214	0.08436
3155.31347	0.08454
3153.38479	0.08468
3151.45611	0.08480
3149.52744	0.08495
3147.59876	0.08512
3145.67009	0.08525
3143.74141	0.08536
3141.81274	0.08550
3139.88406	0.08564
3137.95538	0.08576
3136.02671	0.08591
3134.09803	0.08605
3132.16936	0.08618
3130.24068	0.08634
3128.31201	0.08649
3126.38333	0.08661
3124.45465	0.08675
3122.52598	0.08690
3120.59730	0.08705
3118.66863	0.08716
3116.73995	0.08728
3114.81128	0.08743
3112.88260	0.08756
3110.95392	0.08769
3109.02525	0.08785
3107.09657	0.08804
3105.16790	0.08822
3103.23922	0.08836
3101.31055	0.08847
3099.38187	0.08859
3097.45319	0.08875
3095.52452	0.08891
3093.59584	0.08906
3091.66717	0.08919
3089.73849	0.08932
3087.80982	0.08948
3085.88114	0.08964
3083.95246	0.08978
3082.02379	0.08992
3080.09511	0.09005
3078.16644	0.09020
3076.23776	0.09033
3074.30909	0.09044
3072.38041	0.09056
3070.45173	0.09070
3068.52306	0.09084
3066.59438	0.09099
3064.66571	0.09112
3062.73703	0.09126
3060.80836	0.09142
3058.87968	0.09158
3056.95100	0.09171
3055.02233	0.09183
3053.09365	0.09198
3051.16498	0.09214
3049.23630	0.09228
3047.30763	0.09243
3045.37895	0.09256
3043.45027	0.09270
3041.52160	0.09285
3039.59292	0.09300
3037.66425	0.09313
3035.73557	0.09325
3033.80690	0.09336
3031.87822	0.09350
3029.94954	0.09366
3028.02087	0.09380
3026.09219	0.09392
3024.16352	0.09405
3022.23484	0.09419
3020.30617	0.09436
3018.37749	0.09452
3016.44881	0.09466
3014.52014	0.09479
3012.59146	0.09493
3010.66279	0.09508
3008.73411	0.09523
3006.80544	0.09537
3004.87676	0.09549
3002.94808	0.09561
3001.01941	0.09574
2999.09073	0.09587
2997.16206	0.09601
2995.23338	0.09616
2993.30471	0.09630
2991.37603	0.09644
2989.44735	0.09661
2987.51868	0.09676
2985.59000	0.09685
2983.66133	0.09691
2981.73265	0.09697
2979.80398	0.09700
2977.87530	0.09702
2975.94662	0.09705
2974.01795	0.09707
2972.08927	0.09709
2970.16060	0.09709
2968.23192	0.09709
2966.30325	0.09709
2964.37457	0.09711
2962.44589	0.09718
2960.51722	0.09729
2958.58854	0.09743
2956.65987	0.09759
2954.73119	0.09778
2952.80252	0.09800
2950.87384	0.09820
2948.94516	0.09836
2947.01649	0.09848
2945.08781	0.09856
2943.15914	0.09860
2941.23046	0.09862
2939.30179	0.09863
2937.37311	0.09864
2935.44443	0.09863
2933.51576	0.09859
2931.58708	0.09852
2929.65841	0.09846
2927.72973	0.09843
2925.80106	0.09845
2923.87238	0.09849
2921.94370	0.09854
2920.01503	0.09861
2918.08635	0.09874
2916.15768	0.09901
2914.22900	0.09945
2912.30033	0.09997
2910.37165	0.10043
2908.44297	0.10079
2906.51430	0.10109
2904.58562	0.10134
2902.65695	0.10157
2900.72827	0.10180
2898.79960	0.10201
2896.87092	0.10220
2894.94224	0.10240
2893.01357	0.10261
2891.08489	0.10283
2889.15622	0.10301
2887.22754	0.10317
2885.29887	0.10332
2883.37019	0.10348
2881.44151	0.10366
2879.51284	0.10385
2877.58416	0.10399
2875.65549	0.10409
2873.72681	0.10421
2871.79814	0.10434
2869.86946	0.10448
2867.94078	0.10462
2866.01211	0.10475
2864.08343	0.10484
2862.15476	0.10489
2860.22608	0.10494
2858.29741	0.10497
2856.36873	0.10496
2854.44005	0.10491
2852.51138	0.10487
2850.58270	0.10494
2848.65403	0.10519
2846.72535	0.10566
2844.79668	0.10617
2842.86800	0.10658
2840.93932	0.10691
2839.01065	0.10720
2837.08197	0.10747
2835.15330	0.10770
2833.22462	0.10790
2831.29595	0.10808
2829.36727	0.10826
2827.43859	0.10847
2825.50992	0.10866
2823.58124	0.10878
2821.65257	0.10889
2819.72389	0.10903
2817.79522	0.10922
2815.86654	0.10944
2813.93786	0.10964
2812.00919	0.10981
2810.08051	0.10996
2808.15184	0.11008
2806.22316	0.11023
2804.29449	0.11040
2802.36581	0.11059
2800.43713	0.11075
2798.50846	0.11088
2796.57978	0.11102
2794.65111	0.11120
2792.72243	0.11138
2790.79376	0.11152
2788.86508	0.11165
2786.93640	0.11180
2785.00773	0.11195
2783.07905	0.11211
2781.15038	0.11229
2779.22170	0.11246
2777.29303	0.11259
2775.36435	0.11273
2773.43567	0.11290
2771.50700	0.11307
2769.57832	0.11323
2767.64965	0.11337
2765.72097	0.11352
2763.79230	0.11370
2761.86362	0.11386
2759.93494	0.11399
2758.00627	0.11412
2756.07759	0.11425
2754.14892	0.11439
2752.22024	0.11458
2750.29157	0.11478
2748.36289	0.11494
2746.43421	0.11507
2744.50554	0.11520
2742.57686	0.11534
2740.64819	0.11547
2738.71951	0.11562
2736.79084	0.11576
2734.86216	0.11587
2732.93348	0.11601
2731.00481	0.11619
2729.07613	0.11636
2727.14746	0.11649
2725.21878	0.11662
2723.29011	0.11676
2721.36143	0.11692
2719.43275	0.11706
2717.50408	0.11720
2715.57540	0.11734
2713.64673	0.11746
2711.71805	0.11759
2709.78938	0.11776
2707.86070	0.11794
2705.93202	0.11810
2704.00335	0.11826
2702.07467	0.11842
2700.14600	0.11858
2698.21732	0.11874
2696.28865	0.11893
2694.35997	0.11909
2692.43129	0.11922
2690.50262	0.11933
2688.57394	0.11947
2686.64527	0.11962
2684.71659	0.11978
2682.78792	0.11993
2680.85924	0.12006
2678.93056	0.12018
2677.00189	0.12031
2675.07321	0.12044
2673.14454	0.12057
2671.21586	0.12072
2669.28719	0.12090
2667.35851	0.12108
2665.42983	0.12125
2663.50116	0.12141
2661.57248	0.12154
2659.64381	0.12167
2657.71513	0.12181
2655.78646	0.12193
2653.85778	0.12205
2651.92910	0.12220
2650.00043	0.12236
2648.07175	0.12252
2646.14308	0.12267
2644.21440	0.12285
2642.28573	0.12303
2640.35705	0.12320
2638.42837	0.12336
2636.49970	0.12349
2634.57102	0.12364
2632.64235	0.12381
2630.71367	0.12398
2628.78500	0.12413
2626.85632	0.12429
2624.92764	0.12447
2622.99897	0.12462
2621.07029	0.12475
2619.14162	0.12490
2617.21294	0.12509
2615.28427	0.12528
2613.35559	0.12545
2611.42691	0.12559
2609.49824	0.12574
2607.56956	0.12590
2605.64089	0.12605
2603.71221	0.12618
2601.78354	0.12635
2599.85486	0.12654
2597.92618	0.12673
2595.99751	0.12692
2594.06883	0.12707
2592.14016	0.12719
2590.21148	0.12729
2588.28281	0.12742
2586.35413	0.12758
2584.42545	0.12776
2582.49678	0.12797
2580.56810	0.12817
2578.63943	0.12834
2576.71075	0.12847
2574.78208	0.12858
2572.85340	0.12873
2570.92472	0.12888
2568.99605	0.12900
2567.06737	0.12913
2565.13870	0.12933
2563.21002	0.12952
2561.28135	0.12966
2559.35267	0.12980
2557.42399	0.12994
2555.49532	0.13009
2553.56664	0.13024
2551.63797	0.13039
2549.70929	0.13055
2547.78062	0.13072
2545.85194	0.13089
2543.92326	0.13101
2541.99459	0.13113
2540.06591	0.13132
2538.13724	0.13151
2536.20856	0.13166
2534.27989	0.13177
2532.35121	0.13190
2530.42253	0.13206
2528.49386	0.13223
2526.56518	0.13239
2524.63651	0.13255
2522.70783	0.13271
2520.77916	0.13286
2518.85048	0.13302
2516.92181	0.13318
2514.99313	0.13333
2513.06445	0.13349
2511.13578	0.13369
2509.20710	0.13386
2507.27843	0.13402
2505.34975	0.13418
2503.42108	0.13435
2501.49240	0.13451
2499.56372	0.13465
2497.63505	0.13480
2495.70637	0.13497
2493.77770	0.13515
2491.84902	0.13533
2489.92035	0.13550
2487.99167	0.13567
2486.06299	0.13584
2484.13432	0.13603
2482.20564	0.13621
2480.27697	0.13638
2478.34829	0.13654
2476.41962	0.13671
2474.49094	0.13689
2472.56226	0.13705
2470.63359	0.13719
2468.70491	0.13734
2466.77624	0.13751
2464.84756	0.13768
2462.91889	0.13783
2460.99021	0.13800
2459.06153	0.13820
2457.13286	0.13837
2455.20418	0.13849
2453.27551	0.13860
2451.34683	0.13874
2449.41816	0.13891
2447.48948	0.13912
2445.56080	0.13931
2443.63213	0.13946
2441.70345	0.13961
2439.77478	0.13978
2437.84610	0.13994
2435.91743	0.14006
2433.98875	0.14020
2432.06007	0.14036
2430.13140	0.14055
2428.20272	0.14078
2426.27405	0.14100
2424.34537	0.14116
2422.41670	0.14129
2420.48802	0.14146
2418.55934	0.14162
2416.63067	0.14176
2414.70199	0.14191
2412.77332	0.14209
2410.84464	0.14225
2408.91597	0.14238
2406.98729	0.14252
2405.05861	0.14271
2403.12994	0.14289
2401.20126	0.14303
2399.27259	0.14318
2397.34391	0.14334
2395.41524	0.14351
2393.48656	0.14368
2391.55788	0.14385
2389.62921	0.14403
2387.70053	0.14420
2385.77186	0.14435
2383.84318	0.14446
2381.91451	0.14456
2379.98583	0.14465
2378.05715	0.14471
2376.12848	0.14474
2374.19980	0.14476
2372.27113	0.14478
2370.34245	0.14483
2368.41378	0.14491
2366.48510	0.14499
2364.55642	0.14511
2362.62775	0.14527
2360.69907	0.14540
2358.77040	0.14553
2356.84172	0.14575
2354.91305	0.14602
2352.98437	0.14634
2351.05569	0.14667
2349.12702	0.14693
2347.19834	0.14707
2345.26967	0.14711
2343.34099	0.14714
2341.41232	0.14720
2339.48364	0.14733
2337.55496	0.14748
2335.62629	0.14766
2333.69761	0.14785
2331.76894	0.14803
2329.84026	0.14823
2327.91159	0.14846
2325.98291	0.14869
2324.05423	0.14888
2322.12556	0.14908
2320.19688	0.14930
2318.26821	0.14953
2316.33953	0.14977
2314.41086	0.14999
2312.48218	0.15019
2310.55350	0.15039
2308.62483	0.15058
2306.69615	0.15077
2304.76748	0.15097
2302.83880	0.15119
2300.91013	0.15139
2298.98145	0.15152
2297.05277	0.15163
2295.12410	0.15179
2293.19542	0.15200
2291.26675	0.15219
2289.33807	0.15238
2287.40940	0.15257
2285.48072	0.15274
2283.55204	0.15290
2281.62337	0.15307
2279.69469	0.15322
2277.76602	0.15337
2275.83734	0.15350
2273.90867	0.15363
2271.97999	0.15381
2270.05131	0.15402
2268.12264	0.15422
2266.19396	0.15438
2264.26529	0.15454
2262.33661	0.15470
2260.40794	0.15483
2258.47926	0.15496
2256.55058	0.15511
2254.62191	0.15528
2252.69323	0.15547
2250.76456	0.15565
2248.83588	0.15583
2246.90721	0.15600
2244.97853	0.15618
2243.04985	0.15636
2241.12118	0.15650
2239.19250	0.15663
2237.26383	0.15674
2235.33515	0.15686
2233.40648	0.15704
2231.47780	0.15730
2229.54912	0.15754
2227.62045	0.15768
2225.69177	0.15777
2223.76310	0.15788
2221.83442	0.15804
2219.90575	0.15820
2217.97707	0.15836
2216.04839	0.15852
2214.11972	0.15870
2212.19104	0.15888
2210.26237	0.15906
2208.33369	0.15923
2206.40502	0.15938
2204.47634	0.15952
2202.54766	0.15968
2200.61899	0.15987
2198.69031	0.16001
2196.76164	0.16013
2194.83296	0.16029
2192.90429	0.16049
2190.97561	0.16067
2189.04693	0.16080
2187.11826	0.16090
2185.18958	0.16101
2183.26091	0.16119
2181.33223	0.16143
2179.40356	0.16163
2177.47488	0.16179
2175.54620	0.16195
2173.61753	0.16210
2171.68885	0.16224
2169.76018	0.16237
2167.83150	0.16252
2165.90283	0.16269
2163.97415	0.16287
2162.04547	0.16304
2160.11680	0.16323
2158.18812	0.16342
2156.25945	0.16359
2154.33077	0.16374
2152.40210	0.16389
2150.47342	0.16408
2148.54474	0.16426
2146.61607	0.16443
2144.68739	0.16461
2142.75872	0.16478
2140.83004	0.16493
2138.90137	0.16506
2136.97269	0.16517
2135.04401	0.16532
2133.11534	0.16551
2131.18666	0.16571
2129.25799	0.16587
2127.32931	0.16602
2125.40064	0.16619
2123.47196	0.16637
2121.54328	0.16654
2119.61461	0.16670
2117.68593	0.16687
2115.75726	0.16703
2113.82858	0.16719
2111.89991	0.16735
2109.97123	0.16752
2108.04255	0.16768
2106.11388	0.16783
2104.18520	0.16801
2102.25653	0.16820
2100.32785	0.16837
2098.39918	0.16853
2096.47050	0.16871
2094.54182	0.16887
2092.61315	0.16903
2090.68447	0.16916
2088.75580	0.16928
2086.82712	0.16945
2084.89845	0.16966
2082.96977	0.16988
2081.04109	0.17005
2079.11242	0.17017
2077.18374	0.17030
2075.25507	0.17047
2073.32639	0.17065
2071.39772	0.17082
2069.46904	0.17100
2067.54036	0.17116
2065.61169	0.17130
2063.68301	0.17148
2061.75434	0.17167
2059.82566	0.17183
2057.89699	0.17198
2055.96831	0.17215
2054.03963	0.17231
2052.11096	0.17248
2050.18228	0.17264
2048.25361	0.17278
2046.32493	0.17291
2044.39626	0.17307
2042.46758	0.17326
2040.53890	0.17347
2038.61023	0.17367
2036.68155	0.17385
2034.75288	0.17401
2032.82420	0.17418
2030.89553	0.17437
2028.96685	0.17453
2027.03817	0.17465
2025.10950	0.17481
2023.18082	0.17499
2021.25215	0.17516
2019.32347	0.17532
2017.39480	0.17546
2015.46612	0.17560
2013.53744	0.17574
2011.60877	0.17590
2009.68009	0.17608
2007.75142	0.17628
2005.82274	0.17648
2003.89407	0.17668
2001.96539	0.17685
2000.03671	0.17701
1998.10804	0.17716
1996.17936	0.17729
1994.25069	0.17739
1992.32201	0.17749
1990.39334	0.17764
1988.46466	0.17782
1986.53598	0.17801
1984.60731	0.17820
1982.67863	0.17836
1980.74996	0.17847
1978.82128	0.17858
1976.89261	0.17872
1974.96393	0.17887
1973.03525	0.17899
1971.10658	0.17912
1969.17790	0.17926
1967.24923	0.17940
1965.32055	0.17957
1963.39188	0.17977
1961.46320	0.17995
1959.53452	0.18008
1957.60585	0.18020
1955.67717	0.18035
1953.74850	0.18055
1951.81982	0.18074
1949.89115	0.18090
1947.96247	0.18101
1946.03379	0.18109
1944.10512	0.18117
1942.17644	0.18136
1940.24777	0.18165
1938.31909	0.18187
1936.39042	0.18196
1934.46174	0.18205
1932.53306	0.18220
1930.60439	0.18237
1928.67571	0.18252
1926.74704	0.18270
1924.81836	0.18286
1922.88969	0.18298
1920.96101	0.18308
1919.03233	0.18319
1917.10366	0.18338
1915.17498	0.18365
1913.24631	0.18384
1911.31763	0.18398
1909.38896	0.18413
1907.46028	0.18433
1905.53160	0.18456
1903.60293	0.18476
1901.67425	0.18491
1899.74558	0.18501
1897.81690	0.18508
1895.88823	0.18517
1893.95955	0.18533
1892.03087	0.18542
1890.10220	0.18547
1888.17352	0.18569
1886.24485	0.18603
1884.31617	0.18627
1882.38750	0.18641
1880.45882	0.18655
1878.53014	0.18668
1876.60147	0.18684
1874.67279	0.18698
1872.74412	0.18708
1870.81544	0.18713
1868.88677	0.18722
1866.95809	0.18744
1865.02941	0.18773
1863.10074	0.18794
1861.17206	0.18810
1859.24339	0.18825
1857.31471	0.18844
1855.38604	0.18866
1853.45736	0.18889
1851.52868	0.18906
1849.60001	0.18909
1847.67133	0.18893
1845.74266	0.18860
1843.81398	0.18864
1841.88531	0.18926
1839.95663	0.18983
1838.02795	0.19007
1836.09928	0.19027
1834.17060	0.19046
1832.24193	0.19043
1830.31325	0.19033
1828.38458	0.19037
1826.45590	0.19051
1824.52722	0.19077
1822.59855	0.19121
1820.66987	0.19155
1818.74120	0.19170
1816.81252	0.19183
1814.88385	0.19198
1812.95517	0.19206
1811.02649	0.19212
1809.09782	0.19228
1807.16914	0.19246
1805.24047	0.19254
1803.31179	0.19250
1801.38312	0.19254
1799.45444	0.19277
1797.52576	0.19302
1795.59709	0.19313
1793.66841	0.19307
1791.73974	0.19304
1789.81106	0.19330
1787.88239	0.19368
1785.95371	0.19390
1784.02503	0.19402
1782.09636	0.19413
1780.16768	0.19423
1778.23901	0.19431
1776.31033	0.19427
1774.38166	0.19410
1772.45298	0.19393
1770.52430	0.19390
1768.59563	0.19410
1766.66695	0.19458
1764.73828	0.19503
1762.80960	0.19516
1760.88093	0.19515
1758.95225	0.19508
1757.02357	0.19503
1755.09490	0.19514
1753.16622	0.19514
1751.23755	0.19488
1749.30887	0.19472
1747.38020	0.19492
1745.45152	0.19523
1743.52284	0.19536
1741.59417	0.19534
1739.66549	0.19534
1737.73682	0.19524
1735.80814	0.19479
1733.87947	0.19445
1731.95079	0.19477
1730.02211	0.19542
1728.09344	0.19596
1726.16476	0.19632
1724.23609	0.19653
1722.30741	0.19652
1720.37874	0.19612
1718.45006	0.19568
1716.52138	0.19580
1714.59271	0.19637
1712.66403	0.19694
1710.73536	0.19728
1708.80668	0.19732
1706.87801	0.19725
1704.94933	0.19730
1703.02065	0.19718
1701.09198	0.19679
1699.16330	0.19660
1697.23463	0.19665
1695.30595	0.19690
1693.37728	0.19750
1691.44860	0.19794
1689.51992	0.19794
1687.59125	0.19761
1685.66257	0.19703
1683.73390	0.19683
1681.80522	0.19729
1679.87655	0.19783
1677.94787	0.19799
1676.01919	0.19794
1674.09052	0.19795
1672.16184	0.19790
1670.23317	0.19777
1668.30449	0.19796
1666.37582	0.19844
1664.44714	0.19870
1662.51846	0.19875
1660.58979	0.19886
1658.66111	0.19891
1656.73244	0.19840
1654.80376	0.19735
1652.87509	0.19698
1650.94641	0.19775
1649.01773	0.19831
1647.08906	0.19822
1645.16038	0.19844
1643.23171	0.19905
1641.30303	0.19938
1639.37436	0.19925
1637.44568	0.19892
1635.51700	0.19885
1633.58833	0.19923
1631.65965	0.19962
1629.73098	0.19969
1627.80230	0.19959
1625.87363	0.19931
1623.94495	0.19888
1622.01627	0.19863
1620.08760	0.19868
1618.15892	0.19894
1616.23025	0.19950
1614.30157	0.20021
1612.37290	0.20075
1610.44422	0.20107
1608.51554	0.20132
1606.58687	0.20158
1604.65819	0.20181
1602.72952	0.20200
1600.80084	0.20220
1598.87217	0.20240
1596.94349	0.20254
1595.01481	0.20267
1593.08614	0.20285
1591.15746	0.20306
1589.22879	0.20325
1587.30011	0.20342
1585.37144	0.20358
1583.44276	0.20371
1581.51408	0.20381
1579.58541	0.20380
1577.65673	0.20365
1575.72806	0.20370
1573.79938	0.20399
1571.87071	0.20396
1569.94203	0.20377
1568.01335	0.20405
1566.08468	0.20455
1564.15600	0.20478
1562.22733	0.20457
1560.29865	0.20388
1558.36998	0.20342
1556.44130	0.20385
1554.51262	0.20463
1552.58395	0.20513
1550.65527	0.20534
1548.72660	0.20557
1546.79792	0.20575
1544.86925	0.20550
1542.94057	0.20496
1541.01189	0.20458
1539.08322	0.20479
1537.15454	0.20548
1535.22587	0.20600
1533.29719	0.20622
1531.36852	0.20645
1529.43984	0.20655
1527.51116	0.20647
1525.58249	0.20642
1523.65381	0.20625
1521.72514	0.20596
1519.79646	0.20599
1517.86779	0.20631
1515.93911	0.20657
1514.01043	0.20667
1512.08176	0.20662
1510.15308	0.20639
1508.22441	0.20616
1506.29573	0.20643
1504.36706	0.20714
1502.43838	0.20760
1500.50970	0.20751
1498.58103	0.20717
1496.65235	0.20701
1494.72368	0.20722
1492.79500	0.20731
1490.86633	0.20700
1488.93765	0.20683
1487.00897	0.20705
1485.08030	0.20726
1483.15162	0.20720
1481.22295	0.20703
1479.29427	0.20686
1477.36560	0.20646
1475.43692	0.20578
1473.50824	0.20522
1471.57957	0.20509
1469.65089	0.20510
1467.72222	0.20488
1465.79354	0.20452
1463.86487	0.20433
1461.93619	0.20413
1460.00751	0.20356
1458.07884	0.20294
1456.15016	0.20292
1454.22149	0.20334
1452.29281	0.20364
1450.36414	0.20367
1448.43546	0.20367
1446.50678	0.20391
1444.57811	0.20422
1442.64943	0.20436
1440.72076	0.20430
1438.79208	0.20409
1436.86341	0.20398
1434.93473	0.20427
1433.00605	0.20468
1431.07738	0.20490
1429.14870	0.20505
1427.22003	0.20513
1425.29135	0.20506
1423.36268	0.20497
1421.43400	0.20486
1419.50532	0.20476
1417.57665	0.20496
1415.64797	0.20534
1413.71930	0.20552
1411.79062	0.20549
1409.86195	0.20546
1407.93327	0.20538
1406.00459	0.20521
1404.07592	0.20517
1402.14724	0.20527
1400.21857	0.20522
1398.28989	0.20504
1396.36122	0.20490
1394.43254	0.20488
1392.50386	0.20499
1390.57519	0.20497
1388.64651	0.20467
1386.71784	0.20433
1384.78916	0.20420
1382.86049	0.20423
1380.93181	0.20425
1379.00313	0.20418
1377.07446	0.20403
1375.14578	0.20390
1373.21711	0.20392
1371.28843	0.20409
1369.35976	0.20419
1367.43108	0.20412
1365.50240	0.20388
1363.57373	0.20365
1361.64505	0.20376
1359.71638	0.20407
1357.78770	0.20423
1355.85903	0.20424
1353.93035	0.20430
1352.00167	0.20440
1350.07300	0.20447
1348.14432	0.20452
1346.21565	0.20463
1344.28697	0.20471
1342.35830	0.20464
1340.42962	0.20447
1338.50094	0.20439
1336.57227	0.20442
1334.64359	0.20446
1332.71492	0.20442
1330.78624	0.20425
1328.85757	0.20405
1326.92889	0.20391
1325.00021	0.20377
1323.07154	0.20355
1321.14286	0.20331
1319.21419	0.20309
1317.28551	0.20292
1315.35684	0.20276
1313.42816	0.20265
1311.49948	0.20256
1309.57081	0.20239
1307.64213	0.20214
1305.71346	0.20188
1303.78478	0.20162
1301.85611	0.20139
1299.92743	0.20119
1297.99875	0.20098
1296.07008	0.20079
1294.14140	0.20060
1292.21273	0.20044
1290.28405	0.20030
1288.35538	0.20011
1286.42670	0.19988
1284.49802	0.19966
1282.56935	0.19945
1280.64067	0.19922
1278.71200	0.19894
1276.78332	0.19857
1274.85465	0.19815
1272.92597	0.19769
1270.99729	0.19710
1269.06862	0.19628
1267.13994	0.19530
1265.21127	0.19442
1263.28259	0.19383
1261.35392	0.19356
1259.42524	0.19356
1257.49656	0.19374
1255.56789	0.19390
1253.63921	0.19395
1251.71054	0.19388
1249.78186	0.19370
1247.85319	0.19340
1245.92451	0.19299
1243.99583	0.19252
1242.06716	0.19210
1240.13848	0.19172
1238.20981	0.19127
1236.28113	0.19075
1234.35246	0.19019
1232.42378	0.18959
1230.49510	0.18894
1228.56643	0.18832
1226.63775	0.18779
1224.70908	0.18735
1222.78040	0.18697
1220.85173	0.18653
1218.92305	0.18597
1216.99437	0.18536
1215.06570	0.18480
1213.13702	0.18427
1211.20835	0.18373
1209.27967	0.18314
1207.35100	0.18255
1205.42232	0.18199
1203.49364	0.18142
1201.56497	0.18083
1199.63629	0.18022
1197.70762	0.17960
1195.77894	0.17897
1193.85027	0.17836
1191.92159	0.17775
1189.99291	0.17706
1188.06424	0.17630
1186.13556	0.17556
1184.20689	0.17481
1182.27821	0.17397
1180.34954	0.17305
1178.42086	0.17217
1176.49218	0.17136
1174.56351	0.17057
1172.63483	0.16975
1170.70616	0.16888
1168.77748	0.16802
1166.84881	0.16715
1164.92013	0.16624
1162.99145	0.16537
1161.06278	0.16459
1159.13410	0.16380
1157.20543	0.16298
1155.27675	0.16216
1153.34808	0.16137
1151.41940	0.16063
1149.49072	0.15989
1147.56205	0.15908
1145.63337	0.15821
1143.70470	0.15728
1141.77602	0.15627
1139.84735	0.15521
1137.91867	0.15411
1135.98999	0.15291
1134.06132	0.15156
1132.13264	0.15001
1130.20397	0.14824
1128.27529	0.14623
1126.34662	0.14399
1124.41794	0.14160
1122.48926	0.13913
1120.56059	0.13670
1118.63191	0.13441
1116.70324	0.13235
1114.77456	0.13051
1112.84589	0.12893
1110.91721	0.12762
1108.98853	0.12653
1107.05986	0.12571
1105.13118	0.12523
1103.20251	0.12505
1101.27383	0.12516
1099.34516	0.12554
1097.41648	0.12616
1095.48780	0.12691
1093.55913	0.12774
1091.63045	0.12859
1089.70178	0.12939
1087.77310	0.13015
1085.84443	0.13085
1083.91575	0.13140
1081.98707	0.13179
1080.05840	0.13209
1078.12972	0.13230
1076.20105	0.13243
1074.27237	0.13249
1072.34370	0.13255
1070.41502	0.13269
1068.48634	0.13292
1066.55767	0.13314
1064.62899	0.13334
1062.70032	0.13355
1060.77164	0.13379
1058.84297	0.13401
1056.91429	0.13421
1054.98561	0.13443
1053.05694	0.13468
1051.12826	0.13500
1049.19959	0.13542
1047.27091	0.13587
1045.34224	0.13629
1043.41356	0.13670
1041.48488	0.13709
1039.55621	0.13743
1037.62753	0.13778
1035.69886	0.13821
1033.77018	0.13862
1031.84151	0.13895
1029.91283	0.13927
1027.98415	0.13963
1026.05548	0.13996
1024.12680	0.14027
1022.19813	0.14065
1020.26945	0.14109
1018.34078	0.14156
1016.41210	0.14205
1014.48342	0.14256
1012.55475	0.14307
1010.62607	0.14358
1008.69740	0.14410
1006.76872	0.14461
1004.84005	0.14514
1002.91137	0.14563
1000.98269	0.14597
999.05402	0.14619
997.12534	0.14640
995.19667	0.14663
993.26799	0.14684
991.33932	0.14693
989.41064	0.14694
987.48196	0.14696
985.55329	0.14696
983.62461	0.14691
981.69594	0.14687
979.76726	0.14683
977.83859	0.14670
975.90991	0.14647
973.98123	0.14626
972.05256	0.14610
970.12388	0.14592
968.19521	0.14574
966.26653	0.14558
964.33786	0.14541
962.40918	0.14523
960.48050	0.14508
958.55183	0.14492
956.62315	0.14474
954.69448	0.14459
952.76580	0.14445
950.83713	0.14431
948.90845	0.14411
946.97977	0.14385
945.05110	0.14358
943.12242	0.14329
941.19375	0.14295
939.26507	0.14260
937.33640	0.14226
935.40772	0.14184
933.47904	0.14131
931.55037	0.14071
929.62169	0.14015
927.69302	0.13966
925.76434	0.13917
923.83567	0.13863
921.90699	0.13804
919.97831	0.13746
918.04964	0.13689
916.12096	0.13631
914.19229	0.13563
912.26361	0.13482
910.33494	0.13397
908.40626	0.13315
906.47758	0.13243
904.54891	0.13182
902.62023	0.13125
900.69156	0.13067
898.76288	0.13005
896.83421	0.12943
894.90553	0.12893
892.97685	0.12854
891.04818	0.12818
889.11950	0.12781
887.19083	0.12740
885.26215	0.12695
883.33348	0.12653
881.40480	0.12614
879.47612	0.12577
877.54745	0.12543
875.61877	0.12517
873.69010	0.12494
871.76142	0.12472
869.83275	0.12449
867.90407	0.12427
865.97539	0.12407
864.04672	0.12389
862.11804	0.12371
860.18937	0.12362
858.26069	0.12355
856.33202	0.12339
854.40334	0.12318
852.47466	0.12297
850.54599	0.12274
848.61731	0.12244
846.68864	0.12212
844.75996	0.12185
842.83129	0.12164
840.90261	0.12139
838.97394	0.12095
837.04526	0.12036
835.11658	0.11976
833.18791	0.11906
831.25923	0.11816
829.33056	0.11711
827.40188	0.11611
825.47321	0.11517
823.54453	0.11425
821.61585	0.11339
819.68718	0.11264
817.75850	0.11204
815.82983	0.11162
813.90115	0.11128
811.97248	0.11096
810.04380	0.11071
808.11512	0.11058
806.18645	0.11048
804.25777	0.11036
802.32910	0.11025
800.40042	0.11002
798.47175	0.10957
796.54307	0.10904
794.61439	0.10858
792.68572	0.10815
790.75704	0.10778
788.82837	0.10754
786.89969	0.10738
784.97102	0.10723
783.04234	0.10697
781.11366	0.10659
779.18499	0.10613
777.25631	0.10569
775.32764	0.10536
773.39896	0.10517
771.47029	0.10501
769.54161	0.10474
767.61293	0.10436
765.68426	0.10394
763.75558	0.10353
761.82691	0.10308
759.89823	0.10250
757.96956	0.10187
756.04088	0.10128
754.11220	0.10072
752.18353	0.10015
750.25485	0.09948
748.32618	0.09871
746.39750	0.09796
744.46883	0.09717
742.54015	0.09619
740.61147	0.09520
738.68280	0.09454
736.75412	0.09432
734.82545	0.09440
732.89677	0.09452
730.96810	0.09451
729.03942	0.09447
727.11074	0.09452
725.18207	0.09465
723.25339	0.09486
721.32472	0.09513
719.39604	0.09534
717.46737	0.09552
715.53869	0.09582
713.61001	0.09628
711.68134	0.09671
709.75266	0.09697
707.82399	0.09707
705.89531	0.09704
703.96664	0.09691
702.03796	0.09665
700.10928	0.09626
698.18061	0.09574
696.25193	0.09512
694.32326	0.09447
692.39458	0.09389
690.46591	0.09335
688.53723	0.09287
686.60855	0.09243
684.67988	0.09198
682.75120	0.09149
680.82253	0.09088
678.89385	0.09020
676.96518	0.08955
675.03650	0.08895
673.10782	0.08832
671.17915	0.08754
669.25047	0.08663
667.32180	0.08577
665.39312	0.08506
663.46445	0.08431
661.53577	0.08345
659.60709	0.08254
657.67842	0.08165
655.74974	0.08078
653.82107	0.07995
651.89239	0.07916
649.96372	0.07836
648.03504	0.07757
646.10636	0.07675
644.17769	0.07582
642.24901	0.07478
640.32034	0.07373
638.39166	0.07275
636.46299	0.07174
634.53431	0.07056
632.60563	0.06899
630.67696	0.06663
628.74828	0.06320
626.81961	0.05874
624.89093	0.05406
622.96226	0.05036
621.03358	0.04810
619.10490	0.04696
617.17623	0.04621
615.24755	0.04534
613.31888	0.04428
611.39020	0.04324
609.46153	0.04267
607.53285	0.04273
605.60417	0.04313
603.67550	0.04371
601.74682	0.04451
599.81815	0.04543
597.88947	0.04623
595.96080	0.04688
594.03212	0.04744
592.10344	0.04782
590.17477	0.04792
588.24609	0.04781
586.31742	0.04764
584.38874	0.04747
582.46007	0.04719
580.53139	0.04678
578.60271	0.04635
576.67404	0.04591
574.74536	0.04541
572.81669	0.04489
570.88801	0.04429
568.95934	0.04358
567.03066	0.04294
565.10198	0.04251
563.17331	0.04217
561.24463	0.04184
559.31596	0.04159
557.38728	0.04140
555.45861	0.04118
553.52993	0.04091
551.60125	0.04074
549.67258	0.04067
547.74390	0.04058
545.81523	0.04042
543.88655	0.04026
541.95788	0.04012
540.02920	0.04001
538.10052	0.03987
536.17185	0.03966
534.24317	0.03939
532.31450	0.03911
530.38582	0.03882
528.45715	0.03848
526.52847	0.03814
524.59979	0.03790
522.67112	0.03763
520.74244	0.03712
518.81377	0.03639
516.88509	0.03563
514.95642	0.03495
513.02774	0.03455
511.09906	0.03443
509.17039	0.03436
507.24171	0.03422
505.31304	0.03398
503.38436	0.03361
501.45569	0.03317
499.52701	0.03271
497.59833	0.03218
495.66966	0.03161
493.74098	0.03104
491.81231	0.03052
489.88363	0.02992
487.95496	0.02929
486.02628	0.02876
484.09760	0.02829
482.16893	0.02780
480.24025	0.02725
478.31158	0.02665
476.38290	0.02606
474.45423	0.02551
472.52555	0.02495
470.59687	0.02440
468.66820	0.02391
466.73952	0.02356
464.81085	0.02342
462.88217	0.02340
460.95350	0.02333
459.02482	0.02321
457.09614	0.02308
455.16747	0.02298
453.23879	0.02294
451.31012	0.02300
449.38144	0.02303
447.45277	0.02286
445.52409	0.02254
443.59541	0.02228
441.66674	0.02202
439.73806	0.02164
437.80939	0.02118
435.88071	0.02068
433.95204	0.02013
432.02336	0.01953
430.09468	0.01887
428.16601	0.01820
426.23733	0.01762
424.30866	0.01709
422.37998	0.01651
420.45131	0.01583
418.52263	0.01508
416.59395	0.01436
414.66528	0.01367
412.73660	0.01299
410.80793	0.01236
408.87925	0.01180
406.95058	0.01126
405.02190	0.01070
403.09322	0.01011
401.16455	0.00950
399.23587	0.00890
397.30720	0.00833
395.37852	0.00783
393.44985	0.00742
391.52117	0.00699
389.59249	0.00642
387.66382	0.00584
385.73514	0.00540
383.80647	0.00506
381.87779	0.00463
379.94912	0.00417
378.02044	0.00388
376.09176	0.00369
374.16309	0.00337
372.23441	0.00299
370.30574	0.00271
368.37706	0.00240
