7496.76250	0.00121
7494.83382	0.00121
7492.90514	0.00123
7490.97647	0.00124
7489.04779	0.00124
7487.11912	0.00123
7485.19044	0.00123
7483.26177	0.00123
7481.33309	0.00124
7479.40441	0.00125
7477.47574	0.00126
7475.54706	0.00126
7473.61839	0.00126
7471.68971	0.00125
7469.76104	0.00125
7467.83236	0.00126
7465.90368	0.00126
7463.97501	0.00126
7462.04633	0.00127
7460.11766	0.00127
7458.18898	0.00127
7456.26031	0.00127
7454.33163	0.00128
7452.40295	0.00129
7450.47428	0.00130
7448.54560	0.00131
7446.61693	0.00131
7444.68825	0.00130
7442.75958	0.00129
7440.83090	0.00129
7438.90222	0.00129
7436.97355	0.00129
7435.04487	0.00129
7433.11620	0.00130
7431.18752	0.00131
7429.25885	0.00131
7427.33017	0.00131
7425.40149	0.00131
7423.47282	0.00131
7421.54414	0.00132
7419.61547	0.00134
7417.68679	0.00134
7415.75812	0.00134
7413.82944	0.00134
7411.90076	0.00135
7409.97209	0.00136
7408.04341	0.00135
7406.11474	0.00136
7404.18606	0.00137
7402.25739	0.00138
7400.32871	0.00138
7398.40003	0.00140
7396.47136	0.00142
7394.54268	0.00141
7392.61401	0.00138
7390.68533	0.00136
7388.75666	0.00137
7386.82798	0.00137
7384.89930	0.00138
7382.97063	0.00139
7381.04195	0.00140
7379.11328	0.00140
7377.18460	0.00141
7375.25593	0.00140
7373.32725	0.00140
7371.39857	0.00141
7369.46990	0.00142
7367.54122	0.00142
7365.61255	0.00143
7363.68387	0.00144
7361.75520	0.00144
7359.82652	0.00143
7357.89784	0.00143
7355.96917	0.00144
7354.04049	0.00145
7352.11182	0.00146
7350.18314	0.00148
7348.25447	0.00149
7346.32579	0.00149
7344.39711	0.00148
7342.46844	0.00147
7340.53976	0.00147
7338.61109	0.00148
7336.68241	0.00148
7334.75374	0.00149
7332.82506	0.00150
7330.89638	0.00150
7328.96771	0.00151
7327.03903	0.00151
7325.11036	0.00151
7323.18168	0.00152
7321.25301	0.00153
7319.32433	0.00153
7317.39565	0.00153
7315.46698	0.00153
7313.53830	0.00153
7311.60963	0.00154
7309.68095	0.00154
7307.75228	0.00154
7305.82360	0.00155
7303.89492	0.00156
7301.96625	0.00158
7300.03757	0.00157
7298.10890	0.00156
7296.18022	0.00156
7294.25155	0.00156
7292.32287	0.00158
7290.39419	0.00159
7288.46552	0.00159
7286.53684	0.00159
7284.60817	0.00159
7282.67949	0.00160
7280.75082	0.00162
7278.82214	0.00164
7276.89346	0.00164
7274.96479	0.00163
7273.03611	0.00162
7271.10744	0.00162
7269.17876	0.00162
7267.25009	0.00162
7265.32141	0.00162
7263.39273	0.00163
7261.46406	0.00163
7259.53538	0.00165
7257.60671	0.00166
7255.67803	0.00165
7253.74936	0.00164
7251.82068	0.00165
7249.89200	0.00165
7247.96333	0.00166
7246.03465	0.00166
7244.10598	0.00166
7242.17730	0.00167
7240.24863	0.00167
7238.31995	0.00166
7236.39127	0.00166
7234.46260	0.00167
7232.53392	0.00169
7230.60525	0.00169
7228.67657	0.00168
7226.74790	0.00168
7224.81922	0.00169
7222.89054	0.00171
7220.96187	0.00171
7219.03319	0.00172
7217.10452	0.00174
7215.17584	0.00175
7213.24717	0.00173
7211.31849	0.00173
7209.38981	0.00174
7207.46114	0.00175
7205.53246	0.00176
7203.60379	0.00177
7201.67511	0.00178
7199.74644	0.00177
7197.81776	0.00176
7195.88908	0.00175
7193.96041	0.00175
7192.03173	0.00176
7190.10306	0.00177
7188.17438	0.00177
7186.24571	0.00178
7184.31703	0.00178
7182.38835	0.00179
7180.45968	0.00180
7178.53100	0.00181
7176.60233	0.00181
7174.67365	0.00182
7172.74498	0.00184
7170.81630	0.00186
7168.88762	0.00186
7166.95895	0.00184
7165.03027	0.00183
7163.10160	0.00183
7161.17292	0.00184
7159.24425	0.00185
7157.31557	0.00185
7155.38689	0.00185
7153.45822	0.00186
7151.52954	0.00186
7149.60087	0.00185
7147.67219	0.00185
7145.74352	0.00184
7143.81484	0.00183
7141.88616	0.00185
7139.95749	0.00189
7138.02881	0.00191
7136.10014	0.00190
7134.17146	0.00190
7132.24279	0.00190
7130.31411	0.00190
7128.38543	0.00189
7126.45676	0.00190
7124.52808	0.00191
7122.59941	0.00192
7120.67073	0.00193
7118.74206	0.00194
7116.81338	0.00195
7114.88470	0.00196
7112.95603	0.00197
7111.02735	0.00196
7109.09868	0.00195
7107.17000	0.00193
7105.24133	0.00193
7103.31265	0.00194
7101.38397	0.00196
7099.45530	0.00196
7097.52662	0.00197
7095.59795	0.00200
7093.66927	0.00201
7091.74060	0.00201
7089.81192	0.00200
7087.88324	0.00201
7085.95457	0.00201
7084.02589	0.00201
7082.09722	0.00201
7080.16854	0.00202
7078.23987	0.00203
7076.31119	0.00203
7074.38251	0.00203
7072.45384	0.00203
7070.52516	0.00204
7068.59649	0.00205
7066.66781	0.00205
7064.73914	0.00206
7062.81046	0.00206
7060.88178	0.00206
7058.95311	0.00206
7057.02443	0.00207
7055.09576	0.00208
7053.16708	0.00209
7051.23841	0.00210
7049.30973	0.00210
7047.38105	0.00211
7045.45238	0.00212
7043.52370	0.00213
7041.59503	0.00213
7039.66635	0.00212
7037.73768	0.00212
7035.80900	0.00211
7033.88032	0.00211
7031.95165	0.00211
7030.02297	0.00212
7028.09430	0.00213
7026.16562	0.00213
7024.23695	0.00213
7022.30827	0.00213
7020.37959	0.00214
7018.45092	0.00216
7016.52224	0.00216
7014.59357	0.00217
7012.66489	0.00218
7010.73622	0.00218
7008.80754	0.00218
7006.87886	0.00217
7004.95019	0.00218
7003.02151	0.00221
7001.09284	0.00221
6999.16416	0.00220
6997.23549	0.00220
6995.30681	0.00221
6993.37813	0.00223
6991.44946	0.00223
6989.52078	0.00223
6987.59211	0.00222
6985.66343	0.00222
6983.73476	0.00224
6981.80608	0.00226
6979.87740	0.00227
6977.94873	0.00226
6976.02005	0.00226
6974.09138	0.00225
6972.16270	0.00227
6970.23403	0.00228
6968.30535	0.00229
6966.37667	0.00228
6964.44800	0.00228
6962.51932	0.00229
6960.59065	0.00231
6958.66197	0.00233
6956.73330	0.00234
6954.80462	0.00234
6952.87594	0.00232
6950.94727	0.00232
6949.01859	0.00232
6947.08992	0.00233
6945.16124	0.00234
6943.23257	0.00236
6941.30389	0.00238
6939.37521	0.00237
6937.44654	0.00236
6935.51786	0.00236
6933.58919	0.00236
6931.66051	0.00236
6929.73184	0.00237
6927.80316	0.00238
6925.87448	0.00238
6923.94581	0.00241
6922.01713	0.00242
6920.08846	0.00243
6918.15978	0.00243
6916.23111	0.00243
6914.30243	0.00242
6912.37375	0.00244
6910.44508	0.00245
6908.51640	0.00246
6906.58773	0.00246
6904.65905	0.00245
6902.73038	0.00244
6900.80170	0.00244
6898.87302	0.00244
6896.94435	0.00245
6895.01567	0.00246
6893.08700	0.00248
6891.15832	0.00249
6889.22965	0.00250
6887.30097	0.00251
6885.37229	0.00252
6883.44362	0.00252
6881.51494	0.00252
6879.58627	0.00250
6877.65759	0.00250
6875.72892	0.00252
6873.80024	0.00254
6871.87156	0.00255
6869.94289	0.00256
6868.01421	0.00257
6866.08554	0.00256
6864.15686	0.00254
6862.22819	0.00255
6860.29951	0.00258
6858.37083	0.00259
6856.44216	0.00260
6854.51348	0.00260
6852.58481	0.00261
6850.65613	0.00261
6848.72746	0.00260
6846.79878	0.00260
6844.87010	0.00260
6842.94143	0.00259
6841.01275	0.00259
6839.08408	0.00261
6837.15540	0.00264
6835.22673	0.00267
6833.29805	0.00267
6831.36937	0.00266
6829.44070	0.00266
6827.51202	0.00266
6825.58335	0.00266
6823.65467	0.00266
6821.72600	0.00266
6819.79732	0.00266
6817.86864	0.00266
6815.93997	0.00268
6814.01129	0.00268
6812.08262	0.00269
6810.15394	0.00270
6808.22527	0.00269
6806.29659	0.00270
6804.36791	0.00271
6802.43924	0.00272
6800.51056	0.00272
6798.58189	0.00272
6796.65321	0.00273
6794.72454	0.00275
6792.79586	0.00276
6790.86718	0.00276
6788.93851	0.00276
6787.00983	0.00276
6785.08116	0.00276
6783.15248	0.00276
6781.22381	0.00277
6779.29513	0.00279
6777.36645	0.00281
6775.43778	0.00281
6773.50910	0.00281
6771.58043	0.00282
6769.65175	0.00282
6767.72308	0.00284
6765.79440	0.00285
6763.86572	0.00286
6761.93705	0.00286
6760.00837	0.00286
6758.07970	0.00285
6756.15102	0.00286
6754.22235	0.00288
6752.29367	0.00289
6750.36499	0.00289
6748.43632	0.00288
6746.50764	0.00289
6744.57897	0.00290
6742.65029	0.00293
6740.72162	0.00294
6738.79294	0.00292
6736.86426	0.00291
6734.93559	0.00291
6733.00691	0.00294
6731.07824	0.00296
6729.14956	0.00296
6727.22089	0.00297
6725.29221	0.00299
6723.36353	0.00299
6721.43486	0.00297
6719.50618	0.00296
6717.57751	0.00297
6715.64883	0.00298
6713.72016	0.00298
6711.79148	0.00300
6709.86280	0.00303
6707.93413	0.00305
6706.00545	0.00305
6704.07678	0.00303
6702.14810	0.00302
6700.21943	0.00304
6698.29075	0.00306
6696.36207	0.00307
6694.43340	0.00307
6692.50472	0.00308
6690.57605	0.00310
6688.64737	0.00310
6686.71870	0.00310
6684.79002	0.00310
6682.86134	0.00311
6680.93267	0.00313
6679.00399	0.00314
6677.07532	0.00315
6675.14664	0.00315
6673.21797	0.00315
6671.28929	0.00314
6669.36061	0.00315
6667.43194	0.00315
6665.50326	0.00316
6663.57459	0.00316
6661.64591	0.00317
6659.71724	0.00316
6657.78856	0.00316
6655.85988	0.00315
6653.93121	0.00316
6652.00253	0.00319
6650.07386	0.00322
6648.14518	0.00323
6646.21651	0.00324
6644.28783	0.00325
6642.35915	0.00325
6640.43048	0.00323
6638.50180	0.00323
6636.57313	0.00324
6634.64445	0.00326
6632.71578	0.00327
6630.78710	0.00328
6628.85842	0.00329
6626.92975	0.00330
6625.00107	0.00331
6623.07240	0.00331
6621.14372	0.00331
6619.21505	0.00332
6617.28637	0.00334
6615.35769	0.00336
6613.42902	0.00335
6611.50034	0.00335
6609.57167	0.00335
6607.64299	0.00336
6605.71432	0.00337
6603.78564	0.00339
6601.85696	0.00340
6599.92829	0.00339
6597.99961	0.00338
6596.07094	0.00339
6594.14226	0.00341
6592.21359	0.00342
6590.28491	0.00343
6588.35623	0.00342
6586.42756	0.00342
6584.49888	0.00343
6582.57021	0.00344
6580.64153	0.00345
6578.71286	0.00347
6576.78418	0.00350
6574.85550	0.00352
6572.92683	0.00352
6570.99815	0.00351
6569.06948	0.00350
6567.14080	0.00350
6565.21213	0.00350
6563.28345	0.00350
6561.35477	0.00351
6559.42610	0.00351
6557.49742	0.00353
6555.56875	0.00354
6553.64007	0.00355
6551.71140	0.00356
6549.78272	0.00358
6547.85404	0.00360
6545.92537	0.00362
6543.99669	0.00363
6542.06802	0.00362
6540.13934	0.00362
6538.21067	0.00363
6536.28199	0.00363
6534.35331	0.00363
6532.42464	0.00364
6530.49596	0.00364
6528.56729	0.00364
6526.63861	0.00366
6524.70994	0.00367
6522.78126	0.00367
6520.85258	0.00368
6518.92391	0.00370
6516.99523	0.00371
6515.06656	0.00371
6513.13788	0.00371
6511.20921	0.00372
6509.28053	0.00373
6507.35185	0.00375
6505.42318	0.00375
6503.49450	0.00376
6501.56583	0.00376
6499.63715	0.00376
6497.70848	0.00376
6495.77980	0.00377
6493.85112	0.00379
6491.92245	0.00381
6489.99377	0.00384
6488.06510	0.00385
6486.13642	0.00385
6484.20775	0.00385
6482.27907	0.00385
6480.35039	0.00386
6478.42172	0.00387
6476.49304	0.00386
6474.56437	0.00385
6472.63569	0.00385
6470.70702	0.00387
6468.77834	0.00389
6466.84966	0.00391
6464.92099	0.00392
6462.99231	0.00392
6461.06364	0.00391
6459.13496	0.00392
6457.20629	0.00394
6455.27761	0.00395
6453.34893	0.00395
6451.42026	0.00396
6449.49158	0.00398
6447.56291	0.00398
6445.63423	0.00398
6443.70556	0.00399
6441.77688	0.00399
6439.84820	0.00400
6437.91953	0.00401
6435.99085	0.00402
6434.06218	0.00403
6432.13350	0.00405
6430.20483	0.00406
6428.27615	0.00408
6426.34747	0.00409
6424.41880	0.00408
6422.49012	0.00410
6420.56145	0.00412
6418.63277	0.00412
6416.70410	0.00412
6414.77542	0.00414
6412.84674	0.00417
6410.91807	0.00418
6408.98939	0.00419
6407.06072	0.00419
6405.13204	0.00417
6403.20337	0.00416
6401.27469	0.00417
6399.34601	0.00418
6397.41734	0.00419
6395.48866	0.00422
6393.55999	0.00425
6391.63131	0.00426
6389.70264	0.00426
6387.77396	0.00426
6385.84528	0.00426
6383.91661	0.00427
6381.98793	0.00427
6380.05926	0.00427
6378.13058	0.00428
6376.20191	0.00431
6374.27323	0.00434
6372.34455	0.00435
6370.41588	0.00435
6368.48720	0.00435
6366.55853	0.00433
6364.62985	0.00433
6362.70118	0.00434
6360.77250	0.00436
6358.84382	0.00438
6356.91515	0.00438
6354.98647	0.00440
6353.05780	0.00444
6351.12912	0.00446
6349.20045	0.00445
6347.27177	0.00444
6345.34309	0.00445
6343.41442	0.00446
6341.48574	0.00445
6339.55707	0.00445
6337.62839	0.00447
6335.69972	0.00450
6333.77104	0.00451
6331.84236	0.00453
6329.91369	0.00455
6327.98501	0.00456
6326.05634	0.00455
6324.12766	0.00456
6322.19899	0.00458
6320.27031	0.00458
6318.34163	0.00458
6316.41296	0.00459
6314.48428	0.00461
6312.55561	0.00462
6310.62693	0.00462
6308.69826	0.00462
6306.76958	0.00462
6304.84090	0.00462
6302.91223	0.00464
6300.98355	0.00467
6299.05488	0.00469
6297.12620	0.00469
6295.19753	0.00468
6293.26885	0.00469
6291.34017	0.00472
6289.41150	0.00474
6287.48282	0.00474
6285.55415	0.00474
6283.62547	0.00476
6281.69680	0.00478
6279.76812	0.00479
6277.83944	0.00480
6275.91077	0.00481
6273.98209	0.00481
6272.05342	0.00481
6270.12474	0.00482
6268.19607	0.00483
6266.26739	0.00484
6264.33871	0.00484
6262.41004	0.00486
6260.48136	0.00488
6258.55269	0.00490
6256.62401	0.00490
6254.69534	0.00491
6252.76666	0.00492
6250.83798	0.00494
6248.90931	0.00496
6246.98063	0.00498
6245.05196	0.00499
6243.12328	0.00498
6241.19461	0.00497
6239.26593	0.00497
6237.33725	0.00498
6235.40858	0.00499
6233.47990	0.00500
6231.55123	0.00501
6229.62255	0.00502
6227.69388	0.00504
6225.76520	0.00506
6223.83652	0.00506
6221.90785	0.00506
6219.97917	0.00509
6218.05050	0.00510
6216.12182	0.00509
6214.19315	0.00509
6212.26447	0.00510
6210.33579	0.00512
6208.40712	0.00514
6206.47844	0.00515
6204.54977	0.00514
6202.62109	0.00516
6200.69242	0.00519
6198.76374	0.00520
6196.83506	0.00521
6194.90639	0.00523
6192.97771	0.00526
6191.04904	0.00527
6189.12036	0.00526
6187.19169	0.00525
6185.26301	0.00526
6183.33433	0.00527
6181.40566	0.00529
6179.47698	0.00531
6177.54831	0.00531
6175.61963	0.00532
6173.69096	0.00534
6171.76228	0.00537
6169.83360	0.00539
6167.90493	0.00540
6165.97625	0.00540
6164.04758	0.00541
6162.11890	0.00541
6160.19023	0.00541
6158.26155	0.00543
6156.33287	0.00547
6154.40420	0.00550
6152.47552	0.00551
6150.54685	0.00549
6148.61817	0.00548
6146.68950	0.00548
6144.76082	0.00549
6142.83214	0.00552
6140.90347	0.00554
6138.97479	0.00555
6137.04612	0.00556
6135.11744	0.00556
6133.18877	0.00557
6131.26009	0.00559
6129.33141	0.00561
6127.40274	0.00562
6125.47406	0.00564
6123.54539	0.00565
6121.61671	0.00565
6119.68804	0.00565
6117.75936	0.00567
6115.83068	0.00570
6113.90201	0.00571
6111.97333	0.00571
6110.04466	0.00569
6108.11598	0.00569
6106.18731	0.00571
6104.25863	0.00574
6102.32995	0.00576
6100.40128	0.00577
6098.47260	0.00578
6096.54393	0.00580
6094.61525	0.00582
6092.68658	0.00583
6090.75790	0.00583
6088.82922	0.00585
6086.90055	0.00588
6084.97187	0.00589
6083.04320	0.00589
6081.11452	0.00589
6079.18585	0.00590
6077.25717	0.00592
6075.32849	0.00595
6073.39982	0.00597
6071.47114	0.00598
6069.54247	0.00598
6067.61379	0.00600
6065.68512	0.00601
6063.75644	0.00600
6061.82776	0.00599
6059.89909	0.00601
6057.97041	0.00604
6056.04174	0.00606
6054.11306	0.00610
6052.18439	0.00613
6050.25571	0.00613
6048.32703	0.00613
6046.39836	0.00613
6044.46968	0.00614
6042.54101	0.00615
6040.61233	0.00617
6038.68366	0.00618
6036.75498	0.00618
6034.82630	0.00620
6032.89763	0.00623
6030.96895	0.00624
6029.04028	0.00624
6027.11160	0.00625
6025.18293	0.00627
6023.25425	0.00628
6021.32557	0.00629
6019.39690	0.00631
6017.46822	0.00633
6015.53955	0.00634
6013.61087	0.00635
6011.68220	0.00635
6009.75352	0.00636
6007.82484	0.00639
6005.89617	0.00641
6003.96749	0.00642
6002.03882	0.00641
6000.11014	0.00641
5998.18147	0.00643
5996.25279	0.00645
5994.32411	0.00646
5992.39544	0.00646
5990.46676	0.00647
5988.53809	0.00650
5986.60941	0.00652
5984.68074	0.00653
5982.75206	0.00653
5980.82338	0.00653
5978.89471	0.00655
5976.96603	0.00656
5975.03736	0.00657
5973.10868	0.00659
5971.18001	0.00662
5969.25133	0.00664
5967.32265	0.00666
5965.39398	0.00667
5963.46530	0.00668
5961.53663	0.00669
5959.60795	0.00671
5957.67928	0.00672
5955.75060	0.00674
5953.82192	0.00676
5951.89325	0.00678
5949.96457	0.00679
5948.03590	0.00679
5946.10722	0.00681
5944.17855	0.00683
5942.24987	0.00685
5940.32119	0.00685
5938.39252	0.00686
5936.46384	0.00689
5934.53517	0.00691
5932.60649	0.00692
5930.67782	0.00693
5928.74914	0.00694
5926.82046	0.00696
5924.89179	0.00698
5922.96311	0.00700
5921.03444	0.00701
5919.10576	0.00702
5917.17709	0.00703
5915.24841	0.00706
5913.31973	0.00709
5911.39106	0.00709
5909.46238	0.00708
5907.53371	0.00708
5905.60503	0.00710
5903.67636	0.00713
5901.74768	0.00715
5899.81900	0.00717
5897.89033	0.00718
5895.96165	0.00718
5894.03298	0.00719
5892.10430	0.00720
5890.17563	0.00722
5888.24695	0.00726
5886.31827	0.00728
5884.38960	0.00729
5882.46092	0.00729
5880.53225	0.00730
5878.60357	0.00731
5876.67490	0.00733
5874.74622	0.00735
5872.81755	0.00739
5870.88887	0.00741
5868.96019	0.00742
5867.03152	0.00742
5865.10284	0.00742
5863.17417	0.00743
5861.24549	0.00744
5859.31682	0.00747
5857.38814	0.00749
5855.45946	0.00751
5853.53079	0.00753
5851.60211	0.00756
5849.67344	0.00758
5847.74476	0.00759
5845.81609	0.00760
5843.88741	0.00760
5841.95873	0.00760
5840.03006	0.00762
5838.10138	0.00766
5836.17271	0.00768
5834.24403	0.00766
5832.31536	0.00764
5830.38668	0.00765
5828.45800	0.00768
5826.52933	0.00771
5824.60065	0.00773
5822.67198	0.00774
5820.74330	0.00775
5818.81463	0.00777
5816.88595	0.00779
5814.95727	0.00781
5813.02860	0.00782
5811.09992	0.00785
5809.17125	0.00788
5807.24257	0.00789
5805.31390	0.00790
5803.38522	0.00790
5801.45654	0.00790
5799.52787	0.00792
5797.59919	0.00795
5795.67052	0.00797
5793.74184	0.00798
5791.81317	0.00799
5789.88449	0.00801
5787.95581	0.00802
5786.02714	0.00803
5784.09846	0.00805
5782.16979	0.00808
5780.24111	0.00810
5778.31244	0.00812
5776.38376	0.00813
5774.45508	0.00815
5772.52641	0.00818
5770.59773	0.00823
5768.66906	0.00826
5766.74038	0.00827
5764.81171	0.00827
5762.88303	0.00829
5760.95435	0.00831
5759.02568	0.00832
5757.09700	0.00833
5755.16833	0.00834
5753.23965	0.00835
5751.31098	0.00838
5749.38230	0.00840
5747.45362	0.00841
5745.52495	0.00840
5743.59627	0.00841
5741.66760	0.00844
5739.73892	0.00846
5737.81025	0.00849
5735.88157	0.00851
5733.95289	0.00851
5732.02422	0.00852
5730.09554	0.00854
5728.16687	0.00856
5726.23819	0.00859
5724.30952	0.00862
5722.38084	0.00864
5720.45216	0.00864
5718.52349	0.00865
5716.59481	0.00867
5714.66614	0.00870
5712.73746	0.00872
5710.80879	0.00872
5708.88011	0.00872
5706.95143	0.00874
5705.02276	0.00877
5703.09408	0.00880
5701.16541	0.00882
5699.23673	0.00882
5697.30806	0.00882
5695.37938	0.00883
5693.45070	0.00886
5691.52203	0.00888
5689.59335	0.00889
5687.66468	0.00891
5685.73600	0.00894
5683.80733	0.00896
5681.87865	0.00899
5679.94997	0.00901
5678.02130	0.00902
5676.09262	0.00902
5674.16395	0.00903
5672.23527	0.00904
5670.30660	0.00906
5668.37792	0.00908
5666.44924	0.00912
5664.52057	0.00915
5662.59189	0.00916
5660.66322	0.00916
5658.73454	0.00917
5656.80587	0.00920
5654.87719	0.00922
5652.94851	0.00925
5651.01984	0.00927
5649.09116	0.00928
5647.16249	0.00929
5645.23381	0.00930
5643.30514	0.00932
5641.37646	0.00934
5639.44778	0.00936
5637.51911	0.00938
5635.59043	0.00940
5633.66176	0.00941
5631.73308	0.00942
5629.80441	0.00944
5627.87573	0.00947
5625.94705	0.00950
5624.01838	0.00950
5622.08970	0.00951
5620.16103	0.00953
5618.23235	0.00955
5616.30368	0.00957
5614.37500	0.00958
5612.44632	0.00961
5610.51765	0.00965
5608.58897	0.00967
5606.66030	0.00968
5604.73162	0.00969
5602.80295	0.00970
5600.87427	0.00972
5598.94559	0.00975
5597.01692	0.00976
5595.08824	0.00979
5593.15957	0.00982
5591.23089	0.00985
5589.30222	0.00988
5587.37354	0.00989
5585.44486	0.00989
5583.51619	0.00992
5581.58751	0.00996
5579.65884	0.00998
5577.73016	0.00999
5575.80149	0.00999
5573.87281	0.01002
5571.94413	0.01006
5570.01546	0.01009
5568.08678	0.01009
5566.15811	0.01009
5564.22943	0.01009
5562.30076	0.01012
5560.37208	0.01015
5558.44340	0.01016
5556.51473	0.01017
5554.58605	0.01019
5552.65738	0.01023
5550.72870	0.01027
5548.80003	0.01029
5546.87135	0.01030
5544.94267	0.01031
5543.01400	0.01033
5541.08532	0.01036
5539.15665	0.01037
5537.22797	0.01038
5535.29930	0.01039
5533.37062	0.01041
5531.44194	0.01044
5529.51327	0.01047
5527.58459	0.01049
5525.65592	0.01050
5523.72724	0.01051
5521.79857	0.01052
5519.86989	0.01055
5517.94121	0.01058
5516.01254	0.01061
5514.08386	0.01063
5512.15519	0.01065
5510.22651	0.01067
5508.29784	0.01068
5506.36916	0.01068
5504.44048	0.01069
5502.51181	0.01072
5500.58313	0.01076
5498.65446	0.01079
5496.72578	0.01081
5494.79711	0.01081
5492.86843	0.01082
5490.93975	0.01084
5489.01108	0.01086
5487.08240	0.01090
5485.15373	0.01093
5483.22505	0.01096
5481.29638	0.01098
5479.36770	0.01099
5477.43902	0.01100
5475.51035	0.01103
5473.58167	0.01105
5471.65300	0.01106
5469.72432	0.01108
5467.79565	0.01110
5465.86697	0.01110
5463.93829	0.01111
5462.00962	0.01115
5460.08094	0.01119
5458.15227	0.01122
5456.22359	0.01125
5454.29492	0.01128
5452.36624	0.01129
5450.43756	0.01130
5448.50889	0.01132
5446.58021	0.01134
5444.65154	0.01136
5442.72286	0.01137
5440.79419	0.01138
5438.86551	0.01138
5436.93683	0.01141
5435.00816	0.01145
5433.07948	0.01147
5431.15081	0.01148
5429.22213	0.01150
5427.29346	0.01153
5425.36478	0.01157
5423.43610	0.01161
5421.50743	0.01163
5419.57875	0.01165
5417.65008	0.01166
5415.72140	0.01166
5413.79273	0.01166
5411.86405	0.01168
5409.93537	0.01172
5408.00670	0.01175
5406.07802	0.01178
5404.14935	0.01182
5402.22067	0.01183
5400.29200	0.01183
5398.36332	0.01183
5396.43464	0.01185
5394.50597	0.01188
5392.57729	0.01193
5390.64862	0.01197
5388.71994	0.01199
5386.79127	0.01200
5384.86259	0.01202
5382.93391	0.01205
5381.00524	0.01206
5379.07656	0.01209
5377.14789	0.01212
5375.21921	0.01214
5373.29054	0.01213
5371.36186	0.01215
5369.43318	0.01219
5367.50451	0.01222
5365.57583	0.01222
5363.64716	0.01224
5361.71848	0.01228
5359.78981	0.01233
5357.86113	0.01236
5355.93245	0.01236
5354.00378	0.01237
5352.07510	0.01240
5350.14643	0.01244
5348.21775	0.01245
5346.28908	0.01243
5344.36040	0.01243
5342.43172	0.01245
5340.50305	0.01249
5338.57437	0.01251
5336.64570	0.01254
5334.71702	0.01258
5332.78835	0.01260
5330.85967	0.01263
5328.93099	0.01265
5327.00232	0.01266
5325.07364	0.01269
5323.14497	0.01274
5321.21629	0.01278
5319.28762	0.01279
5317.35894	0.01279
5315.43026	0.01279
5313.50159	0.01280
5311.57291	0.01282
5309.64424	0.01285
5307.71556	0.01289
5305.78689	0.01291
5303.85821	0.01291
5301.92953	0.01292
5300.00086	0.01295
5298.07218	0.01300
5296.14351	0.01303
5294.21483	0.01306
5292.28616	0.01309
5290.35748	0.01313
5288.42880	0.01317
5286.50013	0.01320
5284.57145	0.01321
5282.64278	0.01322
5280.71410	0.01324
5278.78543	0.01327
5276.85675	0.01330
5274.92807	0.01331
5272.99940	0.01331
5271.07072	0.01332
5269.14205	0.01335
5267.21337	0.01339
5265.28470	0.01342
5263.35602	0.01345
5261.42734	0.01347
5259.49867	0.01349
5257.56999	0.01350
5255.64132	0.01352
5253.71264	0.01354
5251.78397	0.01357
5249.85529	0.01361
5247.92661	0.01364
5245.99794	0.01368
5244.06926	0.01372
5242.14059	0.01375
5240.21191	0.01376
5238.28324	0.01375
5236.35456	0.01374
5234.42588	0.01374
5232.49721	0.01377
5230.56853	0.01381
5228.63986	0.01383
5226.71118	0.01386
5224.78251	0.01389
5222.85383	0.01392
5220.92515	0.01395
5218.99648	0.01398
5217.06780	0.01402
5215.13913	0.01405
5213.21045	0.01407
5211.28178	0.01410
5209.35310	0.01412
5207.42442	0.01412
5205.49575	0.01414
5203.56707	0.01419
5201.63840	0.01422
5199.70972	0.01423
5197.78105	0.01424
5195.85237	0.01426
5193.92369	0.01429
5191.99502	0.01432
5190.06634	0.01434
5188.13767	0.01435
5186.20899	0.01437
5184.28032	0.01440
5182.35164	0.01443
5180.42296	0.01446
5178.49429	0.01449
5176.56561	0.01453
5174.63694	0.01457
5172.70826	0.01458
5170.77959	0.01458
5168.85091	0.01461
5166.92223	0.01465
5164.99356	0.01468
5163.06488	0.01470
5161.13621	0.01473
5159.20753	0.01475
5157.27886	0.01477
5155.35018	0.01480
5153.42150	0.01483
5151.49283	0.01484
5149.56415	0.01486
5147.63548	0.01488
5145.70680	0.01491
5143.77813	0.01493
5141.84945	0.01495
5139.92077	0.01497
5137.99210	0.01500
5136.06342	0.01503
5134.13475	0.01508
5132.20607	0.01513
5130.27740	0.01515
5128.34872	0.01517
5126.42004	0.01519
5124.49137	0.01520
5122.56269	0.01520
5120.63402	0.01525
5118.70534	0.01530
5116.77667	0.01532
5114.84799	0.01533
5112.91931	0.01535
5110.99064	0.01536
5109.06196	0.01538
5107.13329	0.01542
5105.20461	0.01546
5103.27594	0.01550
5101.34726	0.01550
5099.41858	0.01551
5097.48991	0.01553
5095.56123	0.01556
5093.63256	0.01559
5091.70388	0.01561
5089.77521	0.01563
5087.84653	0.01565
5085.91785	0.01566
5083.98918	0.01568
5082.06050	0.01574
5080.13183	0.01580
5078.20315	0.01584
5076.27448	0.01585
5074.34580	0.01585
5072.41712	0.01588
5070.48845	0.01593
5068.55977	0.01597
5066.63110	0.01600
5064.70242	0.01601
5062.77375	0.01601
5060.84507	0.01602
5058.91639	0.01604
5056.98772	0.01607
5055.05904	0.01610
5053.13037	0.01612
5051.20169	0.01616
5049.27302	0.01621
5047.34434	0.01623
5045.41566	0.01625
5043.48699	0.01627
5041.55831	0.01630
5039.62964	0.01633
5037.70096	0.01636
5035.77229	0.01640
5033.84361	0.01643
5031.91493	0.01644
5029.98626	0.01644
5028.05758	0.01645
5026.12891	0.01647
5024.20023	0.01650
5022.27156	0.01652
5020.34288	0.01657
5018.41420	0.01663
5016.48553	0.01667
5014.55685	0.01668
5012.62818	0.01670
5010.69950	0.01674
5008.77083	0.01677
5006.84215	0.01680
5004.91347	0.01682
5002.98480	0.01684
5001.05612	0.01688
4999.12745	0.01690
4997.19877	0.01692
4995.27010	0.01696
4993.34142	0.01699
4991.41274	0.01700
4989.48407	0.01701
4987.55539	0.01705
4985.62672	0.01709
4983.69804	0.01712
4981.76937	0.01715
4979.84069	0.01718
4977.91201	0.01721
4975.98334	0.01723
4974.05466	0.01726
4972.12599	0.01729
4970.19731	0.01730
4968.26864	0.01733
4966.33996	0.01736
4964.41128	0.01740
4962.48261	0.01743
4960.55393	0.01745
4958.62526	0.01747
4956.69658	0.01749
4954.76791	0.01751
4952.83923	0.01754
4950.91055	0.01757
4948.98188	0.01761
4947.05320	0.01762
4945.12453	0.01763
4943.19585	0.01766
4941.26718	0.01771
4939.33850	0.01775
4937.40982	0.01778
4935.48115	0.01779
4933.55247	0.01782
4931.62380	0.01787
4929.69512	0.01791
4927.76645	0.01794
4925.83777	0.01797
4923.90909	0.01799
4921.98042	0.01803
4920.05174	0.01807
4918.12307	0.01809
4916.19439	0.01811
4914.26572	0.01812
4912.33704	0.01814
4910.40836	0.01817
4908.47969	0.01821
4906.55101	0.01825
4904.62234	0.01827
4902.69366	0.01829
4900.76499	0.01830
4898.83631	0.01832
4896.90763	0.01836
4894.97896	0.01840
4893.05028	0.01843
4891.12161	0.01846
4889.19293	0.01850
4887.26426	0.01854
4885.33558	0.01856
4883.40690	0.01859
4881.47823	0.01862
4879.54955	0.01865
4877.62088	0.01868
4875.69220	0.01871
4873.76353	0.01875
4871.83485	0.01879
4869.90617	0.01881
4867.97750	0.01882
4866.04882	0.01882
4864.12015	0.01886
4862.19147	0.01891
4860.26280	0.01894
4858.33412	0.01897
4856.40544	0.01899
4854.47677	0.01901
4852.54809	0.01903
4850.61942	0.01906
4848.69074	0.01910
4846.76207	0.01914
4844.83339	0.01917
4842.90471	0.01919
4840.97604	0.01921
4839.04736	0.01924
4837.11869	0.01929
4835.19001	0.01933
4833.26134	0.01935
4831.33266	0.01939
4829.40398	0.01942
4827.47531	0.01944
4825.54663	0.01947
4823.61796	0.01950
4821.68928	0.01954
4819.76061	0.01957
4817.83193	0.01959
4815.90325	0.01962
4813.97458	0.01966
4812.04590	0.01969
4810.11723	0.01973
4808.18855	0.01976
4806.25988	0.01977
4804.33120	0.01979
4802.40252	0.01983
4800.47385	0.01988
4798.54517	0.01992
4796.61650	0.01994
4794.68782	0.01996
4792.75915	0.01999
4790.83047	0.02004
4788.90179	0.02007
4786.97312	0.02009
4785.04444	0.02012
4783.11577	0.02014
4781.18709	0.02016
4779.25842	0.02022
4777.32974	0.02028
4775.40106	0.02032
4773.47239	0.02033
4771.54371	0.02034
4769.61504	0.02038
4767.68636	0.02043
4765.75769	0.02047
4763.82901	0.02050
4761.90033	0.02051
4759.97166	0.02054
4758.04298	0.02059
4756.11431	0.02062
4754.18563	0.02064
4752.25696	0.02068
4750.32828	0.02072
4748.39960	0.02076
4746.47093	0.02080
4744.54225	0.02080
4742.61358	0.02080
4740.68490	0.02084
4738.75623	0.02089
4736.82755	0.02093
4734.89887	0.02096
4732.97020	0.02100
4731.04152	0.02106
4729.11285	0.02110
4727.18417	0.02113
4725.25550	0.02117
4723.32682	0.02121
4721.39814	0.02124
4719.46947	0.02125
4717.54079	0.02127
4715.61212	0.02130
4713.68344	0.02136
4711.75477	0.02140
4709.82609	0.02142
4707.89741	0.02144
4705.96874	0.02147
4704.04006	0.02150
4702.11139	0.02153
4700.18271	0.02154
4698.25404	0.02155
4696.32536	0.02158
4694.39668	0.02162
4692.46801	0.02168
4690.53933	0.02173
4688.61066	0.02178
4686.68198	0.02182
4684.75331	0.02187
4682.82463	0.02191
4680.89595	0.02193
4678.96728	0.02195
4677.03860	0.02199
4675.10993	0.02203
4673.18125	0.02205
4671.25258	0.02208
4669.32390	0.02212
4667.39522	0.02217
4665.46655	0.02220
4663.53787	0.02223
4661.60920	0.02226
4659.68052	0.02229
4657.75185	0.02233
4655.82317	0.02238
4653.89449	0.02242
4651.96582	0.02246
4650.03714	0.02248
4648.10847	0.02251
4646.17979	0.02254
4644.25112	0.02258
4642.32244	0.02262
4640.39376	0.02266
4638.46509	0.02269
4636.53641	0.02272
4634.60774	0.02277
4632.67906	0.02283
4630.75039	0.02286
4628.82171	0.02289
4626.89303	0.02294
4624.96436	0.02297
4623.03568	0.02301
4621.10701	0.02306
4619.17833	0.02311
4617.24966	0.02314
4615.32098	0.02317
4613.39230	0.02320
4611.46363	0.02323
4609.53495	0.02325
4607.60628	0.02328
4605.67760	0.02333
4603.74893	0.02340
4601.82025	0.02345
4599.89157	0.02346
4597.96290	0.02348
4596.03422	0.02354
4594.10555	0.02361
4592.17687	0.02365
4590.24820	0.02367
4588.31952	0.02370
4586.39084	0.02374
4584.46217	0.02378
4582.53349	0.02380
4580.60482	0.02383
4578.67614	0.02387
4576.74747	0.02393
4574.81879	0.02398
4572.89011	0.02403
4570.96144	0.02407
4569.03276	0.02408
4567.10409	0.02410
4565.17541	0.02414
4563.24674	0.02421
4561.31806	0.02427
4559.38938	0.02430
4557.46071	0.02432
4555.53203	0.02434
4553.60336	0.02438
4551.67468	0.02443
4549.74601	0.02448
4547.81733	0.02450
4545.88865	0.02453
4543.95998	0.02458
4542.03130	0.02462
4540.10263	0.02466
4538.17395	0.02470
4536.24528	0.02474
4534.31660	0.02479
4532.38792	0.02482
4530.45925	0.02486
4528.53057	0.02491
4526.60190	0.02497
4524.67322	0.02501
4522.74455	0.02504
4520.81587	0.02507
4518.88719	0.02511
4516.95852	0.02516
4515.02984	0.02521
4513.10117	0.02524
4511.17249	0.02529
4509.24382	0.02536
4507.31514	0.02540
4505.38646	0.02542
4503.45779	0.02546
4501.52911	0.02550
4499.60044	0.02553
4497.67176	0.02557
4495.74309	0.02563
4493.81441	0.02570
4491.88573	0.02574
4489.95706	0.02578
4488.02838	0.02582
4486.09971	0.02587
4484.17103	0.02593
4482.24236	0.02596
4480.31368	0.02598
4478.38500	0.02601
4476.45633	0.02605
4474.52765	0.02610
4472.59898	0.02617
4470.67030	0.02623
4468.74163	0.02626
4466.81295	0.02630
4464.88427	0.02635
4462.95560	0.02642
4461.02692	0.02647
4459.09825	0.02651
4457.16957	0.02655
4455.24090	0.02659
4453.31222	0.02663
4451.38354	0.02667
4449.45487	0.02671
4447.52619	0.02674
4445.59752	0.02677
4443.66884	0.02682
4441.74017	0.02687
4439.81149	0.02691
4437.88281	0.02695
4435.95414	0.02702
4434.02546	0.02710
4432.09679	0.02716
4430.16811	0.02720
4428.23944	0.02722
4426.31076	0.02725
4424.38208	0.02731
4422.45341	0.02736
4420.52473	0.02741
4418.59606	0.02745
4416.66738	0.02750
4414.73871	0.02756
4412.81003	0.02761
4410.88135	0.02766
4408.95268	0.02770
4407.02400	0.02774
4405.09533	0.02778
4403.16665	0.02784
4401.23798	0.02789
4399.30930	0.02794
4397.38062	0.02799
4395.45195	0.02805
4393.52327	0.02810
4391.59460	0.02814
4389.66592	0.02817
4387.73725	0.02819
4385.80857	0.02823
4383.87989	0.02829
4381.95122	0.02837
4380.02254	0.02843
4378.09387	0.02848
4376.16519	0.02851
4374.23652	0.02855
4372.30784	0.02859
4370.37916	0.02865
4368.45049	0.02872
4366.52181	0.02879
4364.59314	0.02885
4362.66446	0.02890
4360.73579	0.02894
4358.80711	0.02896
4356.87843	0.02898
4354.94976	0.02902
4353.02108	0.02907
4351.09241	0.02914
4349.16373	0.02922
4347.23506	0.02929
4345.30638	0.02933
4343.37770	0.02936
4341.44903	0.02940
4339.52035	0.02944
4337.59168	0.02950
4335.66300	0.02958
4333.73433	0.02965
4331.80565	0.02969
4329.87697	0.02973
4327.94830	0.02979
4326.01962	0.02985
4324.09095	0.02990
4322.16227	0.02996
4320.23360	0.03002
4318.30492	0.03007
4316.37624	0.03011
4314.44757	0.03016
4312.51889	0.03020
4310.59022	0.03026
4308.66154	0.03034
4306.73287	0.03042
4304.80419	0.03045
4302.87551	0.03048
4300.94684	0.03053
4299.01816	0.03058
4297.08949	0.03065
4295.16081	0.03072
4293.23214	0.03079
4291.30346	0.03086
4289.37478	0.03094
4287.44611	0.03099
4285.51743	0.03102
4283.58876	0.03106
4281.66008	0.03114
4279.73141	0.03121
4277.80273	0.03127
4275.87405	0.03131
4273.94538	0.03138
4272.01670	0.03145
4270.08803	0.03151
4268.15935	0.03154
4266.23068	0.03158
4264.30200	0.03164
4262.37332	0.03170
4260.44465	0.03176
4258.51597	0.03182
4256.58730	0.03187
4254.65862	0.03192
4252.72995	0.03198
4250.80127	0.03203
4248.87259	0.03208
4246.94392	0.03213
4245.01524	0.03220
4243.08657	0.03228
4241.15789	0.03236
4239.22922	0.03243
4237.30054	0.03246
4235.37186	0.03250
4233.44319	0.03255
4231.51451	0.03262
4229.58584	0.03268
4227.65716	0.03274
4225.72849	0.03280
4223.79981	0.03288
4221.87113	0.03295
4219.94246	0.03300
4218.01378	0.03305
4216.08511	0.03309
4214.15643	0.03313
4212.22776	0.03319
4210.29908	0.03325
4208.37040	0.03331
4206.44173	0.03339
4204.51305	0.03349
4202.58438	0.03357
4200.65570	0.03361
4198.72703	0.03366
4196.79835	0.03372
4194.86968	0.03379
4192.94100	0.03383
4191.01232	0.03387
4189.08365	0.03393
4187.15497	0.03401
4185.22630	0.03408
4183.29762	0.03415
4181.36895	0.03422
4179.44027	0.03430
4177.51159	0.03436
4175.58292	0.03441
4173.65424	0.03445
4171.72557	0.03448
4169.79689	0.03455
4167.86822	0.03464
4165.93954	0.03472
4164.01086	0.03479
4162.08219	0.03484
4160.15351	0.03489
4158.22484	0.03496
4156.29616	0.03503
4154.36749	0.03510
4152.43881	0.03518
4150.51013	0.03525
4148.58146	0.03531
4146.65278	0.03537
4144.72411	0.03545
4142.79543	0.03554
4140.86676	0.03562
4138.93808	0.03568
4137.00940	0.03572
4135.08073	0.03578
4133.15205	0.03585
4131.22338	0.03593
4129.29470	0.03601
4127.36603	0.03610
4125.43735	0.03618
4123.50867	0.03624
4121.58000	0.03628
4119.65132	0.03634
4117.72265	0.03639
4115.79397	0.03645
4113.86530	0.03649
4111.93662	0.03655
4110.00794	0.03662
4108.07927	0.03670
4106.15059	0.03678
4104.22192	0.03685
4102.29324	0.03691
4100.36457	0.03699
4098.43589	0.03709
4096.50721	0.03716
4094.57854	0.03722
4092.64986	0.03728
4090.72119	0.03735
4088.79251	0.03741
4086.86384	0.03747
4084.93516	0.03754
4083.00648	0.03761
4081.07781	0.03770
4079.14913	0.03779
4077.22046	0.03785
4075.29178	0.03790
4073.36311	0.03798
4071.43443	0.03806
4069.50575	0.03814
4067.57708	0.03820
4065.64840	0.03825
4063.71973	0.03832
4061.79105	0.03841
4059.86238	0.03850
4057.93370	0.03856
4056.00502	0.03863
4054.07635	0.03872
4052.14767	0.03881
4050.21900	0.03889
4048.29032	0.03896
4046.36165	0.03902
4044.43297	0.03909
4042.50429	0.03917
4040.57562	0.03923
4038.64694	0.03929
4036.71827	0.03935
4034.78959	0.03941
4032.86092	0.03947
4030.93224	0.03955
4029.00356	0.03965
4027.07489	0.03974
4025.14621	0.03981
4023.21754	0.03988
4021.28886	0.03996
4019.36019	0.04003
4017.43151	0.04010
4015.50283	0.04016
4013.57416	0.04023
4011.64548	0.04033
4009.71681	0.04041
4007.78813	0.04049
4005.85946	0.04058
4003.93078	0.04065
4002.00210	0.04071
4000.07343	0.04078
3998.14475	0.04085
3996.21608	0.04091
3994.28740	0.04099
3992.35873	0.04111
3990.43005	0.04123
3988.50137	0.04132
3986.57270	0.04137
3984.64402	0.04141
3982.71535	0.04147
3980.78667	0.04154
3978.85800	0.04164
3976.92932	0.04174
3975.00064	0.04182
3973.07197	0.04189
3971.14329	0.04197
3969.21462	0.04206
3967.28594	0.04213
3965.35727	0.04219
3963.42859	0.04225
3961.49991	0.04235
3959.57124	0.04247
3957.64256	0.04255
3955.71389	0.04260
3953.78521	0.04265
3951.85654	0.04270
3949.92786	0.04275
3947.99918	0.04282
3946.07051	0.04291
3944.14183	0.04301
3942.21316	0.04312
3940.28448	0.04323
3938.35581	0.04333
3936.42713	0.04338
3934.49845	0.04340
3932.56978	0.04345
3930.64110	0.04356
3928.71243	0.04368
3926.78375	0.04377
3924.85508	0.04385
3922.92640	0.04393
3920.99772	0.04399
3919.06905	0.04401
3917.14037	0.04408
3915.21170	0.04421
3913.28302	0.04436
3911.35435	0.04447
3909.42567	0.04453
3907.49699	0.04451
3905.56832	0.04447
3903.63964	0.04448
3901.71097	0.04454
3899.78229	0.04464
3897.85362	0.04483
3895.92494	0.04503
3893.99626	0.04509
3892.06759	0.04510
3890.13891	0.04519
3888.21024	0.04530
3886.28156	0.04536
3884.35289	0.04542
3882.42421	0.04548
3880.49553	0.04554
3878.56686	0.04570
3876.63818	0.04584
3874.70951	0.04590
3872.78083	0.04593
3870.85216	0.04593
3868.92348	0.04600
3866.99480	0.04613
3865.06613	0.04621
3863.13745	0.04628
3861.20878	0.04644
3859.28010	0.04658
3857.35143	0.04649
3855.42275	0.04621
3853.49407	0.04619
3851.56540	0.04658
3849.63672	0.04699
3847.70805	0.04720
3845.77937	0.04728
3843.85070	0.04729
3841.92202	0.04733
3839.99334	0.04737
3838.06467	0.04742
3836.13599	0.04752
3834.20732	0.04763
3832.27864	0.04777
3830.34997	0.04793
3828.42129	0.04806
3826.49261	0.04815
3824.56394	0.04818
3822.63526	0.04814
3820.70659	0.04815
3818.77791	0.04828
3816.84924	0.04841
3814.92056	0.04857
3812.99188	0.04878
3811.06321	0.04892
3809.13453	0.04896
3807.20586	0.04898
3805.27718	0.04904
3803.34851	0.04904
3801.41983	0.04907
3799.49115	0.04922
3797.56248	0.04942
3795.63380	0.04958
3793.70513	0.04975
3791.77645	0.04988
3789.84778	0.04997
3787.91910	0.05006
3785.99042	0.05016
3784.06175	0.05024
3782.13307	0.05025
3780.20440	0.05025
3778.27572	0.05034
3776.34705	0.05052
3774.41837	0.05066
3772.48969	0.05072
3770.56102	0.05075
3768.63234	0.05084
3766.70367	0.05097
3764.77499	0.05109
3762.84632	0.05116
3760.91764	0.05116
3758.98896	0.05118
3757.06029	0.05127
3755.13161	0.05131
3753.20294	0.05120
3751.27426	0.05111
3749.34559	0.05120
3747.41691	0.05133
3745.48823	0.05136
3743.55956	0.05155
3741.63088	0.05192
3739.70221	0.05213
3737.77353	0.05211
3735.84486	0.05210
3733.91618	0.05226
3731.98750	0.05251
3730.05883	0.05266
3728.13015	0.05266
3726.20148	0.05268
3724.27280	0.05279
3722.34413	0.05293
3720.41545	0.05309
3718.48677	0.05325
3716.55810	0.05335
3714.62942	0.05334
3712.70075	0.05330
3710.77207	0.05342
3708.84340	0.05366
3706.91472	0.05387
3704.98604	0.05398
3703.05737	0.05403
3701.12869	0.05411
3699.20002	0.05422
3697.27134	0.05433
3695.34267	0.05442
3693.41399	0.05445
3691.48531	0.05439
3689.55664	0.05435
3687.62796	0.05450
3685.69929	0.05479
3683.77061	0.05501
3681.84194	0.05513
3679.91326	0.05517
3677.98458	0.05511
3676.05591	0.05505
3674.12723	0.05510
3672.19856	0.05518
3670.26988	0.05529
3668.34121	0.05551
3666.41253	0.05576
3664.48385	0.05593
3662.55518	0.05604
3660.62650	0.05612
3658.69783	0.05614
3656.76915	0.05616
3654.84048	0.05619
3652.91180	0.05612
3650.98312	0.05595
3649.05445	0.05586
3647.12577	0.05600
3645.19710	0.05632
3643.26842	0.05663
3641.33975	0.05683
3639.41107	0.05697
3637.48239	0.05706
3635.55372	0.05711
3633.62504	0.05713
3631.69637	0.05705
3629.76769	0.05694
3627.83902	0.05707
3625.91034	0.05737
3623.98166	0.05757
3622.05299	0.05758
3620.12431	0.05754
3618.19564	0.05756
3616.26696	0.05767
3614.33829	0.05777
3612.40961	0.05782
3610.48093	0.05784
3608.55226	0.05793
3606.62358	0.05812
3604.69491	0.05829
3602.76623	0.05837
3600.83756	0.05843
3598.90888	0.05852
3596.98020	0.05859
3595.05153	0.05865
3593.12285	0.05875
3591.19418	0.05881
3589.26550	0.05875
3587.33683	0.05874
3585.40815	0.05889
3583.47947	0.05909
3581.55080	0.05923
3579.62212	0.05933
3577.69345	0.05941
3575.76477	0.05948
3573.83610	0.05956
3571.90742	0.05961
3569.97874	0.05956
3568.05007	0.05953
3566.12139	0.05965
3564.19272	0.05986
3562.26404	0.06003
3560.33537	0.06014
3558.40669	0.06022
3556.47801	0.06029
3554.54934	0.06036
3552.62066	0.06042
3550.69199	0.06049
3548.76331	0.06053
3546.83464	0.06055
3544.90596	0.06061
3542.97728	0.06071
3541.04861	0.06080
3539.11993	0.06086
3537.19126	0.06092
3535.26258	0.06100
3533.33391	0.06106
3531.40523	0.06108
3529.47655	0.06107
3527.54788	0.06109
3525.61920	0.06114
3523.69053	0.06120
3521.76185	0.06126
3519.83318	0.06134
3517.90450	0.06142
3515.97582	0.06147
3514.04715	0.06151
3512.11847	0.06155
3510.18980	0.06157
3508.26112	0.06160
3506.33245	0.06162
3504.40377	0.06165
3502.47509	0.06171
3500.54642	0.06176
3498.61774	0.06179
3496.68907	0.06181
3494.76039	0.06183
3492.83172	0.06186
3490.90304	0.06190
3488.97436	0.06193
3487.04569	0.06194
3485.11701	0.06196
3483.18834	0.06201
3481.25966	0.06208
3479.33099	0.06216
3477.40231	0.06220
3475.47363	0.06224
3473.54496	0.06233
3471.61628	0.06244
3469.68761	0.06252
3467.75893	0.06260
3465.83026	0.06269
3463.90158	0.06281
3461.97290	0.06296
3460.04423	0.06309
3458.11555	0.06318
3456.18688	0.06327
3454.25820	0.06337
3452.32953	0.06345
3450.40085	0.06351
3448.47217	0.06358
3446.54350	0.06369
3444.61482	0.06384
3442.68615	0.06398
3440.75747	0.06409
3438.82880	0.06420
3436.90012	0.06435
3434.97144	0.06456
3433.04277	0.06477
3431.11409	0.06496
3429.18542	0.06515
3427.25674	0.06534
3425.32807	0.06553
3423.39939	0.06569
3421.47071	0.06586
3419.54204	0.06605
3417.61336	0.06624
3415.68469	0.06644
3413.75601	0.06660
3411.82734	0.06675
3409.89866	0.06690
3407.96998	0.06703
3406.04131	0.06715
3404.11263	0.06729
3402.18396	0.06744
3400.25528	0.06757
3398.32661	0.06771
3396.39793	0.06787
3394.46925	0.06802
3392.54058	0.06815
3390.61190	0.06825
3388.68323	0.06836
3386.75455	0.06849
3384.82588	0.06864
3382.89720	0.06880
3380.96852	0.06894
3379.03985	0.06905
3377.11117	0.06918
3375.18250	0.06932
3373.25382	0.06943
3371.32515	0.06951
3369.39647	0.06961
3367.46779	0.06973
3365.53912	0.06986
3363.61044	0.07000
3361.68177	0.07015
3359.75309	0.07027
3357.82442	0.07037
3355.89574	0.07050
3353.96706	0.07064
3352.03839	0.07076
3350.10971	0.07087
3348.18104	0.07100
3346.25236	0.07112
3344.32369	0.07122
3342.39501	0.07133
3340.46633	0.07148
3338.53766	0.07164
3336.60898	0.07177
3334.68031	0.07189
3332.75163	0.07201
3330.82296	0.07213
3328.89428	0.07224
3326.96560	0.07236
3325.03693	0.07251
3323.10825	0.07266
3321.17958	0.07279
3319.25090	0.07290
3317.32223	0.07304
3315.39355	0.07319
3313.46487	0.07332
3311.53620	0.07344
3309.60752	0.07358
3307.67885	0.07370
3305.75017	0.07383
3303.82150	0.07396
3301.89282	0.07409
3299.96414	0.07420
3298.03547	0.07431
3296.10679	0.07446
3294.17812	0.07462
3292.24944	0.07477
3290.32077	0.07489
3288.39209	0.07500
3286.46341	0.07513
3284.53474	0.07528
3282.60606	0.07541
3280.67739	0.07554
3278.74871	0.07568
3276.82004	0.07584
3274.89136	0.07597
3272.96268	0.07608
3271.03401	0.07622
3269.10533	0.07640
3267.17666	0.07658
3265.24798	0.07670
3263.31931	0.07682
3261.39063	0.07697
3259.46195	0.07710
3257.53328	0.07721
3255.60460	0.07732
3253.67593	0.07745
3251.74725	0.07760
3249.81858	0.07776
3247.88990	0.07791
3245.96122	0.07803
3244.03255	0.07812
3242.10387	0.07824
3240.17520	0.07841
3238.24652	0.07856
3236.31785	0.07870
3234.38917	0.07884
3232.46049	0.07899
3230.53182	0.07912
3228.60314	0.07924
3226.67447	0.07936
3224.74579	0.07949
3222.81712	0.07963
3220.88844	0.07976
3218.95976	0.07988
3217.03109	0.08001
3215.10241	0.08015
3213.17374	0.08031
3211.24506	0.08047
3209.31639	0.08062
3207.38771	0.08076
3205.45903	0.08090
3203.53036	0.08103
3201.60168	0.08114
3199.67301	0.08127
3197.74433	0.08145
3195.81566	0.08167
3193.88698	0.08187
3191.95830	0.08200
3190.02963	0.08211
3188.10095	0.08222
3186.17228	0.08237
3184.24360	0.08253
3182.31493	0.08269
3180.38625	0.08283
3178.45757	0.08297
3176.52890	0.08311
3174.60022	0.08326
3172.67155	0.08340
3170.74287	0.08353
3168.81420	0.08367
3166.88552	0.08380
3164.95684	0.08394
3163.02817	0.08409
3161.09949	0.08422
3159.17082	0.08435
3157.24214	0.08450
3155.31347	0.08466
3153.38479	0.08481
3151.45611	0.08494
3149.52744	0.08505
3147.59876	0.08517
3145.67009	0.08533
3143.74141	0.08551
3141.81274	0.08565
3139.88406	0.08578
3137.95538	0.08595
3136.02671	0.08612
3134.09803	0.08624
3132.16936	0.08631
3130.24068	0.08639
3128.31201	0.08653
3126.38333	0.08673
3124.45465	0.08691
3122.52598	0.08703
3120.59730	0.08715
3118.66863	0.08729
3116.73995	0.08744
3114.81128	0.08762
3112.88260	0.08780
3110.95392	0.08796
3109.02525	0.08808
3107.09657	0.08818
3105.16790	0.08832
3103.23922	0.08848
3101.31055	0.08863
3099.38187	0.08877
3097.45319	0.08891
3095.52452	0.08906
3093.59584	0.08924
3091.66717	0.08942
3089.73849	0.08959
3087.80982	0.08971
3085.88114	0.08979
3083.95246	0.08987
3082.02379	0.09001
3080.09511	0.09018
3078.16644	0.09033
3076.23776	0.09048
3074.30909	0.09062
3072.38041	0.09074
3070.45173	0.09085
3068.52306	0.09097
3066.59438	0.09112
3064.66571	0.09129
3062.73703	0.09145
3060.80836	0.09160
3058.87968	0.09173
3056.95100	0.09184
3055.02233	0.09198
3053.09365	0.09215
3051.16498	0.09231
3049.23630	0.09246
3047.30763	0.09261
3045.37895	0.09276
3043.45027	0.09291
3041.52160	0.09302
3039.59292	0.09313
3037.66425	0.09324
3035.73557	0.09335
3033.80690	0.09349
3031.87822	0.09364
3029.94954	0.09383
3028.02087	0.09401
3026.09219	0.09417
3024.16352	0.09432
3022.23484	0.09446
3020.30617	0.09458
3018.37749	0.09470
3016.44881	0.09483
3014.52014	0.09499
3012.59146	0.09514
3010.66279	0.09527
3008.73411	0.09541
3006.80544	0.09554
3004.87676	0.09568
3002.94808	0.09582
3001.01941	0.09596
2999.09073	0.09610
2997.16206	0.09624
2995.23338	0.09636
2993.30471	0.09645
2991.37603	0.09655
2989.44735	0.09669
2987.51868	0.09683
2985.59000	0.09694
2983.66133	0.09704
2981.73265	0.09712
2979.80398	0.09717
2977.87530	0.09718
2975.94662	0.09722
2974.01795	0.09727
2972.08927	0.09728
2970.16060	0.09724
2968.23192	0.09722
2966.30325	0.09723
2964.37457	0.09727
2962.44589	0.09734
2960.51722	0.09745
2958.58854	0.09760
2956.65987	0.09779
2954.73119	0.09799
2952.80252	0.09818
2950.87384	0.09834
2948.94516	0.09850
2947.01649	0.09863
2945.08781	0.09872
2943.15914	0.09877
2941.23046	0.09881
2939.30179	0.09885
2937.37311	0.09886
2935.44443	0.09884
2933.51576	0.09880
2931.58708	0.09876
2929.65841	0.09870
2927.72973	0.09863
2925.80106	0.09858
2923.87238	0.09858
2921.94370	0.09859
2920.01503	0.09868
2918.08635	0.09886
2916.15768	0.09916
2914.22900	0.09959
2912.30033	0.10011
2910.37165	0.10058
2908.44297	0.10094
2906.51430	0.10124
2904.58562	0.10150
2902.65695	0.10174
2900.72827	0.10195
2898.79960	0.10214
2896.87092	0.10234
2894.94224	0.10258
2893.01357	0.10282
2891.08489	0.10302
2889.15622	0.10319
2887.22754	0.10335
2885.29887	0.10351
2883.37019	0.10371
2881.44151	0.10389
2879.51284	0.10403
2877.58416	0.10415
2875.65549	0.10427
2873.72681	0.10439
2871.79814	0.10452
2869.86946	0.10468
2867.94078	0.10481
2866.01211	0.10489
2864.08343	0.10496
2862.15476	0.10501
2860.22608	0.10506
2858.29741	0.10510
2856.36873	0.10512
2854.44005	0.10512
2852.51138	0.10514
2850.58270	0.10524
2848.65403	0.10548
2846.72535	0.10588
2844.79668	0.10636
2842.86800	0.10682
2840.93932	0.10720
2839.01065	0.10749
2837.08197	0.10770
2835.15330	0.10789
2833.22462	0.10809
2831.29595	0.10827
2829.36727	0.10846
2827.43859	0.10863
2825.50992	0.10881
2823.58124	0.10901
2821.65257	0.10922
2819.72389	0.10939
2817.79522	0.10951
2815.86654	0.10963
2813.93786	0.10979
2812.00919	0.10999
2810.08051	0.11018
2808.15184	0.11034
2806.22316	0.11047
2804.29449	0.11061
2802.36581	0.11076
2800.43713	0.11090
2798.50846	0.11105
2796.57978	0.11123
2794.65111	0.11140
2792.72243	0.11154
2790.79376	0.11167
2788.86508	0.11183
2786.93640	0.11199
2785.00773	0.11215
2783.07905	0.11231
2781.15038	0.11246
2779.22170	0.11258
2777.29303	0.11272
2775.36435	0.11290
2773.43567	0.11307
2771.50700	0.11323
2769.57832	0.11339
2767.64965	0.11357
2765.72097	0.11375
2763.79230	0.11390
2761.86362	0.11403
2759.93494	0.11414
2758.00627	0.11428
2756.07759	0.11444
2754.14892	0.11462
2752.22024	0.11477
2750.29157	0.11490
2748.36289	0.11503
2746.43421	0.11516
2744.50554	0.11531
2742.57686	0.11547
2740.64819	0.11564
2738.71951	0.11580
2736.79084	0.11597
2734.86216	0.11611
2732.93348	0.11623
2731.00481	0.11637
2729.07613	0.11656
2727.14746	0.11674
2725.21878	0.11689
2723.29011	0.11703
2721.36143	0.11718
2719.43275	0.11730
2717.50408	0.11741
2715.57540	0.11756
2713.64673	0.11774
2711.71805	0.11790
2709.78938	0.11806
2707.86070	0.11821
2705.93202	0.11835
2704.00335	0.11846
2702.07467	0.11858
2700.14600	0.11873
2698.21732	0.11889
2696.28865	0.11903
2694.35997	0.11918
2692.43129	0.11933
2690.50262	0.11947
2688.57394	0.11961
2686.64527	0.11976
2684.71659	0.11990
2682.78792	0.12005
2680.85924	0.12020
2678.93056	0.12036
2677.00189	0.12052
2675.07321	0.12066
2673.14454	0.12080
2671.21586	0.12096
2669.28719	0.12114
2667.35851	0.12131
2665.42983	0.12147
2663.50116	0.12161
2661.57248	0.12175
2659.64381	0.12189
2657.71513	0.12200
2655.78646	0.12211
2653.85778	0.12226
2651.92910	0.12243
2650.00043	0.12258
2648.07175	0.12271
2646.14308	0.12285
2644.21440	0.12301
2642.28573	0.12319
2640.35705	0.12339
2638.42837	0.12356
2636.49970	0.12368
2634.57102	0.12379
2632.64235	0.12392
2630.71367	0.12410
2628.78500	0.12430
2626.85632	0.12445
2624.92764	0.12459
2622.99897	0.12476
2621.07029	0.12494
2619.14162	0.12511
2617.21294	0.12529
2615.28427	0.12549
2613.35559	0.12566
2611.42691	0.12579
2609.49824	0.12594
2607.56956	0.12611
2605.64089	0.12625
2603.71221	0.12637
2601.78354	0.12652
2599.85486	0.12672
2597.92618	0.12691
2595.99751	0.12706
2594.06883	0.12720
2592.14016	0.12734
2590.21148	0.12750
2588.28281	0.12767
2586.35413	0.12784
2584.42545	0.12803
2582.49678	0.12820
2580.56810	0.12835
2578.63943	0.12848
2576.71075	0.12862
2574.78208	0.12877
2572.85340	0.12892
2570.92472	0.12905
2568.99605	0.12920
2567.06737	0.12935
2565.13870	0.12948
2563.21002	0.12962
2561.28135	0.12979
2559.35267	0.12997
2557.42399	0.13010
2555.49532	0.13026
2553.56664	0.13044
2551.63797	0.13061
2549.70929	0.13075
2547.78062	0.13090
2545.85194	0.13107
2543.92326	0.13122
2541.99459	0.13136
2540.06591	0.13149
2538.13724	0.13162
2536.20856	0.13180
2534.27989	0.13200
2532.35121	0.13214
2530.42253	0.13226
2528.49386	0.13240
2526.56518	0.13256
2524.63651	0.13270
2522.70783	0.13285
2520.77916	0.13301
2518.85048	0.13317
2516.92181	0.13335
2514.99313	0.13354
2513.06445	0.13373
2511.13578	0.13390
2509.20710	0.13406
2507.27843	0.13421
2505.34975	0.13437
2503.42108	0.13455
2501.49240	0.13474
2499.56372	0.13490
2497.63505	0.13502
2495.70637	0.13516
2493.77770	0.13536
2491.84902	0.13558
2489.92035	0.13577
2487.99167	0.13590
2486.06299	0.13603
2484.13432	0.13620
2482.20564	0.13638
2480.27697	0.13653
2478.34829	0.13667
2476.41962	0.13684
2474.49094	0.13704
2472.56226	0.13726
2470.63359	0.13747
2468.70491	0.13762
2466.77624	0.13774
2464.84756	0.13786
2462.91889	0.13800
2460.99021	0.13817
2459.06153	0.13837
2457.13286	0.13856
2455.20418	0.13871
2453.27551	0.13883
2451.34683	0.13898
2449.41816	0.13916
2447.48948	0.13934
2445.56080	0.13952
2443.63213	0.13971
2441.70345	0.13987
2439.77478	0.14001
2437.84610	0.14016
2435.91743	0.14034
2433.98875	0.14050
2432.06007	0.14064
2430.13140	0.14080
2428.20272	0.14101
2426.27405	0.14121
2424.34537	0.14138
2422.41670	0.14153
2420.48802	0.14168
2418.55934	0.14185
2416.63067	0.14204
2414.70199	0.14222
2412.77332	0.14236
2410.84464	0.14247
2408.91597	0.14262
2406.98729	0.14280
2405.05861	0.14297
2403.12994	0.14311
2401.20126	0.14325
2399.27259	0.14343
2397.34391	0.14359
2395.41524	0.14372
2393.48656	0.14386
2391.55788	0.14402
2389.62921	0.14417
2387.70053	0.14432
2385.77186	0.14449
2383.84318	0.14466
2381.91451	0.14480
2379.98583	0.14492
2378.05715	0.14501
2376.12848	0.14505
2374.19980	0.14507
2372.27113	0.14511
2370.34245	0.14518
2368.41378	0.14524
2366.48510	0.14527
2364.55642	0.14534
2362.62775	0.14547
2360.69907	0.14564
2358.77040	0.14583
2356.84172	0.14606
2354.91305	0.14635
2352.98437	0.14668
2351.05569	0.14703
2349.12702	0.14727
2347.19834	0.14737
2345.26967	0.14741
2343.34099	0.14747
2341.41232	0.14753
2339.48364	0.14762
2337.55496	0.14774
2335.62629	0.14789
2333.69761	0.14807
2331.76894	0.14826
2329.84026	0.14846
2327.91159	0.14869
2325.98291	0.14890
2324.05423	0.14909
2322.12556	0.14931
2320.19688	0.14955
2318.26821	0.14976
2316.33953	0.14996
2314.41086	0.15018
2312.48218	0.15042
2310.55350	0.15064
2308.62483	0.15085
2306.69615	0.15106
2304.76748	0.15125
2302.83880	0.15143
2300.91013	0.15162
2298.98145	0.15182
2297.05277	0.15200
2295.12410	0.15214
2293.19542	0.15230
2291.26675	0.15249
2289.33807	0.15266
2287.40940	0.15282
2285.48072	0.15297
2283.55204	0.15311
2281.62337	0.15325
2279.69469	0.15341
2277.76602	0.15354
2275.83734	0.15367
2273.90867	0.15384
2271.97999	0.15406
2270.05131	0.15428
2268.12264	0.15446
2266.19396	0.15460
2264.26529	0.15473
2262.33661	0.15486
2260.40794	0.15503
2258.47926	0.15521
2256.55058	0.15541
2254.62191	0.15559
2252.69323	0.15576
2250.76456	0.15593
2248.83588	0.15608
2246.90721	0.15623
2244.97853	0.15638
2243.04985	0.15655
2241.12118	0.15674
2239.19250	0.15692
2237.26383	0.15707
2235.33515	0.15720
2233.40648	0.15733
2231.47780	0.15745
2229.54912	0.15760
2227.62045	0.15781
2225.69177	0.15801
2223.76310	0.15817
2221.83442	0.15832
2219.90575	0.15847
2217.97707	0.15863
2216.04839	0.15881
2214.11972	0.15898
2212.19104	0.15912
2210.26237	0.15928
2208.33369	0.15948
2206.40502	0.15966
2204.47634	0.15984
2202.54766	0.15999
2200.61899	0.16011
2198.69031	0.16022
2196.76164	0.16034
2194.83296	0.16050
2192.90429	0.16070
2190.97561	0.16087
2189.04693	0.16102
2187.11826	0.16118
2185.18958	0.16134
2183.26091	0.16149
2181.33223	0.16165
2179.40356	0.16181
2177.47488	0.16196
2175.54620	0.16212
2173.61753	0.16230
2171.68885	0.16248
2169.76018	0.16268
2167.83150	0.16286
2165.90283	0.16301
2163.97415	0.16313
2162.04547	0.16329
2160.11680	0.16346
2158.18812	0.16363
2156.25945	0.16381
2154.33077	0.16400
2152.40210	0.16418
2150.47342	0.16436
2148.54474	0.16453
2146.61607	0.16467
2144.68739	0.16480
2142.75872	0.16499
2140.83004	0.16519
2138.90137	0.16536
2136.97269	0.16550
2135.04401	0.16564
2133.11534	0.16581
2131.18666	0.16597
2129.25799	0.16614
2127.32931	0.16632
2125.40064	0.16648
2123.47196	0.16665
2121.54328	0.16685
2119.61461	0.16706
2117.68593	0.16722
2115.75726	0.16733
2113.82858	0.16746
2111.89991	0.16764
2109.97123	0.16783
2108.04255	0.16801
2106.11388	0.16818
2104.18520	0.16833
2102.25653	0.16845
2100.32785	0.16856
2098.39918	0.16871
2096.47050	0.16889
2094.54182	0.16911
2092.61315	0.16933
2090.68447	0.16948
2088.75580	0.16956
2086.82712	0.16969
2084.89845	0.16992
2082.96977	0.17015
2081.04109	0.17033
2079.11242	0.17046
2077.18374	0.17060
2075.25507	0.17078
2073.32639	0.17097
2071.39772	0.17113
2069.46904	0.17127
2067.54036	0.17142
2065.61169	0.17157
2063.68301	0.17172
2061.75434	0.17188
2059.82566	0.17205
2057.89699	0.17221
2055.96831	0.17235
2054.03963	0.17252
2052.11096	0.17270
2050.18228	0.17288
2048.25361	0.17304
2046.32493	0.17323
2044.39626	0.17342
2042.46758	0.17359
2040.53890	0.17374
2038.61023	0.17390
2036.68155	0.17407
2034.75288	0.17425
2032.82420	0.17443
2030.89553	0.17461
2028.96685	0.17476
2027.03817	0.17489
2025.10950	0.17505
2023.18082	0.17524
2021.25215	0.17544
2019.32347	0.17561
2017.39480	0.17576
2015.46612	0.17590
2013.53744	0.17606
2011.60877	0.17625
2009.68009	0.17644
2007.75142	0.17658
2005.82274	0.17670
2003.89407	0.17685
2001.96539	0.17703
2000.03671	0.17718
1998.10804	0.17731
1996.17936	0.17746
1994.25069	0.17760
1992.32201	0.17773
1990.39334	0.17790
1988.46466	0.17807
1986.53598	0.17823
1984.60731	0.17840
1982.67863	0.17857
1980.74996	0.17876
1978.82128	0.17894
1976.89261	0.17910
1974.96393	0.17922
1973.03525	0.17931
1971.10658	0.17938
1969.17790	0.17945
1967.24923	0.17955
1965.32055	0.17970
1963.39188	0.17990
1961.46320	0.18011
1959.53452	0.18031
1957.60585	0.18048
1955.67717	0.18060
1953.74850	0.18070
1951.81982	0.18083
1949.89115	0.18099
1947.96247	0.18117
1946.03379	0.18132
1944.10512	0.18141
1942.17644	0.18154
1940.24777	0.18178
1938.31909	0.18206
1936.39042	0.18228
1934.46174	0.18245
1932.53306	0.18256
1930.60439	0.18268
1928.67571	0.18282
1926.74704	0.18296
1924.81836	0.18306
1922.88969	0.18317
1920.96101	0.18333
1919.03233	0.18349
1917.10366	0.18370
1915.17498	0.18395
1913.24631	0.18412
1911.31763	0.18422
1909.38896	0.18436
1907.46028	0.18452
1905.53160	0.18468
1903.60293	0.18488
1901.67425	0.18511
1899.74558	0.18531
1897.81690	0.18540
1895.88823	0.18547
1893.95955	0.18557
1892.03087	0.18564
1890.10220	0.18571
1888.17352	0.18592
1886.24485	0.18624
1884.31617	0.18650
1882.38750	0.18664
1880.45882	0.18675
1878.53014	0.18689
1876.60147	0.18704
1874.67279	0.18716
1872.74412	0.18720
1870.81544	0.18712
1868.88677	0.18717
1866.95809	0.18753
1865.02941	0.18798
1863.10074	0.18828
1861.17206	0.18848
1859.24339	0.18860
1857.31471	0.18870
1855.38604	0.18884
1853.45736	0.18905
1851.52868	0.18926
1849.60001	0.18940
1847.67133	0.18943
1845.74266	0.18936
1843.81398	0.18942
1841.88531	0.18975
1839.95663	0.19013
1838.02795	0.19034
1836.09928	0.19048
1834.17060	0.19060
1832.24193	0.19065
1830.31325	0.19071
1828.38458	0.19088
1826.45590	0.19106
1824.52722	0.19125
1822.59855	0.19149
1820.66987	0.19168
1818.74120	0.19179
1816.81252	0.19195
1814.88385	0.19215
1812.95517	0.19228
1811.02649	0.19237
1809.09782	0.19252
1807.16914	0.19270
1805.24047	0.19283
1803.31179	0.19286
1801.38312	0.19288
1799.45444	0.19304
1797.52576	0.19324
1795.59709	0.19325
1793.66841	0.19312
1791.73974	0.19326
1789.81106	0.19367
1787.88239	0.19397
1785.95371	0.19405
1784.02503	0.19413
1782.09636	0.19425
1780.16768	0.19438
1778.23901	0.19453
1776.31033	0.19463
1774.38166	0.19459
1772.45298	0.19452
1770.52430	0.19461
1768.59563	0.19484
1766.66695	0.19511
1764.73828	0.19528
1762.80960	0.19530
1760.88093	0.19538
1758.95225	0.19553
1757.02357	0.19560
1755.09490	0.19552
1753.16622	0.19512
1751.23755	0.19474
1749.30887	0.19483
1747.38020	0.19517
1745.45152	0.19532
1743.52284	0.19525
1741.59417	0.19510
1739.66549	0.19512
1737.73682	0.19532
1735.80814	0.19531
1733.87947	0.19524
1731.95079	0.19554
1730.02211	0.19597
1728.09344	0.19629
1726.16476	0.19650
1724.23609	0.19664
1722.30741	0.19668
1720.37874	0.19644
1718.45006	0.19605
1716.52138	0.19611
1714.59271	0.19667
1712.66403	0.19716
1710.73536	0.19739
1708.80668	0.19744
1706.87801	0.19741
1704.94933	0.19743
1703.02065	0.19734
1701.09198	0.19713
1699.16330	0.19721
1697.23463	0.19753
1695.30595	0.19782
1693.37728	0.19806
1691.44860	0.19815
1689.51992	0.19815
1687.59125	0.19810
1685.66257	0.19780
1683.73390	0.19761
1681.80522	0.19792
1679.87655	0.19831
1677.94787	0.19816
1676.01919	0.19772
1674.09052	0.19767
1672.16184	0.19789
1670.23317	0.19813
1668.30449	0.19854
1666.37582	0.19893
1664.44714	0.19899
1662.51846	0.19896
1660.58979	0.19910
1658.66111	0.19923
1656.73244	0.19892
1654.80376	0.19807
1652.87509	0.19757
1650.94641	0.19799
1649.01773	0.19851
1647.08906	0.19874
1645.16038	0.19913
1643.23171	0.19955
1641.30303	0.19966
1639.37436	0.19951
1637.44568	0.19930
1635.51700	0.19936
1633.58833	0.19971
1631.65965	0.19999
1629.73098	0.20001
1627.80230	0.19992
1625.87363	0.19975
1623.94495	0.19941
1622.01627	0.19911
1620.08760	0.19904
1618.15892	0.19918
1616.23025	0.19968
1614.30157	0.20048
1612.37290	0.20107
1610.44422	0.20134
1608.51554	0.20155
1606.58687	0.20185
1604.65819	0.20212
1602.72952	0.20229
1600.80084	0.20246
1598.87217	0.20264
1596.94349	0.20279
1595.01481	0.20288
1593.08614	0.20302
1591.15746	0.20322
1589.22879	0.20345
1587.30011	0.20367
1585.37144	0.20384
1583.44276	0.20400
1581.51408	0.20413
1579.58541	0.20405
1577.65673	0.20370
1575.72806	0.20364
1573.79938	0.20415
1571.87071	0.20457
1569.94203	0.20464
1568.01335	0.20470
1566.08468	0.20482
1564.15600	0.20487
1562.22733	0.20457
1560.29865	0.20401
1558.36998	0.20397
1556.44130	0.20466
1554.51262	0.20542
1552.58395	0.20583
1550.65527	0.20600
1548.72660	0.20609
1546.79792	0.20598
1544.86925	0.20560
1542.94057	0.20527
1541.01189	0.20529
1539.08322	0.20577
1537.15454	0.20623
1535.22587	0.20625
1533.29719	0.20628
1531.36852	0.20670
1529.43984	0.20699
1527.51116	0.20686
1525.58249	0.20656
1523.65381	0.20626
1521.72514	0.20623
1519.79646	0.20656
1517.86779	0.20685
1515.93911	0.20699
1514.01043	0.20720
1512.08176	0.20731
1510.15308	0.20694
1508.22441	0.20631
1506.29573	0.20636
1504.36706	0.20725
1502.43838	0.20790
1500.50970	0.20781
1498.58103	0.20743
1496.65235	0.20730
1494.72368	0.20754
1492.79500	0.20770
1490.86633	0.20753
1488.93765	0.20738
1487.00897	0.20748
1485.08030	0.20761
1483.15162	0.20755
1481.22295	0.20736
1479.29427	0.20705
1477.36560	0.20652
1475.43692	0.20591
1473.50824	0.20546
1471.57957	0.20531
1469.65089	0.20536
1467.72222	0.20517
1465.79354	0.20476
1463.86487	0.20461
1461.93619	0.20456
1460.00751	0.20397
1458.07884	0.20312
1456.15016	0.20299
1454.22149	0.20357
1452.29281	0.20403
1450.36414	0.20414
1448.43546	0.20418
1446.50678	0.20431
1444.57811	0.20448
1442.64943	0.20458
1440.72076	0.20462
1438.79208	0.20454
1436.86341	0.20450
1434.93473	0.20477
1433.00605	0.20510
1431.07738	0.20526
1429.14870	0.20539
1427.22003	0.20551
1425.29135	0.20550
1423.36268	0.20533
1421.43400	0.20486
1419.50532	0.20443
1417.57665	0.20474
1415.64797	0.20538
1413.71930	0.20569
1411.79062	0.20574
1409.86195	0.20581
1407.93327	0.20585
1406.00459	0.20581
1404.07592	0.20576
1402.14724	0.20570
1400.21857	0.20553
1398.28989	0.20535
1396.36122	0.20524
1394.43254	0.20529
1392.50386	0.20541
1390.57519	0.20532
1388.64651	0.20495
1386.71784	0.20456
1384.78916	0.20439
1382.86049	0.20443
1380.93181	0.20453
1379.00313	0.20457
1377.07446	0.20444
1375.14578	0.20423
1373.21711	0.20420
1371.28843	0.20437
1369.35976	0.20447
1367.43108	0.20444
1365.50240	0.20429
1363.57373	0.20410
1361.64505	0.20412
1359.71638	0.20434
1357.78770	0.20449
1355.85903	0.20448
1353.93035	0.20449
1352.00167	0.20462
1350.07300	0.20477
1348.14432	0.20488
1346.21565	0.20497
1344.28697	0.20500
1342.35830	0.20486
1340.42962	0.20464
1338.50094	0.20460
1336.57227	0.20469
1334.64359	0.20468
1332.71492	0.20457
1330.78624	0.20449
1328.85757	0.20435
1326.92889	0.20409
1325.00021	0.20383
1323.07154	0.20362
1321.14286	0.20347
1319.21419	0.20336
1317.28551	0.20325
1315.35684	0.20307
1313.42816	0.20285
1311.49948	0.20271
1309.57081	0.20256
1307.64213	0.20232
1305.71346	0.20202
1303.78478	0.20172
1301.85611	0.20146
1299.92743	0.20124
1297.99875	0.20104
1296.07008	0.20087
1294.14140	0.20075
1292.21273	0.20058
1290.28405	0.20034
1288.35538	0.20011
1286.42670	0.19997
1284.49802	0.19978
1282.56935	0.19947
1280.64067	0.19915
1278.71200	0.19890
1276.78332	0.19862
1274.85465	0.19822
1272.92597	0.19770
1270.99729	0.19708
1269.06862	0.19630
1267.13994	0.19536
1265.21127	0.19446
1263.28259	0.19379
1261.35392	0.19348
1259.42524	0.19350
1257.49656	0.19374
1255.56789	0.19402
1253.63921	0.19411
1251.71054	0.19397
1249.78186	0.19366
1247.85319	0.19327
1245.92451	0.19284
1243.99583	0.19244
1242.06716	0.19207
1240.13848	0.19168
1238.20981	0.19124
1236.28113	0.19077
1234.35246	0.19021
1232.42378	0.18957
1230.49510	0.18893
1228.56643	0.18836
1226.63775	0.18783
1224.70908	0.18731
1222.78040	0.18683
1220.85173	0.18639
1218.92305	0.18594
1216.99437	0.18541
1215.06570	0.18481
1213.13702	0.18426
1211.20835	0.18376
1209.27967	0.18320
1207.35100	0.18256
1205.42232	0.18188
1203.49364	0.18126
1201.56497	0.18073
1199.63629	0.18019
1197.70762	0.17955
1195.77894	0.17890
1193.85027	0.17833
1191.92159	0.17777
1189.99291	0.17710
1188.06424	0.17630
1186.13556	0.17549
1184.20689	0.17469
1182.27821	0.17388
1180.34954	0.17305
1178.42086	0.17223
1176.49218	0.17145
1174.56351	0.17070
1172.63483	0.16989
1170.70616	0.16894
1168.77748	0.16794
1166.84881	0.16699
1164.92013	0.16616
1162.99145	0.16540
1161.06278	0.16459
1159.13410	0.16369
1157.20543	0.16277
1155.27675	0.16195
1153.34808	0.16121
1151.41940	0.16047
1149.49072	0.15970
1147.56205	0.15892
1145.63337	0.15810
1143.70470	0.15721
1141.77602	0.15620
1139.84735	0.15513
1137.91867	0.15404
1135.98999	0.15288
1134.06132	0.15161
1132.13264	0.15012
1130.20397	0.14828
1128.27529	0.14614
1126.34662	0.14388
1124.41794	0.14157
1122.48926	0.13918
1120.56059	0.13679
1118.63191	0.13454
1116.70324	0.13246
1114.77456	0.13057
1112.84589	0.12896
1110.91721	0.12763
1108.98853	0.12657
1107.05986	0.12583
1105.13118	0.12540
1103.20251	0.12525
1101.27383	0.12539
1099.34516	0.12578
1097.41648	0.12640
1095.48780	0.12723
1093.55913	0.12813
1091.63045	0.12898
1089.70178	0.12976
1087.77310	0.13045
1085.84443	0.13101
1083.91575	0.13146
1081.98707	0.13183
1080.05840	0.13216
1078.12972	0.13241
1076.20105	0.13258
1074.27237	0.13272
1072.34370	0.13284
1070.41502	0.13292
1068.48634	0.13301
1066.55767	0.13313
1064.62899	0.13330
1062.70032	0.13348
1060.77164	0.13370
1058.84297	0.13396
1056.91429	0.13427
1054.98561	0.13459
1053.05694	0.13495
1051.12826	0.13532
1049.19959	0.13569
1047.27091	0.13605
1045.34224	0.13639
1043.41356	0.13676
1041.48488	0.13720
1039.55621	0.13765
1037.62753	0.13805
1035.69886	0.13838
1033.77018	0.13870
1031.84151	0.13907
1029.91283	0.13946
1027.98415	0.13979
1026.05548	0.14007
1024.12680	0.14036
1022.19813	0.14072
1020.26945	0.14114
1018.34078	0.14163
1016.41210	0.14212
1014.48342	0.14258
1012.55475	0.14309
1010.62607	0.14371
1008.69740	0.14436
1006.76872	0.14491
1004.84005	0.14536
1002.91137	0.14577
1000.98269	0.14611
999.05402	0.14640
997.12534	0.14664
995.19667	0.14680
993.26799	0.14690
991.33932	0.14699
989.41064	0.14711
987.48196	0.14718
985.55329	0.14716
983.62461	0.14711
981.69594	0.14707
979.76726	0.14699
977.83859	0.14683
975.90991	0.14665
973.98123	0.14652
972.05256	0.14639
970.12388	0.14620
968.19521	0.14599
966.26653	0.14576
964.33786	0.14555
962.40918	0.14535
960.48050	0.14522
958.55183	0.14513
956.62315	0.14500
954.69448	0.14482
952.76580	0.14458
950.83713	0.14434
948.90845	0.14418
946.97977	0.14406
945.05110	0.14390
943.12242	0.14371
941.19375	0.14339
939.26507	0.14292
937.33640	0.14241
935.40772	0.14193
933.47904	0.14146
931.55037	0.14100
929.62169	0.14054
927.69302	0.14001
925.76434	0.13945
923.83567	0.13893
921.90699	0.13843
919.97831	0.13781
918.04964	0.13714
916.12096	0.13645
914.19229	0.13567
912.26361	0.13480
910.33494	0.13403
908.40626	0.13337
906.47758	0.13272
904.54891	0.13203
902.62023	0.13139
900.69156	0.13081
898.76288	0.13025
896.83421	0.12974
894.90553	0.12925
892.97685	0.12874
891.04818	0.12823
889.11950	0.12774
887.19083	0.12732
885.26215	0.12696
883.33348	0.12665
881.40480	0.12640
879.47612	0.12618
877.54745	0.12589
875.61877	0.12555
873.69010	0.12524
871.76142	0.12497
869.83275	0.12470
867.90407	0.12446
865.97539	0.12424
864.04672	0.12409
862.11804	0.12397
860.18937	0.12386
858.26069	0.12377
856.33202	0.12366
854.40334	0.12348
852.47466	0.12323
850.54599	0.12293
848.61731	0.12262
846.68864	0.12232
844.75996	0.12201
842.83129	0.12167
840.90261	0.12137
838.97394	0.12104
837.04526	0.12056
835.11658	0.11993
833.18791	0.11916
831.25923	0.11829
829.33056	0.11730
827.40188	0.11622
825.47321	0.11516
823.54453	0.11421
821.61585	0.11340
819.68718	0.11276
817.75850	0.11226
815.82983	0.11180
813.90115	0.11136
811.97248	0.11100
810.04380	0.11072
808.11512	0.11053
806.18645	0.11047
804.25777	0.11050
802.32910	0.11052
800.40042	0.11040
798.47175	0.10996
796.54307	0.10926
794.61439	0.10855
792.68572	0.10807
790.75704	0.10783
788.82837	0.10764
786.89969	0.10735
784.97102	0.10703
783.04234	0.10677
781.11366	0.10652
779.18499	0.10625
777.25631	0.10596
775.32764	0.10564
773.39896	0.10521
771.47029	0.10483
769.54161	0.10458
767.61293	0.10427
765.68426	0.10380
763.75558	0.10332
761.82691	0.10285
759.89823	0.10237
757.96956	0.10191
756.04088	0.10142
754.11220	0.10083
752.18353	0.10020
750.25485	0.09953
748.32618	0.09873
746.39750	0.09782
744.46883	0.09688
742.54015	0.09600
740.61147	0.09526
738.68280	0.09469
736.75412	0.09437
734.82545	0.09427
732.89677	0.09434
730.96810	0.09447
729.03942	0.09461
727.11074	0.09475
725.18207	0.09486
723.25339	0.09496
721.32472	0.09510
719.39604	0.09526
717.46737	0.09544
715.53869	0.09575
713.61001	0.09623
711.68134	0.09665
709.75266	0.09686
707.82399	0.09683
705.89531	0.09665
703.96664	0.09646
702.03796	0.09627
700.10928	0.09596
698.18061	0.09551
696.25193	0.09501
694.32326	0.09447
692.39458	0.09389
690.46591	0.09334
688.53723	0.09280
686.60855	0.09223
684.67988	0.09166
682.75120	0.09116
680.82253	0.09064
678.89385	0.09002
676.96518	0.08934
675.03650	0.08869
673.10782	0.08806
671.17915	0.08735
669.25047	0.08654
667.32180	0.08573
665.39312	0.08497
663.46445	0.08422
661.53577	0.08337
659.60709	0.08246
657.67842	0.08160
655.74974	0.08079
653.82107	0.07996
651.89239	0.07912
649.96372	0.07830
648.03504	0.07750
646.10636	0.07665
644.17769	0.07569
642.24901	0.07468
640.32034	0.07367
638.39166	0.07257
636.46299	0.07141
634.53431	0.07031
632.60563	0.06893
630.67696	0.06660
628.74828	0.06305
626.81961	0.05863
624.89093	0.05411
622.96226	0.05044
621.03358	0.04804
619.10490	0.04674
617.17623	0.04599
615.24755	0.04520
613.31888	0.04422
611.39020	0.04330
609.46153	0.04276
607.53285	0.04273
605.60417	0.04302
603.67550	0.04352
601.74682	0.04429
599.81815	0.04530
597.88947	0.04623
595.96080	0.04688
594.03212	0.04727
592.10344	0.04757
590.17477	0.04783
588.24609	0.04797
586.31742	0.04789
584.38874	0.04763
582.46007	0.04726
580.53139	0.04678
578.60271	0.04626
576.67404	0.04576
574.74536	0.04522
572.81669	0.04460
570.88801	0.04388
568.95934	0.04315
567.03066	0.04257
565.10198	0.04223
563.17331	0.04204
561.24463	0.04184
559.31596	0.04167
557.38728	0.04153
555.45861	0.04127
553.52993	0.04090
551.60125	0.04064
549.67258	0.04054
547.74390	0.04044
545.81523	0.04028
543.88655	0.04005
541.95788	0.03984
540.02920	0.03968
538.10052	0.03954
536.17185	0.03937
534.24317	0.03915
532.31450	0.03888
530.38582	0.03859
528.45715	0.03833
526.52847	0.03803
524.59979	0.03770
522.67112	0.03742
520.74244	0.03715
518.81377	0.03670
516.88509	0.03606
514.95642	0.03540
513.02774	0.03489
511.09906	0.03457
509.17039	0.03431
507.24171	0.03406
505.31304	0.03380
503.38436	0.03350
501.45569	0.03313
499.52701	0.03271
497.59833	0.03225
495.66966	0.03174
493.74098	0.03113
491.81231	0.03047
489.88363	0.02983
487.95496	0.02921
486.02628	0.02870
484.09760	0.02827
482.16893	0.02779
480.24025	0.02724
478.31158	0.02673
476.38290	0.02624
474.45423	0.02567
472.52555	0.02505
470.59687	0.02453
468.66820	0.02414
466.73952	0.02378
464.81085	0.02346
462.88217	0.02320
460.95350	0.02296
459.02482	0.02280
457.09614	0.02281
455.16747	0.02286
453.23879	0.02287
451.31012	0.02288
449.38144	0.02285
447.45277	0.02266
445.52409	0.02244
443.59541	0.02229
441.66674	0.02207
439.73806	0.02169
437.80939	0.02119
435.88071	0.02063
433.95204	0.02006
432.02336	0.01954
430.09468	0.01904
428.16601	0.01848
426.23733	0.01784
424.30866	0.01715
422.37998	0.01648
420.45131	0.01586
418.52263	0.01521
416.59395	0.01447
414.66528	0.01378
412.73660	0.01323
410.80793	0.01271
408.87925	0.01207
406.95058	0.01132
405.02190	0.01066
403.09322	0.01013
401.16455	0.00958
399.23587	0.00895
397.30720	0.00834
395.37852	0.00781
393.44985	0.00734
391.52117	0.00696
389.59249	0.00660
387.66382	0.00619
385.73514	0.00572
383.80647	0.00524
381.87779	0.00480
379.94912	0.00442
378.02044	0.00409
376.09176	0.00376
374.16309	0.00350
372.23441	0.00329
370.30574	0.00297
368.37706	0.00261
