7496.76250	0.00120
7494.83382	0.00120
7492.90514	0.00120
7490.97647	0.00120
7489.04779	0.00122
7487.11912	0.00123
7485.19044	0.00124
7483.26177	0.00125
7481.33309	0.00125
7479.40441	0.00124
7477.47574	0.00123
7475.54706	0.00122
7473.61839	0.00123
7471.68971	0.00124
7469.76104	0.00125
7467.83236	0.00125
7465.90368	0.00125
7463.97501	0.00126
7462.04633	0.00127
7460.11766	0.00127
7458.18898	0.00126
7456.26031	0.00126
7454.33163	0.00128
7452.40295	0.00130
7450.47428	0.00131
7448.54560	0.00131
7446.61693	0.00130
7444.68825	0.00129
7442.75958	0.00130
7440.83090	0.00130
7438.90222	0.00130
7436.97355	0.00131
7435.04487	0.00131
7433.11620	0.00131
7431.18752	0.00131
7429.25885	0.00130
7427.33017	0.00131
7425.40149	0.00133
7423.47282	0.00134
7421.54414	0.00134
7419.61547	0.00133
7417.68679	0.00133
7415.75812	0.00133
7413.82944	0.00133
7411.90076	0.00134
7409.97209	0.00134
7408.04341	0.00135
7406.11474	0.00135
7404.18606	0.00136
7402.25739	0.00136
7400.32871	0.00137
7398.40003	0.00139
7396.47136	0.00139
7394.54268	0.00138
7392.61401	0.00138
7390.68533	0.00140
7388.75666	0.00141
7386.82798	0.00141
7384.89930	0.00139
7382.97063	0.00138
7381.04195	0.00139
7379.11328	0.00140
7377.18460	0.00141
7375.25593	0.00141
7373.32725	0.00141
7371.39857	0.00142
7369.46990	0.00143
7367.54122	0.00143
7365.61255	0.00144
7363.68387	0.00145
7361.75520	0.00144
7359.82652	0.00144
7357.89784	0.00145
7355.96917	0.00146
7354.04049	0.00146
7352.11182	0.00145
7350.18314	0.00144
7348.25447	0.00144
7346.32579	0.00146
7344.39711	0.00147
7342.46844	0.00148
7340.53976	0.00149
7338.61109	0.00150
7336.68241	0.00150
7334.75374	0.00150
7332.82506	0.00149
7330.89638	0.00149
7328.96771	0.00149
7327.03903	0.00150
7325.11036	0.00152
7323.18168	0.00152
7321.25301	0.00151
7319.32433	0.00152
7317.39565	0.00153
7315.46698	0.00153
7313.53830	0.00153
7311.60963	0.00153
7309.68095	0.00153
7307.75228	0.00153
7305.82360	0.00154
7303.89492	0.00154
7301.96625	0.00153
7300.03757	0.00153
7298.10890	0.00154
7296.18022	0.00155
7294.25155	0.00157
7292.32287	0.00159
7290.39419	0.00160
7288.46552	0.00160
7286.53684	0.00159
7284.60817	0.00158
7282.67949	0.00158
7280.75082	0.00159
7278.82214	0.00159
7276.89346	0.00159
7274.96479	0.00159
7273.03611	0.00159
7271.10744	0.00160
7269.17876	0.00161
7267.25009	0.00161
7265.32141	0.00161
7263.39273	0.00161
7261.46406	0.00162
7259.53538	0.00163
7257.60671	0.00164
7255.67803	0.00164
7253.74936	0.00164
7251.82068	0.00164
7249.89200	0.00164
7247.96333	0.00165
7246.03465	0.00166
7244.10598	0.00166
7242.17730	0.00168
7240.24863	0.00169
7238.31995	0.00170
7236.39127	0.00169
7234.46260	0.00168
7232.53392	0.00167
7230.60525	0.00168
7228.67657	0.00169
7226.74790	0.00168
7224.81922	0.00168
7222.89054	0.00169
7220.96187	0.00170
7219.03319	0.00171
7217.10452	0.00172
7215.17584	0.00173
7213.24717	0.00173
7211.31849	0.00174
7209.38981	0.00176
7207.46114	0.00177
7205.53246	0.00178
7203.60379	0.00178
7201.67511	0.00177
7199.74644	0.00177
7197.81776	0.00177
7195.88908	0.00177
7193.96041	0.00176
7192.03173	0.00176
7190.10306	0.00177
7188.17438	0.00179
7186.24571	0.00179
7184.31703	0.00179
7182.38835	0.00179
7180.45968	0.00179
7178.53100	0.00178
7176.60233	0.00178
7174.67365	0.00178
7172.74498	0.00179
7170.81630	0.00179
7168.88762	0.00180
7166.95895	0.00181
7165.03027	0.00182
7163.10160	0.00183
7161.17292	0.00183
7159.24425	0.00184
7157.31557	0.00185
7155.38689	0.00185
7153.45822	0.00184
7151.52954	0.00185
7149.60087	0.00186
7147.67219	0.00186
7145.74352	0.00186
7143.81484	0.00187
7141.88616	0.00188
7139.95749	0.00188
7138.02881	0.00189
7136.10014	0.00188
7134.17146	0.00187
7132.24279	0.00186
7130.31411	0.00187
7128.38543	0.00188
7126.45676	0.00189
7124.52808	0.00188
7122.59941	0.00188
7120.67073	0.00190
7118.74206	0.00192
7116.81338	0.00194
7114.88470	0.00194
7112.95603	0.00193
7111.02735	0.00192
7109.09868	0.00193
7107.17000	0.00196
7105.24133	0.00198
7103.31265	0.00199
7101.38397	0.00198
7099.45530	0.00197
7097.52662	0.00197
7095.59795	0.00197
7093.66927	0.00199
7091.74060	0.00200
7089.81192	0.00200
7087.88324	0.00200
7085.95457	0.00199
7084.02589	0.00198
7082.09722	0.00197
7080.16854	0.00198
7078.23987	0.00199
7076.31119	0.00202
7074.38251	0.00203
7072.45384	0.00202
7070.52516	0.00200
7068.59649	0.00200
7066.66781	0.00201
7064.73914	0.00203
7062.81046	0.00204
7060.88178	0.00204
7058.95311	0.00203
7057.02443	0.00205
7055.09576	0.00207
7053.16708	0.00207
7051.23841	0.00207
7049.30973	0.00207
7047.38105	0.00207
7045.45238	0.00207
7043.52370	0.00208
7041.59503	0.00208
7039.66635	0.00208
7037.73768	0.00209
7035.80900	0.00210
7033.88032	0.00211
7031.95165	0.00212
7030.02297	0.00213
7028.09430	0.00213
7026.16562	0.00212
7024.23695	0.00213
7022.30827	0.00214
7020.37959	0.00216
7018.45092	0.00218
7016.52224	0.00217
7014.59357	0.00216
7012.66489	0.00215
7010.73622	0.00216
7008.80754	0.00217
7006.87886	0.00218
7004.95019	0.00218
7003.02151	0.00218
7001.09284	0.00218
6999.16416	0.00218
6997.23549	0.00219
6995.30681	0.00218
6993.37813	0.00216
6991.44946	0.00217
6989.52078	0.00219
6987.59211	0.00221
6985.66343	0.00223
6983.73476	0.00224
6981.80608	0.00224
6979.87740	0.00224
6977.94873	0.00223
6976.02005	0.00223
6974.09138	0.00225
6972.16270	0.00228
6970.23403	0.00227
6968.30535	0.00226
6966.37667	0.00226
6964.44800	0.00228
6962.51932	0.00229
6960.59065	0.00230
6958.66197	0.00230
6956.73330	0.00231
6954.80462	0.00231
6952.87594	0.00231
6950.94727	0.00232
6949.01859	0.00233
6947.08992	0.00233
6945.16124	0.00232
6943.23257	0.00232
6941.30389	0.00231
6939.37521	0.00230
6937.44654	0.00230
6935.51786	0.00232
6933.58919	0.00235
6931.66051	0.00236
6929.73184	0.00237
6927.80316	0.00238
6925.87448	0.00238
6923.94581	0.00238
6922.01713	0.00238
6920.08846	0.00239
6918.15978	0.00239
6916.23111	0.00240
6914.30243	0.00240
6912.37375	0.00241
6910.44508	0.00242
6908.51640	0.00243
6906.58773	0.00243
6904.65905	0.00244
6902.73038	0.00243
6900.80170	0.00244
6898.87302	0.00245
6896.94435	0.00245
6895.01567	0.00245
6893.08700	0.00245
6891.15832	0.00244
6889.22965	0.00244
6887.30097	0.00246
6885.37229	0.00249
6883.44362	0.00252
6881.51494	0.00253
6879.58627	0.00252
6877.65759	0.00250
6875.72892	0.00250
6873.80024	0.00251
6871.87156	0.00251
6869.94289	0.00251
6868.01421	0.00251
6866.08554	0.00252
6864.15686	0.00253
6862.22819	0.00253
6860.29951	0.00254
6858.37083	0.00254
6856.44216	0.00254
6854.51348	0.00254
6852.58481	0.00255
6850.65613	0.00257
6848.72746	0.00258
6846.79878	0.00258
6844.87010	0.00258
6842.94143	0.00258
6841.01275	0.00259
6839.08408	0.00259
6837.15540	0.00260
6835.22673	0.00261
6833.29805	0.00261
6831.36937	0.00262
6829.44070	0.00263
6827.51202	0.00264
6825.58335	0.00264
6823.65467	0.00264
6821.72600	0.00263
6819.79732	0.00263
6817.86864	0.00265
6815.93997	0.00268
6814.01129	0.00268
6812.08262	0.00267
6810.15394	0.00266
6808.22527	0.00266
6806.29659	0.00269
6804.36791	0.00272
6802.43924	0.00273
6800.51056	0.00273
6798.58189	0.00272
6796.65321	0.00271
6794.72454	0.00272
6792.79586	0.00273
6790.86718	0.00274
6788.93851	0.00274
6787.00983	0.00273
6785.08116	0.00274
6783.15248	0.00275
6781.22381	0.00275
6779.29513	0.00277
6777.36645	0.00278
6775.43778	0.00279
6773.50910	0.00279
6771.58043	0.00281
6769.65175	0.00283
6767.72308	0.00284
6765.79440	0.00284
6763.86572	0.00282
6761.93705	0.00280
6760.00837	0.00279
6758.07970	0.00281
6756.15102	0.00284
6754.22235	0.00286
6752.29367	0.00286
6750.36499	0.00285
6748.43632	0.00286
6746.50764	0.00288
6744.57897	0.00290
6742.65029	0.00291
6740.72162	0.00291
6738.79294	0.00291
6736.86426	0.00292
6734.93559	0.00294
6733.00691	0.00295
6731.07824	0.00295
6729.14956	0.00294
6727.22089	0.00294
6725.29221	0.00295
6723.36353	0.00296
6721.43486	0.00298
6719.50618	0.00299
6717.57751	0.00299
6715.64883	0.00299
6713.72016	0.00299
6711.79148	0.00298
6709.86280	0.00297
6707.93413	0.00297
6706.00545	0.00298
6704.07678	0.00300
6702.14810	0.00303
6700.21943	0.00304
6698.29075	0.00304
6696.36207	0.00303
6694.43340	0.00302
6692.50472	0.00302
6690.57605	0.00303
6688.64737	0.00305
6686.71870	0.00307
6684.79002	0.00309
6682.86134	0.00310
6680.93267	0.00308
6679.00399	0.00308
6677.07532	0.00308
6675.14664	0.00309
6673.21797	0.00310
6671.28929	0.00310
6669.36061	0.00311
6667.43194	0.00310
6665.50326	0.00309
6663.57459	0.00310
6661.64591	0.00311
6659.71724	0.00313
6657.78856	0.00315
6655.85988	0.00317
6653.93121	0.00318
6652.00253	0.00317
6650.07386	0.00317
6648.14518	0.00319
6646.21651	0.00322
6644.28783	0.00323
6642.35915	0.00324
6640.43048	0.00323
6638.50180	0.00323
6636.57313	0.00322
6634.64445	0.00323
6632.71578	0.00325
6630.78710	0.00327
6628.85842	0.00326
6626.92975	0.00326
6625.00107	0.00328
6623.07240	0.00330
6621.14372	0.00331
6619.21505	0.00329
6617.28637	0.00328
6615.35769	0.00330
6613.42902	0.00332
6611.50034	0.00333
6609.57167	0.00333
6607.64299	0.00333
6605.71432	0.00333
6603.78564	0.00334
6601.85696	0.00335
6599.92829	0.00336
6597.99961	0.00337
6596.07094	0.00338
6594.14226	0.00339
6592.21359	0.00340
6590.28491	0.00342
6588.35623	0.00343
6586.42756	0.00343
6584.49888	0.00344
6582.57021	0.00345
6580.64153	0.00346
6578.71286	0.00347
6576.78418	0.00345
6574.85550	0.00343
6572.92683	0.00342
6570.99815	0.00343
6569.06948	0.00346
6567.14080	0.00350
6565.21213	0.00352
6563.28345	0.00352
6561.35477	0.00351
6559.42610	0.00351
6557.49742	0.00351
6555.56875	0.00351
6553.64007	0.00352
6551.71140	0.00354
6549.78272	0.00356
6547.85404	0.00356
6545.92537	0.00357
6543.99669	0.00358
6542.06802	0.00359
6540.13934	0.00359
6538.21067	0.00359
6536.28199	0.00359
6534.35331	0.00359
6532.42464	0.00360
6530.49596	0.00361
6528.56729	0.00362
6526.63861	0.00364
6524.70994	0.00364
6522.78126	0.00364
6520.85258	0.00365
6518.92391	0.00367
6516.99523	0.00368
6515.06656	0.00369
6513.13788	0.00368
6511.20921	0.00369
6509.28053	0.00371
6507.35185	0.00372
6505.42318	0.00372
6503.49450	0.00372
6501.56583	0.00374
6499.63715	0.00376
6497.70848	0.00377
6495.77980	0.00376
6493.85112	0.00374
6491.92245	0.00373
6489.99377	0.00374
6488.06510	0.00377
6486.13642	0.00379
6484.20775	0.00379
6482.27907	0.00379
6480.35039	0.00380
6478.42172	0.00382
6476.49304	0.00385
6474.56437	0.00385
6472.63569	0.00385
6470.70702	0.00385
6468.77834	0.00386
6466.84966	0.00387
6464.92099	0.00388
6462.99231	0.00389
6461.06364	0.00389
6459.13496	0.00388
6457.20629	0.00389
6455.27761	0.00392
6453.34893	0.00394
6451.42026	0.00395
6449.49158	0.00396
6447.56291	0.00397
6445.63423	0.00398
6443.70556	0.00397
6441.77688	0.00398
6439.84820	0.00398
6437.91953	0.00399
6435.99085	0.00400
6434.06218	0.00402
6432.13350	0.00403
6430.20483	0.00403
6428.27615	0.00404
6426.34747	0.00406
6424.41880	0.00407
6422.49012	0.00407
6420.56145	0.00407
6418.63277	0.00407
6416.70410	0.00409
6414.77542	0.00411
6412.84674	0.00411
6410.91807	0.00411
6408.98939	0.00412
6407.06072	0.00414
6405.13204	0.00415
6403.20337	0.00414
6401.27469	0.00414
6399.34601	0.00415
6397.41734	0.00416
6395.48866	0.00416
6393.55999	0.00418
6391.63131	0.00421
6389.70264	0.00423
6387.77396	0.00423
6385.84528	0.00423
6383.91661	0.00424
6381.98793	0.00424
6380.05926	0.00425
6378.13058	0.00425
6376.20191	0.00426
6374.27323	0.00428
6372.34455	0.00429
6370.41588	0.00430
6368.48720	0.00430
6366.55853	0.00430
6364.62985	0.00431
6362.70118	0.00431
6360.77250	0.00433
6358.84382	0.00434
6356.91515	0.00435
6354.98647	0.00436
6353.05780	0.00438
6351.12912	0.00439
6349.20045	0.00440
6347.27177	0.00441
6345.34309	0.00443
6343.41442	0.00444
6341.48574	0.00445
6339.55707	0.00446
6337.62839	0.00447
6335.69972	0.00446
6333.77104	0.00445
6331.84236	0.00446
6329.91369	0.00447
6327.98501	0.00448
6326.05634	0.00450
6324.12766	0.00451
6322.19899	0.00452
6320.27031	0.00453
6318.34163	0.00453
6316.41296	0.00453
6314.48428	0.00453
6312.55561	0.00454
6310.62693	0.00456
6308.69826	0.00459
6306.76958	0.00463
6304.84090	0.00465
6302.91223	0.00464
6300.98355	0.00464
6299.05488	0.00464
6297.12620	0.00464
6295.19753	0.00465
6293.26885	0.00466
6291.34017	0.00469
6289.41150	0.00471
6287.48282	0.00472
6285.55415	0.00471
6283.62547	0.00471
6281.69680	0.00471
6279.76812	0.00471
6277.83944	0.00473
6275.91077	0.00476
6273.98209	0.00476
6272.05342	0.00476
6270.12474	0.00477
6268.19607	0.00479
6266.26739	0.00480
6264.33871	0.00481
6262.41004	0.00481
6260.48136	0.00482
6258.55269	0.00483
6256.62401	0.00486
6254.69534	0.00489
6252.76666	0.00489
6250.83798	0.00488
6248.90931	0.00488
6246.98063	0.00489
6245.05196	0.00491
6243.12328	0.00492
6241.19461	0.00492
6239.26593	0.00493
6237.33725	0.00494
6235.40858	0.00495
6233.47990	0.00496
6231.55123	0.00497
6229.62255	0.00499
6227.69388	0.00500
6225.76520	0.00503
6223.83652	0.00505
6221.90785	0.00506
6219.97917	0.00507
6218.05050	0.00509
6216.12182	0.00509
6214.19315	0.00509
6212.26447	0.00510
6210.33579	0.00510
6208.40712	0.00510
6206.47844	0.00510
6204.54977	0.00511
6202.62109	0.00513
6200.69242	0.00516
6198.76374	0.00518
6196.83506	0.00519
6194.90639	0.00520
6192.97771	0.00520
6191.04904	0.00521
6189.12036	0.00521
6187.19169	0.00522
6185.26301	0.00523
6183.33433	0.00524
6181.40566	0.00525
6179.47698	0.00526
6177.54831	0.00528
6175.61963	0.00529
6173.69096	0.00531
6171.76228	0.00533
6169.83360	0.00534
6167.90493	0.00534
6165.97625	0.00534
6164.04758	0.00536
6162.11890	0.00539
6160.19023	0.00540
6158.26155	0.00539
6156.33287	0.00538
6154.40420	0.00538
6152.47552	0.00541
6150.54685	0.00544
6148.61817	0.00548
6146.68950	0.00550
6144.76082	0.00551
6142.83214	0.00551
6140.90347	0.00552
6138.97479	0.00553
6137.04612	0.00555
6135.11744	0.00555
6133.18877	0.00556
6131.26009	0.00557
6129.33141	0.00558
6127.40274	0.00556
6125.47406	0.00555
6123.54539	0.00557
6121.61671	0.00560
6119.68804	0.00563
6117.75936	0.00564
6115.83068	0.00565
6113.90201	0.00566
6111.97333	0.00567
6110.04466	0.00567
6108.11598	0.00567
6106.18731	0.00567
6104.25863	0.00568
6102.32995	0.00571
6100.40128	0.00574
6098.47260	0.00575
6096.54393	0.00576
6094.61525	0.00576
6092.68658	0.00578
6090.75790	0.00579
6088.82922	0.00581
6086.90055	0.00583
6084.97187	0.00584
6083.04320	0.00585
6081.11452	0.00587
6079.18585	0.00588
6077.25717	0.00589
6075.32849	0.00590
6073.39982	0.00592
6071.47114	0.00594
6069.54247	0.00594
6067.61379	0.00593
6065.68512	0.00594
6063.75644	0.00597
6061.82776	0.00598
6059.89909	0.00598
6057.97041	0.00600
6056.04174	0.00602
6054.11306	0.00603
6052.18439	0.00603
6050.25571	0.00605
6048.32703	0.00607
6046.39836	0.00609
6044.46968	0.00609
6042.54101	0.00610
6040.61233	0.00611
6038.68366	0.00612
6036.75498	0.00614
6034.82630	0.00615
6032.89763	0.00616
6030.96895	0.00617
6029.04028	0.00619
6027.11160	0.00621
6025.18293	0.00621
6023.25425	0.00622
6021.32557	0.00624
6019.39690	0.00627
6017.46822	0.00627
6015.53955	0.00626
6013.61087	0.00627
6011.68220	0.00629
6009.75352	0.00630
6007.82484	0.00633
6005.89617	0.00637
6003.96749	0.00639
6002.03882	0.00641
6000.11014	0.00641
5998.18147	0.00641
5996.25279	0.00641
5994.32411	0.00641
5992.39544	0.00642
5990.46676	0.00646
5988.53809	0.00649
5986.60941	0.00650
5984.68074	0.00651
5982.75206	0.00653
5980.82338	0.00653
5978.89471	0.00653
5976.96603	0.00653
5975.03736	0.00653
5973.10868	0.00654
5971.18001	0.00654
5969.25133	0.00656
5967.32265	0.00657
5965.39398	0.00658
5963.46530	0.00660
5961.53663	0.00662
5959.60795	0.00664
5957.67928	0.00666
5955.75060	0.00669
5953.82192	0.00671
5951.89325	0.00672
5949.96457	0.00674
5948.03590	0.00676
5946.10722	0.00677
5944.17855	0.00680
5942.24987	0.00682
5940.32119	0.00682
5938.39252	0.00682
5936.46384	0.00683
5934.53517	0.00685
5932.60649	0.00687
5930.67782	0.00688
5928.74914	0.00690
5926.82046	0.00691
5924.89179	0.00692
5922.96311	0.00691
5921.03444	0.00692
5919.10576	0.00695
5917.17709	0.00698
5915.24841	0.00699
5913.31973	0.00701
5911.39106	0.00703
5909.46238	0.00705
5907.53371	0.00706
5905.60503	0.00706
5903.67636	0.00705
5901.74768	0.00706
5899.81900	0.00708
5897.89033	0.00710
5895.96165	0.00712
5894.03298	0.00714
5892.10430	0.00715
5890.17563	0.00716
5888.24695	0.00717
5886.31827	0.00721
5884.38960	0.00723
5882.46092	0.00723
5880.53225	0.00725
5878.60357	0.00727
5876.67490	0.00728
5874.74622	0.00729
5872.81755	0.00732
5870.88887	0.00734
5868.96019	0.00735
5867.03152	0.00735
5865.10284	0.00735
5863.17417	0.00737
5861.24549	0.00739
5859.31682	0.00740
5857.38814	0.00740
5855.45946	0.00742
5853.53079	0.00744
5851.60211	0.00748
5849.67344	0.00752
5847.74476	0.00753
5845.81609	0.00752
5843.88741	0.00753
5841.95873	0.00755
5840.03006	0.00757
5838.10138	0.00759
5836.17271	0.00760
5834.24403	0.00762
5832.31536	0.00765
5830.38668	0.00766
5828.45800	0.00766
5826.52933	0.00766
5824.60065	0.00769
5822.67198	0.00771
5820.74330	0.00771
5818.81463	0.00772
5816.88595	0.00774
5814.95727	0.00777
5813.02860	0.00781
5811.09992	0.00783
5809.17125	0.00784
5807.24257	0.00785
5805.31390	0.00785
5803.38522	0.00785
5801.45654	0.00786
5799.52787	0.00787
5797.59919	0.00790
5795.67052	0.00792
5793.74184	0.00793
5791.81317	0.00795
5789.88449	0.00797
5787.95581	0.00798
5786.02714	0.00799
5784.09846	0.00799
5782.16979	0.00802
5780.24111	0.00806
5778.31244	0.00809
5776.38376	0.00809
5774.45508	0.00810
5772.52641	0.00812
5770.59773	0.00814
5768.66906	0.00816
5766.74038	0.00818
5764.81171	0.00821
5762.88303	0.00823
5760.95435	0.00825
5759.02568	0.00825
5757.09700	0.00826
5755.16833	0.00826
5753.23965	0.00827
5751.31098	0.00829
5749.38230	0.00832
5747.45362	0.00835
5745.52495	0.00835
5743.59627	0.00834
5741.66760	0.00835
5739.73892	0.00837
5737.81025	0.00841
5735.88157	0.00843
5733.95289	0.00845
5732.02422	0.00848
5730.09554	0.00850
5728.16687	0.00850
5726.23819	0.00849
5724.30952	0.00851
5722.38084	0.00854
5720.45216	0.00856
5718.52349	0.00859
5716.59481	0.00863
5714.66614	0.00865
5712.73746	0.00866
5710.80879	0.00867
5708.88011	0.00868
5706.95143	0.00868
5705.02276	0.00870
5703.09408	0.00874
5701.16541	0.00878
5699.23673	0.00879
5697.30806	0.00879
5695.37938	0.00879
5693.45070	0.00880
5691.52203	0.00882
5689.59335	0.00884
5687.66468	0.00886
5685.73600	0.00888
5683.80733	0.00889
5681.87865	0.00889
5679.94997	0.00889
5678.02130	0.00892
5676.09262	0.00896
5674.16395	0.00899
5672.23527	0.00901
5670.30660	0.00901
5668.37792	0.00903
5666.44924	0.00906
5664.52057	0.00910
5662.59189	0.00913
5660.66322	0.00913
5658.73454	0.00913
5656.80587	0.00914
5654.87719	0.00917
5652.94851	0.00918
5651.01984	0.00920
5649.09116	0.00922
5647.16249	0.00925
5645.23381	0.00927
5643.30514	0.00929
5641.37646	0.00929
5639.44778	0.00931
5637.51911	0.00934
5635.59043	0.00937
5633.66176	0.00940
5631.73308	0.00942
5629.80441	0.00942
5627.87573	0.00942
5625.94705	0.00943
5624.01838	0.00946
5622.08970	0.00949
5620.16103	0.00951
5618.23235	0.00953
5616.30368	0.00953
5614.37500	0.00954
5612.44632	0.00956
5610.51765	0.00958
5608.58897	0.00959
5606.66030	0.00961
5604.73162	0.00964
5602.80295	0.00965
5600.87427	0.00966
5598.94559	0.00967
5597.01692	0.00970
5595.08824	0.00973
5593.15957	0.00978
5591.23089	0.00981
5589.30222	0.00982
5587.37354	0.00981
5585.44486	0.00981
5583.51619	0.00982
5581.58751	0.00984
5579.65884	0.00985
5577.73016	0.00987
5575.80149	0.00989
5573.87281	0.00992
5571.94413	0.00995
5570.01546	0.00997
5568.08678	0.00999
5566.15811	0.01002
5564.22943	0.01005
5562.30076	0.01007
5560.37208	0.01009
5558.44340	0.01012
5556.51473	0.01014
5554.58605	0.01015
5552.65738	0.01017
5550.72870	0.01019
5548.80003	0.01021
5546.87135	0.01022
5544.94267	0.01024
5543.01400	0.01025
5541.08532	0.01027
5539.15665	0.01028
5537.22797	0.01029
5535.29930	0.01031
5533.37062	0.01035
5531.44194	0.01038
5529.51327	0.01040
5527.58459	0.01040
5525.65592	0.01039
5523.72724	0.01040
5521.79857	0.01044
5519.86989	0.01049
5517.94121	0.01050
5516.01254	0.01050
5514.08386	0.01053
5512.15519	0.01058
5510.22651	0.01061
5508.29784	0.01062
5506.36916	0.01065
5504.44048	0.01067
5502.51181	0.01067
5500.58313	0.01067
5498.65446	0.01070
5496.72578	0.01073
5494.79711	0.01074
5492.86843	0.01075
5490.93975	0.01075
5489.01108	0.01078
5487.08240	0.01083
5485.15373	0.01087
5483.22505	0.01089
5481.29638	0.01088
5479.36770	0.01088
5477.43902	0.01090
5475.51035	0.01093
5473.58167	0.01095
5471.65300	0.01097
5469.72432	0.01099
5467.79565	0.01102
5465.86697	0.01103
5463.93829	0.01103
5462.00962	0.01105
5460.08094	0.01110
5458.15227	0.01115
5456.22359	0.01118
5454.29492	0.01118
5452.36624	0.01118
5450.43756	0.01118
5448.50889	0.01119
5446.58021	0.01124
5444.65154	0.01130
5442.72286	0.01133
5440.79419	0.01133
5438.86551	0.01133
5436.93683	0.01136
5435.00816	0.01137
5433.07948	0.01137
5431.15081	0.01139
5429.22213	0.01143
5427.29346	0.01148
5425.36478	0.01150
5423.43610	0.01151
5421.50743	0.01152
5419.57875	0.01153
5417.65008	0.01154
5415.72140	0.01155
5413.79273	0.01157
5411.86405	0.01160
5409.93537	0.01163
5408.00670	0.01166
5406.07802	0.01169
5404.14935	0.01171
5402.22067	0.01173
5400.29200	0.01176
5398.36332	0.01180
5396.43464	0.01183
5394.50597	0.01185
5392.57729	0.01184
5390.64862	0.01184
5388.71994	0.01186
5386.79127	0.01188
5384.86259	0.01192
5382.93391	0.01196
5381.00524	0.01198
5379.07656	0.01199
5377.14789	0.01201
5375.21921	0.01205
5373.29054	0.01208
5371.36186	0.01209
5369.43318	0.01211
5367.50451	0.01214
5365.57583	0.01215
5363.64716	0.01217
5361.71848	0.01219
5359.78981	0.01224
5357.86113	0.01229
5355.93245	0.01233
5354.00378	0.01235
5352.07510	0.01236
5350.14643	0.01234
5348.21775	0.01232
5346.28908	0.01232
5344.36040	0.01237
5342.43172	0.01243
5340.50305	0.01246
5338.57437	0.01248
5336.64570	0.01248
5334.71702	0.01248
5332.78835	0.01249
5330.85967	0.01253
5328.93099	0.01256
5327.00232	0.01258
5325.07364	0.01262
5323.14497	0.01267
5321.21629	0.01271
5319.28762	0.01272
5317.35894	0.01271
5315.43026	0.01272
5313.50159	0.01276
5311.57291	0.01278
5309.64424	0.01279
5307.71556	0.01280
5305.78689	0.01284
5303.85821	0.01287
5301.92953	0.01288
5300.00086	0.01289
5298.07218	0.01293
5296.14351	0.01298
5294.21483	0.01301
5292.28616	0.01303
5290.35748	0.01305
5288.42880	0.01306
5286.50013	0.01308
5284.57145	0.01312
5282.64278	0.01315
5280.71410	0.01316
5278.78543	0.01318
5276.85675	0.01320
5274.92807	0.01323
5272.99940	0.01325
5271.07072	0.01327
5269.14205	0.01332
5267.21337	0.01336
5265.28470	0.01337
5263.35602	0.01336
5261.42734	0.01338
5259.49867	0.01342
5257.56999	0.01344
5255.64132	0.01345
5253.71264	0.01347
5251.78397	0.01350
5249.85529	0.01351
5247.92661	0.01353
5245.99794	0.01355
5244.06926	0.01359
5242.14059	0.01362
5240.21191	0.01365
5238.28324	0.01366
5236.35456	0.01368
5234.42588	0.01369
5232.49721	0.01370
5230.56853	0.01372
5228.63986	0.01376
5226.71118	0.01380
5224.78251	0.01384
5222.85383	0.01388
5220.92515	0.01390
5218.99648	0.01390
5217.06780	0.01392
5215.13913	0.01395
5213.21045	0.01397
5211.28178	0.01398
5209.35310	0.01399
5207.42442	0.01401
5205.49575	0.01405
5203.56707	0.01408
5201.63840	0.01410
5199.70972	0.01412
5197.78105	0.01415
5195.85237	0.01417
5193.92369	0.01418
5191.99502	0.01421
5190.06634	0.01426
5188.13767	0.01430
5186.20899	0.01432
5184.28032	0.01434
5182.35164	0.01435
5180.42296	0.01437
5178.49429	0.01441
5176.56561	0.01443
5174.63694	0.01444
5172.70826	0.01445
5170.77959	0.01447
5168.85091	0.01451
5166.92223	0.01455
5164.99356	0.01458
5163.06488	0.01460
5161.13621	0.01462
5159.20753	0.01464
5157.27886	0.01467
5155.35018	0.01470
5153.42150	0.01473
5151.49283	0.01475
5149.56415	0.01478
5147.63548	0.01481
5145.70680	0.01485
5143.77813	0.01486
5141.84945	0.01486
5139.92077	0.01488
5137.99210	0.01491
5136.06342	0.01494
5134.13475	0.01498
5132.20607	0.01501
5130.27740	0.01504
5128.34872	0.01508
5126.42004	0.01509
5124.49137	0.01510
5122.56269	0.01511
5120.63402	0.01513
5118.70534	0.01516
5116.77667	0.01520
5114.84799	0.01522
5112.91931	0.01524
5110.99064	0.01527
5109.06196	0.01531
5107.13329	0.01534
5105.20461	0.01536
5103.27594	0.01538
5101.34726	0.01541
5099.41858	0.01543
5097.48991	0.01544
5095.56123	0.01546
5093.63256	0.01548
5091.70388	0.01550
5089.77521	0.01552
5087.84653	0.01555
5085.91785	0.01558
5083.98918	0.01563
5082.06050	0.01567
5080.13183	0.01569
5078.20315	0.01571
5076.27448	0.01574
5074.34580	0.01577
5072.41712	0.01580
5070.48845	0.01582
5068.55977	0.01582
5066.63110	0.01584
5064.70242	0.01588
5062.77375	0.01589
5060.84507	0.01591
5058.91639	0.01595
5056.98772	0.01600
5055.05904	0.01604
5053.13037	0.01606
5051.20169	0.01608
5049.27302	0.01610
5047.34434	0.01612
5045.41566	0.01613
5043.48699	0.01615
5041.55831	0.01618
5039.62964	0.01623
5037.70096	0.01627
5035.77229	0.01628
5033.84361	0.01629
5031.91493	0.01631
5029.98626	0.01634
5028.05758	0.01638
5026.12891	0.01642
5024.20023	0.01646
5022.27156	0.01649
5020.34288	0.01652
5018.41420	0.01655
5016.48553	0.01657
5014.55685	0.01660
5012.62818	0.01662
5010.69950	0.01665
5008.77083	0.01667
5006.84215	0.01668
5004.91347	0.01669
5002.98480	0.01672
5001.05612	0.01676
4999.12745	0.01679
4997.19877	0.01683
4995.27010	0.01686
4993.34142	0.01690
4991.41274	0.01693
4989.48407	0.01696
4987.55539	0.01699
4985.62672	0.01701
4983.69804	0.01703
4981.76937	0.01706
4979.84069	0.01710
4977.91201	0.01712
4975.98334	0.01715
4974.05466	0.01716
4972.12599	0.01717
4970.19731	0.01720
4968.26864	0.01724
4966.33996	0.01728
4964.41128	0.01732
4962.48261	0.01734
4960.55393	0.01736
4958.62526	0.01738
4956.69658	0.01741
4954.76791	0.01743
4952.83923	0.01744
4950.91055	0.01747
4948.98188	0.01751
4947.05320	0.01752
4945.12453	0.01754
4943.19585	0.01757
4941.26718	0.01760
4939.33850	0.01762
4937.40982	0.01764
4935.48115	0.01769
4933.55247	0.01775
4931.62380	0.01780
4929.69512	0.01783
4927.76645	0.01782
4925.83777	0.01782
4923.90909	0.01785
4921.98042	0.01788
4920.05174	0.01789
4918.12307	0.01792
4916.19439	0.01798
4914.26572	0.01803
4912.33704	0.01806
4910.40836	0.01809
4908.47969	0.01812
4906.55101	0.01814
4904.62234	0.01815
4902.69366	0.01817
4900.76499	0.01820
4898.83631	0.01822
4896.90763	0.01824
4894.97896	0.01829
4893.05028	0.01833
4891.12161	0.01835
4889.19293	0.01837
4887.26426	0.01840
4885.33558	0.01842
4883.40690	0.01846
4881.47823	0.01850
4879.54955	0.01853
4877.62088	0.01856
4875.69220	0.01859
4873.76353	0.01863
4871.83485	0.01866
4869.90617	0.01869
4867.97750	0.01870
4866.04882	0.01871
4864.12015	0.01873
4862.19147	0.01877
4860.26280	0.01881
4858.33412	0.01883
4856.40544	0.01885
4854.47677	0.01888
4852.54809	0.01893
4850.61942	0.01896
4848.69074	0.01900
4846.76207	0.01903
4844.83339	0.01906
4842.90471	0.01910
4840.97604	0.01914
4839.04736	0.01919
4837.11869	0.01922
4835.19001	0.01924
4833.26134	0.01927
4831.33266	0.01929
4829.40398	0.01931
4827.47531	0.01934
4825.54663	0.01937
4823.61796	0.01941
4821.68928	0.01946
4819.76061	0.01950
4817.83193	0.01953
4815.90325	0.01954
4813.97458	0.01956
4812.04590	0.01959
4810.11723	0.01961
4808.18855	0.01965
4806.25988	0.01970
4804.33120	0.01973
4802.40252	0.01974
4800.47385	0.01976
4798.54517	0.01978
4796.61650	0.01981
4794.68782	0.01984
4792.75915	0.01986
4790.83047	0.01990
4788.90179	0.01993
4786.97312	0.01997
4785.04444	0.02000
4783.11577	0.02003
4781.18709	0.02006
4779.25842	0.02010
4777.32974	0.02013
4775.40106	0.02017
4773.47239	0.02021
4771.54371	0.02025
4769.61504	0.02027
4767.68636	0.02030
4765.75769	0.02032
4763.82901	0.02034
4761.90033	0.02038
4759.97166	0.02044
4758.04298	0.02050
4756.11431	0.02054
4754.18563	0.02056
4752.25696	0.02058
4750.32828	0.02060
4748.39960	0.02062
4746.47093	0.02065
4744.54225	0.02069
4742.61358	0.02072
4740.68490	0.02074
4738.75623	0.02076
4736.82755	0.02079
4734.89887	0.02083
4732.97020	0.02088
4731.04152	0.02093
4729.11285	0.02097
4727.18417	0.02099
4725.25550	0.02103
4723.32682	0.02109
4721.39814	0.02114
4719.46947	0.02116
4717.54079	0.02117
4715.61212	0.02119
4713.68344	0.02121
4711.75477	0.02124
4709.82609	0.02130
4707.89741	0.02136
4705.96874	0.02141
4704.04006	0.02142
4702.11139	0.02142
4700.18271	0.02143
4698.25404	0.02147
4696.32536	0.02152
4694.39668	0.02156
4692.46801	0.02159
4690.53933	0.02162
4688.61066	0.02166
4686.68198	0.02170
4684.75331	0.02174
4682.82463	0.02177
4680.89595	0.02179
4678.96728	0.02182
4677.03860	0.02187
4675.10993	0.02190
4673.18125	0.02194
4671.25258	0.02199
4669.32390	0.02203
4667.39522	0.02206
4665.46655	0.02207
4663.53787	0.02207
4661.60920	0.02212
4659.68052	0.02219
4657.75185	0.02224
4655.82317	0.02226
4653.89449	0.02230
4651.96582	0.02233
4650.03714	0.02234
4648.10847	0.02236
4646.17979	0.02241
4644.25112	0.02246
4642.32244	0.02250
4640.39376	0.02256
4638.46509	0.02260
4636.53641	0.02263
4634.60774	0.02264
4632.67906	0.02267
4630.75039	0.02271
4628.82171	0.02276
4626.89303	0.02279
4624.96436	0.02282
4623.03568	0.02286
4621.10701	0.02291
4619.17833	0.02295
4617.24966	0.02299
4615.32098	0.02304
4613.39230	0.02308
4611.46363	0.02312
4609.53495	0.02315
4607.60628	0.02318
4605.67760	0.02321
4603.74893	0.02325
4601.82025	0.02329
4599.89157	0.02333
4597.96290	0.02337
4596.03422	0.02342
4594.10555	0.02347
4592.17687	0.02352
4590.24820	0.02356
4588.31952	0.02358
4586.39084	0.02360
4584.46217	0.02364
4582.53349	0.02368
4580.60482	0.02372
4578.67614	0.02375
4576.74747	0.02378
4574.81879	0.02382
4572.89011	0.02387
4570.96144	0.02392
4569.03276	0.02397
4567.10409	0.02400
4565.17541	0.02402
4563.24674	0.02405
4561.31806	0.02409
4559.38938	0.02414
4557.46071	0.02420
4555.53203	0.02424
4553.60336	0.02427
4551.67468	0.02431
4549.74601	0.02434
4547.81733	0.02438
4545.88865	0.02444
4543.95998	0.02449
4542.03130	0.02452
4540.10263	0.02454
4538.17395	0.02458
4536.24528	0.02461
4534.31660	0.02464
4532.38792	0.02466
4530.45925	0.02471
4528.53057	0.02479
4526.60190	0.02487
4524.67322	0.02491
4522.74455	0.02494
4520.81587	0.02498
4518.88719	0.02501
4516.95852	0.02504
4515.02984	0.02508
4513.10117	0.02512
4511.17249	0.02517
4509.24382	0.02522
4507.31514	0.02528
4505.38646	0.02531
4503.45779	0.02533
4501.52911	0.02537
4499.60044	0.02542
4497.67176	0.02546
4495.74309	0.02550
4493.81441	0.02556
4491.88573	0.02562
4489.95706	0.02565
4488.02838	0.02566
4486.09971	0.02568
4484.17103	0.02572
4482.24236	0.02578
4480.31368	0.02583
4478.38500	0.02586
4476.45633	0.02591
4474.52765	0.02597
4472.59898	0.02602
4470.67030	0.02606
4468.74163	0.02610
4466.81295	0.02616
4464.88427	0.02625
4462.95560	0.02631
4461.02692	0.02635
4459.09825	0.02636
4457.16957	0.02638
4455.24090	0.02641
4453.31222	0.02645
4451.38354	0.02649
4449.45487	0.02653
4447.52619	0.02657
4445.59752	0.02662
4443.66884	0.02667
4441.74017	0.02673
4439.81149	0.02677
4437.88281	0.02681
4435.95414	0.02686
4434.02546	0.02692
4432.09679	0.02696
4430.16811	0.02699
4428.23944	0.02703
4426.31076	0.02709
4424.38208	0.02715
4422.45341	0.02720
4420.52473	0.02726
4418.59606	0.02731
4416.66738	0.02736
4414.73871	0.02741
4412.81003	0.02745
4410.88135	0.02749
4408.95268	0.02752
4407.02400	0.02756
4405.09533	0.02761
4403.16665	0.02766
4401.23798	0.02770
4399.30930	0.02774
4397.38062	0.02779
4395.45195	0.02784
4393.52327	0.02790
4391.59460	0.02797
4389.66592	0.02802
4387.73725	0.02807
4385.80857	0.02813
4383.87989	0.02818
4381.95122	0.02821
4380.02254	0.02826
4378.09387	0.02831
4376.16519	0.02836
4374.23652	0.02840
4372.30784	0.02845
4370.37916	0.02852
4368.45049	0.02859
4366.52181	0.02864
4364.59314	0.02867
4362.66446	0.02869
4360.73579	0.02874
4358.80711	0.02880
4356.87843	0.02886
4354.94976	0.02890
4353.02108	0.02894
4351.09241	0.02898
4349.16373	0.02904
4347.23506	0.02909
4345.30638	0.02914
4343.37770	0.02920
4341.44903	0.02927
4339.52035	0.02931
4337.59168	0.02934
4335.66300	0.02940
4333.73433	0.02949
4331.80565	0.02955
4329.87697	0.02958
4327.94830	0.02960
4326.01962	0.02966
4324.09095	0.02971
4322.16227	0.02976
4320.23360	0.02981
4318.30492	0.02988
4316.37624	0.02994
4314.44757	0.03000
4312.51889	0.03005
4310.59022	0.03011
4308.66154	0.03017
4306.73287	0.03022
4304.80419	0.03028
4302.87551	0.03035
4300.94684	0.03040
4299.01816	0.03044
4297.08949	0.03047
4295.16081	0.03053
4293.23214	0.03060
4291.30346	0.03069
4289.37478	0.03076
4287.44611	0.03082
4285.51743	0.03087
4283.58876	0.03092
4281.66008	0.03100
4279.73141	0.03108
4277.80273	0.03114
4275.87405	0.03117
4273.94538	0.03120
4272.01670	0.03123
4270.08803	0.03127
4268.15935	0.03134
4266.23068	0.03143
4264.30200	0.03150
4262.37332	0.03155
4260.44465	0.03159
4258.51597	0.03163
4256.58730	0.03169
4254.65862	0.03174
4252.72995	0.03178
4250.80127	0.03183
4248.87259	0.03189
4246.94392	0.03196
4245.01524	0.03201
4243.08657	0.03207
4241.15789	0.03212
4239.22922	0.03217
4237.30054	0.03223
4235.37186	0.03227
4233.44319	0.03234
4231.51451	0.03242
4229.58584	0.03249
4227.65716	0.03255
4225.72849	0.03261
4223.79981	0.03266
4221.87113	0.03271
4219.94246	0.03277
4218.01378	0.03286
4216.08511	0.03296
4214.15643	0.03302
4212.22776	0.03306
4210.29908	0.03309
4208.37040	0.03312
4206.44173	0.03318
4204.51305	0.03327
4202.58438	0.03334
4200.65570	0.03337
4198.72703	0.03340
4196.79835	0.03346
4194.86968	0.03355
4192.94100	0.03364
4191.01232	0.03373
4189.08365	0.03381
4187.15497	0.03386
4185.22630	0.03390
4183.29762	0.03396
4181.36895	0.03405
4179.44027	0.03412
4177.51159	0.03417
4175.58292	0.03421
4173.65424	0.03426
4171.72557	0.03432
4169.79689	0.03440
4167.86822	0.03449
4165.93954	0.03457
4164.01086	0.03463
4162.08219	0.03469
4160.15351	0.03474
4158.22484	0.03478
4156.29616	0.03482
4154.36749	0.03489
4152.43881	0.03498
4150.51013	0.03506
4148.58146	0.03511
4146.65278	0.03516
4144.72411	0.03523
4142.79543	0.03531
4140.86676	0.03537
4138.93808	0.03543
4137.00940	0.03550
4135.08073	0.03558
4133.15205	0.03565
4131.22338	0.03571
4129.29470	0.03578
4127.36603	0.03586
4125.43735	0.03594
4123.50867	0.03601
4121.58000	0.03606
4119.65132	0.03613
4117.72265	0.03620
4115.79397	0.03628
4113.86530	0.03635
4111.93662	0.03639
4110.00794	0.03643
4108.07927	0.03650
4106.15059	0.03658
4104.22192	0.03668
4102.29324	0.03677
4100.36457	0.03684
4098.43589	0.03689
4096.50721	0.03695
4094.57854	0.03701
4092.64986	0.03707
4090.72119	0.03712
4088.79251	0.03719
4086.86384	0.03728
4084.93516	0.03738
4083.00648	0.03745
4081.07781	0.03748
4079.14913	0.03752
4077.22046	0.03760
4075.29178	0.03771
4073.36311	0.03780
4071.43443	0.03787
4069.50575	0.03792
4067.57708	0.03799
4065.64840	0.03806
4063.71973	0.03813
4061.79105	0.03820
4059.86238	0.03828
4057.93370	0.03835
4056.00502	0.03842
4054.07635	0.03847
4052.14767	0.03853
4050.21900	0.03859
4048.29032	0.03866
4046.36165	0.03874
4044.43297	0.03881
4042.50429	0.03886
4040.57562	0.03895
4038.64694	0.03905
4036.71827	0.03913
4034.78959	0.03921
4032.86092	0.03930
4030.93224	0.03936
4029.00356	0.03942
4027.07489	0.03948
4025.14621	0.03955
4023.21754	0.03963
4021.28886	0.03970
4019.36019	0.03976
4017.43151	0.03983
4015.50283	0.03991
4013.57416	0.04000
4011.64548	0.04009
4009.71681	0.04016
4007.78813	0.04024
4005.85946	0.04033
4003.93078	0.04042
4002.00210	0.04051
4000.07343	0.04060
3998.14475	0.04068
3996.21608	0.04074
3994.28740	0.04078
3992.35873	0.04082
3990.43005	0.04090
3988.50137	0.04099
3986.57270	0.04107
3984.64402	0.04114
3982.71535	0.04121
3980.78667	0.04130
3978.85800	0.04138
3976.92932	0.04145
3975.00064	0.04152
3973.07197	0.04161
3971.14329	0.04170
3969.21462	0.04178
3967.28594	0.04183
3965.35727	0.04189
3963.42859	0.04199
3961.49991	0.04211
3959.57124	0.04220
3957.64256	0.04226
3955.71389	0.04232
3953.78521	0.04240
3951.85654	0.04248
3949.92786	0.04255
3947.99918	0.04259
3946.07051	0.04265
3944.14183	0.04274
3942.21316	0.04285
3940.28448	0.04296
3938.35581	0.04307
3936.42713	0.04315
3934.49845	0.04318
3932.56978	0.04319
3930.64110	0.04327
3928.71243	0.04339
3926.78375	0.04347
3924.85508	0.04355
3922.92640	0.04366
3920.99772	0.04372
3919.06905	0.04371
3917.14037	0.04376
3915.21170	0.04394
3913.28302	0.04410
3911.35435	0.04421
3909.42567	0.04428
3907.49699	0.04430
3905.56832	0.04427
3903.63964	0.04425
3901.71097	0.04426
3899.78229	0.04435
3897.85362	0.04456
3895.92494	0.04475
3893.99626	0.04479
3892.06759	0.04477
3890.13891	0.04488
3888.21024	0.04504
3886.28156	0.04515
3884.35289	0.04522
3882.42421	0.04525
3880.49553	0.04527
3878.56686	0.04543
3876.63818	0.04560
3874.70951	0.04566
3872.78083	0.04567
3870.85216	0.04567
3868.92348	0.04572
3866.99480	0.04581
3865.06613	0.04589
3863.13745	0.04603
3861.20878	0.04623
3859.28010	0.04636
3857.35143	0.04623
3855.42275	0.04593
3853.49407	0.04591
3851.56540	0.04630
3849.63672	0.04672
3847.70805	0.04692
3845.77937	0.04698
3843.85070	0.04700
3841.92202	0.04703
3839.99334	0.04705
3838.06467	0.04708
3836.13599	0.04716
3834.20732	0.04728
3832.27864	0.04742
3830.34997	0.04758
3828.42129	0.04772
3826.49261	0.04782
3824.56394	0.04788
3822.63526	0.04786
3820.70659	0.04785
3818.77791	0.04793
3816.84924	0.04804
3814.92056	0.04823
3812.99188	0.04848
3811.06321	0.04865
3809.13453	0.04870
3807.20586	0.04874
3805.27718	0.04875
3803.34851	0.04868
3801.41983	0.04869
3799.49115	0.04889
3797.56248	0.04913
3795.63380	0.04930
3793.70513	0.04945
3791.77645	0.04957
3789.84778	0.04965
3787.91910	0.04971
3785.99042	0.04978
3784.06175	0.04988
3782.13307	0.04995
3780.20440	0.05001
3778.27572	0.05013
3776.34705	0.05027
3774.41837	0.05036
3772.48969	0.05038
3770.56102	0.05043
3768.63234	0.05055
3766.70367	0.05068
3764.77499	0.05077
3762.84632	0.05080
3760.91764	0.05082
3758.98896	0.05090
3757.06029	0.05102
3755.13161	0.05103
3753.20294	0.05089
3751.27426	0.05080
3749.34559	0.05090
3747.41691	0.05095
3745.48823	0.05089
3743.55956	0.05107
3741.63088	0.05149
3739.70221	0.05171
3737.77353	0.05169
3735.84486	0.05170
3733.91618	0.05188
3731.98750	0.05216
3730.05883	0.05236
3728.13015	0.05242
3726.20148	0.05243
3724.27280	0.05250
3722.34413	0.05260
3720.41545	0.05273
3718.48677	0.05288
3716.55810	0.05302
3714.62942	0.05306
3712.70075	0.05303
3710.77207	0.05311
3708.84340	0.05333
3706.91472	0.05354
3704.98604	0.05365
3703.05737	0.05368
3701.12869	0.05374
3699.20002	0.05385
3697.27134	0.05397
3695.34267	0.05408
3693.41399	0.05412
3691.48531	0.05405
3689.55664	0.05397
3687.62796	0.05412
3685.69929	0.05443
3683.77061	0.05466
3681.84194	0.05476
3679.91326	0.05478
3677.98458	0.05473
3676.05591	0.05472
3674.12723	0.05485
3672.19856	0.05497
3670.26988	0.05503
3668.34121	0.05521
3666.41253	0.05546
3664.48385	0.05562
3662.55518	0.05572
3660.62650	0.05578
3658.69783	0.05580
3656.76915	0.05580
3654.84048	0.05581
3652.91180	0.05575
3650.98312	0.05560
3649.05445	0.05551
3647.12577	0.05564
3645.19710	0.05597
3643.26842	0.05629
3641.33975	0.05646
3639.41107	0.05656
3637.48239	0.05665
3635.55372	0.05673
3633.62504	0.05677
3631.69637	0.05668
3629.76769	0.05654
3627.83902	0.05664
3625.91034	0.05697
3623.98166	0.05721
3622.05299	0.05725
3620.12431	0.05723
3618.19564	0.05729
3616.26696	0.05740
3614.33829	0.05746
3612.40961	0.05745
3610.48093	0.05742
3608.55226	0.05749
3606.62358	0.05771
3604.69491	0.05790
3602.76623	0.05800
3600.83756	0.05807
3598.90888	0.05815
3596.98020	0.05823
3595.05153	0.05833
3593.12285	0.05841
3591.19418	0.05844
3589.26550	0.05840
3587.33683	0.05839
3585.40815	0.05853
3583.47947	0.05874
3581.55080	0.05886
3579.62212	0.05893
3577.69345	0.05903
3575.76477	0.05916
3573.83610	0.05925
3571.90742	0.05927
3569.97874	0.05920
3568.05007	0.05916
3566.12139	0.05928
3564.19272	0.05948
3562.26404	0.05965
3560.33537	0.05978
3558.40669	0.05989
3556.47801	0.05993
3554.54934	0.05994
3552.62066	0.05997
3550.69199	0.06006
3548.76331	0.06014
3546.83464	0.06019
3544.90596	0.06027
3542.97728	0.06040
3541.04861	0.06049
3539.11993	0.06053
3537.19126	0.06056
3535.26258	0.06063
3533.33391	0.06070
3531.40523	0.06073
3529.47655	0.06073
3527.54788	0.06072
3525.61920	0.06075
3523.69053	0.06080
3521.76185	0.06086
3519.83318	0.06095
3517.90450	0.06104
3515.97582	0.06110
3514.04715	0.06113
3512.11847	0.06115
3510.18980	0.06118
3508.26112	0.06122
3506.33245	0.06125
3504.40377	0.06128
3502.47509	0.06132
3500.54642	0.06137
3498.61774	0.06140
3496.68907	0.06142
3494.76039	0.06145
3492.83172	0.06150
3490.90304	0.06153
3488.97436	0.06154
3487.04569	0.06157
3485.11701	0.06161
3483.18834	0.06166
3481.25966	0.06171
3479.33099	0.06178
3477.40231	0.06185
3475.47363	0.06192
3473.54496	0.06199
3471.61628	0.06205
3469.68761	0.06211
3467.75893	0.06218
3465.83026	0.06229
3463.90158	0.06243
3461.97290	0.06253
3460.04423	0.06263
3458.11555	0.06278
3456.18688	0.06292
3454.25820	0.06301
3452.32953	0.06308
3450.40085	0.06316
3448.47217	0.06323
3446.54350	0.06332
3444.61482	0.06343
3442.68615	0.06354
3440.75747	0.06365
3438.82880	0.06379
3436.90012	0.06394
3434.97144	0.06412
3433.04277	0.06432
3431.11409	0.06453
3429.18542	0.06472
3427.25674	0.06492
3425.32807	0.06513
3423.39939	0.06533
3421.47071	0.06552
3419.54204	0.06571
3417.61336	0.06589
3415.68469	0.06603
3413.75601	0.06616
3411.82734	0.06630
3409.89866	0.06645
3407.96998	0.06660
3406.04131	0.06672
3404.11263	0.06683
3402.18396	0.06695
3400.25528	0.06710
3398.32661	0.06725
3396.39793	0.06737
3394.46925	0.06748
3392.54058	0.06761
3390.61190	0.06777
3388.68323	0.06793
3386.75455	0.06809
3384.82588	0.06822
3382.89720	0.06834
3380.96852	0.06847
3379.03985	0.06861
3377.11117	0.06877
3375.18250	0.06891
3373.25382	0.06905
3371.32515	0.06915
3369.39647	0.06921
3367.46779	0.06928
3365.53912	0.06941
3363.61044	0.06958
3361.68177	0.06972
3359.75309	0.06983
3357.82442	0.06993
3355.89574	0.07006
3353.96706	0.07021
3352.03839	0.07034
3350.10971	0.07045
3348.18104	0.07058
3346.25236	0.07072
3344.32369	0.07083
3342.39501	0.07093
3340.46633	0.07105
3338.53766	0.07118
3336.60898	0.07130
3334.68031	0.07142
3332.75163	0.07155
3330.82296	0.07169
3328.89428	0.07181
3326.96560	0.07193
3325.03693	0.07209
3323.10825	0.07223
3321.17958	0.07231
3319.25090	0.07240
3317.32223	0.07253
3315.39355	0.07268
3313.46487	0.07282
3311.53620	0.07296
3309.60752	0.07306
3307.67885	0.07318
3305.75017	0.07334
3303.82150	0.07349
3301.89282	0.07362
3299.96414	0.07376
3298.03547	0.07390
3296.10679	0.07402
3294.17812	0.07413
3292.24944	0.07424
3290.32077	0.07437
3288.39209	0.07450
3286.46341	0.07464
3284.53474	0.07480
3282.60606	0.07494
3280.67739	0.07507
3278.74871	0.07519
3276.82004	0.07532
3274.89136	0.07546
3272.96268	0.07560
3271.03401	0.07575
3269.10533	0.07591
3267.17666	0.07605
3265.24798	0.07618
3263.31931	0.07631
3261.39063	0.07644
3259.46195	0.07658
3257.53328	0.07669
3255.60460	0.07679
3253.67593	0.07692
3251.74725	0.07708
3249.81858	0.07724
3247.88990	0.07739
3245.96122	0.07754
3244.03255	0.07768
3242.10387	0.07783
3240.17520	0.07795
3238.24652	0.07807
3236.31785	0.07819
3234.38917	0.07831
3232.46049	0.07845
3230.53182	0.07860
3228.60314	0.07876
3226.67447	0.07890
3224.74579	0.07902
3222.81712	0.07916
3220.88844	0.07931
3218.95976	0.07945
3217.03109	0.07956
3215.10241	0.07965
3213.17374	0.07975
3211.24506	0.07990
3209.31639	0.08007
3207.38771	0.08023
3205.45903	0.08038
3203.53036	0.08051
3201.60168	0.08062
3199.67301	0.08075
3197.74433	0.08091
3195.81566	0.08108
3193.88698	0.08122
3191.95830	0.08137
3190.02963	0.08156
3188.10095	0.08175
3186.17228	0.08189
3184.24360	0.08201
3182.31493	0.08212
3180.38625	0.08224
3178.45757	0.08237
3176.52890	0.08252
3174.60022	0.08269
3172.67155	0.08284
3170.74287	0.08297
3168.81420	0.08310
3166.88552	0.08327
3164.95684	0.08342
3163.02817	0.08355
3161.09949	0.08367
3159.17082	0.08382
3157.24214	0.08398
3155.31347	0.08412
3153.38479	0.08425
3151.45611	0.08439
3149.52744	0.08453
3147.59876	0.08466
3145.67009	0.08480
3143.74141	0.08494
3141.81274	0.08507
3139.88406	0.08522
3137.95538	0.08538
3136.02671	0.08552
3134.09803	0.08564
3132.16936	0.08576
3130.24068	0.08590
3128.31201	0.08605
3126.38333	0.08622
3124.45465	0.08638
3122.52598	0.08650
3120.59730	0.08663
3118.66863	0.08678
3116.73995	0.08693
3114.81128	0.08708
3112.88260	0.08723
3110.95392	0.08737
3109.02525	0.08750
3107.09657	0.08762
3105.16790	0.08776
3103.23922	0.08790
3101.31055	0.08802
3099.38187	0.08814
3097.45319	0.08830
3095.52452	0.08847
3093.59584	0.08863
3091.66717	0.08874
3089.73849	0.08886
3087.80982	0.08901
3085.88114	0.08917
3083.95246	0.08929
3082.02379	0.08941
3080.09511	0.08958
3078.16644	0.08974
3076.23776	0.08989
3074.30909	0.09002
3072.38041	0.09017
3070.45173	0.09032
3068.52306	0.09048
3066.59438	0.09062
3064.66571	0.09076
3062.73703	0.09089
3060.80836	0.09103
3058.87968	0.09116
3056.95100	0.09127
3055.02233	0.09140
3053.09365	0.09156
3051.16498	0.09170
3049.23630	0.09185
3047.30763	0.09199
3045.37895	0.09212
3043.45027	0.09223
3041.52160	0.09233
3039.59292	0.09245
3037.66425	0.09263
3035.73557	0.09282
3033.80690	0.09298
3031.87822	0.09311
3029.94954	0.09326
3028.02087	0.09341
3026.09219	0.09355
3024.16352	0.09368
3022.23484	0.09380
3020.30617	0.09391
3018.37749	0.09404
3016.44881	0.09418
3014.52014	0.09429
3012.59146	0.09441
3010.66279	0.09458
3008.73411	0.09476
3006.80544	0.09492
3004.87676	0.09508
3002.94808	0.09523
3001.01941	0.09537
2999.09073	0.09549
2997.16206	0.09561
2995.23338	0.09575
2993.30471	0.09590
2991.37603	0.09602
2989.44735	0.09611
2987.51868	0.09619
2985.59000	0.09631
2983.66133	0.09644
2981.73265	0.09652
2979.80398	0.09657
2977.87530	0.09663
2975.94662	0.09668
2974.01795	0.09671
2972.08927	0.09671
2970.16060	0.09666
2968.23192	0.09663
2966.30325	0.09667
2964.37457	0.09672
2962.44589	0.09676
2960.51722	0.09683
2958.58854	0.09698
2956.65987	0.09718
2954.73119	0.09738
2952.80252	0.09756
2950.87384	0.09774
2948.94516	0.09791
2947.01649	0.09807
2945.08781	0.09819
2943.15914	0.09827
2941.23046	0.09828
2939.30179	0.09828
2937.37311	0.09828
2935.44443	0.09826
2933.51576	0.09820
2931.58708	0.09814
2929.65841	0.09810
2927.72973	0.09806
2925.80106	0.09802
2923.87238	0.09801
2921.94370	0.09806
2920.01503	0.09817
2918.08635	0.09837
2916.15768	0.09867
2914.22900	0.09907
2912.30033	0.09953
2910.37165	0.09994
2908.44297	0.10029
2906.51430	0.10060
2904.58562	0.10089
2902.65695	0.10114
2900.72827	0.10136
2898.79960	0.10158
2896.87092	0.10180
2894.94224	0.10199
2893.01357	0.10218
2891.08489	0.10238
2889.15622	0.10258
2887.22754	0.10278
2885.29887	0.10294
2883.37019	0.10310
2881.44151	0.10326
2879.51284	0.10341
2877.58416	0.10355
2875.65549	0.10369
2873.72681	0.10382
2871.79814	0.10395
2869.86946	0.10406
2867.94078	0.10414
2866.01211	0.10425
2864.08343	0.10438
2862.15476	0.10447
2860.22608	0.10452
2858.29741	0.10450
2856.36873	0.10444
2854.44005	0.10440
2852.51138	0.10441
2850.58270	0.10452
2848.65403	0.10483
2846.72535	0.10527
2844.79668	0.10574
2842.86800	0.10613
2840.93932	0.10643
2839.01065	0.10669
2837.08197	0.10695
2835.15330	0.10717
2833.22462	0.10737
2831.29595	0.10757
2829.36727	0.10778
2827.43859	0.10796
2825.50992	0.10811
2823.58124	0.10827
2821.65257	0.10844
2819.72389	0.10862
2817.79522	0.10879
2815.86654	0.10897
2813.93786	0.10913
2812.00919	0.10928
2810.08051	0.10945
2808.15184	0.10962
2806.22316	0.10980
2804.29449	0.10997
2802.36581	0.11010
2800.43713	0.11022
2798.50846	0.11036
2796.57978	0.11051
2794.65111	0.11069
2792.72243	0.11086
2790.79376	0.11103
2788.86508	0.11119
2786.93640	0.11133
2785.00773	0.11147
2783.07905	0.11161
2781.15038	0.11176
2779.22170	0.11191
2777.29303	0.11209
2775.36435	0.11224
2773.43567	0.11237
2771.50700	0.11252
2769.57832	0.11269
2767.64965	0.11286
2765.72097	0.11302
2763.79230	0.11317
2761.86362	0.11332
2759.93494	0.11346
2758.00627	0.11361
2756.07759	0.11379
2754.14892	0.11397
2752.22024	0.11411
2750.29157	0.11424
2748.36289	0.11438
2746.43421	0.11452
2744.50554	0.11468
2742.57686	0.11482
2740.64819	0.11496
2738.71951	0.11510
2736.79084	0.11524
2734.86216	0.11540
2732.93348	0.11557
2731.00481	0.11573
2729.07613	0.11588
2727.14746	0.11603
2725.21878	0.11617
2723.29011	0.11632
2721.36143	0.11647
2719.43275	0.11661
2717.50408	0.11672
2715.57540	0.11686
2713.64673	0.11702
2711.71805	0.11715
2709.78938	0.11728
2707.86070	0.11744
2705.93202	0.11761
2704.00335	0.11776
2702.07467	0.11790
2700.14600	0.11802
2698.21732	0.11817
2696.28865	0.11834
2694.35997	0.11849
2692.43129	0.11863
2690.50262	0.11879
2688.57394	0.11895
2686.64527	0.11907
2684.71659	0.11917
2682.78792	0.11930
2680.85924	0.11947
2678.93056	0.11966
2677.00189	0.11983
2675.07321	0.11998
2673.14454	0.12010
2671.21586	0.12021
2669.28719	0.12033
2667.35851	0.12047
2665.42983	0.12063
2663.50116	0.12081
2661.57248	0.12098
2659.64381	0.12115
2657.71513	0.12129
2655.78646	0.12140
2653.85778	0.12153
2651.92910	0.12172
2650.00043	0.12188
2648.07175	0.12201
2646.14308	0.12215
2644.21440	0.12230
2642.28573	0.12244
2640.35705	0.12258
2638.42837	0.12277
2636.49970	0.12295
2634.57102	0.12311
2632.64235	0.12324
2630.71367	0.12337
2628.78500	0.12351
2626.85632	0.12367
2624.92764	0.12386
2622.99897	0.12404
2621.07029	0.12419
2619.14162	0.12434
2617.21294	0.12450
2615.28427	0.12466
2613.35559	0.12481
2611.42691	0.12497
2609.49824	0.12515
2607.56956	0.12533
2605.64089	0.12547
2603.71221	0.12558
2601.78354	0.12572
2599.85486	0.12591
2597.92618	0.12609
2595.99751	0.12623
2594.06883	0.12637
2592.14016	0.12655
2590.21148	0.12671
2588.28281	0.12686
2586.35413	0.12704
2584.42545	0.12722
2582.49678	0.12740
2580.56810	0.12757
2578.63943	0.12770
2576.71075	0.12782
2574.78208	0.12797
2572.85340	0.12813
2570.92472	0.12827
2568.99605	0.12842
2567.06737	0.12859
2565.13870	0.12876
2563.21002	0.12891
2561.28135	0.12904
2559.35267	0.12916
2557.42399	0.12929
2555.49532	0.12943
2553.56664	0.12957
2551.63797	0.12974
2549.70929	0.12990
2547.78062	0.13003
2545.85194	0.13016
2543.92326	0.13032
2541.99459	0.13049
2540.06591	0.13065
2538.13724	0.13079
2536.20856	0.13093
2534.27989	0.13107
2532.35121	0.13123
2530.42253	0.13142
2528.49386	0.13160
2526.56518	0.13174
2524.63651	0.13188
2522.70783	0.13203
2520.77916	0.13218
2518.85048	0.13233
2516.92181	0.13248
2514.99313	0.13265
2513.06445	0.13283
2511.13578	0.13302
2509.20710	0.13318
2507.27843	0.13332
2505.34975	0.13350
2503.42108	0.13372
2501.49240	0.13391
2499.56372	0.13407
2497.63505	0.13424
2495.70637	0.13441
2493.77770	0.13455
2491.84902	0.13470
2489.92035	0.13487
2487.99167	0.13506
2486.06299	0.13524
2484.13432	0.13541
2482.20564	0.13557
2480.27697	0.13574
2478.34829	0.13590
2476.41962	0.13606
2474.49094	0.13622
2472.56226	0.13641
2470.63359	0.13660
2468.70491	0.13675
2466.77624	0.13688
2464.84756	0.13704
2462.91889	0.13722
2460.99021	0.13739
2459.06153	0.13754
2457.13286	0.13767
2455.20418	0.13782
2453.27551	0.13800
2451.34683	0.13820
2449.41816	0.13839
2447.48948	0.13856
2445.56080	0.13871
2443.63213	0.13885
2441.70345	0.13901
2439.77478	0.13919
2437.84610	0.13935
2435.91743	0.13950
2433.98875	0.13966
2432.06007	0.13983
2430.13140	0.14000
2428.20272	0.14019
2426.27405	0.14038
2424.34537	0.14051
2422.41670	0.14062
2420.48802	0.14077
2418.55934	0.14094
2416.63067	0.14110
2414.70199	0.14125
2412.77332	0.14140
2410.84464	0.14157
2408.91597	0.14176
2406.98729	0.14195
2405.05861	0.14210
2403.12994	0.14223
2401.20126	0.14238
2399.27259	0.14258
2397.34391	0.14280
2395.41524	0.14300
2393.48656	0.14316
2391.55788	0.14329
2389.62921	0.14343
2387.70053	0.14358
2385.77186	0.14374
2383.84318	0.14390
2381.91451	0.14401
2379.98583	0.14405
2378.05715	0.14405
2376.12848	0.14407
2374.19980	0.14414
2372.27113	0.14418
2370.34245	0.14419
2368.41378	0.14424
2366.48510	0.14432
2364.55642	0.14441
2362.62775	0.14453
2360.69907	0.14471
2358.77040	0.14494
2356.84172	0.14519
2354.91305	0.14540
2352.98437	0.14567
2351.05569	0.14606
2349.12702	0.14636
2347.19834	0.14647
2345.26967	0.14647
2343.34099	0.14650
2341.41232	0.14660
2339.48364	0.14672
2337.55496	0.14685
2335.62629	0.14701
2333.69761	0.14719
2331.76894	0.14739
2329.84026	0.14762
2327.91159	0.14783
2325.98291	0.14801
2324.05423	0.14818
2322.12556	0.14838
2320.19688	0.14861
2318.26821	0.14886
2316.33953	0.14912
2314.41086	0.14939
2312.48218	0.14961
2310.55350	0.14976
2308.62483	0.14989
2306.69615	0.15007
2304.76748	0.15029
2302.83880	0.15050
2300.91013	0.15065
2298.98145	0.15081
2297.05277	0.15097
2295.12410	0.15115
2293.19542	0.15133
2291.26675	0.15151
2289.33807	0.15168
2287.40940	0.15184
2285.48072	0.15203
2283.55204	0.15222
2281.62337	0.15238
2279.69469	0.15253
2277.76602	0.15268
2275.83734	0.15286
2273.90867	0.15303
2271.97999	0.15321
2270.05131	0.15339
2268.12264	0.15354
2266.19396	0.15368
2264.26529	0.15381
2262.33661	0.15395
2260.40794	0.15411
2258.47926	0.15430
2256.55058	0.15446
2254.62191	0.15460
2252.69323	0.15477
2250.76456	0.15495
2248.83588	0.15511
2246.90721	0.15528
2244.97853	0.15545
2243.04985	0.15562
2241.12118	0.15579
2239.19250	0.15595
2237.26383	0.15609
2235.33515	0.15626
2233.40648	0.15645
2231.47780	0.15663
2229.54912	0.15678
2227.62045	0.15692
2225.69177	0.15708
2223.76310	0.15726
2221.83442	0.15742
2219.90575	0.15755
2217.97707	0.15771
2216.04839	0.15791
2214.11972	0.15809
2212.19104	0.15822
2210.26237	0.15831
2208.33369	0.15845
2206.40502	0.15862
2204.47634	0.15878
2202.54766	0.15894
2200.61899	0.15913
2198.69031	0.15931
2196.76164	0.15943
2194.83296	0.15956
2192.90429	0.15974
2190.97561	0.15991
2189.04693	0.16004
2187.11826	0.16017
2185.18958	0.16036
2183.26091	0.16060
2181.33223	0.16080
2179.40356	0.16094
2177.47488	0.16107
2175.54620	0.16122
2173.61753	0.16138
2171.68885	0.16153
2169.76018	0.16171
2167.83150	0.16189
2165.90283	0.16202
2163.97415	0.16215
2162.04547	0.16231
2160.11680	0.16247
2158.18812	0.16264
2156.25945	0.16283
2154.33077	0.16303
2152.40210	0.16322
2150.47342	0.16339
2148.54474	0.16355
2146.61607	0.16372
2144.68739	0.16389
2142.75872	0.16405
2140.83004	0.16418
2138.90137	0.16432
2136.97269	0.16447
2135.04401	0.16463
2133.11534	0.16478
2131.18666	0.16496
2129.25799	0.16513
2127.32931	0.16528
2125.40064	0.16545
2123.47196	0.16564
2121.54328	0.16584
2119.61461	0.16601
2117.68593	0.16616
2115.75726	0.16627
2113.82858	0.16638
2111.89991	0.16654
2109.97123	0.16673
2108.04255	0.16694
2106.11388	0.16712
2104.18520	0.16728
2102.25653	0.16744
2100.32785	0.16760
2098.39918	0.16775
2096.47050	0.16791
2094.54182	0.16809
2092.61315	0.16823
2090.68447	0.16835
2088.75580	0.16850
2086.82712	0.16869
2084.89845	0.16889
2082.96977	0.16906
2081.04109	0.16921
2079.11242	0.16936
2077.18374	0.16953
2075.25507	0.16967
2073.32639	0.16979
2071.39772	0.16995
2069.46904	0.17015
2067.54036	0.17032
2065.61169	0.17048
2063.68301	0.17066
2061.75434	0.17085
2059.82566	0.17103
2057.89699	0.17122
2055.96831	0.17142
2054.03963	0.17156
2052.11096	0.17168
2050.18228	0.17182
2048.25361	0.17198
2046.32493	0.17213
2044.39626	0.17227
2042.46758	0.17240
2040.53890	0.17254
2038.61023	0.17272
2036.68155	0.17290
2034.75288	0.17305
2032.82420	0.17324
2030.89553	0.17346
2028.96685	0.17364
2027.03817	0.17378
2025.10950	0.17394
2023.18082	0.17414
2021.25215	0.17433
2019.32347	0.17445
2017.39480	0.17458
2015.46612	0.17478
2013.53744	0.17499
2011.60877	0.17515
2009.68009	0.17530
2007.75142	0.17546
2005.82274	0.17564
2003.89407	0.17581
2001.96539	0.17596
2000.03671	0.17610
1998.10804	0.17623
1996.17936	0.17638
1994.25069	0.17650
1992.32201	0.17658
1990.39334	0.17671
1988.46466	0.17691
1986.53598	0.17708
1984.60731	0.17722
1982.67863	0.17737
1980.74996	0.17754
1978.82128	0.17770
1976.89261	0.17784
1974.96393	0.17800
1973.03525	0.17818
1971.10658	0.17832
1969.17790	0.17839
1967.24923	0.17849
1965.32055	0.17867
1963.39188	0.17887
1961.46320	0.17901
1959.53452	0.17912
1957.60585	0.17925
1955.67717	0.17944
1953.74850	0.17963
1951.81982	0.17979
1949.89115	0.17991
1947.96247	0.18006
1946.03379	0.18018
1944.10512	0.18024
1942.17644	0.18037
1940.24777	0.18065
1938.31909	0.18091
1936.39042	0.18108
1934.46174	0.18122
1932.53306	0.18136
1930.60439	0.18151
1928.67571	0.18167
1926.74704	0.18181
1924.81836	0.18188
1922.88969	0.18199
1920.96101	0.18216
1919.03233	0.18228
1917.10366	0.18244
1915.17498	0.18272
1913.24631	0.18296
1911.31763	0.18310
1909.38896	0.18323
1907.46028	0.18340
1905.53160	0.18359
1903.60293	0.18380
1901.67425	0.18401
1899.74558	0.18415
1897.81690	0.18423
1895.88823	0.18433
1893.95955	0.18448
1892.03087	0.18460
1890.10220	0.18469
1888.17352	0.18482
1886.24485	0.18499
1884.31617	0.18517
1882.38750	0.18538
1880.45882	0.18559
1878.53014	0.18575
1876.60147	0.18591
1874.67279	0.18606
1872.74412	0.18611
1870.81544	0.18600
1868.88677	0.18603
1866.95809	0.18636
1865.02941	0.18674
1863.10074	0.18699
1861.17206	0.18719
1859.24339	0.18741
1857.31471	0.18762
1855.38604	0.18781
1853.45736	0.18797
1851.52868	0.18807
1849.60001	0.18816
1847.67133	0.18824
1845.74266	0.18825
1843.81398	0.18836
1841.88531	0.18869
1839.95663	0.18906
1838.02795	0.18928
1836.09928	0.18944
1834.17060	0.18959
1832.24193	0.18964
1830.31325	0.18967
1828.38458	0.18981
1826.45590	0.19000
1824.52722	0.19018
1822.59855	0.19044
1820.66987	0.19072
1818.74120	0.19091
1816.81252	0.19101
1814.88385	0.19106
1812.95517	0.19111
1811.02649	0.19122
1809.09782	0.19140
1807.16914	0.19159
1805.24047	0.19172
1803.31179	0.19175
1801.38312	0.19179
1799.45444	0.19196
1797.52576	0.19215
1795.59709	0.19214
1793.66841	0.19198
1791.73974	0.19208
1789.81106	0.19252
1787.88239	0.19283
1785.95371	0.19288
1784.02503	0.19294
1782.09636	0.19311
1780.16768	0.19328
1778.23901	0.19345
1776.31033	0.19353
1774.38166	0.19347
1772.45298	0.19340
1770.52430	0.19349
1768.59563	0.19373
1766.66695	0.19403
1764.73828	0.19423
1762.80960	0.19429
1760.88093	0.19440
1758.95225	0.19457
1757.02357	0.19468
1755.09490	0.19461
1753.16622	0.19414
1751.23755	0.19364
1749.30887	0.19370
1747.38020	0.19405
1745.45152	0.19423
1743.52284	0.19422
1741.59417	0.19412
1739.66549	0.19413
1737.73682	0.19429
1735.80814	0.19426
1733.87947	0.19419
1731.95079	0.19447
1730.02211	0.19494
1728.09344	0.19530
1726.16476	0.19555
1724.23609	0.19568
1722.30741	0.19569
1720.37874	0.19544
1718.45006	0.19507
1716.52138	0.19514
1714.59271	0.19568
1712.66403	0.19623
1710.73536	0.19657
1708.80668	0.19665
1706.87801	0.19655
1704.94933	0.19646
1703.02065	0.19627
1701.09198	0.19601
1699.16330	0.19607
1697.23463	0.19639
1695.30595	0.19674
1693.37728	0.19706
1691.44860	0.19719
1689.51992	0.19718
1687.59125	0.19710
1685.66257	0.19680
1683.73390	0.19664
1681.80522	0.19696
1679.87655	0.19732
1677.94787	0.19716
1676.01919	0.19671
1674.09052	0.19662
1672.16184	0.19682
1670.23317	0.19703
1668.30449	0.19738
1666.37582	0.19774
1664.44714	0.19778
1662.51846	0.19777
1660.58979	0.19798
1658.66111	0.19814
1656.73244	0.19782
1654.80376	0.19702
1652.87509	0.19658
1650.94641	0.19695
1649.01773	0.19734
1647.08906	0.19750
1645.16038	0.19792
1643.23171	0.19837
1641.30303	0.19854
1639.37436	0.19846
1637.44568	0.19826
1635.51700	0.19827
1633.58833	0.19863
1631.65965	0.19892
1629.73098	0.19890
1627.80230	0.19877
1625.87363	0.19858
1623.94495	0.19825
1622.01627	0.19798
1620.08760	0.19792
1618.15892	0.19806
1616.23025	0.19858
1614.30157	0.19941
1612.37290	0.20003
1610.44422	0.20030
1608.51554	0.20046
1606.58687	0.20068
1604.65819	0.20092
1602.72952	0.20109
1600.80084	0.20125
1598.87217	0.20144
1596.94349	0.20160
1595.01481	0.20175
1593.08614	0.20196
1591.15746	0.20219
1589.22879	0.20238
1587.30011	0.20252
1585.37144	0.20264
1583.44276	0.20278
1581.51408	0.20292
1579.58541	0.20287
1577.65673	0.20258
1575.72806	0.20256
1573.79938	0.20302
1571.87071	0.20334
1569.94203	0.20336
1568.01335	0.20346
1566.08468	0.20364
1564.15600	0.20368
1562.22733	0.20331
1560.29865	0.20273
1558.36998	0.20278
1556.44130	0.20358
1554.51262	0.20431
1552.58395	0.20462
1550.65527	0.20474
1548.72660	0.20481
1546.79792	0.20467
1544.86925	0.20431
1542.94057	0.20404
1541.01189	0.20412
1539.08322	0.20458
1537.15454	0.20502
1535.22587	0.20501
1533.29719	0.20500
1531.36852	0.20538
1529.43984	0.20564
1527.51116	0.20552
1525.58249	0.20529
1523.65381	0.20505
1521.72514	0.20497
1519.79646	0.20525
1517.86779	0.20557
1515.93911	0.20573
1514.01043	0.20593
1512.08176	0.20603
1510.15308	0.20562
1508.22441	0.20493
1506.29573	0.20498
1504.36706	0.20588
1502.43838	0.20652
1500.50970	0.20642
1498.58103	0.20610
1496.65235	0.20606
1494.72368	0.20629
1492.79500	0.20635
1490.86633	0.20612
1488.93765	0.20596
1487.00897	0.20606
1485.08030	0.20624
1483.15162	0.20625
1481.22295	0.20604
1479.29427	0.20563
1477.36560	0.20505
1475.43692	0.20449
1473.50824	0.20408
1471.57957	0.20395
1469.65089	0.20405
1467.72222	0.20383
1465.79354	0.20330
1463.86487	0.20308
1461.93619	0.20306
1460.00751	0.20250
1458.07884	0.20164
1456.15016	0.20149
1454.22149	0.20207
1452.29281	0.20254
1450.36414	0.20264
1448.43546	0.20266
1446.50678	0.20278
1444.57811	0.20300
1442.64943	0.20323
1440.72076	0.20336
1438.79208	0.20325
1436.86341	0.20312
1434.93473	0.20332
1433.00605	0.20363
1431.07738	0.20376
1429.14870	0.20389
1427.22003	0.20406
1425.29135	0.20412
1423.36268	0.20401
1421.43400	0.20356
1419.50532	0.20315
1417.57665	0.20347
1415.64797	0.20409
1413.71930	0.20435
1411.79062	0.20441
1409.86195	0.20446
1407.93327	0.20440
1406.00459	0.20428
1404.07592	0.20425
1402.14724	0.20425
1400.21857	0.20413
1398.28989	0.20393
1396.36122	0.20377
1394.43254	0.20374
1392.50386	0.20384
1390.57519	0.20377
1388.64651	0.20342
1386.71784	0.20309
1384.78916	0.20302
1382.86049	0.20314
1380.93181	0.20321
1379.00313	0.20313
1377.07446	0.20297
1375.14578	0.20282
1373.21711	0.20282
1371.28843	0.20295
1369.35976	0.20302
1367.43108	0.20299
1365.50240	0.20290
1363.57373	0.20276
1361.64505	0.20272
1359.71638	0.20286
1357.78770	0.20299
1355.85903	0.20304
1353.93035	0.20311
1352.00167	0.20321
1350.07300	0.20331
1348.14432	0.20341
1346.21565	0.20352
1344.28697	0.20358
1342.35830	0.20348
1340.42962	0.20322
1338.50094	0.20309
1336.57227	0.20318
1334.64359	0.20329
1332.71492	0.20328
1330.78624	0.20317
1328.85757	0.20298
1326.92889	0.20276
1325.00021	0.20254
1323.07154	0.20233
1321.14286	0.20213
1319.21419	0.20195
1317.28551	0.20178
1315.35684	0.20162
1313.42816	0.20141
1311.49948	0.20119
1309.57081	0.20097
1307.64213	0.20078
1305.71346	0.20063
1303.78478	0.20043
1301.85611	0.20019
1299.92743	0.19998
1297.99875	0.19982
1296.07008	0.19965
1294.14140	0.19943
1292.21273	0.19921
1290.28405	0.19905
1288.35538	0.19891
1286.42670	0.19869
1284.49802	0.19845
1282.56935	0.19823
1280.64067	0.19796
1278.71200	0.19763
1276.78332	0.19732
1274.85465	0.19697
1272.92597	0.19649
1270.99729	0.19584
1269.06862	0.19498
1267.13994	0.19403
1265.21127	0.19322
1263.28259	0.19266
1261.35392	0.19237
1259.42524	0.19237
1257.49656	0.19257
1255.56789	0.19277
1253.63921	0.19280
1251.71054	0.19265
1249.78186	0.19238
1247.85319	0.19205
1245.92451	0.19172
1243.99583	0.19141
1242.06716	0.19103
1240.13848	0.19055
1238.20981	0.19002
1236.28113	0.18951
1234.35246	0.18902
1232.42378	0.18849
1230.49510	0.18793
1228.56643	0.18735
1226.63775	0.18673
1224.70908	0.18611
1222.78040	0.18559
1220.85173	0.18513
1218.92305	0.18467
1216.99437	0.18418
1215.06570	0.18363
1213.13702	0.18308
1211.20835	0.18257
1209.27967	0.18207
1207.35100	0.18153
1205.42232	0.18095
1203.49364	0.18034
1201.56497	0.17975
1199.63629	0.17919
1197.70762	0.17862
1195.77894	0.17804
1193.85027	0.17742
1191.92159	0.17674
1189.99291	0.17602
1188.06424	0.17529
1186.13556	0.17455
1184.20689	0.17376
1182.27821	0.17290
1180.34954	0.17206
1178.42086	0.17126
1176.49218	0.17044
1174.56351	0.16958
1172.63483	0.16872
1170.70616	0.16787
1168.77748	0.16704
1166.84881	0.16620
1164.92013	0.16533
1162.99145	0.16447
1161.06278	0.16370
1159.13410	0.16296
1157.20543	0.16217
1155.27675	0.16133
1153.34808	0.16051
1151.41940	0.15970
1149.49072	0.15889
1147.56205	0.15808
1145.63337	0.15728
1143.70470	0.15647
1141.77602	0.15557
1139.84735	0.15453
1137.91867	0.15339
1135.98999	0.15215
1134.06132	0.15077
1132.13264	0.14919
1130.20397	0.14740
1128.27529	0.14536
1126.34662	0.14312
1124.41794	0.14082
1122.48926	0.13849
1120.56059	0.13616
1118.63191	0.13393
1116.70324	0.13187
1114.77456	0.13000
1112.84589	0.12831
1110.91721	0.12691
1108.98853	0.12586
1107.05986	0.12516
1105.13118	0.12475
1103.20251	0.12458
1101.27383	0.12469
1099.34516	0.12505
1097.41648	0.12566
1095.48780	0.12646
1093.55913	0.12734
1091.63045	0.12821
1089.70178	0.12900
1087.77310	0.12967
1085.84443	0.13022
1083.91575	0.13070
1081.98707	0.13113
1080.05840	0.13147
1078.12972	0.13172
1076.20105	0.13189
1074.27237	0.13204
1072.34370	0.13218
1070.41502	0.13229
1068.48634	0.13238
1066.55767	0.13250
1064.62899	0.13266
1062.70032	0.13283
1060.77164	0.13306
1058.84297	0.13334
1056.91429	0.13361
1054.98561	0.13387
1053.05694	0.13412
1051.12826	0.13441
1049.19959	0.13479
1047.27091	0.13520
1045.34224	0.13555
1043.41356	0.13593
1041.48488	0.13639
1039.55621	0.13686
1037.62753	0.13726
1035.69886	0.13763
1033.77018	0.13800
1031.84151	0.13837
1029.91283	0.13869
1027.98415	0.13900
1026.05548	0.13935
1024.12680	0.13976
1022.19813	0.14017
1020.26945	0.14050
1018.34078	0.14079
1016.41210	0.14119
1014.48342	0.14176
1012.55475	0.14238
1010.62607	0.14292
1008.69740	0.14345
1006.76872	0.14405
1004.84005	0.14463
1002.91137	0.14509
1000.98269	0.14544
999.05402	0.14570
997.12534	0.14592
995.19667	0.14609
993.26799	0.14620
991.33932	0.14626
989.41064	0.14626
987.48196	0.14623
985.55329	0.14623
983.62461	0.14626
981.69594	0.14628
979.76726	0.14620
977.83859	0.14595
975.90991	0.14566
973.98123	0.14543
972.05256	0.14529
970.12388	0.14518
968.19521	0.14504
966.26653	0.14488
964.33786	0.14474
962.40918	0.14456
960.48050	0.14443
958.55183	0.14438
956.62315	0.14428
954.69448	0.14404
952.76580	0.14378
950.83713	0.14361
948.90845	0.14349
946.97977	0.14327
945.05110	0.14295
943.12242	0.14266
941.19375	0.14239
939.26507	0.14201
937.33640	0.14151
935.40772	0.14103
933.47904	0.14064
931.55037	0.14015
929.62169	0.13953
927.69302	0.13893
925.76434	0.13843
923.83567	0.13793
921.90699	0.13741
919.97831	0.13686
918.04964	0.13623
916.12096	0.13555
914.19229	0.13484
912.26361	0.13404
910.33494	0.13325
908.40626	0.13254
906.47758	0.13187
904.54891	0.13120
902.62023	0.13055
900.69156	0.12997
898.76288	0.12950
896.83421	0.12905
894.90553	0.12859
892.97685	0.12811
891.04818	0.12756
889.11950	0.12704
887.19083	0.12660
885.26215	0.12621
883.33348	0.12581
881.40480	0.12542
879.47612	0.12512
877.54745	0.12486
875.61877	0.12461
873.69010	0.12442
871.76142	0.12421
869.83275	0.12397
867.90407	0.12373
865.97539	0.12348
864.04672	0.12320
862.11804	0.12300
860.18937	0.12295
858.26069	0.12295
856.33202	0.12283
854.40334	0.12257
852.47466	0.12229
850.54599	0.12208
848.61731	0.12187
846.68864	0.12156
844.75996	0.12125
842.83129	0.12101
840.90261	0.12073
838.97394	0.12034
837.04526	0.11982
835.11658	0.11916
833.18791	0.11841
831.25923	0.11754
829.33056	0.11653
827.40188	0.11547
825.47321	0.11452
823.54453	0.11362
821.61585	0.11271
819.68718	0.11192
817.75850	0.11132
815.82983	0.11090
813.90115	0.11060
811.97248	0.11035
810.04380	0.11012
808.11512	0.10987
806.18645	0.10971
804.25777	0.10969
802.32910	0.10970
800.40042	0.10958
798.47175	0.10913
796.54307	0.10849
794.61439	0.10794
792.68572	0.10752
790.75704	0.10719
788.82837	0.10693
786.89969	0.10663
784.97102	0.10631
783.04234	0.10608
781.11366	0.10589
779.18499	0.10563
777.25631	0.10528
775.32764	0.10488
773.39896	0.10451
771.47029	0.10420
769.54161	0.10390
767.61293	0.10355
765.68426	0.10314
763.75558	0.10263
761.82691	0.10207
759.89823	0.10160
757.96956	0.10113
756.04088	0.10062
754.11220	0.10010
752.18353	0.09952
750.25485	0.09883
748.32618	0.09803
746.39750	0.09718
744.46883	0.09633
742.54015	0.09548
740.61147	0.09470
738.68280	0.09415
736.75412	0.09388
734.82545	0.09379
732.89677	0.09380
730.96810	0.09388
729.03942	0.09398
727.11074	0.09406
725.18207	0.09412
723.25339	0.09421
721.32472	0.09436
719.39604	0.09453
717.46737	0.09475
715.53869	0.09512
713.61001	0.09557
711.68134	0.09597
709.75266	0.09622
707.82399	0.09630
705.89531	0.09618
703.96664	0.09594
702.03796	0.09561
700.10928	0.09524
698.18061	0.09485
696.25193	0.09437
694.32326	0.09373
692.39458	0.09309
690.46591	0.09259
688.53723	0.09216
686.60855	0.09169
684.67988	0.09120
682.75120	0.09076
680.82253	0.09030
678.89385	0.08969
676.96518	0.08894
675.03650	0.08816
673.10782	0.08744
671.17915	0.08674
669.25047	0.08595
667.32180	0.08514
665.39312	0.08446
663.46445	0.08375
661.53577	0.08289
659.60709	0.08203
657.67842	0.08122
655.74974	0.08045
653.82107	0.07967
651.89239	0.07883
649.96372	0.07795
648.03504	0.07710
646.10636	0.07623
644.17769	0.07527
642.24901	0.07425
640.32034	0.07324
638.39166	0.07221
636.46299	0.07109
634.53431	0.06995
632.60563	0.06856
630.67696	0.06629
628.74828	0.06281
626.81961	0.05841
624.89093	0.05385
622.96226	0.05018
621.03358	0.04782
619.10490	0.04650
617.17623	0.04570
615.24755	0.04488
613.31888	0.04389
611.39020	0.04293
609.46153	0.04241
607.53285	0.04249
605.60417	0.04296
603.67550	0.04360
601.74682	0.04431
599.81815	0.04514
597.88947	0.04599
595.96080	0.04666
594.03212	0.04712
592.10344	0.04745
590.17477	0.04769
588.24609	0.04776
586.31742	0.04762
584.38874	0.04729
582.46007	0.04685
580.53139	0.04644
578.60271	0.04605
576.67404	0.04559
574.74536	0.04503
572.81669	0.04445
570.88801	0.04380
568.95934	0.04302
567.03066	0.04234
565.10198	0.04189
563.17331	0.04159
561.24463	0.04134
559.31596	0.04115
557.38728	0.04102
555.45861	0.04090
553.52993	0.04072
551.60125	0.04059
549.67258	0.04050
547.74390	0.04034
545.81523	0.04009
543.88655	0.03992
541.95788	0.03985
540.02920	0.03978
538.10052	0.03962
536.17185	0.03936
534.24317	0.03906
532.31450	0.03879
530.38582	0.03855
528.45715	0.03827
526.52847	0.03793
524.59979	0.03755
522.67112	0.03712
520.74244	0.03668
518.81377	0.03623
516.88509	0.03566
514.95642	0.03501
513.02774	0.03452
511.09906	0.03433
509.17039	0.03426
507.24171	0.03411
505.31304	0.03387
503.38436	0.03363
501.45569	0.03333
499.52701	0.03287
497.59833	0.03228
495.66966	0.03166
493.74098	0.03105
491.81231	0.03052
489.88363	0.03003
487.95496	0.02943
486.02628	0.02872
484.09760	0.02803
482.16893	0.02743
480.24025	0.02689
478.31158	0.02641
476.38290	0.02593
474.45423	0.02538
472.52555	0.02480
470.59687	0.02423
468.66820	0.02375
466.73952	0.02340
464.81085	0.02315
462.88217	0.02294
460.95350	0.02280
459.02482	0.02271
457.09614	0.02262
455.16747	0.02265
453.23879	0.02277
451.31012	0.02278
449.38144	0.02267
447.45277	0.02263
445.52409	0.02252
443.59541	0.02217
441.66674	0.02177
439.73806	0.02147
437.80939	0.02112
435.88071	0.02067
433.95204	0.02013
432.02336	0.01954
430.09468	0.01897
428.16601	0.01835
426.23733	0.01766
424.30866	0.01697
422.37998	0.01626
420.45131	0.01550
418.52263	0.01480
416.59395	0.01427
414.66528	0.01374
412.73660	0.01299
410.80793	0.01220
408.87925	0.01163
406.95058	0.01118
405.02190	0.01060
403.09322	0.00994
401.16455	0.00938
399.23587	0.00890
397.30720	0.00833
395.37852	0.00770
393.44985	0.00718
391.52117	0.00674
389.59249	0.00620
387.66382	0.00561
385.73514	0.00516
383.80647	0.00485
381.87779	0.00453
379.94912	0.00422
378.02044	0.00400
376.09176	0.00367
374.16309	0.00314
372.23441	0.00266
370.30574	0.00239
368.37706	0.00224
