7496.76250	0.00118
7494.83382	0.00119
7492.90514	0.00120
7490.97647	0.00120
7489.04779	0.00120
7487.11912	0.00120
7485.19044	0.00122
7483.26177	0.00122
7481.33309	0.00122
7479.40441	0.00122
7477.47574	0.00122
7475.54706	0.00122
7473.61839	0.00122
7471.68971	0.00124
7469.76104	0.00126
7467.83236	0.00126
7465.90368	0.00125
7463.97501	0.00124
7462.04633	0.00124
7460.11766	0.00127
7458.18898	0.00129
7456.26031	0.00131
7454.33163	0.00131
7452.40295	0.00131
7450.47428	0.00130
7448.54560	0.00130
7446.61693	0.00129
7444.68825	0.00129
7442.75958	0.00130
7440.83090	0.00132
7438.90222	0.00133
7436.97355	0.00132
7435.04487	0.00132
7433.11620	0.00132
7431.18752	0.00132
7429.25885	0.00132
7427.33017	0.00133
7425.40149	0.00132
7423.47282	0.00132
7421.54414	0.00133
7419.61547	0.00134
7417.68679	0.00133
7415.75812	0.00134
7413.82944	0.00134
7411.90076	0.00134
7409.97209	0.00135
7408.04341	0.00136
7406.11474	0.00137
7404.18606	0.00136
7402.25739	0.00135
7400.32871	0.00135
7398.40003	0.00137
7396.47136	0.00138
7394.54268	0.00138
7392.61401	0.00138
7390.68533	0.00138
7388.75666	0.00139
7386.82798	0.00139
7384.89930	0.00139
7382.97063	0.00139
7381.04195	0.00140
7379.11328	0.00141
7377.18460	0.00142
7375.25593	0.00142
7373.32725	0.00142
7371.39857	0.00142
7369.46990	0.00141
7367.54122	0.00141
7365.61255	0.00142
7363.68387	0.00142
7361.75520	0.00142
7359.82652	0.00143
7357.89784	0.00146
7355.96917	0.00147
7354.04049	0.00145
7352.11182	0.00144
7350.18314	0.00146
7348.25447	0.00148
7346.32579	0.00148
7344.39711	0.00149
7342.46844	0.00149
7340.53976	0.00149
7338.61109	0.00149
7336.68241	0.00150
7334.75374	0.00151
7332.82506	0.00150
7330.89638	0.00149
7328.96771	0.00149
7327.03903	0.00151
7325.11036	0.00152
7323.18168	0.00153
7321.25301	0.00154
7319.32433	0.00154
7317.39565	0.00152
7315.46698	0.00151
7313.53830	0.00151
7311.60963	0.00151
7309.68095	0.00153
7307.75228	0.00153
7305.82360	0.00152
7303.89492	0.00153
7301.96625	0.00155
7300.03757	0.00156
7298.10890	0.00157
7296.18022	0.00157
7294.25155	0.00157
7292.32287	0.00157
7290.39419	0.00157
7288.46552	0.00158
7286.53684	0.00159
7284.60817	0.00160
7282.67949	0.00160
7280.75082	0.00160
7278.82214	0.00160
7276.89346	0.00161
7274.96479	0.00162
7273.03611	0.00163
7271.10744	0.00163
7269.17876	0.00162
7267.25009	0.00161
7265.32141	0.00162
7263.39273	0.00162
7261.46406	0.00162
7259.53538	0.00163
7257.60671	0.00165
7255.67803	0.00165
7253.74936	0.00164
7251.82068	0.00165
7249.89200	0.00168
7247.96333	0.00168
7246.03465	0.00168
7244.10598	0.00168
7242.17730	0.00169
7240.24863	0.00169
7238.31995	0.00168
7236.39127	0.00167
7234.46260	0.00166
7232.53392	0.00167
7230.60525	0.00169
7228.67657	0.00170
7226.74790	0.00171
7224.81922	0.00169
7222.89054	0.00169
7220.96187	0.00170
7219.03319	0.00172
7217.10452	0.00172
7215.17584	0.00172
7213.24717	0.00173
7211.31849	0.00174
7209.38981	0.00174
7207.46114	0.00175
7205.53246	0.00175
7203.60379	0.00175
7201.67511	0.00176
7199.74644	0.00177
7197.81776	0.00177
7195.88908	0.00177
7193.96041	0.00176
7192.03173	0.00176
7190.10306	0.00177
7188.17438	0.00177
7186.24571	0.00176
7184.31703	0.00176
7182.38835	0.00178
7180.45968	0.00178
7178.53100	0.00178
7176.60233	0.00178
7174.67365	0.00180
7172.74498	0.00181
7170.81630	0.00181
7168.88762	0.00180
7166.95895	0.00181
7165.03027	0.00183
7163.10160	0.00184
7161.17292	0.00183
7159.24425	0.00181
7157.31557	0.00182
7155.38689	0.00183
7153.45822	0.00184
7151.52954	0.00185
7149.60087	0.00185
7147.67219	0.00186
7145.74352	0.00186
7143.81484	0.00187
7141.88616	0.00188
7139.95749	0.00187
7138.02881	0.00186
7136.10014	0.00187
7134.17146	0.00188
7132.24279	0.00189
7130.31411	0.00191
7128.38543	0.00193
7126.45676	0.00192
7124.52808	0.00191
7122.59941	0.00190
7120.67073	0.00191
7118.74206	0.00191
7116.81338	0.00191
7114.88470	0.00192
7112.95603	0.00193
7111.02735	0.00193
7109.09868	0.00193
7107.17000	0.00193
7105.24133	0.00194
7103.31265	0.00195
7101.38397	0.00196
7099.45530	0.00197
7097.52662	0.00198
7095.59795	0.00199
7093.66927	0.00200
7091.74060	0.00200
7089.81192	0.00200
7087.88324	0.00200
7085.95457	0.00200
7084.02589	0.00200
7082.09722	0.00200
7080.16854	0.00199
7078.23987	0.00199
7076.31119	0.00200
7074.38251	0.00202
7072.45384	0.00204
7070.52516	0.00205
7068.59649	0.00204
7066.66781	0.00205
7064.73914	0.00206
7062.81046	0.00206
7060.88178	0.00205
7058.95311	0.00206
7057.02443	0.00207
7055.09576	0.00207
7053.16708	0.00206
7051.23841	0.00206
7049.30973	0.00207
7047.38105	0.00209
7045.45238	0.00211
7043.52370	0.00211
7041.59503	0.00210
7039.66635	0.00208
7037.73768	0.00207
7035.80900	0.00207
7033.88032	0.00208
7031.95165	0.00208
7030.02297	0.00209
7028.09430	0.00209
7026.16562	0.00210
7024.23695	0.00212
7022.30827	0.00214
7020.37959	0.00215
7018.45092	0.00215
7016.52224	0.00216
7014.59357	0.00216
7012.66489	0.00216
7010.73622	0.00215
7008.80754	0.00215
7006.87886	0.00216
7004.95019	0.00217
7003.02151	0.00217
7001.09284	0.00215
6999.16416	0.00215
6997.23549	0.00218
6995.30681	0.00220
6993.37813	0.00221
6991.44946	0.00223
6989.52078	0.00224
6987.59211	0.00223
6985.66343	0.00223
6983.73476	0.00222
6981.80608	0.00223
6979.87740	0.00224
6977.94873	0.00226
6976.02005	0.00226
6974.09138	0.00227
6972.16270	0.00227
6970.23403	0.00226
6968.30535	0.00226
6966.37667	0.00228
6964.44800	0.00229
6962.51932	0.00229
6960.59065	0.00229
6958.66197	0.00229
6956.73330	0.00229
6954.80462	0.00230
6952.87594	0.00230
6950.94727	0.00230
6949.01859	0.00230
6947.08992	0.00230
6945.16124	0.00230
6943.23257	0.00231
6941.30389	0.00232
6939.37521	0.00233
6937.44654	0.00234
6935.51786	0.00233
6933.58919	0.00233
6931.66051	0.00234
6929.73184	0.00236
6927.80316	0.00237
6925.87448	0.00238
6923.94581	0.00238
6922.01713	0.00238
6920.08846	0.00239
6918.15978	0.00240
6916.23111	0.00240
6914.30243	0.00239
6912.37375	0.00239
6910.44508	0.00239
6908.51640	0.00239
6906.58773	0.00240
6904.65905	0.00241
6902.73038	0.00242
6900.80170	0.00242
6898.87302	0.00243
6896.94435	0.00243
6895.01567	0.00243
6893.08700	0.00244
6891.15832	0.00246
6889.22965	0.00248
6887.30097	0.00248
6885.37229	0.00249
6883.44362	0.00250
6881.51494	0.00252
6879.58627	0.00252
6877.65759	0.00251
6875.72892	0.00250
6873.80024	0.00251
6871.87156	0.00252
6869.94289	0.00252
6868.01421	0.00254
6866.08554	0.00256
6864.15686	0.00258
6862.22819	0.00257
6860.29951	0.00255
6858.37083	0.00255
6856.44216	0.00257
6854.51348	0.00259
6852.58481	0.00259
6850.65613	0.00259
6848.72746	0.00257
6846.79878	0.00257
6844.87010	0.00258
6842.94143	0.00260
6841.01275	0.00262
6839.08408	0.00262
6837.15540	0.00261
6835.22673	0.00260
6833.29805	0.00260
6831.36937	0.00262
6829.44070	0.00264
6827.51202	0.00265
6825.58335	0.00265
6823.65467	0.00266
6821.72600	0.00267
6819.79732	0.00268
6817.86864	0.00269
6815.93997	0.00268
6814.01129	0.00268
6812.08262	0.00268
6810.15394	0.00268
6808.22527	0.00269
6806.29659	0.00270
6804.36791	0.00270
6802.43924	0.00270
6800.51056	0.00271
6798.58189	0.00273
6796.65321	0.00274
6794.72454	0.00274
6792.79586	0.00275
6790.86718	0.00276
6788.93851	0.00276
6787.00983	0.00276
6785.08116	0.00276
6783.15248	0.00276
6781.22381	0.00277
6779.29513	0.00279
6777.36645	0.00280
6775.43778	0.00282
6773.50910	0.00283
6771.58043	0.00282
6769.65175	0.00281
6767.72308	0.00282
6765.79440	0.00285
6763.86572	0.00285
6761.93705	0.00285
6760.00837	0.00285
6758.07970	0.00287
6756.15102	0.00288
6754.22235	0.00288
6752.29367	0.00287
6750.36499	0.00287
6748.43632	0.00288
6746.50764	0.00290
6744.57897	0.00292
6742.65029	0.00292
6740.72162	0.00293
6738.79294	0.00293
6736.86426	0.00293
6734.93559	0.00292
6733.00691	0.00291
6731.07824	0.00291
6729.14956	0.00292
6727.22089	0.00293
6725.29221	0.00295
6723.36353	0.00297
6721.43486	0.00298
6719.50618	0.00298
6717.57751	0.00298
6715.64883	0.00298
6713.72016	0.00299
6711.79148	0.00300
6709.86280	0.00300
6707.93413	0.00301
6706.00545	0.00302
6704.07678	0.00302
6702.14810	0.00303
6700.21943	0.00304
6698.29075	0.00306
6696.36207	0.00307
6694.43340	0.00307
6692.50472	0.00307
6690.57605	0.00308
6688.64737	0.00308
6686.71870	0.00309
6684.79002	0.00309
6682.86134	0.00308
6680.93267	0.00307
6679.00399	0.00307
6677.07532	0.00309
6675.14664	0.00311
6673.21797	0.00312
6671.28929	0.00312
6669.36061	0.00312
6667.43194	0.00311
6665.50326	0.00311
6663.57459	0.00312
6661.64591	0.00314
6659.71724	0.00316
6657.78856	0.00316
6655.85988	0.00317
6653.93121	0.00318
6652.00253	0.00319
6650.07386	0.00319
6648.14518	0.00318
6646.21651	0.00319
6644.28783	0.00320
6642.35915	0.00320
6640.43048	0.00319
6638.50180	0.00320
6636.57313	0.00321
6634.64445	0.00322
6632.71578	0.00323
6630.78710	0.00325
6628.85842	0.00328
6626.92975	0.00330
6625.00107	0.00331
6623.07240	0.00331
6621.14372	0.00331
6619.21505	0.00332
6617.28637	0.00331
6615.35769	0.00331
6613.42902	0.00331
6611.50034	0.00332
6609.57167	0.00333
6607.64299	0.00335
6605.71432	0.00338
6603.78564	0.00338
6601.85696	0.00337
6599.92829	0.00337
6597.99961	0.00338
6596.07094	0.00340
6594.14226	0.00340
6592.21359	0.00340
6590.28491	0.00340
6588.35623	0.00341
6586.42756	0.00342
6584.49888	0.00342
6582.57021	0.00342
6580.64153	0.00342
6578.71286	0.00344
6576.78418	0.00345
6574.85550	0.00347
6572.92683	0.00347
6570.99815	0.00348
6569.06948	0.00347
6567.14080	0.00346
6565.21213	0.00347
6563.28345	0.00348
6561.35477	0.00349
6559.42610	0.00350
6557.49742	0.00352
6555.56875	0.00353
6553.64007	0.00354
6551.71140	0.00356
6549.78272	0.00358
6547.85404	0.00358
6545.92537	0.00357
6543.99669	0.00358
6542.06802	0.00360
6540.13934	0.00363
6538.21067	0.00364
6536.28199	0.00365
6534.35331	0.00364
6532.42464	0.00365
6530.49596	0.00365
6528.56729	0.00366
6526.63861	0.00367
6524.70994	0.00367
6522.78126	0.00366
6520.85258	0.00365
6518.92391	0.00366
6516.99523	0.00368
6515.06656	0.00369
6513.13788	0.00369
6511.20921	0.00371
6509.28053	0.00372
6507.35185	0.00372
6505.42318	0.00371
6503.49450	0.00372
6501.56583	0.00373
6499.63715	0.00375
6497.70848	0.00376
6495.77980	0.00377
6493.85112	0.00379
6491.92245	0.00380
6489.99377	0.00379
6488.06510	0.00379
6486.13642	0.00380
6484.20775	0.00381
6482.27907	0.00382
6480.35039	0.00384
6478.42172	0.00387
6476.49304	0.00388
6474.56437	0.00387
6472.63569	0.00387
6470.70702	0.00389
6468.77834	0.00391
6466.84966	0.00391
6464.92099	0.00390
6462.99231	0.00389
6461.06364	0.00389
6459.13496	0.00391
6457.20629	0.00393
6455.27761	0.00393
6453.34893	0.00393
6451.42026	0.00395
6449.49158	0.00397
6447.56291	0.00398
6445.63423	0.00399
6443.70556	0.00399
6441.77688	0.00400
6439.84820	0.00402
6437.91953	0.00402
6435.99085	0.00403
6434.06218	0.00404
6432.13350	0.00404
6430.20483	0.00405
6428.27615	0.00405
6426.34747	0.00405
6424.41880	0.00405
6422.49012	0.00406
6420.56145	0.00407
6418.63277	0.00407
6416.70410	0.00408
6414.77542	0.00411
6412.84674	0.00412
6410.91807	0.00413
6408.98939	0.00414
6407.06072	0.00414
6405.13204	0.00415
6403.20337	0.00417
6401.27469	0.00419
6399.34601	0.00419
6397.41734	0.00420
6395.48866	0.00420
6393.55999	0.00421
6391.63131	0.00422
6389.70264	0.00423
6387.77396	0.00424
6385.84528	0.00425
6383.91661	0.00426
6381.98793	0.00426
6380.05926	0.00427
6378.13058	0.00428
6376.20191	0.00429
6374.27323	0.00429
6372.34455	0.00430
6370.41588	0.00432
6368.48720	0.00434
6366.55853	0.00436
6364.62985	0.00436
6362.70118	0.00436
6360.77250	0.00436
6358.84382	0.00437
6356.91515	0.00438
6354.98647	0.00440
6353.05780	0.00441
6351.12912	0.00443
6349.20045	0.00443
6347.27177	0.00443
6345.34309	0.00443
6343.41442	0.00444
6341.48574	0.00446
6339.55707	0.00447
6337.62839	0.00447
6335.69972	0.00446
6333.77104	0.00446
6331.84236	0.00447
6329.91369	0.00449
6327.98501	0.00452
6326.05634	0.00454
6324.12766	0.00454
6322.19899	0.00454
6320.27031	0.00454
6318.34163	0.00454
6316.41296	0.00456
6314.48428	0.00457
6312.55561	0.00456
6310.62693	0.00456
6308.69826	0.00458
6306.76958	0.00460
6304.84090	0.00460
6302.91223	0.00460
6300.98355	0.00460
6299.05488	0.00463
6297.12620	0.00467
6295.19753	0.00469
6293.26885	0.00472
6291.34017	0.00473
6289.41150	0.00472
6287.48282	0.00471
6285.55415	0.00470
6283.62547	0.00471
6281.69680	0.00473
6279.76812	0.00475
6277.83944	0.00477
6275.91077	0.00477
6273.98209	0.00477
6272.05342	0.00478
6270.12474	0.00480
6268.19607	0.00483
6266.26739	0.00484
6264.33871	0.00484
6262.41004	0.00484
6260.48136	0.00485
6258.55269	0.00485
6256.62401	0.00486
6254.69534	0.00487
6252.76666	0.00488
6250.83798	0.00488
6248.90931	0.00490
6246.98063	0.00493
6245.05196	0.00494
6243.12328	0.00493
6241.19461	0.00494
6239.26593	0.00496
6237.33725	0.00498
6235.40858	0.00499
6233.47990	0.00499
6231.55123	0.00499
6229.62255	0.00499
6227.69388	0.00501
6225.76520	0.00504
6223.83652	0.00506
6221.90785	0.00508
6219.97917	0.00508
6218.05050	0.00507
6216.12182	0.00507
6214.19315	0.00508
6212.26447	0.00510
6210.33579	0.00511
6208.40712	0.00512
6206.47844	0.00513
6204.54977	0.00515
6202.62109	0.00516
6200.69242	0.00517
6198.76374	0.00517
6196.83506	0.00517
6194.90639	0.00518
6192.97771	0.00520
6191.04904	0.00523
6189.12036	0.00526
6187.19169	0.00526
6185.26301	0.00526
6183.33433	0.00526
6181.40566	0.00528
6179.47698	0.00528
6177.54831	0.00528
6175.61963	0.00529
6173.69096	0.00532
6171.76228	0.00534
6169.83360	0.00535
6167.90493	0.00537
6165.97625	0.00538
6164.04758	0.00539
6162.11890	0.00540
6160.19023	0.00542
6158.26155	0.00544
6156.33287	0.00546
6154.40420	0.00547
6152.47552	0.00549
6150.54685	0.00550
6148.61817	0.00550
6146.68950	0.00549
6144.76082	0.00549
6142.83214	0.00551
6140.90347	0.00554
6138.97479	0.00556
6137.04612	0.00557
6135.11744	0.00558
6133.18877	0.00559
6131.26009	0.00558
6129.33141	0.00558
6127.40274	0.00559
6125.47406	0.00560
6123.54539	0.00562
6121.61671	0.00564
6119.68804	0.00563
6117.75936	0.00563
6115.83068	0.00564
6113.90201	0.00567
6111.97333	0.00570
6110.04466	0.00571
6108.11598	0.00571
6106.18731	0.00573
6104.25863	0.00575
6102.32995	0.00575
6100.40128	0.00577
6098.47260	0.00579
6096.54393	0.00581
6094.61525	0.00580
6092.68658	0.00581
6090.75790	0.00583
6088.82922	0.00585
6086.90055	0.00587
6084.97187	0.00587
6083.04320	0.00588
6081.11452	0.00588
6079.18585	0.00589
6077.25717	0.00589
6075.32849	0.00588
6073.39982	0.00589
6071.47114	0.00592
6069.54247	0.00595
6067.61379	0.00598
6065.68512	0.00600
6063.75644	0.00602
6061.82776	0.00602
6059.89909	0.00602
6057.97041	0.00603
6056.04174	0.00604
6054.11306	0.00604
6052.18439	0.00605
6050.25571	0.00605
6048.32703	0.00607
6046.39836	0.00611
6044.46968	0.00615
6042.54101	0.00617
6040.61233	0.00617
6038.68366	0.00616
6036.75498	0.00617
6034.82630	0.00618
6032.89763	0.00619
6030.96895	0.00621
6029.04028	0.00622
6027.11160	0.00624
6025.18293	0.00624
6023.25425	0.00625
6021.32557	0.00625
6019.39690	0.00627
6017.46822	0.00628
6015.53955	0.00628
6013.61087	0.00630
6011.68220	0.00632
6009.75352	0.00633
6007.82484	0.00633
6005.89617	0.00635
6003.96749	0.00639
6002.03882	0.00643
6000.11014	0.00645
5998.18147	0.00645
5996.25279	0.00646
5994.32411	0.00647
5992.39544	0.00648
5990.46676	0.00650
5988.53809	0.00652
5986.60941	0.00654
5984.68074	0.00654
5982.75206	0.00654
5980.82338	0.00654
5978.89471	0.00654
5976.96603	0.00653
5975.03736	0.00655
5973.10868	0.00659
5971.18001	0.00663
5969.25133	0.00664
5967.32265	0.00665
5965.39398	0.00665
5963.46530	0.00665
5961.53663	0.00665
5959.60795	0.00668
5957.67928	0.00671
5955.75060	0.00673
5953.82192	0.00674
5951.89325	0.00676
5949.96457	0.00676
5948.03590	0.00677
5946.10722	0.00678
5944.17855	0.00681
5942.24987	0.00683
5940.32119	0.00684
5938.39252	0.00684
5936.46384	0.00685
5934.53517	0.00687
5932.60649	0.00689
5930.67782	0.00691
5928.74914	0.00693
5926.82046	0.00694
5924.89179	0.00693
5922.96311	0.00693
5921.03444	0.00694
5919.10576	0.00696
5917.17709	0.00698
5915.24841	0.00699
5913.31973	0.00700
5911.39106	0.00703
5909.46238	0.00706
5907.53371	0.00707
5905.60503	0.00708
5903.67636	0.00710
5901.74768	0.00712
5899.81900	0.00713
5897.89033	0.00713
5895.96165	0.00714
5894.03298	0.00718
5892.10430	0.00721
5890.17563	0.00722
5888.24695	0.00723
5886.31827	0.00724
5884.38960	0.00726
5882.46092	0.00727
5880.53225	0.00729
5878.60357	0.00731
5876.67490	0.00733
5874.74622	0.00734
5872.81755	0.00735
5870.88887	0.00736
5868.96019	0.00737
5867.03152	0.00738
5865.10284	0.00739
5863.17417	0.00741
5861.24549	0.00744
5859.31682	0.00746
5857.38814	0.00748
5855.45946	0.00750
5853.53079	0.00751
5851.60211	0.00751
5849.67344	0.00752
5847.74476	0.00755
5845.81609	0.00756
5843.88741	0.00756
5841.95873	0.00757
5840.03006	0.00760
5838.10138	0.00762
5836.17271	0.00762
5834.24403	0.00762
5832.31536	0.00762
5830.38668	0.00764
5828.45800	0.00767
5826.52933	0.00768
5824.60065	0.00769
5822.67198	0.00769
5820.74330	0.00769
5818.81463	0.00772
5816.88595	0.00776
5814.95727	0.00779
5813.02860	0.00779
5811.09992	0.00780
5809.17125	0.00782
5807.24257	0.00785
5805.31390	0.00786
5803.38522	0.00786
5801.45654	0.00788
5799.52787	0.00791
5797.59919	0.00794
5795.67052	0.00797
5793.74184	0.00799
5791.81317	0.00801
5789.88449	0.00802
5787.95581	0.00804
5786.02714	0.00805
5784.09846	0.00804
5782.16979	0.00805
5780.24111	0.00808
5778.31244	0.00809
5776.38376	0.00810
5774.45508	0.00812
5772.52641	0.00813
5770.59773	0.00815
5768.66906	0.00818
5766.74038	0.00820
5764.81171	0.00822
5762.88303	0.00822
5760.95435	0.00824
5759.02568	0.00826
5757.09700	0.00827
5755.16833	0.00828
5753.23965	0.00830
5751.31098	0.00832
5749.38230	0.00836
5747.45362	0.00839
5745.52495	0.00842
5743.59627	0.00842
5741.66760	0.00844
5739.73892	0.00845
5737.81025	0.00845
5735.88157	0.00846
5733.95289	0.00847
5732.02422	0.00850
5730.09554	0.00852
5728.16687	0.00853
5726.23819	0.00854
5724.30952	0.00856
5722.38084	0.00858
5720.45216	0.00860
5718.52349	0.00860
5716.59481	0.00862
5714.66614	0.00865
5712.73746	0.00869
5710.80879	0.00870
5708.88011	0.00870
5706.95143	0.00873
5705.02276	0.00877
5703.09408	0.00880
5701.16541	0.00880
5699.23673	0.00880
5697.30806	0.00880
5695.37938	0.00882
5693.45070	0.00885
5691.52203	0.00886
5689.59335	0.00886
5687.66468	0.00887
5685.73600	0.00890
5683.80733	0.00893
5681.87865	0.00893
5679.94997	0.00894
5678.02130	0.00897
5676.09262	0.00900
5674.16395	0.00901
5672.23527	0.00902
5670.30660	0.00903
5668.37792	0.00905
5666.44924	0.00907
5664.52057	0.00911
5662.59189	0.00913
5660.66322	0.00915
5658.73454	0.00916
5656.80587	0.00917
5654.87719	0.00918
5652.94851	0.00921
5651.01984	0.00924
5649.09116	0.00925
5647.16249	0.00927
5645.23381	0.00928
5643.30514	0.00929
5641.37646	0.00930
5639.44778	0.00932
5637.51911	0.00934
5635.59043	0.00938
5633.66176	0.00941
5631.73308	0.00942
5629.80441	0.00943
5627.87573	0.00943
5625.94705	0.00944
5624.01838	0.00947
5622.08970	0.00951
5620.16103	0.00955
5618.23235	0.00958
5616.30368	0.00960
5614.37500	0.00960
5612.44632	0.00960
5610.51765	0.00960
5608.58897	0.00963
5606.66030	0.00966
5604.73162	0.00968
5602.80295	0.00968
5600.87427	0.00969
5598.94559	0.00971
5597.01692	0.00972
5595.08824	0.00974
5593.15957	0.00976
5591.23089	0.00979
5589.30222	0.00983
5587.37354	0.00985
5585.44486	0.00985
5583.51619	0.00986
5581.58751	0.00988
5579.65884	0.00991
5577.73016	0.00994
5575.80149	0.00997
5573.87281	0.01000
5571.94413	0.01001
5570.01546	0.01002
5568.08678	0.01003
5566.15811	0.01004
5564.22943	0.01005
5562.30076	0.01007
5560.37208	0.01009
5558.44340	0.01011
5556.51473	0.01014
5554.58605	0.01017
5552.65738	0.01021
5550.72870	0.01025
5548.80003	0.01026
5546.87135	0.01025
5544.94267	0.01027
5543.01400	0.01030
5541.08532	0.01032
5539.15665	0.01033
5537.22797	0.01035
5535.29930	0.01038
5533.37062	0.01041
5531.44194	0.01042
5529.51327	0.01043
5527.58459	0.01046
5525.65592	0.01049
5523.72724	0.01050
5521.79857	0.01051
5519.86989	0.01053
5517.94121	0.01055
5516.01254	0.01055
5514.08386	0.01055
5512.15519	0.01057
5510.22651	0.01060
5508.29784	0.01063
5506.36916	0.01064
5504.44048	0.01066
5502.51181	0.01069
5500.58313	0.01072
5498.65446	0.01073
5496.72578	0.01074
5494.79711	0.01073
5492.86843	0.01075
5490.93975	0.01080
5489.01108	0.01086
5487.08240	0.01088
5485.15373	0.01089
5483.22505	0.01089
5481.29638	0.01092
5479.36770	0.01095
5477.43902	0.01096
5475.51035	0.01096
5473.58167	0.01098
5471.65300	0.01101
5469.72432	0.01105
5467.79565	0.01108
5465.86697	0.01110
5463.93829	0.01111
5462.00962	0.01112
5460.08094	0.01113
5458.15227	0.01115
5456.22359	0.01118
5454.29492	0.01121
5452.36624	0.01124
5450.43756	0.01126
5448.50889	0.01128
5446.58021	0.01130
5444.65154	0.01131
5442.72286	0.01133
5440.79419	0.01136
5438.86551	0.01140
5436.93683	0.01141
5435.00816	0.01142
5433.07948	0.01142
5431.15081	0.01143
5429.22213	0.01146
5427.29346	0.01148
5425.36478	0.01148
5423.43610	0.01150
5421.50743	0.01153
5419.57875	0.01157
5417.65008	0.01161
5415.72140	0.01162
5413.79273	0.01162
5411.86405	0.01164
5409.93537	0.01167
5408.00670	0.01170
5406.07802	0.01173
5404.14935	0.01176
5402.22067	0.01177
5400.29200	0.01179
5398.36332	0.01182
5396.43464	0.01184
5394.50597	0.01185
5392.57729	0.01188
5390.64862	0.01190
5388.71994	0.01192
5386.79127	0.01195
5384.86259	0.01199
5382.93391	0.01204
5381.00524	0.01206
5379.07656	0.01207
5377.14789	0.01208
5375.21921	0.01211
5373.29054	0.01213
5371.36186	0.01215
5369.43318	0.01217
5367.50451	0.01218
5365.57583	0.01220
5363.64716	0.01222
5361.71848	0.01225
5359.78981	0.01227
5357.86113	0.01229
5355.93245	0.01231
5354.00378	0.01232
5352.07510	0.01233
5350.14643	0.01234
5348.21775	0.01236
5346.28908	0.01239
5344.36040	0.01243
5342.43172	0.01246
5340.50305	0.01249
5338.57437	0.01251
5336.64570	0.01254
5334.71702	0.01255
5332.78835	0.01255
5330.85967	0.01257
5328.93099	0.01260
5327.00232	0.01264
5325.07364	0.01268
5323.14497	0.01270
5321.21629	0.01273
5319.28762	0.01275
5317.35894	0.01276
5315.43026	0.01278
5313.50159	0.01279
5311.57291	0.01281
5309.64424	0.01283
5307.71556	0.01285
5305.78689	0.01287
5303.85821	0.01289
5301.92953	0.01291
5300.00086	0.01293
5298.07218	0.01295
5296.14351	0.01297
5294.21483	0.01298
5292.28616	0.01301
5290.35748	0.01304
5288.42880	0.01309
5286.50013	0.01312
5284.57145	0.01314
5282.64278	0.01315
5280.71410	0.01317
5278.78543	0.01320
5276.85675	0.01324
5274.92807	0.01326
5272.99940	0.01327
5271.07072	0.01329
5269.14205	0.01331
5267.21337	0.01334
5265.28470	0.01336
5263.35602	0.01338
5261.42734	0.01341
5259.49867	0.01345
5257.56999	0.01346
5255.64132	0.01347
5253.71264	0.01349
5251.78397	0.01350
5249.85529	0.01351
5247.92661	0.01354
5245.99794	0.01360
5244.06926	0.01364
5242.14059	0.01366
5240.21191	0.01368
5238.28324	0.01370
5236.35456	0.01372
5234.42588	0.01373
5232.49721	0.01375
5230.56853	0.01379
5228.63986	0.01384
5226.71118	0.01387
5224.78251	0.01388
5222.85383	0.01390
5220.92515	0.01391
5218.99648	0.01392
5217.06780	0.01395
5215.13913	0.01397
5213.21045	0.01397
5211.28178	0.01398
5209.35310	0.01401
5207.42442	0.01405
5205.49575	0.01409
5203.56707	0.01412
5201.63840	0.01415
5199.70972	0.01418
5197.78105	0.01420
5195.85237	0.01422
5193.92369	0.01425
5191.99502	0.01430
5190.06634	0.01434
5188.13767	0.01435
5186.20899	0.01436
5184.28032	0.01438
5182.35164	0.01440
5180.42296	0.01442
5178.49429	0.01444
5176.56561	0.01446
5174.63694	0.01449
5172.70826	0.01451
5170.77959	0.01454
5168.85091	0.01456
5166.92223	0.01457
5164.99356	0.01457
5163.06488	0.01459
5161.13621	0.01463
5159.20753	0.01467
5157.27886	0.01470
5155.35018	0.01473
5153.42150	0.01477
5151.49283	0.01481
5149.56415	0.01483
5147.63548	0.01486
5145.70680	0.01488
5143.77813	0.01490
5141.84945	0.01493
5139.92077	0.01494
5137.99210	0.01494
5136.06342	0.01494
5134.13475	0.01496
5132.20607	0.01501
5130.27740	0.01506
5128.34872	0.01508
5126.42004	0.01510
5124.49137	0.01514
5122.56269	0.01517
5120.63402	0.01519
5118.70534	0.01521
5116.77667	0.01523
5114.84799	0.01525
5112.91931	0.01528
5110.99064	0.01530
5109.06196	0.01533
5107.13329	0.01536
5105.20461	0.01541
5103.27594	0.01545
5101.34726	0.01548
5099.41858	0.01550
5097.48991	0.01551
5095.56123	0.01553
5093.63256	0.01555
5091.70388	0.01557
5089.77521	0.01558
5087.84653	0.01560
5085.91785	0.01563
5083.98918	0.01568
5082.06050	0.01572
5080.13183	0.01575
5078.20315	0.01578
5076.27448	0.01578
5074.34580	0.01579
5072.41712	0.01582
5070.48845	0.01586
5068.55977	0.01589
5066.63110	0.01591
5064.70242	0.01593
5062.77375	0.01595
5060.84507	0.01597
5058.91639	0.01599
5056.98772	0.01602
5055.05904	0.01605
5053.13037	0.01608
5051.20169	0.01611
5049.27302	0.01614
5047.34434	0.01620
5045.41566	0.01624
5043.48699	0.01624
5041.55831	0.01625
5039.62964	0.01628
5037.70096	0.01630
5035.77229	0.01633
5033.84361	0.01636
5031.91493	0.01640
5029.98626	0.01643
5028.05758	0.01645
5026.12891	0.01647
5024.20023	0.01648
5022.27156	0.01651
5020.34288	0.01655
5018.41420	0.01659
5016.48553	0.01660
5014.55685	0.01660
5012.62818	0.01662
5010.69950	0.01666
5008.77083	0.01667
5006.84215	0.01669
5004.91347	0.01675
5002.98480	0.01679
5001.05612	0.01680
4999.12745	0.01682
4997.19877	0.01685
4995.27010	0.01689
4993.34142	0.01691
4991.41274	0.01693
4989.48407	0.01696
4987.55539	0.01699
4985.62672	0.01702
4983.69804	0.01706
4981.76937	0.01711
4979.84069	0.01713
4977.91201	0.01713
4975.98334	0.01712
4974.05466	0.01713
4972.12599	0.01717
4970.19731	0.01722
4968.26864	0.01728
4966.33996	0.01732
4964.41128	0.01733
4962.48261	0.01732
4960.55393	0.01733
4958.62526	0.01737
4956.69658	0.01742
4954.76791	0.01745
4952.83923	0.01748
4950.91055	0.01752
4948.98188	0.01756
4947.05320	0.01759
4945.12453	0.01761
4943.19585	0.01764
4941.26718	0.01765
4939.33850	0.01765
4937.40982	0.01767
4935.48115	0.01773
4933.55247	0.01777
4931.62380	0.01778
4929.69512	0.01780
4927.76645	0.01783
4925.83777	0.01785
4923.90909	0.01786
4921.98042	0.01791
4920.05174	0.01797
4918.12307	0.01802
4916.19439	0.01804
4914.26572	0.01805
4912.33704	0.01807
4910.40836	0.01809
4908.47969	0.01810
4906.55101	0.01812
4904.62234	0.01817
4902.69366	0.01823
4900.76499	0.01827
4898.83631	0.01830
4896.90763	0.01833
4894.97896	0.01837
4893.05028	0.01841
4891.12161	0.01843
4889.19293	0.01844
4887.26426	0.01845
4885.33558	0.01847
4883.40690	0.01851
4881.47823	0.01855
4879.54955	0.01858
4877.62088	0.01860
4875.69220	0.01863
4873.76353	0.01867
4871.83485	0.01871
4869.90617	0.01873
4867.97750	0.01874
4866.04882	0.01876
4864.12015	0.01880
4862.19147	0.01884
4860.26280	0.01887
4858.33412	0.01891
4856.40544	0.01894
4854.47677	0.01897
4852.54809	0.01899
4850.61942	0.01901
4848.69074	0.01904
4846.76207	0.01909
4844.83339	0.01915
4842.90471	0.01917
4840.97604	0.01917
4839.04736	0.01919
4837.11869	0.01923
4835.19001	0.01925
4833.26134	0.01926
4831.33266	0.01929
4829.40398	0.01934
4827.47531	0.01940
4825.54663	0.01944
4823.61796	0.01946
4821.68928	0.01948
4819.76061	0.01950
4817.83193	0.01953
4815.90325	0.01956
4813.97458	0.01958
4812.04590	0.01960
4810.11723	0.01963
4808.18855	0.01967
4806.25988	0.01972
4804.33120	0.01977
4802.40252	0.01981
4800.47385	0.01983
4798.54517	0.01985
4796.61650	0.01990
4794.68782	0.01993
4792.75915	0.01994
4790.83047	0.01996
4788.90179	0.02000
4786.97312	0.02005
4785.04444	0.02010
4783.11577	0.02013
4781.18709	0.02012
4779.25842	0.02012
4777.32974	0.02015
4775.40106	0.02018
4773.47239	0.02021
4771.54371	0.02024
4769.61504	0.02028
4767.68636	0.02032
4765.75769	0.02036
4763.82901	0.02040
4761.90033	0.02044
4759.97166	0.02049
4758.04298	0.02053
4756.11431	0.02056
4754.18563	0.02059
4752.25696	0.02060
4750.32828	0.02062
4748.39960	0.02064
4746.47093	0.02070
4744.54225	0.02076
4742.61358	0.02080
4740.68490	0.02083
4738.75623	0.02086
4736.82755	0.02089
4734.89887	0.02091
4732.97020	0.02093
4731.04152	0.02097
4729.11285	0.02101
4727.18417	0.02104
4725.25550	0.02106
4723.32682	0.02111
4721.39814	0.02115
4719.46947	0.02118
4717.54079	0.02120
4715.61212	0.02123
4713.68344	0.02127
4711.75477	0.02132
4709.82609	0.02136
4707.89741	0.02139
4705.96874	0.02142
4704.04006	0.02145
4702.11139	0.02146
4700.18271	0.02147
4698.25404	0.02151
4696.32536	0.02157
4694.39668	0.02162
4692.46801	0.02167
4690.53933	0.02171
4688.61066	0.02171
4686.68198	0.02172
4684.75331	0.02175
4682.82463	0.02181
4680.89595	0.02186
4678.96728	0.02189
4677.03860	0.02192
4675.10993	0.02196
4673.18125	0.02200
4671.25258	0.02203
4669.32390	0.02206
4667.39522	0.02208
4665.46655	0.02209
4663.53787	0.02212
4661.60920	0.02216
4659.68052	0.02221
4657.75185	0.02226
4655.82317	0.02229
4653.89449	0.02231
4651.96582	0.02234
4650.03714	0.02237
4648.10847	0.02241
4646.17979	0.02246
4644.25112	0.02251
4642.32244	0.02255
4640.39376	0.02259
4638.46509	0.02264
4636.53641	0.02268
4634.60774	0.02272
4632.67906	0.02276
4630.75039	0.02281
4628.82171	0.02285
4626.89303	0.02288
4624.96436	0.02291
4623.03568	0.02294
4621.10701	0.02298
4619.17833	0.02301
4617.24966	0.02304
4615.32098	0.02307
4613.39230	0.02311
4611.46363	0.02315
4609.53495	0.02316
4607.60628	0.02318
4605.67760	0.02322
4603.74893	0.02328
4601.82025	0.02334
4599.89157	0.02340
4597.96290	0.02346
4596.03422	0.02350
4594.10555	0.02353
4592.17687	0.02356
4590.24820	0.02360
4588.31952	0.02363
4586.39084	0.02365
4584.46217	0.02366
4582.53349	0.02368
4580.60482	0.02372
4578.67614	0.02379
4576.74747	0.02384
4574.81879	0.02386
4572.89011	0.02387
4570.96144	0.02391
4569.03276	0.02395
4567.10409	0.02398
4565.17541	0.02402
4563.24674	0.02407
4561.31806	0.02412
4559.38938	0.02415
4557.46071	0.02419
4555.53203	0.02424
4553.60336	0.02428
4551.67468	0.02431
4549.74601	0.02436
4547.81733	0.02442
4545.88865	0.02447
4543.95998	0.02449
4542.03130	0.02452
4540.10263	0.02458
4538.17395	0.02463
4536.24528	0.02467
4534.31660	0.02470
4532.38792	0.02474
4530.45925	0.02479
4528.53057	0.02485
4526.60190	0.02491
4524.67322	0.02495
4522.74455	0.02498
4520.81587	0.02501
4518.88719	0.02506
4516.95852	0.02511
4515.02984	0.02516
4513.10117	0.02519
4511.17249	0.02521
4509.24382	0.02523
4507.31514	0.02528
4505.38646	0.02532
4503.45779	0.02536
4501.52911	0.02540
4499.60044	0.02545
4497.67176	0.02550
4495.74309	0.02554
4493.81441	0.02560
4491.88573	0.02565
4489.95706	0.02568
4488.02838	0.02572
4486.09971	0.02579
4484.17103	0.02583
4482.24236	0.02585
4480.31368	0.02589
4478.38500	0.02595
4476.45633	0.02599
4474.52765	0.02602
4472.59898	0.02605
4470.67030	0.02608
4468.74163	0.02611
4466.81295	0.02617
4464.88427	0.02625
4462.95560	0.02630
4461.02692	0.02632
4459.09825	0.02634
4457.16957	0.02638
4455.24090	0.02643
4453.31222	0.02648
4451.38354	0.02653
4449.45487	0.02657
4447.52619	0.02663
4445.59752	0.02670
4443.66884	0.02676
4441.74017	0.02680
4439.81149	0.02685
4437.88281	0.02689
4435.95414	0.02693
4434.02546	0.02699
4432.09679	0.02703
4430.16811	0.02707
4428.23944	0.02710
4426.31076	0.02714
4424.38208	0.02721
4422.45341	0.02729
4420.52473	0.02735
4418.59606	0.02739
4416.66738	0.02741
4414.73871	0.02742
4412.81003	0.02745
4410.88135	0.02751
4408.95268	0.02758
4407.02400	0.02764
4405.09533	0.02769
4403.16665	0.02772
4401.23798	0.02777
4399.30930	0.02781
4397.38062	0.02786
4395.45195	0.02792
4393.52327	0.02798
4391.59460	0.02804
4389.66592	0.02808
4387.73725	0.02811
4385.80857	0.02815
4383.87989	0.02820
4381.95122	0.02826
4380.02254	0.02831
4378.09387	0.02835
4376.16519	0.02839
4374.23652	0.02844
4372.30784	0.02848
4370.37916	0.02854
4368.45049	0.02861
4366.52181	0.02868
4364.59314	0.02874
4362.66446	0.02879
4360.73579	0.02883
4358.80711	0.02886
4356.87843	0.02890
4354.94976	0.02897
4353.02108	0.02905
4351.09241	0.02911
4349.16373	0.02915
4347.23506	0.02919
4345.30638	0.02922
4343.37770	0.02923
4341.44903	0.02927
4339.52035	0.02935
4337.59168	0.02944
4335.66300	0.02952
4333.73433	0.02958
4331.80565	0.02962
4329.87697	0.02964
4327.94830	0.02966
4326.01962	0.02971
4324.09095	0.02977
4322.16227	0.02983
4320.23360	0.02989
4318.30492	0.02996
4316.37624	0.03002
4314.44757	0.03008
4312.51889	0.03013
4310.59022	0.03019
4308.66154	0.03025
4306.73287	0.03029
4304.80419	0.03035
4302.87551	0.03042
4300.94684	0.03049
4299.01816	0.03051
4297.08949	0.03054
4295.16081	0.03059
4293.23214	0.03067
4291.30346	0.03072
4289.37478	0.03076
4287.44611	0.03081
4285.51743	0.03088
4283.58876	0.03095
4281.66008	0.03102
4279.73141	0.03108
4277.80273	0.03114
4275.87405	0.03120
4273.94538	0.03125
4272.01670	0.03131
4270.08803	0.03135
4268.15935	0.03138
4266.23068	0.03144
4264.30200	0.03150
4262.37332	0.03157
4260.44465	0.03164
4258.51597	0.03171
4256.58730	0.03178
4254.65862	0.03183
4252.72995	0.03188
4250.80127	0.03193
4248.87259	0.03198
4246.94392	0.03205
4245.01524	0.03211
4243.08657	0.03217
4241.15789	0.03223
4239.22922	0.03228
4237.30054	0.03232
4235.37186	0.03237
4233.44319	0.03242
4231.51451	0.03247
4229.58584	0.03252
4227.65716	0.03258
4225.72849	0.03265
4223.79981	0.03274
4221.87113	0.03280
4219.94246	0.03284
4218.01378	0.03291
4216.08511	0.03298
4214.15643	0.03304
4212.22776	0.03310
4210.29908	0.03314
4208.37040	0.03319
4206.44173	0.03327
4204.51305	0.03334
4202.58438	0.03341
4200.65570	0.03348
4198.72703	0.03354
4196.79835	0.03360
4194.86968	0.03365
4192.94100	0.03371
4191.01232	0.03378
4189.08365	0.03384
4187.15497	0.03389
4185.22630	0.03394
4183.29762	0.03402
4181.36895	0.03411
4179.44027	0.03419
4177.51159	0.03425
4175.58292	0.03430
4173.65424	0.03432
4171.72557	0.03435
4169.79689	0.03441
4167.86822	0.03451
4165.93954	0.03461
4164.01086	0.03468
4162.08219	0.03472
4160.15351	0.03478
4158.22484	0.03484
4156.29616	0.03492
4154.36749	0.03501
4152.43881	0.03508
4150.51013	0.03514
4148.58146	0.03520
4146.65278	0.03526
4144.72411	0.03531
4142.79543	0.03537
4140.86676	0.03545
4138.93808	0.03552
4137.00940	0.03557
4135.08073	0.03561
4133.15205	0.03567
4131.22338	0.03575
4129.29470	0.03583
4127.36603	0.03589
4125.43735	0.03595
4123.50867	0.03603
4121.58000	0.03610
4119.65132	0.03618
4117.72265	0.03625
4115.79397	0.03632
4113.86530	0.03640
4111.93662	0.03647
4110.00794	0.03654
4108.07927	0.03661
4106.15059	0.03667
4104.22192	0.03674
4102.29324	0.03682
4100.36457	0.03689
4098.43589	0.03694
4096.50721	0.03700
4094.57854	0.03706
4092.64986	0.03714
4090.72119	0.03722
4088.79251	0.03728
4086.86384	0.03734
4084.93516	0.03742
4083.00648	0.03750
4081.07781	0.03754
4079.14913	0.03759
4077.22046	0.03766
4075.29178	0.03772
4073.36311	0.03779
4071.43443	0.03787
4069.50575	0.03795
4067.57708	0.03800
4065.64840	0.03805
4063.71973	0.03814
4061.79105	0.03824
4059.86238	0.03833
4057.93370	0.03841
4056.00502	0.03849
4054.07635	0.03856
4052.14767	0.03862
4050.21900	0.03868
4048.29032	0.03875
4046.36165	0.03882
4044.43297	0.03890
4042.50429	0.03900
4040.57562	0.03907
4038.64694	0.03913
4036.71827	0.03918
4034.78959	0.03924
4032.86092	0.03932
4030.93224	0.03941
4029.00356	0.03950
4027.07489	0.03958
4025.14621	0.03964
4023.21754	0.03969
4021.28886	0.03977
4019.36019	0.03984
4017.43151	0.03991
4015.50283	0.03999
4013.57416	0.04006
4011.64548	0.04014
4009.71681	0.04023
4007.78813	0.04032
4005.85946	0.04039
4003.93078	0.04045
4002.00210	0.04054
4000.07343	0.04064
3998.14475	0.04072
3996.21608	0.04079
3994.28740	0.04087
3992.35873	0.04094
3990.43005	0.04101
3988.50137	0.04108
3986.57270	0.04115
3984.64402	0.04124
3982.71535	0.04134
3980.78667	0.04141
3978.85800	0.04148
3976.92932	0.04157
3975.00064	0.04166
3973.07197	0.04173
3971.14329	0.04181
3969.21462	0.04189
3967.28594	0.04196
3965.35727	0.04202
3963.42859	0.04208
3961.49991	0.04214
3959.57124	0.04220
3957.64256	0.04228
3955.71389	0.04238
3953.78521	0.04248
3951.85654	0.04256
3949.92786	0.04262
3947.99918	0.04269
3946.07051	0.04278
3944.14183	0.04286
3942.21316	0.04294
3940.28448	0.04302
3938.35581	0.04311
3936.42713	0.04319
3934.49845	0.04322
3932.56978	0.04326
3930.64110	0.04335
3928.71243	0.04345
3926.78375	0.04353
3924.85508	0.04362
3922.92640	0.04374
3920.99772	0.04384
3919.06905	0.04387
3917.14037	0.04394
3915.21170	0.04409
3913.28302	0.04423
3911.35435	0.04431
3909.42567	0.04437
3907.49699	0.04441
3905.56832	0.04440
3903.63964	0.04440
3901.71097	0.04441
3899.78229	0.04447
3897.85362	0.04465
3895.92494	0.04486
3893.99626	0.04495
3892.06759	0.04495
3890.13891	0.04503
3888.21024	0.04513
3886.28156	0.04519
3884.35289	0.04525
3882.42421	0.04529
3880.49553	0.04536
3878.56686	0.04554
3876.63818	0.04571
3874.70951	0.04577
3872.78083	0.04575
3870.85216	0.04573
3868.92348	0.04580
3866.99480	0.04593
3865.06613	0.04601
3863.13745	0.04611
3861.20878	0.04627
3859.28010	0.04639
3857.35143	0.04627
3855.42275	0.04598
3853.49407	0.04600
3851.56540	0.04645
3849.63672	0.04685
3847.70805	0.04703
3845.77937	0.04710
3843.85070	0.04711
3841.92202	0.04713
3839.99334	0.04717
3838.06467	0.04723
3836.13599	0.04732
3834.20732	0.04741
3832.27864	0.04751
3830.34997	0.04765
3828.42129	0.04779
3826.49261	0.04790
3824.56394	0.04797
3822.63526	0.04797
3820.70659	0.04801
3818.77791	0.04811
3816.84924	0.04818
3814.92056	0.04834
3812.99188	0.04858
3811.06321	0.04873
3809.13453	0.04879
3807.20586	0.04887
3805.27718	0.04894
3803.34851	0.04888
3801.41983	0.04884
3799.49115	0.04900
3797.56248	0.04924
3795.63380	0.04941
3793.70513	0.04956
3791.77645	0.04968
3789.84778	0.04978
3787.91910	0.04986
3785.99042	0.04992
3784.06175	0.05000
3782.13307	0.05007
3780.20440	0.05011
3778.27572	0.05022
3776.34705	0.05039
3774.41837	0.05051
3772.48969	0.05056
3770.56102	0.05059
3768.63234	0.05067
3766.70367	0.05078
3764.77499	0.05088
3762.84632	0.05096
3760.91764	0.05098
3758.98896	0.05103
3757.06029	0.05114
3755.13161	0.05117
3753.20294	0.05103
3751.27426	0.05093
3749.34559	0.05103
3747.41691	0.05112
3745.48823	0.05108
3743.55956	0.05125
3741.63088	0.05164
3739.70221	0.05186
3737.77353	0.05187
3735.84486	0.05188
3733.91618	0.05203
3731.98750	0.05226
3730.05883	0.05243
3728.13015	0.05249
3726.20148	0.05251
3724.27280	0.05259
3722.34413	0.05272
3720.41545	0.05287
3718.48677	0.05304
3716.55810	0.05317
3714.62942	0.05320
3712.70075	0.05317
3710.77207	0.05325
3708.84340	0.05346
3706.91472	0.05365
3704.98604	0.05376
3703.05737	0.05382
3701.12869	0.05391
3699.20002	0.05403
3697.27134	0.05415
3695.34267	0.05422
3693.41399	0.05422
3691.48531	0.05414
3689.55664	0.05409
3687.62796	0.05425
3685.69929	0.05454
3683.77061	0.05475
3681.84194	0.05485
3679.91326	0.05490
3677.98458	0.05489
3676.05591	0.05488
3674.12723	0.05494
3672.19856	0.05501
3670.26988	0.05508
3668.34121	0.05528
3666.41253	0.05554
3664.48385	0.05572
3662.55518	0.05582
3660.62650	0.05588
3658.69783	0.05589
3656.76915	0.05592
3654.84048	0.05597
3652.91180	0.05589
3650.98312	0.05572
3649.05445	0.05563
3647.12577	0.05575
3645.19710	0.05607
3643.26842	0.05637
3641.33975	0.05657
3639.41107	0.05670
3637.48239	0.05682
3635.55372	0.05688
3633.62504	0.05688
3631.69637	0.05680
3629.76769	0.05670
3627.83902	0.05683
3625.91034	0.05715
3623.98166	0.05736
3622.05299	0.05739
3620.12431	0.05737
3618.19564	0.05740
3616.26696	0.05747
3614.33829	0.05750
3612.40961	0.05751
3610.48093	0.05751
3608.55226	0.05760
3606.62358	0.05781
3604.69491	0.05801
3602.76623	0.05812
3600.83756	0.05820
3598.90888	0.05826
3596.98020	0.05833
3595.05153	0.05839
3593.12285	0.05846
3591.19418	0.05850
3589.26550	0.05848
3587.33683	0.05851
3585.40815	0.05868
3583.47947	0.05889
3581.55080	0.05901
3579.62212	0.05908
3577.69345	0.05917
3575.76477	0.05926
3573.83610	0.05935
3571.90742	0.05939
3569.97874	0.05932
3568.05007	0.05928
3566.12139	0.05942
3564.19272	0.05963
3562.26404	0.05977
3560.33537	0.05986
3558.40669	0.05994
3556.47801	0.06001
3554.54934	0.06004
3552.62066	0.06008
3550.69199	0.06016
3548.76331	0.06024
3546.83464	0.06029
3544.90596	0.06035
3542.97728	0.06049
3541.04861	0.06063
3539.11993	0.06069
3537.19126	0.06070
3535.26258	0.06070
3533.33391	0.06076
3531.40523	0.06085
3529.47655	0.06090
3527.54788	0.06093
3525.61920	0.06094
3523.69053	0.06096
3521.76185	0.06101
3519.83318	0.06108
3517.90450	0.06115
3515.97582	0.06120
3514.04715	0.06123
3512.11847	0.06125
3510.18980	0.06127
3508.26112	0.06131
3506.33245	0.06137
3504.40377	0.06141
3502.47509	0.06145
3500.54642	0.06150
3498.61774	0.06152
3496.68907	0.06153
3494.76039	0.06156
3492.83172	0.06163
3490.90304	0.06167
3488.97436	0.06168
3487.04569	0.06171
3485.11701	0.06176
3483.18834	0.06179
3481.25966	0.06181
3479.33099	0.06186
3477.40231	0.06193
3475.47363	0.06203
3473.54496	0.06212
3471.61628	0.06222
3469.68761	0.06230
3467.75893	0.06238
3465.83026	0.06247
3463.90158	0.06255
3461.97290	0.06265
3460.04423	0.06276
3458.11555	0.06287
3456.18688	0.06298
3454.25820	0.06309
3452.32953	0.06316
3450.40085	0.06323
3448.47217	0.06332
3446.54350	0.06343
3444.61482	0.06354
3442.68615	0.06365
3440.75747	0.06376
3438.82880	0.06391
3436.90012	0.06408
3434.97144	0.06428
3433.04277	0.06448
3431.11409	0.06466
3429.18542	0.06485
3427.25674	0.06508
3425.32807	0.06530
3423.39939	0.06547
3421.47071	0.06562
3419.54204	0.06578
3417.61336	0.06597
3415.68469	0.06615
3413.75601	0.06632
3411.82734	0.06648
3409.89866	0.06661
3407.96998	0.06671
3406.04131	0.06679
3404.11263	0.06690
3402.18396	0.06704
3400.25528	0.06721
3398.32661	0.06740
3396.39793	0.06755
3394.46925	0.06766
3392.54058	0.06777
3390.61190	0.06790
3388.68323	0.06807
3386.75455	0.06823
3384.82588	0.06838
3382.89720	0.06852
3380.96852	0.06865
3379.03985	0.06876
3377.11117	0.06887
3375.18250	0.06900
3373.25382	0.06911
3371.32515	0.06922
3369.39647	0.06934
3367.46779	0.06949
3365.53912	0.06965
3363.61044	0.06978
3361.68177	0.06988
3359.75309	0.06998
3357.82442	0.07010
3355.89574	0.07024
3353.96706	0.07037
3352.03839	0.07050
3350.10971	0.07065
3348.18104	0.07078
3346.25236	0.07088
3344.32369	0.07097
3342.39501	0.07106
3340.46633	0.07117
3338.53766	0.07129
3336.60898	0.07144
3334.68031	0.07159
3332.75163	0.07173
3330.82296	0.07188
3328.89428	0.07202
3326.96560	0.07212
3325.03693	0.07223
3323.10825	0.07233
3321.17958	0.07243
3319.25090	0.07254
3317.32223	0.07269
3315.39355	0.07285
3313.46487	0.07298
3311.53620	0.07309
3309.60752	0.07321
3307.67885	0.07336
3305.75017	0.07353
3303.82150	0.07368
3301.89282	0.07380
3299.96414	0.07391
3298.03547	0.07401
3296.10679	0.07412
3294.17812	0.07425
3292.24944	0.07441
3290.32077	0.07456
3288.39209	0.07469
3286.46341	0.07482
3284.53474	0.07496
3282.60606	0.07509
3280.67739	0.07524
3278.74871	0.07540
3276.82004	0.07554
3274.89136	0.07565
3272.96268	0.07576
3271.03401	0.07591
3269.10533	0.07607
3267.17666	0.07621
3265.24798	0.07632
3263.31931	0.07644
3261.39063	0.07657
3259.46195	0.07670
3257.53328	0.07684
3255.60460	0.07698
3253.67593	0.07713
3251.74725	0.07727
3249.81858	0.07743
3247.88990	0.07757
3245.96122	0.07768
3244.03255	0.07781
3242.10387	0.07798
3240.17520	0.07814
3238.24652	0.07826
3236.31785	0.07838
3234.38917	0.07855
3232.46049	0.07871
3230.53182	0.07882
3228.60314	0.07891
3226.67447	0.07903
3224.74579	0.07917
3222.81712	0.07932
3220.88844	0.07949
3218.95976	0.07965
3217.03109	0.07978
3215.10241	0.07990
3213.17374	0.08000
3211.24506	0.08012
3209.31639	0.08026
3207.38771	0.08042
3205.45903	0.08057
3203.53036	0.08072
3201.60168	0.08085
3199.67301	0.08095
3197.74433	0.08108
3195.81566	0.08125
3193.88698	0.08144
3191.95830	0.08161
3190.02963	0.08177
3188.10095	0.08191
3186.17228	0.08204
3184.24360	0.08219
3182.31493	0.08236
3180.38625	0.08250
3178.45757	0.08263
3176.52890	0.08275
3174.60022	0.08286
3172.67155	0.08298
3170.74287	0.08311
3168.81420	0.08325
3166.88552	0.08338
3164.95684	0.08352
3163.02817	0.08366
3161.09949	0.08381
3159.17082	0.08395
3157.24214	0.08408
3155.31347	0.08422
3153.38479	0.08439
3151.45611	0.08456
3149.52744	0.08471
3147.59876	0.08483
3145.67009	0.08497
3143.74141	0.08511
3141.81274	0.08527
3139.88406	0.08544
3137.95538	0.08559
3136.02671	0.08571
3134.09803	0.08585
3132.16936	0.08600
3130.24068	0.08612
3128.31201	0.08623
3126.38333	0.08638
3124.45465	0.08653
3122.52598	0.08667
3120.59730	0.08680
3118.66863	0.08693
3116.73995	0.08707
3114.81128	0.08723
3112.88260	0.08739
3110.95392	0.08752
3109.02525	0.08764
3107.09657	0.08776
3105.16790	0.08791
3103.23922	0.08809
3101.31055	0.08827
3099.38187	0.08842
3097.45319	0.08857
3095.52452	0.08873
3093.59584	0.08886
3091.66717	0.08896
3089.73849	0.08907
3087.80982	0.08920
3085.88114	0.08934
3083.95246	0.08947
3082.02379	0.08961
3080.09511	0.08977
3078.16644	0.08992
3076.23776	0.09008
3074.30909	0.09025
3072.38041	0.09040
3070.45173	0.09052
3068.52306	0.09063
3066.59438	0.09077
3064.66571	0.09092
3062.73703	0.09108
3060.80836	0.09121
3058.87968	0.09134
3056.95100	0.09144
3055.02233	0.09154
3053.09365	0.09166
3051.16498	0.09180
3049.23630	0.09196
3047.30763	0.09216
3045.37895	0.09233
3043.45027	0.09247
3041.52160	0.09261
3039.59292	0.09275
3037.66425	0.09289
3035.73557	0.09303
3033.80690	0.09315
3031.87822	0.09325
3029.94954	0.09338
3028.02087	0.09353
3026.09219	0.09364
3024.16352	0.09375
3022.23484	0.09389
3020.30617	0.09406
3018.37749	0.09423
3016.44881	0.09440
3014.52014	0.09456
3012.59146	0.09468
3010.66279	0.09480
3008.73411	0.09493
3006.80544	0.09510
3004.87676	0.09525
3002.94808	0.09539
3001.01941	0.09552
2999.09073	0.09564
2997.16206	0.09577
2995.23338	0.09593
2993.30471	0.09608
2991.37603	0.09620
2989.44735	0.09630
2987.51868	0.09640
2985.59000	0.09651
2983.66133	0.09660
2981.73265	0.09666
2979.80398	0.09671
2977.87530	0.09677
2975.94662	0.09682
2974.01795	0.09686
2972.08927	0.09686
2970.16060	0.09684
2968.23192	0.09679
2966.30325	0.09677
2964.37457	0.09681
2962.44589	0.09692
2960.51722	0.09708
2958.58854	0.09725
2956.65987	0.09741
2954.73119	0.09756
2952.80252	0.09772
2950.87384	0.09791
2948.94516	0.09809
2947.01649	0.09822
2945.08781	0.09830
2943.15914	0.09835
2941.23046	0.09839
2939.30179	0.09842
2937.37311	0.09843
2935.44443	0.09842
2933.51576	0.09839
2931.58708	0.09834
2929.65841	0.09830
2927.72973	0.09828
2925.80106	0.09827
2923.87238	0.09826
2921.94370	0.09827
2920.01503	0.09832
2918.08635	0.09846
2916.15768	0.09876
2914.22900	0.09922
2912.30033	0.09974
2910.37165	0.10018
2908.44297	0.10054
2906.51430	0.10085
2904.58562	0.10112
2902.65695	0.10135
2900.72827	0.10156
2898.79960	0.10178
2896.87092	0.10199
2894.94224	0.10217
2893.01357	0.10234
2891.08489	0.10253
2889.15622	0.10273
2887.22754	0.10291
2885.29887	0.10308
2883.37019	0.10326
2881.44151	0.10343
2879.51284	0.10357
2877.58416	0.10369
2875.65549	0.10379
2873.72681	0.10391
2871.79814	0.10406
2869.86946	0.10422
2867.94078	0.10437
2866.01211	0.10447
2864.08343	0.10453
2862.15476	0.10460
2860.22608	0.10465
2858.29741	0.10466
2856.36873	0.10465
2854.44005	0.10463
2852.51138	0.10460
2850.58270	0.10467
2848.65403	0.10497
2846.72535	0.10544
2844.79668	0.10592
2842.86800	0.10634
2840.93932	0.10667
2839.01065	0.10697
2837.08197	0.10725
2835.15330	0.10750
2833.22462	0.10772
2831.29595	0.10790
2829.36727	0.10806
2827.43859	0.10818
2825.50992	0.10833
2823.58124	0.10852
2821.65257	0.10870
2819.72389	0.10883
2817.79522	0.10897
2815.86654	0.10915
2813.93786	0.10934
2812.00919	0.10952
2810.08051	0.10967
2808.15184	0.10982
2806.22316	0.10997
2804.29449	0.11011
2802.36581	0.11024
2800.43713	0.11038
2798.50846	0.11055
2796.57978	0.11073
2794.65111	0.11094
2792.72243	0.11111
2790.79376	0.11122
2788.86508	0.11133
2786.93640	0.11148
2785.00773	0.11165
2783.07905	0.11181
2781.15038	0.11197
2779.22170	0.11215
2777.29303	0.11234
2775.36435	0.11253
2773.43567	0.11266
2771.50700	0.11277
2769.57832	0.11292
2767.64965	0.11308
2765.72097	0.11322
2763.79230	0.11338
2761.86362	0.11356
2759.93494	0.11372
2758.00627	0.11383
2756.07759	0.11393
2754.14892	0.11406
2752.22024	0.11425
2750.29157	0.11445
2748.36289	0.11461
2746.43421	0.11474
2744.50554	0.11488
2742.57686	0.11503
2740.64819	0.11518
2738.71951	0.11533
2736.79084	0.11547
2734.86216	0.11559
2732.93348	0.11572
2731.00481	0.11587
2729.07613	0.11605
2727.14746	0.11621
2725.21878	0.11633
2723.29011	0.11647
2721.36143	0.11664
2719.43275	0.11680
2717.50408	0.11693
2715.57540	0.11704
2713.64673	0.11715
2711.71805	0.11731
2709.78938	0.11748
2707.86070	0.11766
2705.93202	0.11781
2704.00335	0.11794
2702.07467	0.11810
2700.14600	0.11829
2698.21732	0.11845
2696.28865	0.11856
2694.35997	0.11866
2692.43129	0.11881
2690.50262	0.11898
2688.57394	0.11913
2686.64527	0.11927
2684.71659	0.11942
2682.78792	0.11956
2680.85924	0.11971
2678.93056	0.11988
2677.00189	0.12003
2675.07321	0.12015
2673.14454	0.12028
2671.21586	0.12040
2669.28719	0.12051
2667.35851	0.12065
2665.42983	0.12082
2663.50116	0.12099
2661.57248	0.12115
2659.64381	0.12131
2657.71513	0.12149
2655.78646	0.12168
2653.85778	0.12186
2651.92910	0.12200
2650.00043	0.12213
2648.07175	0.12230
2646.14308	0.12247
2644.21440	0.12259
2642.28573	0.12267
2640.35705	0.12277
2638.42837	0.12295
2636.49970	0.12316
2634.57102	0.12333
2632.64235	0.12349
2630.71367	0.12365
2628.78500	0.12381
2626.85632	0.12397
2624.92764	0.12412
2622.99897	0.12426
2621.07029	0.12440
2619.14162	0.12455
2617.21294	0.12473
2615.28427	0.12489
2613.35559	0.12501
2611.42691	0.12515
2609.49824	0.12534
2607.56956	0.12552
2605.64089	0.12571
2603.71221	0.12593
2601.78354	0.12608
2599.85486	0.12618
2597.92618	0.12632
2595.99751	0.12650
2594.06883	0.12669
2592.14016	0.12685
2590.21148	0.12700
2588.28281	0.12718
2586.35413	0.12737
2584.42545	0.12751
2582.49678	0.12762
2580.56810	0.12776
2578.63943	0.12793
2576.71075	0.12808
2574.78208	0.12823
2572.85340	0.12839
2570.92472	0.12851
2568.99605	0.12862
2567.06737	0.12874
2565.13870	0.12889
2563.21002	0.12906
2561.28135	0.12921
2559.35267	0.12934
2557.42399	0.12951
2555.49532	0.12971
2553.56664	0.12991
2551.63797	0.13006
2549.70929	0.13018
2547.78062	0.13027
2545.85194	0.13041
2543.92326	0.13061
2541.99459	0.13080
2540.06591	0.13093
2538.13724	0.13104
2536.20856	0.13117
2534.27989	0.13133
2532.35121	0.13150
2530.42253	0.13166
2528.49386	0.13183
2526.56518	0.13199
2524.63651	0.13215
2522.70783	0.13230
2520.77916	0.13244
2518.85048	0.13258
2516.92181	0.13272
2514.99313	0.13288
2513.06445	0.13306
2511.13578	0.13324
2509.20710	0.13342
2507.27843	0.13359
2505.34975	0.13374
2503.42108	0.13388
2501.49240	0.13404
2499.56372	0.13420
2497.63505	0.13438
2495.70637	0.13456
2493.77770	0.13477
2491.84902	0.13496
2489.92035	0.13513
2487.99167	0.13529
2486.06299	0.13547
2484.13432	0.13564
2482.20564	0.13579
2480.27697	0.13596
2478.34829	0.13616
2476.41962	0.13636
2474.49094	0.13655
2472.56226	0.13671
2470.63359	0.13684
2468.70491	0.13696
2466.77624	0.13709
2464.84756	0.13724
2462.91889	0.13742
2460.99021	0.13762
2459.06153	0.13780
2457.13286	0.13797
2455.20418	0.13813
2453.27551	0.13828
2451.34683	0.13843
2449.41816	0.13859
2447.48948	0.13873
2445.56080	0.13889
2443.63213	0.13908
2441.70345	0.13925
2439.77478	0.13940
2437.84610	0.13956
2435.91743	0.13973
2433.98875	0.13989
2432.06007	0.14005
2430.13140	0.14023
2428.20272	0.14041
2426.27405	0.14058
2424.34537	0.14077
2422.41670	0.14094
2420.48802	0.14105
2418.55934	0.14114
2416.63067	0.14128
2414.70199	0.14150
2412.77332	0.14173
2410.84464	0.14189
2408.91597	0.14201
2406.98729	0.14215
2405.05861	0.14230
2403.12994	0.14245
2401.20126	0.14263
2399.27259	0.14281
2397.34391	0.14296
2395.41524	0.14313
2393.48656	0.14330
2391.55788	0.14346
2389.62921	0.14360
2387.70053	0.14376
2385.77186	0.14394
2383.84318	0.14411
2381.91451	0.14423
2379.98583	0.14430
2378.05715	0.14436
2376.12848	0.14441
2374.19980	0.14446
2372.27113	0.14451
2370.34245	0.14452
2368.41378	0.14452
2366.48510	0.14454
2364.55642	0.14459
2362.62775	0.14472
2360.69907	0.14492
2358.77040	0.14516
2356.84172	0.14542
2354.91305	0.14571
2352.98437	0.14602
2351.05569	0.14635
2349.12702	0.14659
2347.19834	0.14666
2345.26967	0.14669
2343.34099	0.14677
2341.41232	0.14687
2339.48364	0.14696
2337.55496	0.14705
2335.62629	0.14720
2333.69761	0.14740
2331.76894	0.14759
2329.84026	0.14779
2327.91159	0.14802
2325.98291	0.14827
2324.05423	0.14848
2322.12556	0.14869
2320.19688	0.14888
2318.26821	0.14905
2316.33953	0.14922
2314.41086	0.14944
2312.48218	0.14970
2310.55350	0.14996
2308.62483	0.15018
2306.69615	0.15038
2304.76748	0.15060
2302.83880	0.15079
2300.91013	0.15093
2298.98145	0.15107
2297.05277	0.15121
2295.12410	0.15137
2293.19542	0.15157
2291.26675	0.15180
2289.33807	0.15197
2287.40940	0.15209
2285.48072	0.15226
2283.55204	0.15246
2281.62337	0.15261
2279.69469	0.15273
2277.76602	0.15289
2275.83734	0.15311
2273.90867	0.15328
2271.97999	0.15341
2270.05131	0.15357
2268.12264	0.15374
2266.19396	0.15390
2264.26529	0.15406
2262.33661	0.15422
2260.40794	0.15441
2258.47926	0.15459
2256.55058	0.15476
2254.62191	0.15494
2252.69323	0.15510
2250.76456	0.15523
2248.83588	0.15535
2246.90721	0.15550
2244.97853	0.15565
2243.04985	0.15583
2241.12118	0.15605
2239.19250	0.15625
2237.26383	0.15641
2235.33515	0.15655
2233.40648	0.15670
2231.47780	0.15687
2229.54912	0.15704
2227.62045	0.15717
2225.69177	0.15730
2223.76310	0.15745
2221.83442	0.15762
2219.90575	0.15779
2217.97707	0.15795
2216.04839	0.15812
2214.11972	0.15832
2212.19104	0.15853
2210.26237	0.15870
2208.33369	0.15883
2206.40502	0.15895
2204.47634	0.15909
2202.54766	0.15924
2200.61899	0.15939
2198.69031	0.15952
2196.76164	0.15966
2194.83296	0.15981
2192.90429	0.15995
2190.97561	0.16011
2189.04693	0.16027
2187.11826	0.16043
2185.18958	0.16060
2183.26091	0.16079
2181.33223	0.16097
2179.40356	0.16112
2177.47488	0.16128
2175.54620	0.16146
2173.61753	0.16164
2171.68885	0.16178
2169.76018	0.16193
2167.83150	0.16211
2165.90283	0.16226
2163.97415	0.16238
2162.04547	0.16253
2160.11680	0.16274
2158.18812	0.16296
2156.25945	0.16315
2154.33077	0.16330
2152.40210	0.16345
2150.47342	0.16364
2148.54474	0.16384
2146.61607	0.16401
2144.68739	0.16418
2142.75872	0.16435
2140.83004	0.16449
2138.90137	0.16459
2136.97269	0.16473
2135.04401	0.16490
2133.11534	0.16510
2131.18666	0.16527
2129.25799	0.16544
2127.32931	0.16560
2125.40064	0.16575
2123.47196	0.16589
2121.54328	0.16604
2119.61461	0.16621
2117.68593	0.16639
2115.75726	0.16654
2113.82858	0.16668
2111.89991	0.16685
2109.97123	0.16705
2108.04255	0.16723
2106.11388	0.16740
2104.18520	0.16757
2102.25653	0.16772
2100.32785	0.16786
2098.39918	0.16802
2096.47050	0.16821
2094.54182	0.16838
2092.61315	0.16852
2090.68447	0.16865
2088.75580	0.16878
2086.82712	0.16893
2084.89845	0.16910
2082.96977	0.16928
2081.04109	0.16946
2079.11242	0.16964
2077.18374	0.16980
2075.25507	0.16998
2073.32639	0.17016
2071.39772	0.17032
2069.46904	0.17047
2067.54036	0.17063
2065.61169	0.17079
2063.68301	0.17094
2061.75434	0.17109
2059.82566	0.17122
2057.89699	0.17138
2055.96831	0.17157
2054.03963	0.17178
2052.11096	0.17200
2050.18228	0.17218
2048.25361	0.17233
2046.32493	0.17251
2044.39626	0.17268
2042.46758	0.17282
2040.53890	0.17296
2038.61023	0.17312
2036.68155	0.17331
2034.75288	0.17348
2032.82420	0.17362
2030.89553	0.17377
2028.96685	0.17396
2027.03817	0.17416
2025.10950	0.17430
2023.18082	0.17441
2021.25215	0.17457
2019.32347	0.17478
2017.39480	0.17496
2015.46612	0.17512
2013.53744	0.17529
2011.60877	0.17547
2009.68009	0.17564
2007.75142	0.17579
2005.82274	0.17594
2003.89407	0.17609
2001.96539	0.17625
2000.03671	0.17642
1998.10804	0.17660
1996.17936	0.17677
1994.25069	0.17686
1992.32201	0.17690
1990.39334	0.17702
1988.46466	0.17724
1986.53598	0.17744
1984.60731	0.17761
1982.67863	0.17777
1980.74996	0.17793
1978.82128	0.17806
1976.89261	0.17817
1974.96393	0.17832
1973.03525	0.17847
1971.10658	0.17859
1969.17790	0.17871
1967.24923	0.17885
1965.32055	0.17905
1963.39188	0.17927
1961.46320	0.17943
1959.53452	0.17955
1957.60585	0.17970
1955.67717	0.17986
1953.74850	0.17999
1951.81982	0.18011
1949.89115	0.18024
1947.96247	0.18038
1946.03379	0.18050
1944.10512	0.18059
1942.17644	0.18075
1940.24777	0.18099
1938.31909	0.18122
1936.39042	0.18141
1934.46174	0.18156
1932.53306	0.18170
1930.60439	0.18184
1928.67571	0.18202
1926.74704	0.18220
1924.81836	0.18232
1922.88969	0.18244
1920.96101	0.18258
1919.03233	0.18268
1917.10366	0.18285
1915.17498	0.18316
1913.24631	0.18342
1911.31763	0.18353
1909.38896	0.18364
1907.46028	0.18382
1905.53160	0.18405
1903.60293	0.18423
1901.67425	0.18434
1899.74558	0.18446
1897.81690	0.18458
1895.88823	0.18469
1893.95955	0.18478
1892.03087	0.18485
1890.10220	0.18497
1888.17352	0.18521
1886.24485	0.18547
1884.31617	0.18565
1882.38750	0.18578
1880.45882	0.18588
1878.53014	0.18602
1876.60147	0.18624
1874.67279	0.18645
1872.74412	0.18647
1870.81544	0.18632
1868.88677	0.18635
1866.95809	0.18674
1865.02941	0.18717
1863.10074	0.18742
1861.17206	0.18759
1859.24339	0.18775
1857.31471	0.18790
1855.38604	0.18806
1853.45736	0.18823
1851.52868	0.18838
1849.60001	0.18851
1847.67133	0.18859
1845.74266	0.18861
1843.81398	0.18870
1841.88531	0.18897
1839.95663	0.18930
1838.02795	0.18955
1836.09928	0.18975
1834.17060	0.18986
1832.24193	0.18986
1830.31325	0.18991
1828.38458	0.19011
1826.45590	0.19038
1824.52722	0.19064
1822.59855	0.19086
1820.66987	0.19101
1818.74120	0.19115
1816.81252	0.19132
1814.88385	0.19147
1812.95517	0.19153
1811.02649	0.19158
1809.09782	0.19172
1807.16914	0.19190
1805.24047	0.19206
1803.31179	0.19211
1801.38312	0.19214
1799.45444	0.19229
1797.52576	0.19251
1795.59709	0.19253
1793.66841	0.19236
1791.73974	0.19239
1789.81106	0.19276
1787.88239	0.19306
1785.95371	0.19312
1784.02503	0.19319
1782.09636	0.19337
1780.16768	0.19357
1778.23901	0.19376
1776.31033	0.19392
1774.38166	0.19390
1772.45298	0.19380
1770.52430	0.19382
1768.59563	0.19404
1766.66695	0.19434
1764.73828	0.19449
1762.80960	0.19446
1760.88093	0.19450
1758.95225	0.19467
1757.02357	0.19482
1755.09490	0.19478
1753.16622	0.19437
1751.23755	0.19397
1749.30887	0.19408
1747.38020	0.19442
1745.45152	0.19459
1743.52284	0.19455
1741.59417	0.19441
1739.66549	0.19440
1737.73682	0.19456
1735.80814	0.19454
1733.87947	0.19452
1731.95079	0.19483
1730.02211	0.19527
1728.09344	0.19557
1726.16476	0.19575
1724.23609	0.19585
1722.30741	0.19592
1720.37874	0.19578
1718.45006	0.19548
1716.52138	0.19553
1714.59271	0.19601
1712.66403	0.19651
1710.73536	0.19679
1708.80668	0.19684
1706.87801	0.19678
1704.94933	0.19677
1703.02065	0.19664
1701.09198	0.19641
1699.16330	0.19645
1697.23463	0.19671
1695.30595	0.19701
1693.37728	0.19731
1691.44860	0.19740
1689.51992	0.19733
1687.59125	0.19725
1685.66257	0.19701
1683.73390	0.19689
1681.80522	0.19716
1679.87655	0.19748
1677.94787	0.19735
1676.01919	0.19697
1674.09052	0.19692
1672.16184	0.19715
1670.23317	0.19738
1668.30449	0.19771
1666.37582	0.19801
1664.44714	0.19804
1662.51846	0.19805
1660.58979	0.19827
1658.66111	0.19845
1656.73244	0.19817
1654.80376	0.19741
1652.87509	0.19694
1650.94641	0.19723
1649.01773	0.19760
1647.08906	0.19784
1645.16038	0.19830
1643.23171	0.19874
1641.30303	0.19884
1639.37436	0.19867
1637.44568	0.19843
1635.51700	0.19848
1633.58833	0.19888
1631.65965	0.19920
1629.73098	0.19920
1627.80230	0.19907
1625.87363	0.19886
1623.94495	0.19852
1622.01627	0.19823
1620.08760	0.19813
1618.15892	0.19824
1616.23025	0.19874
1614.30157	0.19950
1612.37290	0.20007
1610.44422	0.20038
1608.51554	0.20063
1606.58687	0.20088
1604.65819	0.20112
1602.72952	0.20139
1600.80084	0.20164
1598.87217	0.20179
1596.94349	0.20189
1595.01481	0.20205
1593.08614	0.20225
1591.15746	0.20245
1589.22879	0.20264
1587.30011	0.20283
1585.37144	0.20298
1583.44276	0.20310
1581.51408	0.20322
1579.58541	0.20319
1577.65673	0.20290
1575.72806	0.20284
1573.79938	0.20324
1571.87071	0.20357
1569.94203	0.20364
1568.01335	0.20372
1566.08468	0.20386
1564.15600	0.20393
1562.22733	0.20362
1560.29865	0.20309
1558.36998	0.20316
1556.44130	0.20392
1554.51262	0.20462
1552.58395	0.20493
1550.65527	0.20503
1548.72660	0.20503
1546.79792	0.20484
1544.86925	0.20446
1542.94057	0.20423
1541.01189	0.20433
1539.08322	0.20479
1537.15454	0.20519
1535.22587	0.20517
1533.29719	0.20517
1531.36852	0.20559
1529.43984	0.20594
1527.51116	0.20589
1525.58249	0.20565
1523.65381	0.20534
1521.72514	0.20525
1519.79646	0.20552
1517.86779	0.20580
1515.93911	0.20596
1514.01043	0.20617
1512.08176	0.20625
1510.15308	0.20590
1508.22441	0.20531
1506.29573	0.20537
1504.36706	0.20622
1502.43838	0.20680
1500.50970	0.20669
1498.58103	0.20640
1496.65235	0.20642
1494.72368	0.20669
1492.79500	0.20678
1490.86633	0.20652
1488.93765	0.20626
1487.00897	0.20631
1485.08030	0.20653
1483.15162	0.20660
1481.22295	0.20647
1479.29427	0.20611
1477.36560	0.20552
1475.43692	0.20490
1473.50824	0.20445
1471.57957	0.20429
1469.65089	0.20431
1467.72222	0.20408
1465.79354	0.20363
1463.86487	0.20349
1461.93619	0.20349
1460.00751	0.20294
1458.07884	0.20208
1456.15016	0.20197
1454.22149	0.20262
1452.29281	0.20315
1450.36414	0.20329
1448.43546	0.20328
1446.50678	0.20332
1444.57811	0.20348
1442.64943	0.20370
1440.72076	0.20379
1438.79208	0.20367
1436.86341	0.20360
1434.93473	0.20385
1433.00605	0.20412
1431.07738	0.20419
1429.14870	0.20430
1427.22003	0.20446
1425.29135	0.20452
1423.36268	0.20441
1421.43400	0.20395
1419.50532	0.20352
1417.57665	0.20383
1415.64797	0.20450
1413.71930	0.20482
1411.79062	0.20482
1409.86195	0.20480
1407.93327	0.20475
1406.00459	0.20468
1404.07592	0.20468
1402.14724	0.20467
1400.21857	0.20452
1398.28989	0.20436
1396.36122	0.20426
1394.43254	0.20428
1392.50386	0.20437
1390.57519	0.20430
1388.64651	0.20396
1386.71784	0.20359
1384.78916	0.20346
1382.86049	0.20354
1380.93181	0.20364
1379.00313	0.20361
1377.07446	0.20343
1375.14578	0.20327
1373.21711	0.20332
1371.28843	0.20350
1369.35976	0.20358
1367.43108	0.20357
1365.50240	0.20348
1363.57373	0.20336
1361.64505	0.20335
1359.71638	0.20346
1357.78770	0.20354
1355.85903	0.20353
1353.93035	0.20356
1352.00167	0.20367
1350.07300	0.20383
1348.14432	0.20395
1346.21565	0.20402
1344.28697	0.20404
1342.35830	0.20399
1340.42962	0.20383
1338.50094	0.20374
1336.57227	0.20377
1334.64359	0.20380
1332.71492	0.20377
1330.78624	0.20366
1328.85757	0.20347
1326.92889	0.20327
1325.00021	0.20307
1323.07154	0.20288
1321.14286	0.20275
1319.21419	0.20264
1317.28551	0.20248
1315.35684	0.20227
1313.42816	0.20203
1311.49948	0.20182
1309.57081	0.20162
1307.64213	0.20142
1305.71346	0.20123
1303.78478	0.20103
1301.85611	0.20082
1299.92743	0.20061
1297.99875	0.20041
1296.07008	0.20022
1294.14140	0.20005
1292.21273	0.19986
1290.28405	0.19962
1288.35538	0.19938
1286.42670	0.19917
1284.49802	0.19898
1282.56935	0.19880
1280.64067	0.19860
1278.71200	0.19833
1276.78332	0.19796
1274.85465	0.19752
1272.92597	0.19705
1270.99729	0.19643
1269.06862	0.19560
1267.13994	0.19464
1265.21127	0.19379
1263.28259	0.19320
1261.35392	0.19296
1259.42524	0.19302
1257.49656	0.19321
1255.56789	0.19338
1253.63921	0.19338
1251.71054	0.19323
1249.78186	0.19295
1247.85319	0.19260
1245.92451	0.19227
1243.99583	0.19195
1242.06716	0.19156
1240.13848	0.19108
1238.20981	0.19058
1236.28113	0.19010
1234.35246	0.18958
1232.42378	0.18899
1230.49510	0.18836
1228.56643	0.18776
1226.63775	0.18723
1224.70908	0.18674
1222.78040	0.18630
1220.85173	0.18585
1218.92305	0.18536
1216.99437	0.18479
1215.06570	0.18420
1213.13702	0.18364
1211.20835	0.18310
1209.27967	0.18258
1207.35100	0.18204
1205.42232	0.18145
1203.49364	0.18084
1201.56497	0.18025
1199.63629	0.17968
1197.70762	0.17906
1195.77894	0.17840
1193.85027	0.17777
1191.92159	0.17716
1189.99291	0.17649
1188.06424	0.17571
1186.13556	0.17492
1184.20689	0.17416
1182.27821	0.17337
1180.34954	0.17251
1178.42086	0.17165
1176.49218	0.17081
1174.56351	0.16998
1172.63483	0.16920
1170.70616	0.16836
1168.77748	0.16740
1166.84881	0.16647
1164.92013	0.16564
1162.99145	0.16488
1161.06278	0.16410
1159.13410	0.16326
1157.20543	0.16240
1155.27675	0.16156
1153.34808	0.16075
1151.41940	0.15996
1149.49072	0.15916
1147.56205	0.15836
1145.63337	0.15757
1143.70470	0.15674
1141.77602	0.15578
1139.84735	0.15470
1137.91867	0.15354
1135.98999	0.15233
1134.06132	0.15100
1132.13264	0.14945
1130.20397	0.14767
1128.27529	0.14559
1126.34662	0.14328
1124.41794	0.14088
1122.48926	0.13851
1120.56059	0.13624
1118.63191	0.13407
1116.70324	0.13202
1114.77456	0.13018
1112.84589	0.12857
1110.91721	0.12721
1108.98853	0.12612
1107.05986	0.12534
1105.13118	0.12488
1103.20251	0.12475
1101.27383	0.12490
1099.34516	0.12529
1097.41648	0.12586
1095.48780	0.12656
1093.55913	0.12733
1091.63045	0.12817
1089.70178	0.12907
1087.77310	0.12991
1085.84443	0.13054
1083.91575	0.13100
1081.98707	0.13139
1080.05840	0.13170
1078.12972	0.13191
1076.20105	0.13205
1074.27237	0.13214
1072.34370	0.13224
1070.41502	0.13238
1068.48634	0.13258
1066.55767	0.13278
1064.62899	0.13295
1062.70032	0.13308
1060.77164	0.13322
1058.84297	0.13347
1056.91429	0.13382
1054.98561	0.13414
1053.05694	0.13439
1051.12826	0.13463
1049.19959	0.13493
1047.27091	0.13535
1045.34224	0.13583
1043.41356	0.13626
1041.48488	0.13662
1039.55621	0.13698
1037.62753	0.13739
1035.69886	0.13780
1033.77018	0.13821
1031.84151	0.13855
1029.91283	0.13883
1027.98415	0.13914
1026.05548	0.13952
1024.12680	0.13993
1022.19813	0.14024
1020.26945	0.14052
1018.34078	0.14088
1016.41210	0.14134
1014.48342	0.14182
1012.55475	0.14236
1010.62607	0.14300
1008.69740	0.14367
1006.76872	0.14424
1004.84005	0.14472
1002.91137	0.14514
1000.98269	0.14550
999.05402	0.14575
997.12534	0.14595
995.19667	0.14612
993.26799	0.14626
991.33932	0.14633
989.41064	0.14638
987.48196	0.14644
985.55329	0.14647
983.62461	0.14645
981.69594	0.14640
979.76726	0.14626
977.83859	0.14610
975.90991	0.14600
973.98123	0.14591
972.05256	0.14572
970.12388	0.14550
968.19521	0.14534
966.26653	0.14520
964.33786	0.14499
962.40918	0.14475
960.48050	0.14456
958.55183	0.14440
956.62315	0.14428
954.69448	0.14415
952.76580	0.14393
950.83713	0.14368
948.90845	0.14350
946.97977	0.14336
945.05110	0.14320
943.12242	0.14300
941.19375	0.14270
939.26507	0.14225
937.33640	0.14178
935.40772	0.14135
933.47904	0.14086
931.55037	0.14030
929.62169	0.13977
927.69302	0.13929
925.76434	0.13880
923.83567	0.13824
921.90699	0.13768
919.97831	0.13712
918.04964	0.13651
916.12096	0.13577
914.19229	0.13499
912.26361	0.13423
910.33494	0.13345
908.40626	0.13268
906.47758	0.13199
904.54891	0.13141
902.62023	0.13084
900.69156	0.13025
898.76288	0.12969
896.83421	0.12916
894.90553	0.12867
892.97685	0.12818
891.04818	0.12764
889.11950	0.12714
887.19083	0.12673
885.26215	0.12634
883.33348	0.12592
881.40480	0.12552
879.47612	0.12524
877.54745	0.12505
875.61877	0.12481
873.69010	0.12454
871.76142	0.12429
869.83275	0.12407
867.90407	0.12384
865.97539	0.12358
864.04672	0.12334
862.11804	0.12319
860.18937	0.12317
858.26069	0.12314
856.33202	0.12299
854.40334	0.12274
852.47466	0.12247
850.54599	0.12227
848.61731	0.12212
846.68864	0.12191
844.75996	0.12157
842.83129	0.12116
840.90261	0.12079
838.97394	0.12044
837.04526	0.12003
835.11658	0.11944
833.18791	0.11863
831.25923	0.11770
829.33056	0.11671
827.40188	0.11573
825.47321	0.11478
823.54453	0.11384
821.61585	0.11296
819.68718	0.11220
817.75850	0.11158
815.82983	0.11111
813.90115	0.11078
811.97248	0.11055
810.04380	0.11037
808.11512	0.11022
806.18645	0.11009
804.25777	0.11001
802.32910	0.10995
800.40042	0.10977
798.47175	0.10929
796.54307	0.10863
794.61439	0.10808
792.68572	0.10768
790.75704	0.10742
788.82837	0.10726
786.89969	0.10707
784.97102	0.10680
783.04234	0.10644
781.11366	0.10605
779.18499	0.10569
777.25631	0.10539
775.32764	0.10513
773.39896	0.10481
771.47029	0.10444
769.54161	0.10408
767.61293	0.10372
765.68426	0.10333
763.75558	0.10288
761.82691	0.10242
759.89823	0.10199
757.96956	0.10151
756.04088	0.10093
754.11220	0.10027
752.18353	0.09956
750.25485	0.09886
748.32618	0.09817
746.39750	0.09736
744.46883	0.09640
742.54015	0.09547
740.61147	0.09475
738.68280	0.09425
736.75412	0.09399
734.82545	0.09393
732.89677	0.09387
730.96810	0.09379
729.03942	0.09386
727.11074	0.09410
725.18207	0.09431
723.25339	0.09441
721.32472	0.09454
719.39604	0.09482
717.46737	0.09516
715.53869	0.09550
713.61001	0.09592
711.68134	0.09634
709.75266	0.09660
707.82399	0.09670
705.89531	0.09668
703.96664	0.09649
702.03796	0.09610
700.10928	0.09561
698.18061	0.09508
696.25193	0.09456
694.32326	0.09402
692.39458	0.09345
690.46591	0.09287
688.53723	0.09236
686.60855	0.09188
684.67988	0.09136
682.75120	0.09083
680.82253	0.09031
678.89385	0.08976
676.96518	0.08916
675.03650	0.08851
673.10782	0.08782
671.17915	0.08708
669.25047	0.08630
667.32180	0.08550
665.39312	0.08469
663.46445	0.08384
661.53577	0.08295
659.60709	0.08210
657.67842	0.08130
655.74974	0.08055
653.82107	0.07977
651.89239	0.07892
649.96372	0.07802
648.03504	0.07715
646.10636	0.07636
644.17769	0.07558
642.24901	0.07467
640.32034	0.07359
638.39166	0.07245
636.46299	0.07129
634.53431	0.07005
632.60563	0.06859
630.67696	0.06638
628.74828	0.06296
626.81961	0.05848
624.89093	0.05382
622.96226	0.05015
621.03358	0.04788
619.10490	0.04668
617.17623	0.04588
615.24755	0.04494
613.31888	0.04380
611.39020	0.04276
609.46153	0.04220
607.53285	0.04230
605.60417	0.04279
603.67550	0.04337
601.74682	0.04414
599.81815	0.04519
597.88947	0.04620
595.96080	0.04685
594.03212	0.04716
592.10344	0.04731
590.17477	0.04741
588.24609	0.04749
586.31742	0.04747
584.38874	0.04728
582.46007	0.04700
580.53139	0.04665
578.60271	0.04619
576.67404	0.04565
574.74536	0.04510
572.81669	0.04451
570.88801	0.04385
568.95934	0.04324
567.03066	0.04279
565.10198	0.04243
563.17331	0.04213
561.24463	0.04189
559.31596	0.04165
557.38728	0.04137
555.45861	0.04106
553.52993	0.04082
551.60125	0.04070
549.67258	0.04057
547.74390	0.04039
545.81523	0.04024
543.88655	0.04007
541.95788	0.03989
540.02920	0.03970
538.10052	0.03952
536.17185	0.03932
534.24317	0.03909
532.31450	0.03890
530.38582	0.03870
528.45715	0.03843
526.52847	0.03815
524.59979	0.03787
522.67112	0.03749
520.74244	0.03696
518.81377	0.03633
516.88509	0.03568
514.95642	0.03513
513.02774	0.03480
511.09906	0.03466
509.17039	0.03448
507.24171	0.03417
505.31304	0.03389
503.38436	0.03354
501.45569	0.03301
499.52701	0.03241
497.59833	0.03189
495.66966	0.03138
493.74098	0.03081
491.81231	0.03026
489.88363	0.02976
487.95496	0.02923
486.02628	0.02867
484.09760	0.02809
482.16893	0.02750
480.24025	0.02689
478.31158	0.02629
476.38290	0.02577
474.45423	0.02534
472.52555	0.02490
470.59687	0.02443
468.66820	0.02393
466.73952	0.02352
464.81085	0.02325
462.88217	0.02309
460.95350	0.02300
459.02482	0.02291
457.09614	0.02281
455.16747	0.02275
453.23879	0.02272
451.31012	0.02278
449.38144	0.02282
447.45277	0.02274
445.52409	0.02256
443.59541	0.02232
441.66674	0.02202
439.73806	0.02163
437.80939	0.02117
435.88071	0.02072
433.95204	0.02028
432.02336	0.01972
430.09468	0.01910
428.16601	0.01847
426.23733	0.01781
424.30866	0.01716
422.37998	0.01657
420.45131	0.01600
418.52263	0.01535
416.59395	0.01458
414.66528	0.01378
412.73660	0.01305
410.80793	0.01240
408.87925	0.01178
406.95058	0.01112
405.02190	0.01052
403.09322	0.01005
401.16455	0.00956
399.23587	0.00895
397.30720	0.00836
395.37852	0.00784
393.44985	0.00730
391.52117	0.00676
389.59249	0.00623
387.66382	0.00573
385.73514	0.00532
383.80647	0.00506
381.87779	0.00481
379.94912	0.00445
378.02044	0.00401
376.09176	0.00361
374.16309	0.00329
372.23441	0.00302
370.30574	0.00276
368.37706	0.00249
