7496.76250	0.00121
7494.83382	0.00122
7492.90514	0.00122
7490.97647	0.00121
7489.04779	0.00121
7487.11912	0.00123
7485.19044	0.00124
7483.26177	0.00124
7481.33309	0.00124
7479.40441	0.00124
7477.47574	0.00124
7475.54706	0.00123
7473.61839	0.00125
7471.68971	0.00127
7469.76104	0.00128
7467.83236	0.00127
7465.90368	0.00127
7463.97501	0.00129
7462.04633	0.00129
7460.11766	0.00128
7458.18898	0.00128
7456.26031	0.00129
7454.33163	0.00129
7452.40295	0.00128
7450.47428	0.00129
7448.54560	0.00129
7446.61693	0.00129
7444.68825	0.00128
7442.75958	0.00128
7440.83090	0.00129
7438.90222	0.00130
7436.97355	0.00130
7435.04487	0.00130
7433.11620	0.00131
7431.18752	0.00133
7429.25885	0.00133
7427.33017	0.00131
7425.40149	0.00131
7423.47282	0.00132
7421.54414	0.00133
7419.61547	0.00134
7417.68679	0.00135
7415.75812	0.00135
7413.82944	0.00135
7411.90076	0.00134
7409.97209	0.00134
7408.04341	0.00135
7406.11474	0.00135
7404.18606	0.00136
7402.25739	0.00138
7400.32871	0.00139
7398.40003	0.00140
7396.47136	0.00139
7394.54268	0.00139
7392.61401	0.00139
7390.68533	0.00139
7388.75666	0.00138
7386.82798	0.00139
7384.89930	0.00140
7382.97063	0.00141
7381.04195	0.00140
7379.11328	0.00138
7377.18460	0.00138
7375.25593	0.00139
7373.32725	0.00142
7371.39857	0.00144
7369.46990	0.00144
7367.54122	0.00143
7365.61255	0.00143
7363.68387	0.00144
7361.75520	0.00144
7359.82652	0.00146
7357.89784	0.00147
7355.96917	0.00148
7354.04049	0.00147
7352.11182	0.00145
7350.18314	0.00145
7348.25447	0.00146
7346.32579	0.00147
7344.39711	0.00148
7342.46844	0.00148
7340.53976	0.00150
7338.61109	0.00150
7336.68241	0.00150
7334.75374	0.00150
7332.82506	0.00149
7330.89638	0.00150
7328.96771	0.00151
7327.03903	0.00152
7325.11036	0.00153
7323.18168	0.00154
7321.25301	0.00154
7319.32433	0.00153
7317.39565	0.00152
7315.46698	0.00154
7313.53830	0.00154
7311.60963	0.00154
7309.68095	0.00155
7307.75228	0.00156
7305.82360	0.00156
7303.89492	0.00156
7301.96625	0.00157
7300.03757	0.00157
7298.10890	0.00157
7296.18022	0.00157
7294.25155	0.00157
7292.32287	0.00158
7290.39419	0.00160
7288.46552	0.00161
7286.53684	0.00160
7284.60817	0.00158
7282.67949	0.00157
7280.75082	0.00159
7278.82214	0.00160
7276.89346	0.00160
7274.96479	0.00159
7273.03611	0.00160
7271.10744	0.00162
7269.17876	0.00162
7267.25009	0.00162
7265.32141	0.00161
7263.39273	0.00162
7261.46406	0.00163
7259.53538	0.00163
7257.60671	0.00164
7255.67803	0.00164
7253.74936	0.00164
7251.82068	0.00165
7249.89200	0.00167
7247.96333	0.00169
7246.03465	0.00171
7244.10598	0.00171
7242.17730	0.00170
7240.24863	0.00169
7238.31995	0.00168
7236.39127	0.00168
7234.46260	0.00169
7232.53392	0.00170
7230.60525	0.00170
7228.67657	0.00170
7226.74790	0.00170
7224.81922	0.00171
7222.89054	0.00172
7220.96187	0.00173
7219.03319	0.00172
7217.10452	0.00172
7215.17584	0.00172
7213.24717	0.00172
7211.31849	0.00171
7209.38981	0.00172
7207.46114	0.00173
7205.53246	0.00174
7203.60379	0.00175
7201.67511	0.00175
7199.74644	0.00175
7197.81776	0.00175
7195.88908	0.00175
7193.96041	0.00175
7192.03173	0.00175
7190.10306	0.00175
7188.17438	0.00176
7186.24571	0.00177
7184.31703	0.00179
7182.38835	0.00181
7180.45968	0.00181
7178.53100	0.00181
7176.60233	0.00182
7174.67365	0.00183
7172.74498	0.00184
7170.81630	0.00184
7168.88762	0.00182
7166.95895	0.00182
7165.03027	0.00183
7163.10160	0.00184
7161.17292	0.00184
7159.24425	0.00184
7157.31557	0.00183
7155.38689	0.00183
7153.45822	0.00184
7151.52954	0.00186
7149.60087	0.00187
7147.67219	0.00188
7145.74352	0.00188
7143.81484	0.00188
7141.88616	0.00188
7139.95749	0.00188
7138.02881	0.00188
7136.10014	0.00188
7134.17146	0.00188
7132.24279	0.00189
7130.31411	0.00190
7128.38543	0.00190
7126.45676	0.00190
7124.52808	0.00190
7122.59941	0.00191
7120.67073	0.00193
7118.74206	0.00192
7116.81338	0.00192
7114.88470	0.00192
7112.95603	0.00194
7111.02735	0.00195
7109.09868	0.00195
7107.17000	0.00195
7105.24133	0.00196
7103.31265	0.00196
7101.38397	0.00195
7099.45530	0.00195
7097.52662	0.00197
7095.59795	0.00199
7093.66927	0.00199
7091.74060	0.00199
7089.81192	0.00198
7087.88324	0.00197
7085.95457	0.00198
7084.02589	0.00200
7082.09722	0.00202
7080.16854	0.00202
7078.23987	0.00202
7076.31119	0.00203
7074.38251	0.00204
7072.45384	0.00204
7070.52516	0.00205
7068.59649	0.00206
7066.66781	0.00206
7064.73914	0.00206
7062.81046	0.00206
7060.88178	0.00208
7058.95311	0.00209
7057.02443	0.00209
7055.09576	0.00209
7053.16708	0.00207
7051.23841	0.00206
7049.30973	0.00206
7047.38105	0.00207
7045.45238	0.00208
7043.52370	0.00210
7041.59503	0.00211
7039.66635	0.00212
7037.73768	0.00212
7035.80900	0.00211
7033.88032	0.00210
7031.95165	0.00211
7030.02297	0.00211
7028.09430	0.00211
7026.16562	0.00212
7024.23695	0.00213
7022.30827	0.00214
7020.37959	0.00217
7018.45092	0.00219
7016.52224	0.00219
7014.59357	0.00218
7012.66489	0.00218
7010.73622	0.00218
7008.80754	0.00217
7006.87886	0.00217
7004.95019	0.00218
7003.02151	0.00219
7001.09284	0.00219
6999.16416	0.00221
6997.23549	0.00221
6995.30681	0.00221
6993.37813	0.00222
6991.44946	0.00223
6989.52078	0.00222
6987.59211	0.00221
6985.66343	0.00221
6983.73476	0.00223
6981.80608	0.00225
6979.87740	0.00226
6977.94873	0.00227
6976.02005	0.00227
6974.09138	0.00227
6972.16270	0.00227
6970.23403	0.00229
6968.30535	0.00230
6966.37667	0.00230
6964.44800	0.00229
6962.51932	0.00227
6960.59065	0.00228
6958.66197	0.00231
6956.73330	0.00233
6954.80462	0.00235
6952.87594	0.00235
6950.94727	0.00235
6949.01859	0.00234
6947.08992	0.00234
6945.16124	0.00235
6943.23257	0.00236
6941.30389	0.00237
6939.37521	0.00236
6937.44654	0.00235
6935.51786	0.00236
6933.58919	0.00237
6931.66051	0.00238
6929.73184	0.00238
6927.80316	0.00238
6925.87448	0.00239
6923.94581	0.00239
6922.01713	0.00241
6920.08846	0.00242
6918.15978	0.00243
6916.23111	0.00243
6914.30243	0.00241
6912.37375	0.00241
6910.44508	0.00241
6908.51640	0.00242
6906.58773	0.00242
6904.65905	0.00241
6902.73038	0.00242
6900.80170	0.00245
6898.87302	0.00247
6896.94435	0.00247
6895.01567	0.00246
6893.08700	0.00247
6891.15832	0.00247
6889.22965	0.00248
6887.30097	0.00248
6885.37229	0.00248
6883.44362	0.00248
6881.51494	0.00249
6879.58627	0.00251
6877.65759	0.00253
6875.72892	0.00255
6873.80024	0.00257
6871.87156	0.00257
6869.94289	0.00257
6868.01421	0.00258
6866.08554	0.00258
6864.15686	0.00257
6862.22819	0.00256
6860.29951	0.00256
6858.37083	0.00257
6856.44216	0.00256
6854.51348	0.00256
6852.58481	0.00258
6850.65613	0.00260
6848.72746	0.00261
6846.79878	0.00261
6844.87010	0.00261
6842.94143	0.00262
6841.01275	0.00261
6839.08408	0.00261
6837.15540	0.00260
6835.22673	0.00261
6833.29805	0.00262
6831.36937	0.00264
6829.44070	0.00266
6827.51202	0.00266
6825.58335	0.00266
6823.65467	0.00265
6821.72600	0.00266
6819.79732	0.00267
6817.86864	0.00268
6815.93997	0.00270
6814.01129	0.00272
6812.08262	0.00272
6810.15394	0.00270
6808.22527	0.00268
6806.29659	0.00268
6804.36791	0.00269
6802.43924	0.00269
6800.51056	0.00271
6798.58189	0.00274
6796.65321	0.00276
6794.72454	0.00275
6792.79586	0.00274
6790.86718	0.00276
6788.93851	0.00277
6787.00983	0.00278
6785.08116	0.00278
6783.15248	0.00278
6781.22381	0.00277
6779.29513	0.00276
6777.36645	0.00277
6775.43778	0.00279
6773.50910	0.00281
6771.58043	0.00283
6769.65175	0.00285
6767.72308	0.00285
6765.79440	0.00285
6763.86572	0.00285
6761.93705	0.00286
6760.00837	0.00287
6758.07970	0.00288
6756.15102	0.00290
6754.22235	0.00290
6752.29367	0.00290
6750.36499	0.00289
6748.43632	0.00288
6746.50764	0.00289
6744.57897	0.00291
6742.65029	0.00291
6740.72162	0.00291
6738.79294	0.00292
6736.86426	0.00293
6734.93559	0.00293
6733.00691	0.00292
6731.07824	0.00293
6729.14956	0.00294
6727.22089	0.00295
6725.29221	0.00295
6723.36353	0.00296
6721.43486	0.00296
6719.50618	0.00296
6717.57751	0.00296
6715.64883	0.00298
6713.72016	0.00300
6711.79148	0.00300
6709.86280	0.00299
6707.93413	0.00300
6706.00545	0.00300
6704.07678	0.00299
6702.14810	0.00299
6700.21943	0.00300
6698.29075	0.00303
6696.36207	0.00305
6694.43340	0.00306
6692.50472	0.00306
6690.57605	0.00305
6688.64737	0.00305
6686.71870	0.00307
6684.79002	0.00309
6682.86134	0.00310
6680.93267	0.00311
6679.00399	0.00312
6677.07532	0.00312
6675.14664	0.00312
6673.21797	0.00313
6671.28929	0.00315
6669.36061	0.00315
6667.43194	0.00315
6665.50326	0.00317
6663.57459	0.00318
6661.64591	0.00318
6659.71724	0.00318
6657.78856	0.00317
6655.85988	0.00316
6653.93121	0.00317
6652.00253	0.00319
6650.07386	0.00321
6648.14518	0.00322
6646.21651	0.00321
6644.28783	0.00321
6642.35915	0.00323
6640.43048	0.00324
6638.50180	0.00323
6636.57313	0.00323
6634.64445	0.00325
6632.71578	0.00327
6630.78710	0.00329
6628.85842	0.00329
6626.92975	0.00329
6625.00107	0.00329
6623.07240	0.00330
6621.14372	0.00332
6619.21505	0.00333
6617.28637	0.00332
6615.35769	0.00332
6613.42902	0.00333
6611.50034	0.00335
6609.57167	0.00334
6607.64299	0.00333
6605.71432	0.00334
6603.78564	0.00337
6601.85696	0.00339
6599.92829	0.00339
6597.99961	0.00339
6596.07094	0.00340
6594.14226	0.00341
6592.21359	0.00342
6590.28491	0.00342
6588.35623	0.00342
6586.42756	0.00343
6584.49888	0.00345
6582.57021	0.00347
6580.64153	0.00347
6578.71286	0.00347
6576.78418	0.00347
6574.85550	0.00347
6572.92683	0.00347
6570.99815	0.00349
6569.06948	0.00351
6567.14080	0.00351
6565.21213	0.00351
6563.28345	0.00351
6561.35477	0.00351
6559.42610	0.00352
6557.49742	0.00354
6555.56875	0.00355
6553.64007	0.00355
6551.71140	0.00356
6549.78272	0.00358
6547.85404	0.00359
6545.92537	0.00357
6543.99669	0.00357
6542.06802	0.00358
6540.13934	0.00360
6538.21067	0.00363
6536.28199	0.00365
6534.35331	0.00366
6532.42464	0.00365
6530.49596	0.00365
6528.56729	0.00366
6526.63861	0.00366
6524.70994	0.00366
6522.78126	0.00366
6520.85258	0.00367
6518.92391	0.00369
6516.99523	0.00370
6515.06656	0.00370
6513.13788	0.00369
6511.20921	0.00370
6509.28053	0.00371
6507.35185	0.00373
6505.42318	0.00375
6503.49450	0.00377
6501.56583	0.00379
6499.63715	0.00378
6497.70848	0.00377
6495.77980	0.00378
6493.85112	0.00380
6491.92245	0.00381
6489.99377	0.00381
6488.06510	0.00381
6486.13642	0.00381
6484.20775	0.00381
6482.27907	0.00383
6480.35039	0.00385
6478.42172	0.00385
6476.49304	0.00385
6474.56437	0.00386
6472.63569	0.00388
6470.70702	0.00389
6468.77834	0.00389
6466.84966	0.00389
6464.92099	0.00390
6462.99231	0.00390
6461.06364	0.00390
6459.13496	0.00392
6457.20629	0.00395
6455.27761	0.00396
6453.34893	0.00396
6451.42026	0.00396
6449.49158	0.00397
6447.56291	0.00398
6445.63423	0.00399
6443.70556	0.00399
6441.77688	0.00400
6439.84820	0.00403
6437.91953	0.00405
6435.99085	0.00406
6434.06218	0.00405
6432.13350	0.00406
6430.20483	0.00407
6428.27615	0.00407
6426.34747	0.00406
6424.41880	0.00405
6422.49012	0.00407
6420.56145	0.00410
6418.63277	0.00411
6416.70410	0.00411
6414.77542	0.00411
6412.84674	0.00413
6410.91807	0.00414
6408.98939	0.00416
6407.06072	0.00417
6405.13204	0.00419
6403.20337	0.00421
6401.27469	0.00422
6399.34601	0.00422
6397.41734	0.00423
6395.48866	0.00423
6393.55999	0.00423
6391.63131	0.00423
6389.70264	0.00423
6387.77396	0.00424
6385.84528	0.00428
6383.91661	0.00430
6381.98793	0.00429
6380.05926	0.00427
6378.13058	0.00427
6376.20191	0.00428
6374.27323	0.00430
6372.34455	0.00431
6370.41588	0.00433
6368.48720	0.00435
6366.55853	0.00437
6364.62985	0.00437
6362.70118	0.00436
6360.77250	0.00435
6358.84382	0.00436
6356.91515	0.00438
6354.98647	0.00440
6353.05780	0.00441
6351.12912	0.00441
6349.20045	0.00441
6347.27177	0.00442
6345.34309	0.00443
6343.41442	0.00445
6341.48574	0.00446
6339.55707	0.00447
6337.62839	0.00448
6335.69972	0.00449
6333.77104	0.00451
6331.84236	0.00452
6329.91369	0.00454
6327.98501	0.00455
6326.05634	0.00454
6324.12766	0.00456
6322.19899	0.00458
6320.27031	0.00460
6318.34163	0.00460
6316.41296	0.00460
6314.48428	0.00461
6312.55561	0.00463
6310.62693	0.00463
6308.69826	0.00461
6306.76958	0.00461
6304.84090	0.00462
6302.91223	0.00464
6300.98355	0.00466
6299.05488	0.00467
6297.12620	0.00468
6295.19753	0.00470
6293.26885	0.00472
6291.34017	0.00473
6289.41150	0.00474
6287.48282	0.00473
6285.55415	0.00473
6283.62547	0.00474
6281.69680	0.00477
6279.76812	0.00478
6277.83944	0.00478
6275.91077	0.00478
6273.98209	0.00477
6272.05342	0.00478
6270.12474	0.00481
6268.19607	0.00483
6266.26739	0.00484
6264.33871	0.00484
6262.41004	0.00485
6260.48136	0.00488
6258.55269	0.00489
6256.62401	0.00489
6254.69534	0.00490
6252.76666	0.00491
6250.83798	0.00493
6248.90931	0.00494
6246.98063	0.00495
6245.05196	0.00497
6243.12328	0.00498
6241.19461	0.00499
6239.26593	0.00501
6237.33725	0.00502
6235.40858	0.00502
6233.47990	0.00501
6231.55123	0.00503
6229.62255	0.00504
6227.69388	0.00504
6225.76520	0.00505
6223.83652	0.00508
6221.90785	0.00511
6219.97917	0.00511
6218.05050	0.00511
6216.12182	0.00512
6214.19315	0.00513
6212.26447	0.00515
6210.33579	0.00517
6208.40712	0.00517
6206.47844	0.00516
6204.54977	0.00516
6202.62109	0.00518
6200.69242	0.00520
6198.76374	0.00522
6196.83506	0.00523
6194.90639	0.00524
6192.97771	0.00524
6191.04904	0.00525
6189.12036	0.00526
6187.19169	0.00529
6185.26301	0.00529
6183.33433	0.00528
6181.40566	0.00527
6179.47698	0.00529
6177.54831	0.00532
6175.61963	0.00533
6173.69096	0.00533
6171.76228	0.00535
6169.83360	0.00537
6167.90493	0.00537
6165.97625	0.00538
6164.04758	0.00540
6162.11890	0.00542
6160.19023	0.00544
6158.26155	0.00545
6156.33287	0.00546
6154.40420	0.00546
6152.47552	0.00547
6150.54685	0.00549
6148.61817	0.00549
6146.68950	0.00548
6144.76082	0.00549
6142.83214	0.00551
6140.90347	0.00553
6138.97479	0.00553
6137.04612	0.00555
6135.11744	0.00558
6133.18877	0.00560
6131.26009	0.00561
6129.33141	0.00563
6127.40274	0.00563
6125.47406	0.00565
6123.54539	0.00567
6121.61671	0.00567
6119.68804	0.00567
6117.75936	0.00568
6115.83068	0.00569
6113.90201	0.00571
6111.97333	0.00573
6110.04466	0.00574
6108.11598	0.00575
6106.18731	0.00576
6104.25863	0.00578
6102.32995	0.00579
6100.40128	0.00579
6098.47260	0.00579
6096.54393	0.00579
6094.61525	0.00580
6092.68658	0.00580
6090.75790	0.00580
6088.82922	0.00582
6086.90055	0.00585
6084.97187	0.00588
6083.04320	0.00588
6081.11452	0.00588
6079.18585	0.00589
6077.25717	0.00593
6075.32849	0.00595
6073.39982	0.00595
6071.47114	0.00596
6069.54247	0.00597
6067.61379	0.00599
6065.68512	0.00600
6063.75644	0.00601
6061.82776	0.00602
6059.89909	0.00602
6057.97041	0.00602
6056.04174	0.00604
6054.11306	0.00607
6052.18439	0.00610
6050.25571	0.00612
6048.32703	0.00613
6046.39836	0.00614
6044.46968	0.00616
6042.54101	0.00617
6040.61233	0.00617
6038.68366	0.00617
6036.75498	0.00619
6034.82630	0.00622
6032.89763	0.00624
6030.96895	0.00625
6029.04028	0.00625
6027.11160	0.00626
6025.18293	0.00628
6023.25425	0.00630
6021.32557	0.00631
6019.39690	0.00632
6017.46822	0.00632
6015.53955	0.00632
6013.61087	0.00632
6011.68220	0.00633
6009.75352	0.00634
6007.82484	0.00637
6005.89617	0.00640
6003.96749	0.00641
6002.03882	0.00643
6000.11014	0.00644
5998.18147	0.00645
5996.25279	0.00646
5994.32411	0.00646
5992.39544	0.00649
5990.46676	0.00651
5988.53809	0.00653
5986.60941	0.00655
5984.68074	0.00657
5982.75206	0.00657
5980.82338	0.00659
5978.89471	0.00660
5976.96603	0.00661
5975.03736	0.00661
5973.10868	0.00662
5971.18001	0.00663
5969.25133	0.00665
5967.32265	0.00666
5965.39398	0.00668
5963.46530	0.00670
5961.53663	0.00673
5959.60795	0.00673
5957.67928	0.00673
5955.75060	0.00675
5953.82192	0.00677
5951.89325	0.00679
5949.96457	0.00679
5948.03590	0.00679
5946.10722	0.00680
5944.17855	0.00683
5942.24987	0.00685
5940.32119	0.00685
5938.39252	0.00686
5936.46384	0.00688
5934.53517	0.00690
5932.60649	0.00691
5930.67782	0.00693
5928.74914	0.00695
5926.82046	0.00696
5924.89179	0.00697
5922.96311	0.00698
5921.03444	0.00700
5919.10576	0.00700
5917.17709	0.00700
5915.24841	0.00701
5913.31973	0.00703
5911.39106	0.00706
5909.46238	0.00708
5907.53371	0.00709
5905.60503	0.00709
5903.67636	0.00710
5901.74768	0.00714
5899.81900	0.00718
5897.89033	0.00721
5895.96165	0.00723
5894.03298	0.00723
5892.10430	0.00723
5890.17563	0.00725
5888.24695	0.00728
5886.31827	0.00728
5884.38960	0.00728
5882.46092	0.00729
5880.53225	0.00730
5878.60357	0.00731
5876.67490	0.00733
5874.74622	0.00734
5872.81755	0.00735
5870.88887	0.00737
5868.96019	0.00739
5867.03152	0.00742
5865.10284	0.00743
5863.17417	0.00744
5861.24549	0.00745
5859.31682	0.00747
5857.38814	0.00751
5855.45946	0.00753
5853.53079	0.00753
5851.60211	0.00754
5849.67344	0.00755
5847.74476	0.00757
5845.81609	0.00760
5843.88741	0.00762
5841.95873	0.00762
5840.03006	0.00763
5838.10138	0.00766
5836.17271	0.00769
5834.24403	0.00770
5832.31536	0.00771
5830.38668	0.00773
5828.45800	0.00774
5826.52933	0.00774
5824.60065	0.00774
5822.67198	0.00774
5820.74330	0.00775
5818.81463	0.00778
5816.88595	0.00781
5814.95727	0.00784
5813.02860	0.00786
5811.09992	0.00787
5809.17125	0.00788
5807.24257	0.00791
5805.31390	0.00794
5803.38522	0.00796
5801.45654	0.00797
5799.52787	0.00798
5797.59919	0.00798
5795.67052	0.00799
5793.74184	0.00799
5791.81317	0.00800
5789.88449	0.00802
5787.95581	0.00805
5786.02714	0.00808
5784.09846	0.00811
5782.16979	0.00813
5780.24111	0.00815
5778.31244	0.00817
5776.38376	0.00817
5774.45508	0.00818
5772.52641	0.00820
5770.59773	0.00821
5768.66906	0.00821
5766.74038	0.00821
5764.81171	0.00823
5762.88303	0.00825
5760.95435	0.00827
5759.02568	0.00828
5757.09700	0.00830
5755.16833	0.00833
5753.23965	0.00836
5751.31098	0.00837
5749.38230	0.00837
5747.45362	0.00837
5745.52495	0.00839
5743.59627	0.00842
5741.66760	0.00846
5739.73892	0.00849
5737.81025	0.00850
5735.88157	0.00851
5733.95289	0.00853
5732.02422	0.00855
5730.09554	0.00855
5728.16687	0.00855
5726.23819	0.00857
5724.30952	0.00860
5722.38084	0.00861
5720.45216	0.00863
5718.52349	0.00864
5716.59481	0.00864
5714.66614	0.00865
5712.73746	0.00867
5710.80879	0.00870
5708.88011	0.00872
5706.95143	0.00875
5705.02276	0.00878
5703.09408	0.00879
5701.16541	0.00879
5699.23673	0.00881
5697.30806	0.00884
5695.37938	0.00888
5693.45070	0.00891
5691.52203	0.00892
5689.59335	0.00893
5687.66468	0.00896
5685.73600	0.00896
5683.80733	0.00897
5681.87865	0.00898
5679.94997	0.00900
5678.02130	0.00901
5676.09262	0.00903
5674.16395	0.00904
5672.23527	0.00906
5670.30660	0.00910
5668.37792	0.00913
5666.44924	0.00913
5664.52057	0.00911
5662.59189	0.00912
5660.66322	0.00916
5658.73454	0.00920
5656.80587	0.00921
5654.87719	0.00922
5652.94851	0.00923
5651.01984	0.00927
5649.09116	0.00931
5647.16249	0.00933
5645.23381	0.00933
5643.30514	0.00931
5641.37646	0.00931
5639.44778	0.00934
5637.51911	0.00937
5635.59043	0.00941
5633.66176	0.00944
5631.73308	0.00947
5629.80441	0.00949
5627.87573	0.00949
5625.94705	0.00950
5624.01838	0.00951
5622.08970	0.00953
5620.16103	0.00954
5618.23235	0.00955
5616.30368	0.00957
5614.37500	0.00959
5612.44632	0.00962
5610.51765	0.00964
5608.58897	0.00966
5606.66030	0.00969
5604.73162	0.00972
5602.80295	0.00974
5600.87427	0.00975
5598.94559	0.00978
5597.01692	0.00981
5595.08824	0.00983
5593.15957	0.00986
5591.23089	0.00988
5589.30222	0.00989
5587.37354	0.00987
5585.44486	0.00986
5583.51619	0.00987
5581.58751	0.00991
5579.65884	0.00994
5577.73016	0.00996
5575.80149	0.00998
5573.87281	0.01000
5571.94413	0.01002
5570.01546	0.01004
5568.08678	0.01005
5566.15811	0.01007
5564.22943	0.01011
5562.30076	0.01013
5560.37208	0.01016
5558.44340	0.01018
5556.51473	0.01019
5554.58605	0.01021
5552.65738	0.01022
5550.72870	0.01025
5548.80003	0.01027
5546.87135	0.01029
5544.94267	0.01032
5543.01400	0.01035
5541.08532	0.01036
5539.15665	0.01038
5537.22797	0.01040
5535.29930	0.01042
5533.37062	0.01045
5531.44194	0.01046
5529.51327	0.01046
5527.58459	0.01046
5525.65592	0.01048
5523.72724	0.01052
5521.79857	0.01056
5519.86989	0.01059
5517.94121	0.01061
5516.01254	0.01061
5514.08386	0.01062
5512.15519	0.01063
5510.22651	0.01064
5508.29784	0.01064
5506.36916	0.01066
5504.44048	0.01068
5502.51181	0.01069
5500.58313	0.01071
5498.65446	0.01076
5496.72578	0.01081
5494.79711	0.01082
5492.86843	0.01082
5490.93975	0.01084
5489.01108	0.01086
5487.08240	0.01089
5485.15373	0.01093
5483.22505	0.01096
5481.29638	0.01097
5479.36770	0.01099
5477.43902	0.01101
5475.51035	0.01103
5473.58167	0.01105
5471.65300	0.01107
5469.72432	0.01108
5467.79565	0.01109
5465.86697	0.01111
5463.93829	0.01112
5462.00962	0.01115
5460.08094	0.01117
5458.15227	0.01117
5456.22359	0.01120
5454.29492	0.01125
5452.36624	0.01130
5450.43756	0.01132
5448.50889	0.01132
5446.58021	0.01134
5444.65154	0.01137
5442.72286	0.01137
5440.79419	0.01135
5438.86551	0.01136
5436.93683	0.01140
5435.00816	0.01143
5433.07948	0.01147
5431.15081	0.01149
5429.22213	0.01151
5427.29346	0.01151
5425.36478	0.01153
5423.43610	0.01158
5421.50743	0.01162
5419.57875	0.01165
5417.65008	0.01166
5415.72140	0.01167
5413.79273	0.01168
5411.86405	0.01170
5409.93537	0.01172
5408.00670	0.01174
5406.07802	0.01177
5404.14935	0.01180
5402.22067	0.01183
5400.29200	0.01184
5398.36332	0.01184
5396.43464	0.01186
5394.50597	0.01189
5392.57729	0.01191
5390.64862	0.01194
5388.71994	0.01196
5386.79127	0.01198
5384.86259	0.01201
5382.93391	0.01206
5381.00524	0.01209
5379.07656	0.01210
5377.14789	0.01212
5375.21921	0.01215
5373.29054	0.01217
5371.36186	0.01218
5369.43318	0.01219
5367.50451	0.01219
5365.57583	0.01219
5363.64716	0.01221
5361.71848	0.01224
5359.78981	0.01226
5357.86113	0.01230
5355.93245	0.01233
5354.00378	0.01236
5352.07510	0.01238
5350.14643	0.01240
5348.21775	0.01242
5346.28908	0.01245
5344.36040	0.01247
5342.43172	0.01248
5340.50305	0.01249
5338.57437	0.01251
5336.64570	0.01256
5334.71702	0.01261
5332.78835	0.01264
5330.85967	0.01267
5328.93099	0.01268
5327.00232	0.01268
5325.07364	0.01270
5323.14497	0.01271
5321.21629	0.01273
5319.28762	0.01276
5317.35894	0.01280
5315.43026	0.01282
5313.50159	0.01283
5311.57291	0.01284
5309.64424	0.01287
5307.71556	0.01291
5305.78689	0.01294
5303.85821	0.01296
5301.92953	0.01297
5300.00086	0.01300
5298.07218	0.01304
5296.14351	0.01306
5294.21483	0.01307
5292.28616	0.01309
5290.35748	0.01311
5288.42880	0.01312
5286.50013	0.01314
5284.57145	0.01317
5282.64278	0.01320
5280.71410	0.01324
5278.78543	0.01327
5276.85675	0.01329
5274.92807	0.01331
5272.99940	0.01333
5271.07072	0.01336
5269.14205	0.01338
5267.21337	0.01338
5265.28470	0.01338
5263.35602	0.01339
5261.42734	0.01343
5259.49867	0.01347
5257.56999	0.01351
5255.64132	0.01355
5253.71264	0.01356
5251.78397	0.01357
5249.85529	0.01359
5247.92661	0.01362
5245.99794	0.01365
5244.06926	0.01367
5242.14059	0.01369
5240.21191	0.01370
5238.28324	0.01373
5236.35456	0.01376
5234.42588	0.01380
5232.49721	0.01382
5230.56853	0.01386
5228.63986	0.01388
5226.71118	0.01390
5224.78251	0.01393
5222.85383	0.01396
5220.92515	0.01398
5218.99648	0.01401
5217.06780	0.01404
5215.13913	0.01404
5213.21045	0.01403
5211.28178	0.01405
5209.35310	0.01408
5207.42442	0.01410
5205.49575	0.01414
5203.56707	0.01419
5201.63840	0.01422
5199.70972	0.01424
5197.78105	0.01428
5195.85237	0.01431
5193.92369	0.01432
5191.99502	0.01432
5190.06634	0.01432
5188.13767	0.01434
5186.20899	0.01437
5184.28032	0.01440
5182.35164	0.01442
5180.42296	0.01445
5178.49429	0.01447
5176.56561	0.01449
5174.63694	0.01452
5172.70826	0.01456
5170.77959	0.01460
5168.85091	0.01463
5166.92223	0.01465
5164.99356	0.01468
5163.06488	0.01471
5161.13621	0.01472
5159.20753	0.01474
5157.27886	0.01476
5155.35018	0.01478
5153.42150	0.01479
5151.49283	0.01481
5149.56415	0.01484
5147.63548	0.01488
5145.70680	0.01491
5143.77813	0.01494
5141.84945	0.01498
5139.92077	0.01500
5137.99210	0.01500
5136.06342	0.01503
5134.13475	0.01508
5132.20607	0.01512
5130.27740	0.01516
5128.34872	0.01518
5126.42004	0.01520
5124.49137	0.01521
5122.56269	0.01521
5120.63402	0.01522
5118.70534	0.01525
5116.77667	0.01529
5114.84799	0.01532
5112.91931	0.01534
5110.99064	0.01535
5109.06196	0.01537
5107.13329	0.01540
5105.20461	0.01543
5103.27594	0.01545
5101.34726	0.01547
5099.41858	0.01548
5097.48991	0.01552
5095.56123	0.01556
5093.63256	0.01559
5091.70388	0.01561
5089.77521	0.01565
5087.84653	0.01570
5085.91785	0.01573
5083.98918	0.01574
5082.06050	0.01576
5080.13183	0.01579
5078.20315	0.01581
5076.27448	0.01584
5074.34580	0.01586
5072.41712	0.01588
5070.48845	0.01590
5068.55977	0.01592
5066.63110	0.01596
5064.70242	0.01600
5062.77375	0.01603
5060.84507	0.01605
5058.91639	0.01607
5056.98772	0.01609
5055.05904	0.01611
5053.13037	0.01613
5051.20169	0.01617
5049.27302	0.01621
5047.34434	0.01624
5045.41566	0.01627
5043.48699	0.01628
5041.55831	0.01630
5039.62964	0.01632
5037.70096	0.01635
5035.77229	0.01637
5033.84361	0.01639
5031.91493	0.01642
5029.98626	0.01644
5028.05758	0.01646
5026.12891	0.01649
5024.20023	0.01653
5022.27156	0.01656
5020.34288	0.01659
5018.41420	0.01662
5016.48553	0.01665
5014.55685	0.01668
5012.62818	0.01671
5010.69950	0.01674
5008.77083	0.01677
5006.84215	0.01681
5004.91347	0.01685
5002.98480	0.01688
5001.05612	0.01690
4999.12745	0.01690
4997.19877	0.01692
4995.27010	0.01693
4993.34142	0.01695
4991.41274	0.01699
4989.48407	0.01702
4987.55539	0.01705
4985.62672	0.01707
4983.69804	0.01711
4981.76937	0.01716
4979.84069	0.01719
4977.91201	0.01719
4975.98334	0.01720
4974.05466	0.01725
4972.12599	0.01730
4970.19731	0.01734
4968.26864	0.01736
4966.33996	0.01739
4964.41128	0.01741
4962.48261	0.01742
4960.55393	0.01744
4958.62526	0.01747
4956.69658	0.01750
4954.76791	0.01753
4952.83923	0.01756
4950.91055	0.01761
4948.98188	0.01764
4947.05320	0.01767
4945.12453	0.01770
4943.19585	0.01771
4941.26718	0.01771
4939.33850	0.01773
4937.40982	0.01777
4935.48115	0.01780
4933.55247	0.01781
4931.62380	0.01783
4929.69512	0.01787
4927.76645	0.01790
4925.83777	0.01793
4923.90909	0.01797
4921.98042	0.01802
4920.05174	0.01807
4918.12307	0.01809
4916.19439	0.01811
4914.26572	0.01813
4912.33704	0.01816
4910.40836	0.01818
4908.47969	0.01821
4906.55101	0.01824
4904.62234	0.01827
4902.69366	0.01830
4900.76499	0.01835
4898.83631	0.01836
4896.90763	0.01837
4894.97896	0.01839
4893.05028	0.01842
4891.12161	0.01845
4889.19293	0.01848
4887.26426	0.01851
4885.33558	0.01854
4883.40690	0.01857
4881.47823	0.01858
4879.54955	0.01861
4877.62088	0.01866
4875.69220	0.01869
4873.76353	0.01870
4871.83485	0.01872
4869.90617	0.01876
4867.97750	0.01880
4866.04882	0.01881
4864.12015	0.01883
4862.19147	0.01889
4860.26280	0.01897
4858.33412	0.01901
4856.40544	0.01900
4854.47677	0.01901
4852.54809	0.01907
4850.61942	0.01911
4848.69074	0.01914
4846.76207	0.01915
4844.83339	0.01916
4842.90471	0.01915
4840.97604	0.01918
4839.04736	0.01922
4837.11869	0.01926
4835.19001	0.01930
4833.26134	0.01934
4831.33266	0.01938
4829.40398	0.01942
4827.47531	0.01946
4825.54663	0.01949
4823.61796	0.01951
4821.68928	0.01952
4819.76061	0.01954
4817.83193	0.01958
4815.90325	0.01964
4813.97458	0.01968
4812.04590	0.01973
4810.11723	0.01978
4808.18855	0.01982
4806.25988	0.01983
4804.33120	0.01983
4802.40252	0.01983
4800.47385	0.01986
4798.54517	0.01991
4796.61650	0.01997
4794.68782	0.01999
4792.75915	0.02000
4790.83047	0.02002
4788.90179	0.02007
4786.97312	0.02013
4785.04444	0.02018
4783.11577	0.02021
4781.18709	0.02020
4779.25842	0.02020
4777.32974	0.02023
4775.40106	0.02027
4773.47239	0.02031
4771.54371	0.02034
4769.61504	0.02036
4767.68636	0.02039
4765.75769	0.02044
4763.82901	0.02048
4761.90033	0.02051
4759.97166	0.02053
4758.04298	0.02055
4756.11431	0.02057
4754.18563	0.02062
4752.25696	0.02068
4750.32828	0.02072
4748.39960	0.02074
4746.47093	0.02076
4744.54225	0.02080
4742.61358	0.02084
4740.68490	0.02088
4738.75623	0.02091
4736.82755	0.02096
4734.89887	0.02100
4732.97020	0.02103
4731.04152	0.02104
4729.11285	0.02104
4727.18417	0.02106
4725.25550	0.02112
4723.32682	0.02118
4721.39814	0.02122
4719.46947	0.02125
4717.54079	0.02128
4715.61212	0.02132
4713.68344	0.02134
4711.75477	0.02135
4709.82609	0.02136
4707.89741	0.02140
4705.96874	0.02145
4704.04006	0.02150
4702.11139	0.02156
4700.18271	0.02160
4698.25404	0.02161
4696.32536	0.02161
4694.39668	0.02164
4692.46801	0.02169
4690.53933	0.02174
4688.61066	0.02177
4686.68198	0.02182
4684.75331	0.02185
4682.82463	0.02188
4680.89595	0.02191
4678.96728	0.02196
4677.03860	0.02201
4675.10993	0.02205
4673.18125	0.02207
4671.25258	0.02209
4669.32390	0.02213
4667.39522	0.02216
4665.46655	0.02220
4663.53787	0.02223
4661.60920	0.02226
4659.68052	0.02230
4657.75185	0.02234
4655.82317	0.02236
4653.89449	0.02239
4651.96582	0.02243
4650.03714	0.02248
4648.10847	0.02252
4646.17979	0.02257
4644.25112	0.02260
4642.32244	0.02264
4640.39376	0.02268
4638.46509	0.02273
4636.53641	0.02278
4634.60774	0.02281
4632.67906	0.02285
4630.75039	0.02290
4628.82171	0.02295
4626.89303	0.02298
4624.96436	0.02301
4623.03568	0.02304
4621.10701	0.02306
4619.17833	0.02310
4617.24966	0.02314
4615.32098	0.02318
4613.39230	0.02319
4611.46363	0.02322
4609.53495	0.02325
4607.60628	0.02329
4605.67760	0.02333
4603.74893	0.02337
4601.82025	0.02342
4599.89157	0.02346
4597.96290	0.02349
4596.03422	0.02352
4594.10555	0.02357
4592.17687	0.02363
4590.24820	0.02368
4588.31952	0.02372
4586.39084	0.02374
4584.46217	0.02377
4582.53349	0.02381
4580.60482	0.02386
4578.67614	0.02391
4576.74747	0.02395
4574.81879	0.02398
4572.89011	0.02401
4570.96144	0.02405
4569.03276	0.02410
4567.10409	0.02414
4565.17541	0.02419
4563.24674	0.02424
4561.31806	0.02428
4559.38938	0.02430
4557.46071	0.02431
4555.53203	0.02435
4553.60336	0.02439
4551.67468	0.02444
4549.74601	0.02448
4547.81733	0.02453
4545.88865	0.02457
4543.95998	0.02461
4542.03130	0.02464
4540.10263	0.02468
4538.17395	0.02471
4536.24528	0.02476
4534.31660	0.02480
4532.38792	0.02485
4530.45925	0.02489
4528.53057	0.02492
4526.60190	0.02495
4524.67322	0.02499
4522.74455	0.02503
4520.81587	0.02506
4518.88719	0.02511
4516.95852	0.02518
4515.02984	0.02523
4513.10117	0.02527
4511.17249	0.02532
4509.24382	0.02535
4507.31514	0.02538
4505.38646	0.02542
4503.45779	0.02548
4501.52911	0.02554
4499.60044	0.02559
4497.67176	0.02565
4495.74309	0.02570
4493.81441	0.02572
4491.88573	0.02573
4489.95706	0.02576
4488.02838	0.02580
4486.09971	0.02585
4484.17103	0.02589
4482.24236	0.02593
4480.31368	0.02598
4478.38500	0.02603
4476.45633	0.02607
4474.52765	0.02611
4472.59898	0.02617
4470.67030	0.02622
4468.74163	0.02626
4466.81295	0.02629
4464.88427	0.02635
4462.95560	0.02641
4461.02692	0.02645
4459.09825	0.02648
4457.16957	0.02652
4455.24090	0.02658
4453.31222	0.02663
4451.38354	0.02665
4449.45487	0.02669
4447.52619	0.02673
4445.59752	0.02677
4443.66884	0.02681
4441.74017	0.02687
4439.81149	0.02693
4437.88281	0.02699
4435.95414	0.02704
4434.02546	0.02709
4432.09679	0.02714
4430.16811	0.02718
4428.23944	0.02721
4426.31076	0.02725
4424.38208	0.02730
4422.45341	0.02735
4420.52473	0.02741
4418.59606	0.02748
4416.66738	0.02753
4414.73871	0.02758
4412.81003	0.02762
4410.88135	0.02767
4408.95268	0.02772
4407.02400	0.02775
4405.09533	0.02779
4403.16665	0.02785
4401.23798	0.02789
4399.30930	0.02793
4397.38062	0.02797
4395.45195	0.02803
4393.52327	0.02809
4391.59460	0.02814
4389.66592	0.02819
4387.73725	0.02825
4385.80857	0.02829
4383.87989	0.02832
4381.95122	0.02837
4380.02254	0.02842
4378.09387	0.02846
4376.16519	0.02851
4374.23652	0.02858
4372.30784	0.02864
4370.37916	0.02868
4368.45049	0.02872
4366.52181	0.02877
4364.59314	0.02881
4362.66446	0.02884
4360.73579	0.02887
4358.80711	0.02894
4356.87843	0.02902
4354.94976	0.02907
4353.02108	0.02911
4351.09241	0.02918
4349.16373	0.02924
4347.23506	0.02928
4345.30638	0.02932
4343.37770	0.02938
4341.44903	0.02943
4339.52035	0.02948
4337.59168	0.02951
4335.66300	0.02956
4333.73433	0.02962
4331.80565	0.02969
4329.87697	0.02973
4327.94830	0.02977
4326.01962	0.02982
4324.09095	0.02989
4322.16227	0.02995
4320.23360	0.03003
4318.30492	0.03009
4316.37624	0.03013
4314.44757	0.03018
4312.51889	0.03023
4310.59022	0.03028
4308.66154	0.03034
4306.73287	0.03041
4304.80419	0.03047
4302.87551	0.03053
4300.94684	0.03057
4299.01816	0.03062
4297.08949	0.03068
4295.16081	0.03076
4293.23214	0.03084
4291.30346	0.03089
4289.37478	0.03092
4287.44611	0.03096
4285.51743	0.03103
4283.58876	0.03109
4281.66008	0.03114
4279.73141	0.03120
4277.80273	0.03126
4275.87405	0.03133
4273.94538	0.03138
4272.01670	0.03142
4270.08803	0.03147
4268.15935	0.03153
4266.23068	0.03158
4264.30200	0.03163
4262.37332	0.03167
4260.44465	0.03173
4258.51597	0.03179
4256.58730	0.03185
4254.65862	0.03192
4252.72995	0.03199
4250.80127	0.03204
4248.87259	0.03208
4246.94392	0.03215
4245.01524	0.03222
4243.08657	0.03229
4241.15789	0.03235
4239.22922	0.03239
4237.30054	0.03244
4235.37186	0.03251
4233.44319	0.03258
4231.51451	0.03264
4229.58584	0.03270
4227.65716	0.03274
4225.72849	0.03279
4223.79981	0.03285
4221.87113	0.03292
4219.94246	0.03299
4218.01378	0.03305
4216.08511	0.03311
4214.15643	0.03318
4212.22776	0.03326
4210.29908	0.03333
4208.37040	0.03339
4206.44173	0.03343
4204.51305	0.03349
4202.58438	0.03356
4200.65570	0.03361
4198.72703	0.03367
4196.79835	0.03375
4194.86968	0.03381
4192.94100	0.03386
4191.01232	0.03392
4189.08365	0.03399
4187.15497	0.03405
4185.22630	0.03411
4183.29762	0.03417
4181.36895	0.03424
4179.44027	0.03431
4177.51159	0.03438
4175.58292	0.03443
4173.65424	0.03447
4171.72557	0.03456
4169.79689	0.03464
4167.86822	0.03470
4165.93954	0.03474
4164.01086	0.03482
4162.08219	0.03489
4160.15351	0.03495
4158.22484	0.03503
4156.29616	0.03511
4154.36749	0.03518
4152.43881	0.03524
4150.51013	0.03528
4148.58146	0.03531
4146.65278	0.03535
4144.72411	0.03542
4142.79543	0.03550
4140.86676	0.03559
4138.93808	0.03567
4137.00940	0.03574
4135.08073	0.03581
4133.15205	0.03587
4131.22338	0.03594
4129.29470	0.03601
4127.36603	0.03606
4125.43735	0.03610
4123.50867	0.03617
4121.58000	0.03626
4119.65132	0.03633
4117.72265	0.03640
4115.79397	0.03648
4113.86530	0.03657
4111.93662	0.03665
4110.00794	0.03670
4108.07927	0.03675
4106.15059	0.03681
4104.22192	0.03689
4102.29324	0.03695
4100.36457	0.03700
4098.43589	0.03706
4096.50721	0.03714
4094.57854	0.03723
4092.64986	0.03732
4090.72119	0.03740
4088.79251	0.03748
4086.86384	0.03755
4084.93516	0.03761
4083.00648	0.03766
4081.07781	0.03771
4079.14913	0.03776
4077.22046	0.03784
4075.29178	0.03794
4073.36311	0.03801
4071.43443	0.03806
4069.50575	0.03813
4067.57708	0.03821
4065.64840	0.03829
4063.71973	0.03835
4061.79105	0.03841
4059.86238	0.03850
4057.93370	0.03858
4056.00502	0.03865
4054.07635	0.03872
4052.14767	0.03880
4050.21900	0.03887
4048.29032	0.03894
4046.36165	0.03900
4044.43297	0.03906
4042.50429	0.03914
4040.57562	0.03923
4038.64694	0.03932
4036.71827	0.03939
4034.78959	0.03944
4032.86092	0.03948
4030.93224	0.03955
4029.00356	0.03966
4027.07489	0.03976
4025.14621	0.03984
4023.21754	0.03991
4021.28886	0.03996
4019.36019	0.04003
4017.43151	0.04011
4015.50283	0.04019
4013.57416	0.04026
4011.64548	0.04033
4009.71681	0.04042
4007.78813	0.04051
4005.85946	0.04059
4003.93078	0.04067
4002.00210	0.04075
4000.07343	0.04081
3998.14475	0.04087
3996.21608	0.04096
3994.28740	0.04105
3992.35873	0.04111
3990.43005	0.04116
3988.50137	0.04123
3986.57270	0.04133
3984.64402	0.04142
3982.71535	0.04150
3980.78667	0.04157
3978.85800	0.04165
3976.92932	0.04172
3975.00064	0.04179
3973.07197	0.04187
3971.14329	0.04196
3969.21462	0.04205
3967.28594	0.04213
3965.35727	0.04222
3963.42859	0.04228
3961.49991	0.04235
3959.57124	0.04244
3957.64256	0.04252
3955.71389	0.04259
3953.78521	0.04266
3951.85654	0.04274
3949.92786	0.04282
3947.99918	0.04291
3946.07051	0.04298
3944.14183	0.04305
3942.21316	0.04313
3940.28448	0.04323
3938.35581	0.04330
3936.42713	0.04337
3934.49845	0.04346
3932.56978	0.04354
3930.64110	0.04361
3928.71243	0.04367
3926.78375	0.04376
3924.85508	0.04386
3922.92640	0.04394
3920.99772	0.04398
3919.06905	0.04403
3917.14037	0.04412
3915.21170	0.04425
3913.28302	0.04437
3911.35435	0.04447
3909.42567	0.04455
3907.49699	0.04457
3905.56832	0.04454
3903.63964	0.04456
3901.71097	0.04466
3899.78229	0.04477
3897.85362	0.04493
3895.92494	0.04510
3893.99626	0.04520
3892.06759	0.04524
3890.13891	0.04532
3888.21024	0.04538
3886.28156	0.04538
3884.35289	0.04543
3882.42421	0.04552
3880.49553	0.04562
3878.56686	0.04578
3876.63818	0.04591
3874.70951	0.04596
3872.78083	0.04595
3870.85216	0.04593
3868.92348	0.04603
3866.99480	0.04622
3865.06613	0.04635
3863.13745	0.04645
3861.20878	0.04657
3859.28010	0.04668
3857.35143	0.04666
3855.42275	0.04649
3853.49407	0.04647
3851.56540	0.04675
3849.63672	0.04706
3847.70805	0.04722
3845.77937	0.04726
3843.85070	0.04730
3841.92202	0.04737
3839.99334	0.04747
3838.06467	0.04758
3836.13599	0.04769
3834.20732	0.04776
3832.27864	0.04783
3830.34997	0.04795
3828.42129	0.04808
3826.49261	0.04818
3824.56394	0.04823
3822.63526	0.04822
3820.70659	0.04828
3818.77791	0.04846
3816.84924	0.04861
3814.92056	0.04873
3812.99188	0.04888
3811.06321	0.04899
3809.13453	0.04901
3807.20586	0.04899
3805.27718	0.04904
3803.34851	0.04911
3801.41983	0.04920
3799.49115	0.04937
3797.56248	0.04954
3795.63380	0.04966
3793.70513	0.04978
3791.77645	0.04991
3789.84778	0.05003
3787.91910	0.05012
3785.99042	0.05019
3784.06175	0.05025
3782.13307	0.05030
3780.20440	0.05034
3778.27572	0.05044
3776.34705	0.05056
3774.41837	0.05065
3772.48969	0.05073
3770.56102	0.05082
3768.63234	0.05091
3766.70367	0.05100
3764.77499	0.05113
3762.84632	0.05126
3760.91764	0.05132
3758.98896	0.05136
3757.06029	0.05142
3755.13161	0.05145
3753.20294	0.05139
3751.27426	0.05130
3749.34559	0.05135
3747.41691	0.05154
3745.48823	0.05167
3743.55956	0.05184
3741.63088	0.05209
3739.70221	0.05226
3737.77353	0.05224
3735.84486	0.05218
3733.91618	0.05225
3731.98750	0.05248
3730.05883	0.05269
3728.13015	0.05278
3726.20148	0.05285
3724.27280	0.05297
3722.34413	0.05312
3720.41545	0.05328
3718.48677	0.05341
3716.55810	0.05346
3714.62942	0.05340
3712.70075	0.05335
3710.77207	0.05348
3708.84340	0.05371
3706.91472	0.05389
3704.98604	0.05397
3703.05737	0.05401
3701.12869	0.05410
3699.20002	0.05424
3697.27134	0.05435
3695.34267	0.05444
3693.41399	0.05448
3691.48531	0.05449
3689.55664	0.05452
3687.62796	0.05468
3685.69929	0.05491
3683.77061	0.05507
3681.84194	0.05515
3679.91326	0.05516
3677.98458	0.05511
3676.05591	0.05505
3674.12723	0.05509
3672.19856	0.05519
3670.26988	0.05534
3668.34121	0.05560
3666.41253	0.05586
3664.48385	0.05599
3662.55518	0.05608
3660.62650	0.05613
3658.69783	0.05612
3656.76915	0.05612
3654.84048	0.05618
3652.91180	0.05622
3650.98312	0.05614
3649.05445	0.05609
3647.12577	0.05623
3645.19710	0.05651
3643.26842	0.05673
3641.33975	0.05686
3639.41107	0.05698
3637.48239	0.05710
3635.55372	0.05719
3633.62504	0.05721
3631.69637	0.05710
3629.76769	0.05699
3627.83902	0.05712
3625.91034	0.05741
3623.98166	0.05761
3622.05299	0.05766
3620.12431	0.05765
3618.19564	0.05767
3616.26696	0.05776
3614.33829	0.05788
3612.40961	0.05799
3610.48093	0.05806
3608.55226	0.05808
3606.62358	0.05817
3604.69491	0.05831
3602.76623	0.05843
3600.83756	0.05850
3598.90888	0.05854
3596.98020	0.05858
3595.05153	0.05867
3593.12285	0.05879
3591.19418	0.05885
3589.26550	0.05880
3587.33683	0.05883
3585.40815	0.05900
3583.47947	0.05917
3581.55080	0.05928
3579.62212	0.05937
3577.69345	0.05945
3575.76477	0.05954
3573.83610	0.05962
3571.90742	0.05965
3569.97874	0.05964
3568.05007	0.05964
3566.12139	0.05975
3564.19272	0.05994
3562.26404	0.06010
3560.33537	0.06019
3558.40669	0.06026
3556.47801	0.06031
3554.54934	0.06034
3552.62066	0.06038
3550.69199	0.06043
3548.76331	0.06048
3546.83464	0.06054
3544.90596	0.06064
3542.97728	0.06077
3541.04861	0.06086
3539.11993	0.06092
3537.19126	0.06097
3535.26258	0.06103
3533.33391	0.06110
3531.40523	0.06112
3529.47655	0.06113
3527.54788	0.06116
3525.61920	0.06122
3523.69053	0.06131
3521.76185	0.06139
3519.83318	0.06145
3517.90450	0.06150
3515.97582	0.06154
3514.04715	0.06156
3512.11847	0.06158
3510.18980	0.06162
3508.26112	0.06166
3506.33245	0.06169
3504.40377	0.06170
3502.47509	0.06171
3500.54642	0.06177
3498.61774	0.06184
3496.68907	0.06188
3494.76039	0.06192
3492.83172	0.06197
3490.90304	0.06200
3488.97436	0.06200
3487.04569	0.06201
3485.11701	0.06203
3483.18834	0.06204
3481.25966	0.06207
3479.33099	0.06213
3477.40231	0.06222
3475.47363	0.06231
3473.54496	0.06239
3471.61628	0.06252
3469.68761	0.06265
3467.75893	0.06275
3465.83026	0.06284
3463.90158	0.06294
3461.97290	0.06306
3460.04423	0.06318
3458.11555	0.06327
3456.18688	0.06335
3454.25820	0.06343
3452.32953	0.06351
3450.40085	0.06358
3448.47217	0.06365
3446.54350	0.06374
3444.61482	0.06386
3442.68615	0.06400
3440.75747	0.06413
3438.82880	0.06427
3436.90012	0.06444
3434.97144	0.06462
3433.04277	0.06481
3431.11409	0.06503
3429.18542	0.06524
3427.25674	0.06543
3425.32807	0.06562
3423.39939	0.06581
3421.47071	0.06600
3419.54204	0.06619
3417.61336	0.06637
3415.68469	0.06654
3413.75601	0.06667
3411.82734	0.06678
3409.89866	0.06693
3407.96998	0.06710
3406.04131	0.06724
3404.11263	0.06734
3402.18396	0.06744
3400.25528	0.06756
3398.32661	0.06771
3396.39793	0.06786
3394.46925	0.06799
3392.54058	0.06812
3390.61190	0.06826
3388.68323	0.06842
3386.75455	0.06858
3384.82588	0.06872
3382.89720	0.06886
3380.96852	0.06900
3379.03985	0.06914
3377.11117	0.06926
3375.18250	0.06938
3373.25382	0.06949
3371.32515	0.06960
3369.39647	0.06972
3367.46779	0.06985
3365.53912	0.06999
3363.61044	0.07011
3361.68177	0.07022
3359.75309	0.07034
3357.82442	0.07046
3355.89574	0.07058
3353.96706	0.07071
3352.03839	0.07082
3350.10971	0.07092
3348.18104	0.07105
3346.25236	0.07119
3344.32369	0.07132
3342.39501	0.07143
3340.46633	0.07156
3338.53766	0.07170
3336.60898	0.07184
3334.68031	0.07196
3332.75163	0.07206
3330.82296	0.07218
3328.89428	0.07233
3326.96560	0.07246
3325.03693	0.07258
3323.10825	0.07269
3321.17958	0.07280
3319.25090	0.07294
3317.32223	0.07311
3315.39355	0.07327
3313.46487	0.07340
3311.53620	0.07350
3309.60752	0.07360
3307.67885	0.07373
3305.75017	0.07388
3303.82150	0.07402
3301.89282	0.07416
3299.96414	0.07431
3298.03547	0.07445
3296.10679	0.07457
3294.17812	0.07468
3292.24944	0.07480
3290.32077	0.07492
3288.39209	0.07508
3286.46341	0.07526
3284.53474	0.07541
3282.60606	0.07553
3280.67739	0.07565
3278.74871	0.07579
3276.82004	0.07595
3274.89136	0.07609
3272.96268	0.07620
3271.03401	0.07632
3269.10533	0.07645
3267.17666	0.07659
3265.24798	0.07673
3263.31931	0.07686
3261.39063	0.07697
3259.46195	0.07709
3257.53328	0.07723
3255.60460	0.07736
3253.67593	0.07750
3251.74725	0.07765
3249.81858	0.07781
3247.88990	0.07794
3245.96122	0.07810
3244.03255	0.07826
3242.10387	0.07840
3240.17520	0.07853
3238.24652	0.07865
3236.31785	0.07877
3234.38917	0.07890
3232.46049	0.07900
3230.53182	0.07909
3228.60314	0.07924
3226.67447	0.07942
3224.74579	0.07959
3222.81712	0.07972
3220.88844	0.07984
3218.95976	0.07996
3217.03109	0.08010
3215.10241	0.08025
3213.17374	0.08039
3211.24506	0.08054
3209.31639	0.08068
3207.38771	0.08082
3205.45903	0.08095
3203.53036	0.08110
3201.60168	0.08127
3199.67301	0.08142
3197.74433	0.08154
3195.81566	0.08167
3193.88698	0.08180
3191.95830	0.08195
3190.02963	0.08210
3188.10095	0.08224
3186.17228	0.08240
3184.24360	0.08256
3182.31493	0.08273
3180.38625	0.08289
3178.45757	0.08302
3176.52890	0.08315
3174.60022	0.08329
3172.67155	0.08344
3170.74287	0.08359
3168.81420	0.08370
3166.88552	0.08382
3164.95684	0.08395
3163.02817	0.08411
3161.09949	0.08428
3159.17082	0.08443
3157.24214	0.08457
3155.31347	0.08471
3153.38479	0.08485
3151.45611	0.08499
3149.52744	0.08514
3147.59876	0.08528
3145.67009	0.08542
3143.74141	0.08556
3141.81274	0.08570
3139.88406	0.08584
3137.95538	0.08597
3136.02671	0.08612
3134.09803	0.08626
3132.16936	0.08637
3130.24068	0.08650
3128.31201	0.08666
3126.38333	0.08682
3124.45465	0.08695
3122.52598	0.08709
3120.59730	0.08723
3118.66863	0.08738
3116.73995	0.08752
3114.81128	0.08764
3112.88260	0.08776
3110.95392	0.08788
3109.02525	0.08803
3107.09657	0.08819
3105.16790	0.08834
3103.23922	0.08850
3101.31055	0.08868
3099.38187	0.08884
3097.45319	0.08899
3095.52452	0.08914
3093.59584	0.08928
3091.66717	0.08943
3089.73849	0.08958
3087.80982	0.08970
3085.88114	0.08982
3083.95246	0.08996
3082.02379	0.09010
3080.09511	0.09022
3078.16644	0.09037
3076.23776	0.09053
3074.30909	0.09069
3072.38041	0.09084
3070.45173	0.09098
3068.52306	0.09110
3066.59438	0.09125
3064.66571	0.09142
3062.73703	0.09157
3060.80836	0.09169
3058.87968	0.09180
3056.95100	0.09189
3055.02233	0.09201
3053.09365	0.09219
3051.16498	0.09238
3049.23630	0.09252
3047.30763	0.09263
3045.37895	0.09275
3043.45027	0.09289
3041.52160	0.09305
3039.59292	0.09319
3037.66425	0.09333
3035.73557	0.09346
3033.80690	0.09356
3031.87822	0.09368
3029.94954	0.09384
3028.02087	0.09403
3026.09219	0.09422
3024.16352	0.09436
3022.23484	0.09451
3020.30617	0.09469
3018.37749	0.09483
3016.44881	0.09494
3014.52014	0.09503
3012.59146	0.09515
3010.66279	0.09529
3008.73411	0.09545
3006.80544	0.09559
3004.87676	0.09572
3002.94808	0.09584
3001.01941	0.09596
2999.09073	0.09611
2997.16206	0.09625
2995.23338	0.09638
2993.30471	0.09652
2991.37603	0.09666
2989.44735	0.09681
2987.51868	0.09694
2985.59000	0.09704
2983.66133	0.09712
2981.73265	0.09720
2979.80398	0.09725
2977.87530	0.09729
2975.94662	0.09732
2974.01795	0.09735
2972.08927	0.09736
2970.16060	0.09733
2968.23192	0.09728
2966.30325	0.09728
2964.37457	0.09733
2962.44589	0.09739
2960.51722	0.09750
2958.58854	0.09766
2956.65987	0.09784
2954.73119	0.09803
2952.80252	0.09822
2950.87384	0.09839
2948.94516	0.09856
2947.01649	0.09870
2945.08781	0.09882
2943.15914	0.09890
2941.23046	0.09894
2939.30179	0.09895
2937.37311	0.09893
2935.44443	0.09888
2933.51576	0.09882
2931.58708	0.09877
2929.65841	0.09874
2927.72973	0.09870
2925.80106	0.09866
2923.87238	0.09865
2921.94370	0.09869
2920.01503	0.09880
2918.08635	0.09897
2916.15768	0.09926
2914.22900	0.09971
2912.30033	0.10022
2910.37165	0.10068
2908.44297	0.10104
2906.51430	0.10131
2904.58562	0.10153
2902.65695	0.10177
2900.72827	0.10201
2898.79960	0.10222
2896.87092	0.10242
2894.94224	0.10265
2893.01357	0.10290
2891.08489	0.10311
2889.15622	0.10330
2887.22754	0.10347
2885.29887	0.10363
2883.37019	0.10378
2881.44151	0.10391
2879.51284	0.10405
2877.58416	0.10422
2875.65549	0.10436
2873.72681	0.10446
2871.79814	0.10457
2869.86946	0.10470
2867.94078	0.10483
2866.01211	0.10495
2864.08343	0.10506
2862.15476	0.10511
2860.22608	0.10514
2858.29741	0.10515
2856.36873	0.10511
2854.44005	0.10505
2852.51138	0.10502
2850.58270	0.10514
2848.65403	0.10547
2846.72535	0.10592
2844.79668	0.10642
2842.86800	0.10690
2840.93932	0.10728
2839.01065	0.10753
2837.08197	0.10771
2835.15330	0.10790
2833.22462	0.10809
2831.29595	0.10828
2829.36727	0.10848
2827.43859	0.10869
2825.50992	0.10890
2823.58124	0.10907
2821.65257	0.10922
2819.72389	0.10937
2817.79522	0.10953
2815.86654	0.10971
2813.93786	0.10986
2812.00919	0.10998
2810.08051	0.11011
2808.15184	0.11028
2806.22316	0.11046
2804.29449	0.11063
2802.36581	0.11080
2800.43713	0.11095
2798.50846	0.11108
2796.57978	0.11121
2794.65111	0.11138
2792.72243	0.11156
2790.79376	0.11175
2788.86508	0.11192
2786.93640	0.11205
2785.00773	0.11217
2783.07905	0.11233
2781.15038	0.11252
2779.22170	0.11269
2777.29303	0.11283
2775.36435	0.11298
2773.43567	0.11313
2771.50700	0.11328
2769.57832	0.11342
2767.64965	0.11358
2765.72097	0.11374
2763.79230	0.11388
2761.86362	0.11402
2759.93494	0.11418
2758.00627	0.11434
2756.07759	0.11449
2754.14892	0.11463
2752.22024	0.11477
2750.29157	0.11491
2748.36289	0.11506
2746.43421	0.11522
2744.50554	0.11538
2742.57686	0.11554
2740.64819	0.11572
2738.71951	0.11589
2736.79084	0.11603
2734.86216	0.11614
2732.93348	0.11625
2731.00481	0.11638
2729.07613	0.11655
2727.14746	0.11675
2725.21878	0.11692
2723.29011	0.11702
2721.36143	0.11715
2719.43275	0.11734
2717.50408	0.11753
2715.57540	0.11767
2713.64673	0.11782
2711.71805	0.11800
2709.78938	0.11814
2707.86070	0.11826
2705.93202	0.11836
2704.00335	0.11847
2702.07467	0.11859
2700.14600	0.11874
2698.21732	0.11892
2696.28865	0.11909
2694.35997	0.11924
2692.43129	0.11938
2690.50262	0.11953
2688.57394	0.11967
2686.64527	0.11981
2684.71659	0.11998
2682.78792	0.12017
2680.85924	0.12034
2678.93056	0.12047
2677.00189	0.12060
2675.07321	0.12075
2673.14454	0.12089
2671.21586	0.12102
2669.28719	0.12117
2667.35851	0.12136
2665.42983	0.12151
2663.50116	0.12162
2661.57248	0.12175
2659.64381	0.12194
2657.71513	0.12211
2655.78646	0.12226
2653.85778	0.12240
2651.92910	0.12254
2650.00043	0.12269
2648.07175	0.12284
2646.14308	0.12303
2644.21440	0.12322
2642.28573	0.12336
2640.35705	0.12350
2638.42837	0.12366
2636.49970	0.12384
2634.57102	0.12400
2632.64235	0.12413
2630.71367	0.12427
2628.78500	0.12442
2626.85632	0.12459
2624.92764	0.12477
2622.99897	0.12495
2621.07029	0.12511
2619.14162	0.12526
2617.21294	0.12542
2615.28427	0.12557
2613.35559	0.12573
2611.42691	0.12591
2609.49824	0.12609
2607.56956	0.12624
2605.64089	0.12640
2603.71221	0.12658
2601.78354	0.12677
2599.85486	0.12694
2597.92618	0.12705
2595.99751	0.12715
2594.06883	0.12727
2592.14016	0.12743
2590.21148	0.12762
2588.28281	0.12781
2586.35413	0.12799
2584.42545	0.12813
2582.49678	0.12825
2580.56810	0.12839
2578.63943	0.12858
2576.71075	0.12878
2574.78208	0.12895
2572.85340	0.12910
2570.92472	0.12924
2568.99605	0.12938
2567.06737	0.12953
2565.13870	0.12971
2563.21002	0.12990
2561.28135	0.13005
2559.35267	0.13017
2557.42399	0.13030
2555.49532	0.13045
2553.56664	0.13062
2551.63797	0.13077
2549.70929	0.13093
2547.78062	0.13109
2545.85194	0.13124
2543.92326	0.13139
2541.99459	0.13153
2540.06591	0.13167
2538.13724	0.13177
2536.20856	0.13185
2534.27989	0.13196
2532.35121	0.13212
2530.42253	0.13230
2528.49386	0.13247
2526.56518	0.13263
2524.63651	0.13280
2522.70783	0.13298
2520.77916	0.13315
2518.85048	0.13334
2516.92181	0.13354
2514.99313	0.13371
2513.06445	0.13385
2511.13578	0.13397
2509.20710	0.13411
2507.27843	0.13427
2505.34975	0.13444
2503.42108	0.13462
2501.49240	0.13482
2499.56372	0.13499
2497.63505	0.13515
2495.70637	0.13533
2493.77770	0.13552
2491.84902	0.13568
2489.92035	0.13580
2487.99167	0.13596
2486.06299	0.13616
2484.13432	0.13636
2482.20564	0.13654
2480.27697	0.13673
2478.34829	0.13690
2476.41962	0.13706
2474.49094	0.13719
2472.56226	0.13732
2470.63359	0.13745
2468.70491	0.13763
2466.77624	0.13783
2464.84756	0.13803
2462.91889	0.13822
2460.99021	0.13841
2459.06153	0.13858
2457.13286	0.13873
2455.20418	0.13886
2453.27551	0.13900
2451.34683	0.13913
2449.41816	0.13927
2447.48948	0.13946
2445.56080	0.13965
2443.63213	0.13985
2441.70345	0.14005
2439.77478	0.14022
2437.84610	0.14036
2435.91743	0.14050
2433.98875	0.14067
2432.06007	0.14085
2430.13140	0.14099
2428.20272	0.14111
2426.27405	0.14126
2424.34537	0.14143
2422.41670	0.14161
2420.48802	0.14176
2418.55934	0.14191
2416.63067	0.14209
2414.70199	0.14228
2412.77332	0.14245
2410.84464	0.14260
2408.91597	0.14276
2406.98729	0.14291
2405.05861	0.14306
2403.12994	0.14323
2401.20126	0.14341
2399.27259	0.14355
2397.34391	0.14368
2395.41524	0.14384
2393.48656	0.14401
2391.55788	0.14416
2389.62921	0.14431
2387.70053	0.14447
2385.77186	0.14462
2383.84318	0.14474
2381.91451	0.14487
2379.98583	0.14500
2378.05715	0.14510
2376.12848	0.14516
2374.19980	0.14516
2372.27113	0.14515
2370.34245	0.14516
2368.41378	0.14519
2366.48510	0.14527
2364.55642	0.14538
2362.62775	0.14552
2360.69907	0.14570
2358.77040	0.14592
2356.84172	0.14618
2354.91305	0.14649
2352.98437	0.14679
2351.05569	0.14706
2349.12702	0.14727
2347.19834	0.14734
2345.26967	0.14738
2343.34099	0.14746
2341.41232	0.14758
2339.48364	0.14774
2337.55496	0.14791
2335.62629	0.14807
2333.69761	0.14820
2331.76894	0.14832
2329.84026	0.14845
2327.91159	0.14864
2325.98291	0.14885
2324.05423	0.14910
2322.12556	0.14937
2320.19688	0.14962
2318.26821	0.14983
2316.33953	0.15006
2314.41086	0.15030
2312.48218	0.15051
2310.55350	0.15070
2308.62483	0.15089
2306.69615	0.15108
2304.76748	0.15125
2302.83880	0.15144
2300.91013	0.15168
2298.98145	0.15188
2297.05277	0.15202
2295.12410	0.15214
2293.19542	0.15231
2291.26675	0.15252
2289.33807	0.15271
2287.40940	0.15290
2285.48072	0.15310
2283.55204	0.15325
2281.62337	0.15337
2279.69469	0.15348
2277.76602	0.15362
2275.83734	0.15381
2273.90867	0.15400
2271.97999	0.15418
2270.05131	0.15437
2268.12264	0.15455
2266.19396	0.15471
2264.26529	0.15486
2262.33661	0.15501
2260.40794	0.15520
2258.47926	0.15541
2256.55058	0.15558
2254.62191	0.15574
2252.69323	0.15590
2250.76456	0.15608
2248.83588	0.15623
2246.90721	0.15638
2244.97853	0.15652
2243.04985	0.15668
2241.12118	0.15687
2239.19250	0.15704
2237.26383	0.15720
2235.33515	0.15735
2233.40648	0.15747
2231.47780	0.15760
2229.54912	0.15777
2227.62045	0.15794
2225.69177	0.15811
2223.76310	0.15829
2221.83442	0.15847
2219.90575	0.15862
2217.97707	0.15877
2216.04839	0.15893
2214.11972	0.15910
2212.19104	0.15925
2210.26237	0.15939
2208.33369	0.15956
2206.40502	0.15974
2204.47634	0.15988
2202.54766	0.16003
2200.61899	0.16020
2198.69031	0.16039
2196.76164	0.16054
2194.83296	0.16067
2192.90429	0.16080
2190.97561	0.16094
2189.04693	0.16107
2187.11826	0.16125
2185.18958	0.16146
2183.26091	0.16165
2181.33223	0.16182
2179.40356	0.16199
2177.47488	0.16217
2175.54620	0.16234
2173.61753	0.16248
2171.68885	0.16261
2169.76018	0.16276
2167.83150	0.16292
2165.90283	0.16309
2163.97415	0.16325
2162.04547	0.16341
2160.11680	0.16358
2158.18812	0.16377
2156.25945	0.16396
2154.33077	0.16416
2152.40210	0.16435
2150.47342	0.16451
2148.54474	0.16469
2146.61607	0.16488
2144.68739	0.16506
2142.75872	0.16522
2140.83004	0.16537
2138.90137	0.16549
2136.97269	0.16558
2135.04401	0.16574
2133.11534	0.16596
2131.18666	0.16619
2129.25799	0.16637
2127.32931	0.16650
2125.40064	0.16663
2123.47196	0.16678
2121.54328	0.16697
2119.61461	0.16716
2117.68593	0.16730
2115.75726	0.16744
2113.82858	0.16760
2111.89991	0.16779
2109.97123	0.16798
2108.04255	0.16813
2106.11388	0.16827
2104.18520	0.16843
2102.25653	0.16864
2100.32785	0.16882
2098.39918	0.16896
2096.47050	0.16912
2094.54182	0.16933
2092.61315	0.16952
2090.68447	0.16963
2088.75580	0.16975
2086.82712	0.16992
2084.89845	0.17011
2082.96977	0.17030
2081.04109	0.17049
2079.11242	0.17068
2077.18374	0.17084
2075.25507	0.17097
2073.32639	0.17112
2071.39772	0.17127
2069.46904	0.17140
2067.54036	0.17156
2065.61169	0.17175
2063.68301	0.17193
2061.75434	0.17205
2059.82566	0.17218
2057.89699	0.17236
2055.96831	0.17255
2054.03963	0.17271
2052.11096	0.17286
2050.18228	0.17302
2048.25361	0.17318
2046.32493	0.17335
2044.39626	0.17352
2042.46758	0.17367
2040.53890	0.17383
2038.61023	0.17401
2036.68155	0.17417
2034.75288	0.17435
2032.82420	0.17457
2030.89553	0.17479
2028.96685	0.17496
2027.03817	0.17509
2025.10950	0.17525
2023.18082	0.17547
2021.25215	0.17564
2019.32347	0.17572
2017.39480	0.17580
2015.46612	0.17599
2013.53744	0.17624
2011.60877	0.17648
2009.68009	0.17664
2007.75142	0.17675
2005.82274	0.17686
2003.89407	0.17703
2001.96539	0.17721
2000.03671	0.17736
1998.10804	0.17750
1996.17936	0.17761
1994.25069	0.17769
1992.32201	0.17780
1990.39334	0.17800
1988.46466	0.17823
1986.53598	0.17842
1984.60731	0.17858
1982.67863	0.17874
1980.74996	0.17890
1978.82128	0.17905
1976.89261	0.17918
1974.96393	0.17930
1973.03525	0.17941
1971.10658	0.17952
1969.17790	0.17964
1967.24923	0.17979
1965.32055	0.17996
1963.39188	0.18012
1961.46320	0.18026
1959.53452	0.18041
1957.60585	0.18058
1955.67717	0.18074
1953.74850	0.18089
1951.81982	0.18104
1949.89115	0.18122
1947.96247	0.18140
1946.03379	0.18148
1944.10512	0.18149
1942.17644	0.18164
1940.24777	0.18195
1938.31909	0.18222
1936.39042	0.18238
1934.46174	0.18252
1932.53306	0.18266
1930.60439	0.18278
1928.67571	0.18293
1926.74704	0.18309
1924.81836	0.18324
1922.88969	0.18341
1920.96101	0.18358
1919.03233	0.18369
1917.10366	0.18384
1915.17498	0.18411
1913.24631	0.18434
1911.31763	0.18449
1909.38896	0.18462
1907.46028	0.18480
1905.53160	0.18498
1903.60293	0.18512
1901.67425	0.18525
1899.74558	0.18542
1897.81690	0.18559
1895.88823	0.18572
1893.95955	0.18586
1892.03087	0.18596
1890.10220	0.18600
1888.17352	0.18616
1886.24485	0.18643
1884.31617	0.18665
1882.38750	0.18680
1880.45882	0.18697
1878.53014	0.18718
1876.60147	0.18735
1874.67279	0.18745
1872.74412	0.18749
1870.81544	0.18746
1868.88677	0.18755
1866.95809	0.18785
1865.02941	0.18820
1863.10074	0.18843
1861.17206	0.18861
1859.24339	0.18882
1857.31471	0.18903
1855.38604	0.18918
1853.45736	0.18931
1851.52868	0.18944
1849.60001	0.18954
1847.67133	0.18956
1845.74266	0.18950
1843.81398	0.18959
1841.88531	0.18996
1839.95663	0.19034
1838.02795	0.19060
1836.09928	0.19083
1834.17060	0.19095
1832.24193	0.19095
1830.31325	0.19097
1828.38458	0.19112
1826.45590	0.19129
1824.52722	0.19147
1822.59855	0.19173
1820.66987	0.19197
1818.74120	0.19215
1816.81252	0.19234
1814.88385	0.19251
1812.95517	0.19263
1811.02649	0.19274
1809.09782	0.19290
1807.16914	0.19307
1805.24047	0.19315
1803.31179	0.19311
1801.38312	0.19310
1799.45444	0.19331
1797.52576	0.19357
1795.59709	0.19362
1793.66841	0.19357
1791.73974	0.19368
1789.81106	0.19399
1787.88239	0.19424
1785.95371	0.19433
1784.02503	0.19442
1782.09636	0.19456
1780.16768	0.19470
1778.23901	0.19483
1776.31033	0.19487
1774.38166	0.19478
1772.45298	0.19471
1770.52430	0.19484
1768.59563	0.19517
1766.66695	0.19551
1764.73828	0.19567
1762.80960	0.19564
1760.88093	0.19567
1758.95225	0.19575
1757.02357	0.19579
1755.09490	0.19576
1753.16622	0.19551
1751.23755	0.19522
1749.30887	0.19526
1747.38020	0.19552
1745.45152	0.19569
1743.52284	0.19568
1741.59417	0.19554
1739.66549	0.19553
1737.73682	0.19565
1735.80814	0.19558
1733.87947	0.19551
1731.95079	0.19581
1730.02211	0.19623
1728.09344	0.19655
1726.16476	0.19677
1724.23609	0.19692
1722.30741	0.19699
1720.37874	0.19677
1718.45006	0.19636
1716.52138	0.19642
1714.59271	0.19701
1712.66403	0.19760
1710.73536	0.19785
1708.80668	0.19777
1706.87801	0.19762
1704.94933	0.19769
1703.02065	0.19776
1701.09198	0.19768
1699.16330	0.19770
1697.23463	0.19785
1695.30595	0.19806
1693.37728	0.19839
1691.44860	0.19857
1689.51992	0.19851
1687.59125	0.19831
1685.66257	0.19796
1683.73390	0.19782
1681.80522	0.19820
1679.87655	0.19858
1677.94787	0.19840
1676.01919	0.19798
1674.09052	0.19795
1672.16184	0.19819
1670.23317	0.19839
1668.30449	0.19874
1666.37582	0.19911
1664.44714	0.19920
1662.51846	0.19919
1660.58979	0.19934
1658.66111	0.19947
1656.73244	0.19915
1654.80376	0.19828
1652.87509	0.19774
1650.94641	0.19821
1649.01773	0.19880
1647.08906	0.19901
1645.16038	0.19931
1643.23171	0.19970
1641.30303	0.19987
1639.37436	0.19979
1637.44568	0.19961
1635.51700	0.19964
1633.58833	0.19993
1631.65965	0.20018
1629.73098	0.20024
1627.80230	0.20020
1625.87363	0.20002
1623.94495	0.19968
1622.01627	0.19940
1620.08760	0.19928
1618.15892	0.19938
1616.23025	0.19988
1614.30157	0.20062
1612.37290	0.20119
1610.44422	0.20151
1608.51554	0.20177
1606.58687	0.20205
1604.65819	0.20226
1602.72952	0.20242
1600.80084	0.20263
1598.87217	0.20283
1596.94349	0.20294
1595.01481	0.20305
1593.08614	0.20325
1591.15746	0.20349
1589.22879	0.20370
1587.30011	0.20387
1585.37144	0.20401
1583.44276	0.20416
1581.51408	0.20430
1579.58541	0.20421
1577.65673	0.20379
1575.72806	0.20371
1573.79938	0.20424
1571.87071	0.20463
1569.94203	0.20466
1568.01335	0.20477
1566.08468	0.20499
1564.15600	0.20510
1562.22733	0.20490
1560.29865	0.20442
1558.36998	0.20435
1556.44130	0.20492
1554.51262	0.20554
1552.58395	0.20584
1550.65527	0.20593
1548.72660	0.20603
1546.79792	0.20602
1544.86925	0.20570
1542.94057	0.20535
1541.01189	0.20541
1539.08322	0.20593
1537.15454	0.20641
1535.22587	0.20647
1533.29719	0.20652
1531.36852	0.20688
1529.43984	0.20716
1527.51116	0.20714
1525.58249	0.20701
1523.65381	0.20675
1521.72514	0.20660
1519.79646	0.20684
1517.86779	0.20715
1515.93911	0.20729
1514.01043	0.20740
1512.08176	0.20743
1510.15308	0.20713
1508.22441	0.20666
1506.29573	0.20678
1504.36706	0.20758
1502.43838	0.20813
1500.50970	0.20805
1498.58103	0.20767
1496.65235	0.20750
1494.72368	0.20773
1492.79500	0.20795
1490.86633	0.20781
1488.93765	0.20762
1487.00897	0.20767
1485.08030	0.20781
1483.15162	0.20780
1481.22295	0.20765
1479.29427	0.20735
1477.36560	0.20684
1475.43692	0.20620
1473.50824	0.20567
1471.57957	0.20549
1469.65089	0.20552
1467.72222	0.20529
1465.79354	0.20487
1463.86487	0.20472
1461.93619	0.20473
1460.00751	0.20433
1458.07884	0.20368
1456.15016	0.20356
1454.22149	0.20395
1452.29281	0.20423
1450.36414	0.20427
1448.43546	0.20429
1446.50678	0.20441
1444.57811	0.20458
1442.64943	0.20474
1440.72076	0.20483
1438.79208	0.20478
1436.86341	0.20475
1434.93473	0.20499
1433.00605	0.20533
1431.07738	0.20554
1429.14870	0.20568
1427.22003	0.20577
1425.29135	0.20575
1423.36268	0.20561
1421.43400	0.20523
1419.50532	0.20487
1417.57665	0.20510
1415.64797	0.20563
1413.71930	0.20592
1411.79062	0.20597
1409.86195	0.20601
1407.93327	0.20601
1406.00459	0.20594
1404.07592	0.20586
1402.14724	0.20575
1400.21857	0.20559
1398.28989	0.20548
1396.36122	0.20544
1394.43254	0.20546
1392.50386	0.20555
1390.57519	0.20553
1388.64651	0.20527
1386.71784	0.20489
1384.78916	0.20463
1382.86049	0.20463
1380.93181	0.20473
1379.00313	0.20471
1377.07446	0.20456
1375.14578	0.20440
1373.21711	0.20438
1371.28843	0.20449
1369.35976	0.20456
1367.43108	0.20456
1365.50240	0.20450
1363.57373	0.20438
1361.64505	0.20434
1359.71638	0.20444
1357.78770	0.20457
1355.85903	0.20467
1353.93035	0.20479
1352.00167	0.20493
1350.07300	0.20502
1348.14432	0.20506
1346.21565	0.20512
1344.28697	0.20516
1342.35830	0.20511
1340.42962	0.20497
1338.50094	0.20486
1336.57227	0.20485
1334.64359	0.20488
1332.71492	0.20484
1330.78624	0.20468
1328.85757	0.20445
1326.92889	0.20424
1325.00021	0.20410
1323.07154	0.20396
1321.14286	0.20375
1319.21419	0.20352
1317.28551	0.20336
1315.35684	0.20326
1313.42816	0.20314
1311.49948	0.20297
1309.57081	0.20271
1307.64213	0.20240
1305.71346	0.20216
1303.78478	0.20202
1301.85611	0.20185
1299.92743	0.20163
1297.99875	0.20146
1296.07008	0.20132
1294.14140	0.20113
1292.21273	0.20091
1290.28405	0.20068
1288.35538	0.20045
1286.42670	0.20027
1284.49802	0.20008
1282.56935	0.19985
1280.64067	0.19960
1278.71200	0.19931
1276.78332	0.19896
1274.85465	0.19852
1272.92597	0.19797
1270.99729	0.19728
1269.06862	0.19643
1267.13994	0.19552
1265.21127	0.19469
1263.28259	0.19406
1261.35392	0.19376
1259.42524	0.19379
1257.49656	0.19402
1255.56789	0.19426
1253.63921	0.19432
1251.71054	0.19421
1249.78186	0.19399
1247.85319	0.19366
1245.92451	0.19324
1243.99583	0.19279
1242.06716	0.19237
1240.13848	0.19198
1238.20981	0.19155
1236.28113	0.19108
1234.35246	0.19055
1232.42378	0.18993
1230.49510	0.18929
1228.56643	0.18868
1226.63775	0.18817
1224.70908	0.18771
1222.78040	0.18724
1220.85173	0.18673
1218.92305	0.18619
1216.99437	0.18560
1215.06570	0.18500
1213.13702	0.18445
1211.20835	0.18394
1209.27967	0.18340
1207.35100	0.18285
1205.42232	0.18230
1203.49364	0.18173
1201.56497	0.18117
1199.63629	0.18061
1197.70762	0.18000
1195.77894	0.17939
1193.85027	0.17876
1191.92159	0.17808
1189.99291	0.17730
1188.06424	0.17648
1186.13556	0.17569
1184.20689	0.17490
1182.27821	0.17409
1180.34954	0.17328
1178.42086	0.17247
1176.49218	0.17165
1174.56351	0.17083
1172.63483	0.17000
1170.70616	0.16913
1168.77748	0.16828
1166.84881	0.16745
1164.92013	0.16659
1162.99145	0.16569
1161.06278	0.16482
1159.13410	0.16400
1157.20543	0.16317
1155.27675	0.16237
1153.34808	0.16163
1151.41940	0.16087
1149.49072	0.16007
1147.56205	0.15928
1145.63337	0.15844
1143.70470	0.15754
1141.77602	0.15658
1139.84735	0.15556
1137.91867	0.15445
1135.98999	0.15326
1134.06132	0.15192
1132.13264	0.15035
1130.20397	0.14848
1128.27529	0.14633
1126.34662	0.14406
1124.41794	0.14175
1122.48926	0.13943
1120.56059	0.13711
1118.63191	0.13488
1116.70324	0.13281
1114.77456	0.13090
1112.84589	0.12923
1110.91721	0.12788
1108.98853	0.12686
1107.05986	0.12613
1105.13118	0.12572
1103.20251	0.12559
1101.27383	0.12566
1099.34516	0.12594
1097.41648	0.12648
1095.48780	0.12722
1093.55913	0.12807
1091.63045	0.12893
1089.70178	0.12979
1087.77310	0.13060
1085.84443	0.13128
1083.91575	0.13175
1081.98707	0.13206
1080.05840	0.13230
1078.12972	0.13254
1076.20105	0.13275
1074.27237	0.13290
1072.34370	0.13303
1070.41502	0.13318
1068.48634	0.13334
1066.55767	0.13346
1064.62899	0.13357
1062.70032	0.13373
1060.77164	0.13399
1058.84297	0.13429
1056.91429	0.13457
1054.98561	0.13485
1053.05694	0.13512
1051.12826	0.13537
1049.19959	0.13563
1047.27091	0.13593
1045.34224	0.13634
1043.41356	0.13684
1041.48488	0.13737
1039.55621	0.13782
1037.62753	0.13818
1035.69886	0.13850
1033.77018	0.13885
1031.84151	0.13926
1029.91283	0.13968
1027.98415	0.13998
1026.05548	0.14025
1024.12680	0.14060
1022.19813	0.14098
1020.26945	0.14138
1018.34078	0.14181
1016.41210	0.14227
1014.48342	0.14278
1012.55475	0.14334
1010.62607	0.14393
1008.69740	0.14449
1006.76872	0.14499
1004.84005	0.14546
1002.91137	0.14591
1000.98269	0.14627
999.05402	0.14654
997.12534	0.14676
995.19667	0.14694
993.26799	0.14706
991.33932	0.14714
989.41064	0.14715
987.48196	0.14717
985.55329	0.14717
983.62461	0.14714
981.69594	0.14713
979.76726	0.14708
977.83859	0.14696
975.90991	0.14680
973.98123	0.14660
972.05256	0.14640
970.12388	0.14624
968.19521	0.14607
966.26653	0.14585
964.33786	0.14563
962.40918	0.14543
960.48050	0.14531
958.55183	0.14524
956.62315	0.14509
954.69448	0.14483
952.76580	0.14461
950.83713	0.14448
948.90845	0.14431
946.97977	0.14406
945.05110	0.14376
943.12242	0.14344
941.19375	0.14313
939.26507	0.14284
937.33640	0.14246
935.40772	0.14197
933.47904	0.14148
931.55037	0.14099
929.62169	0.14049
927.69302	0.14001
925.76434	0.13950
923.83567	0.13894
921.90699	0.13836
919.97831	0.13776
918.04964	0.13713
916.12096	0.13645
914.19229	0.13569
912.26361	0.13487
910.33494	0.13404
908.40626	0.13332
906.47758	0.13269
904.54891	0.13205
902.62023	0.13138
900.69156	0.13075
898.76288	0.13022
896.83421	0.12974
894.90553	0.12924
892.97685	0.12873
891.04818	0.12830
889.11950	0.12788
887.19083	0.12746
885.26215	0.12707
883.33348	0.12667
881.40480	0.12630
879.47612	0.12603
877.54745	0.12575
875.61877	0.12543
873.69010	0.12515
871.76142	0.12492
869.83275	0.12466
867.90407	0.12441
865.97539	0.12424
864.04672	0.12412
862.11804	0.12400
860.18937	0.12391
858.26069	0.12381
856.33202	0.12359
854.40334	0.12331
852.47466	0.12306
850.54599	0.12282
848.61731	0.12252
846.68864	0.12219
844.75996	0.12195
842.83129	0.12174
840.90261	0.12144
838.97394	0.12111
837.04526	0.12071
835.11658	0.12014
833.18791	0.11935
831.25923	0.11840
829.33056	0.11730
827.40188	0.11612
825.47321	0.11506
823.54453	0.11421
821.61585	0.11348
819.68718	0.11280
817.75850	0.11219
815.82983	0.11169
813.90115	0.11131
811.97248	0.11102
810.04380	0.11080
808.11512	0.11064
806.18645	0.11058
804.25777	0.11059
802.32910	0.11057
800.40042	0.11031
798.47175	0.10978
796.54307	0.10916
794.61439	0.10861
792.68572	0.10821
790.75704	0.10789
788.82837	0.10761
786.89969	0.10736
784.97102	0.10712
783.04234	0.10686
781.11366	0.10662
779.18499	0.10632
777.25631	0.10592
775.32764	0.10551
773.39896	0.10520
771.47029	0.10494
769.54161	0.10464
767.61293	0.10429
765.68426	0.10389
763.75558	0.10346
761.82691	0.10301
759.89823	0.10251
757.96956	0.10193
756.04088	0.10129
754.11220	0.10065
752.18353	0.10004
750.25485	0.09943
748.32618	0.09877
746.39750	0.09802
744.46883	0.09714
742.54015	0.09618
740.61147	0.09531
738.68280	0.09469
736.75412	0.09438
734.82545	0.09430
732.89677	0.09433
730.96810	0.09440
729.03942	0.09450
727.11074	0.09463
725.18207	0.09479
723.25339	0.09499
721.32472	0.09519
719.39604	0.09535
717.46737	0.09557
715.53869	0.09591
713.61001	0.09637
711.68134	0.09681
709.75266	0.09714
707.82399	0.09727
705.89531	0.09719
703.96664	0.09694
702.03796	0.09657
700.10928	0.09614
698.18061	0.09574
696.25193	0.09525
694.32326	0.09462
692.39458	0.09395
690.46591	0.09339
688.53723	0.09293
686.60855	0.09252
684.67988	0.09209
682.75120	0.09159
680.82253	0.09097
678.89385	0.09033
676.96518	0.08976
675.03650	0.08919
673.10782	0.08848
671.17915	0.08765
669.25047	0.08679
667.32180	0.08599
665.39312	0.08524
663.46445	0.08443
661.53577	0.08351
659.60709	0.08260
657.67842	0.08174
655.74974	0.08090
653.82107	0.08008
651.89239	0.07927
649.96372	0.07844
648.03504	0.07763
646.10636	0.07679
644.17769	0.07585
642.24901	0.07487
640.32034	0.07386
638.39166	0.07280
636.46299	0.07172
634.53431	0.07061
632.60563	0.06917
630.67696	0.06681
628.74828	0.06327
626.81961	0.05879
624.89093	0.05416
622.96226	0.05042
621.03358	0.04805
619.10490	0.04682
617.17623	0.04610
615.24755	0.04535
613.31888	0.04440
611.39020	0.04338
609.46153	0.04275
607.53285	0.04282
605.60417	0.04330
603.67550	0.04383
601.74682	0.04451
599.81815	0.04548
597.88947	0.04641
595.96080	0.04701
594.03212	0.04744
592.10344	0.04779
590.17477	0.04792
588.24609	0.04781
586.31742	0.04762
584.38874	0.04738
582.46007	0.04700
580.53139	0.04660
578.60271	0.04627
576.67404	0.04590
574.74536	0.04535
572.81669	0.04471
570.88801	0.04410
568.95934	0.04355
567.03066	0.04303
565.10198	0.04265
563.17331	0.04240
561.24463	0.04212
559.31596	0.04181
557.38728	0.04153
555.45861	0.04125
553.52993	0.04102
551.60125	0.04085
549.67258	0.04066
547.74390	0.04047
545.81523	0.04036
543.88655	0.04024
541.95788	0.04003
540.02920	0.03981
538.10052	0.03967
536.17185	0.03961
534.24317	0.03949
532.31450	0.03919
530.38582	0.03884
528.45715	0.03858
526.52847	0.03834
524.59979	0.03795
522.67112	0.03742
520.74244	0.03687
518.81377	0.03632
516.88509	0.03569
514.95642	0.03510
513.02774	0.03471
511.09906	0.03451
509.17039	0.03440
507.24171	0.03434
505.31304	0.03423
503.38436	0.03395
501.45569	0.03344
499.52701	0.03278
497.59833	0.03214
495.66966	0.03159
493.74098	0.03108
491.81231	0.03056
489.88363	0.03000
487.95496	0.02945
486.02628	0.02892
484.09760	0.02835
482.16893	0.02774
480.24025	0.02717
478.31158	0.02666
476.38290	0.02615
474.45423	0.02562
472.52555	0.02504
470.59687	0.02445
468.66820	0.02397
466.73952	0.02369
464.81085	0.02349
462.88217	0.02322
460.95350	0.02295
459.02482	0.02279
457.09614	0.02271
455.16747	0.02272
453.23879	0.02279
451.31012	0.02288
449.38144	0.02285
447.45277	0.02267
445.52409	0.02242
443.59541	0.02215
441.66674	0.02189
439.73806	0.02162
437.80939	0.02127
435.88071	0.02089
433.95204	0.02046
432.02336	0.01989
430.09468	0.01916
428.16601	0.01840
426.23733	0.01769
424.30866	0.01698
422.37998	0.01629
420.45131	0.01568
418.52263	0.01513
416.59395	0.01452
414.66528	0.01383
412.73660	0.01314
410.80793	0.01247
408.87925	0.01188
406.95058	0.01138
405.02190	0.01082
403.09322	0.01018
401.16455	0.00961
399.23587	0.00906
397.30720	0.00843
395.37852	0.00781
393.44985	0.00727
391.52117	0.00677
389.59249	0.00625
387.66382	0.00571
385.73514	0.00528
383.80647	0.00496
381.87779	0.00459
379.94912	0.00419
378.02044	0.00381
376.09176	0.00347
374.16309	0.00315
372.23441	0.00285
370.30574	0.00265
368.37706	0.00250
