7496.76250	0.00118
7494.83382	0.00119
7492.90514	0.00120
7490.97647	0.00121
7489.04779	0.00122
7487.11912	0.00123
7485.19044	0.00123
7483.26177	0.00123
7481.33309	0.00121
7479.40441	0.00121
7477.47574	0.00121
7475.54706	0.00122
7473.61839	0.00124
7471.68971	0.00125
7469.76104	0.00126
7467.83236	0.00126
7465.90368	0.00127
7463.97501	0.00127
7462.04633	0.00126
7460.11766	0.00126
7458.18898	0.00127
7456.26031	0.00128
7454.33163	0.00130
7452.40295	0.00130
7450.47428	0.00131
7448.54560	0.00130
7446.61693	0.00129
7444.68825	0.00128
7442.75958	0.00129
7440.83090	0.00130
7438.90222	0.00130
7436.97355	0.00130
7435.04487	0.00131
7433.11620	0.00132
7431.18752	0.00133
7429.25885	0.00132
7427.33017	0.00132
7425.40149	0.00133
7423.47282	0.00134
7421.54414	0.00134
7419.61547	0.00134
7417.68679	0.00134
7415.75812	0.00134
7413.82944	0.00135
7411.90076	0.00135
7409.97209	0.00136
7408.04341	0.00137
7406.11474	0.00138
7404.18606	0.00138
7402.25739	0.00138
7400.32871	0.00138
7398.40003	0.00137
7396.47136	0.00136
7394.54268	0.00137
7392.61401	0.00136
7390.68533	0.00136
7388.75666	0.00136
7386.82798	0.00137
7384.89930	0.00138
7382.97063	0.00140
7381.04195	0.00140
7379.11328	0.00139
7377.18460	0.00139
7375.25593	0.00141
7373.32725	0.00142
7371.39857	0.00142
7369.46990	0.00144
7367.54122	0.00145
7365.61255	0.00146
7363.68387	0.00146
7361.75520	0.00145
7359.82652	0.00145
7357.89784	0.00145
7355.96917	0.00145
7354.04049	0.00146
7352.11182	0.00146
7350.18314	0.00145
7348.25447	0.00144
7346.32579	0.00146
7344.39711	0.00149
7342.46844	0.00150
7340.53976	0.00149
7338.61109	0.00148
7336.68241	0.00149
7334.75374	0.00148
7332.82506	0.00148
7330.89638	0.00147
7328.96771	0.00147
7327.03903	0.00148
7325.11036	0.00149
7323.18168	0.00151
7321.25301	0.00152
7319.32433	0.00151
7317.39565	0.00151
7315.46698	0.00153
7313.53830	0.00154
7311.60963	0.00155
7309.68095	0.00156
7307.75228	0.00156
7305.82360	0.00155
7303.89492	0.00155
7301.96625	0.00156
7300.03757	0.00157
7298.10890	0.00157
7296.18022	0.00156
7294.25155	0.00158
7292.32287	0.00160
7290.39419	0.00159
7288.46552	0.00157
7286.53684	0.00155
7284.60817	0.00155
7282.67949	0.00157
7280.75082	0.00158
7278.82214	0.00159
7276.89346	0.00160
7274.96479	0.00161
7273.03611	0.00161
7271.10744	0.00161
7269.17876	0.00161
7267.25009	0.00162
7265.32141	0.00162
7263.39273	0.00162
7261.46406	0.00163
7259.53538	0.00164
7257.60671	0.00164
7255.67803	0.00162
7253.74936	0.00162
7251.82068	0.00164
7249.89200	0.00165
7247.96333	0.00166
7246.03465	0.00166
7244.10598	0.00165
7242.17730	0.00165
7240.24863	0.00166
7238.31995	0.00168
7236.39127	0.00168
7234.46260	0.00169
7232.53392	0.00170
7230.60525	0.00171
7228.67657	0.00171
7226.74790	0.00171
7224.81922	0.00172
7222.89054	0.00172
7220.96187	0.00172
7219.03319	0.00173
7217.10452	0.00173
7215.17584	0.00172
7213.24717	0.00171
7211.31849	0.00171
7209.38981	0.00171
7207.46114	0.00172
7205.53246	0.00173
7203.60379	0.00174
7201.67511	0.00175
7199.74644	0.00176
7197.81776	0.00177
7195.88908	0.00177
7193.96041	0.00177
7192.03173	0.00177
7190.10306	0.00178
7188.17438	0.00179
7186.24571	0.00178
7184.31703	0.00177
7182.38835	0.00176
7180.45968	0.00177
7178.53100	0.00178
7176.60233	0.00180
7174.67365	0.00180
7172.74498	0.00180
7170.81630	0.00179
7168.88762	0.00178
7166.95895	0.00180
7165.03027	0.00182
7163.10160	0.00184
7161.17292	0.00185
7159.24425	0.00185
7157.31557	0.00184
7155.38689	0.00185
7153.45822	0.00186
7151.52954	0.00187
7149.60087	0.00188
7147.67219	0.00189
7145.74352	0.00189
7143.81484	0.00188
7141.88616	0.00187
7139.95749	0.00187
7138.02881	0.00188
7136.10014	0.00189
7134.17146	0.00190
7132.24279	0.00189
7130.31411	0.00189
7128.38543	0.00188
7126.45676	0.00189
7124.52808	0.00190
7122.59941	0.00192
7120.67073	0.00192
7118.74206	0.00190
7116.81338	0.00189
7114.88470	0.00191
7112.95603	0.00194
7111.02735	0.00195
7109.09868	0.00194
7107.17000	0.00194
7105.24133	0.00195
7103.31265	0.00196
7101.38397	0.00197
7099.45530	0.00198
7097.52662	0.00198
7095.59795	0.00199
7093.66927	0.00199
7091.74060	0.00200
7089.81192	0.00200
7087.88324	0.00201
7085.95457	0.00201
7084.02589	0.00202
7082.09722	0.00201
7080.16854	0.00200
7078.23987	0.00201
7076.31119	0.00202
7074.38251	0.00203
7072.45384	0.00203
7070.52516	0.00203
7068.59649	0.00202
7066.66781	0.00203
7064.73914	0.00203
7062.81046	0.00204
7060.88178	0.00204
7058.95311	0.00204
7057.02443	0.00204
7055.09576	0.00205
7053.16708	0.00205
7051.23841	0.00205
7049.30973	0.00206
7047.38105	0.00207
7045.45238	0.00208
7043.52370	0.00209
7041.59503	0.00210
7039.66635	0.00210
7037.73768	0.00209
7035.80900	0.00207
7033.88032	0.00207
7031.95165	0.00209
7030.02297	0.00210
7028.09430	0.00211
7026.16562	0.00211
7024.23695	0.00211
7022.30827	0.00211
7020.37959	0.00211
7018.45092	0.00213
7016.52224	0.00214
7014.59357	0.00214
7012.66489	0.00213
7010.73622	0.00214
7008.80754	0.00215
7006.87886	0.00217
7004.95019	0.00217
7003.02151	0.00217
7001.09284	0.00218
6999.16416	0.00221
6997.23549	0.00224
6995.30681	0.00225
6993.37813	0.00223
6991.44946	0.00221
6989.52078	0.00219
6987.59211	0.00218
6985.66343	0.00219
6983.73476	0.00221
6981.80608	0.00224
6979.87740	0.00226
6977.94873	0.00226
6976.02005	0.00225
6974.09138	0.00222
6972.16270	0.00221
6970.23403	0.00222
6968.30535	0.00225
6966.37667	0.00227
6964.44800	0.00228
6962.51932	0.00229
6960.59065	0.00231
6958.66197	0.00232
6956.73330	0.00232
6954.80462	0.00232
6952.87594	0.00233
6950.94727	0.00234
6949.01859	0.00232
6947.08992	0.00230
6945.16124	0.00230
6943.23257	0.00231
6941.30389	0.00233
6939.37521	0.00234
6937.44654	0.00235
6935.51786	0.00237
6933.58919	0.00238
6931.66051	0.00237
6929.73184	0.00236
6927.80316	0.00236
6925.87448	0.00237
6923.94581	0.00239
6922.01713	0.00239
6920.08846	0.00239
6918.15978	0.00240
6916.23111	0.00241
6914.30243	0.00240
6912.37375	0.00240
6910.44508	0.00241
6908.51640	0.00242
6906.58773	0.00243
6904.65905	0.00244
6902.73038	0.00246
6900.80170	0.00247
6898.87302	0.00246
6896.94435	0.00244
6895.01567	0.00245
6893.08700	0.00246
6891.15832	0.00248
6889.22965	0.00249
6887.30097	0.00249
6885.37229	0.00248
6883.44362	0.00248
6881.51494	0.00250
6879.58627	0.00252
6877.65759	0.00252
6875.72892	0.00251
6873.80024	0.00251
6871.87156	0.00253
6869.94289	0.00254
6868.01421	0.00254
6866.08554	0.00254
6864.15686	0.00254
6862.22819	0.00255
6860.29951	0.00255
6858.37083	0.00256
6856.44216	0.00257
6854.51348	0.00258
6852.58481	0.00259
6850.65613	0.00259
6848.72746	0.00259
6846.79878	0.00259
6844.87010	0.00260
6842.94143	0.00261
6841.01275	0.00261
6839.08408	0.00262
6837.15540	0.00262
6835.22673	0.00261
6833.29805	0.00261
6831.36937	0.00262
6829.44070	0.00263
6827.51202	0.00265
6825.58335	0.00266
6823.65467	0.00267
6821.72600	0.00269
6819.79732	0.00269
6817.86864	0.00269
6815.93997	0.00268
6814.01129	0.00268
6812.08262	0.00267
6810.15394	0.00267
6808.22527	0.00268
6806.29659	0.00270
6804.36791	0.00271
6802.43924	0.00271
6800.51056	0.00271
6798.58189	0.00272
6796.65321	0.00273
6794.72454	0.00274
6792.79586	0.00273
6790.86718	0.00273
6788.93851	0.00274
6787.00983	0.00275
6785.08116	0.00275
6783.15248	0.00276
6781.22381	0.00277
6779.29513	0.00278
6777.36645	0.00279
6775.43778	0.00279
6773.50910	0.00279
6771.58043	0.00280
6769.65175	0.00282
6767.72308	0.00283
6765.79440	0.00283
6763.86572	0.00282
6761.93705	0.00282
6760.00837	0.00284
6758.07970	0.00285
6756.15102	0.00285
6754.22235	0.00285
6752.29367	0.00286
6750.36499	0.00287
6748.43632	0.00288
6746.50764	0.00289
6744.57897	0.00289
6742.65029	0.00288
6740.72162	0.00288
6738.79294	0.00289
6736.86426	0.00291
6734.93559	0.00291
6733.00691	0.00291
6731.07824	0.00291
6729.14956	0.00291
6727.22089	0.00292
6725.29221	0.00293
6723.36353	0.00294
6721.43486	0.00295
6719.50618	0.00297
6717.57751	0.00297
6715.64883	0.00297
6713.72016	0.00298
6711.79148	0.00299
6709.86280	0.00299
6707.93413	0.00299
6706.00545	0.00301
6704.07678	0.00302
6702.14810	0.00302
6700.21943	0.00303
6698.29075	0.00304
6696.36207	0.00306
6694.43340	0.00308
6692.50472	0.00309
6690.57605	0.00309
6688.64737	0.00309
6686.71870	0.00309
6684.79002	0.00308
6682.86134	0.00308
6680.93267	0.00309
6679.00399	0.00310
6677.07532	0.00311
6675.14664	0.00311
6673.21797	0.00312
6671.28929	0.00313
6669.36061	0.00314
6667.43194	0.00315
6665.50326	0.00316
6663.57459	0.00315
6661.64591	0.00315
6659.71724	0.00314
6657.78856	0.00316
6655.85988	0.00318
6653.93121	0.00320
6652.00253	0.00320
6650.07386	0.00318
6648.14518	0.00319
6646.21651	0.00321
6644.28783	0.00323
6642.35915	0.00325
6640.43048	0.00326
6638.50180	0.00326
6636.57313	0.00325
6634.64445	0.00325
6632.71578	0.00325
6630.78710	0.00326
6628.85842	0.00327
6626.92975	0.00327
6625.00107	0.00329
6623.07240	0.00332
6621.14372	0.00334
6619.21505	0.00334
6617.28637	0.00333
6615.35769	0.00332
6613.42902	0.00333
6611.50034	0.00335
6609.57167	0.00336
6607.64299	0.00337
6605.71432	0.00337
6603.78564	0.00338
6601.85696	0.00339
6599.92829	0.00339
6597.99961	0.00339
6596.07094	0.00338
6594.14226	0.00338
6592.21359	0.00339
6590.28491	0.00340
6588.35623	0.00340
6586.42756	0.00340
6584.49888	0.00341
6582.57021	0.00343
6580.64153	0.00345
6578.71286	0.00347
6576.78418	0.00347
6574.85550	0.00347
6572.92683	0.00347
6570.99815	0.00347
6569.06948	0.00348
6567.14080	0.00348
6565.21213	0.00349
6563.28345	0.00351
6561.35477	0.00352
6559.42610	0.00353
6557.49742	0.00353
6555.56875	0.00354
6553.64007	0.00355
6551.71140	0.00357
6549.78272	0.00358
6547.85404	0.00359
6545.92537	0.00358
6543.99669	0.00359
6542.06802	0.00360
6540.13934	0.00361
6538.21067	0.00362
6536.28199	0.00362
6534.35331	0.00362
6532.42464	0.00363
6530.49596	0.00365
6528.56729	0.00367
6526.63861	0.00366
6524.70994	0.00365
6522.78126	0.00365
6520.85258	0.00366
6518.92391	0.00367
6516.99523	0.00369
6515.06656	0.00370
6513.13788	0.00370
6511.20921	0.00370
6509.28053	0.00371
6507.35185	0.00374
6505.42318	0.00376
6503.49450	0.00376
6501.56583	0.00375
6499.63715	0.00375
6497.70848	0.00376
6495.77980	0.00377
6493.85112	0.00378
6491.92245	0.00379
6489.99377	0.00381
6488.06510	0.00381
6486.13642	0.00381
6484.20775	0.00381
6482.27907	0.00381
6480.35039	0.00382
6478.42172	0.00383
6476.49304	0.00383
6474.56437	0.00384
6472.63569	0.00385
6470.70702	0.00388
6468.77834	0.00389
6466.84966	0.00389
6464.92099	0.00389
6462.99231	0.00390
6461.06364	0.00391
6459.13496	0.00392
6457.20629	0.00392
6455.27761	0.00392
6453.34893	0.00393
6451.42026	0.00394
6449.49158	0.00396
6447.56291	0.00398
6445.63423	0.00400
6443.70556	0.00402
6441.77688	0.00403
6439.84820	0.00402
6437.91953	0.00402
6435.99085	0.00402
6434.06218	0.00404
6432.13350	0.00406
6430.20483	0.00406
6428.27615	0.00407
6426.34747	0.00407
6424.41880	0.00408
6422.49012	0.00408
6420.56145	0.00409
6418.63277	0.00409
6416.70410	0.00410
6414.77542	0.00412
6412.84674	0.00413
6410.91807	0.00414
6408.98939	0.00413
6407.06072	0.00413
6405.13204	0.00414
6403.20337	0.00416
6401.27469	0.00418
6399.34601	0.00418
6397.41734	0.00419
6395.48866	0.00419
6393.55999	0.00420
6391.63131	0.00420
6389.70264	0.00421
6387.77396	0.00423
6385.84528	0.00426
6383.91661	0.00427
6381.98793	0.00427
6380.05926	0.00429
6378.13058	0.00430
6376.20191	0.00431
6374.27323	0.00433
6372.34455	0.00434
6370.41588	0.00434
6368.48720	0.00433
6366.55853	0.00434
6364.62985	0.00436
6362.70118	0.00436
6360.77250	0.00437
6358.84382	0.00437
6356.91515	0.00436
6354.98647	0.00436
6353.05780	0.00437
6351.12912	0.00439
6349.20045	0.00441
6347.27177	0.00441
6345.34309	0.00441
6343.41442	0.00442
6341.48574	0.00443
6339.55707	0.00443
6337.62839	0.00444
6335.69972	0.00446
6333.77104	0.00448
6331.84236	0.00451
6329.91369	0.00454
6327.98501	0.00455
6326.05634	0.00455
6324.12766	0.00455
6322.19899	0.00455
6320.27031	0.00455
6318.34163	0.00456
6316.41296	0.00458
6314.48428	0.00458
6312.55561	0.00457
6310.62693	0.00458
6308.69826	0.00459
6306.76958	0.00460
6304.84090	0.00463
6302.91223	0.00466
6300.98355	0.00468
6299.05488	0.00470
6297.12620	0.00470
6295.19753	0.00468
6293.26885	0.00468
6291.34017	0.00469
6289.41150	0.00469
6287.48282	0.00469
6285.55415	0.00470
6283.62547	0.00472
6281.69680	0.00474
6279.76812	0.00476
6277.83944	0.00476
6275.91077	0.00477
6273.98209	0.00479
6272.05342	0.00479
6270.12474	0.00481
6268.19607	0.00483
6266.26739	0.00486
6264.33871	0.00488
6262.41004	0.00489
6260.48136	0.00488
6258.55269	0.00489
6256.62401	0.00491
6254.69534	0.00492
6252.76666	0.00492
6250.83798	0.00491
6248.90931	0.00491
6246.98063	0.00494
6245.05196	0.00496
6243.12328	0.00497
6241.19461	0.00496
6239.26593	0.00497
6237.33725	0.00498
6235.40858	0.00498
6233.47990	0.00499
6231.55123	0.00500
6229.62255	0.00501
6227.69388	0.00502
6225.76520	0.00503
6223.83652	0.00505
6221.90785	0.00508
6219.97917	0.00509
6218.05050	0.00509
6216.12182	0.00510
6214.19315	0.00510
6212.26447	0.00512
6210.33579	0.00514
6208.40712	0.00517
6206.47844	0.00516
6204.54977	0.00513
6202.62109	0.00512
6200.69242	0.00515
6198.76374	0.00520
6196.83506	0.00521
6194.90639	0.00521
6192.97771	0.00520
6191.04904	0.00520
6189.12036	0.00521
6187.19169	0.00523
6185.26301	0.00525
6183.33433	0.00526
6181.40566	0.00527
6179.47698	0.00529
6177.54831	0.00533
6175.61963	0.00536
6173.69096	0.00536
6171.76228	0.00534
6169.83360	0.00534
6167.90493	0.00535
6165.97625	0.00536
6164.04758	0.00537
6162.11890	0.00539
6160.19023	0.00541
6158.26155	0.00542
6156.33287	0.00544
6154.40420	0.00546
6152.47552	0.00549
6150.54685	0.00550
6148.61817	0.00550
6146.68950	0.00550
6144.76082	0.00551
6142.83214	0.00552
6140.90347	0.00553
6138.97479	0.00555
6137.04612	0.00556
6135.11744	0.00557
6133.18877	0.00557
6131.26009	0.00559
6129.33141	0.00562
6127.40274	0.00564
6125.47406	0.00565
6123.54539	0.00566
6121.61671	0.00568
6119.68804	0.00568
6117.75936	0.00568
6115.83068	0.00568
6113.90201	0.00570
6111.97333	0.00570
6110.04466	0.00571
6108.11598	0.00573
6106.18731	0.00574
6104.25863	0.00575
6102.32995	0.00575
6100.40128	0.00576
6098.47260	0.00579
6096.54393	0.00580
6094.61525	0.00582
6092.68658	0.00582
6090.75790	0.00583
6088.82922	0.00584
6086.90055	0.00586
6084.97187	0.00588
6083.04320	0.00590
6081.11452	0.00591
6079.18585	0.00591
6077.25717	0.00593
6075.32849	0.00594
6073.39982	0.00596
6071.47114	0.00595
6069.54247	0.00596
6067.61379	0.00597
6065.68512	0.00600
6063.75644	0.00600
6061.82776	0.00601
6059.89909	0.00602
6057.97041	0.00605
6056.04174	0.00606
6054.11306	0.00606
6052.18439	0.00605
6050.25571	0.00605
6048.32703	0.00608
6046.39836	0.00611
6044.46968	0.00613
6042.54101	0.00614
6040.61233	0.00615
6038.68366	0.00617
6036.75498	0.00619
6034.82630	0.00621
6032.89763	0.00622
6030.96895	0.00623
6029.04028	0.00624
6027.11160	0.00624
6025.18293	0.00624
6023.25425	0.00626
6021.32557	0.00627
6019.39690	0.00627
6017.46822	0.00628
6015.53955	0.00629
6013.61087	0.00631
6011.68220	0.00634
6009.75352	0.00637
6007.82484	0.00638
6005.89617	0.00639
6003.96749	0.00640
6002.03882	0.00640
6000.11014	0.00641
5998.18147	0.00643
5996.25279	0.00646
5994.32411	0.00649
5992.39544	0.00649
5990.46676	0.00649
5988.53809	0.00649
5986.60941	0.00650
5984.68074	0.00651
5982.75206	0.00652
5980.82338	0.00653
5978.89471	0.00654
5976.96603	0.00657
5975.03736	0.00659
5973.10868	0.00660
5971.18001	0.00661
5969.25133	0.00663
5967.32265	0.00664
5965.39398	0.00665
5963.46530	0.00667
5961.53663	0.00669
5959.60795	0.00670
5957.67928	0.00672
5955.75060	0.00674
5953.82192	0.00674
5951.89325	0.00675
5949.96457	0.00675
5948.03590	0.00676
5946.10722	0.00678
5944.17855	0.00682
5942.24987	0.00685
5940.32119	0.00685
5938.39252	0.00684
5936.46384	0.00686
5934.53517	0.00690
5932.60649	0.00694
5930.67782	0.00696
5928.74914	0.00697
5926.82046	0.00697
5924.89179	0.00697
5922.96311	0.00696
5921.03444	0.00696
5919.10576	0.00698
5917.17709	0.00700
5915.24841	0.00702
5913.31973	0.00704
5911.39106	0.00708
5909.46238	0.00711
5907.53371	0.00711
5905.60503	0.00711
5903.67636	0.00711
5901.74768	0.00712
5899.81900	0.00712
5897.89033	0.00713
5895.96165	0.00714
5894.03298	0.00715
5892.10430	0.00716
5890.17563	0.00719
5888.24695	0.00722
5886.31827	0.00723
5884.38960	0.00723
5882.46092	0.00726
5880.53225	0.00730
5878.60357	0.00733
5876.67490	0.00734
5874.74622	0.00736
5872.81755	0.00738
5870.88887	0.00738
5868.96019	0.00737
5867.03152	0.00739
5865.10284	0.00742
5863.17417	0.00743
5861.24549	0.00744
5859.31682	0.00745
5857.38814	0.00747
5855.45946	0.00748
5853.53079	0.00750
5851.60211	0.00752
5849.67344	0.00753
5847.74476	0.00755
5845.81609	0.00755
5843.88741	0.00755
5841.95873	0.00756
5840.03006	0.00759
5838.10138	0.00762
5836.17271	0.00764
5834.24403	0.00766
5832.31536	0.00768
5830.38668	0.00769
5828.45800	0.00769
5826.52933	0.00771
5824.60065	0.00774
5822.67198	0.00775
5820.74330	0.00777
5818.81463	0.00779
5816.88595	0.00780
5814.95727	0.00780
5813.02860	0.00780
5811.09992	0.00781
5809.17125	0.00783
5807.24257	0.00785
5805.31390	0.00787
5803.38522	0.00788
5801.45654	0.00790
5799.52787	0.00792
5797.59919	0.00795
5795.67052	0.00798
5793.74184	0.00799
5791.81317	0.00800
5789.88449	0.00802
5787.95581	0.00804
5786.02714	0.00804
5784.09846	0.00805
5782.16979	0.00806
5780.24111	0.00807
5778.31244	0.00809
5776.38376	0.00811
5774.45508	0.00814
5772.52641	0.00817
5770.59773	0.00819
5768.66906	0.00821
5766.74038	0.00822
5764.81171	0.00823
5762.88303	0.00824
5760.95435	0.00827
5759.02568	0.00828
5757.09700	0.00829
5755.16833	0.00829
5753.23965	0.00831
5751.31098	0.00833
5749.38230	0.00835
5747.45362	0.00836
5745.52495	0.00837
5743.59627	0.00839
5741.66760	0.00841
5739.73892	0.00842
5737.81025	0.00843
5735.88157	0.00845
5733.95289	0.00847
5732.02422	0.00850
5730.09554	0.00853
5728.16687	0.00855
5726.23819	0.00855
5724.30952	0.00856
5722.38084	0.00859
5720.45216	0.00863
5718.52349	0.00865
5716.59481	0.00866
5714.66614	0.00867
5712.73746	0.00868
5710.80879	0.00870
5708.88011	0.00873
5706.95143	0.00874
5705.02276	0.00875
5703.09408	0.00876
5701.16541	0.00878
5699.23673	0.00880
5697.30806	0.00882
5695.37938	0.00886
5693.45070	0.00888
5691.52203	0.00890
5689.59335	0.00892
5687.66468	0.00891
5685.73600	0.00890
5683.80733	0.00890
5681.87865	0.00893
5679.94997	0.00895
5678.02130	0.00896
5676.09262	0.00897
5674.16395	0.00900
5672.23527	0.00903
5670.30660	0.00905
5668.37792	0.00907
5666.44924	0.00910
5664.52057	0.00912
5662.59189	0.00913
5660.66322	0.00914
5658.73454	0.00915
5656.80587	0.00916
5654.87719	0.00919
5652.94851	0.00922
5651.01984	0.00923
5649.09116	0.00925
5647.16249	0.00927
5645.23381	0.00928
5643.30514	0.00930
5641.37646	0.00934
5639.44778	0.00938
5637.51911	0.00939
5635.59043	0.00939
5633.66176	0.00939
5631.73308	0.00941
5629.80441	0.00943
5627.87573	0.00945
5625.94705	0.00947
5624.01838	0.00949
5622.08970	0.00951
5620.16103	0.00953
5618.23235	0.00955
5616.30368	0.00958
5614.37500	0.00960
5612.44632	0.00960
5610.51765	0.00962
5608.58897	0.00965
5606.66030	0.00967
5604.73162	0.00967
5602.80295	0.00967
5600.87427	0.00969
5598.94559	0.00971
5597.01692	0.00972
5595.08824	0.00975
5593.15957	0.00980
5591.23089	0.00983
5589.30222	0.00985
5587.37354	0.00985
5585.44486	0.00986
5583.51619	0.00989
5581.58751	0.00991
5579.65884	0.00993
5577.73016	0.00994
5575.80149	0.00996
5573.87281	0.00999
5571.94413	0.01001
5570.01546	0.01003
5568.08678	0.01005
5566.15811	0.01007
5564.22943	0.01010
5562.30076	0.01013
5560.37208	0.01016
5558.44340	0.01018
5556.51473	0.01019
5554.58605	0.01020
5552.65738	0.01021
5550.72870	0.01022
5548.80003	0.01024
5546.87135	0.01026
5544.94267	0.01028
5543.01400	0.01030
5541.08532	0.01034
5539.15665	0.01037
5537.22797	0.01038
5535.29930	0.01037
5533.37062	0.01037
5531.44194	0.01039
5529.51327	0.01042
5527.58459	0.01045
5525.65592	0.01047
5523.72724	0.01048
5521.79857	0.01050
5519.86989	0.01051
5517.94121	0.01052
5516.01254	0.01054
5514.08386	0.01057
5512.15519	0.01060
5510.22651	0.01063
5508.29784	0.01065
5506.36916	0.01067
5504.44048	0.01070
5502.51181	0.01073
5500.58313	0.01075
5498.65446	0.01078
5496.72578	0.01080
5494.79711	0.01083
5492.86843	0.01084
5490.93975	0.01085
5489.01108	0.01087
5487.08240	0.01089
5485.15373	0.01091
5483.22505	0.01094
5481.29638	0.01097
5479.36770	0.01098
5477.43902	0.01098
5475.51035	0.01099
5473.58167	0.01102
5471.65300	0.01105
5469.72432	0.01106
5467.79565	0.01108
5465.86697	0.01112
5463.93829	0.01114
5462.00962	0.01114
5460.08094	0.01114
5458.15227	0.01117
5456.22359	0.01122
5454.29492	0.01125
5452.36624	0.01126
5450.43756	0.01128
5448.50889	0.01129
5446.58021	0.01128
5444.65154	0.01128
5442.72286	0.01130
5440.79419	0.01133
5438.86551	0.01138
5436.93683	0.01142
5435.00816	0.01144
5433.07948	0.01146
5431.15081	0.01145
5429.22213	0.01146
5427.29346	0.01149
5425.36478	0.01154
5423.43610	0.01158
5421.50743	0.01159
5419.57875	0.01161
5417.65008	0.01163
5415.72140	0.01165
5413.79273	0.01167
5411.86405	0.01167
5409.93537	0.01170
5408.00670	0.01174
5406.07802	0.01176
5404.14935	0.01176
5402.22067	0.01178
5400.29200	0.01180
5398.36332	0.01181
5396.43464	0.01184
5394.50597	0.01188
5392.57729	0.01191
5390.64862	0.01193
5388.71994	0.01195
5386.79127	0.01197
5384.86259	0.01200
5382.93391	0.01203
5381.00524	0.01205
5379.07656	0.01205
5377.14789	0.01206
5375.21921	0.01208
5373.29054	0.01211
5371.36186	0.01212
5369.43318	0.01214
5367.50451	0.01218
5365.57583	0.01223
5363.64716	0.01225
5361.71848	0.01227
5359.78981	0.01229
5357.86113	0.01228
5355.93245	0.01227
5354.00378	0.01229
5352.07510	0.01234
5350.14643	0.01238
5348.21775	0.01240
5346.28908	0.01239
5344.36040	0.01239
5342.43172	0.01244
5340.50305	0.01249
5338.57437	0.01253
5336.64570	0.01256
5334.71702	0.01257
5332.78835	0.01257
5330.85967	0.01259
5328.93099	0.01261
5327.00232	0.01263
5325.07364	0.01266
5323.14497	0.01269
5321.21629	0.01271
5319.28762	0.01274
5317.35894	0.01276
5315.43026	0.01278
5313.50159	0.01281
5311.57291	0.01282
5309.64424	0.01283
5307.71556	0.01285
5305.78689	0.01288
5303.85821	0.01289
5301.92953	0.01291
5300.00086	0.01294
5298.07218	0.01300
5296.14351	0.01304
5294.21483	0.01305
5292.28616	0.01305
5290.35748	0.01307
5288.42880	0.01310
5286.50013	0.01311
5284.57145	0.01313
5282.64278	0.01316
5280.71410	0.01318
5278.78543	0.01320
5276.85675	0.01324
5274.92807	0.01328
5272.99940	0.01331
5271.07072	0.01334
5269.14205	0.01335
5267.21337	0.01336
5265.28470	0.01337
5263.35602	0.01339
5261.42734	0.01341
5259.49867	0.01344
5257.56999	0.01348
5255.64132	0.01352
5253.71264	0.01355
5251.78397	0.01357
5249.85529	0.01358
5247.92661	0.01360
5245.99794	0.01363
5244.06926	0.01366
5242.14059	0.01368
5240.21191	0.01370
5238.28324	0.01372
5236.35456	0.01372
5234.42588	0.01374
5232.49721	0.01377
5230.56853	0.01379
5228.63986	0.01382
5226.71118	0.01385
5224.78251	0.01389
5222.85383	0.01393
5220.92515	0.01395
5218.99648	0.01397
5217.06780	0.01399
5215.13913	0.01401
5213.21045	0.01402
5211.28178	0.01404
5209.35310	0.01406
5207.42442	0.01408
5205.49575	0.01408
5203.56707	0.01410
5201.63840	0.01416
5199.70972	0.01422
5197.78105	0.01424
5195.85237	0.01425
5193.92369	0.01426
5191.99502	0.01431
5190.06634	0.01434
5188.13767	0.01435
5186.20899	0.01436
5184.28032	0.01438
5182.35164	0.01440
5180.42296	0.01443
5178.49429	0.01446
5176.56561	0.01448
5174.63694	0.01452
5172.70826	0.01456
5170.77959	0.01457
5168.85091	0.01458
5166.92223	0.01459
5164.99356	0.01460
5163.06488	0.01463
5161.13621	0.01467
5159.20753	0.01471
5157.27886	0.01474
5155.35018	0.01476
5153.42150	0.01478
5151.49283	0.01482
5149.56415	0.01486
5147.63548	0.01488
5145.70680	0.01490
5143.77813	0.01493
5141.84945	0.01496
5139.92077	0.01497
5137.99210	0.01499
5136.06342	0.01500
5134.13475	0.01501
5132.20607	0.01503
5130.27740	0.01507
5128.34872	0.01510
5126.42004	0.01513
5124.49137	0.01516
5122.56269	0.01520
5120.63402	0.01523
5118.70534	0.01527
5116.77667	0.01529
5114.84799	0.01530
5112.91931	0.01531
5110.99064	0.01534
5109.06196	0.01538
5107.13329	0.01541
5105.20461	0.01542
5103.27594	0.01543
5101.34726	0.01545
5099.41858	0.01546
5097.48991	0.01549
5095.56123	0.01551
5093.63256	0.01555
5091.70388	0.01558
5089.77521	0.01562
5087.84653	0.01564
5085.91785	0.01566
5083.98918	0.01570
5082.06050	0.01573
5080.13183	0.01574
5078.20315	0.01576
5076.27448	0.01581
5074.34580	0.01585
5072.41712	0.01587
5070.48845	0.01587
5068.55977	0.01589
5066.63110	0.01591
5064.70242	0.01593
5062.77375	0.01596
5060.84507	0.01600
5058.91639	0.01603
5056.98772	0.01604
5055.05904	0.01606
5053.13037	0.01610
5051.20169	0.01615
5049.27302	0.01618
5047.34434	0.01620
5045.41566	0.01622
5043.48699	0.01623
5041.55831	0.01625
5039.62964	0.01628
5037.70096	0.01632
5035.77229	0.01634
5033.84361	0.01636
5031.91493	0.01638
5029.98626	0.01641
5028.05758	0.01644
5026.12891	0.01647
5024.20023	0.01651
5022.27156	0.01654
5020.34288	0.01655
5018.41420	0.01655
5016.48553	0.01658
5014.55685	0.01662
5012.62818	0.01665
5010.69950	0.01667
5008.77083	0.01670
5006.84215	0.01674
5004.91347	0.01680
5002.98480	0.01682
5001.05612	0.01683
4999.12745	0.01684
4997.19877	0.01686
4995.27010	0.01690
4993.34142	0.01694
4991.41274	0.01696
4989.48407	0.01698
4987.55539	0.01699
4985.62672	0.01701
4983.69804	0.01706
4981.76937	0.01710
4979.84069	0.01712
4977.91201	0.01715
4975.98334	0.01718
4974.05466	0.01720
4972.12599	0.01723
4970.19731	0.01725
4968.26864	0.01727
4966.33996	0.01727
4964.41128	0.01729
4962.48261	0.01734
4960.55393	0.01740
4958.62526	0.01744
4956.69658	0.01748
4954.76791	0.01752
4952.83923	0.01754
4950.91055	0.01756
4948.98188	0.01760
4947.05320	0.01764
4945.12453	0.01765
4943.19585	0.01766
4941.26718	0.01768
4939.33850	0.01770
4937.40982	0.01772
4935.48115	0.01775
4933.55247	0.01780
4931.62380	0.01784
4929.69512	0.01787
4927.76645	0.01789
4925.83777	0.01791
4923.90909	0.01795
4921.98042	0.01798
4920.05174	0.01800
4918.12307	0.01801
4916.19439	0.01802
4914.26572	0.01805
4912.33704	0.01809
4910.40836	0.01815
4908.47969	0.01820
4906.55101	0.01822
4904.62234	0.01824
4902.69366	0.01825
4900.76499	0.01827
4898.83631	0.01831
4896.90763	0.01835
4894.97896	0.01838
4893.05028	0.01841
4891.12161	0.01843
4889.19293	0.01845
4887.26426	0.01846
4885.33558	0.01851
4883.40690	0.01856
4881.47823	0.01860
4879.54955	0.01863
4877.62088	0.01866
4875.69220	0.01867
4873.76353	0.01868
4871.83485	0.01869
4869.90617	0.01871
4867.97750	0.01874
4866.04882	0.01878
4864.12015	0.01882
4862.19147	0.01885
4860.26280	0.01887
4858.33412	0.01890
4856.40544	0.01895
4854.47677	0.01898
4852.54809	0.01900
4850.61942	0.01902
4848.69074	0.01906
4846.76207	0.01911
4844.83339	0.01913
4842.90471	0.01914
4840.97604	0.01916
4839.04736	0.01920
4837.11869	0.01925
4835.19001	0.01929
4833.26134	0.01932
4831.33266	0.01935
4829.40398	0.01937
4827.47531	0.01939
4825.54663	0.01942
4823.61796	0.01946
4821.68928	0.01951
4819.76061	0.01954
4817.83193	0.01957
4815.90325	0.01960
4813.97458	0.01962
4812.04590	0.01964
4810.11723	0.01969
4808.18855	0.01973
4806.25988	0.01974
4804.33120	0.01976
4802.40252	0.01980
4800.47385	0.01983
4798.54517	0.01986
4796.61650	0.01990
4794.68782	0.01993
4792.75915	0.01997
4790.83047	0.02000
4788.90179	0.02002
4786.97312	0.02005
4785.04444	0.02009
4783.11577	0.02013
4781.18709	0.02018
4779.25842	0.02021
4777.32974	0.02025
4775.40106	0.02030
4773.47239	0.02034
4771.54371	0.02036
4769.61504	0.02038
4767.68636	0.02040
4765.75769	0.02040
4763.82901	0.02042
4761.90033	0.02046
4759.97166	0.02051
4758.04298	0.02055
4756.11431	0.02061
4754.18563	0.02065
4752.25696	0.02064
4750.32828	0.02065
4748.39960	0.02069
4746.47093	0.02073
4744.54225	0.02077
4742.61358	0.02080
4740.68490	0.02084
4738.75623	0.02088
4736.82755	0.02092
4734.89887	0.02093
4732.97020	0.02095
4731.04152	0.02098
4729.11285	0.02102
4727.18417	0.02106
4725.25550	0.02109
4723.32682	0.02113
4721.39814	0.02117
4719.46947	0.02121
4717.54079	0.02125
4715.61212	0.02127
4713.68344	0.02129
4711.75477	0.02132
4709.82609	0.02137
4707.89741	0.02141
4705.96874	0.02144
4704.04006	0.02146
4702.11139	0.02149
4700.18271	0.02150
4698.25404	0.02151
4696.32536	0.02156
4694.39668	0.02162
4692.46801	0.02166
4690.53933	0.02169
4688.61066	0.02172
4686.68198	0.02175
4684.75331	0.02179
4682.82463	0.02183
4680.89595	0.02189
4678.96728	0.02193
4677.03860	0.02196
4675.10993	0.02198
4673.18125	0.02200
4671.25258	0.02204
4669.32390	0.02209
4667.39522	0.02211
4665.46655	0.02212
4663.53787	0.02215
4661.60920	0.02220
4659.68052	0.02224
4657.75185	0.02227
4655.82317	0.02231
4653.89449	0.02237
4651.96582	0.02240
4650.03714	0.02242
4648.10847	0.02245
4646.17979	0.02250
4644.25112	0.02257
4642.32244	0.02260
4640.39376	0.02262
4638.46509	0.02265
4636.53641	0.02269
4634.60774	0.02273
4632.67906	0.02278
4630.75039	0.02282
4628.82171	0.02285
4626.89303	0.02289
4624.96436	0.02292
4623.03568	0.02295
4621.10701	0.02298
4619.17833	0.02301
4617.24966	0.02305
4615.32098	0.02309
4613.39230	0.02313
4611.46363	0.02315
4609.53495	0.02319
4607.60628	0.02326
4605.67760	0.02331
4603.74893	0.02334
4601.82025	0.02336
4599.89157	0.02339
4597.96290	0.02344
4596.03422	0.02349
4594.10555	0.02351
4592.17687	0.02354
4590.24820	0.02359
4588.31952	0.02364
4586.39084	0.02367
4584.46217	0.02372
4582.53349	0.02379
4580.60482	0.02383
4578.67614	0.02386
4576.74747	0.02389
4574.81879	0.02392
4572.89011	0.02395
4570.96144	0.02399
4569.03276	0.02403
4567.10409	0.02408
4565.17541	0.02413
4563.24674	0.02417
4561.31806	0.02420
4559.38938	0.02422
4557.46071	0.02422
4555.53203	0.02423
4553.60336	0.02426
4551.67468	0.02431
4549.74601	0.02438
4547.81733	0.02445
4545.88865	0.02449
4543.95998	0.02453
4542.03130	0.02455
4540.10263	0.02458
4538.17395	0.02462
4536.24528	0.02469
4534.31660	0.02475
4532.38792	0.02480
4530.45925	0.02483
4528.53057	0.02487
4526.60190	0.02492
4524.67322	0.02497
4522.74455	0.02499
4520.81587	0.02501
4518.88719	0.02505
4516.95852	0.02512
4515.02984	0.02516
4513.10117	0.02518
4511.17249	0.02522
4509.24382	0.02530
4507.31514	0.02536
4505.38646	0.02540
4503.45779	0.02543
4501.52911	0.02546
4499.60044	0.02550
4497.67176	0.02556
4495.74309	0.02558
4493.81441	0.02561
4491.88573	0.02566
4489.95706	0.02570
4488.02838	0.02572
4486.09971	0.02577
4484.17103	0.02581
4482.24236	0.02586
4480.31368	0.02590
4478.38500	0.02595
4476.45633	0.02600
4474.52765	0.02607
4472.59898	0.02611
4470.67030	0.02616
4468.74163	0.02622
4466.81295	0.02628
4464.88427	0.02632
4462.95560	0.02632
4461.02692	0.02633
4459.09825	0.02638
4457.16957	0.02643
4455.24090	0.02648
4453.31222	0.02651
4451.38354	0.02655
4449.45487	0.02661
4447.52619	0.02667
4445.59752	0.02673
4443.66884	0.02679
4441.74017	0.02684
4439.81149	0.02687
4437.88281	0.02689
4435.95414	0.02692
4434.02546	0.02698
4432.09679	0.02703
4430.16811	0.02710
4428.23944	0.02717
4426.31076	0.02721
4424.38208	0.02724
4422.45341	0.02727
4420.52473	0.02733
4418.59606	0.02738
4416.66738	0.02743
4414.73871	0.02748
4412.81003	0.02752
4410.88135	0.02756
4408.95268	0.02760
4407.02400	0.02768
4405.09533	0.02774
4403.16665	0.02777
4401.23798	0.02779
4399.30930	0.02783
4397.38062	0.02788
4395.45195	0.02795
4393.52327	0.02801
4391.59460	0.02807
4389.66592	0.02813
4387.73725	0.02818
4385.80857	0.02821
4383.87989	0.02826
4381.95122	0.02831
4380.02254	0.02834
4378.09387	0.02839
4376.16519	0.02844
4374.23652	0.02850
4372.30784	0.02856
4370.37916	0.02861
4368.45049	0.02866
4366.52181	0.02870
4364.59314	0.02873
4362.66446	0.02878
4360.73579	0.02882
4358.80711	0.02885
4356.87843	0.02891
4354.94976	0.02898
4353.02108	0.02906
4351.09241	0.02912
4349.16373	0.02915
4347.23506	0.02917
4345.30638	0.02922
4343.37770	0.02929
4341.44903	0.02933
4339.52035	0.02938
4337.59168	0.02945
4335.66300	0.02953
4333.73433	0.02959
4331.80565	0.02963
4329.87697	0.02966
4327.94830	0.02970
4326.01962	0.02975
4324.09095	0.02981
4322.16227	0.02986
4320.23360	0.02993
4318.30492	0.03001
4316.37624	0.03009
4314.44757	0.03014
4312.51889	0.03018
4310.59022	0.03022
4308.66154	0.03028
4306.73287	0.03034
4304.80419	0.03039
4302.87551	0.03044
4300.94684	0.03049
4299.01816	0.03053
4297.08949	0.03057
4295.16081	0.03062
4293.23214	0.03069
4291.30346	0.03076
4289.37478	0.03082
4287.44611	0.03086
4285.51743	0.03092
4283.58876	0.03099
4281.66008	0.03106
4279.73141	0.03110
4277.80273	0.03115
4275.87405	0.03122
4273.94538	0.03130
4272.01670	0.03136
4270.08803	0.03140
4268.15935	0.03145
4266.23068	0.03150
4264.30200	0.03155
4262.37332	0.03161
4260.44465	0.03165
4258.51597	0.03169
4256.58730	0.03175
4254.65862	0.03183
4252.72995	0.03192
4250.80127	0.03199
4248.87259	0.03206
4246.94392	0.03213
4245.01524	0.03218
4243.08657	0.03222
4241.15789	0.03226
4239.22922	0.03231
4237.30054	0.03236
4235.37186	0.03241
4233.44319	0.03247
4231.51451	0.03254
4229.58584	0.03259
4227.65716	0.03263
4225.72849	0.03269
4223.79981	0.03276
4221.87113	0.03283
4219.94246	0.03290
4218.01378	0.03298
4216.08511	0.03305
4214.15643	0.03310
4212.22776	0.03315
4210.29908	0.03320
4208.37040	0.03326
4206.44173	0.03333
4204.51305	0.03341
4202.58438	0.03348
4200.65570	0.03355
4198.72703	0.03359
4196.79835	0.03364
4194.86968	0.03369
4192.94100	0.03377
4191.01232	0.03384
4189.08365	0.03390
4187.15497	0.03394
4185.22630	0.03399
4183.29762	0.03404
4181.36895	0.03411
4179.44027	0.03421
4177.51159	0.03431
4175.58292	0.03437
4173.65424	0.03440
4171.72557	0.03445
4169.79689	0.03450
4167.86822	0.03455
4165.93954	0.03460
4164.01086	0.03466
4162.08219	0.03474
4160.15351	0.03484
4158.22484	0.03493
4156.29616	0.03500
4154.36749	0.03506
4152.43881	0.03512
4150.51013	0.03518
4148.58146	0.03526
4146.65278	0.03533
4144.72411	0.03537
4142.79543	0.03542
4140.86676	0.03549
4138.93808	0.03557
4137.00940	0.03562
4135.08073	0.03565
4133.15205	0.03570
4131.22338	0.03578
4129.29470	0.03587
4127.36603	0.03597
4125.43735	0.03606
4123.50867	0.03613
4121.58000	0.03617
4119.65132	0.03623
4117.72265	0.03631
4115.79397	0.03638
4113.86530	0.03643
4111.93662	0.03648
4110.00794	0.03653
4108.07927	0.03658
4106.15059	0.03665
4104.22192	0.03673
4102.29324	0.03682
4100.36457	0.03691
4098.43589	0.03699
4096.50721	0.03706
4094.57854	0.03711
4092.64986	0.03715
4090.72119	0.03721
4088.79251	0.03730
4086.86384	0.03741
4084.93516	0.03752
4083.00648	0.03759
4081.07781	0.03766
4079.14913	0.03771
4077.22046	0.03775
4075.29178	0.03780
4073.36311	0.03788
4071.43443	0.03799
4069.50575	0.03807
4067.57708	0.03813
4065.64840	0.03819
4063.71973	0.03826
4061.79105	0.03832
4059.86238	0.03838
4057.93370	0.03845
4056.00502	0.03853
4054.07635	0.03862
4052.14767	0.03871
4050.21900	0.03879
4048.29032	0.03887
4046.36165	0.03892
4044.43297	0.03896
4042.50429	0.03900
4040.57562	0.03906
4038.64694	0.03916
4036.71827	0.03925
4034.78959	0.03932
4032.86092	0.03941
4030.93224	0.03950
4029.00356	0.03956
4027.07489	0.03963
4025.14621	0.03973
4023.21754	0.03984
4021.28886	0.03991
4019.36019	0.03995
4017.43151	0.04001
4015.50283	0.04010
4013.57416	0.04019
4011.64548	0.04025
4009.71681	0.04031
4007.78813	0.04038
4005.85946	0.04048
4003.93078	0.04057
4002.00210	0.04066
4000.07343	0.04073
3998.14475	0.04078
3996.21608	0.04085
3994.28740	0.04094
3992.35873	0.04100
3990.43005	0.04106
3988.50137	0.04116
3986.57270	0.04127
3984.64402	0.04135
3982.71535	0.04143
3980.78667	0.04151
3978.85800	0.04156
3976.92932	0.04158
3975.00064	0.04163
3973.07197	0.04173
3971.14329	0.04184
3969.21462	0.04192
3967.28594	0.04200
3965.35727	0.04208
3963.42859	0.04216
3961.49991	0.04224
3959.57124	0.04232
3957.64256	0.04241
3955.71389	0.04251
3953.78521	0.04261
3951.85654	0.04267
3949.92786	0.04271
3947.99918	0.04276
3946.07051	0.04282
3944.14183	0.04288
3942.21316	0.04299
3940.28448	0.04312
3938.35581	0.04321
3936.42713	0.04325
3934.49845	0.04326
3932.56978	0.04329
3930.64110	0.04340
3928.71243	0.04351
3926.78375	0.04356
3924.85508	0.04363
3922.92640	0.04376
3920.99772	0.04385
3919.06905	0.04386
3917.14037	0.04392
3915.21170	0.04408
3913.28302	0.04424
3911.35435	0.04432
3909.42567	0.04435
3907.49699	0.04435
3905.56832	0.04433
3903.63964	0.04433
3901.71097	0.04439
3899.78229	0.04457
3897.85362	0.04480
3895.92494	0.04498
3893.99626	0.04502
3892.06759	0.04502
3890.13891	0.04511
3888.21024	0.04521
3886.28156	0.04525
3884.35289	0.04531
3882.42421	0.04539
3880.49553	0.04546
3878.56686	0.04562
3876.63818	0.04577
3874.70951	0.04584
3872.78083	0.04586
3870.85216	0.04587
3868.92348	0.04592
3866.99480	0.04599
3865.06613	0.04606
3863.13745	0.04619
3861.20878	0.04637
3859.28010	0.04649
3857.35143	0.04645
3855.42275	0.04627
3853.49407	0.04625
3851.56540	0.04657
3849.63672	0.04691
3847.70805	0.04708
3845.77937	0.04715
3843.85070	0.04720
3841.92202	0.04721
3839.99334	0.04717
3838.06467	0.04719
3836.13599	0.04735
3834.20732	0.04755
3832.27864	0.04772
3830.34997	0.04784
3828.42129	0.04795
3826.49261	0.04805
3824.56394	0.04814
3822.63526	0.04813
3820.70659	0.04813
3818.77791	0.04818
3816.84924	0.04825
3814.92056	0.04843
3812.99188	0.04870
3811.06321	0.04885
3809.13453	0.04889
3807.20586	0.04892
3805.27718	0.04897
3803.34851	0.04896
3801.41983	0.04898
3799.49115	0.04913
3797.56248	0.04931
3795.63380	0.04948
3793.70513	0.04966
3791.77645	0.04978
3789.84778	0.04983
3787.91910	0.04989
3785.99042	0.04999
3784.06175	0.05010
3782.13307	0.05018
3780.20440	0.05023
3778.27572	0.05033
3776.34705	0.05047
3774.41837	0.05057
3772.48969	0.05059
3770.56102	0.05060
3768.63234	0.05069
3766.70367	0.05086
3764.77499	0.05101
3762.84632	0.05109
3760.91764	0.05109
3758.98896	0.05111
3757.06029	0.05123
3755.13161	0.05127
3753.20294	0.05118
3751.27426	0.05116
3749.34559	0.05131
3747.41691	0.05130
3745.48823	0.05110
3743.55956	0.05122
3741.63088	0.05167
3739.70221	0.05192
3737.77353	0.05188
3735.84486	0.05192
3733.91618	0.05212
3731.98750	0.05235
3730.05883	0.05253
3728.13015	0.05262
3726.20148	0.05266
3724.27280	0.05273
3722.34413	0.05286
3720.41545	0.05301
3718.48677	0.05317
3716.55810	0.05333
3714.62942	0.05341
3712.70075	0.05341
3710.77207	0.05344
3708.84340	0.05359
3706.91472	0.05379
3704.98604	0.05390
3703.05737	0.05392
3701.12869	0.05399
3699.20002	0.05415
3697.27134	0.05430
3695.34267	0.05436
3693.41399	0.05431
3691.48531	0.05422
3689.55664	0.05423
3687.62796	0.05441
3685.69929	0.05468
3683.77061	0.05487
3681.84194	0.05494
3679.91326	0.05494
3677.98458	0.05486
3676.05591	0.05484
3674.12723	0.05502
3672.19856	0.05520
3670.26988	0.05525
3668.34121	0.05538
3666.41253	0.05563
3664.48385	0.05582
3662.55518	0.05593
3660.62650	0.05600
3658.69783	0.05603
3656.76915	0.05606
3654.84048	0.05614
3652.91180	0.05609
3650.98312	0.05589
3649.05445	0.05577
3647.12577	0.05591
3645.19710	0.05623
3643.26842	0.05653
3641.33975	0.05671
3639.41107	0.05684
3637.48239	0.05694
3635.55372	0.05701
3633.62504	0.05704
3631.69637	0.05701
3629.76769	0.05696
3627.83902	0.05706
3625.91034	0.05731
3623.98166	0.05747
3622.05299	0.05745
3620.12431	0.05739
3618.19564	0.05747
3616.26696	0.05761
3614.33829	0.05764
3612.40961	0.05761
3610.48093	0.05764
3608.55226	0.05779
3606.62358	0.05802
3604.69491	0.05818
3602.76623	0.05824
3600.83756	0.05827
3598.90888	0.05835
3596.98020	0.05845
3595.05153	0.05855
3593.12285	0.05863
3591.19418	0.05865
3589.26550	0.05859
3587.33683	0.05861
3585.40815	0.05879
3583.47947	0.05899
3581.55080	0.05911
3579.62212	0.05920
3577.69345	0.05930
3575.76477	0.05938
3573.83610	0.05945
3571.90742	0.05948
3569.97874	0.05942
3568.05007	0.05938
3566.12139	0.05951
3564.19272	0.05972
3562.26404	0.05987
3560.33537	0.05997
3558.40669	0.06006
3556.47801	0.06016
3554.54934	0.06023
3552.62066	0.06026
3550.69199	0.06030
3548.76331	0.06037
3546.83464	0.06044
3544.90596	0.06050
3542.97728	0.06058
3541.04861	0.06066
3539.11993	0.06071
3537.19126	0.06077
3535.26258	0.06086
3533.33391	0.06095
3531.40523	0.06098
3529.47655	0.06098
3527.54788	0.06100
3525.61920	0.06105
3523.69053	0.06111
3521.76185	0.06119
3519.83318	0.06129
3517.90450	0.06135
3515.97582	0.06139
3514.04715	0.06140
3512.11847	0.06140
3510.18980	0.06142
3508.26112	0.06146
3506.33245	0.06151
3504.40377	0.06153
3502.47509	0.06154
3500.54642	0.06158
3498.61774	0.06162
3496.68907	0.06165
3494.76039	0.06168
3492.83172	0.06173
3490.90304	0.06176
3488.97436	0.06178
3487.04569	0.06184
3485.11701	0.06190
3483.18834	0.06194
3481.25966	0.06200
3479.33099	0.06208
3477.40231	0.06215
3475.47363	0.06218
3473.54496	0.06224
3471.61628	0.06234
3469.68761	0.06243
3467.75893	0.06251
3465.83026	0.06259
3463.90158	0.06269
3461.97290	0.06281
3460.04423	0.06294
3458.11555	0.06305
3456.18688	0.06316
3454.25820	0.06327
3452.32953	0.06338
3450.40085	0.06345
3448.47217	0.06350
3446.54350	0.06356
3444.61482	0.06364
3442.68615	0.06377
3440.75747	0.06393
3438.82880	0.06410
3436.90012	0.06426
3434.97144	0.06442
3433.04277	0.06459
3431.11409	0.06479
3429.18542	0.06500
3427.25674	0.06522
3425.32807	0.06543
3423.39939	0.06561
3421.47071	0.06577
3419.54204	0.06595
3417.61336	0.06614
3415.68469	0.06631
3413.75601	0.06645
3411.82734	0.06660
3409.89866	0.06677
3407.96998	0.06691
3406.04131	0.06701
3404.11263	0.06712
3402.18396	0.06725
3400.25528	0.06738
3398.32661	0.06752
3396.39793	0.06767
3394.46925	0.06783
3392.54058	0.06798
3390.61190	0.06811
3388.68323	0.06824
3386.75455	0.06839
3384.82588	0.06855
3382.89720	0.06871
3380.96852	0.06883
3379.03985	0.06892
3377.11117	0.06901
3375.18250	0.06912
3373.25382	0.06924
3371.32515	0.06939
3369.39647	0.06954
3367.46779	0.06968
3365.53912	0.06979
3363.61044	0.06988
3361.68177	0.06996
3359.75309	0.07007
3357.82442	0.07021
3355.89574	0.07035
3353.96706	0.07048
3352.03839	0.07062
3350.10971	0.07077
3348.18104	0.07090
3346.25236	0.07101
3344.32369	0.07112
3342.39501	0.07123
3340.46633	0.07134
3338.53766	0.07145
3336.60898	0.07157
3334.68031	0.07170
3332.75163	0.07184
3330.82296	0.07197
3328.89428	0.07212
3326.96560	0.07225
3325.03693	0.07235
3323.10825	0.07248
3321.17958	0.07266
3319.25090	0.07283
3317.32223	0.07295
3315.39355	0.07305
3313.46487	0.07318
3311.53620	0.07329
3309.60752	0.07339
3307.67885	0.07351
3305.75017	0.07364
3303.82150	0.07377
3301.89282	0.07389
3299.96414	0.07401
3298.03547	0.07414
3296.10679	0.07429
3294.17812	0.07443
3292.24944	0.07457
3290.32077	0.07473
3288.39209	0.07489
3286.46341	0.07503
3284.53474	0.07516
3282.60606	0.07531
3280.67739	0.07547
3278.74871	0.07559
3276.82004	0.07570
3274.89136	0.07582
3272.96268	0.07594
3271.03401	0.07606
3269.10533	0.07618
3267.17666	0.07631
3265.24798	0.07645
3263.31931	0.07660
3261.39063	0.07678
3259.46195	0.07695
3257.53328	0.07709
3255.60460	0.07720
3253.67593	0.07730
3251.74725	0.07745
3249.81858	0.07764
3247.88990	0.07780
3245.96122	0.07794
3244.03255	0.07807
3242.10387	0.07819
3240.17520	0.07832
3238.24652	0.07848
3236.31785	0.07862
3234.38917	0.07873
3232.46049	0.07884
3230.53182	0.07897
3228.60314	0.07913
3226.67447	0.07930
3224.74579	0.07945
3222.81712	0.07956
3220.88844	0.07966
3218.95976	0.07978
3217.03109	0.07992
3215.10241	0.08006
3213.17374	0.08022
3211.24506	0.08038
3209.31639	0.08051
3207.38771	0.08061
3205.45903	0.08074
3203.53036	0.08088
3201.60168	0.08102
3199.67301	0.08117
3197.74433	0.08134
3195.81566	0.08152
3193.88698	0.08170
3191.95830	0.08186
3190.02963	0.08199
3188.10095	0.08208
3186.17228	0.08219
3184.24360	0.08234
3182.31493	0.08251
3180.38625	0.08264
3178.45757	0.08275
3176.52890	0.08288
3174.60022	0.08305
3172.67155	0.08323
3170.74287	0.08339
3168.81420	0.08353
3166.88552	0.08369
3164.95684	0.08384
3163.02817	0.08396
3161.09949	0.08408
3159.17082	0.08423
3157.24214	0.08438
3155.31347	0.08450
3153.38479	0.08462
3151.45611	0.08476
3149.52744	0.08491
3147.59876	0.08507
3145.67009	0.08523
3143.74141	0.08536
3141.81274	0.08547
3139.88406	0.08559
3137.95538	0.08573
3136.02671	0.08586
3134.09803	0.08600
3132.16936	0.08619
3130.24068	0.08639
3128.31201	0.08652
3126.38333	0.08663
3124.45465	0.08676
3122.52598	0.08691
3120.59730	0.08704
3118.66863	0.08718
3116.73995	0.08731
3114.81128	0.08743
3112.88260	0.08755
3110.95392	0.08770
3109.02525	0.08787
3107.09657	0.08803
3105.16790	0.08816
3103.23922	0.08828
3101.31055	0.08842
3099.38187	0.08857
3097.45319	0.08872
3095.52452	0.08886
3093.59584	0.08900
3091.66717	0.08915
3089.73849	0.08931
3087.80982	0.08945
3085.88114	0.08958
3083.95246	0.08971
3082.02379	0.08986
3080.09511	0.09004
3078.16644	0.09020
3076.23776	0.09035
3074.30909	0.09050
3072.38041	0.09062
3070.45173	0.09073
3068.52306	0.09086
3066.59438	0.09103
3064.66571	0.09119
3062.73703	0.09133
3060.80836	0.09146
3058.87968	0.09158
3056.95100	0.09170
3055.02233	0.09182
3053.09365	0.09197
3051.16498	0.09213
3049.23630	0.09228
3047.30763	0.09243
3045.37895	0.09257
3043.45027	0.09270
3041.52160	0.09283
3039.59292	0.09293
3037.66425	0.09301
3035.73557	0.09312
3033.80690	0.09328
3031.87822	0.09346
3029.94954	0.09361
3028.02087	0.09376
3026.09219	0.09392
3024.16352	0.09408
3022.23484	0.09423
3020.30617	0.09439
3018.37749	0.09454
3016.44881	0.09467
3014.52014	0.09479
3012.59146	0.09491
3010.66279	0.09506
3008.73411	0.09523
3006.80544	0.09538
3004.87676	0.09551
3002.94808	0.09566
3001.01941	0.09581
2999.09073	0.09595
2997.16206	0.09605
2995.23338	0.09615
2993.30471	0.09629
2991.37603	0.09643
2989.44735	0.09654
2987.51868	0.09665
2985.59000	0.09677
2983.66133	0.09688
2981.73265	0.09694
2979.80398	0.09698
2977.87530	0.09702
2975.94662	0.09704
2974.01795	0.09703
2972.08927	0.09704
2970.16060	0.09706
2968.23192	0.09706
2966.30325	0.09706
2964.37457	0.09708
2962.44589	0.09715
2960.51722	0.09726
2958.58854	0.09743
2956.65987	0.09766
2954.73119	0.09789
2952.80252	0.09807
2950.87384	0.09820
2948.94516	0.09833
2947.01649	0.09848
2945.08781	0.09860
2943.15914	0.09865
2941.23046	0.09865
2939.30179	0.09865
2937.37311	0.09866
2935.44443	0.09865
2933.51576	0.09864
2931.58708	0.09859
2929.65841	0.09852
2927.72973	0.09846
2925.80106	0.09845
2923.87238	0.09846
2921.94370	0.09849
2920.01503	0.09858
2918.08635	0.09873
2916.15768	0.09901
2914.22900	0.09944
2912.30033	0.09994
2910.37165	0.10040
2908.44297	0.10079
2906.51430	0.10110
2904.58562	0.10136
2902.65695	0.10158
2900.72827	0.10178
2898.79960	0.10199
2896.87092	0.10221
2894.94224	0.10243
2893.01357	0.10265
2891.08489	0.10287
2889.15622	0.10306
2887.22754	0.10321
2885.29887	0.10334
2883.37019	0.10352
2881.44151	0.10371
2879.51284	0.10387
2877.58416	0.10399
2875.65549	0.10412
2873.72681	0.10426
2871.79814	0.10439
2869.86946	0.10450
2867.94078	0.10459
2866.01211	0.10468
2864.08343	0.10477
2862.15476	0.10487
2860.22608	0.10494
2858.29741	0.10495
2856.36873	0.10493
2854.44005	0.10489
2852.51138	0.10489
2850.58270	0.10498
2848.65403	0.10521
2846.72535	0.10562
2844.79668	0.10616
2842.86800	0.10665
2840.93932	0.10700
2839.01065	0.10726
2837.08197	0.10748
2835.15330	0.10768
2833.22462	0.10790
2831.29595	0.10812
2829.36727	0.10834
2827.43859	0.10855
2825.50992	0.10873
2823.58124	0.10889
2821.65257	0.10903
2819.72389	0.10916
2817.79522	0.10930
2815.86654	0.10946
2813.93786	0.10962
2812.00919	0.10976
2810.08051	0.10990
2808.15184	0.11007
2806.22316	0.11025
2804.29449	0.11037
2802.36581	0.11048
2800.43713	0.11062
2798.50846	0.11079
2796.57978	0.11097
2794.65111	0.11117
2792.72243	0.11136
2790.79376	0.11152
2788.86508	0.11169
2786.93640	0.11185
2785.00773	0.11200
2783.07905	0.11214
2781.15038	0.11229
2779.22170	0.11242
2777.29303	0.11257
2775.36435	0.11272
2773.43567	0.11287
2771.50700	0.11303
2769.57832	0.11317
2767.64965	0.11329
2765.72097	0.11343
2763.79230	0.11363
2761.86362	0.11383
2759.93494	0.11399
2758.00627	0.11414
2756.07759	0.11431
2754.14892	0.11447
2752.22024	0.11459
2750.29157	0.11471
2748.36289	0.11486
2746.43421	0.11504
2744.50554	0.11519
2742.57686	0.11531
2740.64819	0.11543
2738.71951	0.11558
2736.79084	0.11575
2734.86216	0.11593
2732.93348	0.11612
2731.00481	0.11627
2729.07613	0.11635
2727.14746	0.11644
2725.21878	0.11660
2723.29011	0.11679
2721.36143	0.11696
2719.43275	0.11710
2717.50408	0.11724
2715.57540	0.11737
2713.64673	0.11752
2711.71805	0.11769
2709.78938	0.11786
2707.86070	0.11799
2705.93202	0.11809
2704.00335	0.11820
2702.07467	0.11834
2700.14600	0.11851
2698.21732	0.11868
2696.28865	0.11883
2694.35997	0.11896
2692.43129	0.11911
2690.50262	0.11928
2688.57394	0.11943
2686.64527	0.11959
2684.71659	0.11973
2682.78792	0.11986
2680.85924	0.12000
2678.93056	0.12017
2677.00189	0.12034
2675.07321	0.12047
2673.14454	0.12058
2671.21586	0.12072
2669.28719	0.12092
2667.35851	0.12111
2665.42983	0.12124
2663.50116	0.12136
2661.57248	0.12148
2659.64381	0.12163
2657.71513	0.12179
2655.78646	0.12194
2653.85778	0.12207
2651.92910	0.12220
2650.00043	0.12235
2648.07175	0.12255
2646.14308	0.12273
2644.21440	0.12288
2642.28573	0.12300
2640.35705	0.12314
2638.42837	0.12332
2636.49970	0.12351
2634.57102	0.12367
2632.64235	0.12381
2630.71367	0.12396
2628.78500	0.12412
2626.85632	0.12430
2624.92764	0.12450
2622.99897	0.12466
2621.07029	0.12480
2619.14162	0.12495
2617.21294	0.12510
2615.28427	0.12526
2613.35559	0.12543
2611.42691	0.12556
2609.49824	0.12569
2607.56956	0.12587
2605.64089	0.12606
2603.71221	0.12625
2601.78354	0.12643
2599.85486	0.12658
2597.92618	0.12670
2595.99751	0.12685
2594.06883	0.12703
2592.14016	0.12721
2590.21148	0.12737
2588.28281	0.12751
2586.35413	0.12767
2584.42545	0.12780
2582.49678	0.12792
2580.56810	0.12808
2578.63943	0.12827
2576.71075	0.12843
2574.78208	0.12857
2572.85340	0.12873
2570.92472	0.12889
2568.99605	0.12904
2567.06737	0.12917
2565.13870	0.12930
2563.21002	0.12945
2561.28135	0.12960
2559.35267	0.12974
2557.42399	0.12986
2555.49532	0.13002
2553.56664	0.13021
2551.63797	0.13039
2549.70929	0.13056
2547.78062	0.13071
2545.85194	0.13085
2543.92326	0.13100
2541.99459	0.13118
2540.06591	0.13137
2538.13724	0.13151
2536.20856	0.13162
2534.27989	0.13174
2532.35121	0.13189
2530.42253	0.13204
2528.49386	0.13219
2526.56518	0.13233
2524.63651	0.13251
2522.70783	0.13270
2520.77916	0.13286
2518.85048	0.13304
2516.92181	0.13322
2514.99313	0.13340
2513.06445	0.13355
2511.13578	0.13368
2509.20710	0.13384
2507.27843	0.13404
2505.34975	0.13424
2503.42108	0.13440
2501.49240	0.13456
2499.56372	0.13475
2497.63505	0.13494
2495.70637	0.13511
2493.77770	0.13526
2491.84902	0.13540
2489.92035	0.13553
2487.99167	0.13566
2486.06299	0.13584
2484.13432	0.13607
2482.20564	0.13630
2480.27697	0.13649
2478.34829	0.13665
2476.41962	0.13680
2474.49094	0.13695
2472.56226	0.13709
2470.63359	0.13722
2468.70491	0.13737
2466.77624	0.13755
2464.84756	0.13774
2462.91889	0.13790
2460.99021	0.13803
2459.06153	0.13818
2457.13286	0.13835
2455.20418	0.13852
2453.27551	0.13867
2451.34683	0.13881
2449.41816	0.13898
2447.48948	0.13919
2445.56080	0.13941
2443.63213	0.13958
2441.70345	0.13972
2439.77478	0.13985
2437.84610	0.14000
2435.91743	0.14016
2433.98875	0.14031
2432.06007	0.14045
2430.13140	0.14063
2428.20272	0.14082
2426.27405	0.14099
2424.34537	0.14116
2422.41670	0.14134
2420.48802	0.14153
2418.55934	0.14171
2416.63067	0.14187
2414.70199	0.14203
2412.77332	0.14220
2410.84464	0.14236
2408.91597	0.14249
2406.98729	0.14262
2405.05861	0.14275
2403.12994	0.14290
2401.20126	0.14307
2399.27259	0.14324
2397.34391	0.14342
2395.41524	0.14359
2393.48656	0.14377
2391.55788	0.14396
2389.62921	0.14412
2387.70053	0.14424
2385.77186	0.14438
2383.84318	0.14454
2381.91451	0.14467
2379.98583	0.14473
2378.05715	0.14476
2376.12848	0.14479
2374.19980	0.14482
2372.27113	0.14482
2370.34245	0.14483
2368.41378	0.14489
2366.48510	0.14499
2364.55642	0.14512
2362.62775	0.14527
2360.69907	0.14544
2358.77040	0.14561
2356.84172	0.14583
2354.91305	0.14611
2352.98437	0.14644
2351.05569	0.14675
2349.12702	0.14695
2347.19834	0.14704
2345.26967	0.14709
2343.34099	0.14716
2341.41232	0.14723
2339.48364	0.14731
2337.55496	0.14743
2335.62629	0.14762
2333.69761	0.14783
2331.76894	0.14805
2329.84026	0.14826
2327.91159	0.14849
2325.98291	0.14870
2324.05423	0.14890
2322.12556	0.14912
2320.19688	0.14934
2318.26821	0.14954
2316.33953	0.14974
2314.41086	0.14995
2312.48218	0.15016
2310.55350	0.15037
2308.62483	0.15060
2306.69615	0.15084
2304.76748	0.15106
2302.83880	0.15124
2300.91013	0.15141
2298.98145	0.15157
2297.05277	0.15173
2295.12410	0.15188
2293.19542	0.15205
2291.26675	0.15224
2289.33807	0.15242
2287.40940	0.15257
2285.48072	0.15273
2283.55204	0.15292
2281.62337	0.15308
2279.69469	0.15321
2277.76602	0.15334
2275.83734	0.15351
2273.90867	0.15368
2271.97999	0.15385
2270.05131	0.15403
2268.12264	0.15421
2266.19396	0.15437
2264.26529	0.15453
2262.33661	0.15467
2260.40794	0.15481
2258.47926	0.15498
2256.55058	0.15517
2254.62191	0.15535
2252.69323	0.15550
2250.76456	0.15565
2248.83588	0.15580
2246.90721	0.15596
2244.97853	0.15614
2243.04985	0.15634
2241.12118	0.15651
2239.19250	0.15666
2237.26383	0.15682
2235.33515	0.15696
2233.40648	0.15707
2231.47780	0.15717
2229.54912	0.15731
2227.62045	0.15751
2225.69177	0.15774
2223.76310	0.15795
2221.83442	0.15811
2219.90575	0.15827
2217.97707	0.15842
2216.04839	0.15855
2214.11972	0.15869
2212.19104	0.15885
2210.26237	0.15901
2208.33369	0.15916
2206.40502	0.15932
2204.47634	0.15948
2202.54766	0.15965
2200.61899	0.15983
2198.69031	0.15998
2196.76164	0.16010
2194.83296	0.16025
2192.90429	0.16041
2190.97561	0.16056
2189.04693	0.16069
2187.11826	0.16085
2185.18958	0.16101
2183.26091	0.16115
2181.33223	0.16130
2179.40356	0.16152
2177.47488	0.16175
2175.54620	0.16191
2173.61753	0.16204
2171.68885	0.16222
2169.76018	0.16243
2167.83150	0.16261
2165.90283	0.16276
2163.97415	0.16291
2162.04547	0.16310
2160.11680	0.16329
2158.18812	0.16344
2156.25945	0.16357
2154.33077	0.16372
2152.40210	0.16388
2150.47342	0.16405
2148.54474	0.16422
2146.61607	0.16437
2144.68739	0.16452
2142.75872	0.16470
2140.83004	0.16489
2138.90137	0.16507
2136.97269	0.16523
2135.04401	0.16536
2133.11534	0.16551
2131.18666	0.16570
2129.25799	0.16589
2127.32931	0.16603
2125.40064	0.16617
2123.47196	0.16634
2121.54328	0.16653
2119.61461	0.16668
2117.68593	0.16684
2115.75726	0.16701
2113.82858	0.16718
2111.89991	0.16734
2109.97123	0.16749
2108.04255	0.16765
2106.11388	0.16784
2104.18520	0.16801
2102.25653	0.16818
2100.32785	0.16834
2098.39918	0.16851
2096.47050	0.16868
2094.54182	0.16885
2092.61315	0.16900
2090.68447	0.16916
2088.75580	0.16935
2086.82712	0.16954
2084.89845	0.16968
2082.96977	0.16978
2081.04109	0.16992
2079.11242	0.17012
2077.18374	0.17031
2075.25507	0.17046
2073.32639	0.17062
2071.39772	0.17079
2069.46904	0.17094
2067.54036	0.17104
2065.61169	0.17114
2063.68301	0.17131
2061.75434	0.17152
2059.82566	0.17171
2057.89699	0.17188
2055.96831	0.17206
2054.03963	0.17225
2052.11096	0.17243
2050.18228	0.17259
2048.25361	0.17273
2046.32493	0.17288
2044.39626	0.17305
2042.46758	0.17323
2040.53890	0.17343
2038.61023	0.17360
2036.68155	0.17376
2034.75288	0.17391
2032.82420	0.17408
2030.89553	0.17425
2028.96685	0.17443
2027.03817	0.17462
2025.10950	0.17482
2023.18082	0.17500
2021.25215	0.17513
2019.32347	0.17523
2017.39480	0.17538
2015.46612	0.17559
2013.53744	0.17581
2011.60877	0.17597
2009.68009	0.17610
2007.75142	0.17624
2005.82274	0.17643
2003.89407	0.17663
2001.96539	0.17679
2000.03671	0.17695
1998.10804	0.17711
1996.17936	0.17724
1994.25069	0.17732
1992.32201	0.17743
1990.39334	0.17761
1988.46466	0.17780
1986.53598	0.17798
1984.60731	0.17814
1982.67863	0.17828
1980.74996	0.17842
1978.82128	0.17859
1976.89261	0.17875
1974.96393	0.17888
1973.03525	0.17900
1971.10658	0.17910
1969.17790	0.17917
1967.24923	0.17927
1965.32055	0.17944
1963.39188	0.17966
1961.46320	0.17985
1959.53452	0.17999
1957.60585	0.18014
1955.67717	0.18029
1953.74850	0.18045
1951.81982	0.18065
1949.89115	0.18085
1947.96247	0.18100
1946.03379	0.18107
1944.10512	0.18113
1942.17644	0.18129
1940.24777	0.18154
1938.31909	0.18178
1936.39042	0.18196
1934.46174	0.18210
1932.53306	0.18225
1930.60439	0.18241
1928.67571	0.18257
1926.74704	0.18272
1924.81836	0.18284
1922.88969	0.18296
1920.96101	0.18310
1919.03233	0.18323
1917.10366	0.18342
1915.17498	0.18369
1913.24631	0.18389
1911.31763	0.18401
1909.38896	0.18417
1907.46028	0.18437
1905.53160	0.18454
1903.60293	0.18467
1901.67425	0.18482
1899.74558	0.18499
1897.81690	0.18513
1895.88823	0.18526
1893.95955	0.18538
1892.03087	0.18548
1890.10220	0.18561
1888.17352	0.18585
1886.24485	0.18610
1884.31617	0.18626
1882.38750	0.18641
1880.45882	0.18653
1878.53014	0.18668
1876.60147	0.18689
1874.67279	0.18709
1872.74412	0.18717
1870.81544	0.18713
1868.88677	0.18711
1866.95809	0.18733
1865.02941	0.18769
1863.10074	0.18798
1861.17206	0.18820
1859.24339	0.18840
1857.31471	0.18858
1855.38604	0.18873
1853.45736	0.18890
1851.52868	0.18906
1849.60001	0.18914
1847.67133	0.18900
1845.74266	0.18869
1843.81398	0.18873
1841.88531	0.18934
1839.95663	0.18991
1838.02795	0.19013
1836.09928	0.19025
1834.17060	0.19037
1832.24193	0.19040
1830.31325	0.19039
1828.38458	0.19046
1826.45590	0.19051
1824.52722	0.19073
1822.59855	0.19123
1820.66987	0.19164
1818.74120	0.19182
1816.81252	0.19196
1814.88385	0.19210
1812.95517	0.19214
1811.02649	0.19216
1809.09782	0.19231
1807.16914	0.19254
1805.24047	0.19264
1803.31179	0.19258
1801.38312	0.19258
1799.45444	0.19280
1797.52576	0.19309
1795.59709	0.19322
1793.66841	0.19314
1791.73974	0.19311
1789.81106	0.19337
1787.88239	0.19369
1785.95371	0.19381
1784.02503	0.19384
1782.09636	0.19394
1780.16768	0.19413
1778.23901	0.19434
1776.31033	0.19436
1774.38166	0.19415
1772.45298	0.19393
1770.52430	0.19393
1768.59563	0.19417
1766.66695	0.19464
1764.73828	0.19508
1762.80960	0.19524
1760.88093	0.19531
1758.95225	0.19531
1757.02357	0.19524
1755.09490	0.19528
1753.16622	0.19522
1751.23755	0.19491
1749.30887	0.19477
1747.38020	0.19500
1745.45152	0.19533
1743.52284	0.19548
1741.59417	0.19550
1739.66549	0.19550
1737.73682	0.19536
1735.80814	0.19485
1733.87947	0.19454
1731.95079	0.19493
1730.02211	0.19553
1728.09344	0.19600
1726.16476	0.19636
1724.23609	0.19656
1722.30741	0.19650
1720.37874	0.19612
1718.45006	0.19571
1716.52138	0.19576
1714.59271	0.19624
1712.66403	0.19683
1710.73536	0.19726
1708.80668	0.19736
1706.87801	0.19727
1704.94933	0.19728
1703.02065	0.19716
1701.09198	0.19679
1699.16330	0.19660
1697.23463	0.19660
1695.30595	0.19689
1693.37728	0.19758
1691.44860	0.19804
1689.51992	0.19798
1687.59125	0.19763
1685.66257	0.19708
1683.73390	0.19687
1681.80522	0.19734
1679.87655	0.19793
1677.94787	0.19811
1676.01919	0.19803
1674.09052	0.19802
1672.16184	0.19793
1670.23317	0.19774
1668.30449	0.19790
1666.37582	0.19839
1664.44714	0.19865
1662.51846	0.19872
1660.58979	0.19887
1658.66111	0.19898
1656.73244	0.19851
1654.80376	0.19744
1652.87509	0.19702
1650.94641	0.19775
1649.01773	0.19830
1647.08906	0.19819
1645.16038	0.19838
1643.23171	0.19894
1641.30303	0.19925
1639.37436	0.19914
1637.44568	0.19881
1635.51700	0.19875
1633.58833	0.19917
1631.65965	0.19960
1629.73098	0.19966
1627.80230	0.19953
1625.87363	0.19926
1623.94495	0.19885
1622.01627	0.19865
1620.08760	0.19873
1618.15892	0.19896
1616.23025	0.19946
1614.30157	0.20013
1612.37290	0.20067
1610.44422	0.20101
1608.51554	0.20124
1606.58687	0.20148
1604.65819	0.20173
1602.72952	0.20195
1600.80084	0.20216
1598.87217	0.20234
1596.94349	0.20251
1595.01481	0.20269
1593.08614	0.20289
1591.15746	0.20307
1589.22879	0.20326
1587.30011	0.20343
1585.37144	0.20355
1583.44276	0.20369
1581.51408	0.20386
1579.58541	0.20386
1577.65673	0.20367
1575.72806	0.20370
1573.79938	0.20401
1571.87071	0.20402
1569.94203	0.20385
1568.01335	0.20406
1566.08468	0.20447
1564.15600	0.20470
1562.22733	0.20455
1560.29865	0.20385
1558.36998	0.20333
1556.44130	0.20374
1554.51262	0.20454
1552.58395	0.20504
1550.65527	0.20529
1548.72660	0.20557
1546.79792	0.20573
1544.86925	0.20541
1542.94057	0.20481
1541.01189	0.20443
1539.08322	0.20469
1537.15454	0.20548
1535.22587	0.20604
1533.29719	0.20620
1531.36852	0.20633
1529.43984	0.20637
1527.51116	0.20626
1525.58249	0.20625
1523.65381	0.20615
1521.72514	0.20590
1519.79646	0.20591
1517.86779	0.20622
1515.93911	0.20650
1514.01043	0.20661
1512.08176	0.20653
1510.15308	0.20631
1508.22441	0.20616
1506.29573	0.20649
1504.36706	0.20719
1502.43838	0.20762
1500.50970	0.20757
1498.58103	0.20730
1496.65235	0.20716
1494.72368	0.20727
1492.79500	0.20727
1490.86633	0.20697
1488.93765	0.20679
1487.00897	0.20699
1485.08030	0.20719
1483.15162	0.20711
1481.22295	0.20695
1479.29427	0.20678
1477.36560	0.20640
1475.43692	0.20574
1473.50824	0.20517
1471.57957	0.20505
1469.65089	0.20514
1467.72222	0.20498
1465.79354	0.20462
1463.86487	0.20437
1461.93619	0.20413
1460.00751	0.20357
1458.07884	0.20296
1456.15016	0.20289
1454.22149	0.20328
1452.29281	0.20363
1450.36414	0.20373
1448.43546	0.20372
1446.50678	0.20382
1444.57811	0.20401
1442.64943	0.20419
1440.72076	0.20426
1438.79208	0.20407
1436.86341	0.20390
1434.93473	0.20422
1433.00605	0.20471
1431.07738	0.20492
1429.14870	0.20506
1427.22003	0.20517
1425.29135	0.20508
1423.36268	0.20494
1421.43400	0.20479
1419.50532	0.20463
1417.57665	0.20476
1415.64797	0.20517
1413.71930	0.20544
1411.79062	0.20549
1409.86195	0.20545
1407.93327	0.20533
1406.00459	0.20511
1404.07592	0.20505
1402.14724	0.20515
1400.21857	0.20513
1398.28989	0.20498
1396.36122	0.20484
1394.43254	0.20485
1392.50386	0.20499
1390.57519	0.20497
1388.64651	0.20465
1386.71784	0.20428
1384.78916	0.20409
1382.86049	0.20407
1380.93181	0.20410
1379.00313	0.20409
1377.07446	0.20397
1375.14578	0.20383
1373.21711	0.20390
1371.28843	0.20413
1369.35976	0.20427
1367.43108	0.20421
1365.50240	0.20395
1363.57373	0.20367
1361.64505	0.20373
1359.71638	0.20402
1357.78770	0.20421
1355.85903	0.20428
1353.93035	0.20433
1352.00167	0.20441
1350.07300	0.20451
1348.14432	0.20463
1346.21565	0.20477
1344.28697	0.20482
1342.35830	0.20464
1340.42962	0.20440
1338.50094	0.20434
1336.57227	0.20441
1334.64359	0.20444
1332.71492	0.20439
1330.78624	0.20429
1328.85757	0.20418
1326.92889	0.20405
1325.00021	0.20386
1323.07154	0.20363
1321.14286	0.20340
1319.21419	0.20321
1317.28551	0.20305
1315.35684	0.20289
1313.42816	0.20275
1311.49948	0.20260
1309.57081	0.20237
1307.64213	0.20212
1305.71346	0.20191
1303.78478	0.20174
1301.85611	0.20156
1299.92743	0.20136
1297.99875	0.20118
1296.07008	0.20096
1294.14140	0.20067
1292.21273	0.20036
1290.28405	0.20014
1288.35538	0.20001
1286.42670	0.19990
1284.49802	0.19974
1282.56935	0.19952
1280.64067	0.19922
1278.71200	0.19889
1276.78332	0.19861
1274.85465	0.19824
1272.92597	0.19771
1270.99729	0.19703
1269.06862	0.19622
1267.13994	0.19533
1265.21127	0.19450
1263.28259	0.19393
1261.35392	0.19370
1259.42524	0.19373
1257.49656	0.19390
1255.56789	0.19407
1253.63921	0.19413
1251.71054	0.19402
1249.78186	0.19374
1247.85319	0.19335
1245.92451	0.19295
1243.99583	0.19259
1242.06716	0.19226
1240.13848	0.19183
1238.20981	0.19128
1236.28113	0.19071
1234.35246	0.19018
1232.42378	0.18963
1230.49510	0.18900
1228.56643	0.18837
1226.63775	0.18780
1224.70908	0.18731
1222.78040	0.18686
1220.85173	0.18642
1218.92305	0.18596
1216.99437	0.18547
1215.06570	0.18492
1213.13702	0.18438
1211.20835	0.18382
1209.27967	0.18326
1207.35100	0.18272
1205.42232	0.18218
1203.49364	0.18160
1201.56497	0.18096
1199.63629	0.18028
1197.70762	0.17966
1195.77894	0.17910
1193.85027	0.17848
1191.92159	0.17775
1189.99291	0.17701
1188.06424	0.17630
1186.13556	0.17557
1184.20689	0.17478
1182.27821	0.17391
1180.34954	0.17305
1178.42086	0.17224
1176.49218	0.17146
1174.56351	0.17065
1172.63483	0.16978
1170.70616	0.16888
1168.77748	0.16798
1166.84881	0.16710
1164.92013	0.16623
1162.99145	0.16538
1161.06278	0.16455
1159.13410	0.16374
1157.20543	0.16296
1155.27675	0.16219
1153.34808	0.16138
1151.41940	0.16054
1149.49072	0.15976
1147.56205	0.15901
1145.63337	0.15820
1143.70470	0.15731
1141.77602	0.15632
1139.84735	0.15525
1137.91867	0.15416
1135.98999	0.15302
1134.06132	0.15168
1132.13264	0.15006
1130.20397	0.14820
1128.27529	0.14611
1126.34662	0.14383
1124.41794	0.14147
1122.48926	0.13910
1120.56059	0.13679
1118.63191	0.13461
1116.70324	0.13256
1114.77456	0.13067
1112.84589	0.12900
1110.91721	0.12758
1108.98853	0.12648
1107.05986	0.12570
1105.13118	0.12521
1103.20251	0.12503
1101.27383	0.12518
1099.34516	0.12562
1097.41648	0.12629
1095.48780	0.12708
1093.55913	0.12797
1091.63045	0.12884
1089.70178	0.12961
1087.77310	0.13031
1085.84443	0.13098
1083.91575	0.13151
1081.98707	0.13188
1080.05840	0.13215
1078.12972	0.13238
1076.20105	0.13257
1074.27237	0.13267
1072.34370	0.13277
1070.41502	0.13289
1068.48634	0.13304
1066.55767	0.13321
1064.62899	0.13336
1062.70032	0.13349
1060.77164	0.13365
1058.84297	0.13388
1056.91429	0.13413
1054.98561	0.13444
1053.05694	0.13480
1051.12826	0.13515
1049.19959	0.13548
1047.27091	0.13580
1045.34224	0.13613
1043.41356	0.13649
1041.48488	0.13691
1039.55621	0.13737
1037.62753	0.13779
1035.69886	0.13814
1033.77018	0.13849
1031.84151	0.13885
1029.91283	0.13922
1027.98415	0.13958
1026.05548	0.13993
1024.12680	0.14031
1022.19813	0.14072
1020.26945	0.14111
1018.34078	0.14153
1016.41210	0.14203
1014.48342	0.14257
1012.55475	0.14306
1010.62607	0.14353
1008.69740	0.14403
1006.76872	0.14459
1004.84005	0.14520
1002.91137	0.14574
1000.98269	0.14608
999.05402	0.14631
997.12534	0.14650
995.19667	0.14661
993.26799	0.14667
991.33932	0.14675
989.41064	0.14683
987.48196	0.14683
985.55329	0.14688
983.62461	0.14696
981.69594	0.14692
979.76726	0.14676
977.83859	0.14659
975.90991	0.14643
973.98123	0.14626
972.05256	0.14611
970.12388	0.14597
968.19521	0.14581
966.26653	0.14565
964.33786	0.14550
962.40918	0.14532
960.48050	0.14510
958.55183	0.14492
956.62315	0.14480
954.69448	0.14467
952.76580	0.14452
950.83713	0.14431
948.90845	0.14405
946.97977	0.14378
945.05110	0.14356
943.12242	0.14329
941.19375	0.14294
939.26507	0.14256
937.33640	0.14213
935.40772	0.14167
933.47904	0.14121
931.55037	0.14072
929.62169	0.14025
927.69302	0.13981
925.76434	0.13934
923.83567	0.13874
921.90699	0.13808
919.97831	0.13744
918.04964	0.13679
916.12096	0.13613
914.19229	0.13543
912.26361	0.13467
910.33494	0.13390
908.40626	0.13314
906.47758	0.13243
904.54891	0.13177
902.62023	0.13119
900.69156	0.13069
898.76288	0.13022
896.83421	0.12972
894.90553	0.12917
892.97685	0.12859
891.04818	0.12807
889.11950	0.12765
887.19083	0.12725
885.26215	0.12679
883.33348	0.12638
881.40480	0.12607
879.47612	0.12577
877.54745	0.12548
875.61877	0.12519
873.69010	0.12491
871.76142	0.12468
869.83275	0.12452
867.90407	0.12434
865.97539	0.12406
864.04672	0.12384
862.11804	0.12376
860.18937	0.12371
858.26069	0.12362
856.33202	0.12352
854.40334	0.12337
852.47466	0.12314
850.54599	0.12283
848.61731	0.12246
846.68864	0.12210
844.75996	0.12183
842.83129	0.12164
840.90261	0.12148
838.97394	0.12121
837.04526	0.12074
835.11658	0.12003
833.18791	0.11914
831.25923	0.11818
829.33056	0.11718
827.40188	0.11618
825.47321	0.11521
823.54453	0.11426
821.61585	0.11338
819.68718	0.11261
817.75850	0.11201
815.82983	0.11158
813.90115	0.11128
811.97248	0.11099
810.04380	0.11074
808.11512	0.11059
806.18645	0.11050
804.25777	0.11043
802.32910	0.11038
800.40042	0.11023
798.47175	0.10978
796.54307	0.10914
794.61439	0.10854
792.68572	0.10811
790.75704	0.10785
788.82837	0.10761
786.89969	0.10734
784.97102	0.10709
783.04234	0.10681
781.11366	0.10648
779.18499	0.10611
777.25631	0.10578
775.32764	0.10549
773.39896	0.10520
771.47029	0.10490
769.54161	0.10455
767.61293	0.10412
765.68426	0.10366
763.75558	0.10327
761.82691	0.10286
759.89823	0.10233
757.96956	0.10177
756.04088	0.10121
754.11220	0.10063
752.18353	0.10002
750.25485	0.09937
748.32618	0.09861
746.39750	0.09776
744.46883	0.09688
742.54015	0.09598
740.61147	0.09513
738.68280	0.09456
736.75412	0.09436
734.82545	0.09435
732.89677	0.09438
730.96810	0.09441
729.03942	0.09449
727.11074	0.09461
725.18207	0.09470
723.25339	0.09473
721.32472	0.09479
719.39604	0.09499
717.46737	0.09530
715.53869	0.09571
713.61001	0.09625
711.68134	0.09676
709.75266	0.09704
707.82399	0.09707
705.89531	0.09691
703.96664	0.09670
702.03796	0.09643
700.10928	0.09605
698.18061	0.09559
696.25193	0.09508
694.32326	0.09452
692.39458	0.09393
690.46591	0.09333
688.53723	0.09276
686.60855	0.09231
684.67988	0.09190
682.75120	0.09138
680.82253	0.09072
678.89385	0.09006
676.96518	0.08946
675.03650	0.08880
673.10782	0.08805
671.17915	0.08730
669.25047	0.08653
667.32180	0.08575
665.39312	0.08497
663.46445	0.08414
661.53577	0.08327
659.60709	0.08244
657.67842	0.08162
655.74974	0.08078
653.82107	0.07997
651.89239	0.07921
649.96372	0.07844
648.03504	0.07764
646.10636	0.07677
644.17769	0.07579
642.24901	0.07477
640.32034	0.07376
638.39166	0.07273
636.46299	0.07162
634.53431	0.07041
632.60563	0.06887
630.67696	0.06653
628.74828	0.06308
626.81961	0.05865
624.89093	0.05407
622.96226	0.05041
621.03358	0.04811
619.10490	0.04695
617.17623	0.04626
615.24755	0.04546
613.31888	0.04435
611.39020	0.04323
609.46153	0.04269
607.53285	0.04280
605.60417	0.04316
603.67550	0.04365
601.74682	0.04442
599.81815	0.04542
597.88947	0.04633
595.96080	0.04696
594.03212	0.04738
592.10344	0.04773
590.17477	0.04801
588.24609	0.04809
586.31742	0.04795
584.38874	0.04768
582.46007	0.04734
580.53139	0.04692
578.60271	0.04639
576.67404	0.04587
574.74536	0.04539
572.81669	0.04479
570.88801	0.04403
568.95934	0.04325
567.03066	0.04267
565.10198	0.04236
563.17331	0.04218
561.24463	0.04198
559.31596	0.04177
557.38728	0.04157
555.45861	0.04139
553.52993	0.04121
551.60125	0.04102
549.67258	0.04078
547.74390	0.04055
545.81523	0.04040
543.88655	0.04036
541.95788	0.04026
540.02920	0.03997
538.10052	0.03964
536.17185	0.03941
534.24317	0.03924
532.31450	0.03903
530.38582	0.03880
528.45715	0.03856
526.52847	0.03826
524.59979	0.03795
522.67112	0.03759
520.74244	0.03706
518.81377	0.03642
516.88509	0.03577
514.95642	0.03519
513.02774	0.03484
511.09906	0.03466
509.17039	0.03442
507.24171	0.03412
505.31304	0.03385
503.38436	0.03356
501.45569	0.03316
499.52701	0.03263
497.59833	0.03207
495.66966	0.03157
493.74098	0.03106
491.81231	0.03049
489.88363	0.02996
487.95496	0.02951
486.02628	0.02899
484.09760	0.02841
482.16893	0.02785
480.24025	0.02732
478.31158	0.02680
476.38290	0.02628
474.45423	0.02571
472.52555	0.02515
470.59687	0.02469
468.66820	0.02432
466.73952	0.02399
464.81085	0.02362
462.88217	0.02317
460.95350	0.02284
459.02482	0.02283
457.09614	0.02296
455.16747	0.02299
453.23879	0.02294
451.31012	0.02292
449.38144	0.02293
447.45277	0.02281
445.52409	0.02252
443.59541	0.02219
441.66674	0.02195
439.73806	0.02166
437.80939	0.02125
435.88071	0.02082
433.95204	0.02030
432.02336	0.01968
430.09468	0.01901
428.16601	0.01835
426.23733	0.01775
424.30866	0.01715
422.37998	0.01649
420.45131	0.01583
418.52263	0.01520
416.59395	0.01453
414.66528	0.01383
412.73660	0.01323
410.80793	0.01268
408.87925	0.01205
406.95058	0.01132
405.02190	0.01066
403.09322	0.01010
401.16455	0.00961
399.23587	0.00912
397.30720	0.00855
395.37852	0.00793
393.44985	0.00741
391.52117	0.00699
389.59249	0.00660
387.66382	0.00624
385.73514	0.00590
383.80647	0.00545
381.87779	0.00487
379.94912	0.00436
378.02044	0.00402
376.09176	0.00373
374.16309	0.00333
372.23441	0.00284
370.30574	0.00243
368.37706	0.00223
