7496.76250	0.00119
7494.83382	0.00121
7492.90514	0.00122
7490.97647	0.00122
7489.04779	0.00123
7487.11912	0.00123
7485.19044	0.00122
7483.26177	0.00123
7481.33309	0.00124
7479.40441	0.00124
7477.47574	0.00124
7475.54706	0.00124
7473.61839	0.00125
7471.68971	0.00125
7469.76104	0.00124
7467.83236	0.00122
7465.90368	0.00123
7463.97501	0.00125
7462.04633	0.00125
7460.11766	0.00125
7458.18898	0.00126
7456.26031	0.00128
7454.33163	0.00130
7452.40295	0.00130
7450.47428	0.00131
7448.54560	0.00130
7446.61693	0.00130
7444.68825	0.00131
7442.75958	0.00130
7440.83090	0.00130
7438.90222	0.00130
7436.97355	0.00131
7435.04487	0.00131
7433.11620	0.00130
7431.18752	0.00129
7429.25885	0.00130
7427.33017	0.00130
7425.40149	0.00130
7423.47282	0.00130
7421.54414	0.00130
7419.61547	0.00131
7417.68679	0.00133
7415.75812	0.00134
7413.82944	0.00135
7411.90076	0.00136
7409.97209	0.00137
7408.04341	0.00137
7406.11474	0.00136
7404.18606	0.00136
7402.25739	0.00136
7400.32871	0.00137
7398.40003	0.00137
7396.47136	0.00137
7394.54268	0.00138
7392.61401	0.00138
7390.68533	0.00139
7388.75666	0.00140
7386.82798	0.00141
7384.89930	0.00141
7382.97063	0.00140
7381.04195	0.00139
7379.11328	0.00139
7377.18460	0.00139
7375.25593	0.00140
7373.32725	0.00142
7371.39857	0.00143
7369.46990	0.00144
7367.54122	0.00143
7365.61255	0.00142
7363.68387	0.00143
7361.75520	0.00143
7359.82652	0.00144
7357.89784	0.00145
7355.96917	0.00145
7354.04049	0.00145
7352.11182	0.00145
7350.18314	0.00146
7348.25447	0.00146
7346.32579	0.00145
7344.39711	0.00145
7342.46844	0.00146
7340.53976	0.00148
7338.61109	0.00148
7336.68241	0.00148
7334.75374	0.00149
7332.82506	0.00150
7330.89638	0.00152
7328.96771	0.00152
7327.03903	0.00152
7325.11036	0.00151
7323.18168	0.00150
7321.25301	0.00151
7319.32433	0.00152
7317.39565	0.00153
7315.46698	0.00152
7313.53830	0.00152
7311.60963	0.00153
7309.68095	0.00153
7307.75228	0.00153
7305.82360	0.00154
7303.89492	0.00156
7301.96625	0.00157
7300.03757	0.00157
7298.10890	0.00156
7296.18022	0.00156
7294.25155	0.00156
7292.32287	0.00158
7290.39419	0.00159
7288.46552	0.00159
7286.53684	0.00159
7284.60817	0.00159
7282.67949	0.00161
7280.75082	0.00163
7278.82214	0.00163
7276.89346	0.00161
7274.96479	0.00159
7273.03611	0.00160
7271.10744	0.00161
7269.17876	0.00163
7267.25009	0.00164
7265.32141	0.00164
7263.39273	0.00163
7261.46406	0.00163
7259.53538	0.00163
7257.60671	0.00163
7255.67803	0.00164
7253.74936	0.00165
7251.82068	0.00166
7249.89200	0.00166
7247.96333	0.00166
7246.03465	0.00167
7244.10598	0.00167
7242.17730	0.00167
7240.24863	0.00167
7238.31995	0.00167
7236.39127	0.00167
7234.46260	0.00166
7232.53392	0.00165
7230.60525	0.00166
7228.67657	0.00167
7226.74790	0.00167
7224.81922	0.00167
7222.89054	0.00169
7220.96187	0.00170
7219.03319	0.00171
7217.10452	0.00171
7215.17584	0.00172
7213.24717	0.00173
7211.31849	0.00173
7209.38981	0.00174
7207.46114	0.00174
7205.53246	0.00175
7203.60379	0.00176
7201.67511	0.00176
7199.74644	0.00175
7197.81776	0.00175
7195.88908	0.00175
7193.96041	0.00175
7192.03173	0.00176
7190.10306	0.00178
7188.17438	0.00179
7186.24571	0.00180
7184.31703	0.00180
7182.38835	0.00180
7180.45968	0.00180
7178.53100	0.00180
7176.60233	0.00179
7174.67365	0.00180
7172.74498	0.00180
7170.81630	0.00181
7168.88762	0.00181
7166.95895	0.00181
7165.03027	0.00182
7163.10160	0.00183
7161.17292	0.00183
7159.24425	0.00184
7157.31557	0.00186
7155.38689	0.00188
7153.45822	0.00189
7151.52954	0.00189
7149.60087	0.00188
7147.67219	0.00187
7145.74352	0.00188
7143.81484	0.00188
7141.88616	0.00188
7139.95749	0.00188
7138.02881	0.00189
7136.10014	0.00191
7134.17146	0.00192
7132.24279	0.00192
7130.31411	0.00191
7128.38543	0.00191
7126.45676	0.00191
7124.52808	0.00191
7122.59941	0.00191
7120.67073	0.00193
7118.74206	0.00194
7116.81338	0.00194
7114.88470	0.00195
7112.95603	0.00195
7111.02735	0.00194
7109.09868	0.00194
7107.17000	0.00194
7105.24133	0.00194
7103.31265	0.00195
7101.38397	0.00196
7099.45530	0.00196
7097.52662	0.00197
7095.59795	0.00198
7093.66927	0.00200
7091.74060	0.00200
7089.81192	0.00199
7087.88324	0.00200
7085.95457	0.00201
7084.02589	0.00201
7082.09722	0.00201
7080.16854	0.00202
7078.23987	0.00203
7076.31119	0.00203
7074.38251	0.00202
7072.45384	0.00201
7070.52516	0.00202
7068.59649	0.00205
7066.66781	0.00207
7064.73914	0.00206
7062.81046	0.00205
7060.88178	0.00205
7058.95311	0.00206
7057.02443	0.00208
7055.09576	0.00208
7053.16708	0.00207
7051.23841	0.00207
7049.30973	0.00207
7047.38105	0.00208
7045.45238	0.00209
7043.52370	0.00210
7041.59503	0.00212
7039.66635	0.00212
7037.73768	0.00211
7035.80900	0.00211
7033.88032	0.00212
7031.95165	0.00212
7030.02297	0.00212
7028.09430	0.00212
7026.16562	0.00213
7024.23695	0.00213
7022.30827	0.00213
7020.37959	0.00213
7018.45092	0.00213
7016.52224	0.00215
7014.59357	0.00216
7012.66489	0.00216
7010.73622	0.00216
7008.80754	0.00216
7006.87886	0.00216
7004.95019	0.00217
7003.02151	0.00217
7001.09284	0.00219
6999.16416	0.00222
6997.23549	0.00224
6995.30681	0.00225
6993.37813	0.00225
6991.44946	0.00225
6989.52078	0.00226
6987.59211	0.00226
6985.66343	0.00226
6983.73476	0.00225
6981.80608	0.00225
6979.87740	0.00226
6977.94873	0.00226
6976.02005	0.00225
6974.09138	0.00224
6972.16270	0.00224
6970.23403	0.00225
6968.30535	0.00227
6966.37667	0.00228
6964.44800	0.00229
6962.51932	0.00230
6960.59065	0.00231
6958.66197	0.00231
6956.73330	0.00232
6954.80462	0.00232
6952.87594	0.00232
6950.94727	0.00233
6949.01859	0.00236
6947.08992	0.00236
6945.16124	0.00236
6943.23257	0.00235
6941.30389	0.00235
6939.37521	0.00235
6937.44654	0.00234
6935.51786	0.00234
6933.58919	0.00234
6931.66051	0.00236
6929.73184	0.00238
6927.80316	0.00238
6925.87448	0.00238
6923.94581	0.00239
6922.01713	0.00240
6920.08846	0.00240
6918.15978	0.00239
6916.23111	0.00238
6914.30243	0.00239
6912.37375	0.00241
6910.44508	0.00243
6908.51640	0.00244
6906.58773	0.00243
6904.65905	0.00244
6902.73038	0.00244
6900.80170	0.00245
6898.87302	0.00245
6896.94435	0.00247
6895.01567	0.00249
6893.08700	0.00249
6891.15832	0.00249
6889.22965	0.00250
6887.30097	0.00251
6885.37229	0.00251
6883.44362	0.00250
6881.51494	0.00250
6879.58627	0.00250
6877.65759	0.00251
6875.72892	0.00252
6873.80024	0.00253
6871.87156	0.00253
6869.94289	0.00253
6868.01421	0.00252
6866.08554	0.00252
6864.15686	0.00252
6862.22819	0.00253
6860.29951	0.00253
6858.37083	0.00254
6856.44216	0.00256
6854.51348	0.00258
6852.58481	0.00260
6850.65613	0.00260
6848.72746	0.00259
6846.79878	0.00259
6844.87010	0.00258
6842.94143	0.00259
6841.01275	0.00260
6839.08408	0.00262
6837.15540	0.00263
6835.22673	0.00263
6833.29805	0.00263
6831.36937	0.00263
6829.44070	0.00263
6827.51202	0.00264
6825.58335	0.00266
6823.65467	0.00265
6821.72600	0.00265
6819.79732	0.00266
6817.86864	0.00267
6815.93997	0.00268
6814.01129	0.00269
6812.08262	0.00270
6810.15394	0.00272
6808.22527	0.00272
6806.29659	0.00271
6804.36791	0.00272
6802.43924	0.00274
6800.51056	0.00276
6798.58189	0.00277
6796.65321	0.00277
6794.72454	0.00276
6792.79586	0.00274
6790.86718	0.00274
6788.93851	0.00276
6787.00983	0.00278
6785.08116	0.00280
6783.15248	0.00280
6781.22381	0.00279
6779.29513	0.00278
6777.36645	0.00279
6775.43778	0.00279
6773.50910	0.00280
6771.58043	0.00282
6769.65175	0.00283
6767.72308	0.00283
6765.79440	0.00284
6763.86572	0.00284
6761.93705	0.00284
6760.00837	0.00285
6758.07970	0.00287
6756.15102	0.00288
6754.22235	0.00288
6752.29367	0.00288
6750.36499	0.00288
6748.43632	0.00288
6746.50764	0.00289
6744.57897	0.00290
6742.65029	0.00292
6740.72162	0.00294
6738.79294	0.00295
6736.86426	0.00295
6734.93559	0.00294
6733.00691	0.00294
6731.07824	0.00295
6729.14956	0.00296
6727.22089	0.00297
6725.29221	0.00298
6723.36353	0.00300
6721.43486	0.00302
6719.50618	0.00301
6717.57751	0.00299
6715.64883	0.00299
6713.72016	0.00300
6711.79148	0.00300
6709.86280	0.00300
6707.93413	0.00301
6706.00545	0.00302
6704.07678	0.00303
6702.14810	0.00304
6700.21943	0.00304
6698.29075	0.00305
6696.36207	0.00305
6694.43340	0.00305
6692.50472	0.00306
6690.57605	0.00307
6688.64737	0.00309
6686.71870	0.00310
6684.79002	0.00310
6682.86134	0.00310
6680.93267	0.00310
6679.00399	0.00311
6677.07532	0.00312
6675.14664	0.00312
6673.21797	0.00313
6671.28929	0.00315
6669.36061	0.00317
6667.43194	0.00318
6665.50326	0.00318
6663.57459	0.00318
6661.64591	0.00318
6659.71724	0.00317
6657.78856	0.00317
6655.85988	0.00317
6653.93121	0.00317
6652.00253	0.00318
6650.07386	0.00319
6648.14518	0.00320
6646.21651	0.00322
6644.28783	0.00324
6642.35915	0.00326
6640.43048	0.00326
6638.50180	0.00325
6636.57313	0.00324
6634.64445	0.00325
6632.71578	0.00325
6630.78710	0.00325
6628.85842	0.00325
6626.92975	0.00326
6625.00107	0.00326
6623.07240	0.00326
6621.14372	0.00328
6619.21505	0.00331
6617.28637	0.00333
6615.35769	0.00334
6613.42902	0.00334
6611.50034	0.00334
6609.57167	0.00334
6607.64299	0.00335
6605.71432	0.00336
6603.78564	0.00337
6601.85696	0.00338
6599.92829	0.00338
6597.99961	0.00339
6596.07094	0.00341
6594.14226	0.00343
6592.21359	0.00343
6590.28491	0.00342
6588.35623	0.00343
6586.42756	0.00344
6584.49888	0.00344
6582.57021	0.00346
6580.64153	0.00348
6578.71286	0.00348
6576.78418	0.00348
6574.85550	0.00347
6572.92683	0.00347
6570.99815	0.00348
6569.06948	0.00349
6567.14080	0.00349
6565.21213	0.00349
6563.28345	0.00351
6561.35477	0.00353
6559.42610	0.00354
6557.49742	0.00353
6555.56875	0.00354
6553.64007	0.00355
6551.71140	0.00355
6549.78272	0.00355
6547.85404	0.00356
6545.92537	0.00356
6543.99669	0.00358
6542.06802	0.00360
6540.13934	0.00362
6538.21067	0.00362
6536.28199	0.00362
6534.35331	0.00364
6532.42464	0.00366
6530.49596	0.00368
6528.56729	0.00369
6526.63861	0.00370
6524.70994	0.00370
6522.78126	0.00370
6520.85258	0.00371
6518.92391	0.00371
6516.99523	0.00371
6515.06656	0.00371
6513.13788	0.00372
6511.20921	0.00373
6509.28053	0.00375
6507.35185	0.00376
6505.42318	0.00375
6503.49450	0.00375
6501.56583	0.00377
6499.63715	0.00379
6497.70848	0.00380
6495.77980	0.00381
6493.85112	0.00381
6491.92245	0.00382
6489.99377	0.00383
6488.06510	0.00381
6486.13642	0.00380
6484.20775	0.00381
6482.27907	0.00382
6480.35039	0.00382
6478.42172	0.00383
6476.49304	0.00384
6474.56437	0.00386
6472.63569	0.00388
6470.70702	0.00390
6468.77834	0.00391
6466.84966	0.00393
6464.92099	0.00395
6462.99231	0.00396
6461.06364	0.00395
6459.13496	0.00394
6457.20629	0.00396
6455.27761	0.00398
6453.34893	0.00397
6451.42026	0.00397
6449.49158	0.00398
6447.56291	0.00399
6445.63423	0.00400
6443.70556	0.00400
6441.77688	0.00400
6439.84820	0.00401
6437.91953	0.00402
6435.99085	0.00402
6434.06218	0.00403
6432.13350	0.00405
6430.20483	0.00405
6428.27615	0.00405
6426.34747	0.00406
6424.41880	0.00409
6422.49012	0.00410
6420.56145	0.00412
6418.63277	0.00414
6416.70410	0.00415
6414.77542	0.00415
6412.84674	0.00415
6410.91807	0.00415
6408.98939	0.00416
6407.06072	0.00417
6405.13204	0.00417
6403.20337	0.00418
6401.27469	0.00418
6399.34601	0.00420
6397.41734	0.00420
6395.48866	0.00422
6393.55999	0.00424
6391.63131	0.00426
6389.70264	0.00426
6387.77396	0.00425
6385.84528	0.00425
6383.91661	0.00426
6381.98793	0.00428
6380.05926	0.00429
6378.13058	0.00429
6376.20191	0.00429
6374.27323	0.00430
6372.34455	0.00431
6370.41588	0.00432
6368.48720	0.00435
6366.55853	0.00438
6364.62985	0.00439
6362.70118	0.00438
6360.77250	0.00438
6358.84382	0.00438
6356.91515	0.00440
6354.98647	0.00442
6353.05780	0.00442
6351.12912	0.00442
6349.20045	0.00443
6347.27177	0.00444
6345.34309	0.00444
6343.41442	0.00445
6341.48574	0.00445
6339.55707	0.00446
6337.62839	0.00446
6335.69972	0.00448
6333.77104	0.00451
6331.84236	0.00454
6329.91369	0.00454
6327.98501	0.00454
6326.05634	0.00454
6324.12766	0.00455
6322.19899	0.00456
6320.27031	0.00456
6318.34163	0.00458
6316.41296	0.00458
6314.48428	0.00459
6312.55561	0.00459
6310.62693	0.00459
6308.69826	0.00460
6306.76958	0.00463
6304.84090	0.00465
6302.91223	0.00466
6300.98355	0.00466
6299.05488	0.00468
6297.12620	0.00470
6295.19753	0.00471
6293.26885	0.00471
6291.34017	0.00471
6289.41150	0.00473
6287.48282	0.00475
6285.55415	0.00476
6283.62547	0.00476
6281.69680	0.00476
6279.76812	0.00477
6277.83944	0.00478
6275.91077	0.00479
6273.98209	0.00480
6272.05342	0.00482
6270.12474	0.00483
6268.19607	0.00482
6266.26739	0.00482
6264.33871	0.00483
6262.41004	0.00485
6260.48136	0.00486
6258.55269	0.00488
6256.62401	0.00490
6254.69534	0.00491
6252.76666	0.00489
6250.83798	0.00488
6248.90931	0.00490
6246.98063	0.00494
6245.05196	0.00497
6243.12328	0.00499
6241.19461	0.00500
6239.26593	0.00500
6237.33725	0.00501
6235.40858	0.00502
6233.47990	0.00502
6231.55123	0.00503
6229.62255	0.00503
6227.69388	0.00505
6225.76520	0.00506
6223.83652	0.00507
6221.90785	0.00508
6219.97917	0.00509
6218.05050	0.00509
6216.12182	0.00510
6214.19315	0.00513
6212.26447	0.00515
6210.33579	0.00516
6208.40712	0.00516
6206.47844	0.00514
6204.54977	0.00514
6202.62109	0.00516
6200.69242	0.00519
6198.76374	0.00522
6196.83506	0.00524
6194.90639	0.00524
6192.97771	0.00524
6191.04904	0.00524
6189.12036	0.00526
6187.19169	0.00527
6185.26301	0.00528
6183.33433	0.00528
6181.40566	0.00530
6179.47698	0.00532
6177.54831	0.00533
6175.61963	0.00532
6173.69096	0.00532
6171.76228	0.00535
6169.83360	0.00538
6167.90493	0.00540
6165.97625	0.00539
6164.04758	0.00539
6162.11890	0.00540
6160.19023	0.00542
6158.26155	0.00544
6156.33287	0.00545
6154.40420	0.00546
6152.47552	0.00547
6150.54685	0.00548
6148.61817	0.00550
6146.68950	0.00551
6144.76082	0.00551
6142.83214	0.00552
6140.90347	0.00554
6138.97479	0.00556
6137.04612	0.00558
6135.11744	0.00559
6133.18877	0.00559
6131.26009	0.00560
6129.33141	0.00561
6127.40274	0.00561
6125.47406	0.00562
6123.54539	0.00565
6121.61671	0.00566
6119.68804	0.00566
6117.75936	0.00566
6115.83068	0.00568
6113.90201	0.00569
6111.97333	0.00570
6110.04466	0.00571
6108.11598	0.00574
6106.18731	0.00577
6104.25863	0.00580
6102.32995	0.00581
6100.40128	0.00580
6098.47260	0.00580
6096.54393	0.00581
6094.61525	0.00582
6092.68658	0.00583
6090.75790	0.00584
6088.82922	0.00584
6086.90055	0.00584
6084.97187	0.00585
6083.04320	0.00587
6081.11452	0.00590
6079.18585	0.00594
6077.25717	0.00596
6075.32849	0.00597
6073.39982	0.00596
6071.47114	0.00595
6069.54247	0.00596
6067.61379	0.00599
6065.68512	0.00602
6063.75644	0.00603
6061.82776	0.00604
6059.89909	0.00604
6057.97041	0.00604
6056.04174	0.00605
6054.11306	0.00607
6052.18439	0.00610
6050.25571	0.00612
6048.32703	0.00613
6046.39836	0.00612
6044.46968	0.00613
6042.54101	0.00614
6040.61233	0.00616
6038.68366	0.00618
6036.75498	0.00619
6034.82630	0.00620
6032.89763	0.00621
6030.96895	0.00623
6029.04028	0.00625
6027.11160	0.00626
6025.18293	0.00628
6023.25425	0.00629
6021.32557	0.00631
6019.39690	0.00633
6017.46822	0.00635
6015.53955	0.00635
6013.61087	0.00635
6011.68220	0.00637
6009.75352	0.00639
6007.82484	0.00642
6005.89617	0.00643
6003.96749	0.00643
6002.03882	0.00643
6000.11014	0.00643
5998.18147	0.00643
5996.25279	0.00644
5994.32411	0.00646
5992.39544	0.00648
5990.46676	0.00650
5988.53809	0.00651
5986.60941	0.00652
5984.68074	0.00653
5982.75206	0.00653
5980.82338	0.00654
5978.89471	0.00656
5976.96603	0.00658
5975.03736	0.00660
5973.10868	0.00662
5971.18001	0.00664
5969.25133	0.00666
5967.32265	0.00668
5965.39398	0.00669
5963.46530	0.00670
5961.53663	0.00671
5959.60795	0.00673
5957.67928	0.00674
5955.75060	0.00675
5953.82192	0.00675
5951.89325	0.00675
5949.96457	0.00677
5948.03590	0.00681
5946.10722	0.00685
5944.17855	0.00687
5942.24987	0.00686
5940.32119	0.00686
5938.39252	0.00687
5936.46384	0.00688
5934.53517	0.00689
5932.60649	0.00691
5930.67782	0.00692
5928.74914	0.00692
5926.82046	0.00692
5924.89179	0.00694
5922.96311	0.00695
5921.03444	0.00696
5919.10576	0.00698
5917.17709	0.00701
5915.24841	0.00704
5913.31973	0.00706
5911.39106	0.00706
5909.46238	0.00708
5907.53371	0.00710
5905.60503	0.00713
5903.67636	0.00716
5901.74768	0.00718
5899.81900	0.00720
5897.89033	0.00721
5895.96165	0.00723
5894.03298	0.00723
5892.10430	0.00721
5890.17563	0.00721
5888.24695	0.00724
5886.31827	0.00726
5884.38960	0.00727
5882.46092	0.00728
5880.53225	0.00729
5878.60357	0.00730
5876.67490	0.00731
5874.74622	0.00733
5872.81755	0.00736
5870.88887	0.00738
5868.96019	0.00739
5867.03152	0.00741
5865.10284	0.00744
5863.17417	0.00745
5861.24549	0.00746
5859.31682	0.00749
5857.38814	0.00751
5855.45946	0.00752
5853.53079	0.00752
5851.60211	0.00751
5849.67344	0.00752
5847.74476	0.00754
5845.81609	0.00756
5843.88741	0.00758
5841.95873	0.00760
5840.03006	0.00761
5838.10138	0.00762
5836.17271	0.00764
5834.24403	0.00766
5832.31536	0.00768
5830.38668	0.00770
5828.45800	0.00771
5826.52933	0.00774
5824.60065	0.00775
5822.67198	0.00775
5820.74330	0.00775
5818.81463	0.00777
5816.88595	0.00779
5814.95727	0.00782
5813.02860	0.00786
5811.09992	0.00789
5809.17125	0.00790
5807.24257	0.00790
5805.31390	0.00791
5803.38522	0.00793
5801.45654	0.00795
5799.52787	0.00796
5797.59919	0.00797
5795.67052	0.00798
5793.74184	0.00799
5791.81317	0.00801
5789.88449	0.00803
5787.95581	0.00803
5786.02714	0.00804
5784.09846	0.00807
5782.16979	0.00810
5780.24111	0.00813
5778.31244	0.00814
5776.38376	0.00815
5774.45508	0.00817
5772.52641	0.00820
5770.59773	0.00822
5768.66906	0.00821
5766.74038	0.00821
5764.81171	0.00823
5762.88303	0.00825
5760.95435	0.00827
5759.02568	0.00830
5757.09700	0.00832
5755.16833	0.00834
5753.23965	0.00834
5751.31098	0.00836
5749.38230	0.00838
5747.45362	0.00839
5745.52495	0.00840
5743.59627	0.00841
5741.66760	0.00842
5739.73892	0.00845
5737.81025	0.00849
5735.88157	0.00851
5733.95289	0.00851
5732.02422	0.00852
5730.09554	0.00854
5728.16687	0.00857
5726.23819	0.00859
5724.30952	0.00862
5722.38084	0.00864
5720.45216	0.00865
5718.52349	0.00867
5716.59481	0.00869
5714.66614	0.00870
5712.73746	0.00870
5710.80879	0.00873
5708.88011	0.00877
5706.95143	0.00879
5705.02276	0.00881
5703.09408	0.00882
5701.16541	0.00883
5699.23673	0.00885
5697.30806	0.00887
5695.37938	0.00887
5693.45070	0.00886
5691.52203	0.00886
5689.59335	0.00888
5687.66468	0.00890
5685.73600	0.00893
5683.80733	0.00896
5681.87865	0.00899
5679.94997	0.00901
5678.02130	0.00904
5676.09262	0.00907
5674.16395	0.00908
5672.23527	0.00909
5670.30660	0.00910
5668.37792	0.00912
5666.44924	0.00913
5664.52057	0.00914
5662.59189	0.00915
5660.66322	0.00918
5658.73454	0.00920
5656.80587	0.00921
5654.87719	0.00921
5652.94851	0.00923
5651.01984	0.00925
5649.09116	0.00927
5647.16249	0.00929
5645.23381	0.00932
5643.30514	0.00933
5641.37646	0.00934
5639.44778	0.00936
5637.51911	0.00937
5635.59043	0.00940
5633.66176	0.00942
5631.73308	0.00946
5629.80441	0.00949
5627.87573	0.00950
5625.94705	0.00951
5624.01838	0.00953
5622.08970	0.00955
5620.16103	0.00957
5618.23235	0.00960
5616.30368	0.00962
5614.37500	0.00963
5612.44632	0.00963
5610.51765	0.00964
5608.58897	0.00966
5606.66030	0.00969
5604.73162	0.00970
5602.80295	0.00973
5600.87427	0.00975
5598.94559	0.00976
5597.01692	0.00976
5595.08824	0.00978
5593.15957	0.00980
5591.23089	0.00982
5589.30222	0.00983
5587.37354	0.00985
5585.44486	0.00989
5583.51619	0.00993
5581.58751	0.00995
5579.65884	0.00997
5577.73016	0.01000
5575.80149	0.01002
5573.87281	0.01004
5571.94413	0.01004
5570.01546	0.01004
5568.08678	0.01006
5566.15811	0.01009
5564.22943	0.01013
5562.30076	0.01016
5560.37208	0.01016
5558.44340	0.01016
5556.51473	0.01020
5554.58605	0.01024
5552.65738	0.01026
5550.72870	0.01026
5548.80003	0.01026
5546.87135	0.01029
5544.94267	0.01032
5543.01400	0.01033
5541.08532	0.01035
5539.15665	0.01039
5537.22797	0.01041
5535.29930	0.01041
5533.37062	0.01042
5531.44194	0.01042
5529.51327	0.01043
5527.58459	0.01045
5525.65592	0.01046
5523.72724	0.01047
5521.79857	0.01050
5519.86989	0.01055
5517.94121	0.01059
5516.01254	0.01061
5514.08386	0.01062
5512.15519	0.01063
5510.22651	0.01065
5508.29784	0.01066
5506.36916	0.01068
5504.44048	0.01071
5502.51181	0.01075
5500.58313	0.01078
5498.65446	0.01080
5496.72578	0.01081
5494.79711	0.01081
5492.86843	0.01082
5490.93975	0.01084
5489.01108	0.01087
5487.08240	0.01090
5485.15373	0.01093
5483.22505	0.01095
5481.29638	0.01097
5479.36770	0.01099
5477.43902	0.01100
5475.51035	0.01103
5473.58167	0.01106
5471.65300	0.01108
5469.72432	0.01110
5467.79565	0.01113
5465.86697	0.01114
5463.93829	0.01114
5462.00962	0.01115
5460.08094	0.01117
5458.15227	0.01119
5456.22359	0.01119
5454.29492	0.01120
5452.36624	0.01124
5450.43756	0.01127
5448.50889	0.01129
5446.58021	0.01131
5444.65154	0.01133
5442.72286	0.01134
5440.79419	0.01138
5438.86551	0.01143
5436.93683	0.01146
5435.00816	0.01147
5433.07948	0.01148
5431.15081	0.01150
5429.22213	0.01152
5427.29346	0.01155
5425.36478	0.01157
5423.43610	0.01159
5421.50743	0.01159
5419.57875	0.01159
5417.65008	0.01162
5415.72140	0.01167
5413.79273	0.01169
5411.86405	0.01171
5409.93537	0.01173
5408.00670	0.01176
5406.07802	0.01177
5404.14935	0.01181
5402.22067	0.01183
5400.29200	0.01182
5398.36332	0.01182
5396.43464	0.01184
5394.50597	0.01187
5392.57729	0.01191
5390.64862	0.01195
5388.71994	0.01198
5386.79127	0.01199
5384.86259	0.01201
5382.93391	0.01205
5381.00524	0.01209
5379.07656	0.01211
5377.14789	0.01211
5375.21921	0.01213
5373.29054	0.01215
5371.36186	0.01218
5369.43318	0.01218
5367.50451	0.01218
5365.57583	0.01218
5363.64716	0.01219
5361.71848	0.01222
5359.78981	0.01227
5357.86113	0.01232
5355.93245	0.01234
5354.00378	0.01235
5352.07510	0.01236
5350.14643	0.01240
5348.21775	0.01244
5346.28908	0.01247
5344.36040	0.01249
5342.43172	0.01249
5340.50305	0.01251
5338.57437	0.01253
5336.64570	0.01258
5334.71702	0.01262
5332.78835	0.01264
5330.85967	0.01266
5328.93099	0.01268
5327.00232	0.01270
5325.07364	0.01273
5323.14497	0.01274
5321.21629	0.01274
5319.28762	0.01275
5317.35894	0.01277
5315.43026	0.01280
5313.50159	0.01283
5311.57291	0.01287
5309.64424	0.01289
5307.71556	0.01293
5305.78689	0.01296
5303.85821	0.01299
5301.92953	0.01301
5300.00086	0.01304
5298.07218	0.01307
5296.14351	0.01309
5294.21483	0.01310
5292.28616	0.01310
5290.35748	0.01311
5288.42880	0.01313
5286.50013	0.01315
5284.57145	0.01318
5282.64278	0.01322
5280.71410	0.01324
5278.78543	0.01326
5276.85675	0.01327
5274.92807	0.01330
5272.99940	0.01332
5271.07072	0.01333
5269.14205	0.01335
5267.21337	0.01338
5265.28470	0.01341
5263.35602	0.01344
5261.42734	0.01347
5259.49867	0.01349
5257.56999	0.01350
5255.64132	0.01352
5253.71264	0.01355
5251.78397	0.01359
5249.85529	0.01361
5247.92661	0.01361
5245.99794	0.01363
5244.06926	0.01366
5242.14059	0.01370
5240.21191	0.01372
5238.28324	0.01373
5236.35456	0.01373
5234.42588	0.01375
5232.49721	0.01377
5230.56853	0.01380
5228.63986	0.01385
5226.71118	0.01389
5224.78251	0.01392
5222.85383	0.01395
5220.92515	0.01398
5218.99648	0.01399
5217.06780	0.01399
5215.13913	0.01400
5213.21045	0.01401
5211.28178	0.01404
5209.35310	0.01407
5207.42442	0.01412
5205.49575	0.01416
5203.56707	0.01419
5201.63840	0.01421
5199.70972	0.01423
5197.78105	0.01424
5195.85237	0.01426
5193.92369	0.01428
5191.99502	0.01432
5190.06634	0.01434
5188.13767	0.01435
5186.20899	0.01436
5184.28032	0.01440
5182.35164	0.01447
5180.42296	0.01451
5178.49429	0.01452
5176.56561	0.01453
5174.63694	0.01454
5172.70826	0.01455
5170.77959	0.01457
5168.85091	0.01461
5166.92223	0.01467
5164.99356	0.01469
5163.06488	0.01469
5161.13621	0.01468
5159.20753	0.01471
5157.27886	0.01476
5155.35018	0.01480
5153.42150	0.01482
5151.49283	0.01485
5149.56415	0.01487
5147.63548	0.01488
5145.70680	0.01492
5143.77813	0.01497
5141.84945	0.01499
5139.92077	0.01500
5137.99210	0.01503
5136.06342	0.01508
5134.13475	0.01512
5132.20607	0.01514
5130.27740	0.01514
5128.34872	0.01513
5126.42004	0.01515
5124.49137	0.01518
5122.56269	0.01522
5120.63402	0.01525
5118.70534	0.01528
5116.77667	0.01530
5114.84799	0.01531
5112.91931	0.01534
5110.99064	0.01537
5109.06196	0.01539
5107.13329	0.01542
5105.20461	0.01546
5103.27594	0.01549
5101.34726	0.01550
5099.41858	0.01551
5097.48991	0.01552
5095.56123	0.01553
5093.63256	0.01555
5091.70388	0.01559
5089.77521	0.01563
5087.84653	0.01566
5085.91785	0.01569
5083.98918	0.01573
5082.06050	0.01577
5080.13183	0.01581
5078.20315	0.01582
5076.27448	0.01582
5074.34580	0.01583
5072.41712	0.01585
5070.48845	0.01589
5068.55977	0.01592
5066.63110	0.01594
5064.70242	0.01598
5062.77375	0.01601
5060.84507	0.01605
5058.91639	0.01608
5056.98772	0.01611
5055.05904	0.01613
5053.13037	0.01615
5051.20169	0.01618
5049.27302	0.01621
5047.34434	0.01626
5045.41566	0.01630
5043.48699	0.01631
5041.55831	0.01631
5039.62964	0.01633
5037.70096	0.01636
5035.77229	0.01640
5033.84361	0.01643
5031.91493	0.01646
5029.98626	0.01647
5028.05758	0.01649
5026.12891	0.01650
5024.20023	0.01652
5022.27156	0.01655
5020.34288	0.01658
5018.41420	0.01662
5016.48553	0.01667
5014.55685	0.01671
5012.62818	0.01672
5010.69950	0.01673
5008.77083	0.01674
5006.84215	0.01677
5004.91347	0.01680
5002.98480	0.01684
5001.05612	0.01686
4999.12745	0.01689
4997.19877	0.01690
4995.27010	0.01691
4993.34142	0.01692
4991.41274	0.01695
4989.48407	0.01700
4987.55539	0.01704
4985.62672	0.01707
4983.69804	0.01709
4981.76937	0.01712
4979.84069	0.01715
4977.91201	0.01719
4975.98334	0.01724
4974.05466	0.01728
4972.12599	0.01730
4970.19731	0.01732
4968.26864	0.01734
4966.33996	0.01735
4964.41128	0.01736
4962.48261	0.01741
4960.55393	0.01746
4958.62526	0.01750
4956.69658	0.01751
4954.76791	0.01754
4952.83923	0.01757
4950.91055	0.01760
4948.98188	0.01762
4947.05320	0.01765
4945.12453	0.01768
4943.19585	0.01770
4941.26718	0.01771
4939.33850	0.01773
4937.40982	0.01776
4935.48115	0.01779
4933.55247	0.01783
4931.62380	0.01786
4929.69512	0.01790
4927.76645	0.01792
4925.83777	0.01795
4923.90909	0.01798
4921.98042	0.01800
4920.05174	0.01803
4918.12307	0.01805
4916.19439	0.01808
4914.26572	0.01812
4912.33704	0.01815
4910.40836	0.01817
4908.47969	0.01819
4906.55101	0.01821
4904.62234	0.01823
4902.69366	0.01827
4900.76499	0.01830
4898.83631	0.01831
4896.90763	0.01832
4894.97896	0.01835
4893.05028	0.01839
4891.12161	0.01844
4889.19293	0.01848
4887.26426	0.01851
4885.33558	0.01853
4883.40690	0.01855
4881.47823	0.01858
4879.54955	0.01862
4877.62088	0.01866
4875.69220	0.01869
4873.76353	0.01874
4871.83485	0.01877
4869.90617	0.01878
4867.97750	0.01879
4866.04882	0.01883
4864.12015	0.01887
4862.19147	0.01889
4860.26280	0.01889
4858.33412	0.01891
4856.40544	0.01897
4854.47677	0.01902
4852.54809	0.01905
4850.61942	0.01907
4848.69074	0.01909
4846.76207	0.01912
4844.83339	0.01914
4842.90471	0.01919
4840.97604	0.01925
4839.04736	0.01930
4837.11869	0.01933
4835.19001	0.01935
4833.26134	0.01937
4831.33266	0.01939
4829.40398	0.01942
4827.47531	0.01946
4825.54663	0.01951
4823.61796	0.01954
4821.68928	0.01956
4819.76061	0.01957
4817.83193	0.01960
4815.90325	0.01963
4813.97458	0.01966
4812.04590	0.01968
4810.11723	0.01972
4808.18855	0.01975
4806.25988	0.01978
4804.33120	0.01979
4802.40252	0.01981
4800.47385	0.01986
4798.54517	0.01991
4796.61650	0.01996
4794.68782	0.02001
4792.75915	0.02003
4790.83047	0.02005
4788.90179	0.02008
4786.97312	0.02010
4785.04444	0.02012
4783.11577	0.02014
4781.18709	0.02017
4779.25842	0.02020
4777.32974	0.02024
4775.40106	0.02028
4773.47239	0.02030
4771.54371	0.02033
4769.61504	0.02038
4767.68636	0.02042
4765.75769	0.02044
4763.82901	0.02047
4761.90033	0.02050
4759.97166	0.02053
4758.04298	0.02055
4756.11431	0.02057
4754.18563	0.02061
4752.25696	0.02067
4750.32828	0.02072
4748.39960	0.02076
4746.47093	0.02078
4744.54225	0.02080
4742.61358	0.02082
4740.68490	0.02086
4738.75623	0.02090
4736.82755	0.02094
4734.89887	0.02098
4732.97020	0.02103
4731.04152	0.02106
4729.11285	0.02108
4727.18417	0.02110
4725.25550	0.02112
4723.32682	0.02115
4721.39814	0.02121
4719.46947	0.02127
4717.54079	0.02131
4715.61212	0.02131
4713.68344	0.02131
4711.75477	0.02135
4709.82609	0.02139
4707.89741	0.02143
4705.96874	0.02148
4704.04006	0.02153
4702.11139	0.02157
4700.18271	0.02161
4698.25404	0.02164
4696.32536	0.02167
4694.39668	0.02169
4692.46801	0.02172
4690.53933	0.02176
4688.61066	0.02180
4686.68198	0.02182
4684.75331	0.02183
4682.82463	0.02185
4680.89595	0.02189
4678.96728	0.02193
4677.03860	0.02196
4675.10993	0.02200
4673.18125	0.02205
4671.25258	0.02210
4669.32390	0.02214
4667.39522	0.02218
4665.46655	0.02221
4663.53787	0.02222
4661.60920	0.02224
4659.68052	0.02228
4657.75185	0.02235
4655.82317	0.02239
4653.89449	0.02242
4651.96582	0.02245
4650.03714	0.02251
4648.10847	0.02255
4646.17979	0.02258
4644.25112	0.02261
4642.32244	0.02264
4640.39376	0.02265
4638.46509	0.02268
4636.53641	0.02273
4634.60774	0.02277
4632.67906	0.02279
4630.75039	0.02283
4628.82171	0.02288
4626.89303	0.02295
4624.96436	0.02301
4623.03568	0.02305
4621.10701	0.02308
4619.17833	0.02311
4617.24966	0.02312
4615.32098	0.02311
4613.39230	0.02312
4611.46363	0.02318
4609.53495	0.02325
4607.60628	0.02331
4605.67760	0.02336
4603.74893	0.02339
4601.82025	0.02341
4599.89157	0.02344
4597.96290	0.02348
4596.03422	0.02352
4594.10555	0.02355
4592.17687	0.02359
4590.24820	0.02364
4588.31952	0.02369
4586.39084	0.02372
4584.46217	0.02374
4582.53349	0.02377
4580.60482	0.02381
4578.67614	0.02387
4576.74747	0.02393
4574.81879	0.02398
4572.89011	0.02400
4570.96144	0.02401
4569.03276	0.02403
4567.10409	0.02408
4565.17541	0.02413
4563.24674	0.02416
4561.31806	0.02419
4559.38938	0.02423
4557.46071	0.02429
4555.53203	0.02433
4553.60336	0.02436
4551.67468	0.02440
4549.74601	0.02446
4547.81733	0.02452
4545.88865	0.02455
4543.95998	0.02460
4542.03130	0.02464
4540.10263	0.02466
4538.17395	0.02468
4536.24528	0.02474
4534.31660	0.02479
4532.38792	0.02481
4530.45925	0.02483
4528.53057	0.02486
4526.60190	0.02492
4524.67322	0.02499
4522.74455	0.02505
4520.81587	0.02509
4518.88719	0.02513
4516.95852	0.02515
4515.02984	0.02516
4513.10117	0.02521
4511.17249	0.02529
4509.24382	0.02534
4507.31514	0.02536
4505.38646	0.02540
4503.45779	0.02544
4501.52911	0.02548
4499.60044	0.02551
4497.67176	0.02554
4495.74309	0.02557
4493.81441	0.02563
4491.88573	0.02568
4489.95706	0.02574
4488.02838	0.02581
4486.09971	0.02587
4484.17103	0.02591
4482.24236	0.02594
4480.31368	0.02597
4478.38500	0.02600
4476.45633	0.02604
4474.52765	0.02609
4472.59898	0.02614
4470.67030	0.02618
4468.74163	0.02622
4466.81295	0.02626
4464.88427	0.02631
4462.95560	0.02636
4461.02692	0.02639
4459.09825	0.02641
4457.16957	0.02643
4455.24090	0.02648
4453.31222	0.02654
4451.38354	0.02660
4449.45487	0.02666
4447.52619	0.02673
4445.59752	0.02680
4443.66884	0.02685
4441.74017	0.02689
4439.81149	0.02692
4437.88281	0.02696
4435.95414	0.02701
4434.02546	0.02704
4432.09679	0.02708
4430.16811	0.02712
4428.23944	0.02719
4426.31076	0.02725
4424.38208	0.02730
4422.45341	0.02734
4420.52473	0.02738
4418.59606	0.02741
4416.66738	0.02745
4414.73871	0.02751
4412.81003	0.02758
4410.88135	0.02763
4408.95268	0.02770
4407.02400	0.02776
4405.09533	0.02780
4403.16665	0.02784
4401.23798	0.02788
4399.30930	0.02790
4397.38062	0.02794
4395.45195	0.02800
4393.52327	0.02806
4391.59460	0.02812
4389.66592	0.02818
4387.73725	0.02823
4385.80857	0.02826
4383.87989	0.02829
4381.95122	0.02834
4380.02254	0.02839
4378.09387	0.02844
4376.16519	0.02849
4374.23652	0.02854
4372.30784	0.02858
4370.37916	0.02863
4368.45049	0.02870
4366.52181	0.02874
4364.59314	0.02878
4362.66446	0.02883
4360.73579	0.02888
4358.80711	0.02894
4356.87843	0.02901
4354.94976	0.02906
4353.02108	0.02910
4351.09241	0.02914
4349.16373	0.02917
4347.23506	0.02922
4345.30638	0.02928
4343.37770	0.02933
4341.44903	0.02938
4339.52035	0.02945
4337.59168	0.02952
4335.66300	0.02958
4333.73433	0.02962
4331.80565	0.02966
4329.87697	0.02971
4327.94830	0.02976
4326.01962	0.02981
4324.09095	0.02988
4322.16227	0.02996
4320.23360	0.03002
4318.30492	0.03004
4316.37624	0.03007
4314.44757	0.03012
4312.51889	0.03018
4310.59022	0.03024
4308.66154	0.03030
4306.73287	0.03037
4304.80419	0.03042
4302.87551	0.03048
4300.94684	0.03055
4299.01816	0.03061
4297.08949	0.03064
4295.16081	0.03067
4293.23214	0.03074
4291.30346	0.03082
4289.37478	0.03085
4287.44611	0.03087
4285.51743	0.03093
4283.58876	0.03101
4281.66008	0.03109
4279.73141	0.03117
4277.80273	0.03125
4275.87405	0.03130
4273.94538	0.03135
4272.01670	0.03141
4270.08803	0.03145
4268.15935	0.03150
4266.23068	0.03157
4264.30200	0.03163
4262.37332	0.03169
4260.44465	0.03175
4258.51597	0.03180
4256.58730	0.03185
4254.65862	0.03190
4252.72995	0.03194
4250.80127	0.03198
4248.87259	0.03204
4246.94392	0.03212
4245.01524	0.03219
4243.08657	0.03225
4241.15789	0.03232
4239.22922	0.03238
4237.30054	0.03242
4235.37186	0.03243
4233.44319	0.03247
4231.51451	0.03255
4229.58584	0.03263
4227.65716	0.03269
4225.72849	0.03277
4223.79981	0.03285
4221.87113	0.03291
4219.94246	0.03295
4218.01378	0.03300
4216.08511	0.03307
4214.15643	0.03312
4212.22776	0.03318
4210.29908	0.03323
4208.37040	0.03328
4206.44173	0.03335
4204.51305	0.03343
4202.58438	0.03350
4200.65570	0.03356
4198.72703	0.03362
4196.79835	0.03369
4194.86968	0.03375
4192.94100	0.03380
4191.01232	0.03386
4189.08365	0.03391
4187.15497	0.03396
4185.22630	0.03403
4183.29762	0.03410
4181.36895	0.03417
4179.44027	0.03425
4177.51159	0.03434
4175.58292	0.03440
4173.65424	0.03447
4171.72557	0.03454
4169.79689	0.03462
4167.86822	0.03468
4165.93954	0.03474
4164.01086	0.03480
4162.08219	0.03487
4160.15351	0.03492
4158.22484	0.03496
4156.29616	0.03502
4154.36749	0.03509
4152.43881	0.03517
4150.51013	0.03525
4148.58146	0.03533
4146.65278	0.03538
4144.72411	0.03543
4142.79543	0.03546
4140.86676	0.03550
4138.93808	0.03557
4137.00940	0.03566
4135.08073	0.03573
4133.15205	0.03580
4131.22338	0.03588
4129.29470	0.03598
4127.36603	0.03606
4125.43735	0.03610
4123.50867	0.03613
4121.58000	0.03618
4119.65132	0.03626
4117.72265	0.03635
4115.79397	0.03644
4113.86530	0.03651
4111.93662	0.03659
4110.00794	0.03666
4108.07927	0.03672
4106.15059	0.03677
4104.22192	0.03682
4102.29324	0.03689
4100.36457	0.03696
4098.43589	0.03702
4096.50721	0.03711
4094.57854	0.03719
4092.64986	0.03726
4090.72119	0.03732
4088.79251	0.03737
4086.86384	0.03744
4084.93516	0.03752
4083.00648	0.03762
4081.07781	0.03772
4079.14913	0.03778
4077.22046	0.03783
4075.29178	0.03788
4073.36311	0.03795
4071.43443	0.03803
4069.50575	0.03811
4067.57708	0.03818
4065.64840	0.03824
4063.71973	0.03830
4061.79105	0.03837
4059.86238	0.03844
4057.93370	0.03852
4056.00502	0.03862
4054.07635	0.03871
4052.14767	0.03876
4050.21900	0.03881
4048.29032	0.03888
4046.36165	0.03896
4044.43297	0.03902
4042.50429	0.03909
4040.57562	0.03917
4038.64694	0.03925
4036.71827	0.03932
4034.78959	0.03939
4032.86092	0.03947
4030.93224	0.03955
4029.00356	0.03962
4027.07489	0.03969
4025.14621	0.03977
4023.21754	0.03986
4021.28886	0.03993
4019.36019	0.04000
4017.43151	0.04010
4015.50283	0.04018
4013.57416	0.04023
4011.64548	0.04029
4009.71681	0.04036
4007.78813	0.04046
4005.85946	0.04054
4003.93078	0.04062
4002.00210	0.04070
4000.07343	0.04077
3998.14475	0.04083
3996.21608	0.04090
3994.28740	0.04097
3992.35873	0.04104
3990.43005	0.04112
3988.50137	0.04123
3986.57270	0.04134
3984.64402	0.04144
3982.71535	0.04148
3980.78667	0.04152
3978.85800	0.04159
3976.92932	0.04166
3975.00064	0.04174
3973.07197	0.04184
3971.14329	0.04195
3969.21462	0.04204
3967.28594	0.04211
3965.35727	0.04216
3963.42859	0.04222
3961.49991	0.04230
3959.57124	0.04239
3957.64256	0.04247
3955.71389	0.04255
3953.78521	0.04260
3951.85654	0.04265
3949.92786	0.04272
3947.99918	0.04282
3946.07051	0.04290
3944.14183	0.04297
3942.21316	0.04307
3940.28448	0.04320
3938.35581	0.04330
3936.42713	0.04336
3934.49845	0.04339
3932.56978	0.04345
3930.64110	0.04356
3928.71243	0.04366
3926.78375	0.04370
3924.85508	0.04374
3922.92640	0.04382
3920.99772	0.04390
3919.06905	0.04394
3917.14037	0.04401
3915.21170	0.04416
3913.28302	0.04431
3911.35435	0.04443
3909.42567	0.04448
3907.49699	0.04449
3905.56832	0.04449
3903.63964	0.04449
3901.71097	0.04453
3899.78229	0.04464
3897.85362	0.04484
3895.92494	0.04504
3893.99626	0.04509
3892.06759	0.04507
3890.13891	0.04517
3888.21024	0.04532
3886.28156	0.04538
3884.35289	0.04544
3882.42421	0.04548
3880.49553	0.04553
3878.56686	0.04568
3876.63818	0.04585
3874.70951	0.04594
3872.78083	0.04596
3870.85216	0.04596
3868.92348	0.04601
3866.99480	0.04609
3865.06613	0.04616
3863.13745	0.04628
3861.20878	0.04646
3859.28010	0.04658
3857.35143	0.04648
3855.42275	0.04622
3853.49407	0.04622
3851.56540	0.04661
3849.63672	0.04700
3847.70805	0.04719
3845.77937	0.04726
3843.85070	0.04732
3841.92202	0.04736
3839.99334	0.04737
3838.06467	0.04738
3836.13599	0.04745
3834.20732	0.04756
3832.27864	0.04771
3830.34997	0.04788
3828.42129	0.04801
3826.49261	0.04810
3824.56394	0.04816
3822.63526	0.04817
3820.70659	0.04819
3818.77791	0.04824
3816.84924	0.04828
3814.92056	0.04846
3812.99188	0.04872
3811.06321	0.04890
3809.13453	0.04895
3807.20586	0.04899
3805.27718	0.04905
3803.34851	0.04901
3801.41983	0.04900
3799.49115	0.04917
3797.56248	0.04939
3795.63380	0.04957
3793.70513	0.04974
3791.77645	0.04984
3789.84778	0.04990
3787.91910	0.04996
3785.99042	0.05006
3784.06175	0.05019
3782.13307	0.05028
3780.20440	0.05031
3778.27572	0.05038
3776.34705	0.05052
3774.41837	0.05064
3772.48969	0.05068
3770.56102	0.05070
3768.63234	0.05078
3766.70367	0.05092
3764.77499	0.05108
3762.84632	0.05118
3760.91764	0.05117
3758.98896	0.05119
3757.06029	0.05130
3755.13161	0.05132
3753.20294	0.05120
3751.27426	0.05118
3749.34559	0.05133
3747.41691	0.05134
3745.48823	0.05119
3743.55956	0.05137
3741.63088	0.05183
3739.70221	0.05205
3737.77353	0.05200
3735.84486	0.05202
3733.91618	0.05222
3731.98750	0.05246
3730.05883	0.05263
3728.13015	0.05270
3726.20148	0.05272
3724.27280	0.05279
3722.34413	0.05292
3720.41545	0.05308
3718.48677	0.05323
3716.55810	0.05334
3714.62942	0.05338
3712.70075	0.05339
3710.77207	0.05348
3708.84340	0.05367
3706.91472	0.05386
3704.98604	0.05397
3703.05737	0.05404
3701.12869	0.05413
3699.20002	0.05424
3697.27134	0.05434
3695.34267	0.05441
3693.41399	0.05438
3691.48531	0.05429
3689.55664	0.05428
3687.62796	0.05447
3685.69929	0.05477
3683.77061	0.05500
3681.84194	0.05511
3679.91326	0.05512
3677.98458	0.05505
3676.05591	0.05504
3674.12723	0.05517
3672.19856	0.05531
3670.26988	0.05539
3668.34121	0.05552
3666.41253	0.05573
3664.48385	0.05589
3662.55518	0.05600
3660.62650	0.05608
3658.69783	0.05614
3656.76915	0.05618
3654.84048	0.05622
3652.91180	0.05614
3650.98312	0.05595
3649.05445	0.05585
3647.12577	0.05599
3645.19710	0.05631
3643.26842	0.05661
3641.33975	0.05680
3639.41107	0.05694
3637.48239	0.05705
3635.55372	0.05712
3633.62504	0.05714
3631.69637	0.05708
3629.76769	0.05699
3627.83902	0.05709
3625.91034	0.05737
3623.98166	0.05755
3622.05299	0.05754
3620.12431	0.05750
3618.19564	0.05758
3616.26696	0.05772
3614.33829	0.05780
3612.40961	0.05779
3610.48093	0.05778
3608.55226	0.05786
3606.62358	0.05806
3604.69491	0.05823
3602.76623	0.05831
3600.83756	0.05835
3598.90888	0.05843
3596.98020	0.05852
3595.05153	0.05861
3593.12285	0.05871
3591.19418	0.05878
3589.26550	0.05875
3587.33683	0.05874
3585.40815	0.05889
3583.47947	0.05910
3581.55080	0.05926
3579.62212	0.05935
3577.69345	0.05941
3575.76477	0.05944
3573.83610	0.05950
3571.90742	0.05956
3569.97874	0.05956
3568.05007	0.05955
3566.12139	0.05965
3564.19272	0.05982
3562.26404	0.05995
3560.33537	0.06005
3558.40669	0.06015
3556.47801	0.06023
3554.54934	0.06029
3552.62066	0.06033
3550.69199	0.06041
3548.76331	0.06047
3546.83464	0.06051
3544.90596	0.06057
3542.97728	0.06069
3541.04861	0.06081
3539.11993	0.06088
3537.19126	0.06093
3535.26258	0.06100
3533.33391	0.06107
3531.40523	0.06110
3529.47655	0.06110
3527.54788	0.06111
3525.61920	0.06116
3523.69053	0.06122
3521.76185	0.06129
3519.83318	0.06138
3517.90450	0.06143
3515.97582	0.06146
3514.04715	0.06150
3512.11847	0.06152
3510.18980	0.06151
3508.26112	0.06151
3506.33245	0.06154
3504.40377	0.06158
3502.47509	0.06162
3500.54642	0.06167
3498.61774	0.06173
3496.68907	0.06178
3494.76039	0.06180
3492.83172	0.06182
3490.90304	0.06185
3488.97436	0.06189
3487.04569	0.06195
3485.11701	0.06200
3483.18834	0.06200
3481.25966	0.06202
3479.33099	0.06210
3477.40231	0.06219
3475.47363	0.06228
3473.54496	0.06238
3471.61628	0.06250
3469.68761	0.06260
3467.75893	0.06268
3465.83026	0.06277
3463.90158	0.06287
3461.97290	0.06297
3460.04423	0.06308
3458.11555	0.06318
3456.18688	0.06327
3454.25820	0.06336
3452.32953	0.06344
3450.40085	0.06351
3448.47217	0.06357
3446.54350	0.06366
3444.61482	0.06380
3442.68615	0.06394
3440.75747	0.06407
3438.82880	0.06420
3436.90012	0.06433
3434.97144	0.06448
3433.04277	0.06467
3431.11409	0.06487
3429.18542	0.06507
3427.25674	0.06528
3425.32807	0.06549
3423.39939	0.06569
3421.47071	0.06587
3419.54204	0.06604
3417.61336	0.06622
3415.68469	0.06638
3413.75601	0.06654
3411.82734	0.06669
3409.89866	0.06683
3407.96998	0.06693
3406.04131	0.06705
3404.11263	0.06720
3402.18396	0.06736
3400.25528	0.06749
3398.32661	0.06762
3396.39793	0.06776
3394.46925	0.06791
3392.54058	0.06805
3390.61190	0.06820
3388.68323	0.06834
3386.75455	0.06847
3384.82588	0.06862
3382.89720	0.06879
3380.96852	0.06894
3379.03985	0.06907
3377.11117	0.06920
3375.18250	0.06929
3373.25382	0.06938
3371.32515	0.06948
3369.39647	0.06963
3367.46779	0.06978
3365.53912	0.06991
3363.61044	0.07001
3361.68177	0.07013
3359.75309	0.07028
3357.82442	0.07042
3355.89574	0.07054
3353.96706	0.07066
3352.03839	0.07078
3350.10971	0.07092
3348.18104	0.07106
3346.25236	0.07119
3344.32369	0.07129
3342.39501	0.07139
3340.46633	0.07150
3338.53766	0.07161
3336.60898	0.07173
3334.68031	0.07185
3332.75163	0.07199
3330.82296	0.07212
3328.89428	0.07224
3326.96560	0.07237
3325.03693	0.07251
3323.10825	0.07264
3321.17958	0.07278
3319.25090	0.07294
3317.32223	0.07308
3315.39355	0.07318
3313.46487	0.07329
3311.53620	0.07340
3309.60752	0.07351
3307.67885	0.07363
3305.75017	0.07377
3303.82150	0.07393
3301.89282	0.07408
3299.96414	0.07421
3298.03547	0.07433
3296.10679	0.07445
3294.17812	0.07459
3292.24944	0.07475
3290.32077	0.07492
3288.39209	0.07505
3286.46341	0.07515
3284.53474	0.07527
3282.60606	0.07540
3280.67739	0.07552
3278.74871	0.07566
3276.82004	0.07581
3274.89136	0.07595
3272.96268	0.07608
3271.03401	0.07621
3269.10533	0.07635
3267.17666	0.07650
3265.24798	0.07663
3263.31931	0.07675
3261.39063	0.07688
3259.46195	0.07705
3257.53328	0.07721
3255.60460	0.07733
3253.67593	0.07742
3251.74725	0.07754
3249.81858	0.07769
3247.88990	0.07782
3245.96122	0.07796
3244.03255	0.07812
3242.10387	0.07829
3240.17520	0.07845
3238.24652	0.07856
3236.31785	0.07867
3234.38917	0.07882
3232.46049	0.07897
3230.53182	0.07910
3228.60314	0.07920
3226.67447	0.07934
3224.74579	0.07949
3222.81712	0.07964
3220.88844	0.07978
3218.95976	0.07993
3217.03109	0.08006
3215.10241	0.08017
3213.17374	0.08030
3211.24506	0.08046
3209.31639	0.08060
3207.38771	0.08071
3205.45903	0.08083
3203.53036	0.08096
3201.60168	0.08112
3199.67301	0.08128
3197.74433	0.08144
3195.81566	0.08159
3193.88698	0.08173
3191.95830	0.08188
3190.02963	0.08206
3188.10095	0.08225
3186.17228	0.08239
3184.24360	0.08251
3182.31493	0.08264
3180.38625	0.08276
3178.45757	0.08288
3176.52890	0.08302
3174.60022	0.08320
3172.67155	0.08335
3170.74287	0.08350
3168.81420	0.08365
3166.88552	0.08380
3164.95684	0.08391
3163.02817	0.08402
3161.09949	0.08415
3159.17082	0.08430
3157.24214	0.08444
3155.31347	0.08458
3153.38479	0.08472
3151.45611	0.08488
3149.52744	0.08505
3147.59876	0.08519
3145.67009	0.08532
3143.74141	0.08549
3141.81274	0.08564
3139.88406	0.08578
3137.95538	0.08590
3136.02671	0.08604
3134.09803	0.08619
3132.16936	0.08633
3130.24068	0.08646
3128.31201	0.08661
3126.38333	0.08677
3124.45465	0.08692
3122.52598	0.08704
3120.59730	0.08716
3118.66863	0.08730
3116.73995	0.08746
3114.81128	0.08762
3112.88260	0.08775
3110.95392	0.08788
3109.02525	0.08802
3107.09657	0.08817
3105.16790	0.08833
3103.23922	0.08846
3101.31055	0.08857
3099.38187	0.08869
3097.45319	0.08886
3095.52452	0.08903
3093.59584	0.08916
3091.66717	0.08929
3089.73849	0.08944
3087.80982	0.08961
3085.88114	0.08977
3083.95246	0.08990
3082.02379	0.09002
3080.09511	0.09013
3078.16644	0.09026
3076.23776	0.09040
3074.30909	0.09055
3072.38041	0.09071
3070.45173	0.09088
3068.52306	0.09102
3066.59438	0.09112
3064.66571	0.09122
3062.73703	0.09137
3060.80836	0.09153
3058.87968	0.09169
3056.95100	0.09183
3055.02233	0.09200
3053.09365	0.09217
3051.16498	0.09231
3049.23630	0.09241
3047.30763	0.09251
3045.37895	0.09262
3043.45027	0.09278
3041.52160	0.09296
3039.59292	0.09315
3037.66425	0.09328
3035.73557	0.09339
3033.80690	0.09353
3031.87822	0.09368
3029.94954	0.09379
3028.02087	0.09391
3026.09219	0.09407
3024.16352	0.09424
3022.23484	0.09438
3020.30617	0.09452
3018.37749	0.09468
3016.44881	0.09481
3014.52014	0.09492
3012.59146	0.09505
3010.66279	0.09520
3008.73411	0.09533
3006.80544	0.09546
3004.87676	0.09564
3002.94808	0.09586
3001.01941	0.09605
2999.09073	0.09616
2997.16206	0.09624
2995.23338	0.09634
2993.30471	0.09644
2991.37603	0.09654
2989.44735	0.09665
2987.51868	0.09677
2985.59000	0.09688
2983.66133	0.09700
2981.73265	0.09708
2979.80398	0.09714
2977.87530	0.09719
2975.94662	0.09724
2974.01795	0.09727
2972.08927	0.09729
2970.16060	0.09728
2968.23192	0.09726
2966.30325	0.09725
2964.37457	0.09726
2962.44589	0.09733
2960.51722	0.09749
2958.58854	0.09769
2956.65987	0.09787
2954.73119	0.09804
2952.80252	0.09820
2950.87384	0.09836
2948.94516	0.09851
2947.01649	0.09864
2945.08781	0.09872
2943.15914	0.09875
2941.23046	0.09876
2939.30179	0.09875
2937.37311	0.09875
2935.44443	0.09876
2933.51576	0.09876
2931.58708	0.09874
2929.65841	0.09873
2927.72973	0.09870
2925.80106	0.09867
2923.87238	0.09865
2921.94370	0.09864
2920.01503	0.09872
2918.08635	0.09893
2916.15768	0.09925
2914.22900	0.09969
2912.30033	0.10017
2910.37165	0.10059
2908.44297	0.10094
2906.51430	0.10123
2904.58562	0.10145
2902.65695	0.10166
2900.72827	0.10191
2898.79960	0.10214
2896.87092	0.10235
2894.94224	0.10257
2893.01357	0.10279
2891.08489	0.10299
2889.15622	0.10319
2887.22754	0.10338
2885.29887	0.10355
2883.37019	0.10372
2881.44151	0.10389
2879.51284	0.10404
2877.58416	0.10418
2875.65549	0.10429
2873.72681	0.10437
2871.79814	0.10450
2869.86946	0.10468
2867.94078	0.10486
2866.01211	0.10498
2864.08343	0.10504
2862.15476	0.10506
2860.22608	0.10506
2858.29741	0.10508
2856.36873	0.10509
2854.44005	0.10503
2852.51138	0.10499
2850.58270	0.10508
2848.65403	0.10539
2846.72535	0.10588
2844.79668	0.10641
2842.86800	0.10685
2840.93932	0.10718
2839.01065	0.10744
2837.08197	0.10768
2835.15330	0.10791
2833.22462	0.10811
2831.29595	0.10827
2829.36727	0.10843
2827.43859	0.10862
2825.50992	0.10879
2823.58124	0.10894
2821.65257	0.10911
2819.72389	0.10932
2817.79522	0.10955
2815.86654	0.10973
2813.93786	0.10986
2812.00919	0.10998
2810.08051	0.11013
2808.15184	0.11030
2806.22316	0.11046
2804.29449	0.11059
2802.36581	0.11073
2800.43713	0.11092
2798.50846	0.11108
2796.57978	0.11120
2794.65111	0.11136
2792.72243	0.11156
2790.79376	0.11173
2788.86508	0.11188
2786.93640	0.11204
2785.00773	0.11221
2783.07905	0.11236
2781.15038	0.11248
2779.22170	0.11259
2777.29303	0.11272
2775.36435	0.11290
2773.43567	0.11309
2771.50700	0.11326
2769.57832	0.11340
2767.64965	0.11356
2765.72097	0.11371
2763.79230	0.11386
2761.86362	0.11400
2759.93494	0.11417
2758.00627	0.11437
2756.07759	0.11456
2754.14892	0.11470
2752.22024	0.11481
2750.29157	0.11492
2748.36289	0.11506
2746.43421	0.11521
2744.50554	0.11535
2742.57686	0.11549
2740.64819	0.11564
2738.71951	0.11580
2736.79084	0.11594
2734.86216	0.11607
2732.93348	0.11621
2731.00481	0.11635
2729.07613	0.11648
2727.14746	0.11663
2725.21878	0.11681
2723.29011	0.11698
2721.36143	0.11712
2719.43275	0.11726
2717.50408	0.11739
2715.57540	0.11753
2713.64673	0.11767
2711.71805	0.11783
2709.78938	0.11799
2707.86070	0.11815
2705.93202	0.11830
2704.00335	0.11844
2702.07467	0.11860
2700.14600	0.11880
2698.21732	0.11896
2696.28865	0.11907
2694.35997	0.11917
2692.43129	0.11931
2690.50262	0.11945
2688.57394	0.11956
2686.64527	0.11968
2684.71659	0.11985
2682.78792	0.12003
2680.85924	0.12021
2678.93056	0.12036
2677.00189	0.12048
2675.07321	0.12058
2673.14454	0.12071
2671.21586	0.12090
2669.28719	0.12109
2667.35851	0.12124
2665.42983	0.12138
2663.50116	0.12152
2661.57248	0.12166
2659.64381	0.12180
2657.71513	0.12193
2655.78646	0.12209
2653.85778	0.12227
2651.92910	0.12245
2650.00043	0.12261
2648.07175	0.12274
2646.14308	0.12289
2644.21440	0.12304
2642.28573	0.12319
2640.35705	0.12335
2638.42837	0.12351
2636.49970	0.12365
2634.57102	0.12379
2632.64235	0.12396
2630.71367	0.12415
2628.78500	0.12433
2626.85632	0.12446
2624.92764	0.12460
2622.99897	0.12478
2621.07029	0.12497
2619.14162	0.12512
2617.21294	0.12526
2615.28427	0.12541
2613.35559	0.12555
2611.42691	0.12569
2609.49824	0.12584
2607.56956	0.12601
2605.64089	0.12617
2603.71221	0.12635
2601.78354	0.12653
2599.85486	0.12670
2597.92618	0.12684
2595.99751	0.12699
2594.06883	0.12717
2592.14016	0.12735
2590.21148	0.12751
2588.28281	0.12768
2586.35413	0.12784
2584.42545	0.12797
2582.49678	0.12810
2580.56810	0.12823
2578.63943	0.12839
2576.71075	0.12855
2574.78208	0.12872
2572.85340	0.12887
2570.92472	0.12899
2568.99605	0.12912
2567.06737	0.12930
2565.13870	0.12951
2563.21002	0.12969
2561.28135	0.12980
2559.35267	0.12990
2557.42399	0.13003
2555.49532	0.13021
2553.56664	0.13040
2551.63797	0.13059
2549.70929	0.13076
2547.78062	0.13090
2545.85194	0.13104
2543.92326	0.13118
2541.99459	0.13132
2540.06591	0.13147
2538.13724	0.13162
2536.20856	0.13177
2534.27989	0.13190
2532.35121	0.13202
2530.42253	0.13215
2528.49386	0.13232
2526.56518	0.13248
2524.63651	0.13262
2522.70783	0.13279
2520.77916	0.13297
2518.85048	0.13314
2516.92181	0.13331
2514.99313	0.13350
2513.06445	0.13367
2511.13578	0.13382
2509.20710	0.13399
2507.27843	0.13417
2505.34975	0.13435
2503.42108	0.13453
2501.49240	0.13469
2499.56372	0.13483
2497.63505	0.13496
2495.70637	0.13513
2493.77770	0.13534
2491.84902	0.13555
2489.92035	0.13573
2487.99167	0.13590
2486.06299	0.13607
2484.13432	0.13625
2482.20564	0.13642
2480.27697	0.13659
2478.34829	0.13674
2476.41962	0.13688
2474.49094	0.13701
2472.56226	0.13716
2470.63359	0.13733
2468.70491	0.13752
2466.77624	0.13771
2464.84756	0.13789
2462.91889	0.13806
2460.99021	0.13820
2459.06153	0.13835
2457.13286	0.13851
2455.20418	0.13869
2453.27551	0.13888
2451.34683	0.13907
2449.41816	0.13923
2447.48948	0.13936
2445.56080	0.13949
2443.63213	0.13965
2441.70345	0.13984
2439.77478	0.14001
2437.84610	0.14018
2435.91743	0.14036
2433.98875	0.14053
2432.06007	0.14067
2430.13140	0.14083
2428.20272	0.14101
2426.27405	0.14117
2424.34537	0.14133
2422.41670	0.14149
2420.48802	0.14164
2418.55934	0.14181
2416.63067	0.14197
2414.70199	0.14213
2412.77332	0.14231
2410.84464	0.14249
2408.91597	0.14267
2406.98729	0.14281
2405.05861	0.14294
2403.12994	0.14309
2401.20126	0.14328
2399.27259	0.14346
2397.34391	0.14365
2395.41524	0.14385
2393.48656	0.14403
2391.55788	0.14417
2389.62921	0.14429
2387.70053	0.14441
2385.77186	0.14454
2383.84318	0.14466
2381.91451	0.14475
2379.98583	0.14483
2378.05715	0.14492
2376.12848	0.14502
2374.19980	0.14509
2372.27113	0.14511
2370.34245	0.14511
2368.41378	0.14512
2366.48510	0.14519
2364.55642	0.14532
2362.62775	0.14546
2360.69907	0.14561
2358.77040	0.14581
2356.84172	0.14608
2354.91305	0.14639
2352.98437	0.14672
2351.05569	0.14705
2349.12702	0.14728
2347.19834	0.14738
2345.26967	0.14742
2343.34099	0.14747
2341.41232	0.14754
2339.48364	0.14762
2337.55496	0.14772
2335.62629	0.14784
2333.69761	0.14800
2331.76894	0.14821
2329.84026	0.14846
2327.91159	0.14870
2325.98291	0.14892
2324.05423	0.14912
2322.12556	0.14932
2320.19688	0.14953
2318.26821	0.14976
2316.33953	0.14999
2314.41086	0.15021
2312.48218	0.15042
2310.55350	0.15063
2308.62483	0.15084
2306.69615	0.15107
2304.76748	0.15127
2302.83880	0.15144
2300.91013	0.15160
2298.98145	0.15177
2297.05277	0.15195
2295.12410	0.15210
2293.19542	0.15224
2291.26675	0.15242
2289.33807	0.15262
2287.40940	0.15282
2285.48072	0.15298
2283.55204	0.15314
2281.62337	0.15329
2279.69469	0.15346
2277.76602	0.15365
2275.83734	0.15382
2273.90867	0.15396
2271.97999	0.15413
2270.05131	0.15431
2268.12264	0.15445
2266.19396	0.15459
2264.26529	0.15479
2262.33661	0.15502
2260.40794	0.15521
2258.47926	0.15534
2256.55058	0.15547
2254.62191	0.15562
2252.69323	0.15577
2250.76456	0.15593
2248.83588	0.15611
2246.90721	0.15631
2244.97853	0.15648
2243.04985	0.15662
2241.12118	0.15677
2239.19250	0.15693
2237.26383	0.15710
2235.33515	0.15727
2233.40648	0.15742
2231.47780	0.15757
2229.54912	0.15773
2227.62045	0.15789
2225.69177	0.15801
2223.76310	0.15814
2221.83442	0.15830
2219.90575	0.15849
2217.97707	0.15868
2216.04839	0.15884
2214.11972	0.15898
2212.19104	0.15914
2210.26237	0.15931
2208.33369	0.15946
2206.40502	0.15962
2204.47634	0.15977
2202.54766	0.15991
2200.61899	0.16006
2198.69031	0.16022
2196.76164	0.16040
2194.83296	0.16058
2192.90429	0.16073
2190.97561	0.16088
2189.04693	0.16104
2187.11826	0.16119
2185.18958	0.16133
2183.26091	0.16148
2181.33223	0.16162
2179.40356	0.16177
2177.47488	0.16193
2175.54620	0.16212
2173.61753	0.16232
2171.68885	0.16250
2169.76018	0.16268
2167.83150	0.16286
2165.90283	0.16303
2163.97415	0.16318
2162.04547	0.16332
2160.11680	0.16348
2158.18812	0.16369
2156.25945	0.16389
2154.33077	0.16406
2152.40210	0.16420
2150.47342	0.16433
2148.54474	0.16450
2146.61607	0.16469
2144.68739	0.16486
2142.75872	0.16502
2140.83004	0.16516
2138.90137	0.16531
2136.97269	0.16549
2135.04401	0.16568
2133.11534	0.16585
2131.18666	0.16600
2129.25799	0.16615
2127.32931	0.16633
2125.40064	0.16653
2123.47196	0.16671
2121.54328	0.16686
2119.61461	0.16700
2117.68593	0.16714
2115.75726	0.16732
2113.82858	0.16749
2111.89991	0.16761
2109.97123	0.16773
2108.04255	0.16789
2106.11388	0.16809
2104.18520	0.16831
2102.25653	0.16850
2100.32785	0.16865
2098.39918	0.16880
2096.47050	0.16898
2094.54182	0.16918
2092.61315	0.16937
2090.68447	0.16954
2088.75580	0.16970
2086.82712	0.16985
2084.89845	0.16998
2082.96977	0.17011
2081.04109	0.17024
2079.11242	0.17038
2077.18374	0.17053
2075.25507	0.17071
2073.32639	0.17091
2071.39772	0.17112
2069.46904	0.17130
2067.54036	0.17146
2065.61169	0.17161
2063.68301	0.17176
2061.75434	0.17191
2059.82566	0.17208
2057.89699	0.17227
2055.96831	0.17243
2054.03963	0.17258
2052.11096	0.17276
2050.18228	0.17293
2048.25361	0.17308
2046.32493	0.17325
2044.39626	0.17342
2042.46758	0.17358
2040.53890	0.17374
2038.61023	0.17390
2036.68155	0.17404
2034.75288	0.17417
2032.82420	0.17436
2030.89553	0.17457
2028.96685	0.17477
2027.03817	0.17490
2025.10950	0.17503
2023.18082	0.17521
2021.25215	0.17540
2019.32347	0.17554
2017.39480	0.17565
2015.46612	0.17580
2013.53744	0.17603
2011.60877	0.17625
2009.68009	0.17642
2007.75142	0.17656
2005.82274	0.17671
2003.89407	0.17688
2001.96539	0.17704
2000.03671	0.17720
1998.10804	0.17736
1996.17936	0.17751
1994.25069	0.17764
1992.32201	0.17776
1990.39334	0.17791
1988.46466	0.17807
1986.53598	0.17822
1984.60731	0.17837
1982.67863	0.17852
1980.74996	0.17869
1978.82128	0.17884
1976.89261	0.17897
1974.96393	0.17911
1973.03525	0.17927
1971.10658	0.17939
1969.17790	0.17950
1967.24923	0.17965
1965.32055	0.17985
1963.39188	0.18002
1961.46320	0.18017
1959.53452	0.18032
1957.60585	0.18047
1955.67717	0.18063
1953.74850	0.18080
1951.81982	0.18096
1949.89115	0.18112
1947.96247	0.18128
1946.03379	0.18140
1944.10512	0.18147
1942.17644	0.18162
1940.24777	0.18189
1938.31909	0.18212
1936.39042	0.18229
1934.46174	0.18246
1932.53306	0.18260
1930.60439	0.18270
1928.67571	0.18283
1926.74704	0.18298
1924.81836	0.18313
1922.88969	0.18326
1920.96101	0.18338
1919.03233	0.18348
1917.10366	0.18367
1915.17498	0.18397
1913.24631	0.18421
1911.31763	0.18435
1909.38896	0.18449
1907.46028	0.18466
1905.53160	0.18479
1903.60293	0.18491
1901.67425	0.18507
1899.74558	0.18527
1897.81690	0.18542
1895.88823	0.18550
1893.95955	0.18561
1892.03087	0.18573
1890.10220	0.18582
1888.17352	0.18598
1886.24485	0.18623
1884.31617	0.18646
1882.38750	0.18665
1880.45882	0.18681
1878.53014	0.18698
1876.60147	0.18720
1874.67279	0.18740
1872.74412	0.18748
1870.81544	0.18742
1868.88677	0.18742
1866.95809	0.18768
1865.02941	0.18804
1863.10074	0.18826
1861.17206	0.18840
1859.24339	0.18858
1857.31471	0.18881
1855.38604	0.18898
1853.45736	0.18910
1851.52868	0.18923
1849.60001	0.18932
1847.67133	0.18921
1845.74266	0.18893
1843.81398	0.18898
1841.88531	0.18961
1839.95663	0.19019
1838.02795	0.19044
1836.09928	0.19059
1834.17060	0.19073
1832.24193	0.19069
1830.31325	0.19058
1828.38458	0.19064
1826.45590	0.19079
1824.52722	0.19107
1822.59855	0.19151
1820.66987	0.19184
1818.74120	0.19200
1816.81252	0.19214
1814.88385	0.19230
1812.95517	0.19238
1811.02649	0.19243
1809.09782	0.19263
1807.16914	0.19288
1805.24047	0.19298
1803.31179	0.19295
1801.38312	0.19295
1799.45444	0.19311
1797.52576	0.19333
1795.59709	0.19344
1793.66841	0.19341
1791.73974	0.19342
1789.81106	0.19371
1787.88239	0.19409
1785.95371	0.19430
1784.02503	0.19438
1782.09636	0.19444
1780.16768	0.19454
1778.23901	0.19465
1776.31033	0.19461
1774.38166	0.19442
1772.45298	0.19433
1770.52430	0.19438
1768.59563	0.19451
1766.66695	0.19486
1764.73828	0.19526
1762.80960	0.19543
1760.88093	0.19549
1758.95225	0.19547
1757.02357	0.19540
1755.09490	0.19551
1753.16622	0.19556
1751.23755	0.19535
1749.30887	0.19522
1747.38020	0.19539
1745.45152	0.19561
1743.52284	0.19571
1741.59417	0.19574
1739.66549	0.19579
1737.73682	0.19567
1735.80814	0.19519
1733.87947	0.19486
1731.95079	0.19521
1730.02211	0.19585
1728.09344	0.19635
1726.16476	0.19667
1724.23609	0.19683
1722.30741	0.19682
1720.37874	0.19647
1718.45006	0.19609
1716.52138	0.19620
1714.59271	0.19672
1712.66403	0.19730
1710.73536	0.19767
1708.80668	0.19770
1706.87801	0.19759
1704.94933	0.19759
1703.02065	0.19746
1701.09198	0.19710
1699.16330	0.19691
1697.23463	0.19692
1695.30595	0.19721
1693.37728	0.19793
1691.44860	0.19843
1689.51992	0.19838
1687.59125	0.19803
1685.66257	0.19749
1683.73390	0.19728
1681.80522	0.19770
1679.87655	0.19821
1677.94787	0.19838
1676.01919	0.19832
1674.09052	0.19833
1672.16184	0.19829
1670.23317	0.19810
1668.30449	0.19821
1666.37582	0.19868
1664.44714	0.19893
1662.51846	0.19897
1660.58979	0.19907
1658.66111	0.19914
1656.73244	0.19867
1654.80376	0.19767
1652.87509	0.19734
1650.94641	0.19813
1649.01773	0.19869
1647.08906	0.19862
1645.16038	0.19882
1643.23171	0.19936
1641.30303	0.19963
1639.37436	0.19947
1637.44568	0.19912
1635.51700	0.19908
1633.58833	0.19952
1631.65965	0.19994
1629.73098	0.19999
1627.80230	0.19988
1625.87363	0.19962
1623.94495	0.19921
1622.01627	0.19896
1620.08760	0.19897
1618.15892	0.19921
1616.23025	0.19977
1614.30157	0.20049
1612.37290	0.20102
1610.44422	0.20129
1608.51554	0.20153
1606.58687	0.20182
1604.65819	0.20209
1602.72952	0.20230
1600.80084	0.20250
1598.87217	0.20267
1596.94349	0.20278
1595.01481	0.20292
1593.08614	0.20314
1591.15746	0.20337
1589.22879	0.20354
1587.30011	0.20367
1585.37144	0.20379
1583.44276	0.20397
1581.51408	0.20415
1579.58541	0.20411
1577.65673	0.20389
1575.72806	0.20391
1573.79938	0.20420
1571.87071	0.20419
1569.94203	0.20404
1568.01335	0.20432
1566.08468	0.20479
1564.15600	0.20505
1562.22733	0.20487
1560.29865	0.20413
1558.36998	0.20360
1556.44130	0.20398
1554.51262	0.20475
1552.58395	0.20529
1550.65527	0.20558
1548.72660	0.20580
1546.79792	0.20592
1544.86925	0.20568
1542.94057	0.20516
1541.01189	0.20475
1539.08322	0.20495
1537.15454	0.20573
1535.22587	0.20632
1533.29719	0.20650
1531.36852	0.20663
1529.43984	0.20671
1527.51116	0.20667
1525.58249	0.20668
1523.65381	0.20653
1521.72514	0.20620
1519.79646	0.20617
1517.86779	0.20647
1515.93911	0.20675
1514.01043	0.20687
1512.08176	0.20680
1510.15308	0.20656
1508.22441	0.20635
1506.29573	0.20664
1504.36706	0.20737
1502.43838	0.20785
1500.50970	0.20781
1498.58103	0.20751
1496.65235	0.20735
1494.72368	0.20753
1492.79500	0.20760
1490.86633	0.20728
1488.93765	0.20704
1487.00897	0.20716
1485.08030	0.20732
1483.15162	0.20730
1481.22295	0.20720
1479.29427	0.20708
1477.36560	0.20675
1475.43692	0.20614
1473.50824	0.20554
1471.57957	0.20532
1469.65089	0.20531
1467.72222	0.20515
1465.79354	0.20487
1463.86487	0.20467
1461.93619	0.20438
1460.00751	0.20370
1458.07884	0.20303
1456.15016	0.20301
1454.22149	0.20351
1452.29281	0.20390
1450.36414	0.20390
1448.43546	0.20378
1446.50678	0.20389
1444.57811	0.20419
1442.64943	0.20441
1440.72076	0.20441
1438.79208	0.20417
1436.86341	0.20402
1434.93473	0.20435
1433.00605	0.20482
1431.07738	0.20506
1429.14870	0.20519
1427.22003	0.20526
1425.29135	0.20522
1423.36268	0.20520
1421.43400	0.20514
1419.50532	0.20498
1417.57665	0.20503
1415.64797	0.20528
1413.71930	0.20548
1411.79062	0.20557
1409.86195	0.20560
1407.93327	0.20552
1406.00459	0.20538
1404.07592	0.20538
1402.14724	0.20548
1400.21857	0.20541
1398.28989	0.20519
1396.36122	0.20503
1394.43254	0.20505
1392.50386	0.20524
1390.57519	0.20525
1388.64651	0.20488
1386.71784	0.20446
1384.78916	0.20434
1382.86049	0.20440
1380.93181	0.20447
1379.00313	0.20446
1377.07446	0.20431
1375.14578	0.20413
1373.21711	0.20414
1371.28843	0.20424
1369.35976	0.20427
1367.43108	0.20422
1365.50240	0.20405
1363.57373	0.20383
1361.64505	0.20388
1359.71638	0.20412
1357.78770	0.20425
1355.85903	0.20428
1353.93035	0.20434
1352.00167	0.20448
1350.07300	0.20462
1348.14432	0.20477
1346.21565	0.20488
1344.28697	0.20491
1342.35830	0.20476
1340.42962	0.20454
1338.50094	0.20447
1336.57227	0.20452
1334.64359	0.20454
1332.71492	0.20444
1330.78624	0.20428
1328.85757	0.20411
1326.92889	0.20396
1325.00021	0.20380
1323.07154	0.20362
1321.14286	0.20343
1319.21419	0.20327
1317.28551	0.20314
1315.35684	0.20300
1313.42816	0.20284
1311.49948	0.20267
1309.57081	0.20248
1307.64213	0.20223
1305.71346	0.20198
1303.78478	0.20177
1301.85611	0.20157
1299.92743	0.20135
1297.99875	0.20113
1296.07008	0.20095
1294.14140	0.20077
1292.21273	0.20059
1290.28405	0.20040
1288.35538	0.20021
1286.42670	0.20003
1284.49802	0.19983
1282.56935	0.19960
1280.64067	0.19934
1278.71200	0.19904
1276.78332	0.19870
1274.85465	0.19829
1272.92597	0.19779
1270.99729	0.19715
1269.06862	0.19635
1267.13994	0.19545
1265.21127	0.19459
1263.28259	0.19395
1261.35392	0.19371
1259.42524	0.19379
1257.49656	0.19396
1255.56789	0.19412
1253.63921	0.19418
1251.71054	0.19407
1249.78186	0.19380
1247.85319	0.19348
1245.92451	0.19315
1243.99583	0.19282
1242.06716	0.19244
1240.13848	0.19199
1238.20981	0.19145
1236.28113	0.19086
1234.35246	0.19027
1232.42378	0.18972
1230.49510	0.18917
1228.56643	0.18861
1226.63775	0.18807
1224.70908	0.18757
1222.78040	0.18710
1220.85173	0.18664
1218.92305	0.18612
1216.99437	0.18557
1215.06570	0.18503
1213.13702	0.18448
1211.20835	0.18389
1209.27967	0.18328
1207.35100	0.18269
1205.42232	0.18211
1203.49364	0.18156
1201.56497	0.18103
1199.63629	0.18048
1197.70762	0.17989
1195.77894	0.17923
1193.85027	0.17851
1191.92159	0.17786
1189.99291	0.17729
1188.06424	0.17665
1186.13556	0.17587
1184.20689	0.17498
1182.27821	0.17408
1180.34954	0.17327
1178.42086	0.17253
1176.49218	0.17175
1174.56351	0.17091
1172.63483	0.17003
1170.70616	0.16909
1168.77748	0.16815
1166.84881	0.16730
1164.92013	0.16653
1162.99145	0.16576
1161.06278	0.16499
1159.13410	0.16418
1157.20543	0.16329
1155.27675	0.16239
1153.34808	0.16157
1151.41940	0.16082
1149.49072	0.16010
1147.56205	0.15931
1145.63337	0.15839
1143.70470	0.15740
1141.77602	0.15645
1139.84735	0.15552
1137.91867	0.15447
1135.98999	0.15328
1134.06132	0.15190
1132.13264	0.15023
1130.20397	0.14829
1128.27529	0.14618
1126.34662	0.14397
1124.41794	0.14166
1122.48926	0.13933
1120.56059	0.13701
1118.63191	0.13474
1116.70324	0.13256
1114.77456	0.13062
1112.84589	0.12903
1110.91721	0.12774
1108.98853	0.12670
1107.05986	0.12593
1105.13118	0.12542
1103.20251	0.12520
1101.27383	0.12534
1099.34516	0.12581
1097.41648	0.12645
1095.48780	0.12717
1093.55913	0.12801
1091.63045	0.12895
1089.70178	0.12983
1087.77310	0.13057
1085.84443	0.13118
1083.91575	0.13169
1081.98707	0.13210
1080.05840	0.13239
1078.12972	0.13255
1076.20105	0.13264
1074.27237	0.13274
1072.34370	0.13285
1070.41502	0.13297
1068.48634	0.13314
1066.55767	0.13333
1064.62899	0.13348
1062.70032	0.13360
1060.77164	0.13377
1058.84297	0.13402
1056.91429	0.13432
1054.98561	0.13463
1053.05694	0.13493
1051.12826	0.13525
1049.19959	0.13561
1047.27091	0.13602
1045.34224	0.13647
1043.41356	0.13697
1041.48488	0.13743
1039.55621	0.13780
1037.62753	0.13817
1035.69886	0.13855
1033.77018	0.13891
1031.84151	0.13921
1029.91283	0.13954
1027.98415	0.13990
1026.05548	0.14023
1024.12680	0.14053
1022.19813	0.14082
1020.26945	0.14116
1018.34078	0.14160
1016.41210	0.14210
1014.48342	0.14255
1012.55475	0.14300
1010.62607	0.14362
1008.69740	0.14439
1006.76872	0.14508
1004.84005	0.14557
1002.91137	0.14594
1000.98269	0.14623
999.05402	0.14644
997.12534	0.14663
995.19667	0.14685
993.26799	0.14706
991.33932	0.14715
989.41064	0.14713
987.48196	0.14711
985.55329	0.14719
983.62461	0.14729
981.69594	0.14729
979.76726	0.14714
977.83859	0.14691
975.90991	0.14670
973.98123	0.14652
972.05256	0.14634
970.12388	0.14619
968.19521	0.14607
966.26653	0.14596
964.33786	0.14582
962.40918	0.14563
960.48050	0.14540
958.55183	0.14518
956.62315	0.14496
954.69448	0.14474
952.76580	0.14458
950.83713	0.14447
948.90845	0.14434
946.97977	0.14416
945.05110	0.14394
943.12242	0.14363
941.19375	0.14321
939.26507	0.14278
937.33640	0.14236
935.40772	0.14194
933.47904	0.14146
931.55037	0.14097
929.62169	0.14050
927.69302	0.13997
925.76434	0.13939
923.83567	0.13886
921.90699	0.13832
919.97831	0.13771
918.04964	0.13705
916.12096	0.13634
914.19229	0.13553
912.26361	0.13472
910.33494	0.13401
908.40626	0.13336
906.47758	0.13272
904.54891	0.13208
902.62023	0.13145
900.69156	0.13084
898.76288	0.13027
896.83421	0.12970
894.90553	0.12915
892.97685	0.12864
891.04818	0.12815
889.11950	0.12772
887.19083	0.12734
885.26215	0.12699
883.33348	0.12667
881.40480	0.12637
879.47612	0.12605
877.54745	0.12572
875.61877	0.12538
873.69010	0.12508
871.76142	0.12487
869.83275	0.12466
867.90407	0.12442
865.97539	0.12421
864.04672	0.12400
862.11804	0.12382
860.18937	0.12374
858.26069	0.12367
856.33202	0.12358
854.40334	0.12343
852.47466	0.12320
850.54599	0.12294
848.61731	0.12270
846.68864	0.12239
844.75996	0.12207
842.83129	0.12180
840.90261	0.12153
838.97394	0.12115
837.04526	0.12068
835.11658	0.12009
833.18791	0.11930
831.25923	0.11832
829.33056	0.11721
827.40188	0.11608
825.47321	0.11505
823.54453	0.11417
821.61585	0.11341
819.68718	0.11272
817.75850	0.11212
815.82983	0.11168
813.90115	0.11136
811.97248	0.11109
810.04380	0.11084
808.11512	0.11065
806.18645	0.11053
804.25777	0.11045
802.32910	0.11035
800.40042	0.11010
798.47175	0.10960
796.54307	0.10899
794.61439	0.10845
792.68572	0.10810
790.75704	0.10789
788.82837	0.10766
786.89969	0.10735
784.97102	0.10703
783.04234	0.10678
781.11366	0.10653
779.18499	0.10620
777.25631	0.10584
775.32764	0.10552
773.39896	0.10526
771.47029	0.10502
769.54161	0.10469
767.61293	0.10425
765.68426	0.10383
763.75558	0.10346
761.82691	0.10299
759.89823	0.10236
757.96956	0.10176
756.04088	0.10130
754.11220	0.10083
752.18353	0.10023
750.25485	0.09947
748.32618	0.09864
746.39750	0.09779
744.46883	0.09694
742.54015	0.09608
740.61147	0.09530
738.68280	0.09474
736.75412	0.09441
734.82545	0.09424
732.89677	0.09421
730.96810	0.09435
729.03942	0.09454
727.11074	0.09467
725.18207	0.09474
723.25339	0.09483
721.32472	0.09499
719.39604	0.09522
717.46737	0.09550
715.53869	0.09587
713.61001	0.09635
711.68134	0.09675
709.75266	0.09698
707.82399	0.09703
705.89531	0.09690
703.96664	0.09668
702.03796	0.09637
700.10928	0.09597
698.18061	0.09551
696.25193	0.09499
694.32326	0.09438
692.39458	0.09375
690.46591	0.09319
688.53723	0.09269
686.60855	0.09227
684.67988	0.09186
682.75120	0.09138
680.82253	0.09080
678.89385	0.09025
676.96518	0.08972
675.03650	0.08897
673.10782	0.08806
671.17915	0.08721
669.25047	0.08644
667.32180	0.08570
665.39312	0.08496
663.46445	0.08415
661.53577	0.08325
659.60709	0.08235
657.67842	0.08152
655.74974	0.08073
653.82107	0.07994
651.89239	0.07915
649.96372	0.07836
648.03504	0.07759
646.10636	0.07674
644.17769	0.07573
642.24901	0.07469
640.32034	0.07375
638.39166	0.07287
636.46299	0.07183
634.53431	0.07057
632.60563	0.06892
630.67696	0.06647
628.74828	0.06295
626.81961	0.05855
624.89093	0.05410
622.96226	0.05056
621.03358	0.04829
619.10490	0.04701
617.17623	0.04612
615.24755	0.04519
613.31888	0.04413
611.39020	0.04309
609.46153	0.04258
607.53285	0.04279
605.60417	0.04331
603.67550	0.04386
601.74682	0.04457
599.81815	0.04546
597.88947	0.04627
595.96080	0.04689
594.03212	0.04737
592.10344	0.04775
590.17477	0.04800
588.24609	0.04805
586.31742	0.04786
584.38874	0.04746
582.46007	0.04698
580.53139	0.04654
578.60271	0.04617
576.67404	0.04583
574.74536	0.04538
572.81669	0.04483
570.88801	0.04426
568.95934	0.04363
567.03066	0.04293
565.10198	0.04239
563.17331	0.04205
561.24463	0.04179
559.31596	0.04159
557.38728	0.04145
555.45861	0.04128
553.52993	0.04105
551.60125	0.04082
549.67258	0.04057
547.74390	0.04035
545.81523	0.04018
543.88655	0.04006
541.95788	0.03999
540.02920	0.03992
538.10052	0.03981
536.17185	0.03960
534.24317	0.03931
532.31450	0.03903
530.38582	0.03885
528.45715	0.03865
526.52847	0.03835
524.59979	0.03798
522.67112	0.03759
520.74244	0.03714
518.81377	0.03658
516.88509	0.03593
514.95642	0.03531
513.02774	0.03489
511.09906	0.03465
509.17039	0.03442
507.24171	0.03416
505.31304	0.03388
503.38436	0.03358
501.45569	0.03327
499.52701	0.03285
497.59833	0.03229
495.66966	0.03171
493.74098	0.03112
491.81231	0.03043
489.88363	0.02970
487.95496	0.02911
486.02628	0.02864
484.09760	0.02818
482.16893	0.02771
480.24025	0.02724
478.31158	0.02672
476.38290	0.02609
474.45423	0.02541
472.52555	0.02478
470.59687	0.02431
468.66820	0.02401
466.73952	0.02376
464.81085	0.02348
462.88217	0.02325
460.95350	0.02308
459.02482	0.02299
457.09614	0.02295
455.16747	0.02291
453.23879	0.02285
451.31012	0.02285
449.38144	0.02282
447.45277	0.02259
445.52409	0.02225
443.59541	0.02203
441.66674	0.02193
439.73806	0.02166
437.80939	0.02119
435.88071	0.02074
433.95204	0.02033
432.02336	0.01980
430.09468	0.01920
428.16601	0.01860
426.23733	0.01792
424.30866	0.01720
422.37998	0.01656
420.45131	0.01594
418.52263	0.01525
416.59395	0.01460
414.66528	0.01397
412.73660	0.01335
410.80793	0.01276
408.87925	0.01215
406.95058	0.01146
405.02190	0.01077
403.09322	0.01016
401.16455	0.00965
399.23587	0.00923
397.30720	0.00877
395.37852	0.00813
393.44985	0.00745
391.52117	0.00684
389.59249	0.00628
387.66382	0.00576
385.73514	0.00532
383.80647	0.00497
381.87779	0.00468
379.94912	0.00428
378.02044	0.00378
376.09176	0.00341
374.16309	0.00321
372.23441	0.00306
370.30574	0.00281
368.37706	0.00246
