7496.76250	0.00118
7494.83382	0.00118
7492.90514	0.00118
7490.97647	0.00119
7489.04779	0.00121
7487.11912	0.00123
7485.19044	0.00123
7483.26177	0.00124
7481.33309	0.00124
7479.40441	0.00124
7477.47574	0.00124
7475.54706	0.00124
7473.61839	0.00125
7471.68971	0.00125
7469.76104	0.00126
7467.83236	0.00127
7465.90368	0.00128
7463.97501	0.00126
7462.04633	0.00124
7460.11766	0.00123
7458.18898	0.00124
7456.26031	0.00125
7454.33163	0.00126
7452.40295	0.00128
7450.47428	0.00128
7448.54560	0.00128
7446.61693	0.00129
7444.68825	0.00130
7442.75958	0.00130
7440.83090	0.00131
7438.90222	0.00132
7436.97355	0.00132
7435.04487	0.00132
7433.11620	0.00133
7431.18752	0.00134
7429.25885	0.00134
7427.33017	0.00133
7425.40149	0.00133
7423.47282	0.00133
7421.54414	0.00131
7419.61547	0.00132
7417.68679	0.00133
7415.75812	0.00136
7413.82944	0.00137
7411.90076	0.00137
7409.97209	0.00136
7408.04341	0.00136
7406.11474	0.00136
7404.18606	0.00136
7402.25739	0.00136
7400.32871	0.00134
7398.40003	0.00134
7396.47136	0.00135
7394.54268	0.00137
7392.61401	0.00139
7390.68533	0.00139
7388.75666	0.00139
7386.82798	0.00140
7384.89930	0.00141
7382.97063	0.00142
7381.04195	0.00142
7379.11328	0.00142
7377.18460	0.00141
7375.25593	0.00140
7373.32725	0.00141
7371.39857	0.00142
7369.46990	0.00142
7367.54122	0.00141
7365.61255	0.00141
7363.68387	0.00142
7361.75520	0.00143
7359.82652	0.00145
7357.89784	0.00145
7355.96917	0.00144
7354.04049	0.00144
7352.11182	0.00144
7350.18314	0.00145
7348.25447	0.00145
7346.32579	0.00146
7344.39711	0.00146
7342.46844	0.00147
7340.53976	0.00148
7338.61109	0.00149
7336.68241	0.00150
7334.75374	0.00150
7332.82506	0.00151
7330.89638	0.00151
7328.96771	0.00150
7327.03903	0.00150
7325.11036	0.00152
7323.18168	0.00153
7321.25301	0.00153
7319.32433	0.00154
7317.39565	0.00154
7315.46698	0.00153
7313.53830	0.00153
7311.60963	0.00155
7309.68095	0.00156
7307.75228	0.00156
7305.82360	0.00154
7303.89492	0.00152
7301.96625	0.00154
7300.03757	0.00156
7298.10890	0.00157
7296.18022	0.00155
7294.25155	0.00155
7292.32287	0.00156
7290.39419	0.00157
7288.46552	0.00157
7286.53684	0.00159
7284.60817	0.00160
7282.67949	0.00160
7280.75082	0.00161
7278.82214	0.00162
7276.89346	0.00162
7274.96479	0.00162
7273.03611	0.00163
7271.10744	0.00164
7269.17876	0.00164
7267.25009	0.00163
7265.32141	0.00163
7263.39273	0.00162
7261.46406	0.00162
7259.53538	0.00161
7257.60671	0.00162
7255.67803	0.00162
7253.74936	0.00162
7251.82068	0.00163
7249.89200	0.00165
7247.96333	0.00166
7246.03465	0.00167
7244.10598	0.00166
7242.17730	0.00166
7240.24863	0.00167
7238.31995	0.00167
7236.39127	0.00166
7234.46260	0.00165
7232.53392	0.00165
7230.60525	0.00166
7228.67657	0.00169
7226.74790	0.00172
7224.81922	0.00172
7222.89054	0.00171
7220.96187	0.00170
7219.03319	0.00169
7217.10452	0.00169
7215.17584	0.00170
7213.24717	0.00171
7211.31849	0.00173
7209.38981	0.00175
7207.46114	0.00175
7205.53246	0.00174
7203.60379	0.00174
7201.67511	0.00175
7199.74644	0.00175
7197.81776	0.00175
7195.88908	0.00176
7193.96041	0.00177
7192.03173	0.00177
7190.10306	0.00177
7188.17438	0.00178
7186.24571	0.00179
7184.31703	0.00178
7182.38835	0.00178
7180.45968	0.00179
7178.53100	0.00180
7176.60233	0.00181
7174.67365	0.00182
7172.74498	0.00183
7170.81630	0.00182
7168.88762	0.00181
7166.95895	0.00181
7165.03027	0.00182
7163.10160	0.00183
7161.17292	0.00184
7159.24425	0.00185
7157.31557	0.00184
7155.38689	0.00184
7153.45822	0.00185
7151.52954	0.00186
7149.60087	0.00187
7147.67219	0.00187
7145.74352	0.00186
7143.81484	0.00186
7141.88616	0.00187
7139.95749	0.00187
7138.02881	0.00187
7136.10014	0.00187
7134.17146	0.00188
7132.24279	0.00188
7130.31411	0.00188
7128.38543	0.00189
7126.45676	0.00191
7124.52808	0.00192
7122.59941	0.00193
7120.67073	0.00192
7118.74206	0.00192
7116.81338	0.00192
7114.88470	0.00192
7112.95603	0.00192
7111.02735	0.00192
7109.09868	0.00192
7107.17000	0.00194
7105.24133	0.00195
7103.31265	0.00195
7101.38397	0.00196
7099.45530	0.00196
7097.52662	0.00195
7095.59795	0.00195
7093.66927	0.00196
7091.74060	0.00197
7089.81192	0.00199
7087.88324	0.00200
7085.95457	0.00200
7084.02589	0.00201
7082.09722	0.00203
7080.16854	0.00203
7078.23987	0.00203
7076.31119	0.00202
7074.38251	0.00203
7072.45384	0.00203
7070.52516	0.00204
7068.59649	0.00204
7066.66781	0.00204
7064.73914	0.00205
7062.81046	0.00206
7060.88178	0.00206
7058.95311	0.00206
7057.02443	0.00208
7055.09576	0.00210
7053.16708	0.00211
7051.23841	0.00209
7049.30973	0.00208
7047.38105	0.00209
7045.45238	0.00210
7043.52370	0.00210
7041.59503	0.00209
7039.66635	0.00208
7037.73768	0.00208
7035.80900	0.00209
7033.88032	0.00210
7031.95165	0.00212
7030.02297	0.00213
7028.09430	0.00214
7026.16562	0.00215
7024.23695	0.00215
7022.30827	0.00214
7020.37959	0.00214
7018.45092	0.00214
7016.52224	0.00216
7014.59357	0.00216
7012.66489	0.00215
7010.73622	0.00216
7008.80754	0.00217
7006.87886	0.00217
7004.95019	0.00216
7003.02151	0.00216
7001.09284	0.00217
6999.16416	0.00220
6997.23549	0.00222
6995.30681	0.00224
6993.37813	0.00225
6991.44946	0.00228
6989.52078	0.00228
6987.59211	0.00227
6985.66343	0.00225
6983.73476	0.00225
6981.80608	0.00224
6979.87740	0.00222
6977.94873	0.00222
6976.02005	0.00222
6974.09138	0.00222
6972.16270	0.00224
6970.23403	0.00226
6968.30535	0.00228
6966.37667	0.00230
6964.44800	0.00231
6962.51932	0.00230
6960.59065	0.00230
6958.66197	0.00230
6956.73330	0.00230
6954.80462	0.00231
6952.87594	0.00232
6950.94727	0.00232
6949.01859	0.00233
6947.08992	0.00234
6945.16124	0.00236
6943.23257	0.00236
6941.30389	0.00235
6939.37521	0.00234
6937.44654	0.00234
6935.51786	0.00234
6933.58919	0.00233
6931.66051	0.00235
6929.73184	0.00237
6927.80316	0.00239
6925.87448	0.00239
6923.94581	0.00239
6922.01713	0.00240
6920.08846	0.00240
6918.15978	0.00240
6916.23111	0.00240
6914.30243	0.00240
6912.37375	0.00240
6910.44508	0.00241
6908.51640	0.00243
6906.58773	0.00243
6904.65905	0.00243
6902.73038	0.00244
6900.80170	0.00245
6898.87302	0.00247
6896.94435	0.00248
6895.01567	0.00249
6893.08700	0.00250
6891.15832	0.00250
6889.22965	0.00249
6887.30097	0.00249
6885.37229	0.00249
6883.44362	0.00248
6881.51494	0.00249
6879.58627	0.00250
6877.65759	0.00251
6875.72892	0.00252
6873.80024	0.00251
6871.87156	0.00251
6869.94289	0.00252
6868.01421	0.00252
6866.08554	0.00254
6864.15686	0.00256
6862.22819	0.00256
6860.29951	0.00254
6858.37083	0.00255
6856.44216	0.00257
6854.51348	0.00257
6852.58481	0.00257
6850.65613	0.00258
6848.72746	0.00259
6846.79878	0.00259
6844.87010	0.00260
6842.94143	0.00262
6841.01275	0.00264
6839.08408	0.00263
6837.15540	0.00262
6835.22673	0.00260
6833.29805	0.00261
6831.36937	0.00262
6829.44070	0.00263
6827.51202	0.00263
6825.58335	0.00264
6823.65467	0.00265
6821.72600	0.00267
6819.79732	0.00268
6817.86864	0.00268
6815.93997	0.00267
6814.01129	0.00268
6812.08262	0.00270
6810.15394	0.00271
6808.22527	0.00270
6806.29659	0.00270
6804.36791	0.00271
6802.43924	0.00272
6800.51056	0.00274
6798.58189	0.00275
6796.65321	0.00275
6794.72454	0.00275
6792.79586	0.00275
6790.86718	0.00276
6788.93851	0.00277
6787.00983	0.00278
6785.08116	0.00278
6783.15248	0.00278
6781.22381	0.00279
6779.29513	0.00280
6777.36645	0.00281
6775.43778	0.00281
6773.50910	0.00281
6771.58043	0.00282
6769.65175	0.00283
6767.72308	0.00283
6765.79440	0.00283
6763.86572	0.00283
6761.93705	0.00284
6760.00837	0.00283
6758.07970	0.00283
6756.15102	0.00283
6754.22235	0.00284
6752.29367	0.00287
6750.36499	0.00289
6748.43632	0.00290
6746.50764	0.00291
6744.57897	0.00291
6742.65029	0.00291
6740.72162	0.00291
6738.79294	0.00292
6736.86426	0.00292
6734.93559	0.00292
6733.00691	0.00292
6731.07824	0.00294
6729.14956	0.00296
6727.22089	0.00297
6725.29221	0.00297
6723.36353	0.00297
6721.43486	0.00297
6719.50618	0.00298
6717.57751	0.00299
6715.64883	0.00298
6713.72016	0.00297
6711.79148	0.00297
6709.86280	0.00298
6707.93413	0.00299
6706.00545	0.00299
6704.07678	0.00301
6702.14810	0.00304
6700.21943	0.00306
6698.29075	0.00306
6696.36207	0.00306
6694.43340	0.00306
6692.50472	0.00306
6690.57605	0.00307
6688.64737	0.00308
6686.71870	0.00308
6684.79002	0.00309
6682.86134	0.00311
6680.93267	0.00311
6679.00399	0.00311
6677.07532	0.00312
6675.14664	0.00312
6673.21797	0.00312
6671.28929	0.00313
6669.36061	0.00314
6667.43194	0.00314
6665.50326	0.00315
6663.57459	0.00316
6661.64591	0.00317
6659.71724	0.00318
6657.78856	0.00318
6655.85988	0.00317
6653.93121	0.00317
6652.00253	0.00317
6650.07386	0.00319
6648.14518	0.00320
6646.21651	0.00320
6644.28783	0.00319
6642.35915	0.00319
6640.43048	0.00320
6638.50180	0.00322
6636.57313	0.00324
6634.64445	0.00326
6632.71578	0.00328
6630.78710	0.00330
6628.85842	0.00330
6626.92975	0.00329
6625.00107	0.00329
6623.07240	0.00331
6621.14372	0.00333
6619.21505	0.00333
6617.28637	0.00333
6615.35769	0.00335
6613.42902	0.00336
6611.50034	0.00337
6609.57167	0.00337
6607.64299	0.00337
6605.71432	0.00336
6603.78564	0.00338
6601.85696	0.00339
6599.92829	0.00340
6597.99961	0.00340
6596.07094	0.00341
6594.14226	0.00341
6592.21359	0.00341
6590.28491	0.00339
6588.35623	0.00341
6586.42756	0.00344
6584.49888	0.00345
6582.57021	0.00344
6580.64153	0.00343
6578.71286	0.00344
6576.78418	0.00345
6574.85550	0.00345
6572.92683	0.00346
6570.99815	0.00348
6569.06948	0.00349
6567.14080	0.00349
6565.21213	0.00349
6563.28345	0.00351
6561.35477	0.00352
6559.42610	0.00353
6557.49742	0.00353
6555.56875	0.00353
6553.64007	0.00354
6551.71140	0.00356
6549.78272	0.00359
6547.85404	0.00360
6545.92537	0.00360
6543.99669	0.00361
6542.06802	0.00362
6540.13934	0.00362
6538.21067	0.00363
6536.28199	0.00362
6534.35331	0.00362
6532.42464	0.00361
6530.49596	0.00361
6528.56729	0.00361
6526.63861	0.00363
6524.70994	0.00365
6522.78126	0.00366
6520.85258	0.00366
6518.92391	0.00367
6516.99523	0.00369
6515.06656	0.00372
6513.13788	0.00372
6511.20921	0.00372
6509.28053	0.00373
6507.35185	0.00375
6505.42318	0.00376
6503.49450	0.00376
6501.56583	0.00375
6499.63715	0.00375
6497.70848	0.00376
6495.77980	0.00377
6493.85112	0.00378
6491.92245	0.00379
6489.99377	0.00381
6488.06510	0.00381
6486.13642	0.00382
6484.20775	0.00383
6482.27907	0.00385
6480.35039	0.00386
6478.42172	0.00387
6476.49304	0.00387
6474.56437	0.00387
6472.63569	0.00387
6470.70702	0.00387
6468.77834	0.00387
6466.84966	0.00387
6464.92099	0.00389
6462.99231	0.00390
6461.06364	0.00390
6459.13496	0.00390
6457.20629	0.00391
6455.27761	0.00392
6453.34893	0.00394
6451.42026	0.00397
6449.49158	0.00399
6447.56291	0.00399
6445.63423	0.00399
6443.70556	0.00399
6441.77688	0.00400
6439.84820	0.00401
6437.91953	0.00404
6435.99085	0.00405
6434.06218	0.00405
6432.13350	0.00405
6430.20483	0.00406
6428.27615	0.00406
6426.34747	0.00406
6424.41880	0.00407
6422.49012	0.00409
6420.56145	0.00410
6418.63277	0.00411
6416.70410	0.00412
6414.77542	0.00413
6412.84674	0.00414
6410.91807	0.00414
6408.98939	0.00414
6407.06072	0.00414
6405.13204	0.00416
6403.20337	0.00418
6401.27469	0.00420
6399.34601	0.00422
6397.41734	0.00423
6395.48866	0.00423
6393.55999	0.00423
6391.63131	0.00424
6389.70264	0.00425
6387.77396	0.00426
6385.84528	0.00427
6383.91661	0.00428
6381.98793	0.00429
6380.05926	0.00429
6378.13058	0.00429
6376.20191	0.00431
6374.27323	0.00432
6372.34455	0.00432
6370.41588	0.00434
6368.48720	0.00435
6366.55853	0.00435
6364.62985	0.00435
6362.70118	0.00435
6360.77250	0.00436
6358.84382	0.00436
6356.91515	0.00436
6354.98647	0.00438
6353.05780	0.00439
6351.12912	0.00441
6349.20045	0.00443
6347.27177	0.00445
6345.34309	0.00446
6343.41442	0.00447
6341.48574	0.00446
6339.55707	0.00447
6337.62839	0.00448
6335.69972	0.00450
6333.77104	0.00449
6331.84236	0.00449
6329.91369	0.00451
6327.98501	0.00454
6326.05634	0.00456
6324.12766	0.00458
6322.19899	0.00460
6320.27031	0.00460
6318.34163	0.00461
6316.41296	0.00461
6314.48428	0.00462
6312.55561	0.00463
6310.62693	0.00463
6308.69826	0.00462
6306.76958	0.00462
6304.84090	0.00462
6302.91223	0.00463
6300.98355	0.00465
6299.05488	0.00466
6297.12620	0.00468
6295.19753	0.00469
6293.26885	0.00471
6291.34017	0.00472
6289.41150	0.00472
6287.48282	0.00473
6285.55415	0.00475
6283.62547	0.00477
6281.69680	0.00478
6279.76812	0.00478
6277.83944	0.00478
6275.91077	0.00479
6273.98209	0.00480
6272.05342	0.00482
6270.12474	0.00483
6268.19607	0.00482
6266.26739	0.00482
6264.33871	0.00484
6262.41004	0.00485
6260.48136	0.00486
6258.55269	0.00487
6256.62401	0.00488
6254.69534	0.00490
6252.76666	0.00492
6250.83798	0.00493
6248.90931	0.00492
6246.98063	0.00492
6245.05196	0.00494
6243.12328	0.00496
6241.19461	0.00499
6239.26593	0.00500
6237.33725	0.00499
6235.40858	0.00499
6233.47990	0.00500
6231.55123	0.00501
6229.62255	0.00502
6227.69388	0.00503
6225.76520	0.00505
6223.83652	0.00506
6221.90785	0.00505
6219.97917	0.00506
6218.05050	0.00508
6216.12182	0.00510
6214.19315	0.00512
6212.26447	0.00513
6210.33579	0.00514
6208.40712	0.00514
6206.47844	0.00514
6204.54977	0.00515
6202.62109	0.00516
6200.69242	0.00518
6198.76374	0.00520
6196.83506	0.00522
6194.90639	0.00524
6192.97771	0.00525
6191.04904	0.00525
6189.12036	0.00525
6187.19169	0.00526
6185.26301	0.00527
6183.33433	0.00528
6181.40566	0.00528
6179.47698	0.00528
6177.54831	0.00531
6175.61963	0.00534
6173.69096	0.00536
6171.76228	0.00537
6169.83360	0.00538
6167.90493	0.00539
6165.97625	0.00539
6164.04758	0.00539
6162.11890	0.00539
6160.19023	0.00540
6158.26155	0.00542
6156.33287	0.00545
6154.40420	0.00547
6152.47552	0.00549
6150.54685	0.00550
6148.61817	0.00550
6146.68950	0.00551
6144.76082	0.00553
6142.83214	0.00555
6140.90347	0.00557
6138.97479	0.00557
6137.04612	0.00556
6135.11744	0.00556
6133.18877	0.00557
6131.26009	0.00559
6129.33141	0.00562
6127.40274	0.00563
6125.47406	0.00564
6123.54539	0.00564
6121.61671	0.00563
6119.68804	0.00563
6117.75936	0.00564
6115.83068	0.00566
6113.90201	0.00568
6111.97333	0.00569
6110.04466	0.00571
6108.11598	0.00573
6106.18731	0.00574
6104.25863	0.00575
6102.32995	0.00577
6100.40128	0.00577
6098.47260	0.00577
6096.54393	0.00579
6094.61525	0.00582
6092.68658	0.00583
6090.75790	0.00585
6088.82922	0.00587
6086.90055	0.00589
6084.97187	0.00589
6083.04320	0.00588
6081.11452	0.00590
6079.18585	0.00592
6077.25717	0.00593
6075.32849	0.00594
6073.39982	0.00595
6071.47114	0.00597
6069.54247	0.00599
6067.61379	0.00602
6065.68512	0.00603
6063.75644	0.00602
6061.82776	0.00602
6059.89909	0.00603
6057.97041	0.00605
6056.04174	0.00607
6054.11306	0.00607
6052.18439	0.00608
6050.25571	0.00613
6048.32703	0.00616
6046.39836	0.00617
6044.46968	0.00615
6042.54101	0.00614
6040.61233	0.00615
6038.68366	0.00616
6036.75498	0.00618
6034.82630	0.00621
6032.89763	0.00625
6030.96895	0.00626
6029.04028	0.00626
6027.11160	0.00626
6025.18293	0.00628
6023.25425	0.00629
6021.32557	0.00629
6019.39690	0.00630
6017.46822	0.00631
6015.53955	0.00632
6013.61087	0.00633
6011.68220	0.00634
6009.75352	0.00636
6007.82484	0.00637
6005.89617	0.00637
6003.96749	0.00639
6002.03882	0.00642
6000.11014	0.00646
5998.18147	0.00646
5996.25279	0.00645
5994.32411	0.00647
5992.39544	0.00649
5990.46676	0.00651
5988.53809	0.00652
5986.60941	0.00652
5984.68074	0.00651
5982.75206	0.00651
5980.82338	0.00654
5978.89471	0.00657
5976.96603	0.00657
5975.03736	0.00658
5973.10868	0.00660
5971.18001	0.00663
5969.25133	0.00666
5967.32265	0.00670
5965.39398	0.00671
5963.46530	0.00671
5961.53663	0.00671
5959.60795	0.00674
5957.67928	0.00676
5955.75060	0.00677
5953.82192	0.00677
5951.89325	0.00679
5949.96457	0.00680
5948.03590	0.00681
5946.10722	0.00681
5944.17855	0.00683
5942.24987	0.00686
5940.32119	0.00689
5938.39252	0.00689
5936.46384	0.00688
5934.53517	0.00688
5932.60649	0.00690
5930.67782	0.00692
5928.74914	0.00694
5926.82046	0.00696
5924.89179	0.00697
5922.96311	0.00698
5921.03444	0.00700
5919.10576	0.00703
5917.17709	0.00704
5915.24841	0.00705
5913.31973	0.00707
5911.39106	0.00708
5909.46238	0.00710
5907.53371	0.00711
5905.60503	0.00711
5903.67636	0.00711
5901.74768	0.00712
5899.81900	0.00714
5897.89033	0.00717
5895.96165	0.00719
5894.03298	0.00721
5892.10430	0.00723
5890.17563	0.00723
5888.24695	0.00722
5886.31827	0.00723
5884.38960	0.00727
5882.46092	0.00730
5880.53225	0.00731
5878.60357	0.00732
5876.67490	0.00733
5874.74622	0.00733
5872.81755	0.00733
5870.88887	0.00734
5868.96019	0.00736
5867.03152	0.00739
5865.10284	0.00741
5863.17417	0.00744
5861.24549	0.00746
5859.31682	0.00748
5857.38814	0.00749
5855.45946	0.00750
5853.53079	0.00752
5851.60211	0.00754
5849.67344	0.00754
5847.74476	0.00754
5845.81609	0.00755
5843.88741	0.00757
5841.95873	0.00761
5840.03006	0.00764
5838.10138	0.00765
5836.17271	0.00765
5834.24403	0.00764
5832.31536	0.00765
5830.38668	0.00767
5828.45800	0.00770
5826.52933	0.00773
5824.60065	0.00775
5822.67198	0.00777
5820.74330	0.00778
5818.81463	0.00777
5816.88595	0.00778
5814.95727	0.00780
5813.02860	0.00783
5811.09992	0.00784
5809.17125	0.00786
5807.24257	0.00788
5805.31390	0.00789
5803.38522	0.00790
5801.45654	0.00792
5799.52787	0.00795
5797.59919	0.00797
5795.67052	0.00798
5793.74184	0.00798
5791.81317	0.00801
5789.88449	0.00804
5787.95581	0.00806
5786.02714	0.00808
5784.09846	0.00810
5782.16979	0.00811
5780.24111	0.00811
5778.31244	0.00812
5776.38376	0.00813
5774.45508	0.00815
5772.52641	0.00817
5770.59773	0.00820
5768.66906	0.00822
5766.74038	0.00823
5764.81171	0.00824
5762.88303	0.00825
5760.95435	0.00826
5759.02568	0.00827
5757.09700	0.00827
5755.16833	0.00828
5753.23965	0.00831
5751.31098	0.00835
5749.38230	0.00839
5747.45362	0.00841
5745.52495	0.00842
5743.59627	0.00844
5741.66760	0.00846
5739.73892	0.00846
5737.81025	0.00846
5735.88157	0.00846
5733.95289	0.00848
5732.02422	0.00852
5730.09554	0.00856
5728.16687	0.00858
5726.23819	0.00860
5724.30952	0.00862
5722.38084	0.00863
5720.45216	0.00863
5718.52349	0.00865
5716.59481	0.00868
5714.66614	0.00870
5712.73746	0.00871
5710.80879	0.00871
5708.88011	0.00872
5706.95143	0.00874
5705.02276	0.00876
5703.09408	0.00877
5701.16541	0.00879
5699.23673	0.00881
5697.30806	0.00884
5695.37938	0.00887
5693.45070	0.00889
5691.52203	0.00889
5689.59335	0.00891
5687.66468	0.00893
5685.73600	0.00896
5683.80733	0.00897
5681.87865	0.00899
5679.94997	0.00900
5678.02130	0.00900
5676.09262	0.00901
5674.16395	0.00903
5672.23527	0.00907
5670.30660	0.00911
5668.37792	0.00913
5666.44924	0.00913
5664.52057	0.00913
5662.59189	0.00915
5660.66322	0.00917
5658.73454	0.00920
5656.80587	0.00922
5654.87719	0.00924
5652.94851	0.00925
5651.01984	0.00927
5649.09116	0.00928
5647.16249	0.00930
5645.23381	0.00931
5643.30514	0.00934
5641.37646	0.00938
5639.44778	0.00939
5637.51911	0.00938
5635.59043	0.00939
5633.66176	0.00941
5631.73308	0.00943
5629.80441	0.00944
5627.87573	0.00945
5625.94705	0.00947
5624.01838	0.00948
5622.08970	0.00951
5620.16103	0.00955
5618.23235	0.00960
5616.30368	0.00962
5614.37500	0.00962
5612.44632	0.00963
5610.51765	0.00965
5608.58897	0.00969
5606.66030	0.00972
5604.73162	0.00974
5602.80295	0.00975
5600.87427	0.00976
5598.94559	0.00976
5597.01692	0.00977
5595.08824	0.00979
5593.15957	0.00981
5591.23089	0.00983
5589.30222	0.00986
5587.37354	0.00989
5585.44486	0.00991
5583.51619	0.00993
5581.58751	0.00995
5579.65884	0.00996
5577.73016	0.00998
5575.80149	0.01000
5573.87281	0.01002
5571.94413	0.01004
5570.01546	0.01006
5568.08678	0.01009
5566.15811	0.01012
5564.22943	0.01013
5562.30076	0.01012
5560.37208	0.01013
5558.44340	0.01015
5556.51473	0.01019
5554.58605	0.01022
5552.65738	0.01023
5550.72870	0.01024
5548.80003	0.01025
5546.87135	0.01027
5544.94267	0.01028
5543.01400	0.01031
5541.08532	0.01034
5539.15665	0.01036
5537.22797	0.01036
5535.29930	0.01038
5533.37062	0.01041
5531.44194	0.01044
5529.51327	0.01045
5527.58459	0.01046
5525.65592	0.01049
5523.72724	0.01052
5521.79857	0.01054
5519.86989	0.01055
5517.94121	0.01056
5516.01254	0.01058
5514.08386	0.01060
5512.15519	0.01062
5510.22651	0.01066
5508.29784	0.01068
5506.36916	0.01069
5504.44048	0.01071
5502.51181	0.01075
5500.58313	0.01079
5498.65446	0.01080
5496.72578	0.01081
5494.79711	0.01083
5492.86843	0.01085
5490.93975	0.01086
5489.01108	0.01089
5487.08240	0.01090
5485.15373	0.01091
5483.22505	0.01094
5481.29638	0.01098
5479.36770	0.01099
5477.43902	0.01099
5475.51035	0.01100
5473.58167	0.01102
5471.65300	0.01104
5469.72432	0.01107
5467.79565	0.01109
5465.86697	0.01110
5463.93829	0.01111
5462.00962	0.01112
5460.08094	0.01113
5458.15227	0.01117
5456.22359	0.01120
5454.29492	0.01123
5452.36624	0.01127
5450.43756	0.01130
5448.50889	0.01131
5446.58021	0.01131
5444.65154	0.01133
5442.72286	0.01136
5440.79419	0.01138
5438.86551	0.01140
5436.93683	0.01142
5435.00816	0.01146
5433.07948	0.01149
5431.15081	0.01152
5429.22213	0.01153
5427.29346	0.01155
5425.36478	0.01157
5423.43610	0.01158
5421.50743	0.01160
5419.57875	0.01162
5417.65008	0.01164
5415.72140	0.01165
5413.79273	0.01165
5411.86405	0.01168
5409.93537	0.01171
5408.00670	0.01174
5406.07802	0.01177
5404.14935	0.01179
5402.22067	0.01180
5400.29200	0.01183
5398.36332	0.01186
5396.43464	0.01187
5394.50597	0.01187
5392.57729	0.01190
5390.64862	0.01196
5388.71994	0.01200
5386.79127	0.01201
5384.86259	0.01202
5382.93391	0.01205
5381.00524	0.01206
5379.07656	0.01206
5377.14789	0.01206
5375.21921	0.01210
5373.29054	0.01216
5371.36186	0.01218
5369.43318	0.01220
5367.50451	0.01223
5365.57583	0.01226
5363.64716	0.01229
5361.71848	0.01231
5359.78981	0.01232
5357.86113	0.01232
5355.93245	0.01234
5354.00378	0.01236
5352.07510	0.01237
5350.14643	0.01239
5348.21775	0.01242
5346.28908	0.01244
5344.36040	0.01245
5342.43172	0.01247
5340.50305	0.01249
5338.57437	0.01252
5336.64570	0.01255
5334.71702	0.01259
5332.78835	0.01261
5330.85967	0.01264
5328.93099	0.01266
5327.00232	0.01269
5325.07364	0.01272
5323.14497	0.01274
5321.21629	0.01274
5319.28762	0.01275
5317.35894	0.01277
5315.43026	0.01280
5313.50159	0.01281
5311.57291	0.01281
5309.64424	0.01282
5307.71556	0.01285
5305.78689	0.01290
5303.85821	0.01294
5301.92953	0.01296
5300.00086	0.01298
5298.07218	0.01302
5296.14351	0.01306
5294.21483	0.01308
5292.28616	0.01309
5290.35748	0.01310
5288.42880	0.01311
5286.50013	0.01312
5284.57145	0.01314
5282.64278	0.01319
5280.71410	0.01324
5278.78543	0.01327
5276.85675	0.01329
5274.92807	0.01329
5272.99940	0.01330
5271.07072	0.01333
5269.14205	0.01335
5267.21337	0.01338
5265.28470	0.01341
5263.35602	0.01344
5261.42734	0.01347
5259.49867	0.01352
5257.56999	0.01355
5255.64132	0.01355
5253.71264	0.01355
5251.78397	0.01357
5249.85529	0.01359
5247.92661	0.01361
5245.99794	0.01364
5244.06926	0.01366
5242.14059	0.01368
5240.21191	0.01371
5238.28324	0.01375
5236.35456	0.01378
5234.42588	0.01379
5232.49721	0.01381
5230.56853	0.01384
5228.63986	0.01386
5226.71118	0.01386
5224.78251	0.01388
5222.85383	0.01393
5220.92515	0.01397
5218.99648	0.01401
5217.06780	0.01404
5215.13913	0.01406
5213.21045	0.01408
5211.28178	0.01409
5209.35310	0.01408
5207.42442	0.01408
5205.49575	0.01410
5203.56707	0.01413
5201.63840	0.01415
5199.70972	0.01418
5197.78105	0.01421
5195.85237	0.01422
5193.92369	0.01425
5191.99502	0.01428
5190.06634	0.01431
5188.13767	0.01432
5186.20899	0.01435
5184.28032	0.01440
5182.35164	0.01444
5180.42296	0.01446
5178.49429	0.01450
5176.56561	0.01454
5174.63694	0.01455
5172.70826	0.01455
5170.77959	0.01459
5168.85091	0.01464
5166.92223	0.01467
5164.99356	0.01468
5163.06488	0.01469
5161.13621	0.01470
5159.20753	0.01471
5157.27886	0.01474
5155.35018	0.01480
5153.42150	0.01484
5151.49283	0.01484
5149.56415	0.01485
5147.63548	0.01486
5145.70680	0.01490
5143.77813	0.01492
5141.84945	0.01494
5139.92077	0.01497
5137.99210	0.01501
5136.06342	0.01505
5134.13475	0.01508
5132.20607	0.01509
5130.27740	0.01512
5128.34872	0.01516
5126.42004	0.01517
5124.49137	0.01517
5122.56269	0.01517
5120.63402	0.01521
5118.70534	0.01526
5116.77667	0.01531
5114.84799	0.01535
5112.91931	0.01536
5110.99064	0.01536
5109.06196	0.01538
5107.13329	0.01544
5105.20461	0.01547
5103.27594	0.01547
5101.34726	0.01548
5099.41858	0.01550
5097.48991	0.01552
5095.56123	0.01555
5093.63256	0.01557
5091.70388	0.01560
5089.77521	0.01562
5087.84653	0.01564
5085.91785	0.01567
5083.98918	0.01571
5082.06050	0.01574
5080.13183	0.01577
5078.20315	0.01581
5076.27448	0.01583
5074.34580	0.01583
5072.41712	0.01587
5070.48845	0.01593
5068.55977	0.01597
5066.63110	0.01598
5064.70242	0.01600
5062.77375	0.01602
5060.84507	0.01605
5058.91639	0.01607
5056.98772	0.01607
5055.05904	0.01607
5053.13037	0.01608
5051.20169	0.01613
5049.27302	0.01619
5047.34434	0.01622
5045.41566	0.01623
5043.48699	0.01625
5041.55831	0.01629
5039.62964	0.01633
5037.70096	0.01636
5035.77229	0.01638
5033.84361	0.01640
5031.91493	0.01643
5029.98626	0.01646
5028.05758	0.01648
5026.12891	0.01651
5024.20023	0.01652
5022.27156	0.01652
5020.34288	0.01655
5018.41420	0.01658
5016.48553	0.01662
5014.55685	0.01665
5012.62818	0.01668
5010.69950	0.01671
5008.77083	0.01673
5006.84215	0.01675
5004.91347	0.01679
5002.98480	0.01684
5001.05612	0.01688
4999.12745	0.01690
4997.19877	0.01692
4995.27010	0.01694
4993.34142	0.01696
4991.41274	0.01697
4989.48407	0.01699
4987.55539	0.01702
4985.62672	0.01706
4983.69804	0.01710
4981.76937	0.01713
4979.84069	0.01714
4977.91201	0.01716
4975.98334	0.01721
4974.05466	0.01726
4972.12599	0.01729
4970.19731	0.01730
4968.26864	0.01732
4966.33996	0.01736
4964.41128	0.01738
4962.48261	0.01739
4960.55393	0.01744
4958.62526	0.01749
4956.69658	0.01752
4954.76791	0.01753
4952.83923	0.01753
4950.91055	0.01755
4948.98188	0.01758
4947.05320	0.01762
4945.12453	0.01765
4943.19585	0.01769
4941.26718	0.01771
4939.33850	0.01772
4937.40982	0.01774
4935.48115	0.01777
4933.55247	0.01779
4931.62380	0.01782
4929.69512	0.01785
4927.76645	0.01789
4925.83777	0.01792
4923.90909	0.01794
4921.98042	0.01797
4920.05174	0.01800
4918.12307	0.01801
4916.19439	0.01803
4914.26572	0.01808
4912.33704	0.01814
4910.40836	0.01817
4908.47969	0.01818
4906.55101	0.01818
4904.62234	0.01821
4902.69366	0.01825
4900.76499	0.01828
4898.83631	0.01830
4896.90763	0.01833
4894.97896	0.01839
4893.05028	0.01844
4891.12161	0.01848
4889.19293	0.01850
4887.26426	0.01852
4885.33558	0.01853
4883.40690	0.01855
4881.47823	0.01858
4879.54955	0.01861
4877.62088	0.01865
4875.69220	0.01868
4873.76353	0.01871
4871.83485	0.01875
4869.90617	0.01878
4867.97750	0.01879
4866.04882	0.01882
4864.12015	0.01887
4862.19147	0.01892
4860.26280	0.01894
4858.33412	0.01894
4856.40544	0.01895
4854.47677	0.01900
4852.54809	0.01906
4850.61942	0.01910
4848.69074	0.01913
4846.76207	0.01915
4844.83339	0.01919
4842.90471	0.01922
4840.97604	0.01924
4839.04736	0.01926
4837.11869	0.01928
4835.19001	0.01930
4833.26134	0.01933
4831.33266	0.01938
4829.40398	0.01942
4827.47531	0.01944
4825.54663	0.01945
4823.61796	0.01948
4821.68928	0.01953
4819.76061	0.01957
4817.83193	0.01959
4815.90325	0.01960
4813.97458	0.01962
4812.04590	0.01966
4810.11723	0.01970
4808.18855	0.01974
4806.25988	0.01977
4804.33120	0.01981
4802.40252	0.01985
4800.47385	0.01988
4798.54517	0.01991
4796.61650	0.01994
4794.68782	0.01996
4792.75915	0.01998
4790.83047	0.02000
4788.90179	0.02003
4786.97312	0.02004
4785.04444	0.02007
4783.11577	0.02013
4781.18709	0.02018
4779.25842	0.02021
4777.32974	0.02024
4775.40106	0.02028
4773.47239	0.02032
4771.54371	0.02034
4769.61504	0.02036
4767.68636	0.02039
4765.75769	0.02042
4763.82901	0.02045
4761.90033	0.02048
4759.97166	0.02051
4758.04298	0.02055
4756.11431	0.02057
4754.18563	0.02061
4752.25696	0.02066
4750.32828	0.02069
4748.39960	0.02073
4746.47093	0.02077
4744.54225	0.02078
4742.61358	0.02079
4740.68490	0.02083
4738.75623	0.02088
4736.82755	0.02092
4734.89887	0.02097
4732.97020	0.02101
4731.04152	0.02104
4729.11285	0.02107
4727.18417	0.02109
4725.25550	0.02112
4723.32682	0.02116
4721.39814	0.02120
4719.46947	0.02125
4717.54079	0.02129
4715.61212	0.02131
4713.68344	0.02132
4711.75477	0.02134
4709.82609	0.02136
4707.89741	0.02139
4705.96874	0.02143
4704.04006	0.02148
4702.11139	0.02152
4700.18271	0.02154
4698.25404	0.02156
4696.32536	0.02160
4694.39668	0.02164
4692.46801	0.02167
4690.53933	0.02170
4688.61066	0.02172
4686.68198	0.02175
4684.75331	0.02179
4682.82463	0.02185
4680.89595	0.02188
4678.96728	0.02189
4677.03860	0.02192
4675.10993	0.02198
4673.18125	0.02204
4671.25258	0.02207
4669.32390	0.02210
4667.39522	0.02213
4665.46655	0.02216
4663.53787	0.02220
4661.60920	0.02223
4659.68052	0.02226
4657.75185	0.02229
4655.82317	0.02232
4653.89449	0.02236
4651.96582	0.02241
4650.03714	0.02246
4648.10847	0.02248
4646.17979	0.02250
4644.25112	0.02252
4642.32244	0.02257
4640.39376	0.02262
4638.46509	0.02269
4636.53641	0.02275
4634.60774	0.02278
4632.67906	0.02281
4630.75039	0.02285
4628.82171	0.02288
4626.89303	0.02292
4624.96436	0.02295
4623.03568	0.02296
4621.10701	0.02299
4619.17833	0.02304
4617.24966	0.02308
4615.32098	0.02312
4613.39230	0.02317
4611.46363	0.02321
4609.53495	0.02324
4607.60628	0.02327
4605.67760	0.02331
4603.74893	0.02335
4601.82025	0.02338
4599.89157	0.02340
4597.96290	0.02343
4596.03422	0.02349
4594.10555	0.02354
4592.17687	0.02358
4590.24820	0.02362
4588.31952	0.02364
4586.39084	0.02367
4584.46217	0.02370
4582.53349	0.02373
4580.60482	0.02377
4578.67614	0.02384
4576.74747	0.02389
4574.81879	0.02392
4572.89011	0.02396
4570.96144	0.02403
4569.03276	0.02406
4567.10409	0.02407
4565.17541	0.02410
4563.24674	0.02416
4561.31806	0.02421
4559.38938	0.02426
4557.46071	0.02430
4555.53203	0.02434
4553.60336	0.02437
4551.67468	0.02441
4549.74601	0.02446
4547.81733	0.02451
4545.88865	0.02455
4543.95998	0.02459
4542.03130	0.02463
4540.10263	0.02467
4538.17395	0.02471
4536.24528	0.02474
4534.31660	0.02475
4532.38792	0.02477
4530.45925	0.02481
4528.53057	0.02485
4526.60190	0.02490
4524.67322	0.02496
4522.74455	0.02501
4520.81587	0.02504
4518.88719	0.02506
4516.95852	0.02510
4515.02984	0.02516
4513.10117	0.02522
4511.17249	0.02527
4509.24382	0.02531
4507.31514	0.02536
4505.38646	0.02540
4503.45779	0.02543
4501.52911	0.02546
4499.60044	0.02549
4497.67176	0.02553
4495.74309	0.02556
4493.81441	0.02562
4491.88573	0.02568
4489.95706	0.02572
4488.02838	0.02576
4486.09971	0.02582
4484.17103	0.02588
4482.24236	0.02592
4480.31368	0.02595
4478.38500	0.02599
4476.45633	0.02605
4474.52765	0.02611
4472.59898	0.02616
4470.67030	0.02620
4468.74163	0.02622
4466.81295	0.02626
4464.88427	0.02632
4462.95560	0.02638
4461.02692	0.02643
4459.09825	0.02647
4457.16957	0.02649
4455.24090	0.02652
4453.31222	0.02655
4451.38354	0.02659
4449.45487	0.02662
4447.52619	0.02666
4445.59752	0.02670
4443.66884	0.02675
4441.74017	0.02682
4439.81149	0.02687
4437.88281	0.02690
4435.95414	0.02693
4434.02546	0.02699
4432.09679	0.02707
4430.16811	0.02713
4428.23944	0.02715
4426.31076	0.02718
4424.38208	0.02724
4422.45341	0.02732
4420.52473	0.02739
4418.59606	0.02743
4416.66738	0.02747
4414.73871	0.02749
4412.81003	0.02751
4410.88135	0.02755
4408.95268	0.02762
4407.02400	0.02769
4405.09533	0.02774
4403.16665	0.02777
4401.23798	0.02779
4399.30930	0.02783
4397.38062	0.02789
4395.45195	0.02796
4393.52327	0.02803
4391.59460	0.02808
4389.66592	0.02814
4387.73725	0.02821
4385.80857	0.02826
4383.87989	0.02830
4381.95122	0.02835
4380.02254	0.02839
4378.09387	0.02844
4376.16519	0.02849
4374.23652	0.02853
4372.30784	0.02858
4370.37916	0.02863
4368.45049	0.02866
4366.52181	0.02869
4364.59314	0.02873
4362.66446	0.02878
4360.73579	0.02882
4358.80711	0.02888
4356.87843	0.02896
4354.94976	0.02902
4353.02108	0.02906
4351.09241	0.02909
4349.16373	0.02915
4347.23506	0.02922
4345.30638	0.02927
4343.37770	0.02931
4341.44903	0.02937
4339.52035	0.02943
4337.59168	0.02948
4335.66300	0.02954
4333.73433	0.02959
4331.80565	0.02964
4329.87697	0.02968
4327.94830	0.02973
4326.01962	0.02980
4324.09095	0.02987
4322.16227	0.02993
4320.23360	0.02998
4318.30492	0.03002
4316.37624	0.03007
4314.44757	0.03013
4312.51889	0.03019
4310.59022	0.03025
4308.66154	0.03029
4306.73287	0.03032
4304.80419	0.03036
4302.87551	0.03042
4300.94684	0.03049
4299.01816	0.03055
4297.08949	0.03059
4295.16081	0.03065
4293.23214	0.03070
4291.30346	0.03076
4289.37478	0.03083
4287.44611	0.03090
4285.51743	0.03095
4283.58876	0.03100
4281.66008	0.03105
4279.73141	0.03109
4277.80273	0.03114
4275.87405	0.03123
4273.94538	0.03131
4272.01670	0.03137
4270.08803	0.03142
4268.15935	0.03146
4266.23068	0.03151
4264.30200	0.03155
4262.37332	0.03161
4260.44465	0.03168
4258.51597	0.03175
4256.58730	0.03181
4254.65862	0.03186
4252.72995	0.03190
4250.80127	0.03194
4248.87259	0.03199
4246.94392	0.03206
4245.01524	0.03212
4243.08657	0.03217
4241.15789	0.03224
4239.22922	0.03233
4237.30054	0.03240
4235.37186	0.03246
4233.44319	0.03252
4231.51451	0.03258
4229.58584	0.03265
4227.65716	0.03271
4225.72849	0.03276
4223.79981	0.03281
4221.87113	0.03286
4219.94246	0.03293
4218.01378	0.03299
4216.08511	0.03305
4214.15643	0.03312
4212.22776	0.03319
4210.29908	0.03323
4208.37040	0.03329
4206.44173	0.03336
4204.51305	0.03343
4202.58438	0.03348
4200.65570	0.03355
4198.72703	0.03362
4196.79835	0.03368
4194.86968	0.03371
4192.94100	0.03376
4191.01232	0.03385
4189.08365	0.03394
4187.15497	0.03402
4185.22630	0.03405
4183.29762	0.03409
4181.36895	0.03415
4179.44027	0.03423
4177.51159	0.03429
4175.58292	0.03434
4173.65424	0.03439
4171.72557	0.03447
4169.79689	0.03455
4167.86822	0.03463
4165.93954	0.03471
4164.01086	0.03477
4162.08219	0.03483
4160.15351	0.03489
4158.22484	0.03493
4156.29616	0.03496
4154.36749	0.03501
4152.43881	0.03508
4150.51013	0.03515
4148.58146	0.03523
4146.65278	0.03531
4144.72411	0.03538
4142.79543	0.03544
4140.86676	0.03550
4138.93808	0.03558
4137.00940	0.03565
4135.08073	0.03571
4133.15205	0.03579
4131.22338	0.03586
4129.29470	0.03593
4127.36603	0.03598
4125.43735	0.03605
4123.50867	0.03612
4121.58000	0.03619
4119.65132	0.03626
4117.72265	0.03634
4115.79397	0.03642
4113.86530	0.03650
4111.93662	0.03656
4110.00794	0.03659
4108.07927	0.03663
4106.15059	0.03670
4104.22192	0.03677
4102.29324	0.03684
4100.36457	0.03691
4098.43589	0.03699
4096.50721	0.03709
4094.57854	0.03718
4092.64986	0.03726
4090.72119	0.03734
4088.79251	0.03740
4086.86384	0.03744
4084.93516	0.03750
4083.00648	0.03756
4081.07781	0.03762
4079.14913	0.03768
4077.22046	0.03775
4075.29178	0.03781
4073.36311	0.03789
4071.43443	0.03798
4069.50575	0.03805
4067.57708	0.03812
4065.64840	0.03818
4063.71973	0.03825
4061.79105	0.03832
4059.86238	0.03841
4057.93370	0.03849
4056.00502	0.03857
4054.07635	0.03867
4052.14767	0.03874
4050.21900	0.03879
4048.29032	0.03883
4046.36165	0.03889
4044.43297	0.03897
4042.50429	0.03908
4040.57562	0.03918
4038.64694	0.03925
4036.71827	0.03931
4034.78959	0.03939
4032.86092	0.03946
4030.93224	0.03952
4029.00356	0.03957
4027.07489	0.03963
4025.14621	0.03971
4023.21754	0.03980
4021.28886	0.03988
4019.36019	0.03994
4017.43151	0.04000
4015.50283	0.04007
4013.57416	0.04014
4011.64548	0.04023
4009.71681	0.04032
4007.78813	0.04041
4005.85946	0.04047
4003.93078	0.04053
4002.00210	0.04059
4000.07343	0.04069
3998.14475	0.04081
3996.21608	0.04093
3994.28740	0.04099
3992.35873	0.04104
3990.43005	0.04109
3988.50137	0.04117
3986.57270	0.04126
3984.64402	0.04134
3982.71535	0.04140
3980.78667	0.04147
3978.85800	0.04155
3976.92932	0.04162
3975.00064	0.04169
3973.07197	0.04177
3971.14329	0.04185
3969.21462	0.04192
3967.28594	0.04201
3965.35727	0.04210
3963.42859	0.04217
3961.49991	0.04224
3959.57124	0.04232
3957.64256	0.04241
3955.71389	0.04250
3953.78521	0.04260
3951.85654	0.04268
3949.92786	0.04273
3947.99918	0.04280
3946.07051	0.04289
3944.14183	0.04296
3942.21316	0.04304
3940.28448	0.04315
3938.35581	0.04326
3936.42713	0.04331
3934.49845	0.04330
3932.56978	0.04333
3930.64110	0.04344
3928.71243	0.04356
3926.78375	0.04363
3924.85508	0.04371
3922.92640	0.04383
3920.99772	0.04389
3919.06905	0.04391
3917.14037	0.04398
3915.21170	0.04413
3913.28302	0.04428
3911.35435	0.04438
3909.42567	0.04442
3907.49699	0.04442
3905.56832	0.04440
3903.63964	0.04439
3901.71097	0.04442
3899.78229	0.04454
3897.85362	0.04474
3895.92494	0.04490
3893.99626	0.04494
3892.06759	0.04496
3890.13891	0.04509
3888.21024	0.04525
3886.28156	0.04535
3884.35289	0.04543
3882.42421	0.04547
3880.49553	0.04550
3878.56686	0.04563
3876.63818	0.04579
3874.70951	0.04588
3872.78083	0.04591
3870.85216	0.04591
3868.92348	0.04596
3866.99480	0.04601
3865.06613	0.04607
3863.13745	0.04622
3861.20878	0.04645
3859.28010	0.04658
3857.35143	0.04647
3855.42275	0.04620
3853.49407	0.04616
3851.56540	0.04650
3849.63672	0.04689
3847.70805	0.04712
3845.77937	0.04722
3843.85070	0.04727
3841.92202	0.04730
3839.99334	0.04728
3838.06467	0.04725
3836.13599	0.04732
3834.20732	0.04748
3832.27864	0.04767
3830.34997	0.04784
3828.42129	0.04796
3826.49261	0.04804
3824.56394	0.04809
3822.63526	0.04810
3820.70659	0.04814
3818.77791	0.04821
3816.84924	0.04825
3814.92056	0.04839
3812.99188	0.04864
3811.06321	0.04880
3809.13453	0.04884
3807.20586	0.04891
3805.27718	0.04902
3803.34851	0.04902
3801.41983	0.04900
3799.49115	0.04913
3797.56248	0.04931
3795.63380	0.04947
3793.70513	0.04963
3791.77645	0.04976
3789.84778	0.04985
3787.91910	0.04994
3785.99042	0.05003
3784.06175	0.05010
3782.13307	0.05017
3780.20440	0.05023
3778.27572	0.05035
3776.34705	0.05051
3774.41837	0.05062
3772.48969	0.05067
3770.56102	0.05070
3768.63234	0.05079
3766.70367	0.05090
3764.77499	0.05101
3762.84632	0.05106
3760.91764	0.05104
3758.98896	0.05108
3757.06029	0.05120
3755.13161	0.05122
3753.20294	0.05108
3751.27426	0.05106
3749.34559	0.05124
3747.41691	0.05127
3745.48823	0.05112
3743.55956	0.05127
3741.63088	0.05173
3739.70221	0.05196
3737.77353	0.05189
3735.84486	0.05189
3733.91618	0.05209
3731.98750	0.05234
3730.05883	0.05255
3728.13015	0.05268
3726.20148	0.05276
3724.27280	0.05283
3722.34413	0.05289
3720.41545	0.05301
3718.48677	0.05317
3716.55810	0.05328
3714.62942	0.05333
3712.70075	0.05333
3710.77207	0.05340
3708.84340	0.05356
3706.91472	0.05374
3704.98604	0.05388
3703.05737	0.05397
3701.12869	0.05407
3699.20002	0.05418
3697.27134	0.05426
3695.34267	0.05432
3693.41399	0.05431
3691.48531	0.05424
3689.55664	0.05422
3687.62796	0.05439
3685.69929	0.05468
3683.77061	0.05488
3681.84194	0.05498
3679.91326	0.05500
3677.98458	0.05493
3676.05591	0.05492
3674.12723	0.05506
3672.19856	0.05520
3670.26988	0.05526
3668.34121	0.05543
3666.41253	0.05569
3664.48385	0.05586
3662.55518	0.05596
3660.62650	0.05603
3658.69783	0.05608
3656.76915	0.05610
3654.84048	0.05612
3652.91180	0.05604
3650.98312	0.05586
3649.05445	0.05577
3647.12577	0.05591
3645.19710	0.05623
3643.26842	0.05653
3641.33975	0.05674
3639.41107	0.05687
3637.48239	0.05697
3635.55372	0.05705
3633.62504	0.05711
3631.69637	0.05707
3629.76769	0.05698
3627.83902	0.05704
3625.91034	0.05728
3623.98166	0.05745
3622.05299	0.05746
3620.12431	0.05744
3618.19564	0.05752
3616.26696	0.05765
3614.33829	0.05768
3612.40961	0.05764
3610.48093	0.05764
3608.55226	0.05775
3606.62358	0.05796
3604.69491	0.05815
3602.76623	0.05828
3600.83756	0.05838
3598.90888	0.05846
3596.98020	0.05852
3595.05153	0.05859
3593.12285	0.05869
3591.19418	0.05873
3589.26550	0.05867
3587.33683	0.05865
3585.40815	0.05879
3583.47947	0.05902
3581.55080	0.05918
3579.62212	0.05925
3577.69345	0.05929
3575.76477	0.05936
3573.83610	0.05944
3571.90742	0.05950
3569.97874	0.05947
3568.05007	0.05943
3566.12139	0.05954
3564.19272	0.05973
3562.26404	0.05987
3560.33537	0.05996
3558.40669	0.06004
3556.47801	0.06012
3554.54934	0.06020
3552.62066	0.06026
3550.69199	0.06033
3548.76331	0.06039
3546.83464	0.06044
3544.90596	0.06051
3542.97728	0.06060
3541.04861	0.06070
3539.11993	0.06079
3537.19126	0.06088
3535.26258	0.06095
3533.33391	0.06099
3531.40523	0.06101
3529.47655	0.06103
3527.54788	0.06105
3525.61920	0.06107
3523.69053	0.06111
3521.76185	0.06118
3519.83318	0.06127
3517.90450	0.06136
3515.97582	0.06141
3514.04715	0.06144
3512.11847	0.06147
3510.18980	0.06149
3508.26112	0.06151
3506.33245	0.06154
3504.40377	0.06157
3502.47509	0.06161
3500.54642	0.06163
3498.61774	0.06165
3496.68907	0.06168
3494.76039	0.06172
3492.83172	0.06175
3490.90304	0.06177
3488.97436	0.06178
3487.04569	0.06180
3485.11701	0.06185
3483.18834	0.06191
3481.25966	0.06196
3479.33099	0.06204
3477.40231	0.06214
3475.47363	0.06224
3473.54496	0.06234
3471.61628	0.06242
3469.68761	0.06248
3467.75893	0.06254
3465.83026	0.06264
3463.90158	0.06274
3461.97290	0.06284
3460.04423	0.06294
3458.11555	0.06305
3456.18688	0.06316
3454.25820	0.06328
3452.32953	0.06338
3450.40085	0.06346
3448.47217	0.06352
3446.54350	0.06362
3444.61482	0.06374
3442.68615	0.06385
3440.75747	0.06396
3438.82880	0.06412
3436.90012	0.06430
3434.97144	0.06448
3433.04277	0.06467
3431.11409	0.06486
3429.18542	0.06503
3427.25674	0.06519
3425.32807	0.06536
3423.39939	0.06554
3421.47071	0.06576
3419.54204	0.06600
3417.61336	0.06619
3415.68469	0.06635
3413.75601	0.06649
3411.82734	0.06662
3409.89866	0.06674
3407.96998	0.06688
3406.04131	0.06703
3404.11263	0.06717
3402.18396	0.06730
3400.25528	0.06744
3398.32661	0.06758
3396.39793	0.06770
3394.46925	0.06782
3392.54058	0.06798
3390.61190	0.06813
3388.68323	0.06827
3386.75455	0.06841
3384.82588	0.06854
3382.89720	0.06867
3380.96852	0.06882
3379.03985	0.06898
3377.11117	0.06911
3375.18250	0.06921
3373.25382	0.06930
3371.32515	0.06941
3369.39647	0.06953
3367.46779	0.06968
3365.53912	0.06982
3363.61044	0.06993
3361.68177	0.07004
3359.75309	0.07013
3357.82442	0.07023
3355.89574	0.07037
3353.96706	0.07051
3352.03839	0.07065
3350.10971	0.07078
3348.18104	0.07090
3346.25236	0.07102
3344.32369	0.07114
3342.39501	0.07126
3340.46633	0.07140
3338.53766	0.07153
3336.60898	0.07164
3334.68031	0.07177
3332.75163	0.07193
3330.82296	0.07206
3328.89428	0.07216
3326.96560	0.07227
3325.03693	0.07240
3323.10825	0.07253
3321.17958	0.07265
3319.25090	0.07277
3317.32223	0.07287
3315.39355	0.07298
3313.46487	0.07312
3311.53620	0.07326
3309.60752	0.07339
3307.67885	0.07353
3305.75017	0.07371
3303.82150	0.07387
3301.89282	0.07399
3299.96414	0.07409
3298.03547	0.07420
3296.10679	0.07434
3294.17812	0.07447
3292.24944	0.07461
3290.32077	0.07475
3288.39209	0.07490
3286.46341	0.07505
3284.53474	0.07519
3282.60606	0.07532
3280.67739	0.07544
3278.74871	0.07558
3276.82004	0.07572
3274.89136	0.07585
3272.96268	0.07596
3271.03401	0.07609
3269.10533	0.07624
3267.17666	0.07640
3265.24798	0.07654
3263.31931	0.07666
3261.39063	0.07679
3259.46195	0.07691
3257.53328	0.07701
3255.60460	0.07712
3253.67593	0.07726
3251.74725	0.07742
3249.81858	0.07758
3247.88990	0.07774
3245.96122	0.07789
3244.03255	0.07804
3242.10387	0.07818
3240.17520	0.07830
3238.24652	0.07843
3236.31785	0.07856
3234.38917	0.07870
3232.46049	0.07884
3230.53182	0.07898
3228.60314	0.07912
3226.67447	0.07924
3224.74579	0.07936
3222.81712	0.07949
3220.88844	0.07961
3218.95976	0.07973
3217.03109	0.07985
3215.10241	0.07998
3213.17374	0.08013
3211.24506	0.08029
3209.31639	0.08045
3207.38771	0.08059
3205.45903	0.08074
3203.53036	0.08092
3201.60168	0.08107
3199.67301	0.08119
3197.74433	0.08133
3195.81566	0.08149
3193.88698	0.08165
3191.95830	0.08178
3190.02963	0.08192
3188.10095	0.08207
3186.17228	0.08223
3184.24360	0.08238
3182.31493	0.08251
3180.38625	0.08264
3178.45757	0.08277
3176.52890	0.08291
3174.60022	0.08309
3172.67155	0.08328
3170.74287	0.08342
3168.81420	0.08351
3166.88552	0.08364
3164.95684	0.08381
3163.02817	0.08396
3161.09949	0.08408
3159.17082	0.08421
3157.24214	0.08434
3155.31347	0.08447
3153.38479	0.08461
3151.45611	0.08475
3149.52744	0.08489
3147.59876	0.08504
3145.67009	0.08518
3143.74141	0.08530
3141.81274	0.08543
3139.88406	0.08561
3137.95538	0.08577
3136.02671	0.08589
3134.09803	0.08602
3132.16936	0.08620
3130.24068	0.08638
3128.31201	0.08652
3126.38333	0.08664
3124.45465	0.08672
3122.52598	0.08683
3120.59730	0.08699
3118.66863	0.08716
3116.73995	0.08731
3114.81128	0.08745
3112.88260	0.08760
3110.95392	0.08776
3109.02525	0.08791
3107.09657	0.08804
3105.16790	0.08817
3103.23922	0.08832
3101.31055	0.08848
3099.38187	0.08862
3097.45319	0.08874
3095.52452	0.08887
3093.59584	0.08901
3091.66717	0.08915
3089.73849	0.08928
3087.80982	0.08939
3085.88114	0.08952
3083.95246	0.08968
3082.02379	0.08985
3080.09511	0.09001
3078.16644	0.09018
3076.23776	0.09032
3074.30909	0.09042
3072.38041	0.09053
3070.45173	0.09068
3068.52306	0.09083
3066.59438	0.09098
3064.66571	0.09111
3062.73703	0.09124
3060.80836	0.09137
3058.87968	0.09152
3056.95100	0.09168
3055.02233	0.09183
3053.09365	0.09200
3051.16498	0.09216
3049.23630	0.09231
3047.30763	0.09246
3045.37895	0.09259
3043.45027	0.09271
3041.52160	0.09283
3039.59292	0.09295
3037.66425	0.09308
3035.73557	0.09323
3033.80690	0.09337
3031.87822	0.09348
3029.94954	0.09362
3028.02087	0.09378
3026.09219	0.09393
3024.16352	0.09407
3022.23484	0.09421
3020.30617	0.09437
3018.37749	0.09452
3016.44881	0.09467
3014.52014	0.09480
3012.59146	0.09492
3010.66279	0.09507
3008.73411	0.09523
3006.80544	0.09538
3004.87676	0.09551
3002.94808	0.09561
3001.01941	0.09571
2999.09073	0.09582
2997.16206	0.09596
2995.23338	0.09610
2993.30471	0.09625
2991.37603	0.09642
2989.44735	0.09658
2987.51868	0.09668
2985.59000	0.09675
2983.66133	0.09682
2981.73265	0.09690
2979.80398	0.09698
2977.87530	0.09707
2975.94662	0.09714
2974.01795	0.09717
2972.08927	0.09716
2970.16060	0.09713
2968.23192	0.09709
2966.30325	0.09705
2964.37457	0.09707
2962.44589	0.09712
2960.51722	0.09722
2958.58854	0.09740
2956.65987	0.09762
2954.73119	0.09782
2952.80252	0.09801
2950.87384	0.09823
2948.94516	0.09842
2947.01649	0.09855
2945.08781	0.09862
2943.15914	0.09867
2941.23046	0.09868
2939.30179	0.09869
2937.37311	0.09869
2935.44443	0.09868
2933.51576	0.09862
2931.58708	0.09854
2929.65841	0.09849
2927.72973	0.09847
2925.80106	0.09847
2923.87238	0.09848
2921.94370	0.09851
2920.01503	0.09858
2918.08635	0.09873
2916.15768	0.09903
2914.22900	0.09947
2912.30033	0.09995
2910.37165	0.10040
2908.44297	0.10076
2906.51430	0.10103
2904.58562	0.10129
2902.65695	0.10155
2900.72827	0.10179
2898.79960	0.10201
2896.87092	0.10221
2894.94224	0.10240
2893.01357	0.10260
2891.08489	0.10282
2889.15622	0.10303
2887.22754	0.10319
2885.29887	0.10333
2883.37019	0.10349
2881.44151	0.10365
2879.51284	0.10380
2877.58416	0.10393
2875.65549	0.10407
2873.72681	0.10422
2871.79814	0.10439
2869.86946	0.10454
2867.94078	0.10464
2866.01211	0.10474
2864.08343	0.10483
2862.15476	0.10488
2860.22608	0.10491
2858.29741	0.10493
2856.36873	0.10492
2854.44005	0.10487
2852.51138	0.10484
2850.58270	0.10494
2848.65403	0.10523
2846.72535	0.10567
2844.79668	0.10617
2842.86800	0.10664
2840.93932	0.10700
2839.01065	0.10727
2837.08197	0.10751
2835.15330	0.10771
2833.22462	0.10791
2831.29595	0.10812
2829.36727	0.10833
2827.43859	0.10852
2825.50992	0.10869
2823.58124	0.10886
2821.65257	0.10901
2819.72389	0.10913
2817.79522	0.10925
2815.86654	0.10940
2813.93786	0.10956
2812.00919	0.10972
2810.08051	0.10987
2808.15184	0.11001
2806.22316	0.11017
2804.29449	0.11036
2802.36581	0.11054
2800.43713	0.11070
2798.50846	0.11085
2796.57978	0.11102
2794.65111	0.11121
2792.72243	0.11139
2790.79376	0.11154
2788.86508	0.11169
2786.93640	0.11185
2785.00773	0.11202
2783.07905	0.11218
2781.15038	0.11234
2779.22170	0.11246
2777.29303	0.11258
2775.36435	0.11271
2773.43567	0.11286
2771.50700	0.11301
2769.57832	0.11319
2767.64965	0.11338
2765.72097	0.11356
2763.79230	0.11371
2761.86362	0.11386
2759.93494	0.11402
2758.00627	0.11416
2756.07759	0.11428
2754.14892	0.11441
2752.22024	0.11457
2750.29157	0.11473
2748.36289	0.11489
2746.43421	0.11506
2744.50554	0.11520
2742.57686	0.11533
2740.64819	0.11547
2738.71951	0.11565
2736.79084	0.11584
2734.86216	0.11601
2732.93348	0.11613
2731.00481	0.11624
2729.07613	0.11636
2727.14746	0.11646
2725.21878	0.11658
2723.29011	0.11674
2721.36143	0.11692
2719.43275	0.11709
2717.50408	0.11725
2715.57540	0.11742
2713.64673	0.11758
2711.71805	0.11774
2709.78938	0.11787
2707.86070	0.11798
2705.93202	0.11811
2704.00335	0.11826
2702.07467	0.11842
2700.14600	0.11857
2698.21732	0.11871
2696.28865	0.11884
2694.35997	0.11896
2692.43129	0.11910
2690.50262	0.11926
2688.57394	0.11943
2686.64527	0.11960
2684.71659	0.11974
2682.78792	0.11987
2680.85924	0.12000
2678.93056	0.12013
2677.00189	0.12025
2675.07321	0.12038
2673.14454	0.12051
2671.21586	0.12066
2669.28719	0.12084
2667.35851	0.12102
2665.42983	0.12120
2663.50116	0.12137
2661.57248	0.12151
2659.64381	0.12162
2657.71513	0.12175
2655.78646	0.12190
2653.85778	0.12206
2651.92910	0.12222
2650.00043	0.12238
2648.07175	0.12253
2646.14308	0.12267
2644.21440	0.12279
2642.28573	0.12294
2640.35705	0.12313
2638.42837	0.12333
2636.49970	0.12351
2634.57102	0.12365
2632.64235	0.12376
2630.71367	0.12389
2628.78500	0.12406
2626.85632	0.12426
2624.92764	0.12444
2622.99897	0.12457
2621.07029	0.12469
2619.14162	0.12484
2617.21294	0.12502
2615.28427	0.12521
2613.35559	0.12539
2611.42691	0.12553
2609.49824	0.12570
2607.56956	0.12590
2605.64089	0.12607
2603.71221	0.12619
2601.78354	0.12629
2599.85486	0.12645
2597.92618	0.12665
2595.99751	0.12682
2594.06883	0.12697
2592.14016	0.12712
2590.21148	0.12725
2588.28281	0.12738
2586.35413	0.12755
2584.42545	0.12773
2582.49678	0.12790
2580.56810	0.12808
2578.63943	0.12824
2576.71075	0.12841
2574.78208	0.12860
2572.85340	0.12876
2570.92472	0.12888
2568.99605	0.12899
2567.06737	0.12914
2565.13870	0.12929
2563.21002	0.12944
2561.28135	0.12959
2559.35267	0.12974
2557.42399	0.12988
2555.49532	0.13002
2553.56664	0.13013
2551.63797	0.13024
2549.70929	0.13039
2547.78062	0.13059
2545.85194	0.13079
2543.92326	0.13097
2541.99459	0.13109
2540.06591	0.13120
2538.13724	0.13133
2536.20856	0.13149
2534.27989	0.13165
2532.35121	0.13180
2530.42253	0.13195
2528.49386	0.13212
2526.56518	0.13228
2524.63651	0.13245
2522.70783	0.13261
2520.77916	0.13274
2518.85048	0.13288
2516.92181	0.13304
2514.99313	0.13322
2513.06445	0.13342
2511.13578	0.13359
2509.20710	0.13375
2507.27843	0.13392
2505.34975	0.13409
2503.42108	0.13427
2501.49240	0.13447
2499.56372	0.13466
2497.63505	0.13481
2495.70637	0.13492
2493.77770	0.13505
2491.84902	0.13522
2489.92035	0.13543
2487.99167	0.13565
2486.06299	0.13584
2484.13432	0.13599
2482.20564	0.13615
2480.27697	0.13631
2478.34829	0.13645
2476.41962	0.13662
2474.49094	0.13681
2472.56226	0.13697
2470.63359	0.13714
2468.70491	0.13734
2466.77624	0.13749
2464.84756	0.13761
2462.91889	0.13774
2460.99021	0.13790
2459.06153	0.13806
2457.13286	0.13822
2455.20418	0.13841
2453.27551	0.13862
2451.34683	0.13879
2449.41816	0.13895
2447.48948	0.13910
2445.56080	0.13926
2443.63213	0.13940
2441.70345	0.13953
2439.77478	0.13968
2437.84610	0.13989
2435.91743	0.14009
2433.98875	0.14028
2432.06007	0.14045
2430.13140	0.14062
2428.20272	0.14079
2426.27405	0.14094
2424.34537	0.14106
2422.41670	0.14119
2420.48802	0.14137
2418.55934	0.14154
2416.63067	0.14170
2414.70199	0.14185
2412.77332	0.14201
2410.84464	0.14217
2408.91597	0.14233
2406.98729	0.14250
2405.05861	0.14266
2403.12994	0.14280
2401.20126	0.14293
2399.27259	0.14310
2397.34391	0.14328
2395.41524	0.14345
2393.48656	0.14362
2391.55788	0.14381
2389.62921	0.14398
2387.70053	0.14413
2385.77186	0.14425
2383.84318	0.14437
2381.91451	0.14451
2379.98583	0.14461
2378.05715	0.14466
2376.12848	0.14468
2374.19980	0.14472
2372.27113	0.14476
2370.34245	0.14479
2368.41378	0.14482
2366.48510	0.14487
2364.55642	0.14495
2362.62775	0.14508
2360.69907	0.14525
2358.77040	0.14548
2356.84172	0.14578
2354.91305	0.14609
2352.98437	0.14638
2351.05569	0.14670
2349.12702	0.14695
2347.19834	0.14704
2345.26967	0.14705
2343.34099	0.14710
2341.41232	0.14720
2339.48364	0.14734
2337.55496	0.14749
2335.62629	0.14766
2333.69761	0.14786
2331.76894	0.14804
2329.84026	0.14821
2327.91159	0.14840
2325.98291	0.14862
2324.05423	0.14885
2322.12556	0.14909
2320.19688	0.14931
2318.26821	0.14950
2316.33953	0.14969
2314.41086	0.14989
2312.48218	0.15008
2310.55350	0.15027
2308.62483	0.15049
2306.69615	0.15075
2304.76748	0.15095
2302.83880	0.15112
2300.91013	0.15131
2298.98145	0.15152
2297.05277	0.15168
2295.12410	0.15181
2293.19542	0.15198
2291.26675	0.15218
2289.33807	0.15237
2287.40940	0.15253
2285.48072	0.15267
2283.55204	0.15281
2281.62337	0.15296
2279.69469	0.15313
2277.76602	0.15329
2275.83734	0.15343
2273.90867	0.15361
2271.97999	0.15381
2270.05131	0.15397
2268.12264	0.15411
2266.19396	0.15427
2264.26529	0.15442
2262.33661	0.15458
2260.40794	0.15477
2258.47926	0.15493
2256.55058	0.15507
2254.62191	0.15524
2252.69323	0.15547
2250.76456	0.15568
2248.83588	0.15586
2246.90721	0.15600
2244.97853	0.15613
2243.04985	0.15627
2241.12118	0.15643
2239.19250	0.15660
2237.26383	0.15676
2235.33515	0.15691
2233.40648	0.15707
2231.47780	0.15722
2229.54912	0.15737
2227.62045	0.15752
2225.69177	0.15767
2223.76310	0.15784
2221.83442	0.15803
2219.90575	0.15821
2217.97707	0.15838
2216.04839	0.15855
2214.11972	0.15873
2212.19104	0.15888
2210.26237	0.15899
2208.33369	0.15912
2206.40502	0.15928
2204.47634	0.15945
2202.54766	0.15961
2200.61899	0.15977
2198.69031	0.15989
2196.76164	0.16003
2194.83296	0.16018
2192.90429	0.16033
2190.97561	0.16050
2189.04693	0.16066
2187.11826	0.16081
2185.18958	0.16099
2183.26091	0.16120
2181.33223	0.16141
2179.40356	0.16158
2177.47488	0.16173
2175.54620	0.16188
2173.61753	0.16202
2171.68885	0.16219
2169.76018	0.16237
2167.83150	0.16253
2165.90283	0.16268
2163.97415	0.16282
2162.04547	0.16298
2160.11680	0.16314
2158.18812	0.16331
2156.25945	0.16350
2154.33077	0.16369
2152.40210	0.16385
2150.47342	0.16399
2148.54474	0.16413
2146.61607	0.16428
2144.68739	0.16443
2142.75872	0.16460
2140.83004	0.16479
2138.90137	0.16496
2136.97269	0.16510
2135.04401	0.16526
2133.11534	0.16544
2131.18666	0.16559
2129.25799	0.16572
2127.32931	0.16586
2125.40064	0.16606
2123.47196	0.16628
2121.54328	0.16648
2119.61461	0.16664
2117.68593	0.16679
2115.75726	0.16694
2113.82858	0.16710
2111.89991	0.16725
2109.97123	0.16741
2108.04255	0.16757
2106.11388	0.16772
2104.18520	0.16789
2102.25653	0.16810
2100.32785	0.16830
2098.39918	0.16844
2096.47050	0.16857
2094.54182	0.16876
2092.61315	0.16896
2090.68447	0.16907
2088.75580	0.16918
2086.82712	0.16938
2084.89845	0.16960
2082.96977	0.16976
2081.04109	0.16990
2079.11242	0.17005
2077.18374	0.17018
2075.25507	0.17033
2073.32639	0.17052
2071.39772	0.17071
2069.46904	0.17087
2067.54036	0.17104
2065.61169	0.17122
2063.68301	0.17140
2061.75434	0.17155
2059.82566	0.17168
2057.89699	0.17182
2055.96831	0.17196
2054.03963	0.17212
2052.11096	0.17232
2050.18228	0.17250
2048.25361	0.17264
2046.32493	0.17279
2044.39626	0.17293
2042.46758	0.17307
2040.53890	0.17324
2038.61023	0.17343
2036.68155	0.17362
2034.75288	0.17384
2032.82420	0.17405
2030.89553	0.17422
2028.96685	0.17435
2027.03817	0.17449
2025.10950	0.17467
2023.18082	0.17484
2021.25215	0.17498
2019.32347	0.17511
2017.39480	0.17526
2015.46612	0.17541
2013.53744	0.17556
2011.60877	0.17573
2009.68009	0.17593
2007.75142	0.17614
2005.82274	0.17632
2003.89407	0.17646
2001.96539	0.17661
2000.03671	0.17676
1998.10804	0.17693
1996.17936	0.17711
1994.25069	0.17724
1992.32201	0.17738
1990.39334	0.17756
1988.46466	0.17776
1986.53598	0.17793
1984.60731	0.17809
1982.67863	0.17822
1980.74996	0.17834
1978.82128	0.17847
1976.89261	0.17859
1974.96393	0.17871
1973.03525	0.17883
1971.10658	0.17896
1969.17790	0.17909
1967.24923	0.17921
1965.32055	0.17937
1963.39188	0.17957
1961.46320	0.17976
1959.53452	0.17990
1957.60585	0.18005
1955.67717	0.18022
1953.74850	0.18039
1951.81982	0.18052
1949.89115	0.18066
1947.96247	0.18080
1946.03379	0.18091
1944.10512	0.18098
1942.17644	0.18113
1940.24777	0.18138
1938.31909	0.18166
1936.39042	0.18190
1934.46174	0.18207
1932.53306	0.18221
1930.60439	0.18234
1928.67571	0.18247
1926.74704	0.18261
1924.81836	0.18270
1922.88969	0.18278
1920.96101	0.18290
1919.03233	0.18297
1917.10366	0.18313
1915.17498	0.18343
1913.24631	0.18368
1911.31763	0.18383
1909.38896	0.18398
1907.46028	0.18416
1905.53160	0.18435
1903.60293	0.18453
1901.67425	0.18472
1899.74558	0.18487
1897.81690	0.18494
1895.88823	0.18502
1893.95955	0.18520
1892.03087	0.18536
1890.10220	0.18546
1888.17352	0.18560
1886.24485	0.18579
1884.31617	0.18600
1882.38750	0.18622
1880.45882	0.18641
1878.53014	0.18658
1876.60147	0.18674
1874.67279	0.18685
1872.74412	0.18686
1870.81544	0.18673
1868.88677	0.18672
1866.95809	0.18707
1865.02941	0.18752
1863.10074	0.18777
1861.17206	0.18792
1859.24339	0.18808
1857.31471	0.18828
1855.38604	0.18851
1853.45736	0.18870
1851.52868	0.18884
1849.60001	0.18894
1847.67133	0.18900
1845.74266	0.18903
1843.81398	0.18915
1841.88531	0.18944
1839.95663	0.18975
1838.02795	0.18995
1836.09928	0.19012
1834.17060	0.19026
1832.24193	0.19030
1830.31325	0.19035
1828.38458	0.19053
1826.45590	0.19073
1824.52722	0.19091
1822.59855	0.19116
1820.66987	0.19140
1818.74120	0.19154
1816.81252	0.19163
1814.88385	0.19173
1812.95517	0.19187
1811.02649	0.19204
1809.09782	0.19220
1807.16914	0.19234
1805.24047	0.19245
1803.31179	0.19248
1801.38312	0.19247
1799.45444	0.19260
1797.52576	0.19282
1795.59709	0.19285
1793.66841	0.19267
1791.73974	0.19279
1789.81106	0.19328
1787.88239	0.19358
1785.95371	0.19356
1784.02503	0.19360
1782.09636	0.19374
1780.16768	0.19391
1778.23901	0.19414
1776.31033	0.19429
1774.38166	0.19425
1772.45298	0.19422
1770.52430	0.19436
1768.59563	0.19458
1766.66695	0.19484
1764.73828	0.19499
1762.80960	0.19494
1760.88093	0.19496
1758.95225	0.19511
1757.02357	0.19523
1755.09490	0.19520
1753.16622	0.19482
1751.23755	0.19442
1749.30887	0.19452
1747.38020	0.19483
1745.45152	0.19494
1743.52284	0.19486
1741.59417	0.19475
1739.66549	0.19482
1737.73682	0.19502
1735.80814	0.19498
1733.87947	0.19488
1731.95079	0.19516
1730.02211	0.19564
1728.09344	0.19603
1726.16476	0.19626
1724.23609	0.19637
1722.30741	0.19640
1720.37874	0.19623
1718.45006	0.19596
1716.52138	0.19600
1714.59271	0.19643
1712.66403	0.19692
1710.73536	0.19723
1708.80668	0.19729
1706.87801	0.19722
1704.94933	0.19715
1703.02065	0.19691
1701.09198	0.19660
1699.16330	0.19671
1697.23463	0.19712
1695.30595	0.19747
1693.37728	0.19774
1691.44860	0.19779
1689.51992	0.19772
1687.59125	0.19767
1685.66257	0.19747
1683.73390	0.19738
1681.80522	0.19765
1679.87655	0.19798
1677.94787	0.19791
1676.01919	0.19764
1674.09052	0.19764
1672.16184	0.19782
1670.23317	0.19795
1668.30449	0.19818
1666.37582	0.19843
1664.44714	0.19842
1662.51846	0.19840
1660.58979	0.19863
1658.66111	0.19884
1656.73244	0.19861
1654.80376	0.19794
1652.87509	0.19757
1650.94641	0.19787
1649.01773	0.19815
1647.08906	0.19827
1645.16038	0.19868
1643.23171	0.19917
1641.30303	0.19936
1639.37436	0.19922
1637.44568	0.19893
1635.51700	0.19890
1633.58833	0.19925
1631.65965	0.19956
1629.73098	0.19960
1627.80230	0.19951
1625.87363	0.19935
1623.94495	0.19902
1622.01627	0.19871
1620.08760	0.19855
1618.15892	0.19859
1616.23025	0.19905
1614.30157	0.19989
1612.37290	0.20054
1610.44422	0.20083
1608.51554	0.20108
1606.58687	0.20140
1604.65819	0.20167
1602.72952	0.20186
1600.80084	0.20205
1598.87217	0.20224
1596.94349	0.20235
1595.01481	0.20244
1593.08614	0.20262
1591.15746	0.20288
1589.22879	0.20315
1587.30011	0.20336
1585.37144	0.20345
1583.44276	0.20353
1581.51408	0.20364
1579.58541	0.20359
1577.65673	0.20337
1575.72806	0.20338
1573.79938	0.20376
1571.87071	0.20404
1569.94203	0.20412
1568.01335	0.20427
1566.08468	0.20445
1564.15600	0.20445
1562.22733	0.20400
1560.29865	0.20338
1558.36998	0.20353
1556.44130	0.20442
1554.51262	0.20515
1552.58395	0.20542
1550.65527	0.20552
1548.72660	0.20553
1546.79792	0.20531
1544.86925	0.20496
1542.94057	0.20477
1541.01189	0.20486
1539.08322	0.20529
1537.15454	0.20570
1535.22587	0.20564
1533.29719	0.20557
1531.36852	0.20599
1529.43984	0.20635
1527.51116	0.20625
1525.58249	0.20597
1523.65381	0.20571
1521.72514	0.20563
1519.79646	0.20590
1517.86779	0.20622
1515.93911	0.20642
1514.01043	0.20662
1512.08176	0.20668
1510.15308	0.20628
1508.22441	0.20565
1506.29573	0.20572
1504.36706	0.20664
1502.43838	0.20727
1500.50970	0.20712
1498.58103	0.20680
1496.65235	0.20687
1494.72368	0.20713
1492.79500	0.20713
1490.86633	0.20683
1488.93765	0.20662
1487.00897	0.20669
1485.08030	0.20691
1483.15162	0.20698
1481.22295	0.20683
1479.29427	0.20644
1477.36560	0.20580
1475.43692	0.20515
1473.50824	0.20472
1471.57957	0.20464
1469.65089	0.20476
1467.72222	0.20454
1465.79354	0.20401
1463.86487	0.20381
1461.93619	0.20386
1460.00751	0.20335
1458.07884	0.20241
1456.15016	0.20223
1454.22149	0.20291
1452.29281	0.20347
1450.36414	0.20362
1448.43546	0.20366
1446.50678	0.20374
1444.57811	0.20386
1442.64943	0.20400
1440.72076	0.20409
1438.79208	0.20397
1436.86341	0.20387
1434.93473	0.20410
1433.00605	0.20440
1431.07738	0.20451
1429.14870	0.20468
1427.22003	0.20489
1425.29135	0.20492
1423.36268	0.20474
1421.43400	0.20427
1419.50532	0.20388
1417.57665	0.20422
1415.64797	0.20490
1413.71930	0.20519
1411.79062	0.20519
1409.86195	0.20521
1407.93327	0.20521
1406.00459	0.20513
1404.07592	0.20506
1402.14724	0.20497
1400.21857	0.20477
1398.28989	0.20460
1396.36122	0.20458
1394.43254	0.20468
1392.50386	0.20477
1390.57519	0.20462
1388.64651	0.20426
1386.71784	0.20395
1384.78916	0.20385
1382.86049	0.20389
1380.93181	0.20397
1379.00313	0.20400
1377.07446	0.20394
1375.14578	0.20379
1373.21711	0.20369
1371.28843	0.20370
1369.35976	0.20375
1367.43108	0.20377
1365.50240	0.20370
1363.57373	0.20354
1361.64505	0.20352
1359.71638	0.20371
1357.78770	0.20388
1355.85903	0.20392
1353.93035	0.20394
1352.00167	0.20400
1350.07300	0.20413
1348.14432	0.20429
1346.21565	0.20440
1344.28697	0.20438
1342.35830	0.20422
1340.42962	0.20400
1338.50094	0.20388
1336.57227	0.20393
1334.64359	0.20399
1332.71492	0.20398
1330.78624	0.20395
1328.85757	0.20384
1326.92889	0.20360
1325.00021	0.20334
1323.07154	0.20313
1321.14286	0.20297
1319.21419	0.20281
1317.28551	0.20261
1315.35684	0.20236
1313.42816	0.20214
1311.49948	0.20196
1309.57081	0.20181
1307.64213	0.20169
1305.71346	0.20154
1303.78478	0.20133
1301.85611	0.20111
1299.92743	0.20085
1297.99875	0.20057
1296.07008	0.20034
1294.14140	0.20016
1292.21273	0.19998
1290.28405	0.19980
1288.35538	0.19958
1286.42670	0.19931
1284.49802	0.19906
1282.56935	0.19885
1280.64067	0.19863
1278.71200	0.19838
1276.78332	0.19806
1274.85465	0.19766
1272.92597	0.19717
1270.99729	0.19654
1269.06862	0.19574
1267.13994	0.19485
1265.21127	0.19402
1263.28259	0.19341
1261.35392	0.19315
1259.42524	0.19320
1257.49656	0.19339
1255.56789	0.19357
1253.63921	0.19361
1251.71054	0.19345
1249.78186	0.19317
1247.85319	0.19282
1245.92451	0.19243
1243.99583	0.19205
1242.06716	0.19171
1240.13848	0.19132
1238.20981	0.19081
1236.28113	0.19020
1234.35246	0.18959
1232.42378	0.18903
1230.49510	0.18850
1228.56643	0.18797
1226.63775	0.18744
1224.70908	0.18693
1222.78040	0.18643
1220.85173	0.18598
1218.92305	0.18556
1216.99437	0.18509
1215.06570	0.18454
1213.13702	0.18396
1211.20835	0.18336
1209.27967	0.18276
1207.35100	0.18215
1205.42232	0.18156
1203.49364	0.18099
1201.56497	0.18042
1199.63629	0.17983
1197.70762	0.17923
1195.77894	0.17867
1193.85027	0.17808
1191.92159	0.17740
1189.99291	0.17665
1188.06424	0.17591
1186.13556	0.17517
1184.20689	0.17438
1182.27821	0.17352
1180.34954	0.17267
1178.42086	0.17186
1176.49218	0.17107
1174.56351	0.17029
1172.63483	0.16947
1170.70616	0.16861
1168.77748	0.16776
1166.84881	0.16690
1164.92013	0.16597
1162.99145	0.16504
1161.06278	0.16421
1159.13410	0.16347
1157.20543	0.16269
1155.27675	0.16185
1153.34808	0.16106
1151.41940	0.16032
1149.49072	0.15954
1147.56205	0.15868
1145.63337	0.15778
1143.70470	0.15687
1141.77602	0.15598
1139.84735	0.15504
1137.91867	0.15397
1135.98999	0.15274
1134.06132	0.15137
1132.13264	0.14979
1130.20397	0.14796
1128.27529	0.14593
1126.34662	0.14372
1124.41794	0.14134
1122.48926	0.13893
1120.56059	0.13662
1118.63191	0.13444
1116.70324	0.13236
1114.77456	0.13046
1112.84589	0.12882
1110.91721	0.12748
1108.98853	0.12641
1107.05986	0.12565
1105.13118	0.12520
1103.20251	0.12506
1101.27383	0.12521
1099.34516	0.12559
1097.41648	0.12616
1095.48780	0.12687
1093.55913	0.12770
1091.63045	0.12858
1089.70178	0.12941
1087.77310	0.13013
1085.84443	0.13076
1083.91575	0.13127
1081.98707	0.13166
1080.05840	0.13193
1078.12972	0.13213
1076.20105	0.13230
1074.27237	0.13245
1072.34370	0.13257
1070.41502	0.13266
1068.48634	0.13281
1066.55767	0.13300
1064.62899	0.13314
1062.70032	0.13325
1060.77164	0.13343
1058.84297	0.13369
1056.91429	0.13399
1054.98561	0.13430
1053.05694	0.13462
1051.12826	0.13497
1049.19959	0.13533
1047.27091	0.13573
1045.34224	0.13612
1043.41356	0.13652
1041.48488	0.13697
1039.55621	0.13736
1037.62753	0.13769
1035.69886	0.13804
1033.77018	0.13837
1031.84151	0.13869
1029.91283	0.13903
1027.98415	0.13945
1026.05548	0.13988
1024.12680	0.14023
1022.19813	0.14054
1020.26945	0.14088
1018.34078	0.14129
1016.41210	0.14178
1014.48342	0.14232
1012.55475	0.14283
1010.62607	0.14330
1008.69740	0.14386
1006.76872	0.14453
1004.84005	0.14518
1002.91137	0.14566
1000.98269	0.14598
999.05402	0.14623
997.12534	0.14640
995.19667	0.14651
993.26799	0.14659
991.33932	0.14666
989.41064	0.14676
987.48196	0.14686
985.55329	0.14688
983.62461	0.14681
981.69594	0.14673
979.76726	0.14661
977.83859	0.14645
975.90991	0.14629
973.98123	0.14616
972.05256	0.14602
970.12388	0.14583
968.19521	0.14562
966.26653	0.14543
964.33786	0.14523
962.40918	0.14503
960.48050	0.14491
958.55183	0.14481
956.62315	0.14463
954.69448	0.14442
952.76580	0.14426
950.83713	0.14412
948.90845	0.14396
946.97977	0.14374
945.05110	0.14349
943.12242	0.14325
941.19375	0.14297
939.26507	0.14256
937.33640	0.14207
935.40772	0.14161
933.47904	0.14116
931.55037	0.14067
929.62169	0.14018
927.69302	0.13968
925.76434	0.13916
923.83567	0.13858
921.90699	0.13795
919.97831	0.13734
918.04964	0.13672
916.12096	0.13603
914.19229	0.13526
912.26361	0.13444
910.33494	0.13365
908.40626	0.13299
906.47758	0.13241
904.54891	0.13178
902.62023	0.13110
900.69156	0.13050
898.76288	0.12997
896.83421	0.12944
894.90553	0.12886
892.97685	0.12829
891.04818	0.12780
889.11950	0.12741
887.19083	0.12705
885.26215	0.12661
883.33348	0.12615
881.40480	0.12577
879.47612	0.12548
877.54745	0.12525
875.61877	0.12503
873.69010	0.12480
871.76142	0.12459
869.83275	0.12437
867.90407	0.12416
865.97539	0.12397
864.04672	0.12377
862.11804	0.12360
860.18937	0.12350
858.26069	0.12336
856.33202	0.12317
854.40334	0.12300
852.47466	0.12280
850.54599	0.12253
848.61731	0.12221
846.68864	0.12195
844.75996	0.12175
842.83129	0.12150
840.90261	0.12117
838.97394	0.12078
837.04526	0.12028
835.11658	0.11963
833.18791	0.11887
831.25923	0.11805
829.33056	0.11712
827.40188	0.11604
825.47321	0.11495
823.54453	0.11394
821.61585	0.11304
819.68718	0.11232
817.75850	0.11185
815.82983	0.11157
813.90115	0.11128
811.97248	0.11090
810.04380	0.11054
808.11512	0.11033
806.18645	0.11027
804.25777	0.11024
802.32910	0.11016
800.40042	0.10994
798.47175	0.10949
796.54307	0.10888
794.61439	0.10828
792.68572	0.10773
790.75704	0.10731
788.82837	0.10708
786.89969	0.10700
784.97102	0.10687
783.04234	0.10661
781.11366	0.10627
779.18499	0.10593
777.25631	0.10565
775.32764	0.10541
773.39896	0.10515
771.47029	0.10479
769.54161	0.10435
767.61293	0.10390
765.68426	0.10346
763.75558	0.10304
761.82691	0.10261
759.89823	0.10217
757.96956	0.10164
756.04088	0.10104
754.11220	0.10044
752.18353	0.09987
750.25485	0.09922
748.32618	0.09845
746.39750	0.09760
744.46883	0.09670
742.54015	0.09580
740.61147	0.09503
738.68280	0.09452
736.75412	0.09425
734.82545	0.09405
732.89677	0.09393
730.96810	0.09397
729.03942	0.09417
727.11074	0.09440
725.18207	0.09452
723.25339	0.09459
721.32472	0.09474
719.39604	0.09499
717.46737	0.09530
715.53869	0.09566
713.61001	0.09608
711.68134	0.09651
709.75266	0.09683
707.82399	0.09687
705.89531	0.09667
703.96664	0.09642
702.03796	0.09609
700.10928	0.09566
698.18061	0.09518
696.25193	0.09465
694.32326	0.09408
692.39458	0.09354
690.46591	0.09304
688.53723	0.09253
686.60855	0.09199
684.67988	0.09146
682.75120	0.09095
680.82253	0.09043
678.89385	0.08991
676.96518	0.08936
675.03650	0.08872
673.10782	0.08802
671.17915	0.08729
669.25047	0.08641
667.32180	0.08545
665.39312	0.08461
663.46445	0.08382
661.53577	0.08297
659.60709	0.08209
657.67842	0.08127
655.74974	0.08047
653.82107	0.07969
651.89239	0.07899
649.96372	0.07829
648.03504	0.07749
646.10636	0.07653
644.17769	0.07549
642.24901	0.07444
640.32034	0.07337
638.39166	0.07229
636.46299	0.07120
634.53431	0.07009
632.60563	0.06873
630.67696	0.06649
628.74828	0.06297
626.81961	0.05846
624.89093	0.05392
622.96226	0.05042
621.03358	0.04823
619.10490	0.04693
617.17623	0.04602
615.24755	0.04507
613.31888	0.04402
611.39020	0.04303
609.46153	0.04246
607.53285	0.04254
605.60417	0.04302
603.67550	0.04367
601.74682	0.04445
599.81815	0.04530
597.88947	0.04612
595.96080	0.04679
594.03212	0.04726
592.10344	0.04754
590.17477	0.04763
588.24609	0.04757
586.31742	0.04749
584.38874	0.04741
582.46007	0.04717
580.53139	0.04676
578.60271	0.04625
576.67404	0.04569
574.74536	0.04506
572.81669	0.04437
570.88801	0.04366
568.95934	0.04307
567.03066	0.04265
565.10198	0.04237
563.17331	0.04220
561.24463	0.04205
559.31596	0.04185
557.38728	0.04156
555.45861	0.04120
553.52993	0.04089
551.60125	0.04069
549.67258	0.04052
547.74390	0.04028
545.81523	0.04013
543.88655	0.04009
541.95788	0.04006
540.02920	0.03994
538.10052	0.03973
536.17185	0.03951
534.24317	0.03933
532.31450	0.03908
530.38582	0.03873
528.45715	0.03838
526.52847	0.03803
524.59979	0.03766
522.67112	0.03724
520.74244	0.03677
518.81377	0.03619
516.88509	0.03558
514.95642	0.03509
513.02774	0.03475
511.09906	0.03449
509.17039	0.03432
507.24171	0.03414
505.31304	0.03384
503.38436	0.03345
501.45569	0.03305
499.52701	0.03264
497.59833	0.03223
495.66966	0.03183
493.74098	0.03134
491.81231	0.03069
489.88363	0.02997
487.95496	0.02929
486.02628	0.02871
484.09760	0.02820
482.16893	0.02768
480.24025	0.02719
478.31158	0.02673
476.38290	0.02620
474.45423	0.02556
472.52555	0.02492
470.59687	0.02439
468.66820	0.02399
466.73952	0.02373
464.81085	0.02353
462.88217	0.02326
460.95350	0.02303
459.02482	0.02297
457.09614	0.02301
455.16747	0.02302
453.23879	0.02293
451.31012	0.02279
449.38144	0.02267
447.45277	0.02258
445.52409	0.02251
443.59541	0.02240
441.66674	0.02214
439.73806	0.02171
437.80939	0.02119
435.88071	0.02068
433.95204	0.02022
432.02336	0.01980
430.09468	0.01935
428.16601	0.01875
426.23733	0.01798
424.30866	0.01711
422.37998	0.01624
420.45131	0.01552
418.52263	0.01494
416.59395	0.01439
414.66528	0.01386
412.73660	0.01330
410.80793	0.01263
408.87925	0.01194
406.95058	0.01133
405.02190	0.01076
403.09322	0.01016
401.16455	0.00953
399.23587	0.00895
397.30720	0.00842
395.37852	0.00789
393.44985	0.00736
391.52117	0.00686
389.59249	0.00642
387.66382	0.00604
385.73514	0.00568
383.80647	0.00530
381.87779	0.00485
379.94912	0.00438
378.02044	0.00393
376.09176	0.00357
374.16309	0.00334
372.23441	0.00313
370.30574	0.00288
368.37706	0.00259
