7496.76250	0.00120
7494.83382	0.00121
7492.90514	0.00122
7490.97647	0.00123
7489.04779	0.00123
7487.11912	0.00124
7485.19044	0.00125
7483.26177	0.00124
7481.33309	0.00123
7479.40441	0.00121
7477.47574	0.00120
7475.54706	0.00121
7473.61839	0.00122
7471.68971	0.00123
7469.76104	0.00124
7467.83236	0.00125
7465.90368	0.00126
7463.97501	0.00126
7462.04633	0.00125
7460.11766	0.00125
7458.18898	0.00126
7456.26031	0.00127
7454.33163	0.00128
7452.40295	0.00129
7450.47428	0.00129
7448.54560	0.00130
7446.61693	0.00130
7444.68825	0.00130
7442.75958	0.00131
7440.83090	0.00132
7438.90222	0.00132
7436.97355	0.00132
7435.04487	0.00132
7433.11620	0.00132
7431.18752	0.00132
7429.25885	0.00131
7427.33017	0.00132
7425.40149	0.00134
7423.47282	0.00135
7421.54414	0.00135
7419.61547	0.00134
7417.68679	0.00134
7415.75812	0.00134
7413.82944	0.00135
7411.90076	0.00135
7409.97209	0.00137
7408.04341	0.00138
7406.11474	0.00138
7404.18606	0.00138
7402.25739	0.00139
7400.32871	0.00140
7398.40003	0.00141
7396.47136	0.00141
7394.54268	0.00140
7392.61401	0.00140
7390.68533	0.00140
7388.75666	0.00141
7386.82798	0.00141
7384.89930	0.00141
7382.97063	0.00142
7381.04195	0.00142
7379.11328	0.00143
7377.18460	0.00143
7375.25593	0.00143
7373.32725	0.00143
7371.39857	0.00143
7369.46990	0.00143
7367.54122	0.00144
7365.61255	0.00145
7363.68387	0.00147
7361.75520	0.00148
7359.82652	0.00149
7357.89784	0.00148
7355.96917	0.00148
7354.04049	0.00147
7352.11182	0.00147
7350.18314	0.00147
7348.25447	0.00147
7346.32579	0.00147
7344.39711	0.00147
7342.46844	0.00147
7340.53976	0.00148
7338.61109	0.00149
7336.68241	0.00150
7334.75374	0.00151
7332.82506	0.00153
7330.89638	0.00152
7328.96771	0.00151
7327.03903	0.00151
7325.11036	0.00151
7323.18168	0.00151
7321.25301	0.00152
7319.32433	0.00154
7317.39565	0.00155
7315.46698	0.00154
7313.53830	0.00154
7311.60963	0.00154
7309.68095	0.00154
7307.75228	0.00154
7305.82360	0.00154
7303.89492	0.00154
7301.96625	0.00155
7300.03757	0.00155
7298.10890	0.00155
7296.18022	0.00157
7294.25155	0.00157
7292.32287	0.00158
7290.39419	0.00159
7288.46552	0.00161
7286.53684	0.00161
7284.60817	0.00159
7282.67949	0.00158
7280.75082	0.00159
7278.82214	0.00160
7276.89346	0.00161
7274.96479	0.00160
7273.03611	0.00160
7271.10744	0.00161
7269.17876	0.00162
7267.25009	0.00164
7265.32141	0.00165
7263.39273	0.00164
7261.46406	0.00163
7259.53538	0.00163
7257.60671	0.00164
7255.67803	0.00166
7253.74936	0.00167
7251.82068	0.00167
7249.89200	0.00167
7247.96333	0.00165
7246.03465	0.00163
7244.10598	0.00163
7242.17730	0.00165
7240.24863	0.00167
7238.31995	0.00167
7236.39127	0.00167
7234.46260	0.00169
7232.53392	0.00171
7230.60525	0.00172
7228.67657	0.00170
7226.74790	0.00169
7224.81922	0.00169
7222.89054	0.00170
7220.96187	0.00172
7219.03319	0.00174
7217.10452	0.00174
7215.17584	0.00174
7213.24717	0.00174
7211.31849	0.00175
7209.38981	0.00175
7207.46114	0.00176
7205.53246	0.00176
7203.60379	0.00177
7201.67511	0.00176
7199.74644	0.00175
7197.81776	0.00175
7195.88908	0.00176
7193.96041	0.00177
7192.03173	0.00178
7190.10306	0.00179
7188.17438	0.00179
7186.24571	0.00180
7184.31703	0.00179
7182.38835	0.00179
7180.45968	0.00179
7178.53100	0.00180
7176.60233	0.00180
7174.67365	0.00181
7172.74498	0.00182
7170.81630	0.00183
7168.88762	0.00184
7166.95895	0.00184
7165.03027	0.00183
7163.10160	0.00184
7161.17292	0.00184
7159.24425	0.00184
7157.31557	0.00185
7155.38689	0.00185
7153.45822	0.00186
7151.52954	0.00186
7149.60087	0.00186
7147.67219	0.00187
7145.74352	0.00187
7143.81484	0.00188
7141.88616	0.00188
7139.95749	0.00188
7138.02881	0.00187
7136.10014	0.00186
7134.17146	0.00187
7132.24279	0.00189
7130.31411	0.00190
7128.38543	0.00190
7126.45676	0.00190
7124.52808	0.00189
7122.59941	0.00188
7120.67073	0.00189
7118.74206	0.00191
7116.81338	0.00193
7114.88470	0.00194
7112.95603	0.00194
7111.02735	0.00192
7109.09868	0.00192
7107.17000	0.00194
7105.24133	0.00195
7103.31265	0.00194
7101.38397	0.00194
7099.45530	0.00195
7097.52662	0.00196
7095.59795	0.00197
7093.66927	0.00198
7091.74060	0.00199
7089.81192	0.00200
7087.88324	0.00201
7085.95457	0.00201
7084.02589	0.00201
7082.09722	0.00202
7080.16854	0.00203
7078.23987	0.00203
7076.31119	0.00202
7074.38251	0.00203
7072.45384	0.00204
7070.52516	0.00205
7068.59649	0.00205
7066.66781	0.00204
7064.73914	0.00204
7062.81046	0.00206
7060.88178	0.00207
7058.95311	0.00207
7057.02443	0.00206
7055.09576	0.00207
7053.16708	0.00208
7051.23841	0.00207
7049.30973	0.00206
7047.38105	0.00206
7045.45238	0.00206
7043.52370	0.00206
7041.59503	0.00208
7039.66635	0.00209
7037.73768	0.00210
7035.80900	0.00211
7033.88032	0.00212
7031.95165	0.00212
7030.02297	0.00212
7028.09430	0.00212
7026.16562	0.00213
7024.23695	0.00214
7022.30827	0.00215
7020.37959	0.00215
7018.45092	0.00216
7016.52224	0.00218
7014.59357	0.00219
7012.66489	0.00218
7010.73622	0.00217
7008.80754	0.00216
7006.87886	0.00217
7004.95019	0.00219
7003.02151	0.00220
7001.09284	0.00220
6999.16416	0.00221
6997.23549	0.00222
6995.30681	0.00222
6993.37813	0.00222
6991.44946	0.00223
6989.52078	0.00224
6987.59211	0.00224
6985.66343	0.00224
6983.73476	0.00223
6981.80608	0.00223
6979.87740	0.00224
6977.94873	0.00226
6976.02005	0.00225
6974.09138	0.00225
6972.16270	0.00226
6970.23403	0.00227
6968.30535	0.00228
6966.37667	0.00228
6964.44800	0.00229
6962.51932	0.00230
6960.59065	0.00231
6958.66197	0.00231
6956.73330	0.00232
6954.80462	0.00232
6952.87594	0.00233
6950.94727	0.00235
6949.01859	0.00235
6947.08992	0.00233
6945.16124	0.00232
6943.23257	0.00232
6941.30389	0.00233
6939.37521	0.00234
6937.44654	0.00234
6935.51786	0.00234
6933.58919	0.00235
6931.66051	0.00237
6929.73184	0.00238
6927.80316	0.00238
6925.87448	0.00238
6923.94581	0.00239
6922.01713	0.00241
6920.08846	0.00242
6918.15978	0.00242
6916.23111	0.00241
6914.30243	0.00241
6912.37375	0.00242
6910.44508	0.00245
6908.51640	0.00245
6906.58773	0.00245
6904.65905	0.00245
6902.73038	0.00244
6900.80170	0.00244
6898.87302	0.00244
6896.94435	0.00246
6895.01567	0.00247
6893.08700	0.00246
6891.15832	0.00247
6889.22965	0.00248
6887.30097	0.00249
6885.37229	0.00249
6883.44362	0.00250
6881.51494	0.00251
6879.58627	0.00252
6877.65759	0.00252
6875.72892	0.00252
6873.80024	0.00253
6871.87156	0.00253
6869.94289	0.00254
6868.01421	0.00256
6866.08554	0.00256
6864.15686	0.00256
6862.22819	0.00256
6860.29951	0.00255
6858.37083	0.00255
6856.44216	0.00255
6854.51348	0.00255
6852.58481	0.00256
6850.65613	0.00256
6848.72746	0.00256
6846.79878	0.00257
6844.87010	0.00258
6842.94143	0.00260
6841.01275	0.00261
6839.08408	0.00262
6837.15540	0.00262
6835.22673	0.00264
6833.29805	0.00265
6831.36937	0.00265
6829.44070	0.00264
6827.51202	0.00265
6825.58335	0.00266
6823.65467	0.00267
6821.72600	0.00268
6819.79732	0.00269
6817.86864	0.00270
6815.93997	0.00270
6814.01129	0.00271
6812.08262	0.00273
6810.15394	0.00273
6808.22527	0.00271
6806.29659	0.00271
6804.36791	0.00273
6802.43924	0.00275
6800.51056	0.00275
6798.58189	0.00275
6796.65321	0.00276
6794.72454	0.00276
6792.79586	0.00277
6790.86718	0.00277
6788.93851	0.00277
6787.00983	0.00277
6785.08116	0.00277
6783.15248	0.00278
6781.22381	0.00279
6779.29513	0.00280
6777.36645	0.00281
6775.43778	0.00282
6773.50910	0.00283
6771.58043	0.00282
6769.65175	0.00281
6767.72308	0.00283
6765.79440	0.00284
6763.86572	0.00285
6761.93705	0.00285
6760.00837	0.00285
6758.07970	0.00284
6756.15102	0.00286
6754.22235	0.00288
6752.29367	0.00289
6750.36499	0.00289
6748.43632	0.00289
6746.50764	0.00290
6744.57897	0.00290
6742.65029	0.00290
6740.72162	0.00290
6738.79294	0.00290
6736.86426	0.00290
6734.93559	0.00291
6733.00691	0.00295
6731.07824	0.00297
6729.14956	0.00296
6727.22089	0.00296
6725.29221	0.00296
6723.36353	0.00296
6721.43486	0.00296
6719.50618	0.00297
6717.57751	0.00299
6715.64883	0.00301
6713.72016	0.00300
6711.79148	0.00299
6709.86280	0.00300
6707.93413	0.00301
6706.00545	0.00302
6704.07678	0.00303
6702.14810	0.00303
6700.21943	0.00304
6698.29075	0.00306
6696.36207	0.00306
6694.43340	0.00306
6692.50472	0.00307
6690.57605	0.00308
6688.64737	0.00308
6686.71870	0.00309
6684.79002	0.00308
6682.86134	0.00309
6680.93267	0.00310
6679.00399	0.00312
6677.07532	0.00313
6675.14664	0.00314
6673.21797	0.00314
6671.28929	0.00314
6669.36061	0.00313
6667.43194	0.00314
6665.50326	0.00316
6663.57459	0.00316
6661.64591	0.00315
6659.71724	0.00316
6657.78856	0.00318
6655.85988	0.00319
6653.93121	0.00320
6652.00253	0.00321
6650.07386	0.00322
6648.14518	0.00323
6646.21651	0.00324
6644.28783	0.00324
6642.35915	0.00323
6640.43048	0.00323
6638.50180	0.00326
6636.57313	0.00328
6634.64445	0.00328
6632.71578	0.00327
6630.78710	0.00326
6628.85842	0.00326
6626.92975	0.00328
6625.00107	0.00330
6623.07240	0.00331
6621.14372	0.00332
6619.21505	0.00333
6617.28637	0.00333
6615.35769	0.00333
6613.42902	0.00334
6611.50034	0.00336
6609.57167	0.00338
6607.64299	0.00338
6605.71432	0.00337
6603.78564	0.00338
6601.85696	0.00339
6599.92829	0.00338
6597.99961	0.00337
6596.07094	0.00338
6594.14226	0.00339
6592.21359	0.00341
6590.28491	0.00342
6588.35623	0.00343
6586.42756	0.00346
6584.49888	0.00348
6582.57021	0.00348
6580.64153	0.00348
6578.71286	0.00348
6576.78418	0.00349
6574.85550	0.00349
6572.92683	0.00350
6570.99815	0.00351
6569.06948	0.00351
6567.14080	0.00350
6565.21213	0.00352
6563.28345	0.00354
6561.35477	0.00356
6559.42610	0.00355
6557.49742	0.00355
6555.56875	0.00354
6553.64007	0.00353
6551.71140	0.00354
6549.78272	0.00356
6547.85404	0.00357
6545.92537	0.00359
6543.99669	0.00360
6542.06802	0.00361
6540.13934	0.00362
6538.21067	0.00362
6536.28199	0.00364
6534.35331	0.00366
6532.42464	0.00367
6530.49596	0.00366
6528.56729	0.00365
6526.63861	0.00365
6524.70994	0.00366
6522.78126	0.00367
6520.85258	0.00368
6518.92391	0.00369
6516.99523	0.00371
6515.06656	0.00373
6513.13788	0.00373
6511.20921	0.00372
6509.28053	0.00372
6507.35185	0.00372
6505.42318	0.00373
6503.49450	0.00374
6501.56583	0.00374
6499.63715	0.00375
6497.70848	0.00378
6495.77980	0.00379
6493.85112	0.00378
6491.92245	0.00378
6489.99377	0.00379
6488.06510	0.00382
6486.13642	0.00384
6484.20775	0.00385
6482.27907	0.00385
6480.35039	0.00384
6478.42172	0.00384
6476.49304	0.00384
6474.56437	0.00385
6472.63569	0.00386
6470.70702	0.00388
6468.77834	0.00390
6466.84966	0.00391
6464.92099	0.00390
6462.99231	0.00390
6461.06364	0.00392
6459.13496	0.00394
6457.20629	0.00396
6455.27761	0.00397
6453.34893	0.00398
6451.42026	0.00397
6449.49158	0.00396
6447.56291	0.00397
6445.63423	0.00400
6443.70556	0.00402
6441.77688	0.00403
6439.84820	0.00403
6437.91953	0.00402
6435.99085	0.00402
6434.06218	0.00403
6432.13350	0.00403
6430.20483	0.00404
6428.27615	0.00406
6426.34747	0.00406
6424.41880	0.00407
6422.49012	0.00409
6420.56145	0.00411
6418.63277	0.00412
6416.70410	0.00412
6414.77542	0.00412
6412.84674	0.00413
6410.91807	0.00414
6408.98939	0.00416
6407.06072	0.00418
6405.13204	0.00418
6403.20337	0.00418
6401.27469	0.00420
6399.34601	0.00421
6397.41734	0.00421
6395.48866	0.00421
6393.55999	0.00421
6391.63131	0.00421
6389.70264	0.00422
6387.77396	0.00424
6385.84528	0.00426
6383.91661	0.00428
6381.98793	0.00428
6380.05926	0.00429
6378.13058	0.00431
6376.20191	0.00432
6374.27323	0.00433
6372.34455	0.00433
6370.41588	0.00433
6368.48720	0.00432
6366.55853	0.00432
6364.62985	0.00434
6362.70118	0.00435
6360.77250	0.00436
6358.84382	0.00437
6356.91515	0.00438
6354.98647	0.00437
6353.05780	0.00439
6351.12912	0.00441
6349.20045	0.00443
6347.27177	0.00444
6345.34309	0.00445
6343.41442	0.00446
6341.48574	0.00447
6339.55707	0.00448
6337.62839	0.00449
6335.69972	0.00450
6333.77104	0.00451
6331.84236	0.00453
6329.91369	0.00454
6327.98501	0.00455
6326.05634	0.00456
6324.12766	0.00456
6322.19899	0.00456
6320.27031	0.00457
6318.34163	0.00458
6316.41296	0.00458
6314.48428	0.00458
6312.55561	0.00460
6310.62693	0.00462
6308.69826	0.00464
6306.76958	0.00464
6304.84090	0.00464
6302.91223	0.00464
6300.98355	0.00464
6299.05488	0.00466
6297.12620	0.00467
6295.19753	0.00469
6293.26885	0.00469
6291.34017	0.00470
6289.41150	0.00471
6287.48282	0.00474
6285.55415	0.00476
6283.62547	0.00476
6281.69680	0.00476
6279.76812	0.00477
6277.83944	0.00477
6275.91077	0.00478
6273.98209	0.00478
6272.05342	0.00480
6270.12474	0.00483
6268.19607	0.00485
6266.26739	0.00484
6264.33871	0.00485
6262.41004	0.00488
6260.48136	0.00490
6258.55269	0.00491
6256.62401	0.00492
6254.69534	0.00493
6252.76666	0.00492
6250.83798	0.00492
6248.90931	0.00494
6246.98063	0.00496
6245.05196	0.00495
6243.12328	0.00495
6241.19461	0.00495
6239.26593	0.00497
6237.33725	0.00498
6235.40858	0.00499
6233.47990	0.00501
6231.55123	0.00504
6229.62255	0.00506
6227.69388	0.00506
6225.76520	0.00506
6223.83652	0.00506
6221.90785	0.00506
6219.97917	0.00507
6218.05050	0.00508
6216.12182	0.00510
6214.19315	0.00511
6212.26447	0.00512
6210.33579	0.00513
6208.40712	0.00516
6206.47844	0.00517
6204.54977	0.00517
6202.62109	0.00517
6200.69242	0.00517
6198.76374	0.00518
6196.83506	0.00520
6194.90639	0.00524
6192.97771	0.00526
6191.04904	0.00526
6189.12036	0.00526
6187.19169	0.00528
6185.26301	0.00529
6183.33433	0.00529
6181.40566	0.00530
6179.47698	0.00532
6177.54831	0.00534
6175.61963	0.00534
6173.69096	0.00533
6171.76228	0.00533
6169.83360	0.00535
6167.90493	0.00536
6165.97625	0.00538
6164.04758	0.00540
6162.11890	0.00540
6160.19023	0.00539
6158.26155	0.00539
6156.33287	0.00542
6154.40420	0.00543
6152.47552	0.00544
6150.54685	0.00545
6148.61817	0.00548
6146.68950	0.00550
6144.76082	0.00550
6142.83214	0.00550
6140.90347	0.00550
6138.97479	0.00552
6137.04612	0.00555
6135.11744	0.00557
6133.18877	0.00557
6131.26009	0.00558
6129.33141	0.00560
6127.40274	0.00562
6125.47406	0.00563
6123.54539	0.00562
6121.61671	0.00563
6119.68804	0.00566
6117.75936	0.00568
6115.83068	0.00569
6113.90201	0.00570
6111.97333	0.00571
6110.04466	0.00572
6108.11598	0.00573
6106.18731	0.00574
6104.25863	0.00576
6102.32995	0.00578
6100.40128	0.00579
6098.47260	0.00579
6096.54393	0.00579
6094.61525	0.00580
6092.68658	0.00583
6090.75790	0.00586
6088.82922	0.00589
6086.90055	0.00589
6084.97187	0.00587
6083.04320	0.00586
6081.11452	0.00589
6079.18585	0.00591
6077.25717	0.00592
6075.32849	0.00591
6073.39982	0.00590
6071.47114	0.00593
6069.54247	0.00596
6067.61379	0.00599
6065.68512	0.00600
6063.75644	0.00601
6061.82776	0.00603
6059.89909	0.00604
6057.97041	0.00606
6056.04174	0.00607
6054.11306	0.00608
6052.18439	0.00609
6050.25571	0.00610
6048.32703	0.00612
6046.39836	0.00613
6044.46968	0.00615
6042.54101	0.00616
6040.61233	0.00615
6038.68366	0.00615
6036.75498	0.00617
6034.82630	0.00619
6032.89763	0.00620
6030.96895	0.00621
6029.04028	0.00623
6027.11160	0.00626
6025.18293	0.00626
6023.25425	0.00627
6021.32557	0.00628
6019.39690	0.00630
6017.46822	0.00631
6015.53955	0.00632
6013.61087	0.00633
6011.68220	0.00634
6009.75352	0.00637
6007.82484	0.00639
6005.89617	0.00639
6003.96749	0.00639
6002.03882	0.00640
6000.11014	0.00641
5998.18147	0.00642
5996.25279	0.00644
5994.32411	0.00648
5992.39544	0.00651
5990.46676	0.00652
5988.53809	0.00653
5986.60941	0.00654
5984.68074	0.00653
5982.75206	0.00654
5980.82338	0.00656
5978.89471	0.00658
5976.96603	0.00661
5975.03736	0.00662
5973.10868	0.00662
5971.18001	0.00663
5969.25133	0.00665
5967.32265	0.00669
5965.39398	0.00670
5963.46530	0.00670
5961.53663	0.00670
5959.60795	0.00670
5957.67928	0.00672
5955.75060	0.00674
5953.82192	0.00675
5951.89325	0.00675
5949.96457	0.00676
5948.03590	0.00678
5946.10722	0.00681
5944.17855	0.00683
5942.24987	0.00683
5940.32119	0.00683
5938.39252	0.00684
5936.46384	0.00686
5934.53517	0.00687
5932.60649	0.00689
5930.67782	0.00692
5928.74914	0.00695
5926.82046	0.00696
5924.89179	0.00695
5922.96311	0.00695
5921.03444	0.00697
5919.10576	0.00700
5917.17709	0.00702
5915.24841	0.00702
5913.31973	0.00703
5911.39106	0.00705
5909.46238	0.00706
5907.53371	0.00707
5905.60503	0.00709
5903.67636	0.00711
5901.74768	0.00713
5899.81900	0.00714
5897.89033	0.00716
5895.96165	0.00718
5894.03298	0.00720
5892.10430	0.00722
5890.17563	0.00724
5888.24695	0.00725
5886.31827	0.00726
5884.38960	0.00728
5882.46092	0.00730
5880.53225	0.00731
5878.60357	0.00732
5876.67490	0.00734
5874.74622	0.00737
5872.81755	0.00739
5870.88887	0.00739
5868.96019	0.00739
5867.03152	0.00740
5865.10284	0.00740
5863.17417	0.00741
5861.24549	0.00743
5859.31682	0.00746
5857.38814	0.00749
5855.45946	0.00749
5853.53079	0.00751
5851.60211	0.00753
5849.67344	0.00754
5847.74476	0.00754
5845.81609	0.00754
5843.88741	0.00756
5841.95873	0.00760
5840.03006	0.00763
5838.10138	0.00766
5836.17271	0.00769
5834.24403	0.00769
5832.31536	0.00768
5830.38668	0.00769
5828.45800	0.00770
5826.52933	0.00773
5824.60065	0.00775
5822.67198	0.00776
5820.74330	0.00777
5818.81463	0.00780
5816.88595	0.00782
5814.95727	0.00784
5813.02860	0.00786
5811.09992	0.00786
5809.17125	0.00788
5807.24257	0.00791
5805.31390	0.00794
5803.38522	0.00794
5801.45654	0.00794
5799.52787	0.00794
5797.59919	0.00794
5795.67052	0.00795
5793.74184	0.00797
5791.81317	0.00801
5789.88449	0.00803
5787.95581	0.00805
5786.02714	0.00805
5784.09846	0.00805
5782.16979	0.00807
5780.24111	0.00810
5778.31244	0.00813
5776.38376	0.00816
5774.45508	0.00819
5772.52641	0.00820
5770.59773	0.00822
5768.66906	0.00823
5766.74038	0.00824
5764.81171	0.00824
5762.88303	0.00825
5760.95435	0.00826
5759.02568	0.00827
5757.09700	0.00829
5755.16833	0.00832
5753.23965	0.00834
5751.31098	0.00834
5749.38230	0.00836
5747.45362	0.00839
5745.52495	0.00840
5743.59627	0.00840
5741.66760	0.00841
5739.73892	0.00843
5737.81025	0.00845
5735.88157	0.00845
5733.95289	0.00846
5732.02422	0.00850
5730.09554	0.00853
5728.16687	0.00854
5726.23819	0.00855
5724.30952	0.00856
5722.38084	0.00860
5720.45216	0.00862
5718.52349	0.00862
5716.59481	0.00863
5714.66614	0.00864
5712.73746	0.00865
5710.80879	0.00866
5708.88011	0.00871
5706.95143	0.00874
5705.02276	0.00874
5703.09408	0.00873
5701.16541	0.00875
5699.23673	0.00880
5697.30806	0.00885
5695.37938	0.00888
5693.45070	0.00888
5691.52203	0.00889
5689.59335	0.00889
5687.66468	0.00890
5685.73600	0.00891
5683.80733	0.00893
5681.87865	0.00896
5679.94997	0.00898
5678.02130	0.00899
5676.09262	0.00899
5674.16395	0.00901
5672.23527	0.00904
5670.30660	0.00907
5668.37792	0.00908
5666.44924	0.00910
5664.52057	0.00913
5662.59189	0.00918
5660.66322	0.00920
5658.73454	0.00921
5656.80587	0.00922
5654.87719	0.00923
5652.94851	0.00924
5651.01984	0.00924
5649.09116	0.00927
5647.16249	0.00930
5645.23381	0.00931
5643.30514	0.00932
5641.37646	0.00933
5639.44778	0.00935
5637.51911	0.00937
5635.59043	0.00940
5633.66176	0.00942
5631.73308	0.00944
5629.80441	0.00945
5627.87573	0.00948
5625.94705	0.00950
5624.01838	0.00952
5622.08970	0.00954
5620.16103	0.00955
5618.23235	0.00957
5616.30368	0.00959
5614.37500	0.00960
5612.44632	0.00962
5610.51765	0.00965
5608.58897	0.00966
5606.66030	0.00966
5604.73162	0.00968
5602.80295	0.00970
5600.87427	0.00971
5598.94559	0.00970
5597.01692	0.00972
5595.08824	0.00977
5593.15957	0.00981
5591.23089	0.00983
5589.30222	0.00986
5587.37354	0.00989
5585.44486	0.00990
5583.51619	0.00992
5581.58751	0.00995
5579.65884	0.00997
5577.73016	0.00997
5575.80149	0.00997
5573.87281	0.00997
5571.94413	0.00999
5570.01546	0.01001
5568.08678	0.01005
5566.15811	0.01009
5564.22943	0.01010
5562.30076	0.01010
5560.37208	0.01011
5558.44340	0.01015
5556.51473	0.01019
5554.58605	0.01022
5552.65738	0.01023
5550.72870	0.01024
5548.80003	0.01025
5546.87135	0.01027
5544.94267	0.01030
5543.01400	0.01030
5541.08532	0.01031
5539.15665	0.01033
5537.22797	0.01036
5535.29930	0.01039
5533.37062	0.01040
5531.44194	0.01042
5529.51327	0.01043
5527.58459	0.01043
5525.65592	0.01046
5523.72724	0.01049
5521.79857	0.01051
5519.86989	0.01053
5517.94121	0.01055
5516.01254	0.01057
5514.08386	0.01059
5512.15519	0.01062
5510.22651	0.01065
5508.29784	0.01067
5506.36916	0.01068
5504.44048	0.01070
5502.51181	0.01072
5500.58313	0.01074
5498.65446	0.01077
5496.72578	0.01081
5494.79711	0.01083
5492.86843	0.01083
5490.93975	0.01083
5489.01108	0.01084
5487.08240	0.01086
5485.15373	0.01089
5483.22505	0.01092
5481.29638	0.01094
5479.36770	0.01095
5477.43902	0.01097
5475.51035	0.01100
5473.58167	0.01102
5471.65300	0.01102
5469.72432	0.01103
5467.79565	0.01106
5465.86697	0.01110
5463.93829	0.01114
5462.00962	0.01117
5460.08094	0.01120
5458.15227	0.01123
5456.22359	0.01125
5454.29492	0.01126
5452.36624	0.01127
5450.43756	0.01128
5448.50889	0.01131
5446.58021	0.01135
5444.65154	0.01138
5442.72286	0.01140
5440.79419	0.01140
5438.86551	0.01140
5436.93683	0.01141
5435.00816	0.01145
5433.07948	0.01149
5431.15081	0.01150
5429.22213	0.01149
5427.29346	0.01149
5425.36478	0.01153
5423.43610	0.01158
5421.50743	0.01162
5419.57875	0.01164
5417.65008	0.01163
5415.72140	0.01162
5413.79273	0.01163
5411.86405	0.01167
5409.93537	0.01170
5408.00670	0.01173
5406.07802	0.01176
5404.14935	0.01180
5402.22067	0.01182
5400.29200	0.01183
5398.36332	0.01185
5396.43464	0.01187
5394.50597	0.01190
5392.57729	0.01192
5390.64862	0.01195
5388.71994	0.01197
5386.79127	0.01197
5384.86259	0.01201
5382.93391	0.01206
5381.00524	0.01209
5379.07656	0.01210
5377.14789	0.01211
5375.21921	0.01211
5373.29054	0.01212
5371.36186	0.01214
5369.43318	0.01218
5367.50451	0.01222
5365.57583	0.01225
5363.64716	0.01226
5361.71848	0.01228
5359.78981	0.01231
5357.86113	0.01234
5355.93245	0.01234
5354.00378	0.01234
5352.07510	0.01237
5350.14643	0.01241
5348.21775	0.01245
5346.28908	0.01246
5344.36040	0.01246
5342.43172	0.01247
5340.50305	0.01248
5338.57437	0.01249
5336.64570	0.01252
5334.71702	0.01255
5332.78835	0.01259
5330.85967	0.01263
5328.93099	0.01267
5327.00232	0.01270
5325.07364	0.01271
5323.14497	0.01272
5321.21629	0.01273
5319.28762	0.01275
5317.35894	0.01279
5315.43026	0.01284
5313.50159	0.01288
5311.57291	0.01288
5309.64424	0.01287
5307.71556	0.01288
5305.78689	0.01290
5303.85821	0.01293
5301.92953	0.01294
5300.00086	0.01296
5298.07218	0.01298
5296.14351	0.01301
5294.21483	0.01305
5292.28616	0.01308
5290.35748	0.01308
5288.42880	0.01310
5286.50013	0.01315
5284.57145	0.01320
5282.64278	0.01322
5280.71410	0.01322
5278.78543	0.01322
5276.85675	0.01324
5274.92807	0.01327
5272.99940	0.01329
5271.07072	0.01331
5269.14205	0.01334
5267.21337	0.01337
5265.28470	0.01338
5263.35602	0.01340
5261.42734	0.01344
5259.49867	0.01348
5257.56999	0.01349
5255.64132	0.01350
5253.71264	0.01353
5251.78397	0.01356
5249.85529	0.01358
5247.92661	0.01360
5245.99794	0.01361
5244.06926	0.01362
5242.14059	0.01365
5240.21191	0.01369
5238.28324	0.01373
5236.35456	0.01377
5234.42588	0.01378
5232.49721	0.01379
5230.56853	0.01380
5228.63986	0.01382
5226.71118	0.01384
5224.78251	0.01388
5222.85383	0.01391
5220.92515	0.01393
5218.99648	0.01395
5217.06780	0.01397
5215.13913	0.01399
5213.21045	0.01401
5211.28178	0.01405
5209.35310	0.01408
5207.42442	0.01410
5205.49575	0.01412
5203.56707	0.01415
5201.63840	0.01419
5199.70972	0.01422
5197.78105	0.01424
5195.85237	0.01427
5193.92369	0.01429
5191.99502	0.01430
5190.06634	0.01431
5188.13767	0.01433
5186.20899	0.01436
5184.28032	0.01440
5182.35164	0.01444
5180.42296	0.01447
5178.49429	0.01449
5176.56561	0.01452
5174.63694	0.01453
5172.70826	0.01455
5170.77959	0.01458
5168.85091	0.01460
5166.92223	0.01463
5164.99356	0.01465
5163.06488	0.01466
5161.13621	0.01469
5159.20753	0.01473
5157.27886	0.01476
5155.35018	0.01479
5153.42150	0.01481
5151.49283	0.01481
5149.56415	0.01483
5147.63548	0.01486
5145.70680	0.01490
5143.77813	0.01493
5141.84945	0.01494
5139.92077	0.01495
5137.99210	0.01498
5136.06342	0.01501
5134.13475	0.01504
5132.20607	0.01507
5130.27740	0.01509
5128.34872	0.01511
5126.42004	0.01516
5124.49137	0.01519
5122.56269	0.01521
5120.63402	0.01521
5118.70534	0.01524
5116.77667	0.01528
5114.84799	0.01532
5112.91931	0.01535
5110.99064	0.01538
5109.06196	0.01540
5107.13329	0.01542
5105.20461	0.01545
5103.27594	0.01545
5101.34726	0.01546
5099.41858	0.01550
5097.48991	0.01553
5095.56123	0.01556
5093.63256	0.01557
5091.70388	0.01559
5089.77521	0.01562
5087.84653	0.01566
5085.91785	0.01569
5083.98918	0.01571
5082.06050	0.01572
5080.13183	0.01575
5078.20315	0.01580
5076.27448	0.01583
5074.34580	0.01584
5072.41712	0.01586
5070.48845	0.01589
5068.55977	0.01592
5066.63110	0.01594
5064.70242	0.01597
5062.77375	0.01600
5060.84507	0.01604
5058.91639	0.01607
5056.98772	0.01610
5055.05904	0.01612
5053.13037	0.01614
5051.20169	0.01616
5049.27302	0.01619
5047.34434	0.01622
5045.41566	0.01624
5043.48699	0.01627
5041.55831	0.01631
5039.62964	0.01632
5037.70096	0.01633
5035.77229	0.01635
5033.84361	0.01639
5031.91493	0.01641
5029.98626	0.01644
5028.05758	0.01646
5026.12891	0.01648
5024.20023	0.01651
5022.27156	0.01655
5020.34288	0.01658
5018.41420	0.01660
5016.48553	0.01662
5014.55685	0.01664
5012.62818	0.01667
5010.69950	0.01671
5008.77083	0.01676
5006.84215	0.01680
5004.91347	0.01682
5002.98480	0.01684
5001.05612	0.01684
4999.12745	0.01686
4997.19877	0.01690
4995.27010	0.01693
4993.34142	0.01694
4991.41274	0.01696
4989.48407	0.01698
4987.55539	0.01701
4985.62672	0.01705
4983.69804	0.01710
4981.76937	0.01715
4979.84069	0.01717
4977.91201	0.01720
4975.98334	0.01723
4974.05466	0.01727
4972.12599	0.01729
4970.19731	0.01730
4968.26864	0.01733
4966.33996	0.01736
4964.41128	0.01738
4962.48261	0.01740
4960.55393	0.01743
4958.62526	0.01748
4956.69658	0.01750
4954.76791	0.01752
4952.83923	0.01753
4950.91055	0.01755
4948.98188	0.01757
4947.05320	0.01761
4945.12453	0.01764
4943.19585	0.01767
4941.26718	0.01770
4939.33850	0.01771
4937.40982	0.01774
4935.48115	0.01777
4933.55247	0.01781
4931.62380	0.01784
4929.69512	0.01787
4927.76645	0.01788
4925.83777	0.01789
4923.90909	0.01792
4921.98042	0.01797
4920.05174	0.01802
4918.12307	0.01806
4916.19439	0.01808
4914.26572	0.01811
4912.33704	0.01814
4910.40836	0.01816
4908.47969	0.01819
4906.55101	0.01824
4904.62234	0.01829
4902.69366	0.01831
4900.76499	0.01833
4898.83631	0.01835
4896.90763	0.01837
4894.97896	0.01841
4893.05028	0.01843
4891.12161	0.01844
4889.19293	0.01846
4887.26426	0.01849
4885.33558	0.01851
4883.40690	0.01853
4881.47823	0.01857
4879.54955	0.01860
4877.62088	0.01862
4875.69220	0.01864
4873.76353	0.01868
4871.83485	0.01874
4869.90617	0.01879
4867.97750	0.01883
4866.04882	0.01884
4864.12015	0.01884
4862.19147	0.01884
4860.26280	0.01888
4858.33412	0.01894
4856.40544	0.01900
4854.47677	0.01903
4852.54809	0.01904
4850.61942	0.01905
4848.69074	0.01908
4846.76207	0.01911
4844.83339	0.01913
4842.90471	0.01916
4840.97604	0.01920
4839.04736	0.01923
4837.11869	0.01927
4835.19001	0.01931
4833.26134	0.01934
4831.33266	0.01938
4829.40398	0.01942
4827.47531	0.01946
4825.54663	0.01947
4823.61796	0.01947
4821.68928	0.01950
4819.76061	0.01953
4817.83193	0.01955
4815.90325	0.01957
4813.97458	0.01960
4812.04590	0.01964
4810.11723	0.01968
4808.18855	0.01973
4806.25988	0.01979
4804.33120	0.01983
4802.40252	0.01986
4800.47385	0.01989
4798.54517	0.01992
4796.61650	0.01993
4794.68782	0.01995
4792.75915	0.01996
4790.83047	0.01999
4788.90179	0.02001
4786.97312	0.02004
4785.04444	0.02008
4783.11577	0.02014
4781.18709	0.02020
4779.25842	0.02023
4777.32974	0.02026
4775.40106	0.02026
4773.47239	0.02026
4771.54371	0.02029
4769.61504	0.02034
4767.68636	0.02039
4765.75769	0.02043
4763.82901	0.02046
4761.90033	0.02051
4759.97166	0.02055
4758.04298	0.02058
4756.11431	0.02060
4754.18563	0.02063
4752.25696	0.02066
4750.32828	0.02070
4748.39960	0.02075
4746.47093	0.02079
4744.54225	0.02082
4742.61358	0.02086
4740.68490	0.02088
4738.75623	0.02090
4736.82755	0.02093
4734.89887	0.02096
4732.97020	0.02099
4731.04152	0.02103
4729.11285	0.02107
4727.18417	0.02108
4725.25550	0.02110
4723.32682	0.02116
4721.39814	0.02121
4719.46947	0.02124
4717.54079	0.02125
4715.61212	0.02127
4713.68344	0.02131
4711.75477	0.02136
4709.82609	0.02140
4707.89741	0.02142
4705.96874	0.02144
4704.04006	0.02148
4702.11139	0.02152
4700.18271	0.02156
4698.25404	0.02161
4696.32536	0.02165
4694.39668	0.02169
4692.46801	0.02175
4690.53933	0.02179
4688.61066	0.02180
4686.68198	0.02181
4684.75331	0.02182
4682.82463	0.02185
4680.89595	0.02189
4678.96728	0.02195
4677.03860	0.02201
4675.10993	0.02204
4673.18125	0.02206
4671.25258	0.02210
4669.32390	0.02213
4667.39522	0.02215
4665.46655	0.02218
4663.53787	0.02222
4661.60920	0.02224
4659.68052	0.02226
4657.75185	0.02231
4655.82317	0.02237
4653.89449	0.02239
4651.96582	0.02240
4650.03714	0.02245
4648.10847	0.02251
4646.17979	0.02256
4644.25112	0.02257
4642.32244	0.02260
4640.39376	0.02265
4638.46509	0.02271
4636.53641	0.02275
4634.60774	0.02279
4632.67906	0.02282
4630.75039	0.02284
4628.82171	0.02288
4626.89303	0.02292
4624.96436	0.02297
4623.03568	0.02301
4621.10701	0.02304
4619.17833	0.02305
4617.24966	0.02308
4615.32098	0.02313
4613.39230	0.02316
4611.46363	0.02317
4609.53495	0.02322
4607.60628	0.02327
4605.67760	0.02330
4603.74893	0.02331
4601.82025	0.02336
4599.89157	0.02343
4597.96290	0.02348
4596.03422	0.02352
4594.10555	0.02355
4592.17687	0.02358
4590.24820	0.02361
4588.31952	0.02364
4586.39084	0.02368
4584.46217	0.02372
4582.53349	0.02376
4580.60482	0.02380
4578.67614	0.02384
4576.74747	0.02387
4574.81879	0.02392
4572.89011	0.02398
4570.96144	0.02402
4569.03276	0.02406
4567.10409	0.02411
4565.17541	0.02416
4563.24674	0.02419
4561.31806	0.02423
4559.38938	0.02428
4557.46071	0.02433
4555.53203	0.02436
4553.60336	0.02437
4551.67468	0.02440
4549.74601	0.02445
4547.81733	0.02449
4545.88865	0.02453
4543.95998	0.02457
4542.03130	0.02461
4540.10263	0.02468
4538.17395	0.02473
4536.24528	0.02475
4534.31660	0.02478
4532.38792	0.02485
4530.45925	0.02490
4528.53057	0.02490
4526.60190	0.02491
4524.67322	0.02496
4522.74455	0.02503
4520.81587	0.02508
4518.88719	0.02512
4516.95852	0.02516
4515.02984	0.02521
4513.10117	0.02527
4511.17249	0.02531
4509.24382	0.02535
4507.31514	0.02539
4505.38646	0.02543
4503.45779	0.02546
4501.52911	0.02552
4499.60044	0.02558
4497.67176	0.02561
4495.74309	0.02563
4493.81441	0.02566
4491.88573	0.02568
4489.95706	0.02571
4488.02838	0.02576
4486.09971	0.02582
4484.17103	0.02587
4482.24236	0.02590
4480.31368	0.02594
4478.38500	0.02598
4476.45633	0.02603
4474.52765	0.02608
4472.59898	0.02614
4470.67030	0.02620
4468.74163	0.02624
4466.81295	0.02628
4464.88427	0.02632
4462.95560	0.02636
4461.02692	0.02642
4459.09825	0.02646
4457.16957	0.02651
4455.24090	0.02656
4453.31222	0.02660
4451.38354	0.02663
4449.45487	0.02666
4447.52619	0.02669
4445.59752	0.02676
4443.66884	0.02683
4441.74017	0.02688
4439.81149	0.02688
4437.88281	0.02689
4435.95414	0.02694
4434.02546	0.02704
4432.09679	0.02712
4430.16811	0.02716
4428.23944	0.02719
4426.31076	0.02723
4424.38208	0.02730
4422.45341	0.02736
4420.52473	0.02739
4418.59606	0.02741
4416.66738	0.02743
4414.73871	0.02747
4412.81003	0.02753
4410.88135	0.02760
4408.95268	0.02766
4407.02400	0.02771
4405.09533	0.02776
4403.16665	0.02781
4401.23798	0.02786
4399.30930	0.02790
4397.38062	0.02794
4395.45195	0.02799
4393.52327	0.02805
4391.59460	0.02811
4389.66592	0.02817
4387.73725	0.02822
4385.80857	0.02825
4383.87989	0.02826
4381.95122	0.02828
4380.02254	0.02832
4378.09387	0.02837
4376.16519	0.02843
4374.23652	0.02852
4372.30784	0.02859
4370.37916	0.02864
4368.45049	0.02868
4366.52181	0.02873
4364.59314	0.02880
4362.66446	0.02887
4360.73579	0.02892
4358.80711	0.02897
4356.87843	0.02900
4354.94976	0.02902
4353.02108	0.02905
4351.09241	0.02912
4349.16373	0.02920
4347.23506	0.02926
4345.30638	0.02930
4343.37770	0.02936
4341.44903	0.02944
4339.52035	0.02950
4337.59168	0.02953
4335.66300	0.02956
4333.73433	0.02961
4331.80565	0.02966
4329.87697	0.02969
4327.94830	0.02975
4326.01962	0.02984
4324.09095	0.02991
4322.16227	0.02996
4320.23360	0.03001
4318.30492	0.03005
4316.37624	0.03010
4314.44757	0.03015
4312.51889	0.03020
4310.59022	0.03025
4308.66154	0.03030
4306.73287	0.03036
4304.80419	0.03043
4302.87551	0.03050
4300.94684	0.03054
4299.01816	0.03059
4297.08949	0.03065
4295.16081	0.03071
4293.23214	0.03077
4291.30346	0.03083
4289.37478	0.03086
4287.44611	0.03090
4285.51743	0.03096
4283.58876	0.03105
4281.66008	0.03112
4279.73141	0.03116
4277.80273	0.03118
4275.87405	0.03122
4273.94538	0.03129
4272.01670	0.03138
4270.08803	0.03144
4268.15935	0.03149
4266.23068	0.03153
4264.30200	0.03158
4262.37332	0.03164
4260.44465	0.03169
4258.51597	0.03174
4256.58730	0.03180
4254.65862	0.03186
4252.72995	0.03192
4250.80127	0.03197
4248.87259	0.03205
4246.94392	0.03213
4245.01524	0.03218
4243.08657	0.03222
4241.15789	0.03228
4239.22922	0.03235
4237.30054	0.03241
4235.37186	0.03246
4233.44319	0.03251
4231.51451	0.03258
4229.58584	0.03267
4227.65716	0.03276
4225.72849	0.03282
4223.79981	0.03284
4221.87113	0.03287
4219.94246	0.03292
4218.01378	0.03299
4216.08511	0.03305
4214.15643	0.03312
4212.22776	0.03319
4210.29908	0.03325
4208.37040	0.03330
4206.44173	0.03334
4204.51305	0.03341
4202.58438	0.03347
4200.65570	0.03356
4198.72703	0.03365
4196.79835	0.03372
4194.86968	0.03376
4192.94100	0.03380
4191.01232	0.03385
4189.08365	0.03390
4187.15497	0.03395
4185.22630	0.03403
4183.29762	0.03411
4181.36895	0.03418
4179.44027	0.03424
4177.51159	0.03430
4175.58292	0.03435
4173.65424	0.03441
4171.72557	0.03447
4169.79689	0.03452
4167.86822	0.03459
4165.93954	0.03467
4164.01086	0.03475
4162.08219	0.03483
4160.15351	0.03491
4158.22484	0.03497
4156.29616	0.03501
4154.36749	0.03505
4152.43881	0.03511
4150.51013	0.03518
4148.58146	0.03527
4146.65278	0.03537
4144.72411	0.03547
4142.79543	0.03553
4140.86676	0.03557
4138.93808	0.03560
4137.00940	0.03565
4135.08073	0.03571
4133.15205	0.03577
4131.22338	0.03584
4129.29470	0.03592
4127.36603	0.03601
4125.43735	0.03609
4123.50867	0.03616
4121.58000	0.03621
4119.65132	0.03624
4117.72265	0.03630
4115.79397	0.03638
4113.86530	0.03646
4111.93662	0.03652
4110.00794	0.03657
4108.07927	0.03663
4106.15059	0.03671
4104.22192	0.03680
4102.29324	0.03687
4100.36457	0.03695
4098.43589	0.03703
4096.50721	0.03710
4094.57854	0.03718
4092.64986	0.03724
4090.72119	0.03730
4088.79251	0.03736
4086.86384	0.03745
4084.93516	0.03754
4083.00648	0.03762
4081.07781	0.03769
4079.14913	0.03774
4077.22046	0.03779
4075.29178	0.03786
4073.36311	0.03795
4071.43443	0.03803
4069.50575	0.03807
4067.57708	0.03811
4065.64840	0.03817
4063.71973	0.03825
4061.79105	0.03833
4059.86238	0.03842
4057.93370	0.03852
4056.00502	0.03860
4054.07635	0.03866
4052.14767	0.03873
4050.21900	0.03881
4048.29032	0.03887
4046.36165	0.03892
4044.43297	0.03899
4042.50429	0.03907
4040.57562	0.03915
4038.64694	0.03925
4036.71827	0.03936
4034.78959	0.03944
4032.86092	0.03950
4030.93224	0.03954
4029.00356	0.03958
4027.07489	0.03966
4025.14621	0.03975
4023.21754	0.03982
4021.28886	0.03990
4019.36019	0.03999
4017.43151	0.04006
4015.50283	0.04012
4013.57416	0.04020
4011.64548	0.04029
4009.71681	0.04037
4007.78813	0.04044
4005.85946	0.04049
4003.93078	0.04056
4002.00210	0.04066
4000.07343	0.04076
3998.14475	0.04083
3996.21608	0.04091
3994.28740	0.04099
3992.35873	0.04107
3990.43005	0.04113
3988.50137	0.04121
3986.57270	0.04130
3984.64402	0.04137
3982.71535	0.04144
3980.78667	0.04152
3978.85800	0.04159
3976.92932	0.04165
3975.00064	0.04173
3973.07197	0.04181
3971.14329	0.04191
3969.21462	0.04200
3967.28594	0.04206
3965.35727	0.04211
3963.42859	0.04217
3961.49991	0.04226
3959.57124	0.04236
3957.64256	0.04246
3955.71389	0.04255
3953.78521	0.04262
3951.85654	0.04268
3949.92786	0.04275
3947.99918	0.04281
3946.07051	0.04287
3944.14183	0.04295
3942.21316	0.04305
3940.28448	0.04315
3938.35581	0.04325
3936.42713	0.04330
3934.49845	0.04333
3932.56978	0.04338
3930.64110	0.04349
3928.71243	0.04361
3926.78375	0.04369
3924.85508	0.04376
3922.92640	0.04386
3920.99772	0.04392
3919.06905	0.04397
3917.14037	0.04406
3915.21170	0.04419
3913.28302	0.04431
3911.35435	0.04438
3909.42567	0.04445
3907.49699	0.04450
3905.56832	0.04449
3903.63964	0.04450
3901.71097	0.04453
3899.78229	0.04461
3897.85362	0.04479
3895.92494	0.04498
3893.99626	0.04504
3892.06759	0.04506
3890.13891	0.04518
3888.21024	0.04532
3886.28156	0.04537
3884.35289	0.04542
3882.42421	0.04547
3880.49553	0.04552
3878.56686	0.04566
3876.63818	0.04580
3874.70951	0.04587
3872.78083	0.04588
3870.85216	0.04586
3868.92348	0.04592
3866.99480	0.04605
3865.06613	0.04616
3863.13745	0.04628
3861.20878	0.04643
3859.28010	0.04653
3857.35143	0.04643
3855.42275	0.04615
3853.49407	0.04616
3851.56540	0.04658
3849.63672	0.04698
3847.70805	0.04716
3845.77937	0.04722
3843.85070	0.04725
3841.92202	0.04729
3839.99334	0.04735
3838.06467	0.04739
3836.13599	0.04745
3834.20732	0.04754
3832.27864	0.04766
3830.34997	0.04784
3828.42129	0.04800
3826.49261	0.04810
3824.56394	0.04814
3822.63526	0.04809
3820.70659	0.04809
3818.77791	0.04821
3816.84924	0.04834
3814.92056	0.04853
3812.99188	0.04877
3811.06321	0.04892
3809.13453	0.04895
3807.20586	0.04897
3805.27718	0.04900
3803.34851	0.04896
3801.41983	0.04895
3799.49115	0.04913
3797.56248	0.04936
3795.63380	0.04954
3793.70513	0.04970
3791.77645	0.04982
3789.84778	0.04990
3787.91910	0.04997
3785.99042	0.05005
3784.06175	0.05014
3782.13307	0.05020
3780.20440	0.05024
3778.27572	0.05034
3776.34705	0.05049
3774.41837	0.05060
3772.48969	0.05065
3770.56102	0.05072
3768.63234	0.05082
3766.70367	0.05094
3764.77499	0.05104
3762.84632	0.05110
3760.91764	0.05109
3758.98896	0.05112
3757.06029	0.05123
3755.13161	0.05127
3753.20294	0.05117
3751.27426	0.05108
3749.34559	0.05116
3747.41691	0.05124
3745.48823	0.05125
3743.55956	0.05145
3741.63088	0.05182
3739.70221	0.05201
3737.77353	0.05200
3735.84486	0.05204
3733.91618	0.05220
3731.98750	0.05242
3730.05883	0.05258
3728.13015	0.05266
3726.20148	0.05272
3724.27280	0.05278
3722.34413	0.05289
3720.41545	0.05305
3718.48677	0.05322
3716.55810	0.05331
3714.62942	0.05330
3712.70075	0.05328
3710.77207	0.05340
3708.84340	0.05364
3706.91472	0.05384
3704.98604	0.05393
3703.05737	0.05398
3701.12869	0.05407
3699.20002	0.05420
3697.27134	0.05431
3695.34267	0.05439
3693.41399	0.05439
3691.48531	0.05432
3689.55664	0.05427
3687.62796	0.05443
3685.69929	0.05472
3683.77061	0.05493
3681.84194	0.05500
3679.91326	0.05502
3677.98458	0.05500
3676.05591	0.05501
3674.12723	0.05511
3672.19856	0.05521
3670.26988	0.05531
3668.34121	0.05550
3666.41253	0.05570
3664.48385	0.05582
3662.55518	0.05591
3660.62650	0.05601
3658.69783	0.05606
3656.76915	0.05609
3654.84048	0.05613
3652.91180	0.05607
3650.98312	0.05588
3649.05445	0.05581
3647.12577	0.05599
3645.19710	0.05633
3643.26842	0.05660
3641.33975	0.05675
3639.41107	0.05686
3637.48239	0.05697
3635.55372	0.05705
3633.62504	0.05706
3631.69637	0.05698
3629.76769	0.05689
3627.83902	0.05701
3625.91034	0.05729
3623.98166	0.05747
3622.05299	0.05748
3620.12431	0.05747
3618.19564	0.05752
3616.26696	0.05764
3614.33829	0.05774
3612.40961	0.05779
3610.48093	0.05781
3608.55226	0.05789
3606.62358	0.05805
3604.69491	0.05821
3602.76623	0.05832
3600.83756	0.05839
3598.90888	0.05844
3596.98020	0.05849
3595.05153	0.05855
3593.12285	0.05864
3591.19418	0.05869
3589.26550	0.05867
3587.33683	0.05871
3585.40815	0.05888
3583.47947	0.05908
3581.55080	0.05919
3579.62212	0.05922
3577.69345	0.05926
3575.76477	0.05934
3573.83610	0.05944
3571.90742	0.05949
3569.97874	0.05946
3568.05007	0.05946
3566.12139	0.05959
3564.19272	0.05977
3562.26404	0.05991
3560.33537	0.06001
3558.40669	0.06011
3556.47801	0.06018
3554.54934	0.06022
3552.62066	0.06027
3550.69199	0.06035
3548.76331	0.06042
3546.83464	0.06047
3544.90596	0.06055
3542.97728	0.06066
3541.04861	0.06075
3539.11993	0.06080
3537.19126	0.06085
3535.26258	0.06093
3533.33391	0.06101
3531.40523	0.06107
3529.47655	0.06109
3527.54788	0.06109
3525.61920	0.06110
3523.69053	0.06115
3521.76185	0.06125
3519.83318	0.06133
3517.90450	0.06136
3515.97582	0.06138
3514.04715	0.06141
3512.11847	0.06145
3510.18980	0.06149
3508.26112	0.06153
3506.33245	0.06156
3504.40377	0.06159
3502.47509	0.06162
3500.54642	0.06165
3498.61774	0.06167
3496.68907	0.06169
3494.76039	0.06172
3492.83172	0.06176
3490.90304	0.06179
3488.97436	0.06181
3487.04569	0.06184
3485.11701	0.06190
3483.18834	0.06197
3481.25966	0.06202
3479.33099	0.06207
3477.40231	0.06210
3475.47363	0.06215
3473.54496	0.06224
3471.61628	0.06235
3469.68761	0.06246
3467.75893	0.06256
3465.83026	0.06267
3463.90158	0.06276
3461.97290	0.06284
3460.04423	0.06292
3458.11555	0.06301
3456.18688	0.06311
3454.25820	0.06323
3452.32953	0.06334
3450.40085	0.06341
3448.47217	0.06347
3446.54350	0.06358
3444.61482	0.06371
3442.68615	0.06384
3440.75747	0.06396
3438.82880	0.06411
3436.90012	0.06428
3434.97144	0.06446
3433.04277	0.06466
3431.11409	0.06487
3429.18542	0.06508
3427.25674	0.06525
3425.32807	0.06542
3423.39939	0.06559
3421.47071	0.06576
3419.54204	0.06592
3417.61336	0.06610
3415.68469	0.06630
3413.75601	0.06647
3411.82734	0.06664
3409.89866	0.06680
3407.96998	0.06696
3406.04131	0.06711
3404.11263	0.06724
3402.18396	0.06735
3400.25528	0.06747
3398.32661	0.06759
3396.39793	0.06771
3394.46925	0.06784
3392.54058	0.06799
3390.61190	0.06816
3388.68323	0.06830
3386.75455	0.06842
3384.82588	0.06854
3382.89720	0.06867
3380.96852	0.06881
3379.03985	0.06894
3377.11117	0.06907
3375.18250	0.06921
3373.25382	0.06935
3371.32515	0.06947
3369.39647	0.06958
3367.46779	0.06968
3365.53912	0.06978
3363.61044	0.06990
3361.68177	0.07002
3359.75309	0.07014
3357.82442	0.07026
3355.89574	0.07040
3353.96706	0.07055
3352.03839	0.07069
3350.10971	0.07081
3348.18104	0.07093
3346.25236	0.07104
3344.32369	0.07115
3342.39501	0.07127
3340.46633	0.07141
3338.53766	0.07154
3336.60898	0.07164
3334.68031	0.07177
3332.75163	0.07191
3330.82296	0.07202
3328.89428	0.07211
3326.96560	0.07223
3325.03693	0.07236
3323.10825	0.07248
3321.17958	0.07260
3319.25090	0.07273
3317.32223	0.07286
3315.39355	0.07299
3313.46487	0.07312
3311.53620	0.07326
3309.60752	0.07341
3307.67885	0.07354
3305.75017	0.07365
3303.82150	0.07378
3301.89282	0.07390
3299.96414	0.07401
3298.03547	0.07415
3296.10679	0.07430
3294.17812	0.07444
3292.24944	0.07458
3290.32077	0.07474
3288.39209	0.07489
3286.46341	0.07504
3284.53474	0.07517
3282.60606	0.07528
3280.67739	0.07539
3278.74871	0.07553
3276.82004	0.07569
3274.89136	0.07582
3272.96268	0.07594
3271.03401	0.07608
3269.10533	0.07623
3267.17666	0.07639
3265.24798	0.07655
3263.31931	0.07670
3261.39063	0.07682
3259.46195	0.07693
3257.53328	0.07704
3255.60460	0.07717
3253.67593	0.07731
3251.74725	0.07746
3249.81858	0.07762
3247.88990	0.07775
3245.96122	0.07785
3244.03255	0.07794
3242.10387	0.07807
3240.17520	0.07824
3238.24652	0.07840
3236.31785	0.07854
3234.38917	0.07870
3232.46049	0.07885
3230.53182	0.07899
3228.60314	0.07914
3226.67447	0.07927
3224.74579	0.07938
3222.81712	0.07950
3220.88844	0.07964
3218.95976	0.07978
3217.03109	0.07991
3215.10241	0.08005
3213.17374	0.08020
3211.24506	0.08035
3209.31639	0.08047
3207.38771	0.08059
3205.45903	0.08073
3203.53036	0.08090
3201.60168	0.08106
3199.67301	0.08120
3197.74433	0.08135
3195.81566	0.08150
3193.88698	0.08165
3191.95830	0.08179
3190.02963	0.08196
3188.10095	0.08214
3186.17228	0.08230
3184.24360	0.08243
3182.31493	0.08253
3180.38625	0.08262
3178.45757	0.08272
3176.52890	0.08287
3174.60022	0.08304
3172.67155	0.08321
3170.74287	0.08340
3168.81420	0.08354
3166.88552	0.08365
3164.95684	0.08376
3163.02817	0.08390
3161.09949	0.08404
3159.17082	0.08420
3157.24214	0.08436
3155.31347	0.08450
3153.38479	0.08462
3151.45611	0.08476
3149.52744	0.08494
3147.59876	0.08510
3145.67009	0.08522
3143.74141	0.08533
3141.81274	0.08547
3139.88406	0.08562
3137.95538	0.08577
3136.02671	0.08589
3134.09803	0.08600
3132.16936	0.08613
3130.24068	0.08629
3128.31201	0.08644
3126.38333	0.08656
3124.45465	0.08670
3122.52598	0.08687
3120.59730	0.08702
3118.66863	0.08715
3116.73995	0.08727
3114.81128	0.08740
3112.88260	0.08755
3110.95392	0.08771
3109.02525	0.08787
3107.09657	0.08799
3105.16790	0.08811
3103.23922	0.08826
3101.31055	0.08842
3099.38187	0.08858
3097.45319	0.08873
3095.52452	0.08888
3093.59584	0.08901
3091.66717	0.08915
3089.73849	0.08930
3087.80982	0.08944
3085.88114	0.08956
3083.95246	0.08969
3082.02379	0.08984
3080.09511	0.09000
3078.16644	0.09014
3076.23776	0.09030
3074.30909	0.09044
3072.38041	0.09057
3070.45173	0.09070
3068.52306	0.09084
3066.59438	0.09100
3064.66571	0.09117
3062.73703	0.09133
3060.80836	0.09147
3058.87968	0.09158
3056.95100	0.09169
3055.02233	0.09183
3053.09365	0.09198
3051.16498	0.09213
3049.23630	0.09229
3047.30763	0.09245
3045.37895	0.09259
3043.45027	0.09269
3041.52160	0.09282
3039.59292	0.09298
3037.66425	0.09313
3035.73557	0.09327
3033.80690	0.09340
3031.87822	0.09353
3029.94954	0.09366
3028.02087	0.09380
3026.09219	0.09396
3024.16352	0.09411
3022.23484	0.09423
3020.30617	0.09436
3018.37749	0.09451
3016.44881	0.09465
3014.52014	0.09478
3012.59146	0.09491
3010.66279	0.09503
3008.73411	0.09516
3006.80544	0.09530
3004.87676	0.09545
3002.94808	0.09561
3001.01941	0.09576
2999.09073	0.09590
2997.16206	0.09602
2995.23338	0.09614
2993.30471	0.09627
2991.37603	0.09643
2989.44735	0.09657
2987.51868	0.09670
2985.59000	0.09681
2983.66133	0.09688
2981.73265	0.09692
2979.80398	0.09697
2977.87530	0.09703
2975.94662	0.09707
2974.01795	0.09712
2972.08927	0.09715
2970.16060	0.09711
2968.23192	0.09705
2966.30325	0.09703
2964.37457	0.09704
2962.44589	0.09711
2960.51722	0.09726
2958.58854	0.09744
2956.65987	0.09762
2954.73119	0.09780
2952.80252	0.09801
2950.87384	0.09819
2948.94516	0.09834
2947.01649	0.09845
2945.08781	0.09854
2943.15914	0.09861
2941.23046	0.09863
2939.30179	0.09863
2937.37311	0.09865
2935.44443	0.09865
2933.51576	0.09861
2931.58708	0.09856
2929.65841	0.09853
2927.72973	0.09849
2925.80106	0.09844
2923.87238	0.09842
2921.94370	0.09844
2920.01503	0.09852
2918.08635	0.09868
2916.15768	0.09897
2914.22900	0.09939
2912.30033	0.09989
2910.37165	0.10036
2908.44297	0.10074
2906.51430	0.10104
2904.58562	0.10130
2902.65695	0.10152
2900.72827	0.10174
2898.79960	0.10198
2896.87092	0.10222
2894.94224	0.10245
2893.01357	0.10265
2891.08489	0.10283
2889.15622	0.10302
2887.22754	0.10318
2885.29887	0.10334
2883.37019	0.10352
2881.44151	0.10369
2879.51284	0.10384
2877.58416	0.10399
2875.65549	0.10413
2873.72681	0.10426
2871.79814	0.10438
2869.86946	0.10451
2867.94078	0.10463
2866.01211	0.10472
2864.08343	0.10478
2862.15476	0.10484
2860.22608	0.10489
2858.29741	0.10494
2856.36873	0.10496
2854.44005	0.10492
2852.51138	0.10487
2850.58270	0.10492
2848.65403	0.10519
2846.72535	0.10564
2844.79668	0.10613
2842.86800	0.10657
2840.93932	0.10691
2839.01065	0.10717
2837.08197	0.10740
2835.15330	0.10765
2833.22462	0.10789
2831.29595	0.10809
2829.36727	0.10827
2827.43859	0.10844
2825.50992	0.10860
2823.58124	0.10877
2821.65257	0.10894
2819.72389	0.10910
2817.79522	0.10925
2815.86654	0.10939
2813.93786	0.10955
2812.00919	0.10973
2810.08051	0.10991
2808.15184	0.11008
2806.22316	0.11022
2804.29449	0.11036
2802.36581	0.11051
2800.43713	0.11067
2798.50846	0.11083
2796.57978	0.11101
2794.65111	0.11120
2792.72243	0.11139
2790.79376	0.11155
2788.86508	0.11168
2786.93640	0.11180
2785.00773	0.11193
2783.07905	0.11211
2781.15038	0.11229
2779.22170	0.11242
2777.29303	0.11254
2775.36435	0.11271
2773.43567	0.11293
2771.50700	0.11312
2769.57832	0.11325
2767.64965	0.11336
2765.72097	0.11347
2763.79230	0.11362
2761.86362	0.11379
2759.93494	0.11399
2758.00627	0.11416
2756.07759	0.11431
2754.14892	0.11444
2752.22024	0.11456
2750.29157	0.11467
2748.36289	0.11482
2746.43421	0.11498
2744.50554	0.11514
2742.57686	0.11528
2740.64819	0.11543
2738.71951	0.11559
2736.79084	0.11573
2734.86216	0.11584
2732.93348	0.11596
2731.00481	0.11611
2729.07613	0.11628
2727.14746	0.11645
2725.21878	0.11662
2723.29011	0.11678
2721.36143	0.11693
2719.43275	0.11707
2717.50408	0.11722
2715.57540	0.11737
2713.64673	0.11751
2711.71805	0.11766
2709.78938	0.11783
2707.86070	0.11798
2705.93202	0.11810
2704.00335	0.11826
2702.07467	0.11843
2700.14600	0.11858
2698.21732	0.11871
2696.28865	0.11882
2694.35997	0.11895
2692.43129	0.11913
2690.50262	0.11931
2688.57394	0.11947
2686.64527	0.11961
2684.71659	0.11973
2682.78792	0.11985
2680.85924	0.11999
2678.93056	0.12011
2677.00189	0.12022
2675.07321	0.12036
2673.14454	0.12053
2671.21586	0.12070
2669.28719	0.12087
2667.35851	0.12101
2665.42983	0.12114
2663.50116	0.12129
2661.57248	0.12146
2659.64381	0.12162
2657.71513	0.12176
2655.78646	0.12191
2653.85778	0.12210
2651.92910	0.12229
2650.00043	0.12243
2648.07175	0.12254
2646.14308	0.12268
2644.21440	0.12283
2642.28573	0.12296
2640.35705	0.12309
2638.42837	0.12325
2636.49970	0.12342
2634.57102	0.12357
2632.64235	0.12371
2630.71367	0.12386
2628.78500	0.12403
2626.85632	0.12421
2624.92764	0.12441
2622.99897	0.12459
2621.07029	0.12474
2619.14162	0.12489
2617.21294	0.12509
2615.28427	0.12526
2613.35559	0.12539
2611.42691	0.12553
2609.49824	0.12571
2607.56956	0.12588
2605.64089	0.12601
2603.71221	0.12612
2601.78354	0.12628
2599.85486	0.12646
2597.92618	0.12662
2595.99751	0.12676
2594.06883	0.12693
2592.14016	0.12711
2590.21148	0.12728
2588.28281	0.12742
2586.35413	0.12757
2584.42545	0.12773
2582.49678	0.12791
2580.56810	0.12811
2578.63943	0.12826
2576.71075	0.12836
2574.78208	0.12848
2572.85340	0.12866
2570.92472	0.12885
2568.99605	0.12898
2567.06737	0.12908
2565.13870	0.12923
2563.21002	0.12940
2561.28135	0.12957
2559.35267	0.12975
2557.42399	0.12991
2555.49532	0.13007
2553.56664	0.13024
2551.63797	0.13040
2549.70929	0.13055
2547.78062	0.13072
2545.85194	0.13087
2543.92326	0.13095
2541.99459	0.13102
2540.06591	0.13117
2538.13724	0.13135
2536.20856	0.13151
2534.27989	0.13166
2532.35121	0.13181
2530.42253	0.13197
2528.49386	0.13214
2526.56518	0.13231
2524.63651	0.13247
2522.70783	0.13263
2520.77916	0.13279
2518.85048	0.13295
2516.92181	0.13309
2514.99313	0.13324
2513.06445	0.13341
2511.13578	0.13360
2509.20710	0.13379
2507.27843	0.13397
2505.34975	0.13416
2503.42108	0.13433
2501.49240	0.13450
2499.56372	0.13466
2497.63505	0.13480
2495.70637	0.13495
2493.77770	0.13514
2491.84902	0.13532
2489.92035	0.13548
2487.99167	0.13566
2486.06299	0.13585
2484.13432	0.13600
2482.20564	0.13612
2480.27697	0.13629
2478.34829	0.13650
2476.41962	0.13669
2474.49094	0.13682
2472.56226	0.13695
2470.63359	0.13711
2468.70491	0.13729
2466.77624	0.13745
2464.84756	0.13761
2462.91889	0.13778
2460.99021	0.13794
2459.06153	0.13810
2457.13286	0.13825
2455.20418	0.13840
2453.27551	0.13857
2451.34683	0.13875
2449.41816	0.13893
2447.48948	0.13909
2445.56080	0.13926
2443.63213	0.13948
2441.70345	0.13966
2439.77478	0.13979
2437.84610	0.13993
2435.91743	0.14009
2433.98875	0.14025
2432.06007	0.14042
2430.13140	0.14060
2428.20272	0.14076
2426.27405	0.14089
2424.34537	0.14105
2422.41670	0.14125
2420.48802	0.14145
2418.55934	0.14164
2416.63067	0.14183
2414.70199	0.14195
2412.77332	0.14205
2410.84464	0.14220
2408.91597	0.14236
2406.98729	0.14251
2405.05861	0.14266
2403.12994	0.14285
2401.20126	0.14306
2399.27259	0.14323
2397.34391	0.14335
2395.41524	0.14348
2393.48656	0.14361
2391.55788	0.14375
2389.62921	0.14391
2387.70053	0.14408
2385.77186	0.14422
2383.84318	0.14434
2381.91451	0.14445
2379.98583	0.14454
2378.05715	0.14461
2376.12848	0.14465
2374.19980	0.14469
2372.27113	0.14475
2370.34245	0.14483
2368.41378	0.14489
2366.48510	0.14492
2364.55642	0.14500
2362.62775	0.14516
2360.69907	0.14536
2358.77040	0.14556
2356.84172	0.14579
2354.91305	0.14605
2352.98437	0.14636
2351.05569	0.14671
2349.12702	0.14698
2347.19834	0.14709
2345.26967	0.14714
2343.34099	0.14719
2341.41232	0.14723
2339.48364	0.14732
2337.55496	0.14743
2335.62629	0.14756
2333.69761	0.14773
2331.76894	0.14795
2329.84026	0.14815
2327.91159	0.14834
2325.98291	0.14856
2324.05423	0.14879
2322.12556	0.14901
2320.19688	0.14921
2318.26821	0.14942
2316.33953	0.14966
2314.41086	0.14991
2312.48218	0.15013
2310.55350	0.15029
2308.62483	0.15045
2306.69615	0.15063
2304.76748	0.15088
2302.83880	0.15112
2300.91013	0.15129
2298.98145	0.15143
2297.05277	0.15159
2295.12410	0.15177
2293.19542	0.15196
2291.26675	0.15214
2289.33807	0.15228
2287.40940	0.15240
2285.48072	0.15257
2283.55204	0.15281
2281.62337	0.15304
2279.69469	0.15321
2277.76602	0.15334
2275.83734	0.15346
2273.90867	0.15361
2271.97999	0.15378
2270.05131	0.15395
2268.12264	0.15410
2266.19396	0.15425
2264.26529	0.15444
2262.33661	0.15464
2260.40794	0.15483
2258.47926	0.15501
2256.55058	0.15518
2254.62191	0.15532
2252.69323	0.15542
2250.76456	0.15555
2248.83588	0.15575
2246.90721	0.15595
2244.97853	0.15610
2243.04985	0.15625
2241.12118	0.15639
2239.19250	0.15653
2237.26383	0.15669
2235.33515	0.15686
2233.40648	0.15703
2231.47780	0.15720
2229.54912	0.15735
2227.62045	0.15751
2225.69177	0.15771
2223.76310	0.15793
2221.83442	0.15814
2219.90575	0.15827
2217.97707	0.15841
2216.04839	0.15857
2214.11972	0.15870
2212.19104	0.15883
2210.26237	0.15898
2208.33369	0.15914
2206.40502	0.15931
2204.47634	0.15947
2202.54766	0.15961
2200.61899	0.15976
2198.69031	0.15992
2196.76164	0.16008
2194.83296	0.16026
2192.90429	0.16045
2190.97561	0.16061
2189.04693	0.16075
2187.11826	0.16087
2185.18958	0.16100
2183.26091	0.16118
2181.33223	0.16137
2179.40356	0.16153
2177.47488	0.16167
2175.54620	0.16182
2173.61753	0.16199
2171.68885	0.16215
2169.76018	0.16234
2167.83150	0.16253
2165.90283	0.16268
2163.97415	0.16282
2162.04547	0.16299
2160.11680	0.16316
2158.18812	0.16333
2156.25945	0.16353
2154.33077	0.16372
2152.40210	0.16386
2150.47342	0.16400
2148.54474	0.16418
2146.61607	0.16437
2144.68739	0.16451
2142.75872	0.16463
2140.83004	0.16476
2138.90137	0.16492
2136.97269	0.16511
2135.04401	0.16530
2133.11534	0.16547
2131.18666	0.16561
2129.25799	0.16576
2127.32931	0.16591
2125.40064	0.16607
2123.47196	0.16624
2121.54328	0.16643
2119.61461	0.16663
2117.68593	0.16680
2115.75726	0.16692
2113.82858	0.16706
2111.89991	0.16723
2109.97123	0.16742
2108.04255	0.16761
2106.11388	0.16780
2104.18520	0.16801
2102.25653	0.16820
2100.32785	0.16835
2098.39918	0.16849
2096.47050	0.16863
2094.54182	0.16878
2092.61315	0.16891
2090.68447	0.16904
2088.75580	0.16918
2086.82712	0.16934
2084.89845	0.16951
2082.96977	0.16973
2081.04109	0.16996
2079.11242	0.17014
2077.18374	0.17025
2075.25507	0.17037
2073.32639	0.17055
2071.39772	0.17076
2069.46904	0.17091
2067.54036	0.17101
2065.61169	0.17111
2063.68301	0.17128
2061.75434	0.17150
2059.82566	0.17172
2057.89699	0.17192
2055.96831	0.17210
2054.03963	0.17225
2052.11096	0.17240
2050.18228	0.17256
2048.25361	0.17273
2046.32493	0.17292
2044.39626	0.17310
2042.46758	0.17325
2040.53890	0.17336
2038.61023	0.17350
2036.68155	0.17368
2034.75288	0.17385
2032.82420	0.17400
2030.89553	0.17413
2028.96685	0.17430
2027.03817	0.17451
2025.10950	0.17471
2023.18082	0.17487
2021.25215	0.17501
2019.32347	0.17514
2017.39480	0.17529
2015.46612	0.17547
2013.53744	0.17564
2011.60877	0.17579
2009.68009	0.17597
2007.75142	0.17618
2005.82274	0.17639
2003.89407	0.17658
2001.96539	0.17673
2000.03671	0.17684
1998.10804	0.17700
1996.17936	0.17720
1994.25069	0.17730
1992.32201	0.17734
1990.39334	0.17748
1988.46466	0.17767
1986.53598	0.17786
1984.60731	0.17805
1982.67863	0.17824
1980.74996	0.17840
1978.82128	0.17853
1976.89261	0.17865
1974.96393	0.17878
1973.03525	0.17891
1971.10658	0.17905
1969.17790	0.17917
1967.24923	0.17930
1965.32055	0.17943
1963.39188	0.17957
1961.46320	0.17975
1959.53452	0.17996
1957.60585	0.18015
1955.67717	0.18032
1953.74850	0.18049
1951.81982	0.18065
1949.89115	0.18080
1947.96247	0.18092
1946.03379	0.18101
1944.10512	0.18108
1942.17644	0.18120
1940.24777	0.18143
1938.31909	0.18168
1936.39042	0.18191
1934.46174	0.18209
1932.53306	0.18223
1930.60439	0.18236
1928.67571	0.18253
1926.74704	0.18269
1924.81836	0.18278
1922.88969	0.18286
1920.96101	0.18298
1919.03233	0.18310
1917.10366	0.18331
1915.17498	0.18363
1913.24631	0.18390
1911.31763	0.18404
1909.38896	0.18415
1907.46028	0.18429
1905.53160	0.18444
1903.60293	0.18459
1901.67425	0.18474
1899.74558	0.18488
1897.81690	0.18502
1895.88823	0.18514
1893.95955	0.18529
1892.03087	0.18542
1890.10220	0.18552
1888.17352	0.18568
1886.24485	0.18591
1884.31617	0.18612
1882.38750	0.18631
1880.45882	0.18650
1878.53014	0.18663
1876.60147	0.18675
1874.67279	0.18692
1872.74412	0.18697
1870.81544	0.18685
1868.88677	0.18688
1866.95809	0.18722
1865.02941	0.18760
1863.10074	0.18783
1861.17206	0.18802
1859.24339	0.18821
1857.31471	0.18842
1855.38604	0.18862
1853.45736	0.18882
1851.52868	0.18896
1849.60001	0.18906
1847.67133	0.18910
1845.74266	0.18910
1843.81398	0.18922
1841.88531	0.18958
1839.95663	0.18993
1838.02795	0.19010
1836.09928	0.19021
1834.17060	0.19034
1832.24193	0.19041
1830.31325	0.19047
1828.38458	0.19063
1826.45590	0.19082
1824.52722	0.19103
1822.59855	0.19128
1820.66987	0.19150
1818.74120	0.19166
1816.81252	0.19181
1814.88385	0.19193
1812.95517	0.19200
1811.02649	0.19213
1809.09782	0.19233
1807.16914	0.19249
1805.24047	0.19255
1803.31179	0.19253
1801.38312	0.19257
1799.45444	0.19276
1797.52576	0.19297
1795.59709	0.19300
1793.66841	0.19293
1791.73974	0.19306
1789.81106	0.19343
1787.88239	0.19372
1785.95371	0.19380
1784.02503	0.19387
1782.09636	0.19400
1780.16768	0.19413
1778.23901	0.19426
1776.31033	0.19433
1774.38166	0.19427
1772.45298	0.19423
1770.52430	0.19437
1768.59563	0.19463
1766.66695	0.19490
1764.73828	0.19508
1762.80960	0.19511
1760.88093	0.19513
1758.95225	0.19522
1757.02357	0.19533
1755.09490	0.19529
1753.16622	0.19487
1751.23755	0.19447
1749.30887	0.19460
1747.38020	0.19497
1745.45152	0.19515
1743.52284	0.19514
1741.59417	0.19501
1739.66549	0.19498
1737.73682	0.19512
1735.80814	0.19509
1733.87947	0.19501
1731.95079	0.19526
1730.02211	0.19568
1728.09344	0.19603
1726.16476	0.19627
1724.23609	0.19640
1722.30741	0.19642
1720.37874	0.19622
1718.45006	0.19592
1716.52138	0.19599
1714.59271	0.19645
1712.66403	0.19692
1710.73536	0.19721
1708.80668	0.19728
1706.87801	0.19720
1704.94933	0.19717
1703.02065	0.19705
1701.09198	0.19684
1699.16330	0.19692
1697.23463	0.19723
1695.30595	0.19754
1693.37728	0.19779
1691.44860	0.19784
1689.51992	0.19782
1687.59125	0.19777
1685.66257	0.19747
1683.73390	0.19727
1681.80522	0.19754
1679.87655	0.19788
1677.94787	0.19778
1676.01919	0.19745
1674.09052	0.19747
1672.16184	0.19770
1670.23317	0.19788
1668.30449	0.19815
1666.37582	0.19841
1664.44714	0.19842
1662.51846	0.19844
1660.58979	0.19864
1658.66111	0.19879
1656.73244	0.19850
1654.80376	0.19775
1652.87509	0.19729
1650.94641	0.19764
1649.01773	0.19808
1647.08906	0.19827
1645.16038	0.19860
1643.23171	0.19898
1641.30303	0.19913
1639.37436	0.19907
1637.44568	0.19892
1635.51700	0.19897
1633.58833	0.19932
1631.65965	0.19959
1629.73098	0.19956
1627.80230	0.19943
1625.87363	0.19926
1623.94495	0.19893
1622.01627	0.19863
1620.08760	0.19855
1618.15892	0.19870
1616.23025	0.19918
1614.30157	0.19990
1612.37290	0.20045
1610.44422	0.20074
1608.51554	0.20101
1606.58687	0.20133
1604.65819	0.20161
1602.72952	0.20185
1600.80084	0.20211
1598.87217	0.20234
1596.94349	0.20245
1595.01481	0.20251
1593.08614	0.20263
1591.15746	0.20279
1589.22879	0.20296
1587.30011	0.20312
1585.37144	0.20328
1583.44276	0.20344
1581.51408	0.20357
1579.58541	0.20351
1577.65673	0.20321
1575.72806	0.20320
1573.79938	0.20370
1571.87071	0.20408
1569.94203	0.20416
1568.01335	0.20427
1566.08468	0.20444
1564.15600	0.20449
1562.22733	0.20418
1560.29865	0.20368
1558.36998	0.20376
1556.44130	0.20448
1554.51262	0.20514
1552.58395	0.20545
1550.65527	0.20554
1548.72660	0.20555
1546.79792	0.20543
1544.86925	0.20513
1542.94057	0.20488
1541.01189	0.20494
1539.08322	0.20542
1537.15454	0.20592
1535.22587	0.20594
1533.29719	0.20589
1531.36852	0.20619
1529.43984	0.20646
1527.51116	0.20641
1525.58249	0.20623
1523.65381	0.20600
1521.72514	0.20595
1519.79646	0.20621
1517.86779	0.20646
1515.93911	0.20661
1514.01043	0.20683
1512.08176	0.20692
1510.15308	0.20654
1508.22441	0.20594
1506.29573	0.20597
1504.36706	0.20676
1502.43838	0.20733
1500.50970	0.20725
1498.58103	0.20697
1496.65235	0.20697
1494.72368	0.20724
1492.79500	0.20731
1490.86633	0.20706
1488.93765	0.20689
1487.00897	0.20698
1485.08030	0.20715
1483.15162	0.20716
1481.22295	0.20699
1479.29427	0.20662
1477.36560	0.20606
1475.43692	0.20548
1473.50824	0.20508
1471.57957	0.20494
1469.65089	0.20492
1467.72222	0.20463
1465.79354	0.20416
1463.86487	0.20399
1461.93619	0.20399
1460.00751	0.20355
1458.07884	0.20281
1456.15016	0.20265
1454.22149	0.20316
1452.29281	0.20359
1450.36414	0.20369
1448.43546	0.20375
1446.50678	0.20388
1444.57811	0.20402
1442.64943	0.20415
1440.72076	0.20421
1438.79208	0.20412
1436.86341	0.20409
1434.93473	0.20435
1433.00605	0.20470
1431.07738	0.20486
1429.14870	0.20498
1427.22003	0.20512
1425.29135	0.20514
1423.36268	0.20499
1421.43400	0.20452
1419.50532	0.20413
1417.57665	0.20445
1415.64797	0.20507
1413.71930	0.20533
1411.79062	0.20534
1409.86195	0.20533
1407.93327	0.20531
1406.00459	0.20524
1404.07592	0.20521
1402.14724	0.20524
1400.21857	0.20521
1398.28989	0.20510
1396.36122	0.20495
1394.43254	0.20490
1392.50386	0.20499
1390.57519	0.20496
1388.64651	0.20465
1386.71784	0.20430
1384.78916	0.20415
1382.86049	0.20417
1380.93181	0.20418
1379.00313	0.20415
1377.07446	0.20407
1375.14578	0.20394
1373.21711	0.20389
1371.28843	0.20399
1369.35976	0.20408
1367.43108	0.20409
1365.50240	0.20401
1363.57373	0.20386
1361.64505	0.20381
1359.71638	0.20394
1357.78770	0.20410
1355.85903	0.20417
1353.93035	0.20422
1352.00167	0.20430
1350.07300	0.20438
1348.14432	0.20446
1346.21565	0.20451
1344.28697	0.20453
1342.35830	0.20449
1340.42962	0.20437
1338.50094	0.20428
1336.57227	0.20429
1334.64359	0.20429
1332.71492	0.20423
1330.78624	0.20414
1328.85757	0.20402
1326.92889	0.20385
1325.00021	0.20366
1323.07154	0.20346
1321.14286	0.20325
1319.21419	0.20307
1317.28551	0.20289
1315.35684	0.20269
1313.42816	0.20251
1311.49948	0.20235
1309.57081	0.20214
1307.64213	0.20189
1305.71346	0.20167
1303.78478	0.20146
1301.85611	0.20123
1299.92743	0.20102
1297.99875	0.20086
1296.07008	0.20066
1294.14140	0.20040
1292.21273	0.20017
1290.28405	0.19999
1288.35538	0.19982
1286.42670	0.19965
1284.49802	0.19947
1282.56935	0.19925
1280.64067	0.19898
1278.71200	0.19867
1276.78332	0.19832
1274.85465	0.19793
1272.92597	0.19747
1270.99729	0.19683
1269.06862	0.19594
1267.13994	0.19492
1265.21127	0.19404
1263.28259	0.19352
1261.35392	0.19339
1259.42524	0.19349
1257.49656	0.19368
1255.56789	0.19382
1253.63921	0.19380
1251.71054	0.19364
1249.78186	0.19340
1247.85319	0.19313
1245.92451	0.19282
1243.99583	0.19243
1242.06716	0.19198
1240.13848	0.19147
1238.20981	0.19089
1236.28113	0.19032
1234.35246	0.18981
1232.42378	0.18929
1230.49510	0.18869
1228.56643	0.18810
1226.63775	0.18757
1224.70908	0.18712
1222.78040	0.18672
1220.85173	0.18626
1218.92305	0.18571
1216.99437	0.18515
1215.06570	0.18462
1213.13702	0.18409
1211.20835	0.18354
1209.27967	0.18297
1207.35100	0.18236
1205.42232	0.18172
1203.49364	0.18111
1201.56497	0.18055
1199.63629	0.18000
1197.70762	0.17941
1195.77894	0.17882
1193.85027	0.17824
1191.92159	0.17762
1189.99291	0.17692
1188.06424	0.17615
1186.13556	0.17536
1184.20689	0.17456
1182.27821	0.17376
1180.34954	0.17296
1178.42086	0.17214
1176.49218	0.17132
1174.56351	0.17044
1172.63483	0.16955
1170.70616	0.16870
1168.77748	0.16786
1166.84881	0.16698
1164.92013	0.16610
1162.99145	0.16526
1161.06278	0.16441
1159.13410	0.16352
1157.20543	0.16267
1155.27675	0.16191
1153.34808	0.16121
1151.41940	0.16049
1149.49072	0.15973
1147.56205	0.15890
1145.63337	0.15798
1143.70470	0.15707
1141.77602	0.15622
1139.84735	0.15530
1137.91867	0.15418
1135.98999	0.15289
1134.06132	0.15145
1132.13264	0.14985
1130.20397	0.14805
1128.27529	0.14600
1126.34662	0.14372
1124.41794	0.14136
1122.48926	0.13900
1120.56059	0.13672
1118.63191	0.13451
1116.70324	0.13241
1114.77456	0.13053
1112.84589	0.12893
1110.91721	0.12762
1108.98853	0.12660
1107.05986	0.12582
1105.13118	0.12529
1103.20251	0.12510
1101.27383	0.12530
1099.34516	0.12576
1097.41648	0.12635
1095.48780	0.12703
1093.55913	0.12780
1091.63045	0.12861
1089.70178	0.12941
1087.77310	0.13016
1085.84443	0.13083
1083.91575	0.13139
1081.98707	0.13185
1080.05840	0.13220
1078.12972	0.13241
1076.20105	0.13249
1074.27237	0.13254
1072.34370	0.13263
1070.41502	0.13278
1068.48634	0.13293
1066.55767	0.13307
1064.62899	0.13324
1062.70032	0.13344
1060.77164	0.13367
1058.84297	0.13388
1056.91429	0.13409
1054.98561	0.13437
1053.05694	0.13474
1051.12826	0.13508
1049.19959	0.13532
1047.27091	0.13561
1045.34224	0.13605
1043.41356	0.13649
1041.48488	0.13684
1039.55621	0.13718
1037.62753	0.13761
1035.69886	0.13809
1033.77018	0.13853
1031.84151	0.13892
1029.91283	0.13929
1027.98415	0.13961
1026.05548	0.13988
1024.12680	0.14018
1022.19813	0.14053
1020.26945	0.14092
1018.34078	0.14137
1016.41210	0.14183
1014.48342	0.14226
1012.55475	0.14275
1010.62607	0.14333
1008.69740	0.14394
1006.76872	0.14451
1004.84005	0.14504
1002.91137	0.14551
1000.98269	0.14586
999.05402	0.14613
997.12534	0.14634
995.19667	0.14650
993.26799	0.14666
991.33932	0.14679
989.41064	0.14682
987.48196	0.14680
985.55329	0.14682
983.62461	0.14682
981.69594	0.14673
979.76726	0.14662
977.83859	0.14649
975.90991	0.14635
973.98123	0.14619
972.05256	0.14600
970.12388	0.14584
968.19521	0.14569
966.26653	0.14549
964.33786	0.14528
962.40918	0.14507
960.48050	0.14485
958.55183	0.14469
956.62315	0.14452
954.69448	0.14433
952.76580	0.14420
950.83713	0.14408
948.90845	0.14388
946.97977	0.14366
945.05110	0.14345
943.12242	0.14321
941.19375	0.14292
939.26507	0.14258
937.33640	0.14210
935.40772	0.14157
933.47904	0.14109
931.55037	0.14059
929.62169	0.14003
927.69302	0.13951
925.76434	0.13901
923.83567	0.13849
921.90699	0.13794
919.97831	0.13739
918.04964	0.13679
916.12096	0.13608
914.19229	0.13528
912.26361	0.13445
910.33494	0.13360
908.40626	0.13283
906.47758	0.13222
904.54891	0.13171
902.62023	0.13116
900.69156	0.13060
898.76288	0.13006
896.83421	0.12952
894.90553	0.12897
892.97685	0.12847
891.04818	0.12801
889.11950	0.12759
887.19083	0.12715
885.26215	0.12669
883.33348	0.12630
881.40480	0.12596
879.47612	0.12560
877.54745	0.12522
875.61877	0.12490
873.69010	0.12466
871.76142	0.12447
869.83275	0.12435
867.90407	0.12424
865.97539	0.12405
864.04672	0.12382
862.11804	0.12366
860.18937	0.12357
858.26069	0.12345
856.33202	0.12329
854.40334	0.12315
852.47466	0.12296
850.54599	0.12273
848.61731	0.12246
846.68864	0.12214
844.75996	0.12179
842.83129	0.12146
840.90261	0.12111
838.97394	0.12072
837.04526	0.12026
835.11658	0.11971
833.18791	0.11905
831.25923	0.11822
829.33056	0.11721
827.40188	0.11615
825.47321	0.11514
823.54453	0.11419
821.61585	0.11335
819.68718	0.11266
817.75850	0.11208
815.82983	0.11156
813.90115	0.11111
811.97248	0.11078
810.04380	0.11057
808.11512	0.11042
806.18645	0.11034
804.25777	0.11033
802.32910	0.11031
800.40042	0.11008
798.47175	0.10951
796.54307	0.10881
794.61439	0.10829
792.68572	0.10795
790.75704	0.10767
788.82837	0.10742
786.89969	0.10723
784.97102	0.10702
783.04234	0.10673
781.11366	0.10638
779.18499	0.10599
777.25631	0.10560
775.32764	0.10532
773.39896	0.10508
771.47029	0.10474
769.54161	0.10434
767.61293	0.10400
765.68426	0.10366
763.75558	0.10324
761.82691	0.10275
759.89823	0.10221
757.96956	0.10166
756.04088	0.10113
754.11220	0.10056
752.18353	0.09991
750.25485	0.09921
748.32618	0.09851
746.39750	0.09778
744.46883	0.09693
742.54015	0.09594
740.61147	0.09501
738.68280	0.09447
736.75412	0.09432
734.82545	0.09427
732.89677	0.09428
730.96810	0.09438
729.03942	0.09447
727.11074	0.09454
725.18207	0.09463
723.25339	0.09476
721.32472	0.09491
719.39604	0.09504
717.46737	0.09526
715.53869	0.09570
713.61001	0.09624
711.68134	0.09664
709.75266	0.09688
707.82399	0.09698
705.89531	0.09691
703.96664	0.09667
702.03796	0.09632
700.10928	0.09590
698.18061	0.09539
696.25193	0.09479
694.32326	0.09420
692.39458	0.09367
690.46591	0.09319
688.53723	0.09269
686.60855	0.09215
684.67988	0.09168
682.75120	0.09125
680.82253	0.09072
678.89385	0.09006
676.96518	0.08938
675.03650	0.08877
673.10782	0.08818
671.17915	0.08750
669.25047	0.08668
667.32180	0.08587
665.39312	0.08508
663.46445	0.08421
661.53577	0.08332
659.60709	0.08244
657.67842	0.08156
655.74974	0.08071
653.82107	0.07991
651.89239	0.07918
649.96372	0.07847
648.03504	0.07767
646.10636	0.07673
644.17769	0.07574
642.24901	0.07475
640.32034	0.07373
638.39166	0.07270
636.46299	0.07159
634.53431	0.07036
632.60563	0.06887
630.67696	0.06656
628.74828	0.06302
626.81961	0.05850
624.89093	0.05388
622.96226	0.05019
621.03358	0.04791
619.10490	0.04678
617.17623	0.04612
615.24755	0.04528
613.31888	0.04421
611.39020	0.04319
609.46153	0.04261
607.53285	0.04269
605.60417	0.04317
603.67550	0.04375
601.74682	0.04448
599.81815	0.04541
597.88947	0.04628
595.96080	0.04688
594.03212	0.04726
592.10344	0.04753
590.17477	0.04771
588.24609	0.04779
586.31742	0.04769
584.38874	0.04747
582.46007	0.04711
580.53139	0.04666
578.60271	0.04621
576.67404	0.04577
574.74536	0.04526
572.81669	0.04472
570.88801	0.04415
568.95934	0.04355
567.03066	0.04296
565.10198	0.04249
563.17331	0.04213
561.24463	0.04176
559.31596	0.04144
557.38728	0.04124
555.45861	0.04109
553.52993	0.04090
551.60125	0.04070
549.67258	0.04049
547.74390	0.04029
545.81523	0.04014
543.88655	0.04002
541.95788	0.03994
540.02920	0.03993
538.10052	0.03991
536.17185	0.03976
534.24317	0.03948
532.31450	0.03913
530.38582	0.03869
528.45715	0.03830
526.52847	0.03806
524.59979	0.03784
522.67112	0.03750
520.74244	0.03706
518.81377	0.03651
516.88509	0.03576
514.95642	0.03497
513.02774	0.03443
511.09906	0.03429
509.17039	0.03434
507.24171	0.03427
505.31304	0.03398
503.38436	0.03356
501.45569	0.03310
499.52701	0.03266
497.59833	0.03217
495.66966	0.03159
493.74098	0.03097
491.81231	0.03035
489.88363	0.02975
487.95496	0.02918
486.02628	0.02870
484.09760	0.02821
482.16893	0.02764
480.24025	0.02707
478.31158	0.02652
476.38290	0.02598
474.45423	0.02546
472.52555	0.02493
470.59687	0.02444
468.66820	0.02407
466.73952	0.02378
464.81085	0.02349
462.88217	0.02324
460.95350	0.02307
459.02482	0.02300
457.09614	0.02297
455.16747	0.02294
453.23879	0.02292
451.31012	0.02289
449.38144	0.02283
447.45277	0.02270
445.52409	0.02250
443.59541	0.02230
441.66674	0.02214
439.73806	0.02186
437.80939	0.02133
435.88071	0.02067
433.95204	0.02007
432.02336	0.01960
430.09468	0.01915
428.16601	0.01855
426.23733	0.01788
424.30866	0.01722
422.37998	0.01650
420.45131	0.01573
418.52263	0.01506
416.59395	0.01447
414.66528	0.01380
412.73660	0.01306
410.80793	0.01240
408.87925	0.01190
406.95058	0.01146
405.02190	0.01099
403.09322	0.01041
401.16455	0.00972
399.23587	0.00897
397.30720	0.00827
395.37852	0.00770
393.44985	0.00725
391.52117	0.00677
389.59249	0.00629
387.66382	0.00593
385.73514	0.00564
383.80647	0.00528
381.87779	0.00490
379.94912	0.00450
378.02044	0.00403
376.09176	0.00358
374.16309	0.00326
372.23441	0.00304
370.30574	0.00281
368.37706	0.00261
