7496.76250	0.00121
7494.83382	0.00121
7492.90514	0.00122
7490.97647	0.00123
7489.04779	0.00123
7487.11912	0.00123
7485.19044	0.00123
7483.26177	0.00123
7481.33309	0.00122
7479.40441	0.00120
7477.47574	0.00121
7475.54706	0.00122
7473.61839	0.00123
7471.68971	0.00124
7469.76104	0.00125
7467.83236	0.00126
7465.90368	0.00126
7463.97501	0.00126
7462.04633	0.00126
7460.11766	0.00127
7458.18898	0.00129
7456.26031	0.00129
7454.33163	0.00128
7452.40295	0.00127
7450.47428	0.00128
7448.54560	0.00129
7446.61693	0.00128
7444.68825	0.00127
7442.75958	0.00129
7440.83090	0.00131
7438.90222	0.00133
7436.97355	0.00133
7435.04487	0.00132
7433.11620	0.00132
7431.18752	0.00132
7429.25885	0.00132
7427.33017	0.00131
7425.40149	0.00132
7423.47282	0.00133
7421.54414	0.00133
7419.61547	0.00133
7417.68679	0.00135
7415.75812	0.00136
7413.82944	0.00137
7411.90076	0.00134
7409.97209	0.00132
7408.04341	0.00132
7406.11474	0.00134
7404.18606	0.00135
7402.25739	0.00137
7400.32871	0.00138
7398.40003	0.00138
7396.47136	0.00137
7394.54268	0.00137
7392.61401	0.00138
7390.68533	0.00138
7388.75666	0.00138
7386.82798	0.00140
7384.89930	0.00141
7382.97063	0.00141
7381.04195	0.00138
7379.11328	0.00137
7377.18460	0.00139
7375.25593	0.00142
7373.32725	0.00143
7371.39857	0.00142
7369.46990	0.00143
7367.54122	0.00143
7365.61255	0.00143
7363.68387	0.00142
7361.75520	0.00142
7359.82652	0.00143
7357.89784	0.00144
7355.96917	0.00145
7354.04049	0.00147
7352.11182	0.00148
7350.18314	0.00147
7348.25447	0.00147
7346.32579	0.00148
7344.39711	0.00148
7342.46844	0.00148
7340.53976	0.00145
7338.61109	0.00145
7336.68241	0.00146
7334.75374	0.00148
7332.82506	0.00150
7330.89638	0.00151
7328.96771	0.00152
7327.03903	0.00153
7325.11036	0.00152
7323.18168	0.00151
7321.25301	0.00151
7319.32433	0.00150
7317.39565	0.00150
7315.46698	0.00152
7313.53830	0.00154
7311.60963	0.00155
7309.68095	0.00155
7307.75228	0.00154
7305.82360	0.00153
7303.89492	0.00154
7301.96625	0.00156
7300.03757	0.00158
7298.10890	0.00158
7296.18022	0.00158
7294.25155	0.00158
7292.32287	0.00159
7290.39419	0.00159
7288.46552	0.00159
7286.53684	0.00158
7284.60817	0.00156
7282.67949	0.00155
7280.75082	0.00157
7278.82214	0.00160
7276.89346	0.00161
7274.96479	0.00162
7273.03611	0.00163
7271.10744	0.00164
7269.17876	0.00164
7267.25009	0.00163
7265.32141	0.00163
7263.39273	0.00163
7261.46406	0.00163
7259.53538	0.00164
7257.60671	0.00165
7255.67803	0.00166
7253.74936	0.00167
7251.82068	0.00166
7249.89200	0.00166
7247.96333	0.00166
7246.03465	0.00167
7244.10598	0.00166
7242.17730	0.00166
7240.24863	0.00166
7238.31995	0.00168
7236.39127	0.00168
7234.46260	0.00167
7232.53392	0.00166
7230.60525	0.00166
7228.67657	0.00168
7226.74790	0.00169
7224.81922	0.00171
7222.89054	0.00172
7220.96187	0.00172
7219.03319	0.00172
7217.10452	0.00171
7215.17584	0.00170
7213.24717	0.00171
7211.31849	0.00173
7209.38981	0.00175
7207.46114	0.00175
7205.53246	0.00174
7203.60379	0.00172
7201.67511	0.00172
7199.74644	0.00174
7197.81776	0.00176
7195.88908	0.00176
7193.96041	0.00176
7192.03173	0.00176
7190.10306	0.00177
7188.17438	0.00179
7186.24571	0.00181
7184.31703	0.00181
7182.38835	0.00181
7180.45968	0.00181
7178.53100	0.00180
7176.60233	0.00180
7174.67365	0.00179
7172.74498	0.00178
7170.81630	0.00179
7168.88762	0.00180
7166.95895	0.00181
7165.03027	0.00181
7163.10160	0.00182
7161.17292	0.00183
7159.24425	0.00184
7157.31557	0.00183
7155.38689	0.00182
7153.45822	0.00183
7151.52954	0.00184
7149.60087	0.00185
7147.67219	0.00186
7145.74352	0.00186
7143.81484	0.00186
7141.88616	0.00186
7139.95749	0.00186
7138.02881	0.00186
7136.10014	0.00187
7134.17146	0.00187
7132.24279	0.00188
7130.31411	0.00188
7128.38543	0.00189
7126.45676	0.00191
7124.52808	0.00192
7122.59941	0.00193
7120.67073	0.00193
7118.74206	0.00192
7116.81338	0.00192
7114.88470	0.00192
7112.95603	0.00193
7111.02735	0.00193
7109.09868	0.00195
7107.17000	0.00197
7105.24133	0.00196
7103.31265	0.00196
7101.38397	0.00196
7099.45530	0.00197
7097.52662	0.00198
7095.59795	0.00198
7093.66927	0.00198
7091.74060	0.00198
7089.81192	0.00200
7087.88324	0.00202
7085.95457	0.00204
7084.02589	0.00204
7082.09722	0.00203
7080.16854	0.00203
7078.23987	0.00202
7076.31119	0.00201
7074.38251	0.00201
7072.45384	0.00202
7070.52516	0.00203
7068.59649	0.00204
7066.66781	0.00205
7064.73914	0.00205
7062.81046	0.00204
7060.88178	0.00203
7058.95311	0.00203
7057.02443	0.00204
7055.09576	0.00206
7053.16708	0.00208
7051.23841	0.00209
7049.30973	0.00210
7047.38105	0.00209
7045.45238	0.00209
7043.52370	0.00210
7041.59503	0.00211
7039.66635	0.00210
7037.73768	0.00210
7035.80900	0.00211
7033.88032	0.00211
7031.95165	0.00211
7030.02297	0.00210
7028.09430	0.00209
7026.16562	0.00210
7024.23695	0.00213
7022.30827	0.00215
7020.37959	0.00216
7018.45092	0.00216
7016.52224	0.00217
7014.59357	0.00216
7012.66489	0.00217
7010.73622	0.00218
7008.80754	0.00219
7006.87886	0.00218
7004.95019	0.00217
7003.02151	0.00217
7001.09284	0.00218
6999.16416	0.00219
6997.23549	0.00220
6995.30681	0.00220
6993.37813	0.00221
6991.44946	0.00222
6989.52078	0.00221
6987.59211	0.00221
6985.66343	0.00222
6983.73476	0.00223
6981.80608	0.00222
6979.87740	0.00222
6977.94873	0.00222
6976.02005	0.00222
6974.09138	0.00223
6972.16270	0.00225
6970.23403	0.00226
6968.30535	0.00228
6966.37667	0.00228
6964.44800	0.00227
6962.51932	0.00227
6960.59065	0.00227
6958.66197	0.00228
6956.73330	0.00229
6954.80462	0.00230
6952.87594	0.00231
6950.94727	0.00232
6949.01859	0.00233
6947.08992	0.00233
6945.16124	0.00234
6943.23257	0.00235
6941.30389	0.00236
6939.37521	0.00236
6937.44654	0.00237
6935.51786	0.00236
6933.58919	0.00235
6931.66051	0.00235
6929.73184	0.00236
6927.80316	0.00237
6925.87448	0.00239
6923.94581	0.00240
6922.01713	0.00241
6920.08846	0.00241
6918.15978	0.00240
6916.23111	0.00239
6914.30243	0.00239
6912.37375	0.00239
6910.44508	0.00239
6908.51640	0.00240
6906.58773	0.00241
6904.65905	0.00241
6902.73038	0.00242
6900.80170	0.00243
6898.87302	0.00244
6896.94435	0.00245
6895.01567	0.00246
6893.08700	0.00247
6891.15832	0.00247
6889.22965	0.00248
6887.30097	0.00247
6885.37229	0.00248
6883.44362	0.00250
6881.51494	0.00251
6879.58627	0.00252
6877.65759	0.00253
6875.72892	0.00254
6873.80024	0.00254
6871.87156	0.00254
6869.94289	0.00254
6868.01421	0.00254
6866.08554	0.00253
6864.15686	0.00253
6862.22819	0.00253
6860.29951	0.00254
6858.37083	0.00256
6856.44216	0.00259
6854.51348	0.00259
6852.58481	0.00258
6850.65613	0.00257
6848.72746	0.00258
6846.79878	0.00260
6844.87010	0.00261
6842.94143	0.00261
6841.01275	0.00261
6839.08408	0.00262
6837.15540	0.00263
6835.22673	0.00264
6833.29805	0.00263
6831.36937	0.00262
6829.44070	0.00260
6827.51202	0.00261
6825.58335	0.00262
6823.65467	0.00263
6821.72600	0.00264
6819.79732	0.00265
6817.86864	0.00266
6815.93997	0.00267
6814.01129	0.00267
6812.08262	0.00267
6810.15394	0.00268
6808.22527	0.00269
6806.29659	0.00269
6804.36791	0.00269
6802.43924	0.00270
6800.51056	0.00272
6798.58189	0.00274
6796.65321	0.00275
6794.72454	0.00275
6792.79586	0.00274
6790.86718	0.00273
6788.93851	0.00273
6787.00983	0.00274
6785.08116	0.00275
6783.15248	0.00277
6781.22381	0.00278
6779.29513	0.00279
6777.36645	0.00281
6775.43778	0.00281
6773.50910	0.00280
6771.58043	0.00279
6769.65175	0.00279
6767.72308	0.00280
6765.79440	0.00282
6763.86572	0.00282
6761.93705	0.00282
6760.00837	0.00283
6758.07970	0.00283
6756.15102	0.00284
6754.22235	0.00286
6752.29367	0.00288
6750.36499	0.00288
6748.43632	0.00287
6746.50764	0.00286
6744.57897	0.00288
6742.65029	0.00291
6740.72162	0.00291
6738.79294	0.00291
6736.86426	0.00291
6734.93559	0.00292
6733.00691	0.00293
6731.07824	0.00294
6729.14956	0.00295
6727.22089	0.00294
6725.29221	0.00294
6723.36353	0.00295
6721.43486	0.00297
6719.50618	0.00298
6717.57751	0.00299
6715.64883	0.00300
6713.72016	0.00301
6711.79148	0.00300
6709.86280	0.00301
6707.93413	0.00303
6706.00545	0.00304
6704.07678	0.00303
6702.14810	0.00302
6700.21943	0.00302
6698.29075	0.00302
6696.36207	0.00302
6694.43340	0.00304
6692.50472	0.00306
6690.57605	0.00306
6688.64737	0.00306
6686.71870	0.00307
6684.79002	0.00308
6682.86134	0.00308
6680.93267	0.00309
6679.00399	0.00310
6677.07532	0.00311
6675.14664	0.00311
6673.21797	0.00313
6671.28929	0.00313
6669.36061	0.00311
6667.43194	0.00311
6665.50326	0.00313
6663.57459	0.00315
6661.64591	0.00315
6659.71724	0.00316
6657.78856	0.00317
6655.85988	0.00319
6653.93121	0.00320
6652.00253	0.00321
6650.07386	0.00322
6648.14518	0.00323
6646.21651	0.00322
6644.28783	0.00320
6642.35915	0.00319
6640.43048	0.00320
6638.50180	0.00322
6636.57313	0.00326
6634.64445	0.00328
6632.71578	0.00326
6630.78710	0.00325
6628.85842	0.00326
6626.92975	0.00329
6625.00107	0.00330
6623.07240	0.00331
6621.14372	0.00330
6619.21505	0.00331
6617.28637	0.00332
6615.35769	0.00333
6613.42902	0.00333
6611.50034	0.00332
6609.57167	0.00332
6607.64299	0.00333
6605.71432	0.00335
6603.78564	0.00337
6601.85696	0.00338
6599.92829	0.00338
6597.99961	0.00337
6596.07094	0.00339
6594.14226	0.00341
6592.21359	0.00341
6590.28491	0.00341
6588.35623	0.00341
6586.42756	0.00340
6584.49888	0.00340
6582.57021	0.00341
6580.64153	0.00343
6578.71286	0.00346
6576.78418	0.00348
6574.85550	0.00348
6572.92683	0.00348
6570.99815	0.00348
6569.06948	0.00347
6567.14080	0.00347
6565.21213	0.00347
6563.28345	0.00349
6561.35477	0.00351
6559.42610	0.00352
6557.49742	0.00352
6555.56875	0.00352
6553.64007	0.00353
6551.71140	0.00354
6549.78272	0.00356
6547.85404	0.00358
6545.92537	0.00358
6543.99669	0.00357
6542.06802	0.00357
6540.13934	0.00357
6538.21067	0.00357
6536.28199	0.00360
6534.35331	0.00362
6532.42464	0.00363
6530.49596	0.00362
6528.56729	0.00362
6526.63861	0.00363
6524.70994	0.00363
6522.78126	0.00364
6520.85258	0.00366
6518.92391	0.00368
6516.99523	0.00370
6515.06656	0.00371
6513.13788	0.00372
6511.20921	0.00373
6509.28053	0.00373
6507.35185	0.00372
6505.42318	0.00371
6503.49450	0.00371
6501.56583	0.00372
6499.63715	0.00374
6497.70848	0.00377
6495.77980	0.00378
6493.85112	0.00378
6491.92245	0.00377
6489.99377	0.00377
6488.06510	0.00379
6486.13642	0.00382
6484.20775	0.00384
6482.27907	0.00384
6480.35039	0.00382
6478.42172	0.00381
6476.49304	0.00381
6474.56437	0.00382
6472.63569	0.00384
6470.70702	0.00385
6468.77834	0.00387
6466.84966	0.00388
6464.92099	0.00389
6462.99231	0.00388
6461.06364	0.00389
6459.13496	0.00392
6457.20629	0.00395
6455.27761	0.00397
6453.34893	0.00399
6451.42026	0.00400
6449.49158	0.00399
6447.56291	0.00398
6445.63423	0.00399
6443.70556	0.00399
6441.77688	0.00400
6439.84820	0.00400
6437.91953	0.00401
6435.99085	0.00401
6434.06218	0.00401
6432.13350	0.00403
6430.20483	0.00406
6428.27615	0.00407
6426.34747	0.00408
6424.41880	0.00408
6422.49012	0.00408
6420.56145	0.00408
6418.63277	0.00409
6416.70410	0.00410
6414.77542	0.00412
6412.84674	0.00411
6410.91807	0.00410
6408.98939	0.00411
6407.06072	0.00413
6405.13204	0.00416
6403.20337	0.00418
6401.27469	0.00419
6399.34601	0.00420
6397.41734	0.00420
6395.48866	0.00420
6393.55999	0.00420
6391.63131	0.00420
6389.70264	0.00422
6387.77396	0.00424
6385.84528	0.00426
6383.91661	0.00428
6381.98793	0.00429
6380.05926	0.00430
6378.13058	0.00429
6376.20191	0.00428
6374.27323	0.00430
6372.34455	0.00432
6370.41588	0.00433
6368.48720	0.00433
6366.55853	0.00433
6364.62985	0.00435
6362.70118	0.00436
6360.77250	0.00437
6358.84382	0.00436
6356.91515	0.00435
6354.98647	0.00435
6353.05780	0.00437
6351.12912	0.00439
6349.20045	0.00440
6347.27177	0.00441
6345.34309	0.00442
6343.41442	0.00443
6341.48574	0.00444
6339.55707	0.00444
6337.62839	0.00445
6335.69972	0.00446
6333.77104	0.00446
6331.84236	0.00448
6329.91369	0.00450
6327.98501	0.00452
6326.05634	0.00452
6324.12766	0.00454
6322.19899	0.00455
6320.27031	0.00455
6318.34163	0.00456
6316.41296	0.00458
6314.48428	0.00461
6312.55561	0.00462
6310.62693	0.00462
6308.69826	0.00461
6306.76958	0.00462
6304.84090	0.00463
6302.91223	0.00464
6300.98355	0.00465
6299.05488	0.00465
6297.12620	0.00465
6295.19753	0.00468
6293.26885	0.00471
6291.34017	0.00472
6289.41150	0.00472
6287.48282	0.00472
6285.55415	0.00472
6283.62547	0.00473
6281.69680	0.00475
6279.76812	0.00476
6277.83944	0.00477
6275.91077	0.00479
6273.98209	0.00480
6272.05342	0.00478
6270.12474	0.00477
6268.19607	0.00478
6266.26739	0.00480
6264.33871	0.00483
6262.41004	0.00486
6260.48136	0.00486
6258.55269	0.00486
6256.62401	0.00488
6254.69534	0.00489
6252.76666	0.00490
6250.83798	0.00491
6248.90931	0.00492
6246.98063	0.00493
6245.05196	0.00493
6243.12328	0.00494
6241.19461	0.00496
6239.26593	0.00496
6237.33725	0.00496
6235.40858	0.00497
6233.47990	0.00499
6231.55123	0.00502
6229.62255	0.00503
6227.69388	0.00504
6225.76520	0.00505
6223.83652	0.00507
6221.90785	0.00507
6219.97917	0.00507
6218.05050	0.00507
6216.12182	0.00510
6214.19315	0.00511
6212.26447	0.00511
6210.33579	0.00512
6208.40712	0.00513
6206.47844	0.00514
6204.54977	0.00515
6202.62109	0.00516
6200.69242	0.00516
6198.76374	0.00518
6196.83506	0.00519
6194.90639	0.00521
6192.97771	0.00523
6191.04904	0.00525
6189.12036	0.00527
6187.19169	0.00528
6185.26301	0.00528
6183.33433	0.00528
6181.40566	0.00530
6179.47698	0.00530
6177.54831	0.00529
6175.61963	0.00528
6173.69096	0.00530
6171.76228	0.00531
6169.83360	0.00534
6167.90493	0.00536
6165.97625	0.00538
6164.04758	0.00538
6162.11890	0.00538
6160.19023	0.00539
6158.26155	0.00541
6156.33287	0.00542
6154.40420	0.00545
6152.47552	0.00547
6150.54685	0.00547
6148.61817	0.00547
6146.68950	0.00547
6144.76082	0.00547
6142.83214	0.00547
6140.90347	0.00551
6138.97479	0.00557
6137.04612	0.00559
6135.11744	0.00557
6133.18877	0.00554
6131.26009	0.00554
6129.33141	0.00556
6127.40274	0.00559
6125.47406	0.00561
6123.54539	0.00561
6121.61671	0.00562
6119.68804	0.00564
6117.75936	0.00567
6115.83068	0.00568
6113.90201	0.00568
6111.97333	0.00568
6110.04466	0.00568
6108.11598	0.00570
6106.18731	0.00571
6104.25863	0.00573
6102.32995	0.00575
6100.40128	0.00577
6098.47260	0.00579
6096.54393	0.00580
6094.61525	0.00582
6092.68658	0.00583
6090.75790	0.00583
6088.82922	0.00584
6086.90055	0.00584
6084.97187	0.00583
6083.04320	0.00585
6081.11452	0.00588
6079.18585	0.00589
6077.25717	0.00590
6075.32849	0.00590
6073.39982	0.00591
6071.47114	0.00594
6069.54247	0.00596
6067.61379	0.00596
6065.68512	0.00598
6063.75644	0.00601
6061.82776	0.00604
6059.89909	0.00606
6057.97041	0.00605
6056.04174	0.00603
6054.11306	0.00604
6052.18439	0.00607
6050.25571	0.00608
6048.32703	0.00609
6046.39836	0.00611
6044.46968	0.00613
6042.54101	0.00614
6040.61233	0.00615
6038.68366	0.00617
6036.75498	0.00620
6034.82630	0.00621
6032.89763	0.00621
6030.96895	0.00620
6029.04028	0.00620
6027.11160	0.00621
6025.18293	0.00622
6023.25425	0.00624
6021.32557	0.00627
6019.39690	0.00630
6017.46822	0.00633
6015.53955	0.00635
6013.61087	0.00636
6011.68220	0.00636
6009.75352	0.00636
6007.82484	0.00637
6005.89617	0.00638
6003.96749	0.00639
6002.03882	0.00641
6000.11014	0.00642
5998.18147	0.00643
5996.25279	0.00645
5994.32411	0.00647
5992.39544	0.00651
5990.46676	0.00652
5988.53809	0.00652
5986.60941	0.00651
5984.68074	0.00651
5982.75206	0.00652
5980.82338	0.00653
5978.89471	0.00654
5976.96603	0.00656
5975.03736	0.00660
5973.10868	0.00662
5971.18001	0.00661
5969.25133	0.00661
5967.32265	0.00663
5965.39398	0.00666
5963.46530	0.00667
5961.53663	0.00669
5959.60795	0.00672
5957.67928	0.00674
5955.75060	0.00675
5953.82192	0.00677
5951.89325	0.00679
5949.96457	0.00681
5948.03590	0.00682
5946.10722	0.00683
5944.17855	0.00682
5942.24987	0.00681
5940.32119	0.00682
5938.39252	0.00684
5936.46384	0.00688
5934.53517	0.00690
5932.60649	0.00691
5930.67782	0.00691
5928.74914	0.00693
5926.82046	0.00695
5924.89179	0.00697
5922.96311	0.00697
5921.03444	0.00697
5919.10576	0.00698
5917.17709	0.00700
5915.24841	0.00703
5913.31973	0.00706
5911.39106	0.00707
5909.46238	0.00708
5907.53371	0.00709
5905.60503	0.00709
5903.67636	0.00711
5901.74768	0.00712
5899.81900	0.00714
5897.89033	0.00716
5895.96165	0.00716
5894.03298	0.00715
5892.10430	0.00716
5890.17563	0.00719
5888.24695	0.00721
5886.31827	0.00723
5884.38960	0.00726
5882.46092	0.00730
5880.53225	0.00732
5878.60357	0.00731
5876.67490	0.00730
5874.74622	0.00730
5872.81755	0.00733
5870.88887	0.00735
5868.96019	0.00737
5867.03152	0.00740
5865.10284	0.00742
5863.17417	0.00743
5861.24549	0.00744
5859.31682	0.00746
5857.38814	0.00747
5855.45946	0.00747
5853.53079	0.00748
5851.60211	0.00750
5849.67344	0.00754
5847.74476	0.00757
5845.81609	0.00758
5843.88741	0.00759
5841.95873	0.00758
5840.03006	0.00757
5838.10138	0.00759
5836.17271	0.00762
5834.24403	0.00764
5832.31536	0.00765
5830.38668	0.00766
5828.45800	0.00768
5826.52933	0.00769
5824.60065	0.00770
5822.67198	0.00772
5820.74330	0.00774
5818.81463	0.00775
5816.88595	0.00777
5814.95727	0.00780
5813.02860	0.00783
5811.09992	0.00785
5809.17125	0.00785
5807.24257	0.00784
5805.31390	0.00784
5803.38522	0.00786
5801.45654	0.00789
5799.52787	0.00792
5797.59919	0.00794
5795.67052	0.00795
5793.74184	0.00797
5791.81317	0.00799
5789.88449	0.00801
5787.95581	0.00802
5786.02714	0.00803
5784.09846	0.00804
5782.16979	0.00806
5780.24111	0.00809
5778.31244	0.00812
5776.38376	0.00813
5774.45508	0.00815
5772.52641	0.00815
5770.59773	0.00816
5768.66906	0.00818
5766.74038	0.00822
5764.81171	0.00824
5762.88303	0.00823
5760.95435	0.00824
5759.02568	0.00826
5757.09700	0.00828
5755.16833	0.00829
5753.23965	0.00829
5751.31098	0.00831
5749.38230	0.00834
5747.45362	0.00836
5745.52495	0.00839
5743.59627	0.00841
5741.66760	0.00842
5739.73892	0.00842
5737.81025	0.00844
5735.88157	0.00846
5733.95289	0.00849
5732.02422	0.00850
5730.09554	0.00851
5728.16687	0.00854
5726.23819	0.00858
5724.30952	0.00860
5722.38084	0.00861
5720.45216	0.00862
5718.52349	0.00863
5716.59481	0.00865
5714.66614	0.00866
5712.73746	0.00867
5710.80879	0.00868
5708.88011	0.00871
5706.95143	0.00874
5705.02276	0.00876
5703.09408	0.00878
5701.16541	0.00879
5699.23673	0.00881
5697.30806	0.00882
5695.37938	0.00883
5693.45070	0.00884
5691.52203	0.00886
5689.59335	0.00889
5687.66468	0.00891
5685.73600	0.00893
5683.80733	0.00894
5681.87865	0.00895
5679.94997	0.00896
5678.02130	0.00898
5676.09262	0.00899
5674.16395	0.00901
5672.23527	0.00905
5670.30660	0.00908
5668.37792	0.00910
5666.44924	0.00911
5664.52057	0.00912
5662.59189	0.00914
5660.66322	0.00916
5658.73454	0.00918
5656.80587	0.00918
5654.87719	0.00919
5652.94851	0.00921
5651.01984	0.00924
5649.09116	0.00927
5647.16249	0.00929
5645.23381	0.00931
5643.30514	0.00933
5641.37646	0.00934
5639.44778	0.00935
5637.51911	0.00935
5635.59043	0.00937
5633.66176	0.00940
5631.73308	0.00942
5629.80441	0.00943
5627.87573	0.00945
5625.94705	0.00948
5624.01838	0.00949
5622.08970	0.00951
5620.16103	0.00953
5618.23235	0.00955
5616.30368	0.00957
5614.37500	0.00959
5612.44632	0.00960
5610.51765	0.00961
5608.58897	0.00963
5606.66030	0.00964
5604.73162	0.00966
5602.80295	0.00968
5600.87427	0.00971
5598.94559	0.00974
5597.01692	0.00977
5595.08824	0.00980
5593.15957	0.00981
5591.23089	0.00982
5589.30222	0.00985
5587.37354	0.00987
5585.44486	0.00988
5583.51619	0.00989
5581.58751	0.00990
5579.65884	0.00993
5577.73016	0.00996
5575.80149	0.00999
5573.87281	0.01001
5571.94413	0.01004
5570.01546	0.01004
5568.08678	0.01004
5566.15811	0.01006
5564.22943	0.01009
5562.30076	0.01011
5560.37208	0.01012
5558.44340	0.01016
5556.51473	0.01019
5554.58605	0.01022
5552.65738	0.01024
5550.72870	0.01025
5548.80003	0.01024
5546.87135	0.01023
5544.94267	0.01024
5543.01400	0.01027
5541.08532	0.01029
5539.15665	0.01031
5537.22797	0.01033
5535.29930	0.01036
5533.37062	0.01039
5531.44194	0.01041
5529.51327	0.01043
5527.58459	0.01045
5525.65592	0.01047
5523.72724	0.01048
5521.79857	0.01049
5519.86989	0.01050
5517.94121	0.01052
5516.01254	0.01055
5514.08386	0.01058
5512.15519	0.01061
5510.22651	0.01063
5508.29784	0.01065
5506.36916	0.01067
5504.44048	0.01069
5502.51181	0.01072
5500.58313	0.01073
5498.65446	0.01074
5496.72578	0.01075
5494.79711	0.01077
5492.86843	0.01081
5490.93975	0.01085
5489.01108	0.01087
5487.08240	0.01087
5485.15373	0.01087
5483.22505	0.01090
5481.29638	0.01093
5479.36770	0.01096
5477.43902	0.01098
5475.51035	0.01099
5473.58167	0.01102
5471.65300	0.01105
5469.72432	0.01106
5467.79565	0.01107
5465.86697	0.01110
5463.93829	0.01113
5462.00962	0.01114
5460.08094	0.01116
5458.15227	0.01118
5456.22359	0.01121
5454.29492	0.01122
5452.36624	0.01124
5450.43756	0.01126
5448.50889	0.01128
5446.58021	0.01129
5444.65154	0.01131
5442.72286	0.01134
5440.79419	0.01138
5438.86551	0.01139
5436.93683	0.01141
5435.00816	0.01143
5433.07948	0.01144
5431.15081	0.01145
5429.22213	0.01147
5427.29346	0.01151
5425.36478	0.01154
5423.43610	0.01156
5421.50743	0.01158
5419.57875	0.01160
5417.65008	0.01161
5415.72140	0.01161
5413.79273	0.01164
5411.86405	0.01167
5409.93537	0.01169
5408.00670	0.01172
5406.07802	0.01175
5404.14935	0.01178
5402.22067	0.01179
5400.29200	0.01180
5398.36332	0.01182
5396.43464	0.01182
5394.50597	0.01184
5392.57729	0.01188
5390.64862	0.01193
5388.71994	0.01195
5386.79127	0.01197
5384.86259	0.01198
5382.93391	0.01200
5381.00524	0.01203
5379.07656	0.01205
5377.14789	0.01207
5375.21921	0.01209
5373.29054	0.01212
5371.36186	0.01215
5369.43318	0.01217
5367.50451	0.01219
5365.57583	0.01220
5363.64716	0.01221
5361.71848	0.01224
5359.78981	0.01227
5357.86113	0.01231
5355.93245	0.01233
5354.00378	0.01236
5352.07510	0.01238
5350.14643	0.01240
5348.21775	0.01240
5346.28908	0.01242
5344.36040	0.01245
5342.43172	0.01249
5340.50305	0.01251
5338.57437	0.01252
5336.64570	0.01255
5334.71702	0.01259
5332.78835	0.01261
5330.85967	0.01261
5328.93099	0.01262
5327.00232	0.01264
5325.07364	0.01268
5323.14497	0.01272
5321.21629	0.01273
5319.28762	0.01275
5317.35894	0.01277
5315.43026	0.01279
5313.50159	0.01281
5311.57291	0.01283
5309.64424	0.01284
5307.71556	0.01286
5305.78689	0.01289
5303.85821	0.01291
5301.92953	0.01294
5300.00086	0.01298
5298.07218	0.01300
5296.14351	0.01300
5294.21483	0.01300
5292.28616	0.01303
5290.35748	0.01307
5288.42880	0.01311
5286.50013	0.01313
5284.57145	0.01315
5282.64278	0.01316
5280.71410	0.01317
5278.78543	0.01319
5276.85675	0.01321
5274.92807	0.01324
5272.99940	0.01329
5271.07072	0.01333
5269.14205	0.01334
5267.21337	0.01336
5265.28470	0.01336
5263.35602	0.01336
5261.42734	0.01340
5259.49867	0.01346
5257.56999	0.01349
5255.64132	0.01351
5253.71264	0.01351
5251.78397	0.01351
5249.85529	0.01352
5247.92661	0.01354
5245.99794	0.01360
5244.06926	0.01365
5242.14059	0.01367
5240.21191	0.01368
5238.28324	0.01368
5236.35456	0.01370
5234.42588	0.01373
5232.49721	0.01377
5230.56853	0.01380
5228.63986	0.01382
5226.71118	0.01382
5224.78251	0.01385
5222.85383	0.01390
5220.92515	0.01393
5218.99648	0.01394
5217.06780	0.01396
5215.13913	0.01400
5213.21045	0.01402
5211.28178	0.01404
5209.35310	0.01408
5207.42442	0.01411
5205.49575	0.01414
5203.56707	0.01417
5201.63840	0.01419
5199.70972	0.01419
5197.78105	0.01418
5195.85237	0.01422
5193.92369	0.01428
5191.99502	0.01431
5190.06634	0.01433
5188.13767	0.01434
5186.20899	0.01436
5184.28032	0.01438
5182.35164	0.01439
5180.42296	0.01440
5178.49429	0.01443
5176.56561	0.01447
5174.63694	0.01448
5172.70826	0.01450
5170.77959	0.01454
5168.85091	0.01458
5166.92223	0.01461
5164.99356	0.01463
5163.06488	0.01466
5161.13621	0.01468
5159.20753	0.01470
5157.27886	0.01472
5155.35018	0.01474
5153.42150	0.01475
5151.49283	0.01478
5149.56415	0.01482
5147.63548	0.01486
5145.70680	0.01489
5143.77813	0.01491
5141.84945	0.01494
5139.92077	0.01497
5137.99210	0.01500
5136.06342	0.01502
5134.13475	0.01506
5132.20607	0.01508
5130.27740	0.01510
5128.34872	0.01512
5126.42004	0.01514
5124.49137	0.01516
5122.56269	0.01518
5120.63402	0.01520
5118.70534	0.01522
5116.77667	0.01524
5114.84799	0.01526
5112.91931	0.01528
5110.99064	0.01531
5109.06196	0.01535
5107.13329	0.01538
5105.20461	0.01541
5103.27594	0.01543
5101.34726	0.01546
5099.41858	0.01548
5097.48991	0.01550
5095.56123	0.01551
5093.63256	0.01553
5091.70388	0.01556
5089.77521	0.01558
5087.84653	0.01562
5085.91785	0.01567
5083.98918	0.01570
5082.06050	0.01573
5080.13183	0.01576
5078.20315	0.01579
5076.27448	0.01581
5074.34580	0.01582
5072.41712	0.01584
5070.48845	0.01586
5068.55977	0.01589
5066.63110	0.01591
5064.70242	0.01595
5062.77375	0.01601
5060.84507	0.01604
5058.91639	0.01606
5056.98772	0.01608
5055.05904	0.01611
5053.13037	0.01613
5051.20169	0.01613
5049.27302	0.01614
5047.34434	0.01617
5045.41566	0.01618
5043.48699	0.01621
5041.55831	0.01626
5039.62964	0.01631
5037.70096	0.01634
5035.77229	0.01638
5033.84361	0.01642
5031.91493	0.01644
5029.98626	0.01645
5028.05758	0.01645
5026.12891	0.01648
5024.20023	0.01652
5022.27156	0.01655
5020.34288	0.01658
5018.41420	0.01660
5016.48553	0.01660
5014.55685	0.01662
5012.62818	0.01665
5010.69950	0.01669
5008.77083	0.01673
5006.84215	0.01676
5004.91347	0.01677
5002.98480	0.01678
5001.05612	0.01682
4999.12745	0.01686
4997.19877	0.01691
4995.27010	0.01694
4993.34142	0.01695
4991.41274	0.01697
4989.48407	0.01699
4987.55539	0.01700
4985.62672	0.01702
4983.69804	0.01704
4981.76937	0.01708
4979.84069	0.01712
4977.91201	0.01716
4975.98334	0.01720
4974.05466	0.01724
4972.12599	0.01726
4970.19731	0.01728
4968.26864	0.01730
4966.33996	0.01732
4964.41128	0.01735
4962.48261	0.01738
4960.55393	0.01742
4958.62526	0.01746
4956.69658	0.01748
4954.76791	0.01749
4952.83923	0.01751
4950.91055	0.01755
4948.98188	0.01759
4947.05320	0.01763
4945.12453	0.01767
4943.19585	0.01770
4941.26718	0.01771
4939.33850	0.01771
4937.40982	0.01773
4935.48115	0.01776
4933.55247	0.01778
4931.62380	0.01780
4929.69512	0.01782
4927.76645	0.01785
4925.83777	0.01789
4923.90909	0.01793
4921.98042	0.01795
4920.05174	0.01798
4918.12307	0.01801
4916.19439	0.01805
4914.26572	0.01809
4912.33704	0.01812
4910.40836	0.01813
4908.47969	0.01815
4906.55101	0.01818
4904.62234	0.01822
4902.69366	0.01825
4900.76499	0.01826
4898.83631	0.01828
4896.90763	0.01831
4894.97896	0.01835
4893.05028	0.01839
4891.12161	0.01841
4889.19293	0.01844
4887.26426	0.01848
4885.33558	0.01851
4883.40690	0.01852
4881.47823	0.01854
4879.54955	0.01857
4877.62088	0.01860
4875.69220	0.01865
4873.76353	0.01869
4871.83485	0.01872
4869.90617	0.01874
4867.97750	0.01878
4866.04882	0.01883
4864.12015	0.01887
4862.19147	0.01889
4860.26280	0.01891
4858.33412	0.01891
4856.40544	0.01891
4854.47677	0.01895
4852.54809	0.01899
4850.61942	0.01902
4848.69074	0.01905
4846.76207	0.01908
4844.83339	0.01912
4842.90471	0.01916
4840.97604	0.01919
4839.04736	0.01922
4837.11869	0.01927
4835.19001	0.01930
4833.26134	0.01932
4831.33266	0.01934
4829.40398	0.01938
4827.47531	0.01942
4825.54663	0.01945
4823.61796	0.01947
4821.68928	0.01950
4819.76061	0.01952
4817.83193	0.01955
4815.90325	0.01958
4813.97458	0.01962
4812.04590	0.01965
4810.11723	0.01968
4808.18855	0.01972
4806.25988	0.01976
4804.33120	0.01978
4802.40252	0.01978
4800.47385	0.01981
4798.54517	0.01987
4796.61650	0.01991
4794.68782	0.01992
4792.75915	0.01994
4790.83047	0.01997
4788.90179	0.02000
4786.97312	0.02004
4785.04444	0.02009
4783.11577	0.02014
4781.18709	0.02016
4779.25842	0.02019
4777.32974	0.02023
4775.40106	0.02026
4773.47239	0.02028
4771.54371	0.02031
4769.61504	0.02035
4767.68636	0.02039
4765.75769	0.02042
4763.82901	0.02043
4761.90033	0.02045
4759.97166	0.02047
4758.04298	0.02050
4756.11431	0.02056
4754.18563	0.02062
4752.25696	0.02067
4750.32828	0.02069
4748.39960	0.02072
4746.47093	0.02077
4744.54225	0.02080
4742.61358	0.02082
4740.68490	0.02084
4738.75623	0.02087
4736.82755	0.02091
4734.89887	0.02093
4732.97020	0.02097
4731.04152	0.02101
4729.11285	0.02104
4727.18417	0.02106
4725.25550	0.02107
4723.32682	0.02111
4721.39814	0.02116
4719.46947	0.02120
4717.54079	0.02121
4715.61212	0.02122
4713.68344	0.02126
4711.75477	0.02133
4709.82609	0.02138
4707.89741	0.02141
4705.96874	0.02145
4704.04006	0.02148
4702.11139	0.02150
4700.18271	0.02152
4698.25404	0.02154
4696.32536	0.02158
4694.39668	0.02163
4692.46801	0.02167
4690.53933	0.02171
4688.61066	0.02175
4686.68198	0.02179
4684.75331	0.02183
4682.82463	0.02186
4680.89595	0.02189
4678.96728	0.02193
4677.03860	0.02197
4675.10993	0.02201
4673.18125	0.02202
4671.25258	0.02205
4669.32390	0.02209
4667.39522	0.02213
4665.46655	0.02218
4663.53787	0.02224
4661.60920	0.02228
4659.68052	0.02230
4657.75185	0.02231
4655.82317	0.02233
4653.89449	0.02236
4651.96582	0.02239
4650.03714	0.02243
4648.10847	0.02250
4646.17979	0.02255
4644.25112	0.02256
4642.32244	0.02257
4640.39376	0.02262
4638.46509	0.02266
4636.53641	0.02268
4634.60774	0.02270
4632.67906	0.02274
4630.75039	0.02279
4628.82171	0.02283
4626.89303	0.02288
4624.96436	0.02292
4623.03568	0.02296
4621.10701	0.02299
4619.17833	0.02303
4617.24966	0.02308
4615.32098	0.02312
4613.39230	0.02315
4611.46363	0.02316
4609.53495	0.02318
4607.60628	0.02324
4605.67760	0.02329
4603.74893	0.02332
4601.82025	0.02337
4599.89157	0.02343
4597.96290	0.02347
4596.03422	0.02349
4594.10555	0.02353
4592.17687	0.02356
4590.24820	0.02360
4588.31952	0.02363
4586.39084	0.02366
4584.46217	0.02369
4582.53349	0.02371
4580.60482	0.02375
4578.67614	0.02380
4576.74747	0.02386
4574.81879	0.02391
4572.89011	0.02395
4570.96144	0.02399
4569.03276	0.02403
4567.10409	0.02409
4565.17541	0.02414
4563.24674	0.02419
4561.31806	0.02423
4559.38938	0.02427
4557.46071	0.02432
4555.53203	0.02436
4553.60336	0.02439
4551.67468	0.02442
4549.74601	0.02444
4547.81733	0.02448
4545.88865	0.02452
4543.95998	0.02456
4542.03130	0.02461
4540.10263	0.02464
4538.17395	0.02467
4536.24528	0.02471
4534.31660	0.02473
4532.38792	0.02475
4530.45925	0.02479
4528.53057	0.02483
4526.60190	0.02488
4524.67322	0.02493
4522.74455	0.02497
4520.81587	0.02500
4518.88719	0.02505
4516.95852	0.02510
4515.02984	0.02516
4513.10117	0.02522
4511.17249	0.02527
4509.24382	0.02533
4507.31514	0.02538
4505.38646	0.02541
4503.45779	0.02544
4501.52911	0.02547
4499.60044	0.02551
4497.67176	0.02557
4495.74309	0.02562
4493.81441	0.02567
4491.88573	0.02574
4489.95706	0.02580
4488.02838	0.02583
4486.09971	0.02585
4484.17103	0.02587
4482.24236	0.02589
4480.31368	0.02593
4478.38500	0.02599
4476.45633	0.02605
4474.52765	0.02610
4472.59898	0.02614
4470.67030	0.02617
4468.74163	0.02621
4466.81295	0.02625
4464.88427	0.02630
4462.95560	0.02636
4461.02692	0.02642
4459.09825	0.02648
4457.16957	0.02652
4455.24090	0.02655
4453.31222	0.02658
4451.38354	0.02662
4449.45487	0.02666
4447.52619	0.02668
4445.59752	0.02672
4443.66884	0.02677
4441.74017	0.02683
4439.81149	0.02688
4437.88281	0.02695
4435.95414	0.02702
4434.02546	0.02708
4432.09679	0.02712
4430.16811	0.02714
4428.23944	0.02715
4426.31076	0.02720
4424.38208	0.02725
4422.45341	0.02729
4420.52473	0.02735
4418.59606	0.02741
4416.66738	0.02746
4414.73871	0.02752
4412.81003	0.02758
4410.88135	0.02762
4408.95268	0.02763
4407.02400	0.02768
4405.09533	0.02775
4403.16665	0.02781
4401.23798	0.02787
4399.30930	0.02794
4397.38062	0.02799
4395.45195	0.02801
4393.52327	0.02802
4391.59460	0.02805
4389.66592	0.02808
4387.73725	0.02813
4385.80857	0.02819
4383.87989	0.02826
4381.95122	0.02830
4380.02254	0.02833
4378.09387	0.02837
4376.16519	0.02843
4374.23652	0.02850
4372.30784	0.02855
4370.37916	0.02858
4368.45049	0.02862
4366.52181	0.02867
4364.59314	0.02875
4362.66446	0.02883
4360.73579	0.02890
4358.80711	0.02896
4356.87843	0.02899
4354.94976	0.02902
4353.02108	0.02905
4351.09241	0.02910
4349.16373	0.02915
4347.23506	0.02922
4345.30638	0.02929
4343.37770	0.02935
4341.44903	0.02938
4339.52035	0.02941
4337.59168	0.02949
4335.66300	0.02957
4333.73433	0.02963
4331.80565	0.02965
4329.87697	0.02967
4327.94830	0.02972
4326.01962	0.02979
4324.09095	0.02985
4322.16227	0.02991
4320.23360	0.02995
4318.30492	0.02999
4316.37624	0.03004
4314.44757	0.03010
4312.51889	0.03019
4310.59022	0.03027
4308.66154	0.03032
4306.73287	0.03034
4304.80419	0.03036
4302.87551	0.03043
4300.94684	0.03051
4299.01816	0.03058
4297.08949	0.03062
4295.16081	0.03066
4293.23214	0.03072
4291.30346	0.03078
4289.37478	0.03084
4287.44611	0.03090
4285.51743	0.03098
4283.58876	0.03105
4281.66008	0.03110
4279.73141	0.03115
4277.80273	0.03120
4275.87405	0.03124
4273.94538	0.03130
4272.01670	0.03137
4270.08803	0.03143
4268.15935	0.03147
4266.23068	0.03152
4264.30200	0.03157
4262.37332	0.03162
4260.44465	0.03168
4258.51597	0.03176
4256.58730	0.03180
4254.65862	0.03182
4252.72995	0.03186
4250.80127	0.03193
4248.87259	0.03199
4246.94392	0.03204
4245.01524	0.03210
4243.08657	0.03218
4241.15789	0.03227
4239.22922	0.03236
4237.30054	0.03242
4235.37186	0.03247
4233.44319	0.03252
4231.51451	0.03258
4229.58584	0.03261
4227.65716	0.03264
4225.72849	0.03269
4223.79981	0.03276
4221.87113	0.03285
4219.94246	0.03292
4218.01378	0.03296
4216.08511	0.03300
4214.15643	0.03306
4212.22776	0.03313
4210.29908	0.03322
4208.37040	0.03332
4206.44173	0.03339
4204.51305	0.03345
4202.58438	0.03348
4200.65570	0.03353
4198.72703	0.03360
4196.79835	0.03367
4194.86968	0.03372
4192.94100	0.03376
4191.01232	0.03382
4189.08365	0.03390
4187.15497	0.03397
4185.22630	0.03403
4183.29762	0.03408
4181.36895	0.03414
4179.44027	0.03420
4177.51159	0.03426
4175.58292	0.03433
4173.65424	0.03439
4171.72557	0.03446
4169.79689	0.03453
4167.86822	0.03461
4165.93954	0.03469
4164.01086	0.03475
4162.08219	0.03480
4160.15351	0.03485
4158.22484	0.03493
4156.29616	0.03500
4154.36749	0.03507
4152.43881	0.03514
4150.51013	0.03520
4148.58146	0.03526
4146.65278	0.03531
4144.72411	0.03536
4142.79543	0.03541
4140.86676	0.03549
4138.93808	0.03557
4137.00940	0.03566
4135.08073	0.03573
4133.15205	0.03579
4131.22338	0.03586
4129.29470	0.03593
4127.36603	0.03600
4125.43735	0.03606
4123.50867	0.03612
4121.58000	0.03620
4119.65132	0.03627
4117.72265	0.03632
4115.79397	0.03636
4113.86530	0.03642
4111.93662	0.03650
4110.00794	0.03657
4108.07927	0.03662
4106.15059	0.03669
4104.22192	0.03677
4102.29324	0.03685
4100.36457	0.03693
4098.43589	0.03701
4096.50721	0.03710
4094.57854	0.03717
4092.64986	0.03723
4090.72119	0.03728
4088.79251	0.03733
4086.86384	0.03742
4084.93516	0.03752
4083.00648	0.03761
4081.07781	0.03767
4079.14913	0.03771
4077.22046	0.03776
4075.29178	0.03781
4073.36311	0.03788
4071.43443	0.03796
4069.50575	0.03805
4067.57708	0.03813
4065.64840	0.03821
4063.71973	0.03828
4061.79105	0.03835
4059.86238	0.03843
4057.93370	0.03854
4056.00502	0.03862
4054.07635	0.03868
4052.14767	0.03874
4050.21900	0.03879
4048.29032	0.03885
4046.36165	0.03892
4044.43297	0.03902
4042.50429	0.03910
4040.57562	0.03916
4038.64694	0.03921
4036.71827	0.03928
4034.78959	0.03937
4032.86092	0.03947
4030.93224	0.03955
4029.00356	0.03961
4027.07489	0.03967
4025.14621	0.03974
4023.21754	0.03981
4021.28886	0.03986
4019.36019	0.03993
4017.43151	0.04003
4015.50283	0.04013
4013.57416	0.04021
4011.64548	0.04027
4009.71681	0.04034
4007.78813	0.04042
4005.85946	0.04051
4003.93078	0.04059
4002.00210	0.04067
4000.07343	0.04074
3998.14475	0.04080
3996.21608	0.04086
3994.28740	0.04093
3992.35873	0.04100
3990.43005	0.04110
3988.50137	0.04120
3986.57270	0.04130
3984.64402	0.04138
3982.71535	0.04145
3980.78667	0.04150
3978.85800	0.04156
3976.92932	0.04164
3975.00064	0.04173
3973.07197	0.04180
3971.14329	0.04188
3969.21462	0.04195
3967.28594	0.04203
3965.35727	0.04212
3963.42859	0.04220
3961.49991	0.04230
3959.57124	0.04239
3957.64256	0.04247
3955.71389	0.04254
3953.78521	0.04260
3951.85654	0.04266
3949.92786	0.04272
3947.99918	0.04277
3946.07051	0.04285
3944.14183	0.04295
3942.21316	0.04305
3940.28448	0.04314
3938.35581	0.04323
3936.42713	0.04331
3934.49845	0.04339
3932.56978	0.04344
3930.64110	0.04351
3928.71243	0.04358
3926.78375	0.04364
3924.85508	0.04370
3922.92640	0.04383
3920.99772	0.04395
3919.06905	0.04399
3917.14037	0.04404
3915.21170	0.04416
3913.28302	0.04430
3911.35435	0.04441
3909.42567	0.04447
3907.49699	0.04447
3905.56832	0.04444
3903.63964	0.04443
3901.71097	0.04446
3899.78229	0.04455
3897.85362	0.04474
3895.92494	0.04494
3893.99626	0.04499
3892.06759	0.04498
3890.13891	0.04507
3888.21024	0.04518
3886.28156	0.04525
3884.35289	0.04534
3882.42421	0.04540
3880.49553	0.04546
3878.56686	0.04563
3876.63818	0.04579
3874.70951	0.04585
3872.78083	0.04584
3870.85216	0.04583
3868.92348	0.04592
3866.99480	0.04605
3865.06613	0.04614
3863.13745	0.04625
3861.20878	0.04641
3859.28010	0.04653
3857.35143	0.04642
3855.42275	0.04613
3853.49407	0.04613
3851.56540	0.04654
3849.63672	0.04695
3847.70805	0.04714
3845.77937	0.04720
3843.85070	0.04723
3841.92202	0.04728
3839.99334	0.04731
3838.06467	0.04734
3836.13599	0.04743
3834.20732	0.04753
3832.27864	0.04763
3830.34997	0.04775
3828.42129	0.04792
3826.49261	0.04807
3824.56394	0.04814
3822.63526	0.04809
3820.70659	0.04808
3818.77791	0.04816
3816.84924	0.04826
3814.92056	0.04844
3812.99188	0.04871
3811.06321	0.04888
3809.13453	0.04893
3807.20586	0.04896
3805.27718	0.04901
3803.34851	0.04898
3801.41983	0.04897
3799.49115	0.04913
3797.56248	0.04937
3795.63380	0.04958
3793.70513	0.04972
3791.77645	0.04980
3789.84778	0.04986
3787.91910	0.04994
3785.99042	0.05003
3784.06175	0.05012
3782.13307	0.05018
3780.20440	0.05020
3778.27572	0.05029
3776.34705	0.05045
3774.41837	0.05057
3772.48969	0.05064
3770.56102	0.05070
3768.63234	0.05079
3766.70367	0.05090
3764.77499	0.05100
3762.84632	0.05108
3760.91764	0.05111
3758.98896	0.05115
3757.06029	0.05124
3755.13161	0.05125
3753.20294	0.05114
3751.27426	0.05105
3749.34559	0.05114
3747.41691	0.05122
3745.48823	0.05119
3743.55956	0.05137
3741.63088	0.05176
3739.70221	0.05198
3737.77353	0.05198
3735.84486	0.05199
3733.91618	0.05214
3731.98750	0.05236
3730.05883	0.05254
3728.13015	0.05261
3726.20148	0.05265
3724.27280	0.05276
3722.34413	0.05288
3720.41545	0.05303
3718.48677	0.05319
3716.55810	0.05329
3714.62942	0.05331
3712.70075	0.05330
3710.77207	0.05341
3708.84340	0.05361
3706.91472	0.05378
3704.98604	0.05387
3703.05737	0.05395
3701.12869	0.05407
3699.20002	0.05421
3697.27134	0.05431
3695.34267	0.05436
3693.41399	0.05436
3691.48531	0.05429
3689.55664	0.05425
3687.62796	0.05441
3685.69929	0.05471
3683.77061	0.05492
3681.84194	0.05500
3679.91326	0.05502
3677.98458	0.05498
3676.05591	0.05496
3674.12723	0.05506
3672.19856	0.05516
3670.26988	0.05525
3668.34121	0.05546
3666.41253	0.05570
3664.48385	0.05585
3662.55518	0.05596
3660.62650	0.05604
3658.69783	0.05607
3656.76915	0.05611
3654.84048	0.05613
3652.91180	0.05604
3650.98312	0.05585
3649.05445	0.05577
3647.12577	0.05593
3645.19710	0.05628
3643.26842	0.05660
3641.33975	0.05679
3639.41107	0.05691
3637.48239	0.05701
3635.55372	0.05707
3633.62504	0.05707
3631.69637	0.05695
3629.76769	0.05682
3627.83902	0.05694
3625.91034	0.05726
3623.98166	0.05748
3622.05299	0.05751
3620.12431	0.05749
3618.19564	0.05754
3616.26696	0.05763
3614.33829	0.05770
3612.40961	0.05773
3610.48093	0.05775
3608.55226	0.05782
3606.62358	0.05800
3604.69491	0.05821
3602.76623	0.05834
3600.83756	0.05841
3598.90888	0.05848
3596.98020	0.05853
3595.05153	0.05857
3593.12285	0.05864
3591.19418	0.05868
3589.26550	0.05863
3587.33683	0.05864
3585.40815	0.05880
3583.47947	0.05901
3581.55080	0.05915
3579.62212	0.05924
3577.69345	0.05932
3575.76477	0.05940
3573.83610	0.05948
3571.90742	0.05951
3569.97874	0.05944
3568.05007	0.05940
3566.12139	0.05951
3564.19272	0.05971
3562.26404	0.05987
3560.33537	0.05998
3558.40669	0.06008
3556.47801	0.06015
3554.54934	0.06021
3552.62066	0.06027
3550.69199	0.06034
3548.76331	0.06039
3546.83464	0.06041
3544.90596	0.06049
3542.97728	0.06063
3541.04861	0.06075
3539.11993	0.06084
3537.19126	0.06090
3535.26258	0.06096
3533.33391	0.06100
3531.40523	0.06101
3529.47655	0.06105
3527.54788	0.06110
3525.61920	0.06113
3523.69053	0.06113
3521.76185	0.06118
3519.83318	0.06128
3517.90450	0.06138
3515.97582	0.06144
3514.04715	0.06146
3512.11847	0.06146
3510.18980	0.06147
3508.26112	0.06150
3506.33245	0.06155
3504.40377	0.06160
3502.47509	0.06165
3500.54642	0.06169
3498.61774	0.06171
3496.68907	0.06173
3494.76039	0.06177
3492.83172	0.06181
3490.90304	0.06183
3488.97436	0.06183
3487.04569	0.06185
3485.11701	0.06189
3483.18834	0.06193
3481.25966	0.06197
3479.33099	0.06204
3477.40231	0.06212
3475.47363	0.06219
3473.54496	0.06227
3471.61628	0.06236
3469.68761	0.06244
3467.75893	0.06252
3465.83026	0.06261
3463.90158	0.06272
3461.97290	0.06284
3460.04423	0.06296
3458.11555	0.06307
3456.18688	0.06318
3454.25820	0.06330
3452.32953	0.06338
3450.40085	0.06343
3448.47217	0.06350
3446.54350	0.06362
3444.61482	0.06378
3442.68615	0.06391
3440.75747	0.06402
3438.82880	0.06414
3436.90012	0.06431
3434.97144	0.06451
3433.04277	0.06470
3431.11409	0.06489
3429.18542	0.06510
3427.25674	0.06535
3425.32807	0.06557
3423.39939	0.06572
3421.47071	0.06585
3419.54204	0.06600
3417.61336	0.06616
3415.68469	0.06633
3413.75601	0.06649
3411.82734	0.06666
3409.89866	0.06682
3407.96998	0.06699
3406.04131	0.06713
3404.11263	0.06722
3402.18396	0.06731
3400.25528	0.06744
3398.32661	0.06760
3396.39793	0.06774
3394.46925	0.06786
3392.54058	0.06800
3390.61190	0.06816
3388.68323	0.06830
3386.75455	0.06845
3384.82588	0.06860
3382.89720	0.06872
3380.96852	0.06883
3379.03985	0.06895
3377.11117	0.06908
3375.18250	0.06920
3373.25382	0.06933
3371.32515	0.06944
3369.39647	0.06955
3367.46779	0.06967
3365.53912	0.06979
3363.61044	0.06991
3361.68177	0.07004
3359.75309	0.07019
3357.82442	0.07033
3355.89574	0.07044
3353.96706	0.07054
3352.03839	0.07067
3350.10971	0.07081
3348.18104	0.07093
3346.25236	0.07103
3344.32369	0.07115
3342.39501	0.07127
3340.46633	0.07140
3338.53766	0.07153
3336.60898	0.07166
3334.68031	0.07180
3332.75163	0.07194
3330.82296	0.07207
3328.89428	0.07221
3326.96560	0.07235
3325.03693	0.07248
3323.10825	0.07258
3321.17958	0.07268
3319.25090	0.07281
3317.32223	0.07295
3315.39355	0.07309
3313.46487	0.07321
3311.53620	0.07333
3309.60752	0.07345
3307.67885	0.07358
3305.75017	0.07369
3303.82150	0.07380
3301.89282	0.07394
3299.96414	0.07413
3298.03547	0.07430
3296.10679	0.07441
3294.17812	0.07448
3292.24944	0.07459
3290.32077	0.07473
3288.39209	0.07488
3286.46341	0.07504
3284.53474	0.07520
3282.60606	0.07534
3280.67739	0.07550
3278.74871	0.07565
3276.82004	0.07577
3274.89136	0.07588
3272.96268	0.07599
3271.03401	0.07613
3269.10533	0.07629
3267.17666	0.07643
3265.24798	0.07657
3263.31931	0.07669
3261.39063	0.07681
3259.46195	0.07696
3257.53328	0.07713
3255.60460	0.07730
3253.67593	0.07746
3251.74725	0.07760
3249.81858	0.07770
3247.88990	0.07780
3245.96122	0.07792
3244.03255	0.07807
3242.10387	0.07822
3240.17520	0.07834
3238.24652	0.07846
3236.31785	0.07860
3234.38917	0.07875
3232.46049	0.07888
3230.53182	0.07903
3228.60314	0.07920
3226.67447	0.07935
3224.74579	0.07948
3222.81712	0.07960
3220.88844	0.07972
3218.95976	0.07985
3217.03109	0.07999
3215.10241	0.08014
3213.17374	0.08028
3211.24506	0.08042
3209.31639	0.08054
3207.38771	0.08067
3205.45903	0.08081
3203.53036	0.08095
3201.60168	0.08109
3199.67301	0.08125
3197.74433	0.08143
3195.81566	0.08159
3193.88698	0.08173
3191.95830	0.08186
3190.02963	0.08198
3188.10095	0.08209
3186.17228	0.08223
3184.24360	0.08240
3182.31493	0.08257
3180.38625	0.08272
3178.45757	0.08285
3176.52890	0.08297
3174.60022	0.08312
3172.67155	0.08329
3170.74287	0.08346
3168.81420	0.08362
3166.88552	0.08375
3164.95684	0.08388
3163.02817	0.08400
3161.09949	0.08413
3159.17082	0.08425
3157.24214	0.08438
3155.31347	0.08452
3153.38479	0.08466
3151.45611	0.08480
3149.52744	0.08497
3147.59876	0.08515
3145.67009	0.08530
3143.74141	0.08542
3141.81274	0.08554
3139.88406	0.08567
3137.95538	0.08582
3136.02671	0.08596
3134.09803	0.08610
3132.16936	0.08625
3130.24068	0.08639
3128.31201	0.08655
3126.38333	0.08669
3124.45465	0.08681
3122.52598	0.08694
3120.59730	0.08710
3118.66863	0.08726
3116.73995	0.08740
3114.81128	0.08752
3112.88260	0.08764
3110.95392	0.08777
3109.02525	0.08791
3107.09657	0.08807
3105.16790	0.08824
3103.23922	0.08838
3101.31055	0.08849
3099.38187	0.08862
3097.45319	0.08879
3095.52452	0.08896
3093.59584	0.08910
3091.66717	0.08923
3089.73849	0.08937
3087.80982	0.08951
3085.88114	0.08965
3083.95246	0.08979
3082.02379	0.08996
3080.09511	0.09010
3078.16644	0.09021
3076.23776	0.09032
3074.30909	0.09046
3072.38041	0.09061
3070.45173	0.09077
3068.52306	0.09093
3066.59438	0.09107
3064.66571	0.09119
3062.73703	0.09134
3060.80836	0.09150
3058.87968	0.09164
3056.95100	0.09177
3055.02233	0.09192
3053.09365	0.09207
3051.16498	0.09221
3049.23630	0.09235
3047.30763	0.09249
3045.37895	0.09266
3043.45027	0.09281
3041.52160	0.09293
3039.59292	0.09302
3037.66425	0.09314
3035.73557	0.09330
3033.80690	0.09345
3031.87822	0.09359
3029.94954	0.09374
3028.02087	0.09389
3026.09219	0.09405
3024.16352	0.09421
3022.23484	0.09437
3020.30617	0.09450
3018.37749	0.09460
3016.44881	0.09471
3014.52014	0.09486
3012.59146	0.09503
3010.66279	0.09519
3008.73411	0.09531
3006.80544	0.09541
3004.87676	0.09554
3002.94808	0.09567
3001.01941	0.09583
2999.09073	0.09598
2997.16206	0.09610
2995.23338	0.09623
2993.30471	0.09639
2991.37603	0.09653
2989.44735	0.09665
2987.51868	0.09675
2985.59000	0.09685
2983.66133	0.09693
2981.73265	0.09702
2979.80398	0.09708
2977.87530	0.09714
2975.94662	0.09718
2974.01795	0.09719
2972.08927	0.09715
2970.16060	0.09709
2968.23192	0.09706
2966.30325	0.09708
2964.37457	0.09713
2962.44589	0.09719
2960.51722	0.09729
2958.58854	0.09746
2956.65987	0.09769
2954.73119	0.09791
2952.80252	0.09809
2950.87384	0.09825
2948.94516	0.09839
2947.01649	0.09852
2945.08781	0.09861
2943.15914	0.09868
2941.23046	0.09874
2939.30179	0.09875
2937.37311	0.09874
2935.44443	0.09874
2933.51576	0.09871
2931.58708	0.09864
2929.65841	0.09858
2927.72973	0.09854
2925.80106	0.09849
2923.87238	0.09849
2921.94370	0.09851
2920.01503	0.09855
2918.08635	0.09871
2916.15768	0.09901
2914.22900	0.09946
2912.30033	0.09997
2910.37165	0.10043
2908.44297	0.10078
2906.51430	0.10108
2904.58562	0.10136
2902.65695	0.10163
2900.72827	0.10188
2898.79960	0.10210
2896.87092	0.10230
2894.94224	0.10250
2893.01357	0.10271
2891.08489	0.10289
2889.15622	0.10307
2887.22754	0.10327
2885.29887	0.10345
2883.37019	0.10360
2881.44151	0.10374
2879.51284	0.10390
2877.58416	0.10407
2875.65549	0.10422
2873.72681	0.10434
2871.79814	0.10446
2869.86946	0.10457
2867.94078	0.10465
2866.01211	0.10475
2864.08343	0.10488
2862.15476	0.10498
2860.22608	0.10503
2858.29741	0.10502
2856.36873	0.10495
2854.44005	0.10485
2852.51138	0.10482
2850.58270	0.10494
2848.65403	0.10525
2846.72535	0.10572
2844.79668	0.10623
2842.86800	0.10668
2840.93932	0.10705
2839.01065	0.10732
2837.08197	0.10752
2835.15330	0.10771
2833.22462	0.10790
2831.29595	0.10809
2829.36727	0.10829
2827.43859	0.10847
2825.50992	0.10863
2823.58124	0.10879
2821.65257	0.10896
2819.72389	0.10915
2817.79522	0.10932
2815.86654	0.10949
2813.93786	0.10968
2812.00919	0.10987
2810.08051	0.11003
2808.15184	0.11016
2806.22316	0.11034
2804.29449	0.11054
2802.36581	0.11071
2800.43713	0.11087
2798.50846	0.11100
2796.57978	0.11113
2794.65111	0.11126
2792.72243	0.11143
2790.79376	0.11162
2788.86508	0.11180
2786.93640	0.11194
2785.00773	0.11206
2783.07905	0.11219
2781.15038	0.11235
2779.22170	0.11249
2777.29303	0.11262
2775.36435	0.11278
2773.43567	0.11298
2771.50700	0.11317
2769.57832	0.11329
2767.64965	0.11340
2765.72097	0.11353
2763.79230	0.11372
2761.86362	0.11389
2759.93494	0.11405
2758.00627	0.11421
2756.07759	0.11438
2754.14892	0.11453
2752.22024	0.11466
2750.29157	0.11480
2748.36289	0.11495
2746.43421	0.11511
2744.50554	0.11526
2742.57686	0.11539
2740.64819	0.11552
2738.71951	0.11565
2736.79084	0.11579
2734.86216	0.11592
2732.93348	0.11605
2731.00481	0.11623
2729.07613	0.11645
2727.14746	0.11663
2725.21878	0.11676
2723.29011	0.11686
2721.36143	0.11697
2719.43275	0.11710
2717.50408	0.11726
2715.57540	0.11743
2713.64673	0.11761
2711.71805	0.11777
2709.78938	0.11792
2707.86070	0.11809
2705.93202	0.11825
2704.00335	0.11839
2702.07467	0.11849
2700.14600	0.11861
2698.21732	0.11878
2696.28865	0.11898
2694.35997	0.11915
2692.43129	0.11926
2690.50262	0.11935
2688.57394	0.11946
2686.64527	0.11960
2684.71659	0.11975
2682.78792	0.11991
2680.85924	0.12005
2678.93056	0.12018
2677.00189	0.12033
2675.07321	0.12049
2673.14454	0.12068
2671.21586	0.12087
2669.28719	0.12102
2667.35851	0.12114
2665.42983	0.12127
2663.50116	0.12143
2661.57248	0.12159
2659.64381	0.12176
2657.71513	0.12191
2655.78646	0.12204
2653.85778	0.12217
2651.92910	0.12231
2650.00043	0.12247
2648.07175	0.12264
2646.14308	0.12280
2644.21440	0.12297
2642.28573	0.12311
2640.35705	0.12326
2638.42837	0.12344
2636.49970	0.12363
2634.57102	0.12376
2632.64235	0.12389
2630.71367	0.12406
2628.78500	0.12424
2626.85632	0.12437
2624.92764	0.12448
2622.99897	0.12463
2621.07029	0.12484
2619.14162	0.12506
2617.21294	0.12524
2615.28427	0.12539
2613.35559	0.12554
2611.42691	0.12569
2609.49824	0.12584
2607.56956	0.12599
2605.64089	0.12614
2603.71221	0.12629
2601.78354	0.12644
2599.85486	0.12662
2597.92618	0.12682
2595.99751	0.12699
2594.06883	0.12711
2592.14016	0.12724
2590.21148	0.12742
2588.28281	0.12761
2586.35413	0.12778
2584.42545	0.12794
2582.49678	0.12810
2580.56810	0.12822
2578.63943	0.12833
2576.71075	0.12846
2574.78208	0.12863
2572.85340	0.12880
2570.92472	0.12898
2568.99605	0.12916
2567.06737	0.12932
2565.13870	0.12947
2563.21002	0.12961
2561.28135	0.12976
2559.35267	0.12991
2557.42399	0.13004
2555.49532	0.13017
2553.56664	0.13033
2551.63797	0.13050
2549.70929	0.13065
2547.78062	0.13080
2545.85194	0.13094
2543.92326	0.13106
2541.99459	0.13118
2540.06591	0.13131
2538.13724	0.13147
2536.20856	0.13166
2534.27989	0.13184
2532.35121	0.13200
2530.42253	0.13216
2528.49386	0.13230
2526.56518	0.13242
2524.63651	0.13257
2522.70783	0.13274
2520.77916	0.13293
2518.85048	0.13313
2516.92181	0.13332
2514.99313	0.13348
2513.06445	0.13363
2511.13578	0.13379
2509.20710	0.13393
2507.27843	0.13408
2505.34975	0.13425
2503.42108	0.13443
2501.49240	0.13460
2499.56372	0.13476
2497.63505	0.13492
2495.70637	0.13512
2493.77770	0.13537
2491.84902	0.13558
2489.92035	0.13574
2487.99167	0.13586
2486.06299	0.13598
2484.13432	0.13613
2482.20564	0.13632
2480.27697	0.13652
2478.34829	0.13670
2476.41962	0.13684
2474.49094	0.13697
2472.56226	0.13715
2470.63359	0.13734
2468.70491	0.13752
2466.77624	0.13765
2464.84756	0.13778
2462.91889	0.13794
2460.99021	0.13811
2459.06153	0.13828
2457.13286	0.13844
2455.20418	0.13862
2453.27551	0.13877
2451.34683	0.13888
2449.41816	0.13902
2447.48948	0.13921
2445.56080	0.13941
2443.63213	0.13962
2441.70345	0.13982
2439.77478	0.13997
2437.84610	0.14009
2435.91743	0.14023
2433.98875	0.14041
2432.06007	0.14057
2430.13140	0.14071
2428.20272	0.14088
2426.27405	0.14106
2424.34537	0.14124
2422.41670	0.14141
2420.48802	0.14157
2418.55934	0.14173
2416.63067	0.14191
2414.70199	0.14208
2412.77332	0.14221
2410.84464	0.14234
2408.91597	0.14248
2406.98729	0.14261
2405.05861	0.14277
2403.12994	0.14295
2401.20126	0.14312
2399.27259	0.14327
2397.34391	0.14343
2395.41524	0.14363
2393.48656	0.14383
2391.55788	0.14401
2389.62921	0.14418
2387.70053	0.14433
2385.77186	0.14448
2383.84318	0.14460
2381.91451	0.14468
2379.98583	0.14475
2378.05715	0.14482
2376.12848	0.14488
2374.19980	0.14492
2372.27113	0.14495
2370.34245	0.14499
2368.41378	0.14504
2366.48510	0.14511
2364.55642	0.14519
2362.62775	0.14532
2360.69907	0.14546
2358.77040	0.14564
2356.84172	0.14589
2354.91305	0.14618
2352.98437	0.14651
2351.05569	0.14687
2349.12702	0.14717
2347.19834	0.14727
2345.26967	0.14726
2343.34099	0.14728
2341.41232	0.14735
2339.48364	0.14744
2337.55496	0.14756
2335.62629	0.14771
2333.69761	0.14788
2331.76894	0.14805
2329.84026	0.14827
2327.91159	0.14852
2325.98291	0.14876
2324.05423	0.14898
2322.12556	0.14917
2320.19688	0.14936
2318.26821	0.14958
2316.33953	0.14983
2314.41086	0.15007
2312.48218	0.15028
2310.55350	0.15047
2308.62483	0.15065
2306.69615	0.15082
2304.76748	0.15102
2302.83880	0.15128
2300.91013	0.15152
2298.98145	0.15168
2297.05277	0.15184
2295.12410	0.15203
2293.19542	0.15219
2291.26675	0.15235
2289.33807	0.15253
2287.40940	0.15272
2285.48072	0.15289
2283.55204	0.15306
2281.62337	0.15319
2279.69469	0.15329
2277.76602	0.15342
2275.83734	0.15358
2273.90867	0.15378
2271.97999	0.15397
2270.05131	0.15414
2268.12264	0.15430
2266.19396	0.15447
2264.26529	0.15464
2262.33661	0.15481
2260.40794	0.15498
2258.47926	0.15515
2256.55058	0.15531
2254.62191	0.15547
2252.69323	0.15563
2250.76456	0.15577
2248.83588	0.15587
2246.90721	0.15599
2244.97853	0.15615
2243.04985	0.15636
2241.12118	0.15659
2239.19250	0.15677
2237.26383	0.15688
2235.33515	0.15699
2233.40648	0.15717
2231.47780	0.15738
2229.54912	0.15758
2227.62045	0.15773
2225.69177	0.15786
2223.76310	0.15799
2221.83442	0.15815
2219.90575	0.15834
2217.97707	0.15854
2216.04839	0.15870
2214.11972	0.15884
2212.19104	0.15898
2210.26237	0.15916
2208.33369	0.15934
2206.40502	0.15947
2204.47634	0.15956
2202.54766	0.15968
2200.61899	0.15988
2198.69031	0.16008
2196.76164	0.16022
2194.83296	0.16035
2192.90429	0.16051
2190.97561	0.16068
2189.04693	0.16085
2187.11826	0.16102
2185.18958	0.16117
2183.26091	0.16132
2181.33223	0.16149
2179.40356	0.16166
2177.47488	0.16185
2175.54620	0.16205
2173.61753	0.16221
2171.68885	0.16233
2169.76018	0.16247
2167.83150	0.16264
2165.90283	0.16281
2163.97415	0.16298
2162.04547	0.16313
2160.11680	0.16330
2158.18812	0.16348
2156.25945	0.16367
2154.33077	0.16384
2152.40210	0.16399
2150.47342	0.16416
2148.54474	0.16431
2146.61607	0.16446
2144.68739	0.16465
2142.75872	0.16484
2140.83004	0.16497
2138.90137	0.16509
2136.97269	0.16524
2135.04401	0.16542
2133.11534	0.16560
2131.18666	0.16579
2129.25799	0.16601
2127.32931	0.16621
2125.40064	0.16636
2123.47196	0.16649
2121.54328	0.16664
2119.61461	0.16682
2117.68593	0.16696
2115.75726	0.16711
2113.82858	0.16731
2111.89991	0.16752
2109.97123	0.16767
2108.04255	0.16778
2106.11388	0.16790
2104.18520	0.16809
2102.25653	0.16830
2100.32785	0.16846
2098.39918	0.16860
2096.47050	0.16873
2094.54182	0.16887
2092.61315	0.16906
2090.68447	0.16928
2088.75580	0.16947
2086.82712	0.16966
2084.89845	0.16983
2082.96977	0.16996
2081.04109	0.17010
2079.11242	0.17027
2077.18374	0.17046
2075.25507	0.17063
2073.32639	0.17076
2071.39772	0.17087
2069.46904	0.17103
2067.54036	0.17122
2065.61169	0.17140
2063.68301	0.17156
2061.75434	0.17174
2059.82566	0.17194
2057.89699	0.17215
2055.96831	0.17232
2054.03963	0.17246
2052.11096	0.17263
2050.18228	0.17281
2048.25361	0.17297
2046.32493	0.17312
2044.39626	0.17325
2042.46758	0.17337
2040.53890	0.17351
2038.61023	0.17369
2036.68155	0.17391
2034.75288	0.17412
2032.82420	0.17429
2030.89553	0.17443
2028.96685	0.17461
2027.03817	0.17480
2025.10950	0.17496
2023.18082	0.17508
2021.25215	0.17520
2019.32347	0.17536
2017.39480	0.17554
2015.46612	0.17574
2013.53744	0.17593
2011.60877	0.17613
2009.68009	0.17635
2007.75142	0.17655
2005.82274	0.17669
2003.89407	0.17681
2001.96539	0.17695
2000.03671	0.17707
1998.10804	0.17718
1996.17936	0.17729
1994.25069	0.17739
1992.32201	0.17751
1990.39334	0.17770
1988.46466	0.17796
1986.53598	0.17820
1984.60731	0.17838
1982.67863	0.17849
1980.74996	0.17858
1978.82128	0.17869
1976.89261	0.17884
1974.96393	0.17899
1973.03525	0.17911
1971.10658	0.17922
1969.17790	0.17935
1967.24923	0.17953
1965.32055	0.17972
1963.39188	0.17988
1961.46320	0.18001
1959.53452	0.18016
1957.60585	0.18033
1955.67717	0.18051
1953.74850	0.18067
1951.81982	0.18081
1949.89115	0.18094
1947.96247	0.18112
1946.03379	0.18127
1944.10512	0.18135
1942.17644	0.18147
1940.24777	0.18172
1938.31909	0.18195
1936.39042	0.18211
1934.46174	0.18228
1932.53306	0.18244
1930.60439	0.18259
1928.67571	0.18273
1926.74704	0.18285
1924.81836	0.18292
1922.88969	0.18302
1920.96101	0.18318
1919.03233	0.18333
1917.10366	0.18352
1915.17498	0.18381
1913.24631	0.18407
1911.31763	0.18424
1909.38896	0.18438
1907.46028	0.18454
1905.53160	0.18471
1903.60293	0.18485
1901.67425	0.18497
1899.74558	0.18511
1897.81690	0.18524
1895.88823	0.18539
1893.95955	0.18557
1892.03087	0.18568
1890.10220	0.18578
1888.17352	0.18596
1886.24485	0.18615
1884.31617	0.18630
1882.38750	0.18650
1880.45882	0.18669
1878.53014	0.18684
1876.60147	0.18697
1874.67279	0.18710
1872.74412	0.18714
1870.81544	0.18703
1868.88677	0.18706
1866.95809	0.18738
1865.02941	0.18774
1863.10074	0.18797
1861.17206	0.18816
1859.24339	0.18837
1857.31471	0.18860
1855.38604	0.18881
1853.45736	0.18898
1851.52868	0.18912
1849.60001	0.18926
1847.67133	0.18934
1845.74266	0.18932
1843.81398	0.18940
1841.88531	0.18972
1839.95663	0.19007
1838.02795	0.19030
1836.09928	0.19046
1834.17060	0.19059
1832.24193	0.19065
1830.31325	0.19072
1828.38458	0.19090
1826.45590	0.19108
1824.52722	0.19126
1822.59855	0.19149
1820.66987	0.19165
1818.74120	0.19172
1816.81252	0.19184
1814.88385	0.19202
1812.95517	0.19213
1811.02649	0.19223
1809.09782	0.19241
1807.16914	0.19264
1805.24047	0.19276
1803.31179	0.19272
1801.38312	0.19269
1799.45444	0.19287
1797.52576	0.19311
1795.59709	0.19314
1793.66841	0.19300
1791.73974	0.19310
1789.81106	0.19353
1787.88239	0.19386
1785.95371	0.19390
1784.02503	0.19391
1782.09636	0.19403
1780.16768	0.19422
1778.23901	0.19444
1776.31033	0.19454
1774.38166	0.19446
1772.45298	0.19437
1770.52430	0.19449
1768.59563	0.19478
1766.66695	0.19508
1764.73828	0.19524
1762.80960	0.19520
1760.88093	0.19520
1758.95225	0.19534
1757.02357	0.19548
1755.09490	0.19544
1753.16622	0.19501
1751.23755	0.19457
1749.30887	0.19464
1747.38020	0.19496
1745.45152	0.19510
1743.52284	0.19503
1741.59417	0.19486
1739.66549	0.19486
1737.73682	0.19509
1735.80814	0.19511
1733.87947	0.19502
1731.95079	0.19523
1730.02211	0.19564
1728.09344	0.19602
1726.16476	0.19627
1724.23609	0.19643
1722.30741	0.19652
1720.37874	0.19632
1718.45006	0.19597
1716.52138	0.19602
1714.59271	0.19653
1712.66403	0.19705
1710.73536	0.19738
1708.80668	0.19743
1706.87801	0.19727
1704.94933	0.19718
1703.02065	0.19707
1701.09198	0.19690
1699.16330	0.19698
1697.23463	0.19727
1695.30595	0.19757
1693.37728	0.19786
1691.44860	0.19795
1689.51992	0.19795
1687.59125	0.19790
1685.66257	0.19761
1683.73390	0.19744
1681.80522	0.19777
1679.87655	0.19816
1677.94787	0.19803
1676.01919	0.19760
1674.09052	0.19750
1672.16184	0.19770
1670.23317	0.19797
1668.30449	0.19839
1666.37582	0.19870
1664.44714	0.19867
1662.51846	0.19864
1660.58979	0.19888
1658.66111	0.19910
1656.73244	0.19881
1654.80376	0.19795
1652.87509	0.19744
1650.94641	0.19783
1649.01773	0.19827
1647.08906	0.19845
1645.16038	0.19885
1643.23171	0.19927
1641.30303	0.19938
1639.37436	0.19923
1637.44568	0.19902
1635.51700	0.19908
1633.58833	0.19948
1631.65965	0.19983
1629.73098	0.19986
1627.80230	0.19972
1625.87363	0.19948
1623.94495	0.19911
1622.01627	0.19884
1620.08760	0.19882
1618.15892	0.19896
1616.23025	0.19942
1614.30157	0.20016
1612.37290	0.20074
1610.44422	0.20102
1608.51554	0.20128
1606.58687	0.20159
1604.65819	0.20184
1602.72952	0.20200
1600.80084	0.20217
1598.87217	0.20236
1596.94349	0.20253
1595.01481	0.20263
1593.08614	0.20275
1591.15746	0.20292
1589.22879	0.20315
1587.30011	0.20339
1585.37144	0.20359
1583.44276	0.20374
1581.51408	0.20386
1579.58541	0.20377
1577.65673	0.20342
1575.72806	0.20338
1573.79938	0.20385
1571.87071	0.20423
1569.94203	0.20432
1568.01335	0.20446
1566.08468	0.20464
1564.15600	0.20468
1562.22733	0.20431
1560.29865	0.20373
1558.36998	0.20376
1556.44130	0.20449
1554.51262	0.20520
1552.58395	0.20557
1550.65527	0.20570
1548.72660	0.20572
1546.79792	0.20554
1544.86925	0.20519
1542.94057	0.20497
1541.01189	0.20505
1539.08322	0.20549
1537.15454	0.20592
1535.22587	0.20588
1533.29719	0.20582
1531.36852	0.20624
1529.43984	0.20659
1527.51116	0.20652
1525.58249	0.20631
1523.65381	0.20608
1521.72514	0.20603
1519.79646	0.20632
1517.86779	0.20661
1515.93911	0.20674
1514.01043	0.20692
1512.08176	0.20703
1510.15308	0.20669
1508.22441	0.20607
1506.29573	0.20614
1504.36706	0.20706
1502.43838	0.20771
1500.50970	0.20755
1498.58103	0.20716
1496.65235	0.20711
1494.72368	0.20738
1492.79500	0.20747
1490.86633	0.20720
1488.93765	0.20700
1487.00897	0.20712
1485.08030	0.20734
1483.15162	0.20735
1481.22295	0.20719
1479.29427	0.20684
1477.36560	0.20625
1475.43692	0.20562
1473.50824	0.20517
1471.57957	0.20505
1469.65089	0.20511
1467.72222	0.20488
1465.79354	0.20439
1463.86487	0.20420
1461.93619	0.20423
1460.00751	0.20376
1458.07884	0.20293
1456.15016	0.20281
1454.22149	0.20343
1452.29281	0.20386
1450.36414	0.20391
1448.43546	0.20392
1446.50678	0.20406
1444.57811	0.20425
1442.64943	0.20442
1440.72076	0.20451
1438.79208	0.20439
1436.86341	0.20430
1434.93473	0.20458
1433.00605	0.20491
1431.07738	0.20498
1429.14870	0.20505
1427.22003	0.20522
1425.29135	0.20532
1423.36268	0.20522
1421.43400	0.20475
1419.50532	0.20434
1417.57665	0.20470
1415.64797	0.20542
1413.71930	0.20573
1411.79062	0.20571
1409.86195	0.20563
1407.93327	0.20554
1406.00459	0.20542
1404.07592	0.20540
1402.14724	0.20546
1400.21857	0.20538
1398.28989	0.20521
1396.36122	0.20513
1394.43254	0.20518
1392.50386	0.20527
1390.57519	0.20516
1388.64651	0.20479
1386.71784	0.20439
1384.78916	0.20420
1382.86049	0.20423
1380.93181	0.20434
1379.00313	0.20443
1377.07446	0.20442
1375.14578	0.20427
1373.21711	0.20422
1371.28843	0.20431
1369.35976	0.20435
1367.43108	0.20433
1365.50240	0.20425
1363.57373	0.20404
1361.64505	0.20394
1359.71638	0.20413
1357.78770	0.20438
1355.85903	0.20449
1353.93035	0.20454
1352.00167	0.20462
1350.07300	0.20468
1348.14432	0.20472
1346.21565	0.20478
1344.28697	0.20487
1342.35830	0.20488
1340.42962	0.20474
1338.50094	0.20459
1336.57227	0.20456
1334.64359	0.20453
1332.71492	0.20444
1330.78624	0.20434
1328.85757	0.20425
1326.92889	0.20415
1325.00021	0.20400
1323.07154	0.20378
1321.14286	0.20356
1319.21419	0.20341
1317.28551	0.20331
1315.35684	0.20316
1313.42816	0.20295
1311.49948	0.20273
1309.57081	0.20250
1307.64213	0.20225
1305.71346	0.20203
1303.78478	0.20184
1301.85611	0.20167
1299.92743	0.20144
1297.99875	0.20114
1296.07008	0.20087
1294.14140	0.20070
1292.21273	0.20056
1290.28405	0.20036
1288.35538	0.20012
1286.42670	0.19991
1284.49802	0.19969
1282.56935	0.19941
1280.64067	0.19909
1278.71200	0.19880
1276.78332	0.19848
1274.85465	0.19810
1272.92597	0.19764
1270.99729	0.19701
1269.06862	0.19614
1267.13994	0.19518
1265.21127	0.19437
1263.28259	0.19383
1261.35392	0.19359
1259.42524	0.19361
1257.49656	0.19378
1255.56789	0.19395
1253.63921	0.19397
1251.71054	0.19383
1249.78186	0.19364
1247.85319	0.19336
1245.92451	0.19301
1243.99583	0.19262
1242.06716	0.19222
1240.13848	0.19180
1238.20981	0.19135
1236.28113	0.19082
1234.35246	0.19020
1232.42378	0.18953
1230.49510	0.18891
1228.56643	0.18839
1226.63775	0.18790
1224.70908	0.18737
1222.78040	0.18684
1220.85173	0.18635
1218.92305	0.18588
1216.99437	0.18536
1215.06570	0.18482
1213.13702	0.18427
1211.20835	0.18371
1209.27967	0.18315
1207.35100	0.18258
1205.42232	0.18199
1203.49364	0.18140
1201.56497	0.18081
1199.63629	0.18023
1197.70762	0.17964
1195.77894	0.17903
1193.85027	0.17838
1191.92159	0.17770
1189.99291	0.17702
1188.06424	0.17630
1186.13556	0.17553
1184.20689	0.17472
1182.27821	0.17389
1180.34954	0.17307
1178.42086	0.17226
1176.49218	0.17142
1174.56351	0.17059
1172.63483	0.16975
1170.70616	0.16888
1168.77748	0.16799
1166.84881	0.16711
1164.92013	0.16626
1162.99145	0.16540
1161.06278	0.16453
1159.13410	0.16368
1157.20543	0.16288
1155.27675	0.16214
1153.34808	0.16142
1151.41940	0.16061
1149.49072	0.15977
1147.56205	0.15895
1145.63337	0.15811
1143.70470	0.15719
1141.77602	0.15619
1139.84735	0.15514
1137.91867	0.15403
1135.98999	0.15284
1134.06132	0.15154
1132.13264	0.15001
1130.20397	0.14817
1128.27529	0.14611
1126.34662	0.14388
1124.41794	0.14151
1122.48926	0.13911
1120.56059	0.13680
1118.63191	0.13458
1116.70324	0.13244
1114.77456	0.13053
1112.84589	0.12894
1110.91721	0.12764
1108.98853	0.12663
1107.05986	0.12592
1105.13118	0.12544
1103.20251	0.12517
1101.27383	0.12524
1099.34516	0.12565
1097.41648	0.12627
1095.48780	0.12702
1093.55913	0.12788
1091.63045	0.12875
1089.70178	0.12955
1087.77310	0.13023
1085.84443	0.13082
1083.91575	0.13130
1081.98707	0.13163
1080.05840	0.13190
1078.12972	0.13214
1076.20105	0.13230
1074.27237	0.13244
1072.34370	0.13260
1070.41502	0.13277
1068.48634	0.13293
1066.55767	0.13306
1064.62899	0.13320
1062.70032	0.13338
1060.77164	0.13359
1058.84297	0.13385
1056.91429	0.13417
1054.98561	0.13447
1053.05694	0.13474
1051.12826	0.13504
1049.19959	0.13541
1047.27091	0.13577
1045.34224	0.13608
1043.41356	0.13642
1041.48488	0.13685
1039.55621	0.13730
1037.62753	0.13770
1035.69886	0.13805
1033.77018	0.13840
1031.84151	0.13882
1029.91283	0.13924
1027.98415	0.13962
1026.05548	0.13992
1024.12680	0.14020
1022.19813	0.14052
1020.26945	0.14089
1018.34078	0.14131
1016.41210	0.14180
1014.48342	0.14236
1012.55475	0.14295
1010.62607	0.14356
1008.69740	0.14414
1006.76872	0.14466
1004.84005	0.14513
1002.91137	0.14555
1000.98269	0.14590
999.05402	0.14617
997.12534	0.14635
995.19667	0.14650
993.26799	0.14669
991.33932	0.14687
989.41064	0.14693
987.48196	0.14691
985.55329	0.14687
983.62461	0.14684
981.69594	0.14679
979.76726	0.14670
977.83859	0.14657
975.90991	0.14643
973.98123	0.14628
972.05256	0.14610
970.12388	0.14595
968.19521	0.14578
966.26653	0.14558
964.33786	0.14539
962.40918	0.14523
960.48050	0.14506
958.55183	0.14486
956.62315	0.14464
954.69448	0.14444
952.76580	0.14426
950.83713	0.14408
948.90845	0.14393
946.97977	0.14380
945.05110	0.14365
943.12242	0.14337
941.19375	0.14297
939.26507	0.14252
937.33640	0.14211
935.40772	0.14171
933.47904	0.14124
931.55037	0.14075
929.62169	0.14029
927.69302	0.13979
925.76434	0.13920
923.83567	0.13858
921.90699	0.13802
919.97831	0.13748
918.04964	0.13690
916.12096	0.13621
914.19229	0.13543
912.26361	0.13464
910.33494	0.13386
908.40626	0.13310
906.47758	0.13242
904.54891	0.13181
902.62023	0.13123
900.69156	0.13066
898.76288	0.13012
896.83421	0.12962
894.90553	0.12916
892.97685	0.12872
891.04818	0.12827
889.11950	0.12780
887.19083	0.12729
885.26215	0.12676
883.33348	0.12632
881.40480	0.12602
879.47612	0.12578
877.54745	0.12552
875.61877	0.12533
873.69010	0.12519
871.76142	0.12500
869.83275	0.12471
867.90407	0.12442
865.97539	0.12417
864.04672	0.12392
862.11804	0.12376
860.18937	0.12370
858.26069	0.12363
856.33202	0.12351
854.40334	0.12333
852.47466	0.12308
850.54599	0.12279
848.61731	0.12247
846.68864	0.12217
844.75996	0.12197
842.83129	0.12179
840.90261	0.12154
838.97394	0.12117
837.04526	0.12066
835.11658	0.12005
833.18791	0.11928
831.25923	0.11831
829.33056	0.11720
827.40188	0.11610
825.47321	0.11508
823.54453	0.11417
821.61585	0.11337
819.68718	0.11269
817.75850	0.11215
815.82983	0.11173
813.90115	0.11140
811.97248	0.11112
810.04380	0.11087
808.11512	0.11064
806.18645	0.11051
804.25777	0.11046
802.32910	0.11043
800.40042	0.11026
798.47175	0.10978
796.54307	0.10912
794.61439	0.10851
792.68572	0.10810
790.75704	0.10784
788.82837	0.10757
786.89969	0.10726
784.97102	0.10702
783.04234	0.10681
781.11366	0.10651
779.18499	0.10617
777.25631	0.10585
775.32764	0.10554
773.39896	0.10518
771.47029	0.10483
769.54161	0.10449
767.61293	0.10415
765.68426	0.10377
763.75558	0.10333
761.82691	0.10288
759.89823	0.10248
757.96956	0.10202
756.04088	0.10140
754.11220	0.10070
752.18353	0.10003
750.25485	0.09937
748.32618	0.09867
746.39750	0.09791
744.46883	0.09703
742.54015	0.09606
740.61147	0.09517
738.68280	0.09454
736.75412	0.09425
734.82545	0.09420
732.89677	0.09427
730.96810	0.09435
729.03942	0.09442
727.11074	0.09447
725.18207	0.09459
723.25339	0.09481
721.32472	0.09499
719.39604	0.09512
717.46737	0.09535
715.53869	0.09577
713.61001	0.09632
711.68134	0.09674
709.75266	0.09693
707.82399	0.09698
705.89531	0.09694
703.96664	0.09676
702.03796	0.09642
700.10928	0.09596
698.18061	0.09549
696.25193	0.09501
694.32326	0.09446
692.39458	0.09389
690.46591	0.09334
688.53723	0.09281
686.60855	0.09228
684.67988	0.09178
682.75120	0.09130
680.82253	0.09081
678.89385	0.09027
676.96518	0.08972
675.03650	0.08913
673.10782	0.08843
671.17915	0.08761
669.25047	0.08672
667.32180	0.08585
665.39312	0.08507
663.46445	0.08427
661.53577	0.08334
659.60709	0.08244
657.67842	0.08166
655.74974	0.08087
653.82107	0.08005
651.89239	0.07926
649.96372	0.07844
648.03504	0.07753
646.10636	0.07657
644.17769	0.07564
642.24901	0.07473
640.32034	0.07376
638.39166	0.07273
636.46299	0.07161
634.53431	0.07044
632.60563	0.06900
630.67696	0.06665
628.74828	0.06303
626.81961	0.05847
624.89093	0.05379
622.96226	0.05011
621.03358	0.04791
619.10490	0.04682
617.17623	0.04618
615.24755	0.04538
613.31888	0.04429
611.39020	0.04321
609.46153	0.04259
607.53285	0.04258
605.60417	0.04297
603.67550	0.04356
601.74682	0.04434
599.81815	0.04528
597.88947	0.04620
595.96080	0.04694
594.03212	0.04748
592.10344	0.04779
590.17477	0.04790
588.24609	0.04787
586.31742	0.04769
584.38874	0.04733
582.46007	0.04694
580.53139	0.04662
578.60271	0.04626
576.67404	0.04576
574.74536	0.04521
572.81669	0.04467
570.88801	0.04410
568.95934	0.04350
567.03066	0.04292
565.10198	0.04245
563.17331	0.04211
561.24463	0.04181
559.31596	0.04149
557.38728	0.04126
555.45861	0.04115
553.52993	0.04100
551.60125	0.04078
549.67258	0.04061
547.74390	0.04046
545.81523	0.04030
543.88655	0.04014
541.95788	0.03997
540.02920	0.03975
538.10052	0.03953
536.17185	0.03935
534.24317	0.03914
532.31450	0.03886
530.38582	0.03853
528.45715	0.03823
526.52847	0.03793
524.59979	0.03766
522.67112	0.03747
520.74244	0.03719
518.81377	0.03661
516.88509	0.03586
514.95642	0.03520
513.02774	0.03481
511.09906	0.03468
509.17039	0.03462
507.24171	0.03442
505.31304	0.03407
503.38436	0.03364
501.45569	0.03315
499.52701	0.03258
497.59833	0.03199
495.66966	0.03144
493.74098	0.03092
491.81231	0.03034
489.88363	0.02975
487.95496	0.02924
486.02628	0.02878
484.09760	0.02830
482.16893	0.02774
480.24025	0.02712
478.31158	0.02656
476.38290	0.02606
474.45423	0.02546
472.52555	0.02481
470.59687	0.02428
468.66820	0.02388
466.73952	0.02357
464.81085	0.02334
462.88217	0.02320
460.95350	0.02311
459.02482	0.02295
457.09614	0.02281
455.16747	0.02280
453.23879	0.02282
451.31012	0.02282
449.38144	0.02272
447.45277	0.02251
445.52409	0.02226
443.59541	0.02200
441.66674	0.02174
439.73806	0.02148
437.80939	0.02110
435.88071	0.02055
433.95204	0.01995
432.02336	0.01943
430.09468	0.01896
428.16601	0.01837
426.23733	0.01768
424.30866	0.01703
422.37998	0.01637
420.45131	0.01562
418.52263	0.01492
416.59395	0.01434
414.66528	0.01376
412.73660	0.01313
410.80793	0.01237
408.87925	0.01155
406.95058	0.01084
405.02190	0.01034
403.09322	0.01000
401.16455	0.00967
399.23587	0.00918
397.30720	0.00859
395.37852	0.00801
393.44985	0.00741
391.52117	0.00685
389.59249	0.00636
387.66382	0.00585
385.73514	0.00540
383.80647	0.00509
381.87779	0.00477
379.94912	0.00440
378.02044	0.00396
376.09176	0.00342
374.16309	0.00290
372.23441	0.00256
370.30574	0.00237
368.37706	0.00225
