7496.76250	0.00121
7494.83382	0.00122
7492.90514	0.00123
7490.97647	0.00122
7489.04779	0.00122
7487.11912	0.00122
7485.19044	0.00123
7483.26177	0.00123
7481.33309	0.00122
7479.40441	0.00122
7477.47574	0.00123
7475.54706	0.00125
7473.61839	0.00127
7471.68971	0.00128
7469.76104	0.00128
7467.83236	0.00127
7465.90368	0.00125
7463.97501	0.00124
7462.04633	0.00125
7460.11766	0.00126
7458.18898	0.00126
7456.26031	0.00126
7454.33163	0.00128
7452.40295	0.00129
7450.47428	0.00129
7448.54560	0.00129
7446.61693	0.00129
7444.68825	0.00130
7442.75958	0.00131
7440.83090	0.00131
7438.90222	0.00131
7436.97355	0.00131
7435.04487	0.00132
7433.11620	0.00132
7431.18752	0.00132
7429.25885	0.00132
7427.33017	0.00132
7425.40149	0.00132
7423.47282	0.00133
7421.54414	0.00135
7419.61547	0.00135
7417.68679	0.00134
7415.75812	0.00133
7413.82944	0.00134
7411.90076	0.00135
7409.97209	0.00136
7408.04341	0.00136
7406.11474	0.00137
7404.18606	0.00137
7402.25739	0.00137
7400.32871	0.00138
7398.40003	0.00138
7396.47136	0.00136
7394.54268	0.00135
7392.61401	0.00136
7390.68533	0.00137
7388.75666	0.00139
7386.82798	0.00140
7384.89930	0.00141
7382.97063	0.00141
7381.04195	0.00142
7379.11328	0.00142
7377.18460	0.00143
7375.25593	0.00143
7373.32725	0.00143
7371.39857	0.00143
7369.46990	0.00143
7367.54122	0.00143
7365.61255	0.00144
7363.68387	0.00144
7361.75520	0.00144
7359.82652	0.00145
7357.89784	0.00146
7355.96917	0.00146
7354.04049	0.00146
7352.11182	0.00147
7350.18314	0.00148
7348.25447	0.00148
7346.32579	0.00148
7344.39711	0.00149
7342.46844	0.00149
7340.53976	0.00150
7338.61109	0.00151
7336.68241	0.00151
7334.75374	0.00151
7332.82506	0.00151
7330.89638	0.00152
7328.96771	0.00153
7327.03903	0.00153
7325.11036	0.00153
7323.18168	0.00153
7321.25301	0.00154
7319.32433	0.00155
7317.39565	0.00155
7315.46698	0.00155
7313.53830	0.00155
7311.60963	0.00155
7309.68095	0.00155
7307.75228	0.00154
7305.82360	0.00155
7303.89492	0.00156
7301.96625	0.00156
7300.03757	0.00157
7298.10890	0.00158
7296.18022	0.00157
7294.25155	0.00157
7292.32287	0.00156
7290.39419	0.00156
7288.46552	0.00157
7286.53684	0.00159
7284.60817	0.00160
7282.67949	0.00161
7280.75082	0.00161
7278.82214	0.00160
7276.89346	0.00159
7274.96479	0.00160
7273.03611	0.00160
7271.10744	0.00160
7269.17876	0.00160
7267.25009	0.00161
7265.32141	0.00160
7263.39273	0.00161
7261.46406	0.00163
7259.53538	0.00164
7257.60671	0.00164
7255.67803	0.00165
7253.74936	0.00166
7251.82068	0.00167
7249.89200	0.00168
7247.96333	0.00167
7246.03465	0.00165
7244.10598	0.00165
7242.17730	0.00166
7240.24863	0.00167
7238.31995	0.00168
7236.39127	0.00170
7234.46260	0.00170
7232.53392	0.00171
7230.60525	0.00171
7228.67657	0.00171
7226.74790	0.00172
7224.81922	0.00172
7222.89054	0.00172
7220.96187	0.00171
7219.03319	0.00172
7217.10452	0.00172
7215.17584	0.00173
7213.24717	0.00173
7211.31849	0.00174
7209.38981	0.00175
7207.46114	0.00176
7205.53246	0.00176
7203.60379	0.00176
7201.67511	0.00177
7199.74644	0.00178
7197.81776	0.00178
7195.88908	0.00177
7193.96041	0.00177
7192.03173	0.00178
7190.10306	0.00178
7188.17438	0.00179
7186.24571	0.00180
7184.31703	0.00180
7182.38835	0.00180
7180.45968	0.00181
7178.53100	0.00182
7176.60233	0.00182
7174.67365	0.00182
7172.74498	0.00182
7170.81630	0.00183
7168.88762	0.00184
7166.95895	0.00185
7165.03027	0.00184
7163.10160	0.00183
7161.17292	0.00183
7159.24425	0.00184
7157.31557	0.00186
7155.38689	0.00187
7153.45822	0.00188
7151.52954	0.00186
7149.60087	0.00185
7147.67219	0.00186
7145.74352	0.00187
7143.81484	0.00187
7141.88616	0.00187
7139.95749	0.00188
7138.02881	0.00189
7136.10014	0.00188
7134.17146	0.00188
7132.24279	0.00189
7130.31411	0.00192
7128.38543	0.00194
7126.45676	0.00193
7124.52808	0.00191
7122.59941	0.00190
7120.67073	0.00193
7118.74206	0.00195
7116.81338	0.00196
7114.88470	0.00196
7112.95603	0.00195
7111.02735	0.00196
7109.09868	0.00196
7107.17000	0.00196
7105.24133	0.00195
7103.31265	0.00194
7101.38397	0.00195
7099.45530	0.00198
7097.52662	0.00200
7095.59795	0.00200
7093.66927	0.00200
7091.74060	0.00199
7089.81192	0.00198
7087.88324	0.00198
7085.95457	0.00198
7084.02589	0.00199
7082.09722	0.00199
7080.16854	0.00198
7078.23987	0.00199
7076.31119	0.00200
7074.38251	0.00201
7072.45384	0.00203
7070.52516	0.00204
7068.59649	0.00204
7066.66781	0.00206
7064.73914	0.00207
7062.81046	0.00207
7060.88178	0.00207
7058.95311	0.00207
7057.02443	0.00208
7055.09576	0.00209
7053.16708	0.00208
7051.23841	0.00208
7049.30973	0.00210
7047.38105	0.00211
7045.45238	0.00211
7043.52370	0.00211
7041.59503	0.00212
7039.66635	0.00213
7037.73768	0.00214
7035.80900	0.00214
7033.88032	0.00213
7031.95165	0.00213
7030.02297	0.00215
7028.09430	0.00216
7026.16562	0.00215
7024.23695	0.00215
7022.30827	0.00217
7020.37959	0.00218
7018.45092	0.00218
7016.52224	0.00217
7014.59357	0.00217
7012.66489	0.00217
7010.73622	0.00218
7008.80754	0.00218
7006.87886	0.00218
7004.95019	0.00219
7003.02151	0.00219
7001.09284	0.00220
6999.16416	0.00220
6997.23549	0.00222
6995.30681	0.00222
6993.37813	0.00222
6991.44946	0.00221
6989.52078	0.00221
6987.59211	0.00222
6985.66343	0.00223
6983.73476	0.00223
6981.80608	0.00223
6979.87740	0.00224
6977.94873	0.00225
6976.02005	0.00227
6974.09138	0.00228
6972.16270	0.00228
6970.23403	0.00229
6968.30535	0.00230
6966.37667	0.00231
6964.44800	0.00231
6962.51932	0.00230
6960.59065	0.00229
6958.66197	0.00228
6956.73330	0.00228
6954.80462	0.00229
6952.87594	0.00231
6950.94727	0.00232
6949.01859	0.00232
6947.08992	0.00232
6945.16124	0.00233
6943.23257	0.00234
6941.30389	0.00235
6939.37521	0.00236
6937.44654	0.00236
6935.51786	0.00236
6933.58919	0.00238
6931.66051	0.00239
6929.73184	0.00240
6927.80316	0.00241
6925.87448	0.00240
6923.94581	0.00240
6922.01713	0.00240
6920.08846	0.00242
6918.15978	0.00242
6916.23111	0.00241
6914.30243	0.00241
6912.37375	0.00242
6910.44508	0.00243
6908.51640	0.00244
6906.58773	0.00244
6904.65905	0.00244
6902.73038	0.00245
6900.80170	0.00246
6898.87302	0.00247
6896.94435	0.00247
6895.01567	0.00246
6893.08700	0.00246
6891.15832	0.00247
6889.22965	0.00250
6887.30097	0.00251
6885.37229	0.00251
6883.44362	0.00251
6881.51494	0.00251
6879.58627	0.00251
6877.65759	0.00252
6875.72892	0.00251
6873.80024	0.00251
6871.87156	0.00252
6869.94289	0.00253
6868.01421	0.00254
6866.08554	0.00254
6864.15686	0.00253
6862.22819	0.00254
6860.29951	0.00255
6858.37083	0.00256
6856.44216	0.00257
6854.51348	0.00258
6852.58481	0.00260
6850.65613	0.00261
6848.72746	0.00262
6846.79878	0.00263
6844.87010	0.00262
6842.94143	0.00262
6841.01275	0.00263
6839.08408	0.00263
6837.15540	0.00263
6835.22673	0.00263
6833.29805	0.00264
6831.36937	0.00265
6829.44070	0.00266
6827.51202	0.00267
6825.58335	0.00268
6823.65467	0.00269
6821.72600	0.00267
6819.79732	0.00265
6817.86864	0.00265
6815.93997	0.00266
6814.01129	0.00269
6812.08262	0.00271
6810.15394	0.00272
6808.22527	0.00273
6806.29659	0.00273
6804.36791	0.00273
6802.43924	0.00272
6800.51056	0.00273
6798.58189	0.00274
6796.65321	0.00276
6794.72454	0.00277
6792.79586	0.00277
6790.86718	0.00277
6788.93851	0.00277
6787.00983	0.00278
6785.08116	0.00278
6783.15248	0.00279
6781.22381	0.00279
6779.29513	0.00280
6777.36645	0.00280
6775.43778	0.00280
6773.50910	0.00279
6771.58043	0.00280
6769.65175	0.00282
6767.72308	0.00283
6765.79440	0.00284
6763.86572	0.00285
6761.93705	0.00286
6760.00837	0.00287
6758.07970	0.00287
6756.15102	0.00287
6754.22235	0.00287
6752.29367	0.00287
6750.36499	0.00288
6748.43632	0.00290
6746.50764	0.00290
6744.57897	0.00291
6742.65029	0.00291
6740.72162	0.00291
6738.79294	0.00291
6736.86426	0.00291
6734.93559	0.00293
6733.00691	0.00294
6731.07824	0.00294
6729.14956	0.00294
6727.22089	0.00296
6725.29221	0.00296
6723.36353	0.00296
6721.43486	0.00295
6719.50618	0.00296
6717.57751	0.00298
6715.64883	0.00299
6713.72016	0.00300
6711.79148	0.00301
6709.86280	0.00303
6707.93413	0.00303
6706.00545	0.00302
6704.07678	0.00301
6702.14810	0.00303
6700.21943	0.00305
6698.29075	0.00305
6696.36207	0.00306
6694.43340	0.00308
6692.50472	0.00308
6690.57605	0.00308
6688.64737	0.00307
6686.71870	0.00307
6684.79002	0.00307
6682.86134	0.00306
6680.93267	0.00307
6679.00399	0.00309
6677.07532	0.00311
6675.14664	0.00313
6673.21797	0.00314
6671.28929	0.00315
6669.36061	0.00315
6667.43194	0.00316
6665.50326	0.00317
6663.57459	0.00318
6661.64591	0.00319
6659.71724	0.00319
6657.78856	0.00321
6655.85988	0.00322
6653.93121	0.00322
6652.00253	0.00321
6650.07386	0.00321
6648.14518	0.00322
6646.21651	0.00322
6644.28783	0.00324
6642.35915	0.00325
6640.43048	0.00325
6638.50180	0.00325
6636.57313	0.00326
6634.64445	0.00327
6632.71578	0.00328
6630.78710	0.00330
6628.85842	0.00332
6626.92975	0.00332
6625.00107	0.00330
6623.07240	0.00329
6621.14372	0.00331
6619.21505	0.00333
6617.28637	0.00333
6615.35769	0.00333
6613.42902	0.00333
6611.50034	0.00333
6609.57167	0.00334
6607.64299	0.00336
6605.71432	0.00336
6603.78564	0.00337
6601.85696	0.00339
6599.92829	0.00339
6597.99961	0.00339
6596.07094	0.00339
6594.14226	0.00340
6592.21359	0.00341
6590.28491	0.00342
6588.35623	0.00343
6586.42756	0.00344
6584.49888	0.00344
6582.57021	0.00344
6580.64153	0.00344
6578.71286	0.00344
6576.78418	0.00344
6574.85550	0.00346
6572.92683	0.00348
6570.99815	0.00349
6569.06948	0.00349
6567.14080	0.00350
6565.21213	0.00351
6563.28345	0.00352
6561.35477	0.00352
6559.42610	0.00354
6557.49742	0.00355
6555.56875	0.00356
6553.64007	0.00358
6551.71140	0.00358
6549.78272	0.00359
6547.85404	0.00359
6545.92537	0.00359
6543.99669	0.00361
6542.06802	0.00363
6540.13934	0.00363
6538.21067	0.00362
6536.28199	0.00362
6534.35331	0.00364
6532.42464	0.00365
6530.49596	0.00366
6528.56729	0.00366
6526.63861	0.00367
6524.70994	0.00368
6522.78126	0.00370
6520.85258	0.00372
6518.92391	0.00371
6516.99523	0.00371
6515.06656	0.00371
6513.13788	0.00371
6511.20921	0.00373
6509.28053	0.00374
6507.35185	0.00375
6505.42318	0.00375
6503.49450	0.00376
6501.56583	0.00378
6499.63715	0.00379
6497.70848	0.00379
6495.77980	0.00379
6493.85112	0.00378
6491.92245	0.00379
6489.99377	0.00379
6488.06510	0.00378
6486.13642	0.00379
6484.20775	0.00381
6482.27907	0.00384
6480.35039	0.00385
6478.42172	0.00384
6476.49304	0.00383
6474.56437	0.00384
6472.63569	0.00385
6470.70702	0.00387
6468.77834	0.00389
6466.84966	0.00391
6464.92099	0.00392
6462.99231	0.00392
6461.06364	0.00392
6459.13496	0.00394
6457.20629	0.00396
6455.27761	0.00398
6453.34893	0.00399
6451.42026	0.00399
6449.49158	0.00399
6447.56291	0.00399
6445.63423	0.00399
6443.70556	0.00399
6441.77688	0.00401
6439.84820	0.00401
6437.91953	0.00403
6435.99085	0.00405
6434.06218	0.00405
6432.13350	0.00405
6430.20483	0.00406
6428.27615	0.00407
6426.34747	0.00407
6424.41880	0.00409
6422.49012	0.00410
6420.56145	0.00410
6418.63277	0.00411
6416.70410	0.00412
6414.77542	0.00414
6412.84674	0.00415
6410.91807	0.00418
6408.98939	0.00419
6407.06072	0.00418
6405.13204	0.00417
6403.20337	0.00417
6401.27469	0.00417
6399.34601	0.00418
6397.41734	0.00421
6395.48866	0.00423
6393.55999	0.00424
6391.63131	0.00424
6389.70264	0.00423
6387.77396	0.00424
6385.84528	0.00425
6383.91661	0.00426
6381.98793	0.00427
6380.05926	0.00429
6378.13058	0.00430
6376.20191	0.00431
6374.27323	0.00431
6372.34455	0.00431
6370.41588	0.00432
6368.48720	0.00434
6366.55853	0.00436
6364.62985	0.00438
6362.70118	0.00440
6360.77250	0.00440
6358.84382	0.00439
6356.91515	0.00439
6354.98647	0.00439
6353.05780	0.00441
6351.12912	0.00443
6349.20045	0.00445
6347.27177	0.00446
6345.34309	0.00446
6343.41442	0.00445
6341.48574	0.00445
6339.55707	0.00446
6337.62839	0.00447
6335.69972	0.00449
6333.77104	0.00451
6331.84236	0.00453
6329.91369	0.00452
6327.98501	0.00451
6326.05634	0.00452
6324.12766	0.00453
6322.19899	0.00454
6320.27031	0.00454
6318.34163	0.00456
6316.41296	0.00459
6314.48428	0.00462
6312.55561	0.00462
6310.62693	0.00462
6308.69826	0.00462
6306.76958	0.00463
6304.84090	0.00463
6302.91223	0.00464
6300.98355	0.00466
6299.05488	0.00467
6297.12620	0.00468
6295.19753	0.00470
6293.26885	0.00473
6291.34017	0.00474
6289.41150	0.00473
6287.48282	0.00472
6285.55415	0.00473
6283.62547	0.00475
6281.69680	0.00477
6279.76812	0.00477
6277.83944	0.00477
6275.91077	0.00477
6273.98209	0.00479
6272.05342	0.00482
6270.12474	0.00483
6268.19607	0.00482
6266.26739	0.00482
6264.33871	0.00484
6262.41004	0.00485
6260.48136	0.00487
6258.55269	0.00490
6256.62401	0.00491
6254.69534	0.00491
6252.76666	0.00491
6250.83798	0.00492
6248.90931	0.00494
6246.98063	0.00496
6245.05196	0.00497
6243.12328	0.00498
6241.19461	0.00500
6239.26593	0.00501
6237.33725	0.00502
6235.40858	0.00502
6233.47990	0.00502
6231.55123	0.00502
6229.62255	0.00503
6227.69388	0.00504
6225.76520	0.00506
6223.83652	0.00506
6221.90785	0.00507
6219.97917	0.00508
6218.05050	0.00511
6216.12182	0.00513
6214.19315	0.00514
6212.26447	0.00514
6210.33579	0.00514
6208.40712	0.00514
6206.47844	0.00515
6204.54977	0.00517
6202.62109	0.00518
6200.69242	0.00519
6198.76374	0.00519
6196.83506	0.00520
6194.90639	0.00523
6192.97771	0.00524
6191.04904	0.00524
6189.12036	0.00525
6187.19169	0.00527
6185.26301	0.00530
6183.33433	0.00531
6181.40566	0.00531
6179.47698	0.00532
6177.54831	0.00533
6175.61963	0.00535
6173.69096	0.00535
6171.76228	0.00535
6169.83360	0.00536
6167.90493	0.00538
6165.97625	0.00540
6164.04758	0.00541
6162.11890	0.00541
6160.19023	0.00542
6158.26155	0.00542
6156.33287	0.00544
6154.40420	0.00546
6152.47552	0.00548
6150.54685	0.00549
6148.61817	0.00552
6146.68950	0.00553
6144.76082	0.00553
6142.83214	0.00553
6140.90347	0.00554
6138.97479	0.00554
6137.04612	0.00556
6135.11744	0.00557
6133.18877	0.00558
6131.26009	0.00558
6129.33141	0.00558
6127.40274	0.00560
6125.47406	0.00562
6123.54539	0.00564
6121.61671	0.00567
6119.68804	0.00567
6117.75936	0.00567
6115.83068	0.00569
6113.90201	0.00570
6111.97333	0.00571
6110.04466	0.00571
6108.11598	0.00573
6106.18731	0.00575
6104.25863	0.00576
6102.32995	0.00578
6100.40128	0.00579
6098.47260	0.00581
6096.54393	0.00582
6094.61525	0.00582
6092.68658	0.00581
6090.75790	0.00581
6088.82922	0.00583
6086.90055	0.00586
6084.97187	0.00589
6083.04320	0.00590
6081.11452	0.00591
6079.18585	0.00593
6077.25717	0.00593
6075.32849	0.00594
6073.39982	0.00593
6071.47114	0.00593
6069.54247	0.00594
6067.61379	0.00597
6065.68512	0.00599
6063.75644	0.00601
6061.82776	0.00603
6059.89909	0.00603
6057.97041	0.00604
6056.04174	0.00607
6054.11306	0.00610
6052.18439	0.00611
6050.25571	0.00610
6048.32703	0.00612
6046.39836	0.00616
6044.46968	0.00618
6042.54101	0.00619
6040.61233	0.00619
6038.68366	0.00619
6036.75498	0.00620
6034.82630	0.00621
6032.89763	0.00624
6030.96895	0.00626
6029.04028	0.00627
6027.11160	0.00627
6025.18293	0.00628
6023.25425	0.00630
6021.32557	0.00630
6019.39690	0.00631
6017.46822	0.00633
6015.53955	0.00637
6013.61087	0.00638
6011.68220	0.00637
6009.75352	0.00637
6007.82484	0.00639
6005.89617	0.00642
6003.96749	0.00644
6002.03882	0.00644
6000.11014	0.00643
5998.18147	0.00642
5996.25279	0.00642
5994.32411	0.00643
5992.39544	0.00646
5990.46676	0.00649
5988.53809	0.00651
5986.60941	0.00652
5984.68074	0.00654
5982.75206	0.00655
5980.82338	0.00656
5978.89471	0.00657
5976.96603	0.00660
5975.03736	0.00661
5973.10868	0.00662
5971.18001	0.00662
5969.25133	0.00665
5967.32265	0.00667
5965.39398	0.00668
5963.46530	0.00669
5961.53663	0.00671
5959.60795	0.00673
5957.67928	0.00675
5955.75060	0.00675
5953.82192	0.00675
5951.89325	0.00674
5949.96457	0.00674
5948.03590	0.00675
5946.10722	0.00678
5944.17855	0.00681
5942.24987	0.00683
5940.32119	0.00684
5938.39252	0.00685
5936.46384	0.00686
5934.53517	0.00690
5932.60649	0.00693
5930.67782	0.00694
5928.74914	0.00693
5926.82046	0.00694
5924.89179	0.00696
5922.96311	0.00698
5921.03444	0.00700
5919.10576	0.00702
5917.17709	0.00702
5915.24841	0.00703
5913.31973	0.00705
5911.39106	0.00708
5909.46238	0.00710
5907.53371	0.00710
5905.60503	0.00711
5903.67636	0.00712
5901.74768	0.00713
5899.81900	0.00714
5897.89033	0.00716
5895.96165	0.00719
5894.03298	0.00721
5892.10430	0.00724
5890.17563	0.00726
5888.24695	0.00727
5886.31827	0.00727
5884.38960	0.00727
5882.46092	0.00728
5880.53225	0.00729
5878.60357	0.00730
5876.67490	0.00732
5874.74622	0.00735
5872.81755	0.00737
5870.88887	0.00740
5868.96019	0.00743
5867.03152	0.00746
5865.10284	0.00745
5863.17417	0.00744
5861.24549	0.00743
5859.31682	0.00744
5857.38814	0.00747
5855.45946	0.00750
5853.53079	0.00752
5851.60211	0.00753
5849.67344	0.00754
5847.74476	0.00755
5845.81609	0.00758
5843.88741	0.00761
5841.95873	0.00765
5840.03006	0.00767
5838.10138	0.00768
5836.17271	0.00767
5834.24403	0.00767
5832.31536	0.00768
5830.38668	0.00770
5828.45800	0.00773
5826.52933	0.00774
5824.60065	0.00775
5822.67198	0.00777
5820.74330	0.00780
5818.81463	0.00781
5816.88595	0.00782
5814.95727	0.00783
5813.02860	0.00786
5811.09992	0.00788
5809.17125	0.00790
5807.24257	0.00791
5805.31390	0.00790
5803.38522	0.00790
5801.45654	0.00792
5799.52787	0.00795
5797.59919	0.00798
5795.67052	0.00799
5793.74184	0.00801
5791.81317	0.00803
5789.88449	0.00805
5787.95581	0.00805
5786.02714	0.00806
5784.09846	0.00809
5782.16979	0.00811
5780.24111	0.00812
5778.31244	0.00813
5776.38376	0.00815
5774.45508	0.00816
5772.52641	0.00818
5770.59773	0.00820
5768.66906	0.00821
5766.74038	0.00822
5764.81171	0.00824
5762.88303	0.00827
5760.95435	0.00829
5759.02568	0.00830
5757.09700	0.00832
5755.16833	0.00835
5753.23965	0.00837
5751.31098	0.00838
5749.38230	0.00839
5747.45362	0.00840
5745.52495	0.00841
5743.59627	0.00842
5741.66760	0.00843
5739.73892	0.00844
5737.81025	0.00847
5735.88157	0.00850
5733.95289	0.00853
5732.02422	0.00855
5730.09554	0.00855
5728.16687	0.00856
5726.23819	0.00858
5724.30952	0.00861
5722.38084	0.00864
5720.45216	0.00866
5718.52349	0.00866
5716.59481	0.00868
5714.66614	0.00869
5712.73746	0.00870
5710.80879	0.00872
5708.88011	0.00874
5706.95143	0.00877
5705.02276	0.00880
5703.09408	0.00882
5701.16541	0.00882
5699.23673	0.00884
5697.30806	0.00886
5695.37938	0.00888
5693.45070	0.00889
5691.52203	0.00891
5689.59335	0.00892
5687.66468	0.00893
5685.73600	0.00894
5683.80733	0.00896
5681.87865	0.00900
5679.94997	0.00903
5678.02130	0.00904
5676.09262	0.00905
5674.16395	0.00905
5672.23527	0.00905
5670.30660	0.00908
5668.37792	0.00912
5666.44924	0.00916
5664.52057	0.00917
5662.59189	0.00917
5660.66322	0.00918
5658.73454	0.00920
5656.80587	0.00921
5654.87719	0.00922
5652.94851	0.00923
5651.01984	0.00925
5649.09116	0.00929
5647.16249	0.00931
5645.23381	0.00933
5643.30514	0.00935
5641.37646	0.00937
5639.44778	0.00938
5637.51911	0.00939
5635.59043	0.00940
5633.66176	0.00941
5631.73308	0.00943
5629.80441	0.00943
5627.87573	0.00945
5625.94705	0.00948
5624.01838	0.00951
5622.08970	0.00953
5620.16103	0.00956
5618.23235	0.00959
5616.30368	0.00962
5614.37500	0.00963
5612.44632	0.00965
5610.51765	0.00967
5608.58897	0.00968
5606.66030	0.00969
5604.73162	0.00971
5602.80295	0.00973
5600.87427	0.00975
5598.94559	0.00979
5597.01692	0.00980
5595.08824	0.00980
5593.15957	0.00981
5591.23089	0.00982
5589.30222	0.00985
5587.37354	0.00990
5585.44486	0.00994
5583.51619	0.00995
5581.58751	0.00995
5579.65884	0.00996
5577.73016	0.00997
5575.80149	0.00998
5573.87281	0.01002
5571.94413	0.01006
5570.01546	0.01006
5568.08678	0.01008
5566.15811	0.01010
5564.22943	0.01011
5562.30076	0.01011
5560.37208	0.01014
5558.44340	0.01017
5556.51473	0.01019
5554.58605	0.01021
5552.65738	0.01023
5550.72870	0.01026
5548.80003	0.01028
5546.87135	0.01030
5544.94267	0.01032
5543.01400	0.01033
5541.08532	0.01034
5539.15665	0.01035
5537.22797	0.01036
5535.29930	0.01039
5533.37062	0.01042
5531.44194	0.01046
5529.51327	0.01047
5527.58459	0.01048
5525.65592	0.01049
5523.72724	0.01051
5521.79857	0.01053
5519.86989	0.01056
5517.94121	0.01058
5516.01254	0.01059
5514.08386	0.01060
5512.15519	0.01062
5510.22651	0.01064
5508.29784	0.01067
5506.36916	0.01070
5504.44048	0.01074
5502.51181	0.01076
5500.58313	0.01076
5498.65446	0.01078
5496.72578	0.01080
5494.79711	0.01083
5492.86843	0.01085
5490.93975	0.01088
5489.01108	0.01091
5487.08240	0.01092
5485.15373	0.01095
5483.22505	0.01097
5481.29638	0.01100
5479.36770	0.01102
5477.43902	0.01103
5475.51035	0.01104
5473.58167	0.01106
5471.65300	0.01107
5469.72432	0.01109
5467.79565	0.01111
5465.86697	0.01113
5463.93829	0.01115
5462.00962	0.01118
5460.08094	0.01119
5458.15227	0.01120
5456.22359	0.01123
5454.29492	0.01126
5452.36624	0.01130
5450.43756	0.01133
5448.50889	0.01134
5446.58021	0.01134
5444.65154	0.01133
5442.72286	0.01134
5440.79419	0.01136
5438.86551	0.01139
5436.93683	0.01143
5435.00816	0.01145
5433.07948	0.01146
5431.15081	0.01147
5429.22213	0.01149
5427.29346	0.01151
5425.36478	0.01154
5423.43610	0.01159
5421.50743	0.01163
5419.57875	0.01165
5417.65008	0.01168
5415.72140	0.01172
5413.79273	0.01175
5411.86405	0.01175
5409.93537	0.01175
5408.00670	0.01175
5406.07802	0.01177
5404.14935	0.01180
5402.22067	0.01183
5400.29200	0.01185
5398.36332	0.01187
5396.43464	0.01190
5394.50597	0.01193
5392.57729	0.01195
5390.64862	0.01197
5388.71994	0.01198
5386.79127	0.01199
5384.86259	0.01202
5382.93391	0.01206
5381.00524	0.01209
5379.07656	0.01211
5377.14789	0.01211
5375.21921	0.01213
5373.29054	0.01216
5371.36186	0.01218
5369.43318	0.01219
5367.50451	0.01220
5365.57583	0.01221
5363.64716	0.01223
5361.71848	0.01228
5359.78981	0.01232
5357.86113	0.01235
5355.93245	0.01237
5354.00378	0.01241
5352.07510	0.01244
5350.14643	0.01245
5348.21775	0.01244
5346.28908	0.01245
5344.36040	0.01247
5342.43172	0.01250
5340.50305	0.01252
5338.57437	0.01252
5336.64570	0.01254
5334.71702	0.01258
5332.78835	0.01261
5330.85967	0.01263
5328.93099	0.01265
5327.00232	0.01267
5325.07364	0.01270
5323.14497	0.01273
5321.21629	0.01276
5319.28762	0.01279
5317.35894	0.01282
5315.43026	0.01284
5313.50159	0.01287
5311.57291	0.01290
5309.64424	0.01293
5307.71556	0.01294
5305.78689	0.01295
5303.85821	0.01299
5301.92953	0.01302
5300.00086	0.01304
5298.07218	0.01306
5296.14351	0.01309
5294.21483	0.01310
5292.28616	0.01311
5290.35748	0.01312
5288.42880	0.01315
5286.50013	0.01318
5284.57145	0.01317
5282.64278	0.01317
5280.71410	0.01320
5278.78543	0.01325
5276.85675	0.01329
5274.92807	0.01332
5272.99940	0.01335
5271.07072	0.01339
5269.14205	0.01341
5267.21337	0.01343
5265.28470	0.01344
5263.35602	0.01347
5261.42734	0.01350
5259.49867	0.01350
5257.56999	0.01350
5255.64132	0.01351
5253.71264	0.01355
5251.78397	0.01358
5249.85529	0.01361
5247.92661	0.01363
5245.99794	0.01365
5244.06926	0.01367
5242.14059	0.01371
5240.21191	0.01374
5238.28324	0.01376
5236.35456	0.01378
5234.42588	0.01381
5232.49721	0.01385
5230.56853	0.01388
5228.63986	0.01389
5226.71118	0.01390
5224.78251	0.01394
5222.85383	0.01398
5220.92515	0.01400
5218.99648	0.01401
5217.06780	0.01403
5215.13913	0.01406
5213.21045	0.01408
5211.28178	0.01409
5209.35310	0.01410
5207.42442	0.01411
5205.49575	0.01415
5203.56707	0.01419
5201.63840	0.01422
5199.70972	0.01422
5197.78105	0.01422
5195.85237	0.01425
5193.92369	0.01429
5191.99502	0.01434
5190.06634	0.01438
5188.13767	0.01441
5186.20899	0.01443
5184.28032	0.01445
5182.35164	0.01447
5180.42296	0.01450
5178.49429	0.01453
5176.56561	0.01454
5174.63694	0.01455
5172.70826	0.01459
5170.77959	0.01463
5168.85091	0.01465
5166.92223	0.01465
5164.99356	0.01466
5163.06488	0.01469
5161.13621	0.01473
5159.20753	0.01476
5157.27886	0.01478
5155.35018	0.01480
5153.42150	0.01483
5151.49283	0.01486
5149.56415	0.01487
5147.63548	0.01489
5145.70680	0.01491
5143.77813	0.01495
5141.84945	0.01499
5139.92077	0.01501
5137.99210	0.01502
5136.06342	0.01504
5134.13475	0.01508
5132.20607	0.01511
5130.27740	0.01512
5128.34872	0.01515
5126.42004	0.01519
5124.49137	0.01523
5122.56269	0.01525
5120.63402	0.01527
5118.70534	0.01529
5116.77667	0.01531
5114.84799	0.01534
5112.91931	0.01538
5110.99064	0.01540
5109.06196	0.01541
5107.13329	0.01543
5105.20461	0.01547
5103.27594	0.01551
5101.34726	0.01554
5099.41858	0.01556
5097.48991	0.01558
5095.56123	0.01561
5093.63256	0.01563
5091.70388	0.01565
5089.77521	0.01566
5087.84653	0.01568
5085.91785	0.01572
5083.98918	0.01575
5082.06050	0.01578
5080.13183	0.01581
5078.20315	0.01584
5076.27448	0.01584
5074.34580	0.01584
5072.41712	0.01588
5070.48845	0.01592
5068.55977	0.01597
5066.63110	0.01601
5064.70242	0.01604
5062.77375	0.01604
5060.84507	0.01605
5058.91639	0.01608
5056.98772	0.01611
5055.05904	0.01613
5053.13037	0.01617
5051.20169	0.01619
5049.27302	0.01621
5047.34434	0.01623
5045.41566	0.01625
5043.48699	0.01627
5041.55831	0.01632
5039.62964	0.01636
5037.70096	0.01638
5035.77229	0.01640
5033.84361	0.01643
5031.91493	0.01647
5029.98626	0.01650
5028.05758	0.01651
5026.12891	0.01651
5024.20023	0.01652
5022.27156	0.01656
5020.34288	0.01663
5018.41420	0.01668
5016.48553	0.01669
5014.55685	0.01671
5012.62818	0.01674
5010.69950	0.01677
5008.77083	0.01679
5006.84215	0.01682
5004.91347	0.01686
5002.98480	0.01687
5001.05612	0.01687
4999.12745	0.01690
4997.19877	0.01695
4995.27010	0.01699
4993.34142	0.01702
4991.41274	0.01705
4989.48407	0.01707
4987.55539	0.01708
4985.62672	0.01711
4983.69804	0.01715
4981.76937	0.01718
4979.84069	0.01719
4977.91201	0.01720
4975.98334	0.01723
4974.05466	0.01727
4972.12599	0.01729
4970.19731	0.01731
4968.26864	0.01734
4966.33996	0.01737
4964.41128	0.01740
4962.48261	0.01742
4960.55393	0.01745
4958.62526	0.01749
4956.69658	0.01752
4954.76791	0.01753
4952.83923	0.01756
4950.91055	0.01760
4948.98188	0.01765
4947.05320	0.01768
4945.12453	0.01771
4943.19585	0.01773
4941.26718	0.01775
4939.33850	0.01778
4937.40982	0.01780
4935.48115	0.01782
4933.55247	0.01786
4931.62380	0.01789
4929.69512	0.01791
4927.76645	0.01793
4925.83777	0.01796
4923.90909	0.01798
4921.98042	0.01800
4920.05174	0.01804
4918.12307	0.01810
4916.19439	0.01813
4914.26572	0.01815
4912.33704	0.01818
4910.40836	0.01819
4908.47969	0.01821
4906.55101	0.01825
4904.62234	0.01830
4902.69366	0.01833
4900.76499	0.01834
4898.83631	0.01837
4896.90763	0.01842
4894.97896	0.01846
4893.05028	0.01849
4891.12161	0.01851
4889.19293	0.01853
4887.26426	0.01856
4885.33558	0.01859
4883.40690	0.01860
4881.47823	0.01863
4879.54955	0.01866
4877.62088	0.01872
4875.69220	0.01876
4873.76353	0.01878
4871.83485	0.01879
4869.90617	0.01882
4867.97750	0.01886
4866.04882	0.01888
4864.12015	0.01888
4862.19147	0.01889
4860.26280	0.01893
4858.33412	0.01897
4856.40544	0.01901
4854.47677	0.01907
4852.54809	0.01912
4850.61942	0.01915
4848.69074	0.01918
4846.76207	0.01921
4844.83339	0.01923
4842.90471	0.01924
4840.97604	0.01926
4839.04736	0.01929
4837.11869	0.01932
4835.19001	0.01936
4833.26134	0.01939
4831.33266	0.01942
4829.40398	0.01946
4827.47531	0.01948
4825.54663	0.01951
4823.61796	0.01957
4821.68928	0.01961
4819.76061	0.01963
4817.83193	0.01966
4815.90325	0.01967
4813.97458	0.01969
4812.04590	0.01971
4810.11723	0.01975
4808.18855	0.01979
4806.25988	0.01982
4804.33120	0.01985
4802.40252	0.01990
4800.47385	0.01994
4798.54517	0.01996
4796.61650	0.01997
4794.68782	0.01997
4792.75915	0.02001
4790.83047	0.02005
4788.90179	0.02008
4786.97312	0.02010
4785.04444	0.02016
4783.11577	0.02022
4781.18709	0.02026
4779.25842	0.02030
4777.32974	0.02033
4775.40106	0.02035
4773.47239	0.02036
4771.54371	0.02038
4769.61504	0.02040
4767.68636	0.02044
4765.75769	0.02048
4763.82901	0.02051
4761.90033	0.02056
4759.97166	0.02060
4758.04298	0.02064
4756.11431	0.02067
4754.18563	0.02070
4752.25696	0.02074
4750.32828	0.02077
4748.39960	0.02078
4746.47093	0.02079
4744.54225	0.02083
4742.61358	0.02088
4740.68490	0.02093
4738.75623	0.02097
4736.82755	0.02099
4734.89887	0.02102
4732.97020	0.02106
4731.04152	0.02110
4729.11285	0.02112
4727.18417	0.02114
4725.25550	0.02116
4723.32682	0.02120
4721.39814	0.02125
4719.46947	0.02129
4717.54079	0.02133
4715.61212	0.02137
4713.68344	0.02140
4711.75477	0.02142
4709.82609	0.02143
4707.89741	0.02147
4705.96874	0.02152
4704.04006	0.02156
4702.11139	0.02158
4700.18271	0.02159
4698.25404	0.02162
4696.32536	0.02168
4694.39668	0.02174
4692.46801	0.02178
4690.53933	0.02179
4688.61066	0.02181
4686.68198	0.02183
4684.75331	0.02188
4682.82463	0.02193
4680.89595	0.02194
4678.96728	0.02195
4677.03860	0.02199
4675.10993	0.02205
4673.18125	0.02210
4671.25258	0.02213
4669.32390	0.02215
4667.39522	0.02219
4665.46655	0.02223
4663.53787	0.02225
4661.60920	0.02227
4659.68052	0.02232
4657.75185	0.02237
4655.82317	0.02242
4653.89449	0.02247
4651.96582	0.02250
4650.03714	0.02253
4648.10847	0.02257
4646.17979	0.02261
4644.25112	0.02266
4642.32244	0.02270
4640.39376	0.02273
4638.46509	0.02274
4636.53641	0.02276
4634.60774	0.02280
4632.67906	0.02287
4630.75039	0.02291
4628.82171	0.02293
4626.89303	0.02295
4624.96436	0.02299
4623.03568	0.02305
4621.10701	0.02311
4619.17833	0.02317
4617.24966	0.02320
4615.32098	0.02322
4613.39230	0.02325
4611.46363	0.02329
4609.53495	0.02333
4607.60628	0.02336
4605.67760	0.02340
4603.74893	0.02344
4601.82025	0.02349
4599.89157	0.02352
4597.96290	0.02354
4596.03422	0.02359
4594.10555	0.02365
4592.17687	0.02369
4590.24820	0.02372
4588.31952	0.02375
4586.39084	0.02378
4584.46217	0.02381
4582.53349	0.02384
4580.60482	0.02389
4578.67614	0.02394
4576.74747	0.02397
4574.81879	0.02399
4572.89011	0.02402
4570.96144	0.02408
4569.03276	0.02414
4567.10409	0.02418
4565.17541	0.02421
4563.24674	0.02424
4561.31806	0.02426
4559.38938	0.02427
4557.46071	0.02430
4555.53203	0.02436
4553.60336	0.02442
4551.67468	0.02448
4549.74601	0.02454
4547.81733	0.02458
4545.88865	0.02460
4543.95998	0.02462
4542.03130	0.02467
4540.10263	0.02474
4538.17395	0.02479
4536.24528	0.02481
4534.31660	0.02484
4532.38792	0.02488
4530.45925	0.02493
4528.53057	0.02498
4526.60190	0.02502
4524.67322	0.02505
4522.74455	0.02509
4520.81587	0.02515
4518.88719	0.02520
4516.95852	0.02524
4515.02984	0.02529
4513.10117	0.02533
4511.17249	0.02536
4509.24382	0.02537
4507.31514	0.02539
4505.38646	0.02542
4503.45779	0.02545
4501.52911	0.02550
4499.60044	0.02555
4497.67176	0.02559
4495.74309	0.02565
4493.81441	0.02570
4491.88573	0.02575
4489.95706	0.02580
4488.02838	0.02586
4486.09971	0.02591
4484.17103	0.02596
4482.24236	0.02601
4480.31368	0.02606
4478.38500	0.02610
4476.45633	0.02613
4474.52765	0.02617
4472.59898	0.02622
4470.67030	0.02628
4468.74163	0.02634
4466.81295	0.02638
4464.88427	0.02642
4462.95560	0.02644
4461.02692	0.02646
4459.09825	0.02651
4457.16957	0.02656
4455.24090	0.02663
4453.31222	0.02669
4451.38354	0.02673
4449.45487	0.02675
4447.52619	0.02679
4445.59752	0.02685
4443.66884	0.02691
4441.74017	0.02696
4439.81149	0.02700
4437.88281	0.02702
4435.95414	0.02705
4434.02546	0.02711
4432.09679	0.02717
4430.16811	0.02723
4428.23944	0.02729
4426.31076	0.02736
4424.38208	0.02741
4422.45341	0.02746
4420.52473	0.02749
4418.59606	0.02753
4416.66738	0.02757
4414.73871	0.02760
4412.81003	0.02762
4410.88135	0.02767
4408.95268	0.02773
4407.02400	0.02780
4405.09533	0.02785
4403.16665	0.02791
4401.23798	0.02797
4399.30930	0.02800
4397.38062	0.02801
4395.45195	0.02805
4393.52327	0.02812
4391.59460	0.02817
4389.66592	0.02820
4387.73725	0.02824
4385.80857	0.02830
4383.87989	0.02835
4381.95122	0.02842
4380.02254	0.02847
4378.09387	0.02849
4376.16519	0.02851
4374.23652	0.02858
4372.30784	0.02867
4370.37916	0.02875
4368.45049	0.02881
4366.52181	0.02887
4364.59314	0.02891
4362.66446	0.02895
4360.73579	0.02898
4358.80711	0.02901
4356.87843	0.02906
4354.94976	0.02909
4353.02108	0.02914
4351.09241	0.02923
4349.16373	0.02932
4347.23506	0.02936
4345.30638	0.02939
4343.37770	0.02943
4341.44903	0.02948
4339.52035	0.02953
4337.59168	0.02960
4335.66300	0.02965
4333.73433	0.02970
4331.80565	0.02975
4329.87697	0.02981
4327.94830	0.02987
4326.01962	0.02992
4324.09095	0.02999
4322.16227	0.03004
4320.23360	0.03008
4318.30492	0.03012
4316.37624	0.03017
4314.44757	0.03023
4312.51889	0.03030
4310.59022	0.03037
4308.66154	0.03043
4306.73287	0.03047
4304.80419	0.03051
4302.87551	0.03056
4300.94684	0.03063
4299.01816	0.03069
4297.08949	0.03076
4295.16081	0.03083
4293.23214	0.03090
4291.30346	0.03095
4289.37478	0.03098
4287.44611	0.03101
4285.51743	0.03106
4283.58876	0.03113
4281.66008	0.03119
4279.73141	0.03124
4277.80273	0.03130
4275.87405	0.03138
4273.94538	0.03145
4272.01670	0.03150
4270.08803	0.03155
4268.15935	0.03161
4266.23068	0.03167
4264.30200	0.03172
4262.37332	0.03178
4260.44465	0.03183
4258.51597	0.03187
4256.58730	0.03193
4254.65862	0.03201
4252.72995	0.03210
4250.80127	0.03217
4248.87259	0.03221
4246.94392	0.03223
4245.01524	0.03226
4243.08657	0.03231
4241.15789	0.03236
4239.22922	0.03240
4237.30054	0.03248
4235.37186	0.03258
4233.44319	0.03266
4231.51451	0.03272
4229.58584	0.03278
4227.65716	0.03283
4225.72849	0.03288
4223.79981	0.03293
4221.87113	0.03300
4219.94246	0.03307
4218.01378	0.03313
4216.08511	0.03319
4214.15643	0.03324
4212.22776	0.03329
4210.29908	0.03335
4208.37040	0.03342
4206.44173	0.03349
4204.51305	0.03355
4202.58438	0.03359
4200.65570	0.03364
4198.72703	0.03369
4196.79835	0.03374
4194.86968	0.03379
4192.94100	0.03388
4191.01232	0.03397
4189.08365	0.03404
4187.15497	0.03410
4185.22630	0.03417
4183.29762	0.03423
4181.36895	0.03428
4179.44027	0.03432
4177.51159	0.03438
4175.58292	0.03445
4173.65424	0.03454
4171.72557	0.03463
4169.79689	0.03470
4167.86822	0.03475
4165.93954	0.03480
4164.01086	0.03486
4162.08219	0.03492
4160.15351	0.03500
4158.22484	0.03508
4156.29616	0.03515
4154.36749	0.03520
4152.43881	0.03524
4150.51013	0.03529
4148.58146	0.03536
4146.65278	0.03545
4144.72411	0.03552
4142.79543	0.03559
4140.86676	0.03567
4138.93808	0.03573
4137.00940	0.03577
4135.08073	0.03582
4133.15205	0.03591
4131.22338	0.03598
4129.29470	0.03602
4127.36603	0.03607
4125.43735	0.03616
4123.50867	0.03625
4121.58000	0.03633
4119.65132	0.03641
4117.72265	0.03649
4115.79397	0.03655
4113.86530	0.03662
4111.93662	0.03669
4110.00794	0.03677
4108.07927	0.03686
4106.15059	0.03694
4104.22192	0.03697
4102.29324	0.03699
4100.36457	0.03704
4098.43589	0.03713
4096.50721	0.03720
4094.57854	0.03728
4092.64986	0.03735
4090.72119	0.03741
4088.79251	0.03746
4086.86384	0.03752
4084.93516	0.03761
4083.00648	0.03770
4081.07781	0.03777
4079.14913	0.03783
4077.22046	0.03790
4075.29178	0.03798
4073.36311	0.03806
4071.43443	0.03814
4069.50575	0.03821
4067.57708	0.03828
4065.64840	0.03834
4063.71973	0.03841
4061.79105	0.03848
4059.86238	0.03857
4057.93370	0.03865
4056.00502	0.03871
4054.07635	0.03877
4052.14767	0.03883
4050.21900	0.03889
4048.29032	0.03897
4046.36165	0.03904
4044.43297	0.03910
4042.50429	0.03916
4040.57562	0.03925
4038.64694	0.03934
4036.71827	0.03944
4034.78959	0.03951
4032.86092	0.03958
4030.93224	0.03966
4029.00356	0.03974
4027.07489	0.03981
4025.14621	0.03989
4023.21754	0.03994
4021.28886	0.03998
4019.36019	0.04004
4017.43151	0.04014
4015.50283	0.04027
4013.57416	0.04038
4011.64548	0.04044
4009.71681	0.04050
4007.78813	0.04055
4005.85946	0.04062
4003.93078	0.04071
4002.00210	0.04080
4000.07343	0.04087
3998.14475	0.04094
3996.21608	0.04101
3994.28740	0.04109
3992.35873	0.04116
3990.43005	0.04121
3988.50137	0.04128
3986.57270	0.04138
3984.64402	0.04148
3982.71535	0.04157
3980.78667	0.04165
3978.85800	0.04174
3976.92932	0.04182
3975.00064	0.04188
3973.07197	0.04194
3971.14329	0.04201
3969.21462	0.04212
3967.28594	0.04222
3965.35727	0.04230
3963.42859	0.04236
3961.49991	0.04244
3959.57124	0.04253
3957.64256	0.04264
3955.71389	0.04273
3953.78521	0.04280
3951.85654	0.04286
3949.92786	0.04291
3947.99918	0.04298
3946.07051	0.04305
3944.14183	0.04312
3942.21316	0.04320
3940.28448	0.04328
3938.35581	0.04337
3936.42713	0.04347
3934.49845	0.04354
3932.56978	0.04360
3930.64110	0.04368
3928.71243	0.04379
3926.78375	0.04387
3924.85508	0.04394
3922.92640	0.04400
3920.99772	0.04405
3919.06905	0.04409
3917.14037	0.04417
3915.21170	0.04431
3913.28302	0.04446
3911.35435	0.04457
3909.42567	0.04462
3907.49699	0.04462
3905.56832	0.04459
3903.63964	0.04464
3901.71097	0.04476
3899.78229	0.04488
3897.85362	0.04501
3895.92494	0.04515
3893.99626	0.04523
3892.06759	0.04528
3890.13891	0.04537
3888.21024	0.04543
3886.28156	0.04545
3884.35289	0.04551
3882.42421	0.04558
3880.49553	0.04566
3878.56686	0.04581
3876.63818	0.04593
3874.70951	0.04596
3872.78083	0.04595
3870.85216	0.04593
3868.92348	0.04603
3866.99480	0.04622
3865.06613	0.04637
3863.13745	0.04649
3861.20878	0.04663
3859.28010	0.04675
3857.35143	0.04672
3855.42275	0.04654
3853.49407	0.04651
3851.56540	0.04677
3849.63672	0.04709
3847.70805	0.04728
3845.77937	0.04736
3843.85070	0.04739
3841.92202	0.04743
3839.99334	0.04749
3838.06467	0.04761
3836.13599	0.04776
3834.20732	0.04786
3832.27864	0.04793
3830.34997	0.04801
3828.42129	0.04811
3826.49261	0.04821
3824.56394	0.04824
3822.63526	0.04820
3820.70659	0.04826
3818.77791	0.04845
3816.84924	0.04861
3814.92056	0.04875
3812.99188	0.04890
3811.06321	0.04900
3809.13453	0.04903
3807.20586	0.04905
3805.27718	0.04913
3803.34851	0.04921
3801.41983	0.04928
3799.49115	0.04942
3797.56248	0.04958
3795.63380	0.04971
3793.70513	0.04984
3791.77645	0.04994
3789.84778	0.05005
3787.91910	0.05016
3785.99042	0.05026
3784.06175	0.05035
3782.13307	0.05037
3780.20440	0.05038
3778.27572	0.05049
3776.34705	0.05067
3774.41837	0.05079
3772.48969	0.05084
3770.56102	0.05088
3768.63234	0.05097
3766.70367	0.05107
3764.77499	0.05117
3762.84632	0.05127
3760.91764	0.05134
3758.98896	0.05141
3757.06029	0.05150
3755.13161	0.05155
3753.20294	0.05150
3751.27426	0.05141
3749.34559	0.05146
3747.41691	0.05161
3745.48823	0.05171
3743.55956	0.05186
3741.63088	0.05210
3739.70221	0.05222
3737.77353	0.05220
3735.84486	0.05219
3733.91618	0.05230
3731.98750	0.05254
3730.05883	0.05275
3728.13015	0.05286
3726.20148	0.05292
3724.27280	0.05302
3722.34413	0.05312
3720.41545	0.05324
3718.48677	0.05338
3716.55810	0.05347
3714.62942	0.05344
3712.70075	0.05338
3710.77207	0.05349
3708.84340	0.05374
3706.91472	0.05397
3704.98604	0.05410
3703.05737	0.05415
3701.12869	0.05420
3699.20002	0.05431
3697.27134	0.05444
3695.34267	0.05455
3693.41399	0.05462
3691.48531	0.05462
3689.55664	0.05463
3687.62796	0.05476
3685.69929	0.05496
3683.77061	0.05510
3681.84194	0.05519
3679.91326	0.05524
3677.98458	0.05519
3676.05591	0.05513
3674.12723	0.05521
3672.19856	0.05533
3670.26988	0.05547
3668.34121	0.05572
3666.41253	0.05597
3664.48385	0.05611
3662.55518	0.05617
3660.62650	0.05621
3658.69783	0.05623
3656.76915	0.05624
3654.84048	0.05629
3652.91180	0.05628
3650.98312	0.05617
3649.05445	0.05612
3647.12577	0.05628
3645.19710	0.05654
3643.26842	0.05677
3641.33975	0.05695
3639.41107	0.05709
3637.48239	0.05717
3635.55372	0.05722
3633.62504	0.05722
3631.69637	0.05711
3629.76769	0.05703
3627.83902	0.05721
3625.91034	0.05752
3623.98166	0.05768
3622.05299	0.05768
3620.12431	0.05764
3618.19564	0.05767
3616.26696	0.05780
3614.33829	0.05796
3612.40961	0.05807
3610.48093	0.05813
3608.55226	0.05817
3606.62358	0.05827
3604.69491	0.05841
3602.76623	0.05853
3600.83756	0.05861
3598.90888	0.05866
3596.98020	0.05868
3595.05153	0.05874
3593.12285	0.05887
3591.19418	0.05894
3589.26550	0.05892
3587.33683	0.05897
3585.40815	0.05912
3583.47947	0.05926
3581.55080	0.05935
3579.62212	0.05944
3577.69345	0.05953
3575.76477	0.05962
3573.83610	0.05969
3571.90742	0.05974
3569.97874	0.05975
3568.05007	0.05974
3566.12139	0.05981
3564.19272	0.05998
3562.26404	0.06015
3560.33537	0.06026
3558.40669	0.06035
3556.47801	0.06043
3554.54934	0.06048
3552.62066	0.06051
3550.69199	0.06056
3548.76331	0.06062
3546.83464	0.06067
3544.90596	0.06074
3542.97728	0.06085
3541.04861	0.06096
3539.11993	0.06104
3537.19126	0.06110
3535.26258	0.06116
3533.33391	0.06122
3531.40523	0.06126
3529.47655	0.06128
3527.54788	0.06132
3525.61920	0.06137
3523.69053	0.06141
3521.76185	0.06144
3519.83318	0.06149
3517.90450	0.06153
3515.97582	0.06156
3514.04715	0.06161
3512.11847	0.06165
3510.18980	0.06169
3508.26112	0.06175
3506.33245	0.06178
3504.40377	0.06180
3502.47509	0.06182
3500.54642	0.06185
3498.61774	0.06188
3496.68907	0.06191
3494.76039	0.06194
3492.83172	0.06197
3490.90304	0.06202
3488.97436	0.06206
3487.04569	0.06208
3485.11701	0.06210
3483.18834	0.06215
3481.25966	0.06222
3479.33099	0.06230
3477.40231	0.06236
3475.47363	0.06244
3473.54496	0.06253
3471.61628	0.06262
3469.68761	0.06269
3467.75893	0.06276
3465.83026	0.06286
3463.90158	0.06295
3461.97290	0.06306
3460.04423	0.06319
3458.11555	0.06332
3456.18688	0.06345
3454.25820	0.06355
3452.32953	0.06363
3450.40085	0.06369
3448.47217	0.06374
3446.54350	0.06383
3444.61482	0.06395
3442.68615	0.06407
3440.75747	0.06421
3438.82880	0.06437
3436.90012	0.06452
3434.97144	0.06469
3433.04277	0.06490
3431.11409	0.06510
3429.18542	0.06528
3427.25674	0.06546
3425.32807	0.06567
3423.39939	0.06588
3421.47071	0.06605
3419.54204	0.06621
3417.61336	0.06640
3415.68469	0.06658
3413.75601	0.06674
3411.82734	0.06689
3409.89866	0.06701
3407.96998	0.06711
3406.04131	0.06723
3404.11263	0.06739
3402.18396	0.06754
3400.25528	0.06768
3398.32661	0.06783
3396.39793	0.06798
3394.46925	0.06809
3392.54058	0.06820
3390.61190	0.06836
3388.68323	0.06854
3386.75455	0.06870
3384.82588	0.06882
3382.89720	0.06894
3380.96852	0.06907
3379.03985	0.06920
3377.11117	0.06932
3375.18250	0.06946
3373.25382	0.06960
3371.32515	0.06972
3369.39647	0.06983
3367.46779	0.06993
3365.53912	0.07006
3363.61044	0.07020
3361.68177	0.07034
3359.75309	0.07048
3357.82442	0.07061
3355.89574	0.07072
3353.96706	0.07082
3352.03839	0.07092
3350.10971	0.07104
3348.18104	0.07120
3346.25236	0.07136
3344.32369	0.07148
3342.39501	0.07155
3340.46633	0.07165
3338.53766	0.07177
3336.60898	0.07191
3334.68031	0.07205
3332.75163	0.07221
3330.82296	0.07235
3328.89428	0.07246
3326.96560	0.07257
3325.03693	0.07269
3323.10825	0.07283
3321.17958	0.07298
3319.25090	0.07312
3317.32223	0.07325
3315.39355	0.07337
3313.46487	0.07348
3311.53620	0.07358
3309.60752	0.07369
3307.67885	0.07384
3305.75017	0.07400
3303.82150	0.07416
3301.89282	0.07430
3299.96414	0.07443
3298.03547	0.07454
3296.10679	0.07464
3294.17812	0.07477
3292.24944	0.07490
3290.32077	0.07504
3288.39209	0.07518
3286.46341	0.07531
3284.53474	0.07543
3282.60606	0.07557
3280.67739	0.07570
3278.74871	0.07583
3276.82004	0.07597
3274.89136	0.07611
3272.96268	0.07626
3271.03401	0.07641
3269.10533	0.07655
3267.17666	0.07668
3265.24798	0.07680
3263.31931	0.07691
3261.39063	0.07705
3259.46195	0.07720
3257.53328	0.07736
3255.60460	0.07752
3253.67593	0.07766
3251.74725	0.07781
3249.81858	0.07796
3247.88990	0.07809
3245.96122	0.07820
3244.03255	0.07832
3242.10387	0.07845
3240.17520	0.07858
3238.24652	0.07871
3236.31785	0.07886
3234.38917	0.07900
3232.46049	0.07914
3230.53182	0.07928
3228.60314	0.07940
3226.67447	0.07953
3224.74579	0.07968
3222.81712	0.07983
3220.88844	0.07997
3218.95976	0.08010
3217.03109	0.08023
3215.10241	0.08036
3213.17374	0.08049
3211.24506	0.08064
3209.31639	0.08077
3207.38771	0.08091
3205.45903	0.08105
3203.53036	0.08119
3201.60168	0.08133
3199.67301	0.08150
3197.74433	0.08168
3195.81566	0.08185
3193.88698	0.08199
3191.95830	0.08212
3190.02963	0.08224
3188.10095	0.08238
3186.17228	0.08254
3184.24360	0.08269
3182.31493	0.08282
3180.38625	0.08295
3178.45757	0.08308
3176.52890	0.08323
3174.60022	0.08338
3172.67155	0.08352
3170.74287	0.08367
3168.81420	0.08383
3166.88552	0.08400
3164.95684	0.08413
3163.02817	0.08422
3161.09949	0.08433
3159.17082	0.08448
3157.24214	0.08465
3155.31347	0.08481
3153.38479	0.08494
3151.45611	0.08508
3149.52744	0.08524
3147.59876	0.08540
3145.67009	0.08554
3143.74141	0.08566
3141.81274	0.08578
3139.88406	0.08591
3137.95538	0.08606
3136.02671	0.08622
3134.09803	0.08637
3132.16936	0.08652
3130.24068	0.08668
3128.31201	0.08683
3126.38333	0.08697
3124.45465	0.08710
3122.52598	0.08721
3120.59730	0.08732
3118.66863	0.08746
3116.73995	0.08763
3114.81128	0.08777
3112.88260	0.08789
3110.95392	0.08806
3109.02525	0.08826
3107.09657	0.08843
3105.16790	0.08854
3103.23922	0.08865
3101.31055	0.08880
3099.38187	0.08897
3097.45319	0.08911
3095.52452	0.08924
3093.59584	0.08938
3091.66717	0.08952
3089.73849	0.08966
3087.80982	0.08979
3085.88114	0.08994
3083.95246	0.09010
3082.02379	0.09024
3080.09511	0.09038
3078.16644	0.09051
3076.23776	0.09064
3074.30909	0.09079
3072.38041	0.09092
3070.45173	0.09105
3068.52306	0.09121
3066.59438	0.09137
3064.66571	0.09149
3062.73703	0.09160
3060.80836	0.09172
3058.87968	0.09188
3056.95100	0.09205
3055.02233	0.09221
3053.09365	0.09234
3051.16498	0.09249
3049.23630	0.09264
3047.30763	0.09277
3045.37895	0.09290
3043.45027	0.09306
3041.52160	0.09320
3039.59292	0.09331
3037.66425	0.09344
3035.73557	0.09359
3033.80690	0.09373
3031.87822	0.09388
3029.94954	0.09401
3028.02087	0.09414
3026.09219	0.09426
3024.16352	0.09441
3022.23484	0.09457
3020.30617	0.09472
3018.37749	0.09486
3016.44881	0.09501
3014.52014	0.09515
3012.59146	0.09526
3010.66279	0.09540
3008.73411	0.09556
3006.80544	0.09569
3004.87676	0.09580
3002.94808	0.09593
3001.01941	0.09609
2999.09073	0.09625
2997.16206	0.09638
2995.23338	0.09652
2993.30471	0.09667
2991.37603	0.09681
2989.44735	0.09693
2987.51868	0.09703
2985.59000	0.09713
2983.66133	0.09723
2981.73265	0.09731
2979.80398	0.09737
2977.87530	0.09742
2975.94662	0.09746
2974.01795	0.09749
2972.08927	0.09748
2970.16060	0.09746
2968.23192	0.09743
2966.30325	0.09742
2964.37457	0.09750
2962.44589	0.09762
2960.51722	0.09770
2958.58854	0.09781
2956.65987	0.09797
2954.73119	0.09815
2952.80252	0.09834
2950.87384	0.09853
2948.94516	0.09871
2947.01649	0.09883
2945.08781	0.09890
2943.15914	0.09896
2941.23046	0.09902
2939.30179	0.09906
2937.37311	0.09907
2935.44443	0.09905
2933.51576	0.09900
2931.58708	0.09893
2929.65841	0.09889
2927.72973	0.09888
2925.80106	0.09885
2923.87238	0.09883
2921.94370	0.09884
2920.01503	0.09891
2918.08635	0.09909
2916.15768	0.09940
2914.22900	0.09983
2912.30033	0.10033
2910.37165	0.10079
2908.44297	0.10117
2906.51430	0.10147
2904.58562	0.10173
2902.65695	0.10198
2900.72827	0.10218
2898.79960	0.10236
2896.87092	0.10256
2894.94224	0.10278
2893.01357	0.10301
2891.08489	0.10321
2889.15622	0.10339
2887.22754	0.10358
2885.29887	0.10377
2883.37019	0.10392
2881.44151	0.10404
2879.51284	0.10417
2877.58416	0.10431
2875.65549	0.10446
2873.72681	0.10460
2871.79814	0.10473
2869.86946	0.10486
2867.94078	0.10498
2866.01211	0.10509
2864.08343	0.10519
2862.15476	0.10527
2860.22608	0.10530
2858.29741	0.10531
2856.36873	0.10530
2854.44005	0.10528
2852.51138	0.10523
2850.58270	0.10529
2848.65403	0.10556
2846.72535	0.10603
2844.79668	0.10657
2842.86800	0.10704
2840.93932	0.10740
2839.01065	0.10767
2837.08197	0.10790
2835.15330	0.10812
2833.22462	0.10835
2831.29595	0.10855
2829.36727	0.10871
2827.43859	0.10888
2825.50992	0.10906
2823.58124	0.10924
2821.65257	0.10938
2819.72389	0.10953
2817.79522	0.10971
2815.86654	0.10990
2813.93786	0.11008
2812.00919	0.11024
2810.08051	0.11041
2808.15184	0.11057
2806.22316	0.11071
2804.29449	0.11083
2802.36581	0.11097
2800.43713	0.11113
2798.50846	0.11129
2796.57978	0.11143
2794.65111	0.11158
2792.72243	0.11175
2790.79376	0.11193
2788.86508	0.11209
2786.93640	0.11223
2785.00773	0.11239
2783.07905	0.11259
2781.15038	0.11278
2779.22170	0.11291
2777.29303	0.11301
2775.36435	0.11312
2773.43567	0.11327
2771.50700	0.11346
2769.57832	0.11365
2767.64965	0.11381
2765.72097	0.11397
2763.79230	0.11412
2761.86362	0.11427
2759.93494	0.11441
2758.00627	0.11455
2756.07759	0.11471
2754.14892	0.11488
2752.22024	0.11504
2750.29157	0.11518
2748.36289	0.11532
2746.43421	0.11550
2744.50554	0.11567
2742.57686	0.11581
2740.64819	0.11593
2738.71951	0.11605
2736.79084	0.11618
2734.86216	0.11634
2732.93348	0.11652
2731.00481	0.11669
2729.07613	0.11681
2727.14746	0.11693
2725.21878	0.11707
2723.29011	0.11723
2721.36143	0.11741
2719.43275	0.11760
2717.50408	0.11775
2715.57540	0.11789
2713.64673	0.11800
2711.71805	0.11810
2709.78938	0.11824
2707.86070	0.11841
2705.93202	0.11859
2704.00335	0.11875
2702.07467	0.11890
2700.14600	0.11903
2698.21732	0.11916
2696.28865	0.11927
2694.35997	0.11939
2692.43129	0.11955
2690.50262	0.11974
2688.57394	0.11991
2686.64527	0.12005
2684.71659	0.12019
2682.78792	0.12032
2680.85924	0.12043
2678.93056	0.12055
2677.00189	0.12069
2675.07321	0.12086
2673.14454	0.12102
2671.21586	0.12114
2669.28719	0.12130
2667.35851	0.12150
2665.42983	0.12168
2663.50116	0.12181
2661.57248	0.12196
2659.64381	0.12211
2657.71513	0.12225
2655.78646	0.12237
2653.85778	0.12249
2651.92910	0.12264
2650.00043	0.12284
2648.07175	0.12303
2646.14308	0.12317
2644.21440	0.12332
2642.28573	0.12349
2640.35705	0.12367
2638.42837	0.12383
2636.49970	0.12397
2634.57102	0.12413
2632.64235	0.12430
2630.71367	0.12446
2628.78500	0.12461
2626.85632	0.12472
2624.92764	0.12485
2622.99897	0.12503
2621.07029	0.12524
2619.14162	0.12543
2617.21294	0.12556
2615.28427	0.12569
2613.35559	0.12585
2611.42691	0.12601
2609.49824	0.12618
2607.56956	0.12635
2605.64089	0.12649
2603.71221	0.12661
2601.78354	0.12679
2599.85486	0.12698
2597.92618	0.12715
2595.99751	0.12731
2594.06883	0.12748
2592.14016	0.12764
2590.21148	0.12779
2588.28281	0.12794
2586.35413	0.12811
2584.42545	0.12829
2582.49678	0.12842
2580.56810	0.12855
2578.63943	0.12869
2576.71075	0.12884
2574.78208	0.12901
2572.85340	0.12918
2570.92472	0.12935
2568.99605	0.12953
2567.06737	0.12968
2565.13870	0.12982
2563.21002	0.12996
2561.28135	0.13010
2559.35267	0.13024
2557.42399	0.13040
2555.49532	0.13055
2553.56664	0.13072
2551.63797	0.13088
2549.70929	0.13102
2547.78062	0.13115
2545.85194	0.13131
2543.92326	0.13146
2541.99459	0.13161
2540.06591	0.13176
2538.13724	0.13194
2536.20856	0.13212
2534.27989	0.13227
2532.35121	0.13238
2530.42253	0.13247
2528.49386	0.13259
2526.56518	0.13276
2524.63651	0.13295
2522.70783	0.13312
2520.77916	0.13328
2518.85048	0.13344
2516.92181	0.13362
2514.99313	0.13379
2513.06445	0.13394
2511.13578	0.13409
2509.20710	0.13426
2507.27843	0.13443
2505.34975	0.13460
2503.42108	0.13477
2501.49240	0.13495
2499.56372	0.13514
2497.63505	0.13531
2495.70637	0.13547
2493.77770	0.13563
2491.84902	0.13580
2489.92035	0.13596
2487.99167	0.13612
2486.06299	0.13631
2484.13432	0.13651
2482.20564	0.13667
2480.27697	0.13682
2478.34829	0.13701
2476.41962	0.13723
2474.49094	0.13743
2472.56226	0.13760
2470.63359	0.13776
2468.70491	0.13791
2466.77624	0.13805
2464.84756	0.13821
2462.91889	0.13839
2460.99021	0.13854
2459.06153	0.13869
2457.13286	0.13884
2455.20418	0.13901
2453.27551	0.13918
2451.34683	0.13934
2449.41816	0.13951
2447.48948	0.13969
2445.56080	0.13987
2443.63213	0.14004
2441.70345	0.14018
2439.77478	0.14035
2437.84610	0.14053
2435.91743	0.14070
2433.98875	0.14088
2432.06007	0.14104
2430.13140	0.14118
2428.20272	0.14131
2426.27405	0.14146
2424.34537	0.14162
2422.41670	0.14178
2420.48802	0.14195
2418.55934	0.14211
2416.63067	0.14229
2414.70199	0.14249
2412.77332	0.14265
2410.84464	0.14279
2408.91597	0.14292
2406.98729	0.14307
2405.05861	0.14322
2403.12994	0.14337
2401.20126	0.14350
2399.27259	0.14363
2397.34391	0.14383
2395.41524	0.14406
2393.48656	0.14425
2391.55788	0.14439
2389.62921	0.14454
2387.70053	0.14470
2385.77186	0.14486
2383.84318	0.14500
2381.91451	0.14512
2379.98583	0.14522
2378.05715	0.14531
2376.12848	0.14536
2374.19980	0.14540
2372.27113	0.14544
2370.34245	0.14549
2368.41378	0.14554
2366.48510	0.14560
2364.55642	0.14570
2362.62775	0.14583
2360.69907	0.14598
2358.77040	0.14615
2356.84172	0.14638
2354.91305	0.14666
2352.98437	0.14697
2351.05569	0.14731
2349.12702	0.14757
2347.19834	0.14767
2345.26967	0.14769
2343.34099	0.14775
2341.41232	0.14787
2339.48364	0.14800
2337.55496	0.14812
2335.62629	0.14825
2333.69761	0.14840
2331.76894	0.14856
2329.84026	0.14875
2327.91159	0.14896
2325.98291	0.14915
2324.05423	0.14932
2322.12556	0.14954
2320.19688	0.14980
2318.26821	0.15007
2316.33953	0.15030
2314.41086	0.15050
2312.48218	0.15072
2310.55350	0.15096
2308.62483	0.15117
2306.69615	0.15137
2304.76748	0.15159
2302.83880	0.15180
2300.91013	0.15196
2298.98145	0.15210
2297.05277	0.15228
2295.12410	0.15248
2293.19542	0.15267
2291.26675	0.15282
2289.33807	0.15294
2287.40940	0.15309
2285.48072	0.15328
2283.55204	0.15346
2281.62337	0.15361
2279.69469	0.15376
2277.76602	0.15394
2275.83734	0.15415
2273.90867	0.15433
2271.97999	0.15445
2270.05131	0.15457
2268.12264	0.15474
2266.19396	0.15489
2264.26529	0.15504
2262.33661	0.15523
2260.40794	0.15543
2258.47926	0.15559
2256.55058	0.15573
2254.62191	0.15586
2252.69323	0.15602
2250.76456	0.15618
2248.83588	0.15634
2246.90721	0.15651
2244.97853	0.15672
2243.04985	0.15691
2241.12118	0.15708
2239.19250	0.15722
2237.26383	0.15734
2235.33515	0.15749
2233.40648	0.15770
2231.47780	0.15792
2229.54912	0.15810
2227.62045	0.15826
2225.69177	0.15841
2223.76310	0.15855
2221.83442	0.15869
2219.90575	0.15882
2217.97707	0.15898
2216.04839	0.15914
2214.11972	0.15926
2212.19104	0.15938
2210.26237	0.15955
2208.33369	0.15974
2206.40502	0.15991
2204.47634	0.16007
2202.54766	0.16024
2200.61899	0.16041
2198.69031	0.16058
2196.76164	0.16073
2194.83296	0.16089
2192.90429	0.16107
2190.97561	0.16125
2189.04693	0.16140
2187.11826	0.16154
2185.18958	0.16166
2183.26091	0.16178
2181.33223	0.16193
2179.40356	0.16215
2177.47488	0.16238
2175.54620	0.16254
2173.61753	0.16265
2171.68885	0.16278
2169.76018	0.16297
2167.83150	0.16316
2165.90283	0.16330
2163.97415	0.16343
2162.04547	0.16362
2160.11680	0.16386
2158.18812	0.16405
2156.25945	0.16421
2154.33077	0.16437
2152.40210	0.16455
2150.47342	0.16473
2148.54474	0.16489
2146.61607	0.16503
2144.68739	0.16518
2142.75872	0.16535
2140.83004	0.16551
2138.90137	0.16566
2136.97269	0.16583
2135.04401	0.16603
2133.11534	0.16622
2131.18666	0.16639
2129.25799	0.16652
2127.32931	0.16666
2125.40064	0.16681
2123.47196	0.16698
2121.54328	0.16716
2119.61461	0.16732
2117.68593	0.16746
2115.75726	0.16761
2113.82858	0.16778
2111.89991	0.16795
2109.97123	0.16811
2108.04255	0.16825
2106.11388	0.16841
2104.18520	0.16861
2102.25653	0.16883
2100.32785	0.16899
2098.39918	0.16913
2096.47050	0.16929
2094.54182	0.16947
2092.61315	0.16965
2090.68447	0.16981
2088.75580	0.16994
2086.82712	0.17009
2084.89845	0.17026
2082.96977	0.17043
2081.04109	0.17061
2079.11242	0.17080
2077.18374	0.17098
2075.25507	0.17114
2073.32639	0.17129
2071.39772	0.17146
2069.46904	0.17165
2067.54036	0.17180
2065.61169	0.17191
2063.68301	0.17205
2061.75434	0.17224
2059.82566	0.17241
2057.89699	0.17256
2055.96831	0.17273
2054.03963	0.17293
2052.11096	0.17311
2050.18228	0.17328
2048.25361	0.17345
2046.32493	0.17359
2044.39626	0.17371
2042.46758	0.17383
2040.53890	0.17398
2038.61023	0.17416
2036.68155	0.17434
2034.75288	0.17454
2032.82420	0.17474
2030.89553	0.17491
2028.96685	0.17511
2027.03817	0.17531
2025.10950	0.17548
2023.18082	0.17561
2021.25215	0.17572
2019.32347	0.17585
2017.39480	0.17602
2015.46612	0.17622
2013.53744	0.17641
2011.60877	0.17658
2009.68009	0.17675
2007.75142	0.17697
2005.82274	0.17718
2003.89407	0.17732
2001.96539	0.17743
2000.03671	0.17756
1998.10804	0.17770
1996.17936	0.17780
1994.25069	0.17785
1992.32201	0.17792
1990.39334	0.17811
1988.46466	0.17837
1986.53598	0.17862
1984.60731	0.17883
1982.67863	0.17900
1980.74996	0.17912
1978.82128	0.17921
1976.89261	0.17932
1974.96393	0.17947
1973.03525	0.17962
1971.10658	0.17975
1969.17790	0.17986
1967.24923	0.17998
1965.32055	0.18014
1963.39188	0.18031
1961.46320	0.18044
1959.53452	0.18055
1957.60585	0.18071
1955.67717	0.18092
1953.74850	0.18113
1951.81982	0.18130
1949.89115	0.18146
1947.96247	0.18160
1946.03379	0.18171
1944.10512	0.18175
1942.17644	0.18188
1940.24777	0.18218
1938.31909	0.18247
1936.39042	0.18262
1934.46174	0.18276
1932.53306	0.18295
1930.60439	0.18313
1928.67571	0.18328
1926.74704	0.18339
1924.81836	0.18344
1922.88969	0.18353
1920.96101	0.18371
1919.03233	0.18391
1917.10366	0.18408
1915.17498	0.18428
1913.24631	0.18449
1911.31763	0.18465
1909.38896	0.18479
1907.46028	0.18496
1905.53160	0.18514
1903.60293	0.18532
1901.67425	0.18548
1899.74558	0.18562
1897.81690	0.18575
1895.88823	0.18586
1893.95955	0.18599
1892.03087	0.18610
1890.10220	0.18621
1888.17352	0.18644
1886.24485	0.18670
1884.31617	0.18691
1882.38750	0.18710
1880.45882	0.18723
1878.53014	0.18731
1876.60147	0.18743
1874.67279	0.18761
1872.74412	0.18772
1870.81544	0.18769
1868.88677	0.18771
1866.95809	0.18798
1865.02941	0.18834
1863.10074	0.18862
1861.17206	0.18885
1859.24339	0.18906
1857.31471	0.18924
1855.38604	0.18942
1853.45736	0.18960
1851.52868	0.18974
1849.60001	0.18981
1847.67133	0.18982
1845.74266	0.18979
1843.81398	0.18993
1841.88531	0.19030
1839.95663	0.19066
1838.02795	0.19087
1836.09928	0.19102
1834.17060	0.19114
1832.24193	0.19121
1830.31325	0.19131
1828.38458	0.19148
1826.45590	0.19165
1824.52722	0.19183
1822.59855	0.19208
1820.66987	0.19230
1818.74120	0.19244
1816.81252	0.19254
1814.88385	0.19266
1812.95517	0.19280
1811.02649	0.19295
1809.09782	0.19313
1807.16914	0.19331
1805.24047	0.19337
1803.31179	0.19334
1801.38312	0.19338
1799.45444	0.19360
1797.52576	0.19383
1795.59709	0.19390
1793.66841	0.19383
1791.73974	0.19389
1789.81106	0.19419
1787.88239	0.19444
1785.95371	0.19453
1784.02503	0.19464
1782.09636	0.19482
1780.16768	0.19499
1778.23901	0.19516
1776.31033	0.19523
1774.38166	0.19513
1772.45298	0.19505
1770.52430	0.19518
1768.59563	0.19544
1766.66695	0.19570
1764.73828	0.19586
1762.80960	0.19591
1760.88093	0.19599
1758.95225	0.19609
1757.02357	0.19614
1755.09490	0.19609
1753.16622	0.19575
1751.23755	0.19542
1749.30887	0.19553
1747.38020	0.19584
1745.45152	0.19601
1743.52284	0.19598
1741.59417	0.19581
1739.66549	0.19580
1737.73682	0.19598
1735.80814	0.19597
1733.87947	0.19585
1731.95079	0.19607
1730.02211	0.19653
1728.09344	0.19691
1726.16476	0.19713
1724.23609	0.19728
1722.30741	0.19734
1720.37874	0.19710
1718.45006	0.19669
1716.52138	0.19674
1714.59271	0.19732
1712.66403	0.19786
1710.73536	0.19812
1708.80668	0.19814
1706.87801	0.19805
1704.94933	0.19808
1703.02065	0.19808
1701.09198	0.19795
1699.16330	0.19796
1697.23463	0.19813
1695.30595	0.19834
1693.37728	0.19862
1691.44860	0.19874
1689.51992	0.19872
1687.59125	0.19865
1685.66257	0.19837
1683.73390	0.19816
1681.80522	0.19845
1679.87655	0.19883
1677.94787	0.19870
1676.01919	0.19827
1674.09052	0.19822
1672.16184	0.19850
1670.23317	0.19879
1668.30449	0.19915
1666.37582	0.19944
1664.44714	0.19950
1662.51846	0.19952
1660.58979	0.19965
1658.66111	0.19973
1656.73244	0.19940
1654.80376	0.19858
1652.87509	0.19809
1650.94641	0.19852
1649.01773	0.19902
1647.08906	0.19923
1645.16038	0.19964
1643.23171	0.20007
1641.30303	0.20018
1639.37436	0.20003
1637.44568	0.19984
1635.51700	0.19991
1633.58833	0.20027
1631.65965	0.20054
1629.73098	0.20057
1627.80230	0.20050
1625.87363	0.20027
1623.94495	0.19986
1622.01627	0.19957
1620.08760	0.19956
1618.15892	0.19979
1616.23025	0.20035
1614.30157	0.20107
1612.37290	0.20162
1610.44422	0.20193
1608.51554	0.20212
1606.58687	0.20231
1604.65819	0.20254
1602.72952	0.20279
1600.80084	0.20300
1598.87217	0.20318
1596.94349	0.20336
1595.01481	0.20350
1593.08614	0.20364
1591.15746	0.20378
1589.22879	0.20393
1587.30011	0.20410
1585.37144	0.20427
1583.44276	0.20442
1581.51408	0.20454
1579.58541	0.20444
1577.65673	0.20406
1575.72806	0.20400
1573.79938	0.20454
1571.87071	0.20497
1569.94203	0.20504
1568.01335	0.20516
1566.08468	0.20531
1564.15600	0.20538
1562.22733	0.20514
1560.29865	0.20462
1558.36998	0.20451
1556.44130	0.20510
1554.51262	0.20582
1552.58395	0.20620
1550.65527	0.20631
1548.72660	0.20636
1546.79792	0.20627
1544.86925	0.20592
1542.94057	0.20556
1541.01189	0.20561
1539.08322	0.20612
1537.15454	0.20662
1535.22587	0.20675
1533.29719	0.20685
1531.36852	0.20720
1529.43984	0.20740
1527.51116	0.20733
1525.58249	0.20718
1523.65381	0.20696
1521.72514	0.20688
1519.79646	0.20715
1517.86779	0.20742
1515.93911	0.20753
1514.01043	0.20767
1512.08176	0.20772
1510.15308	0.20743
1508.22441	0.20694
1506.29573	0.20703
1504.36706	0.20776
1502.43838	0.20824
1500.50970	0.20815
1498.58103	0.20783
1496.65235	0.20772
1494.72368	0.20798
1492.79500	0.20814
1490.86633	0.20793
1488.93765	0.20774
1487.00897	0.20782
1485.08030	0.20794
1483.15162	0.20788
1481.22295	0.20772
1479.29427	0.20748
1477.36560	0.20701
1475.43692	0.20638
1473.50824	0.20587
1471.57957	0.20574
1469.65089	0.20581
1467.72222	0.20556
1465.79354	0.20505
1463.86487	0.20483
1461.93619	0.20479
1460.00751	0.20433
1458.07884	0.20370
1456.15016	0.20367
1454.22149	0.20413
1452.29281	0.20444
1450.36414	0.20449
1448.43546	0.20451
1446.50678	0.20461
1444.57811	0.20477
1442.64943	0.20491
1440.72076	0.20497
1438.79208	0.20487
1436.86341	0.20484
1434.93473	0.20511
1433.00605	0.20546
1431.07738	0.20563
1429.14870	0.20577
1427.22003	0.20589
1425.29135	0.20588
1423.36268	0.20567
1421.43400	0.20522
1419.50532	0.20489
1417.57665	0.20523
1415.64797	0.20582
1413.71930	0.20608
1411.79062	0.20615
1409.86195	0.20621
1407.93327	0.20618
1406.00459	0.20607
1404.07592	0.20601
1402.14724	0.20596
1400.21857	0.20583
1398.28989	0.20571
1396.36122	0.20565
1394.43254	0.20567
1392.50386	0.20574
1390.57519	0.20569
1388.64651	0.20538
1386.71784	0.20503
1384.78916	0.20485
1382.86049	0.20487
1380.93181	0.20494
1379.00313	0.20494
1377.07446	0.20482
1375.14578	0.20467
1373.21711	0.20467
1371.28843	0.20482
1369.35976	0.20490
1367.43108	0.20488
1365.50240	0.20476
1363.57373	0.20459
1361.64505	0.20456
1359.71638	0.20469
1357.78770	0.20480
1355.85903	0.20484
1353.93035	0.20489
1352.00167	0.20499
1350.07300	0.20512
1348.14432	0.20525
1346.21565	0.20537
1344.28697	0.20541
1342.35830	0.20534
1340.42962	0.20516
1338.50094	0.20501
1336.57227	0.20495
1334.64359	0.20490
1332.71492	0.20483
1330.78624	0.20476
1328.85757	0.20467
1326.92889	0.20453
1325.00021	0.20433
1323.07154	0.20411
1321.14286	0.20392
1319.21419	0.20381
1317.28551	0.20373
1315.35684	0.20357
1313.42816	0.20330
1311.49948	0.20302
1309.57081	0.20281
1307.64213	0.20262
1305.71346	0.20244
1303.78478	0.20225
1301.85611	0.20205
1299.92743	0.20182
1297.99875	0.20158
1296.07008	0.20138
1294.14140	0.20123
1292.21273	0.20109
1290.28405	0.20095
1288.35538	0.20078
1286.42670	0.20057
1284.49802	0.20034
1282.56935	0.20008
1280.64067	0.19978
1278.71200	0.19946
1276.78332	0.19909
1274.85465	0.19866
1272.92597	0.19814
1270.99729	0.19750
1269.06862	0.19668
1267.13994	0.19577
1265.21127	0.19496
1263.28259	0.19440
1261.35392	0.19416
1259.42524	0.19420
1257.49656	0.19440
1255.56789	0.19457
1253.63921	0.19457
1251.71054	0.19443
1249.78186	0.19422
1247.85319	0.19392
1245.92451	0.19351
1243.99583	0.19308
1242.06716	0.19272
1240.13848	0.19233
1238.20981	0.19184
1236.28113	0.19128
1234.35246	0.19067
1232.42378	0.19006
1230.49510	0.18951
1228.56643	0.18902
1226.63775	0.18854
1224.70908	0.18799
1222.78040	0.18743
1220.85173	0.18696
1218.92305	0.18651
1216.99437	0.18600
1215.06570	0.18545
1213.13702	0.18489
1211.20835	0.18431
1209.27967	0.18374
1207.35100	0.18323
1205.42232	0.18272
1203.49364	0.18212
1201.56497	0.18147
1199.63629	0.18085
1197.70762	0.18024
1195.77894	0.17960
1193.85027	0.17893
1191.92159	0.17823
1189.99291	0.17754
1188.06424	0.17687
1186.13556	0.17615
1184.20689	0.17531
1182.27821	0.17446
1180.34954	0.17369
1178.42086	0.17290
1176.49218	0.17205
1174.56351	0.17119
1172.63483	0.17036
1170.70616	0.16949
1168.77748	0.16853
1166.84881	0.16759
1164.92013	0.16676
1162.99145	0.16600
1161.06278	0.16521
1159.13410	0.16442
1157.20543	0.16364
1155.27675	0.16281
1153.34808	0.16198
1151.41940	0.16120
1149.49072	0.16043
1147.56205	0.15963
1145.63337	0.15879
1143.70470	0.15789
1141.77602	0.15692
1139.84735	0.15589
1137.91867	0.15477
1135.98999	0.15357
1134.06132	0.15225
1132.13264	0.15065
1130.20397	0.14877
1128.27529	0.14668
1126.34662	0.14444
1124.41794	0.14210
1122.48926	0.13972
1120.56059	0.13739
1118.63191	0.13520
1116.70324	0.13319
1114.77456	0.13132
1112.84589	0.12962
1110.91721	0.12824
1108.98853	0.12722
1107.05986	0.12645
1105.13118	0.12593
1103.20251	0.12571
1101.27383	0.12578
1099.34516	0.12611
1097.41648	0.12668
1095.48780	0.12743
1093.55913	0.12829
1091.63045	0.12916
1089.70178	0.12998
1087.77310	0.13073
1085.84443	0.13139
1083.91575	0.13193
1081.98707	0.13234
1080.05840	0.13266
1078.12972	0.13291
1076.20105	0.13307
1074.27237	0.13315
1072.34370	0.13322
1070.41502	0.13335
1068.48634	0.13351
1066.55767	0.13369
1064.62899	0.13390
1062.70032	0.13411
1060.77164	0.13431
1058.84297	0.13453
1056.91429	0.13476
1054.98561	0.13500
1053.05694	0.13532
1051.12826	0.13571
1049.19959	0.13608
1047.27091	0.13644
1045.34224	0.13683
1043.41356	0.13721
1041.48488	0.13756
1039.55621	0.13793
1037.62753	0.13838
1035.69886	0.13882
1033.77018	0.13915
1031.84151	0.13944
1029.91283	0.13985
1027.98415	0.14030
1026.05548	0.14064
1024.12680	0.14087
1022.19813	0.14113
1020.26945	0.14149
1018.34078	0.14191
1016.41210	0.14239
1014.48342	0.14295
1012.55475	0.14358
1010.62607	0.14419
1008.69740	0.14477
1006.76872	0.14533
1004.84005	0.14584
1002.91137	0.14629
1000.98269	0.14668
999.05402	0.14696
997.12534	0.14717
995.19667	0.14733
993.26799	0.14742
991.33932	0.14743
989.41064	0.14741
987.48196	0.14741
985.55329	0.14747
983.62461	0.14756
981.69594	0.14756
979.76726	0.14744
977.83859	0.14727
975.90991	0.14709
973.98123	0.14689
972.05256	0.14666
970.12388	0.14646
968.19521	0.14630
966.26653	0.14612
964.33786	0.14589
962.40918	0.14572
960.48050	0.14564
958.55183	0.14555
956.62315	0.14542
954.69448	0.14527
952.76580	0.14513
950.83713	0.14495
948.90845	0.14473
946.97977	0.14451
945.05110	0.14429
943.12242	0.14403
941.19375	0.14367
939.26507	0.14321
937.33640	0.14276
935.40772	0.14235
933.47904	0.14186
931.55037	0.14131
929.62169	0.14075
927.69302	0.14026
925.76434	0.13978
923.83567	0.13926
921.90699	0.13867
919.97831	0.13800
918.04964	0.13735
916.12096	0.13672
914.19229	0.13598
912.26361	0.13512
910.33494	0.13429
908.40626	0.13360
906.47758	0.13301
904.54891	0.13245
902.62023	0.13182
900.69156	0.13119
898.76288	0.13063
896.83421	0.13013
894.90553	0.12962
892.97685	0.12910
891.04818	0.12861
889.11950	0.12814
887.19083	0.12767
885.26215	0.12726
883.33348	0.12687
881.40480	0.12648
879.47612	0.12612
877.54745	0.12581
875.61877	0.12552
873.69010	0.12532
871.76142	0.12516
869.83275	0.12498
867.90407	0.12477
865.97539	0.12458
864.04672	0.12441
862.11804	0.12431
860.18937	0.12426
858.26069	0.12416
856.33202	0.12399
854.40334	0.12379
852.47466	0.12362
850.54599	0.12340
848.61731	0.12306
846.68864	0.12267
844.75996	0.12235
842.83129	0.12210
840.90261	0.12184
838.97394	0.12153
837.04526	0.12107
835.11658	0.12043
833.18791	0.11963
831.25923	0.11866
829.33056	0.11756
827.40188	0.11645
825.47321	0.11543
823.54453	0.11450
821.61585	0.11368
819.68718	0.11297
817.75850	0.11239
815.82983	0.11195
813.90115	0.11164
811.97248	0.11139
810.04380	0.11117
808.11512	0.11103
806.18645	0.11093
804.25777	0.11079
802.32910	0.11069
800.40042	0.11058
798.47175	0.11014
796.54307	0.10939
794.61439	0.10871
792.68572	0.10829
790.75704	0.10801
788.82837	0.10775
786.89969	0.10751
784.97102	0.10728
783.04234	0.10700
781.11366	0.10673
779.18499	0.10646
777.25631	0.10614
775.32764	0.10578
773.39896	0.10540
771.47029	0.10503
769.54161	0.10469
767.61293	0.10436
765.68426	0.10403
763.75558	0.10368
761.82691	0.10318
759.89823	0.10258
757.96956	0.10203
756.04088	0.10147
754.11220	0.10087
752.18353	0.10027
750.25485	0.09960
748.32618	0.09880
746.39750	0.09800
744.46883	0.09718
742.54015	0.09630
740.61147	0.09547
738.68280	0.09492
736.75412	0.09468
734.82545	0.09458
732.89677	0.09459
730.96810	0.09475
729.03942	0.09492
727.11074	0.09497
725.18207	0.09498
723.25339	0.09507
721.32472	0.09521
719.39604	0.09536
717.46737	0.09556
715.53869	0.09590
713.61001	0.09635
711.68134	0.09676
709.75266	0.09703
707.82399	0.09715
705.89531	0.09707
703.96664	0.09683
702.03796	0.09654
700.10928	0.09624
698.18061	0.09581
696.25193	0.09521
694.32326	0.09456
692.39458	0.09399
690.46591	0.09349
688.53723	0.09297
686.60855	0.09244
684.67988	0.09196
682.75120	0.09150
680.82253	0.09095
678.89385	0.09033
676.96518	0.08974
675.03650	0.08919
673.10782	0.08857
671.17915	0.08780
669.25047	0.08691
667.32180	0.08604
665.39312	0.08523
663.46445	0.08443
661.53577	0.08359
659.60709	0.08271
657.67842	0.08179
655.74974	0.08093
653.82107	0.08018
651.89239	0.07949
649.96372	0.07876
648.03504	0.07794
646.10636	0.07703
644.17769	0.07604
642.24901	0.07504
640.32034	0.07402
638.39166	0.07295
636.46299	0.07190
634.53431	0.07078
632.60563	0.06927
630.67696	0.06687
628.74828	0.06336
626.81961	0.05890
624.89093	0.05431
622.96226	0.05063
621.03358	0.04828
619.10490	0.04695
617.17623	0.04614
615.24755	0.04541
613.31888	0.04446
611.39020	0.04344
609.46153	0.04288
607.53285	0.04304
605.60417	0.04351
603.67550	0.04397
601.74682	0.04459
599.81815	0.04552
597.88947	0.04648
595.96080	0.04714
594.03212	0.04755
592.10344	0.04780
590.17477	0.04795
588.24609	0.04797
586.31742	0.04782
584.38874	0.04752
582.46007	0.04717
580.53139	0.04678
578.60271	0.04634
576.67404	0.04585
574.74536	0.04533
572.81669	0.04476
570.88801	0.04410
568.95934	0.04341
567.03066	0.04288
565.10198	0.04261
563.17331	0.04243
561.24463	0.04219
559.31596	0.04191
557.38728	0.04170
555.45861	0.04155
553.52993	0.04136
551.60125	0.04114
549.67258	0.04091
547.74390	0.04068
545.81523	0.04046
543.88655	0.04030
541.95788	0.04016
540.02920	0.04000
538.10052	0.03980
536.17185	0.03955
534.24317	0.03931
532.31450	0.03902
530.38582	0.03871
528.45715	0.03848
526.52847	0.03826
524.59979	0.03793
522.67112	0.03754
520.74244	0.03711
518.81377	0.03653
516.88509	0.03580
514.95642	0.03514
513.02774	0.03479
511.09906	0.03465
509.17039	0.03456
507.24171	0.03442
505.31304	0.03420
503.38436	0.03385
501.45569	0.03335
499.52701	0.03274
497.59833	0.03218
495.66966	0.03174
493.74098	0.03128
491.81231	0.03074
489.88363	0.03012
487.95496	0.02950
486.02628	0.02889
484.09760	0.02831
482.16893	0.02775
480.24025	0.02719
478.31158	0.02666
476.38290	0.02611
474.45423	0.02553
472.52555	0.02501
470.59687	0.02459
468.66820	0.02423
466.73952	0.02387
464.81085	0.02350
462.88217	0.02318
460.95350	0.02297
459.02482	0.02290
457.09614	0.02294
455.16747	0.02299
453.23879	0.02304
451.31012	0.02311
449.38144	0.02304
447.45277	0.02277
445.52409	0.02246
443.59541	0.02223
441.66674	0.02207
439.73806	0.02190
437.80939	0.02157
435.88071	0.02105
433.95204	0.02042
432.02336	0.01976
430.09468	0.01916
428.16601	0.01857
426.23733	0.01789
424.30866	0.01719
422.37998	0.01656
420.45131	0.01590
418.52263	0.01518
416.59395	0.01450
414.66528	0.01384
412.73660	0.01312
410.80793	0.01242
408.87925	0.01180
406.95058	0.01118
405.02190	0.01053
403.09322	0.00989
401.16455	0.00932
399.23587	0.00880
397.30720	0.00827
395.37852	0.00770
393.44985	0.00724
391.52117	0.00692
389.59249	0.00656
387.66382	0.00606
385.73514	0.00557
383.80647	0.00522
381.87779	0.00493
379.94912	0.00461
378.02044	0.00424
376.09176	0.00375
374.16309	0.00319
372.23441	0.00282
370.30574	0.00264
368.37706	0.00242
