7496.76250	0.00119
7494.83382	0.00120
7492.90514	0.00121
7490.97647	0.00121
7489.04779	0.00122
7487.11912	0.00121
7485.19044	0.00119
7483.26177	0.00119
7481.33309	0.00122
7479.40441	0.00124
7477.47574	0.00125
7475.54706	0.00126
7473.61839	0.00126
7471.68971	0.00126
7469.76104	0.00126
7467.83236	0.00127
7465.90368	0.00126
7463.97501	0.00126
7462.04633	0.00126
7460.11766	0.00127
7458.18898	0.00127
7456.26031	0.00127
7454.33163	0.00128
7452.40295	0.00128
7450.47428	0.00129
7448.54560	0.00129
7446.61693	0.00129
7444.68825	0.00129
7442.75958	0.00130
7440.83090	0.00130
7438.90222	0.00129
7436.97355	0.00130
7435.04487	0.00132
7433.11620	0.00132
7431.18752	0.00133
7429.25885	0.00134
7427.33017	0.00133
7425.40149	0.00133
7423.47282	0.00132
7421.54414	0.00132
7419.61547	0.00132
7417.68679	0.00131
7415.75812	0.00131
7413.82944	0.00133
7411.90076	0.00134
7409.97209	0.00135
7408.04341	0.00136
7406.11474	0.00136
7404.18606	0.00135
7402.25739	0.00135
7400.32871	0.00135
7398.40003	0.00135
7396.47136	0.00136
7394.54268	0.00137
7392.61401	0.00138
7390.68533	0.00138
7388.75666	0.00138
7386.82798	0.00139
7384.89930	0.00141
7382.97063	0.00143
7381.04195	0.00144
7379.11328	0.00143
7377.18460	0.00142
7375.25593	0.00141
7373.32725	0.00141
7371.39857	0.00142
7369.46990	0.00144
7367.54122	0.00146
7365.61255	0.00146
7363.68387	0.00146
7361.75520	0.00145
7359.82652	0.00143
7357.89784	0.00143
7355.96917	0.00145
7354.04049	0.00147
7352.11182	0.00147
7350.18314	0.00146
7348.25447	0.00146
7346.32579	0.00146
7344.39711	0.00147
7342.46844	0.00148
7340.53976	0.00149
7338.61109	0.00150
7336.68241	0.00150
7334.75374	0.00149
7332.82506	0.00150
7330.89638	0.00151
7328.96771	0.00151
7327.03903	0.00151
7325.11036	0.00151
7323.18168	0.00151
7321.25301	0.00151
7319.32433	0.00151
7317.39565	0.00153
7315.46698	0.00154
7313.53830	0.00154
7311.60963	0.00153
7309.68095	0.00154
7307.75228	0.00153
7305.82360	0.00153
7303.89492	0.00154
7301.96625	0.00155
7300.03757	0.00154
7298.10890	0.00154
7296.18022	0.00156
7294.25155	0.00157
7292.32287	0.00159
7290.39419	0.00160
7288.46552	0.00159
7286.53684	0.00157
7284.60817	0.00157
7282.67949	0.00157
7280.75082	0.00158
7278.82214	0.00158
7276.89346	0.00158
7274.96479	0.00160
7273.03611	0.00161
7271.10744	0.00161
7269.17876	0.00161
7267.25009	0.00162
7265.32141	0.00164
7263.39273	0.00164
7261.46406	0.00164
7259.53538	0.00163
7257.60671	0.00164
7255.67803	0.00165
7253.74936	0.00164
7251.82068	0.00163
7249.89200	0.00163
7247.96333	0.00164
7246.03465	0.00165
7244.10598	0.00166
7242.17730	0.00167
7240.24863	0.00167
7238.31995	0.00168
7236.39127	0.00169
7234.46260	0.00170
7232.53392	0.00169
7230.60525	0.00168
7228.67657	0.00169
7226.74790	0.00170
7224.81922	0.00170
7222.89054	0.00170
7220.96187	0.00171
7219.03319	0.00171
7217.10452	0.00170
7215.17584	0.00170
7213.24717	0.00171
7211.31849	0.00172
7209.38981	0.00172
7207.46114	0.00173
7205.53246	0.00175
7203.60379	0.00177
7201.67511	0.00177
7199.74644	0.00177
7197.81776	0.00177
7195.88908	0.00177
7193.96041	0.00176
7192.03173	0.00176
7190.10306	0.00177
7188.17438	0.00178
7186.24571	0.00178
7184.31703	0.00178
7182.38835	0.00178
7180.45968	0.00178
7178.53100	0.00179
7176.60233	0.00179
7174.67365	0.00179
7172.74498	0.00180
7170.81630	0.00182
7168.88762	0.00183
7166.95895	0.00183
7165.03027	0.00183
7163.10160	0.00183
7161.17292	0.00184
7159.24425	0.00183
7157.31557	0.00182
7155.38689	0.00182
7153.45822	0.00182
7151.52954	0.00184
7149.60087	0.00185
7147.67219	0.00186
7145.74352	0.00186
7143.81484	0.00187
7141.88616	0.00188
7139.95749	0.00187
7138.02881	0.00185
7136.10014	0.00183
7134.17146	0.00184
7132.24279	0.00188
7130.31411	0.00190
7128.38543	0.00191
7126.45676	0.00191
7124.52808	0.00191
7122.59941	0.00191
7120.67073	0.00191
7118.74206	0.00191
7116.81338	0.00192
7114.88470	0.00193
7112.95603	0.00193
7111.02735	0.00194
7109.09868	0.00195
7107.17000	0.00196
7105.24133	0.00197
7103.31265	0.00198
7101.38397	0.00198
7099.45530	0.00197
7097.52662	0.00195
7095.59795	0.00195
7093.66927	0.00196
7091.74060	0.00197
7089.81192	0.00199
7087.88324	0.00200
7085.95457	0.00200
7084.02589	0.00201
7082.09722	0.00199
7080.16854	0.00197
7078.23987	0.00198
7076.31119	0.00200
7074.38251	0.00201
7072.45384	0.00202
7070.52516	0.00203
7068.59649	0.00203
7066.66781	0.00203
7064.73914	0.00203
7062.81046	0.00202
7060.88178	0.00203
7058.95311	0.00204
7057.02443	0.00205
7055.09576	0.00205
7053.16708	0.00205
7051.23841	0.00206
7049.30973	0.00208
7047.38105	0.00209
7045.45238	0.00210
7043.52370	0.00208
7041.59503	0.00208
7039.66635	0.00209
7037.73768	0.00210
7035.80900	0.00210
7033.88032	0.00210
7031.95165	0.00211
7030.02297	0.00212
7028.09430	0.00213
7026.16562	0.00214
7024.23695	0.00215
7022.30827	0.00215
7020.37959	0.00215
7018.45092	0.00216
7016.52224	0.00217
7014.59357	0.00217
7012.66489	0.00217
7010.73622	0.00216
7008.80754	0.00216
7006.87886	0.00217
7004.95019	0.00217
7003.02151	0.00216
7001.09284	0.00216
6999.16416	0.00217
6997.23549	0.00219
6995.30681	0.00221
6993.37813	0.00223
6991.44946	0.00224
6989.52078	0.00223
6987.59211	0.00223
6985.66343	0.00224
6983.73476	0.00226
6981.80608	0.00226
6979.87740	0.00225
6977.94873	0.00224
6976.02005	0.00225
6974.09138	0.00225
6972.16270	0.00225
6970.23403	0.00226
6968.30535	0.00228
6966.37667	0.00228
6964.44800	0.00229
6962.51932	0.00230
6960.59065	0.00231
6958.66197	0.00231
6956.73330	0.00230
6954.80462	0.00229
6952.87594	0.00229
6950.94727	0.00231
6949.01859	0.00232
6947.08992	0.00231
6945.16124	0.00232
6943.23257	0.00233
6941.30389	0.00234
6939.37521	0.00234
6937.44654	0.00234
6935.51786	0.00235
6933.58919	0.00236
6931.66051	0.00235
6929.73184	0.00236
6927.80316	0.00238
6925.87448	0.00239
6923.94581	0.00240
6922.01713	0.00240
6920.08846	0.00240
6918.15978	0.00240
6916.23111	0.00240
6914.30243	0.00241
6912.37375	0.00243
6910.44508	0.00243
6908.51640	0.00243
6906.58773	0.00242
6904.65905	0.00242
6902.73038	0.00243
6900.80170	0.00244
6898.87302	0.00245
6896.94435	0.00245
6895.01567	0.00246
6893.08700	0.00247
6891.15832	0.00249
6889.22965	0.00250
6887.30097	0.00251
6885.37229	0.00252
6883.44362	0.00251
6881.51494	0.00251
6879.58627	0.00251
6877.65759	0.00251
6875.72892	0.00251
6873.80024	0.00251
6871.87156	0.00252
6869.94289	0.00252
6868.01421	0.00253
6866.08554	0.00254
6864.15686	0.00254
6862.22819	0.00254
6860.29951	0.00253
6858.37083	0.00254
6856.44216	0.00256
6854.51348	0.00258
6852.58481	0.00258
6850.65613	0.00257
6848.72746	0.00258
6846.79878	0.00258
6844.87010	0.00259
6842.94143	0.00259
6841.01275	0.00260
6839.08408	0.00261
6837.15540	0.00261
6835.22673	0.00261
6833.29805	0.00262
6831.36937	0.00264
6829.44070	0.00265
6827.51202	0.00265
6825.58335	0.00265
6823.65467	0.00265
6821.72600	0.00265
6819.79732	0.00267
6817.86864	0.00269
6815.93997	0.00269
6814.01129	0.00269
6812.08262	0.00269
6810.15394	0.00270
6808.22527	0.00270
6806.29659	0.00271
6804.36791	0.00271
6802.43924	0.00272
6800.51056	0.00273
6798.58189	0.00274
6796.65321	0.00274
6794.72454	0.00273
6792.79586	0.00273
6790.86718	0.00275
6788.93851	0.00276
6787.00983	0.00277
6785.08116	0.00275
6783.15248	0.00274
6781.22381	0.00274
6779.29513	0.00277
6777.36645	0.00279
6775.43778	0.00279
6773.50910	0.00281
6771.58043	0.00282
6769.65175	0.00283
6767.72308	0.00285
6765.79440	0.00285
6763.86572	0.00283
6761.93705	0.00282
6760.00837	0.00283
6758.07970	0.00284
6756.15102	0.00285
6754.22235	0.00287
6752.29367	0.00288
6750.36499	0.00287
6748.43632	0.00287
6746.50764	0.00289
6744.57897	0.00291
6742.65029	0.00292
6740.72162	0.00292
6738.79294	0.00290
6736.86426	0.00290
6734.93559	0.00290
6733.00691	0.00292
6731.07824	0.00294
6729.14956	0.00294
6727.22089	0.00294
6725.29221	0.00294
6723.36353	0.00294
6721.43486	0.00296
6719.50618	0.00297
6717.57751	0.00298
6715.64883	0.00299
6713.72016	0.00299
6711.79148	0.00299
6709.86280	0.00301
6707.93413	0.00302
6706.00545	0.00303
6704.07678	0.00303
6702.14810	0.00303
6700.21943	0.00303
6698.29075	0.00304
6696.36207	0.00303
6694.43340	0.00303
6692.50472	0.00305
6690.57605	0.00307
6688.64737	0.00308
6686.71870	0.00308
6684.79002	0.00308
6682.86134	0.00308
6680.93267	0.00309
6679.00399	0.00311
6677.07532	0.00312
6675.14664	0.00313
6673.21797	0.00313
6671.28929	0.00314
6669.36061	0.00314
6667.43194	0.00314
6665.50326	0.00315
6663.57459	0.00315
6661.64591	0.00316
6659.71724	0.00318
6657.78856	0.00319
6655.85988	0.00319
6653.93121	0.00318
6652.00253	0.00318
6650.07386	0.00320
6648.14518	0.00322
6646.21651	0.00322
6644.28783	0.00321
6642.35915	0.00322
6640.43048	0.00323
6638.50180	0.00323
6636.57313	0.00323
6634.64445	0.00323
6632.71578	0.00326
6630.78710	0.00328
6628.85842	0.00329
6626.92975	0.00329
6625.00107	0.00329
6623.07240	0.00330
6621.14372	0.00332
6619.21505	0.00333
6617.28637	0.00332
6615.35769	0.00332
6613.42902	0.00334
6611.50034	0.00337
6609.57167	0.00337
6607.64299	0.00336
6605.71432	0.00335
6603.78564	0.00335
6601.85696	0.00335
6599.92829	0.00336
6597.99961	0.00338
6596.07094	0.00342
6594.14226	0.00343
6592.21359	0.00342
6590.28491	0.00340
6588.35623	0.00341
6586.42756	0.00342
6584.49888	0.00344
6582.57021	0.00344
6580.64153	0.00344
6578.71286	0.00345
6576.78418	0.00346
6574.85550	0.00347
6572.92683	0.00347
6570.99815	0.00347
6569.06948	0.00348
6567.14080	0.00350
6565.21213	0.00350
6563.28345	0.00351
6561.35477	0.00351
6559.42610	0.00351
6557.49742	0.00352
6555.56875	0.00353
6553.64007	0.00353
6551.71140	0.00353
6549.78272	0.00352
6547.85404	0.00354
6545.92537	0.00358
6543.99669	0.00360
6542.06802	0.00359
6540.13934	0.00358
6538.21067	0.00359
6536.28199	0.00360
6534.35331	0.00360
6532.42464	0.00359
6530.49596	0.00359
6528.56729	0.00361
6526.63861	0.00363
6524.70994	0.00365
6522.78126	0.00365
6520.85258	0.00366
6518.92391	0.00367
6516.99523	0.00368
6515.06656	0.00370
6513.13788	0.00372
6511.20921	0.00372
6509.28053	0.00372
6507.35185	0.00373
6505.42318	0.00375
6503.49450	0.00376
6501.56583	0.00375
6499.63715	0.00375
6497.70848	0.00377
6495.77980	0.00379
6493.85112	0.00380
6491.92245	0.00380
6489.99377	0.00378
6488.06510	0.00376
6486.13642	0.00376
6484.20775	0.00378
6482.27907	0.00379
6480.35039	0.00380
6478.42172	0.00382
6476.49304	0.00383
6474.56437	0.00384
6472.63569	0.00385
6470.70702	0.00386
6468.77834	0.00387
6466.84966	0.00388
6464.92099	0.00389
6462.99231	0.00391
6461.06364	0.00392
6459.13496	0.00391
6457.20629	0.00392
6455.27761	0.00394
6453.34893	0.00396
6451.42026	0.00396
6449.49158	0.00395
6447.56291	0.00395
6445.63423	0.00396
6443.70556	0.00398
6441.77688	0.00400
6439.84820	0.00402
6437.91953	0.00404
6435.99085	0.00405
6434.06218	0.00403
6432.13350	0.00403
6430.20483	0.00404
6428.27615	0.00406
6426.34747	0.00406
6424.41880	0.00407
6422.49012	0.00408
6420.56145	0.00410
6418.63277	0.00411
6416.70410	0.00411
6414.77542	0.00409
6412.84674	0.00410
6410.91807	0.00411
6408.98939	0.00411
6407.06072	0.00412
6405.13204	0.00414
6403.20337	0.00416
6401.27469	0.00417
6399.34601	0.00418
6397.41734	0.00418
6395.48866	0.00420
6393.55999	0.00421
6391.63131	0.00421
6389.70264	0.00421
6387.77396	0.00421
6385.84528	0.00421
6383.91661	0.00422
6381.98793	0.00424
6380.05926	0.00427
6378.13058	0.00429
6376.20191	0.00431
6374.27323	0.00433
6372.34455	0.00434
6370.41588	0.00434
6368.48720	0.00434
6366.55853	0.00435
6364.62985	0.00436
6362.70118	0.00436
6360.77250	0.00435
6358.84382	0.00435
6356.91515	0.00438
6354.98647	0.00441
6353.05780	0.00440
6351.12912	0.00439
6349.20045	0.00439
6347.27177	0.00441
6345.34309	0.00442
6343.41442	0.00443
6341.48574	0.00444
6339.55707	0.00446
6337.62839	0.00447
6335.69972	0.00447
6333.77104	0.00448
6331.84236	0.00450
6329.91369	0.00452
6327.98501	0.00453
6326.05634	0.00454
6324.12766	0.00453
6322.19899	0.00453
6320.27031	0.00455
6318.34163	0.00459
6316.41296	0.00460
6314.48428	0.00459
6312.55561	0.00458
6310.62693	0.00459
6308.69826	0.00460
6306.76958	0.00461
6304.84090	0.00462
6302.91223	0.00462
6300.98355	0.00463
6299.05488	0.00464
6297.12620	0.00465
6295.19753	0.00466
6293.26885	0.00466
6291.34017	0.00467
6289.41150	0.00470
6287.48282	0.00472
6285.55415	0.00472
6283.62547	0.00473
6281.69680	0.00475
6279.76812	0.00476
6277.83944	0.00476
6275.91077	0.00477
6273.98209	0.00477
6272.05342	0.00478
6270.12474	0.00480
6268.19607	0.00482
6266.26739	0.00480
6264.33871	0.00479
6262.41004	0.00481
6260.48136	0.00484
6258.55269	0.00486
6256.62401	0.00487
6254.69534	0.00488
6252.76666	0.00490
6250.83798	0.00491
6248.90931	0.00491
6246.98063	0.00491
6245.05196	0.00492
6243.12328	0.00494
6241.19461	0.00496
6239.26593	0.00496
6237.33725	0.00497
6235.40858	0.00498
6233.47990	0.00497
6231.55123	0.00497
6229.62255	0.00500
6227.69388	0.00502
6225.76520	0.00502
6223.83652	0.00502
6221.90785	0.00504
6219.97917	0.00506
6218.05050	0.00508
6216.12182	0.00509
6214.19315	0.00510
6212.26447	0.00511
6210.33579	0.00512
6208.40712	0.00513
6206.47844	0.00516
6204.54977	0.00516
6202.62109	0.00516
6200.69242	0.00517
6198.76374	0.00519
6196.83506	0.00521
6194.90639	0.00522
6192.97771	0.00523
6191.04904	0.00525
6189.12036	0.00526
6187.19169	0.00526
6185.26301	0.00525
6183.33433	0.00524
6181.40566	0.00525
6179.47698	0.00527
6177.54831	0.00529
6175.61963	0.00531
6173.69096	0.00533
6171.76228	0.00534
6169.83360	0.00536
6167.90493	0.00537
6165.97625	0.00537
6164.04758	0.00538
6162.11890	0.00539
6160.19023	0.00541
6158.26155	0.00543
6156.33287	0.00543
6154.40420	0.00544
6152.47552	0.00546
6150.54685	0.00547
6148.61817	0.00548
6146.68950	0.00550
6144.76082	0.00552
6142.83214	0.00553
6140.90347	0.00551
6138.97479	0.00551
6137.04612	0.00553
6135.11744	0.00555
6133.18877	0.00556
6131.26009	0.00555
6129.33141	0.00555
6127.40274	0.00557
6125.47406	0.00559
6123.54539	0.00560
6121.61671	0.00560
6119.68804	0.00561
6117.75936	0.00562
6115.83068	0.00564
6113.90201	0.00566
6111.97333	0.00567
6110.04466	0.00569
6108.11598	0.00571
6106.18731	0.00572
6104.25863	0.00573
6102.32995	0.00576
6100.40128	0.00579
6098.47260	0.00579
6096.54393	0.00580
6094.61525	0.00581
6092.68658	0.00583
6090.75790	0.00583
6088.82922	0.00581
6086.90055	0.00581
6084.97187	0.00582
6083.04320	0.00584
6081.11452	0.00585
6079.18585	0.00587
6077.25717	0.00590
6075.32849	0.00592
6073.39982	0.00593
6071.47114	0.00596
6069.54247	0.00598
6067.61379	0.00601
6065.68512	0.00601
6063.75644	0.00601
6061.82776	0.00603
6059.89909	0.00603
6057.97041	0.00603
6056.04174	0.00603
6054.11306	0.00605
6052.18439	0.00608
6050.25571	0.00610
6048.32703	0.00612
6046.39836	0.00613
6044.46968	0.00615
6042.54101	0.00615
6040.61233	0.00615
6038.68366	0.00616
6036.75498	0.00618
6034.82630	0.00619
6032.89763	0.00619
6030.96895	0.00620
6029.04028	0.00623
6027.11160	0.00624
6025.18293	0.00625
6023.25425	0.00624
6021.32557	0.00623
6019.39690	0.00624
6017.46822	0.00627
6015.53955	0.00629
6013.61087	0.00631
6011.68220	0.00633
6009.75352	0.00635
6007.82484	0.00637
6005.89617	0.00639
6003.96749	0.00641
6002.03882	0.00643
6000.11014	0.00645
5998.18147	0.00645
5996.25279	0.00644
5994.32411	0.00645
5992.39544	0.00646
5990.46676	0.00648
5988.53809	0.00651
5986.60941	0.00654
5984.68074	0.00656
5982.75206	0.00656
5980.82338	0.00657
5978.89471	0.00660
5976.96603	0.00660
5975.03736	0.00660
5973.10868	0.00661
5971.18001	0.00660
5969.25133	0.00660
5967.32265	0.00662
5965.39398	0.00665
5963.46530	0.00668
5961.53663	0.00669
5959.60795	0.00670
5957.67928	0.00671
5955.75060	0.00672
5953.82192	0.00672
5951.89325	0.00672
5949.96457	0.00674
5948.03590	0.00677
5946.10722	0.00679
5944.17855	0.00680
5942.24987	0.00680
5940.32119	0.00680
5938.39252	0.00682
5936.46384	0.00683
5934.53517	0.00685
5932.60649	0.00689
5930.67782	0.00691
5928.74914	0.00691
5926.82046	0.00693
5924.89179	0.00695
5922.96311	0.00695
5921.03444	0.00696
5919.10576	0.00697
5917.17709	0.00698
5915.24841	0.00700
5913.31973	0.00702
5911.39106	0.00702
5909.46238	0.00703
5907.53371	0.00706
5905.60503	0.00709
5903.67636	0.00711
5901.74768	0.00711
5899.81900	0.00712
5897.89033	0.00715
5895.96165	0.00718
5894.03298	0.00719
5892.10430	0.00720
5890.17563	0.00722
5888.24695	0.00721
5886.31827	0.00721
5884.38960	0.00722
5882.46092	0.00725
5880.53225	0.00727
5878.60357	0.00729
5876.67490	0.00730
5874.74622	0.00732
5872.81755	0.00734
5870.88887	0.00737
5868.96019	0.00738
5867.03152	0.00739
5865.10284	0.00741
5863.17417	0.00743
5861.24549	0.00744
5859.31682	0.00745
5857.38814	0.00746
5855.45946	0.00746
5853.53079	0.00747
5851.60211	0.00748
5849.67344	0.00749
5847.74476	0.00749
5845.81609	0.00751
5843.88741	0.00754
5841.95873	0.00758
5840.03006	0.00761
5838.10138	0.00763
5836.17271	0.00764
5834.24403	0.00765
5832.31536	0.00765
5830.38668	0.00764
5828.45800	0.00766
5826.52933	0.00768
5824.60065	0.00770
5822.67198	0.00771
5820.74330	0.00771
5818.81463	0.00772
5816.88595	0.00774
5814.95727	0.00778
5813.02860	0.00781
5811.09992	0.00783
5809.17125	0.00785
5807.24257	0.00787
5805.31390	0.00789
5803.38522	0.00790
5801.45654	0.00791
5799.52787	0.00792
5797.59919	0.00793
5795.67052	0.00792
5793.74184	0.00793
5791.81317	0.00794
5789.88449	0.00795
5787.95581	0.00797
5786.02714	0.00801
5784.09846	0.00806
5782.16979	0.00808
5780.24111	0.00809
5778.31244	0.00809
5776.38376	0.00810
5774.45508	0.00811
5772.52641	0.00813
5770.59773	0.00816
5768.66906	0.00818
5766.74038	0.00820
5764.81171	0.00821
5762.88303	0.00823
5760.95435	0.00825
5759.02568	0.00827
5757.09700	0.00829
5755.16833	0.00831
5753.23965	0.00833
5751.31098	0.00834
5749.38230	0.00835
5747.45362	0.00838
5745.52495	0.00840
5743.59627	0.00842
5741.66760	0.00844
5739.73892	0.00845
5737.81025	0.00846
5735.88157	0.00847
5733.95289	0.00847
5732.02422	0.00849
5730.09554	0.00851
5728.16687	0.00851
5726.23819	0.00854
5724.30952	0.00857
5722.38084	0.00860
5720.45216	0.00862
5718.52349	0.00865
5716.59481	0.00866
5714.66614	0.00867
5712.73746	0.00868
5710.80879	0.00870
5708.88011	0.00872
5706.95143	0.00871
5705.02276	0.00870
5703.09408	0.00872
5701.16541	0.00875
5699.23673	0.00878
5697.30806	0.00882
5695.37938	0.00886
5693.45070	0.00887
5691.52203	0.00888
5689.59335	0.00888
5687.66468	0.00890
5685.73600	0.00892
5683.80733	0.00894
5681.87865	0.00896
5679.94997	0.00898
5678.02130	0.00899
5676.09262	0.00901
5674.16395	0.00903
5672.23527	0.00904
5670.30660	0.00904
5668.37792	0.00905
5666.44924	0.00907
5664.52057	0.00908
5662.59189	0.00910
5660.66322	0.00912
5658.73454	0.00915
5656.80587	0.00915
5654.87719	0.00916
5652.94851	0.00918
5651.01984	0.00922
5649.09116	0.00925
5647.16249	0.00926
5645.23381	0.00928
5643.30514	0.00930
5641.37646	0.00932
5639.44778	0.00934
5637.51911	0.00936
5635.59043	0.00938
5633.66176	0.00940
5631.73308	0.00942
5629.80441	0.00943
5627.87573	0.00945
5625.94705	0.00947
5624.01838	0.00949
5622.08970	0.00951
5620.16103	0.00952
5618.23235	0.00955
5616.30368	0.00958
5614.37500	0.00960
5612.44632	0.00960
5610.51765	0.00960
5608.58897	0.00962
5606.66030	0.00964
5604.73162	0.00965
5602.80295	0.00967
5600.87427	0.00971
5598.94559	0.00973
5597.01692	0.00974
5595.08824	0.00975
5593.15957	0.00977
5591.23089	0.00979
5589.30222	0.00982
5587.37354	0.00985
5585.44486	0.00987
5583.51619	0.00989
5581.58751	0.00991
5579.65884	0.00992
5577.73016	0.00994
5575.80149	0.00996
5573.87281	0.00997
5571.94413	0.00998
5570.01546	0.00999
5568.08678	0.01002
5566.15811	0.01005
5564.22943	0.01008
5562.30076	0.01010
5560.37208	0.01012
5558.44340	0.01015
5556.51473	0.01017
5554.58605	0.01018
5552.65738	0.01019
5550.72870	0.01021
5548.80003	0.01022
5546.87135	0.01025
5544.94267	0.01027
5543.01400	0.01029
5541.08532	0.01031
5539.15665	0.01033
5537.22797	0.01034
5535.29930	0.01034
5533.37062	0.01035
5531.44194	0.01038
5529.51327	0.01041
5527.58459	0.01042
5525.65592	0.01043
5523.72724	0.01045
5521.79857	0.01049
5519.86989	0.01050
5517.94121	0.01052
5516.01254	0.01055
5514.08386	0.01058
5512.15519	0.01060
5510.22651	0.01062
5508.29784	0.01065
5506.36916	0.01067
5504.44048	0.01068
5502.51181	0.01069
5500.58313	0.01070
5498.65446	0.01072
5496.72578	0.01076
5494.79711	0.01078
5492.86843	0.01080
5490.93975	0.01082
5489.01108	0.01083
5487.08240	0.01087
5485.15373	0.01092
5483.22505	0.01093
5481.29638	0.01093
5479.36770	0.01093
5477.43902	0.01094
5475.51035	0.01096
5473.58167	0.01100
5471.65300	0.01102
5469.72432	0.01103
5467.79565	0.01105
5465.86697	0.01107
5463.93829	0.01110
5462.00962	0.01112
5460.08094	0.01114
5458.15227	0.01117
5456.22359	0.01121
5454.29492	0.01123
5452.36624	0.01124
5450.43756	0.01124
5448.50889	0.01126
5446.58021	0.01129
5444.65154	0.01130
5442.72286	0.01133
5440.79419	0.01137
5438.86551	0.01141
5436.93683	0.01143
5435.00816	0.01142
5433.07948	0.01142
5431.15081	0.01144
5429.22213	0.01146
5427.29346	0.01148
5425.36478	0.01151
5423.43610	0.01155
5421.50743	0.01158
5419.57875	0.01159
5417.65008	0.01158
5415.72140	0.01159
5413.79273	0.01162
5411.86405	0.01164
5409.93537	0.01166
5408.00670	0.01169
5406.07802	0.01175
5404.14935	0.01180
5402.22067	0.01184
5400.29200	0.01185
5398.36332	0.01186
5396.43464	0.01187
5394.50597	0.01188
5392.57729	0.01190
5390.64862	0.01193
5388.71994	0.01196
5386.79127	0.01196
5384.86259	0.01195
5382.93391	0.01198
5381.00524	0.01200
5379.07656	0.01202
5377.14789	0.01205
5375.21921	0.01209
5373.29054	0.01213
5371.36186	0.01214
5369.43318	0.01215
5367.50451	0.01217
5365.57583	0.01220
5363.64716	0.01222
5361.71848	0.01223
5359.78981	0.01225
5357.86113	0.01230
5355.93245	0.01234
5354.00378	0.01235
5352.07510	0.01235
5350.14643	0.01235
5348.21775	0.01237
5346.28908	0.01239
5344.36040	0.01240
5342.43172	0.01243
5340.50305	0.01246
5338.57437	0.01248
5336.64570	0.01250
5334.71702	0.01254
5332.78835	0.01257
5330.85967	0.01257
5328.93099	0.01258
5327.00232	0.01260
5325.07364	0.01265
5323.14497	0.01269
5321.21629	0.01271
5319.28762	0.01273
5317.35894	0.01275
5315.43026	0.01277
5313.50159	0.01281
5311.57291	0.01284
5309.64424	0.01284
5307.71556	0.01283
5305.78689	0.01287
5303.85821	0.01292
5301.92953	0.01295
5300.00086	0.01296
5298.07218	0.01297
5296.14351	0.01299
5294.21483	0.01302
5292.28616	0.01307
5290.35748	0.01310
5288.42880	0.01311
5286.50013	0.01311
5284.57145	0.01313
5282.64278	0.01317
5280.71410	0.01320
5278.78543	0.01322
5276.85675	0.01325
5274.92807	0.01328
5272.99940	0.01330
5271.07072	0.01331
5269.14205	0.01331
5267.21337	0.01332
5265.28470	0.01336
5263.35602	0.01339
5261.42734	0.01343
5259.49867	0.01346
5257.56999	0.01348
5255.64132	0.01349
5253.71264	0.01350
5251.78397	0.01353
5249.85529	0.01354
5247.92661	0.01354
5245.99794	0.01356
5244.06926	0.01361
5242.14059	0.01367
5240.21191	0.01371
5238.28324	0.01373
5236.35456	0.01376
5234.42588	0.01379
5232.49721	0.01381
5230.56853	0.01383
5228.63986	0.01383
5226.71118	0.01383
5224.78251	0.01384
5222.85383	0.01389
5220.92515	0.01393
5218.99648	0.01396
5217.06780	0.01398
5215.13913	0.01400
5213.21045	0.01401
5211.28178	0.01403
5209.35310	0.01405
5207.42442	0.01407
5205.49575	0.01410
5203.56707	0.01412
5201.63840	0.01415
5199.70972	0.01417
5197.78105	0.01419
5195.85237	0.01420
5193.92369	0.01423
5191.99502	0.01427
5190.06634	0.01431
5188.13767	0.01434
5186.20899	0.01436
5184.28032	0.01438
5182.35164	0.01441
5180.42296	0.01445
5178.49429	0.01446
5176.56561	0.01449
5174.63694	0.01452
5172.70826	0.01455
5170.77959	0.01454
5168.85091	0.01454
5166.92223	0.01457
5164.99356	0.01462
5163.06488	0.01465
5161.13621	0.01467
5159.20753	0.01468
5157.27886	0.01469
5155.35018	0.01472
5153.42150	0.01476
5151.49283	0.01481
5149.56415	0.01484
5147.63548	0.01486
5145.70680	0.01487
5143.77813	0.01489
5141.84945	0.01492
5139.92077	0.01494
5137.99210	0.01495
5136.06342	0.01497
5134.13475	0.01498
5132.20607	0.01499
5130.27740	0.01503
5128.34872	0.01507
5126.42004	0.01512
5124.49137	0.01515
5122.56269	0.01517
5120.63402	0.01520
5118.70534	0.01523
5116.77667	0.01525
5114.84799	0.01527
5112.91931	0.01530
5110.99064	0.01535
5109.06196	0.01538
5107.13329	0.01540
5105.20461	0.01541
5103.27594	0.01541
5101.34726	0.01543
5099.41858	0.01547
5097.48991	0.01551
5095.56123	0.01554
5093.63256	0.01556
5091.70388	0.01559
5089.77521	0.01560
5087.84653	0.01562
5085.91785	0.01565
5083.98918	0.01568
5082.06050	0.01570
5080.13183	0.01571
5078.20315	0.01573
5076.27448	0.01577
5074.34580	0.01581
5072.41712	0.01583
5070.48845	0.01585
5068.55977	0.01587
5066.63110	0.01590
5064.70242	0.01593
5062.77375	0.01597
5060.84507	0.01599
5058.91639	0.01602
5056.98772	0.01605
5055.05904	0.01608
5053.13037	0.01609
5051.20169	0.01610
5049.27302	0.01612
5047.34434	0.01614
5045.41566	0.01618
5043.48699	0.01622
5041.55831	0.01626
5039.62964	0.01631
5037.70096	0.01633
5035.77229	0.01634
5033.84361	0.01637
5031.91493	0.01638
5029.98626	0.01640
5028.05758	0.01643
5026.12891	0.01646
5024.20023	0.01650
5022.27156	0.01655
5020.34288	0.01658
5018.41420	0.01660
5016.48553	0.01661
5014.55685	0.01664
5012.62818	0.01667
5010.69950	0.01668
5008.77083	0.01669
5006.84215	0.01672
5004.91347	0.01676
5002.98480	0.01679
5001.05612	0.01680
4999.12745	0.01683
4997.19877	0.01687
4995.27010	0.01690
4993.34142	0.01691
4991.41274	0.01693
4989.48407	0.01697
4987.55539	0.01701
4985.62672	0.01703
4983.69804	0.01705
4981.76937	0.01706
4979.84069	0.01708
4977.91201	0.01712
4975.98334	0.01717
4974.05466	0.01720
4972.12599	0.01722
4970.19731	0.01725
4968.26864	0.01728
4966.33996	0.01732
4964.41128	0.01734
4962.48261	0.01736
4960.55393	0.01738
4958.62526	0.01740
4956.69658	0.01744
4954.76791	0.01747
4952.83923	0.01751
4950.91055	0.01753
4948.98188	0.01753
4947.05320	0.01755
4945.12453	0.01759
4943.19585	0.01763
4941.26718	0.01767
4939.33850	0.01771
4937.40982	0.01773
4935.48115	0.01775
4933.55247	0.01778
4931.62380	0.01782
4929.69512	0.01786
4927.76645	0.01788
4925.83777	0.01789
4923.90909	0.01791
4921.98042	0.01794
4920.05174	0.01797
4918.12307	0.01798
4916.19439	0.01800
4914.26572	0.01804
4912.33704	0.01809
4910.40836	0.01813
4908.47969	0.01818
4906.55101	0.01820
4904.62234	0.01820
4902.69366	0.01821
4900.76499	0.01824
4898.83631	0.01828
4896.90763	0.01831
4894.97896	0.01835
4893.05028	0.01838
4891.12161	0.01841
4889.19293	0.01843
4887.26426	0.01844
4885.33558	0.01848
4883.40690	0.01851
4881.47823	0.01854
4879.54955	0.01855
4877.62088	0.01858
4875.69220	0.01861
4873.76353	0.01865
4871.83485	0.01868
4869.90617	0.01873
4867.97750	0.01876
4866.04882	0.01878
4864.12015	0.01881
4862.19147	0.01883
4860.26280	0.01886
4858.33412	0.01889
4856.40544	0.01892
4854.47677	0.01894
4852.54809	0.01897
4850.61942	0.01901
4848.69074	0.01905
4846.76207	0.01908
4844.83339	0.01910
4842.90471	0.01913
4840.97604	0.01917
4839.04736	0.01921
4837.11869	0.01923
4835.19001	0.01927
4833.26134	0.01931
4831.33266	0.01933
4829.40398	0.01936
4827.47531	0.01939
4825.54663	0.01942
4823.61796	0.01944
4821.68928	0.01945
4819.76061	0.01949
4817.83193	0.01953
4815.90325	0.01957
4813.97458	0.01960
4812.04590	0.01964
4810.11723	0.01967
4808.18855	0.01969
4806.25988	0.01973
4804.33120	0.01979
4802.40252	0.01983
4800.47385	0.01985
4798.54517	0.01986
4796.61650	0.01989
4794.68782	0.01993
4792.75915	0.01996
4790.83047	0.01998
4788.90179	0.02001
4786.97312	0.02003
4785.04444	0.02006
4783.11577	0.02010
4781.18709	0.02014
4779.25842	0.02018
4777.32974	0.02022
4775.40106	0.02025
4773.47239	0.02027
4771.54371	0.02029
4769.61504	0.02031
4767.68636	0.02035
4765.75769	0.02039
4763.82901	0.02042
4761.90033	0.02045
4759.97166	0.02048
4758.04298	0.02052
4756.11431	0.02055
4754.18563	0.02057
4752.25696	0.02061
4750.32828	0.02065
4748.39960	0.02067
4746.47093	0.02069
4744.54225	0.02071
4742.61358	0.02077
4740.68490	0.02084
4738.75623	0.02089
4736.82755	0.02092
4734.89887	0.02093
4732.97020	0.02095
4731.04152	0.02098
4729.11285	0.02102
4727.18417	0.02107
4725.25550	0.02110
4723.32682	0.02111
4721.39814	0.02114
4719.46947	0.02118
4717.54079	0.02122
4715.61212	0.02124
4713.68344	0.02126
4711.75477	0.02129
4709.82609	0.02133
4707.89741	0.02135
4705.96874	0.02137
4704.04006	0.02142
4702.11139	0.02148
4700.18271	0.02152
4698.25404	0.02156
4696.32536	0.02159
4694.39668	0.02161
4692.46801	0.02163
4690.53933	0.02166
4688.61066	0.02171
4686.68198	0.02176
4684.75331	0.02180
4682.82463	0.02185
4680.89595	0.02190
4678.96728	0.02193
4677.03860	0.02195
4675.10993	0.02197
4673.18125	0.02199
4671.25258	0.02201
4669.32390	0.02203
4667.39522	0.02206
4665.46655	0.02211
4663.53787	0.02215
4661.60920	0.02219
4659.68052	0.02224
4657.75185	0.02230
4655.82317	0.02234
4653.89449	0.02236
4651.96582	0.02240
4650.03714	0.02246
4648.10847	0.02250
4646.17979	0.02253
4644.25112	0.02257
4642.32244	0.02261
4640.39376	0.02264
4638.46509	0.02266
4636.53641	0.02268
4634.60774	0.02270
4632.67906	0.02273
4630.75039	0.02278
4628.82171	0.02283
4626.89303	0.02288
4624.96436	0.02292
4623.03568	0.02294
4621.10701	0.02295
4619.17833	0.02299
4617.24966	0.02302
4615.32098	0.02306
4613.39230	0.02311
4611.46363	0.02317
4609.53495	0.02322
4607.60628	0.02325
4605.67760	0.02329
4603.74893	0.02331
4601.82025	0.02333
4599.89157	0.02337
4597.96290	0.02342
4596.03422	0.02346
4594.10555	0.02349
4592.17687	0.02354
4590.24820	0.02361
4588.31952	0.02364
4586.39084	0.02367
4584.46217	0.02372
4582.53349	0.02376
4580.60482	0.02379
4578.67614	0.02382
4576.74747	0.02387
4574.81879	0.02390
4572.89011	0.02392
4570.96144	0.02395
4569.03276	0.02399
4567.10409	0.02404
4565.17541	0.02408
4563.24674	0.02413
4561.31806	0.02418
4559.38938	0.02422
4557.46071	0.02425
4555.53203	0.02429
4553.60336	0.02435
4551.67468	0.02440
4549.74601	0.02443
4547.81733	0.02447
4545.88865	0.02451
4543.95998	0.02453
4542.03130	0.02456
4540.10263	0.02459
4538.17395	0.02465
4536.24528	0.02471
4534.31660	0.02475
4532.38792	0.02479
4530.45925	0.02482
4528.53057	0.02485
4526.60190	0.02490
4524.67322	0.02495
4522.74455	0.02498
4520.81587	0.02500
4518.88719	0.02502
4516.95852	0.02506
4515.02984	0.02511
4513.10117	0.02517
4511.17249	0.02522
4509.24382	0.02528
4507.31514	0.02534
4505.38646	0.02540
4503.45779	0.02544
4501.52911	0.02545
4499.60044	0.02547
4497.67176	0.02551
4495.74309	0.02557
4493.81441	0.02562
4491.88573	0.02565
4489.95706	0.02569
4488.02838	0.02574
4486.09971	0.02579
4484.17103	0.02584
4482.24236	0.02589
4480.31368	0.02593
4478.38500	0.02596
4476.45633	0.02598
4474.52765	0.02602
4472.59898	0.02608
4470.67030	0.02613
4468.74163	0.02617
4466.81295	0.02621
4464.88427	0.02626
4462.95560	0.02631
4461.02692	0.02635
4459.09825	0.02641
4457.16957	0.02646
4455.24090	0.02650
4453.31222	0.02654
4451.38354	0.02660
4449.45487	0.02665
4447.52619	0.02669
4445.59752	0.02675
4443.66884	0.02681
4441.74017	0.02684
4439.81149	0.02688
4437.88281	0.02693
4435.95414	0.02696
4434.02546	0.02698
4432.09679	0.02701
4430.16811	0.02706
4428.23944	0.02713
4426.31076	0.02718
4424.38208	0.02721
4422.45341	0.02726
4420.52473	0.02732
4418.59606	0.02736
4416.66738	0.02740
4414.73871	0.02745
4412.81003	0.02750
4410.88135	0.02755
4408.95268	0.02760
4407.02400	0.02767
4405.09533	0.02772
4403.16665	0.02774
4401.23798	0.02778
4399.30930	0.02784
4397.38062	0.02791
4395.45195	0.02798
4393.52327	0.02803
4391.59460	0.02807
4389.66592	0.02811
4387.73725	0.02817
4385.80857	0.02823
4383.87989	0.02829
4381.95122	0.02831
4380.02254	0.02833
4378.09387	0.02837
4376.16519	0.02843
4374.23652	0.02849
4372.30784	0.02856
4370.37916	0.02861
4368.45049	0.02865
4366.52181	0.02870
4364.59314	0.02876
4362.66446	0.02882
4360.73579	0.02888
4358.80711	0.02893
4356.87843	0.02898
4354.94976	0.02902
4353.02108	0.02904
4351.09241	0.02907
4349.16373	0.02912
4347.23506	0.02920
4345.30638	0.02930
4343.37770	0.02936
4341.44903	0.02938
4339.52035	0.02940
4337.59168	0.02943
4335.66300	0.02947
4333.73433	0.02952
4331.80565	0.02959
4329.87697	0.02966
4327.94830	0.02971
4326.01962	0.02974
4324.09095	0.02979
4322.16227	0.02986
4320.23360	0.02991
4318.30492	0.02998
4316.37624	0.03005
4314.44757	0.03012
4312.51889	0.03018
4310.59022	0.03024
4308.66154	0.03029
4306.73287	0.03034
4304.80419	0.03039
4302.87551	0.03043
4300.94684	0.03048
4299.01816	0.03054
4297.08949	0.03060
4295.16081	0.03064
4293.23214	0.03066
4291.30346	0.03070
4289.37478	0.03078
4287.44611	0.03087
4285.51743	0.03094
4283.58876	0.03099
4281.66008	0.03104
4279.73141	0.03110
4277.80273	0.03115
4275.87405	0.03121
4273.94538	0.03128
4272.01670	0.03134
4270.08803	0.03140
4268.15935	0.03146
4266.23068	0.03151
4264.30200	0.03157
4262.37332	0.03164
4260.44465	0.03170
4258.51597	0.03173
4256.58730	0.03176
4254.65862	0.03181
4252.72995	0.03187
4250.80127	0.03195
4248.87259	0.03203
4246.94392	0.03209
4245.01524	0.03213
4243.08657	0.03216
4241.15789	0.03222
4239.22922	0.03231
4237.30054	0.03238
4235.37186	0.03242
4233.44319	0.03246
4231.51451	0.03253
4229.58584	0.03261
4227.65716	0.03267
4225.72849	0.03272
4223.79981	0.03276
4221.87113	0.03281
4219.94246	0.03287
4218.01378	0.03293
4216.08511	0.03300
4214.15643	0.03306
4212.22776	0.03311
4210.29908	0.03316
4208.37040	0.03322
4206.44173	0.03331
4204.51305	0.03339
4202.58438	0.03343
4200.65570	0.03348
4198.72703	0.03354
4196.79835	0.03362
4194.86968	0.03370
4192.94100	0.03375
4191.01232	0.03380
4189.08365	0.03387
4187.15497	0.03396
4185.22630	0.03405
4183.29762	0.03411
4181.36895	0.03415
4179.44027	0.03419
4177.51159	0.03425
4175.58292	0.03432
4173.65424	0.03439
4171.72557	0.03447
4169.79689	0.03454
4167.86822	0.03460
4165.93954	0.03466
4164.01086	0.03473
4162.08219	0.03479
4160.15351	0.03486
4158.22484	0.03493
4156.29616	0.03498
4154.36749	0.03503
4152.43881	0.03510
4150.51013	0.03516
4148.58146	0.03522
4146.65278	0.03529
4144.72411	0.03536
4142.79543	0.03543
4140.86676	0.03550
4138.93808	0.03557
4137.00940	0.03563
4135.08073	0.03569
4133.15205	0.03575
4131.22338	0.03581
4129.29470	0.03586
4127.36603	0.03593
4125.43735	0.03601
4123.50867	0.03608
4121.58000	0.03614
4119.65132	0.03620
4117.72265	0.03627
4115.79397	0.03635
4113.86530	0.03643
4111.93662	0.03650
4110.00794	0.03657
4108.07927	0.03664
4106.15059	0.03671
4104.22192	0.03676
4102.29324	0.03682
4100.36457	0.03689
4098.43589	0.03696
4096.50721	0.03703
4094.57854	0.03711
4092.64986	0.03721
4090.72119	0.03729
4088.79251	0.03736
4086.86384	0.03741
4084.93516	0.03748
4083.00648	0.03756
4081.07781	0.03764
4079.14913	0.03770
4077.22046	0.03776
4075.29178	0.03781
4073.36311	0.03786
4071.43443	0.03792
4069.50575	0.03800
4067.57708	0.03809
4065.64840	0.03817
4063.71973	0.03825
4061.79105	0.03832
4059.86238	0.03837
4057.93370	0.03844
4056.00502	0.03851
4054.07635	0.03859
4052.14767	0.03867
4050.21900	0.03876
4048.29032	0.03884
4046.36165	0.03892
4044.43297	0.03900
4042.50429	0.03907
4040.57562	0.03912
4038.64694	0.03916
4036.71827	0.03922
4034.78959	0.03931
4032.86092	0.03940
4030.93224	0.03947
4029.00356	0.03954
4027.07489	0.03963
4025.14621	0.03973
4023.21754	0.03982
4021.28886	0.03988
4019.36019	0.03997
4017.43151	0.04004
4015.50283	0.04009
4013.57416	0.04015
4011.64548	0.04023
4009.71681	0.04031
4007.78813	0.04039
4005.85946	0.04048
4003.93078	0.04057
4002.00210	0.04064
4000.07343	0.04070
3998.14475	0.04078
3996.21608	0.04086
3994.28740	0.04094
3992.35873	0.04104
3990.43005	0.04111
3988.50137	0.04117
3986.57270	0.04123
3984.64402	0.04130
3982.71535	0.04137
3980.78667	0.04143
3978.85800	0.04150
3976.92932	0.04159
3975.00064	0.04170
3973.07197	0.04180
3971.14329	0.04189
3969.21462	0.04197
3967.28594	0.04205
3965.35727	0.04211
3963.42859	0.04213
3961.49991	0.04218
3959.57124	0.04229
3957.64256	0.04241
3955.71389	0.04251
3953.78521	0.04259
3951.85654	0.04265
3949.92786	0.04268
3947.99918	0.04272
3946.07051	0.04280
3944.14183	0.04289
3942.21316	0.04300
3940.28448	0.04311
3938.35581	0.04321
3936.42713	0.04327
3934.49845	0.04329
3932.56978	0.04330
3930.64110	0.04339
3928.71243	0.04353
3926.78375	0.04361
3924.85508	0.04365
3922.92640	0.04374
3920.99772	0.04382
3919.06905	0.04384
3917.14037	0.04391
3915.21170	0.04407
3913.28302	0.04424
3911.35435	0.04434
3909.42567	0.04440
3907.49699	0.04443
3905.56832	0.04441
3903.63964	0.04438
3901.71097	0.04441
3899.78229	0.04456
3897.85362	0.04476
3895.92494	0.04492
3893.99626	0.04497
3892.06759	0.04499
3890.13891	0.04508
3888.21024	0.04521
3886.28156	0.04527
3884.35289	0.04533
3882.42421	0.04539
3880.49553	0.04546
3878.56686	0.04561
3876.63818	0.04576
3874.70951	0.04585
3872.78083	0.04590
3870.85216	0.04593
3868.92348	0.04597
3866.99480	0.04603
3865.06613	0.04609
3863.13745	0.04621
3861.20878	0.04637
3859.28010	0.04647
3857.35143	0.04641
3855.42275	0.04623
3853.49407	0.04624
3851.56540	0.04657
3849.63672	0.04693
3847.70805	0.04713
3845.77937	0.04721
3843.85070	0.04725
3841.92202	0.04725
3839.99334	0.04719
3838.06467	0.04716
3836.13599	0.04727
3834.20732	0.04745
3832.27864	0.04763
3830.34997	0.04779
3828.42129	0.04791
3826.49261	0.04800
3824.56394	0.04808
3822.63526	0.04810
3820.70659	0.04814
3818.77791	0.04819
3816.84924	0.04822
3814.92056	0.04837
3812.99188	0.04861
3811.06321	0.04878
3809.13453	0.04885
3807.20586	0.04891
3805.27718	0.04897
3803.34851	0.04896
3801.41983	0.04895
3799.49115	0.04905
3797.56248	0.04920
3795.63380	0.04936
3793.70513	0.04955
3791.77645	0.04971
3789.84778	0.04982
3787.91910	0.04991
3785.99042	0.04997
3784.06175	0.05002
3782.13307	0.05010
3780.20440	0.05021
3778.27572	0.05033
3776.34705	0.05045
3774.41837	0.05054
3772.48969	0.05058
3770.56102	0.05061
3768.63234	0.05070
3766.70367	0.05082
3764.77499	0.05094
3762.84632	0.05101
3760.91764	0.05100
3758.98896	0.05105
3757.06029	0.05118
3755.13161	0.05124
3753.20294	0.05116
3751.27426	0.05115
3749.34559	0.05129
3747.41691	0.05129
3745.48823	0.05111
3743.55956	0.05123
3741.63088	0.05168
3739.70221	0.05192
3737.77353	0.05185
3735.84486	0.05184
3733.91618	0.05202
3731.98750	0.05227
3730.05883	0.05249
3728.13015	0.05262
3726.20148	0.05269
3724.27280	0.05278
3722.34413	0.05289
3720.41545	0.05302
3718.48677	0.05316
3716.55810	0.05326
3714.62942	0.05329
3712.70075	0.05330
3710.77207	0.05338
3708.84340	0.05354
3706.91472	0.05371
3704.98604	0.05383
3703.05737	0.05391
3701.12869	0.05400
3699.20002	0.05412
3697.27134	0.05422
3695.34267	0.05426
3693.41399	0.05423
3691.48531	0.05416
3689.55664	0.05419
3687.62796	0.05439
3685.69929	0.05466
3683.77061	0.05485
3681.84194	0.05493
3679.91326	0.05492
3677.98458	0.05485
3676.05591	0.05482
3674.12723	0.05497
3672.19856	0.05513
3670.26988	0.05520
3668.34121	0.05534
3666.41253	0.05559
3664.48385	0.05579
3662.55518	0.05589
3660.62650	0.05595
3658.69783	0.05597
3656.76915	0.05601
3654.84048	0.05607
3652.91180	0.05604
3650.98312	0.05588
3649.05445	0.05579
3647.12577	0.05593
3645.19710	0.05622
3643.26842	0.05650
3641.33975	0.05669
3639.41107	0.05683
3637.48239	0.05692
3635.55372	0.05698
3633.62504	0.05701
3631.69637	0.05697
3629.76769	0.05691
3627.83902	0.05701
3625.91034	0.05724
3623.98166	0.05739
3622.05299	0.05737
3620.12431	0.05734
3618.19564	0.05743
3616.26696	0.05756
3614.33829	0.05760
3612.40961	0.05762
3610.48093	0.05769
3608.55226	0.05783
3606.62358	0.05801
3604.69491	0.05815
3602.76623	0.05823
3600.83756	0.05831
3598.90888	0.05841
3596.98020	0.05848
3595.05153	0.05853
3593.12285	0.05858
3591.19418	0.05863
3589.26550	0.05864
3587.33683	0.05866
3585.40815	0.05879
3583.47947	0.05896
3581.55080	0.05907
3579.62212	0.05916
3577.69345	0.05923
3575.76477	0.05931
3573.83610	0.05941
3571.90742	0.05947
3569.97874	0.05942
3568.05007	0.05934
3566.12139	0.05942
3564.19272	0.05964
3562.26404	0.05982
3560.33537	0.05992
3558.40669	0.06001
3556.47801	0.06010
3554.54934	0.06015
3552.62066	0.06019
3550.69199	0.06026
3548.76331	0.06033
3546.83464	0.06039
3544.90596	0.06046
3542.97728	0.06056
3541.04861	0.06064
3539.11993	0.06070
3537.19126	0.06077
3535.26258	0.06085
3533.33391	0.06093
3531.40523	0.06098
3529.47655	0.06098
3527.54788	0.06097
3525.61920	0.06100
3523.69053	0.06105
3521.76185	0.06112
3519.83318	0.06118
3517.90450	0.06124
3515.97582	0.06130
3514.04715	0.06133
3512.11847	0.06135
3510.18980	0.06137
3508.26112	0.06141
3506.33245	0.06146
3504.40377	0.06147
3502.47509	0.06149
3500.54642	0.06155
3498.61774	0.06159
3496.68907	0.06163
3494.76039	0.06168
3492.83172	0.06174
3490.90304	0.06177
3488.97436	0.06177
3487.04569	0.06177
3485.11701	0.06180
3483.18834	0.06184
3481.25966	0.06189
3479.33099	0.06195
3477.40231	0.06204
3475.47363	0.06212
3473.54496	0.06222
3471.61628	0.06232
3469.68761	0.06243
3467.75893	0.06255
3465.83026	0.06266
3463.90158	0.06273
3461.97290	0.06280
3460.04423	0.06288
3458.11555	0.06298
3456.18688	0.06310
3454.25820	0.06320
3452.32953	0.06329
3450.40085	0.06339
3448.47217	0.06347
3446.54350	0.06353
3444.61482	0.06362
3442.68615	0.06376
3440.75747	0.06391
3438.82880	0.06405
3436.90012	0.06421
3434.97144	0.06440
3433.04277	0.06457
3431.11409	0.06474
3429.18542	0.06493
3427.25674	0.06516
3425.32807	0.06538
3423.39939	0.06554
3421.47071	0.06569
3419.54204	0.06587
3417.61336	0.06604
3415.68469	0.06622
3413.75601	0.06641
3411.82734	0.06659
3409.89866	0.06673
3407.96998	0.06683
3406.04131	0.06693
3404.11263	0.06705
3402.18396	0.06721
3400.25528	0.06737
3398.32661	0.06750
3396.39793	0.06764
3394.46925	0.06779
3392.54058	0.06794
3390.61190	0.06808
3388.68323	0.06822
3386.75455	0.06836
3384.82588	0.06849
3382.89720	0.06859
3380.96852	0.06869
3379.03985	0.06881
3377.11117	0.06895
3375.18250	0.06910
3373.25382	0.06924
3371.32515	0.06938
3369.39647	0.06953
3367.46779	0.06965
3365.53912	0.06974
3363.61044	0.06983
3361.68177	0.06995
3359.75309	0.07010
3357.82442	0.07022
3355.89574	0.07034
3353.96706	0.07047
3352.03839	0.07060
3350.10971	0.07072
3348.18104	0.07086
3346.25236	0.07099
3344.32369	0.07111
3342.39501	0.07120
3340.46633	0.07130
3338.53766	0.07141
3336.60898	0.07156
3334.68031	0.07173
3332.75163	0.07187
3330.82296	0.07199
3328.89428	0.07209
3326.96560	0.07218
3325.03693	0.07230
3323.10825	0.07244
3321.17958	0.07255
3319.25090	0.07267
3317.32223	0.07281
3315.39355	0.07295
3313.46487	0.07308
3311.53620	0.07321
3309.60752	0.07336
3307.67885	0.07351
3305.75017	0.07365
3303.82150	0.07378
3301.89282	0.07390
3299.96414	0.07401
3298.03547	0.07414
3296.10679	0.07429
3294.17812	0.07443
3292.24944	0.07455
3290.32077	0.07465
3288.39209	0.07477
3286.46341	0.07491
3284.53474	0.07505
3282.60606	0.07520
3280.67739	0.07535
3278.74871	0.07549
3276.82004	0.07562
3274.89136	0.07575
3272.96268	0.07589
3271.03401	0.07604
3269.10533	0.07619
3267.17666	0.07634
3265.24798	0.07649
3263.31931	0.07663
3261.39063	0.07677
3259.46195	0.07691
3257.53328	0.07703
3255.60460	0.07714
3253.67593	0.07727
3251.74725	0.07741
3249.81858	0.07756
3247.88990	0.07770
3245.96122	0.07785
3244.03255	0.07799
3242.10387	0.07814
3240.17520	0.07828
3238.24652	0.07840
3236.31785	0.07850
3234.38917	0.07862
3232.46049	0.07875
3230.53182	0.07889
3228.60314	0.07903
3226.67447	0.07916
3224.74579	0.07929
3222.81712	0.07943
3220.88844	0.07959
3218.95976	0.07976
3217.03109	0.07989
3215.10241	0.07999
3213.17374	0.08011
3211.24506	0.08024
3209.31639	0.08038
3207.38771	0.08054
3205.45903	0.08071
3203.53036	0.08089
3201.60168	0.08103
3199.67301	0.08116
3197.74433	0.08129
3195.81566	0.08144
3193.88698	0.08158
3191.95830	0.08171
3190.02963	0.08185
3188.10095	0.08198
3186.17228	0.08213
3184.24360	0.08229
3182.31493	0.08246
3180.38625	0.08260
3178.45757	0.08273
3176.52890	0.08288
3174.60022	0.08305
3172.67155	0.08321
3170.74287	0.08337
3168.81420	0.08351
3166.88552	0.08364
3164.95684	0.08375
3163.02817	0.08387
3161.09949	0.08401
3159.17082	0.08417
3157.24214	0.08432
3155.31347	0.08446
3153.38479	0.08456
3151.45611	0.08469
3149.52744	0.08484
3147.59876	0.08499
3145.67009	0.08516
3143.74141	0.08532
3141.81274	0.08546
3139.88406	0.08558
3137.95538	0.08572
3136.02671	0.08585
3134.09803	0.08598
3132.16936	0.08614
3130.24068	0.08631
3128.31201	0.08646
3126.38333	0.08658
3124.45465	0.08670
3122.52598	0.08683
3120.59730	0.08695
3118.66863	0.08709
3116.73995	0.08723
3114.81128	0.08739
3112.88260	0.08756
3110.95392	0.08773
3109.02525	0.08786
3107.09657	0.08798
3105.16790	0.08811
3103.23922	0.08824
3101.31055	0.08836
3099.38187	0.08848
3097.45319	0.08861
3095.52452	0.08875
3093.59584	0.08892
3091.66717	0.08910
3089.73849	0.08927
3087.80982	0.08941
3085.88114	0.08954
3083.95246	0.08967
3082.02379	0.08982
3080.09511	0.08996
3078.16644	0.09008
3076.23776	0.09020
3074.30909	0.09036
3072.38041	0.09052
3070.45173	0.09066
3068.52306	0.09080
3066.59438	0.09092
3064.66571	0.09105
3062.73703	0.09122
3060.80836	0.09139
3058.87968	0.09151
3056.95100	0.09161
3055.02233	0.09175
3053.09365	0.09191
3051.16498	0.09207
3049.23630	0.09224
3047.30763	0.09239
3045.37895	0.09250
3043.45027	0.09261
3041.52160	0.09277
3039.59292	0.09293
3037.66425	0.09308
3035.73557	0.09321
3033.80690	0.09332
3031.87822	0.09344
3029.94954	0.09358
3028.02087	0.09374
3026.09219	0.09389
3024.16352	0.09403
3022.23484	0.09417
3020.30617	0.09431
3018.37749	0.09444
3016.44881	0.09458
3014.52014	0.09472
3012.59146	0.09487
3010.66279	0.09500
3008.73411	0.09512
3006.80544	0.09524
3004.87676	0.09538
3002.94808	0.09554
3001.01941	0.09569
2999.09073	0.09584
2997.16206	0.09596
2995.23338	0.09608
2993.30471	0.09621
2991.37603	0.09637
2989.44735	0.09650
2987.51868	0.09662
2985.59000	0.09673
2983.66133	0.09682
2981.73265	0.09688
2979.80398	0.09692
2977.87530	0.09695
2975.94662	0.09700
2974.01795	0.09705
2972.08927	0.09706
2970.16060	0.09702
2968.23192	0.09697
2966.30325	0.09694
2964.37457	0.09698
2962.44589	0.09708
2960.51722	0.09723
2958.58854	0.09739
2956.65987	0.09756
2954.73119	0.09774
2952.80252	0.09793
2950.87384	0.09809
2948.94516	0.09824
2947.01649	0.09838
2945.08781	0.09850
2943.15914	0.09861
2941.23046	0.09867
2939.30179	0.09868
2937.37311	0.09863
2935.44443	0.09857
2933.51576	0.09851
2931.58708	0.09845
2929.65841	0.09840
2927.72973	0.09837
2925.80106	0.09833
2923.87238	0.09834
2921.94370	0.09842
2920.01503	0.09853
2918.08635	0.09869
2916.15768	0.09898
2914.22900	0.09942
2912.30033	0.09989
2910.37165	0.10031
2908.44297	0.10066
2906.51430	0.10096
2904.58562	0.10121
2902.65695	0.10144
2900.72827	0.10170
2898.79960	0.10193
2896.87092	0.10213
2894.94224	0.10232
2893.01357	0.10255
2891.08489	0.10278
2889.15622	0.10298
2887.22754	0.10314
2885.29887	0.10331
2883.37019	0.10349
2881.44151	0.10367
2879.51284	0.10382
2877.58416	0.10392
2875.65549	0.10404
2873.72681	0.10418
2871.79814	0.10430
2869.86946	0.10442
2867.94078	0.10456
2866.01211	0.10466
2864.08343	0.10475
2862.15476	0.10481
2860.22608	0.10484
2858.29741	0.10482
2856.36873	0.10480
2854.44005	0.10477
2852.51138	0.10478
2850.58270	0.10489
2848.65403	0.10518
2846.72535	0.10564
2844.79668	0.10610
2842.86800	0.10648
2840.93932	0.10683
2839.01065	0.10717
2837.08197	0.10745
2835.15330	0.10764
2833.22462	0.10780
2831.29595	0.10799
2829.36727	0.10818
2827.43859	0.10836
2825.50992	0.10855
2823.58124	0.10875
2821.65257	0.10891
2819.72389	0.10905
2817.79522	0.10920
2815.86654	0.10935
2813.93786	0.10949
2812.00919	0.10963
2810.08051	0.10978
2808.15184	0.10996
2806.22316	0.11014
2804.29449	0.11033
2802.36581	0.11050
2800.43713	0.11065
2798.50846	0.11080
2796.57978	0.11097
2794.65111	0.11113
2792.72243	0.11126
2790.79376	0.11141
2788.86508	0.11157
2786.93640	0.11171
2785.00773	0.11186
2783.07905	0.11201
2781.15038	0.11217
2779.22170	0.11232
2777.29303	0.11247
2775.36435	0.11263
2773.43567	0.11279
2771.50700	0.11296
2769.57832	0.11314
2767.64965	0.11330
2765.72097	0.11345
2763.79230	0.11360
2761.86362	0.11374
2759.93494	0.11390
2758.00627	0.11407
2756.07759	0.11425
2754.14892	0.11444
2752.22024	0.11459
2750.29157	0.11471
2748.36289	0.11484
2746.43421	0.11500
2744.50554	0.11515
2742.57686	0.11528
2740.64819	0.11540
2738.71951	0.11553
2736.79084	0.11569
2734.86216	0.11584
2732.93348	0.11597
2731.00481	0.11611
2729.07613	0.11626
2727.14746	0.11642
2725.21878	0.11658
2723.29011	0.11673
2721.36143	0.11686
2719.43275	0.11699
2717.50408	0.11714
2715.57540	0.11732
2713.64673	0.11748
2711.71805	0.11761
2709.78938	0.11775
2707.86070	0.11790
2705.93202	0.11805
2704.00335	0.11821
2702.07467	0.11838
2700.14600	0.11853
2698.21732	0.11866
2696.28865	0.11877
2694.35997	0.11892
2692.43129	0.11911
2690.50262	0.11927
2688.57394	0.11940
2686.64527	0.11955
2684.71659	0.11969
2682.78792	0.11980
2680.85924	0.11990
2678.93056	0.12002
2677.00189	0.12018
2675.07321	0.12036
2673.14454	0.12051
2671.21586	0.12064
2669.28719	0.12076
2667.35851	0.12089
2665.42983	0.12105
2663.50116	0.12123
2661.57248	0.12137
2659.64381	0.12149
2657.71513	0.12164
2655.78646	0.12183
2653.85778	0.12201
2651.92910	0.12217
2650.00043	0.12233
2648.07175	0.12250
2646.14308	0.12268
2644.21440	0.12285
2642.28573	0.12298
2640.35705	0.12309
2638.42837	0.12323
2636.49970	0.12339
2634.57102	0.12355
2632.64235	0.12374
2630.71367	0.12393
2628.78500	0.12409
2626.85632	0.12422
2624.92764	0.12436
2622.99897	0.12452
2621.07029	0.12471
2619.14162	0.12489
2617.21294	0.12503
2615.28427	0.12515
2613.35559	0.12529
2611.42691	0.12547
2609.49824	0.12566
2607.56956	0.12582
2605.64089	0.12596
2603.71221	0.12611
2601.78354	0.12626
2599.85486	0.12641
2597.92618	0.12655
2595.99751	0.12670
2594.06883	0.12689
2592.14016	0.12710
2590.21148	0.12726
2588.28281	0.12737
2586.35413	0.12750
2584.42545	0.12767
2582.49678	0.12784
2580.56810	0.12797
2578.63943	0.12809
2576.71075	0.12823
2574.78208	0.12840
2572.85340	0.12857
2570.92472	0.12875
2568.99605	0.12893
2567.06737	0.12907
2565.13870	0.12920
2563.21002	0.12934
2561.28135	0.12950
2559.35267	0.12966
2557.42399	0.12982
2555.49532	0.12997
2553.56664	0.13010
2551.63797	0.13024
2549.70929	0.13042
2547.78062	0.13063
2545.85194	0.13082
2543.92326	0.13098
2541.99459	0.13111
2540.06591	0.13123
2538.13724	0.13133
2536.20856	0.13147
2534.27989	0.13165
2532.35121	0.13185
2530.42253	0.13201
2528.49386	0.13213
2526.56518	0.13223
2524.63651	0.13238
2522.70783	0.13253
2520.77916	0.13266
2518.85048	0.13284
2516.92181	0.13305
2514.99313	0.13321
2513.06445	0.13335
2511.13578	0.13354
2509.20710	0.13378
2507.27843	0.13399
2505.34975	0.13412
2503.42108	0.13424
2501.49240	0.13439
2499.56372	0.13456
2497.63505	0.13469
2495.70637	0.13482
2493.77770	0.13500
2491.84902	0.13523
2489.92035	0.13546
2487.99167	0.13562
2486.06299	0.13576
2484.13432	0.13592
2482.20564	0.13611
2480.27697	0.13628
2478.34829	0.13642
2476.41962	0.13657
2474.49094	0.13674
2472.56226	0.13690
2470.63359	0.13708
2468.70491	0.13729
2466.77624	0.13748
2464.84756	0.13763
2462.91889	0.13774
2460.99021	0.13786
2459.06153	0.13802
2457.13286	0.13819
2455.20418	0.13833
2453.27551	0.13849
2451.34683	0.13869
2449.41816	0.13889
2447.48948	0.13907
2445.56080	0.13924
2443.63213	0.13942
2441.70345	0.13959
2439.77478	0.13974
2437.84610	0.13987
2435.91743	0.14003
2433.98875	0.14019
2432.06007	0.14036
2430.13140	0.14053
2428.20272	0.14070
2426.27405	0.14087
2424.34537	0.14104
2422.41670	0.14119
2420.48802	0.14133
2418.55934	0.14151
2416.63067	0.14171
2414.70199	0.14188
2412.77332	0.14203
2410.84464	0.14216
2408.91597	0.14228
2406.98729	0.14243
2405.05861	0.14261
2403.12994	0.14278
2401.20126	0.14290
2399.27259	0.14305
2397.34391	0.14325
2395.41524	0.14345
2393.48656	0.14362
2391.55788	0.14379
2389.62921	0.14395
2387.70053	0.14407
2385.77186	0.14417
2383.84318	0.14429
2381.91451	0.14441
2379.98583	0.14452
2378.05715	0.14460
2376.12848	0.14466
2374.19980	0.14471
2372.27113	0.14476
2370.34245	0.14482
2368.41378	0.14488
2366.48510	0.14492
2364.55642	0.14495
2362.62775	0.14504
2360.69907	0.14520
2358.77040	0.14541
2356.84172	0.14567
2354.91305	0.14596
2352.98437	0.14629
2351.05569	0.14664
2349.12702	0.14691
2347.19834	0.14703
2345.26967	0.14705
2343.34099	0.14707
2341.41232	0.14713
2339.48364	0.14724
2337.55496	0.14738
2335.62629	0.14755
2333.69761	0.14773
2331.76894	0.14789
2329.84026	0.14804
2327.91159	0.14824
2325.98291	0.14848
2324.05423	0.14873
2322.12556	0.14895
2320.19688	0.14916
2318.26821	0.14935
2316.33953	0.14956
2314.41086	0.14980
2312.48218	0.15006
2310.55350	0.15029
2308.62483	0.15051
2306.69615	0.15070
2304.76748	0.15089
2302.83880	0.15106
2300.91013	0.15121
2298.98145	0.15136
2297.05277	0.15152
2295.12410	0.15168
2293.19542	0.15185
2291.26675	0.15205
2289.33807	0.15224
2287.40940	0.15242
2285.48072	0.15257
2283.55204	0.15273
2281.62337	0.15291
2279.69469	0.15308
2277.76602	0.15322
2275.83734	0.15337
2273.90867	0.15356
2271.97999	0.15375
2270.05131	0.15388
2268.12264	0.15400
2266.19396	0.15417
2264.26529	0.15436
2262.33661	0.15453
2260.40794	0.15471
2258.47926	0.15490
2256.55058	0.15502
2254.62191	0.15513
2252.69323	0.15528
2250.76456	0.15550
2248.83588	0.15573
2246.90721	0.15589
2244.97853	0.15600
2243.04985	0.15614
2241.12118	0.15630
2239.19250	0.15648
2237.26383	0.15667
2235.33515	0.15684
2233.40648	0.15698
2231.47780	0.15712
2229.54912	0.15728
2227.62045	0.15745
2225.69177	0.15760
2223.76310	0.15773
2221.83442	0.15786
2219.90575	0.15802
2217.97707	0.15823
2216.04839	0.15845
2214.11972	0.15862
2212.19104	0.15874
2210.26237	0.15885
2208.33369	0.15899
2206.40502	0.15914
2204.47634	0.15930
2202.54766	0.15948
2200.61899	0.15966
2198.69031	0.15981
2196.76164	0.15995
2194.83296	0.16010
2192.90429	0.16027
2190.97561	0.16043
2189.04693	0.16060
2187.11826	0.16077
2185.18958	0.16096
2183.26091	0.16113
2181.33223	0.16128
2179.40356	0.16143
2177.47488	0.16160
2175.54620	0.16177
2173.61753	0.16194
2171.68885	0.16210
2169.76018	0.16225
2167.83150	0.16240
2165.90283	0.16260
2163.97415	0.16281
2162.04547	0.16298
2160.11680	0.16312
2158.18812	0.16326
2156.25945	0.16343
2154.33077	0.16364
2152.40210	0.16384
2150.47342	0.16400
2148.54474	0.16413
2146.61607	0.16427
2144.68739	0.16444
2142.75872	0.16462
2140.83004	0.16478
2138.90137	0.16491
2136.97269	0.16504
2135.04401	0.16519
2133.11534	0.16536
2131.18666	0.16553
2129.25799	0.16572
2127.32931	0.16592
2125.40064	0.16611
2123.47196	0.16627
2121.54328	0.16642
2119.61461	0.16658
2117.68593	0.16673
2115.75726	0.16686
2113.82858	0.16700
2111.89991	0.16718
2109.97123	0.16736
2108.04255	0.16751
2106.11388	0.16767
2104.18520	0.16783
2102.25653	0.16802
2100.32785	0.16824
2098.39918	0.16844
2096.47050	0.16861
2094.54182	0.16875
2092.61315	0.16888
2090.68447	0.16902
2088.75580	0.16919
2086.82712	0.16938
2084.89845	0.16954
2082.96977	0.16967
2081.04109	0.16982
2079.11242	0.17000
2077.18374	0.17019
2075.25507	0.17039
2073.32639	0.17056
2071.39772	0.17068
2069.46904	0.17079
2067.54036	0.17093
2065.61169	0.17110
2063.68301	0.17129
2061.75434	0.17148
2059.82566	0.17167
2057.89699	0.17185
2055.96831	0.17201
2054.03963	0.17219
2052.11096	0.17235
2050.18228	0.17250
2048.25361	0.17265
2046.32493	0.17280
2044.39626	0.17294
2042.46758	0.17310
2040.53890	0.17330
2038.61023	0.17347
2036.68155	0.17362
2034.75288	0.17375
2032.82420	0.17389
2030.89553	0.17406
2028.96685	0.17424
2027.03817	0.17443
2025.10950	0.17463
2023.18082	0.17482
2021.25215	0.17501
2019.32347	0.17518
2017.39480	0.17535
2015.46612	0.17554
2013.53744	0.17572
2011.60877	0.17587
2009.68009	0.17603
2007.75142	0.17617
2005.82274	0.17630
2003.89407	0.17646
2001.96539	0.17665
2000.03671	0.17684
1998.10804	0.17700
1996.17936	0.17714
1994.25069	0.17725
1992.32201	0.17734
1990.39334	0.17748
1988.46466	0.17764
1986.53598	0.17781
1984.60731	0.17798
1982.67863	0.17811
1980.74996	0.17823
1978.82128	0.17837
1976.89261	0.17852
1974.96393	0.17867
1973.03525	0.17882
1971.10658	0.17896
1969.17790	0.17907
1967.24923	0.17919
1965.32055	0.17936
1963.39188	0.17957
1961.46320	0.17976
1959.53452	0.17988
1957.60585	0.18000
1955.67717	0.18016
1953.74850	0.18035
1951.81982	0.18054
1949.89115	0.18072
1947.96247	0.18086
1946.03379	0.18092
1944.10512	0.18097
1942.17644	0.18112
1940.24777	0.18140
1938.31909	0.18166
1936.39042	0.18183
1934.46174	0.18196
1932.53306	0.18210
1930.60439	0.18225
1928.67571	0.18239
1926.74704	0.18254
1924.81836	0.18272
1922.88969	0.18289
1920.96101	0.18301
1919.03233	0.18312
1917.10366	0.18330
1915.17498	0.18357
1913.24631	0.18380
1911.31763	0.18393
1909.38896	0.18405
1907.46028	0.18423
1905.53160	0.18442
1903.60293	0.18459
1901.67425	0.18476
1899.74558	0.18489
1897.81690	0.18500
1895.88823	0.18512
1893.95955	0.18526
1892.03087	0.18531
1890.10220	0.18531
1888.17352	0.18546
1886.24485	0.18573
1884.31617	0.18599
1882.38750	0.18617
1880.45882	0.18631
1878.53014	0.18644
1876.60147	0.18659
1874.67279	0.18678
1872.74412	0.18695
1870.81544	0.18700
1868.88677	0.18702
1866.95809	0.18721
1865.02941	0.18754
1863.10074	0.18781
1861.17206	0.18800
1859.24339	0.18818
1857.31471	0.18835
1855.38604	0.18851
1853.45736	0.18867
1851.52868	0.18880
1849.60001	0.18885
1847.67133	0.18875
1845.74266	0.18850
1843.81398	0.18859
1841.88531	0.18922
1839.95663	0.18977
1838.02795	0.18995
1836.09928	0.19003
1834.17060	0.19017
1832.24193	0.19024
1830.31325	0.19023
1828.38458	0.19028
1826.45590	0.19038
1824.52722	0.19060
1822.59855	0.19102
1820.66987	0.19135
1818.74120	0.19150
1816.81252	0.19168
1814.88385	0.19187
1812.95517	0.19196
1811.02649	0.19205
1809.09782	0.19223
1807.16914	0.19241
1805.24047	0.19246
1803.31179	0.19240
1801.38312	0.19241
1799.45444	0.19263
1797.52576	0.19291
1795.59709	0.19302
1793.66841	0.19294
1791.73974	0.19290
1789.81106	0.19314
1787.88239	0.19349
1785.95371	0.19368
1784.02503	0.19377
1782.09636	0.19388
1780.16768	0.19396
1778.23901	0.19405
1776.31033	0.19408
1774.38166	0.19397
1772.45298	0.19383
1770.52430	0.19379
1768.59563	0.19395
1766.66695	0.19439
1764.73828	0.19487
1762.80960	0.19506
1760.88093	0.19508
1758.95225	0.19500
1757.02357	0.19496
1755.09490	0.19507
1753.16622	0.19504
1751.23755	0.19476
1749.30887	0.19464
1747.38020	0.19484
1745.45152	0.19509
1743.52284	0.19518
1741.59417	0.19517
1739.66549	0.19519
1737.73682	0.19511
1735.80814	0.19466
1733.87947	0.19429
1731.95079	0.19458
1730.02211	0.19520
1728.09344	0.19572
1726.16476	0.19605
1724.23609	0.19622
1722.30741	0.19623
1720.37874	0.19589
1718.45006	0.19545
1716.52138	0.19555
1714.59271	0.19613
1712.66403	0.19673
1710.73536	0.19705
1708.80668	0.19705
1706.87801	0.19692
1704.94933	0.19695
1703.02065	0.19694
1701.09198	0.19671
1699.16330	0.19654
1697.23463	0.19645
1695.30595	0.19661
1693.37728	0.19726
1691.44860	0.19774
1689.51992	0.19774
1687.59125	0.19747
1685.66257	0.19694
1683.73390	0.19666
1681.80522	0.19698
1679.87655	0.19748
1677.94787	0.19770
1676.01919	0.19772
1674.09052	0.19775
1672.16184	0.19770
1670.23317	0.19757
1668.30449	0.19781
1666.37582	0.19835
1664.44714	0.19860
1662.51846	0.19859
1660.58979	0.19866
1658.66111	0.19869
1656.73244	0.19821
1654.80376	0.19720
1652.87509	0.19684
1650.94641	0.19761
1649.01773	0.19819
1647.08906	0.19809
1645.16038	0.19825
1643.23171	0.19879
1641.30303	0.19911
1639.37436	0.19901
1637.44568	0.19869
1635.51700	0.19864
1633.58833	0.19906
1631.65965	0.19949
1629.73098	0.19955
1627.80230	0.19940
1625.87363	0.19910
1623.94495	0.19868
1622.01627	0.19846
1620.08760	0.19853
1618.15892	0.19879
1616.23025	0.19934
1614.30157	0.20005
1612.37290	0.20060
1610.44422	0.20090
1608.51554	0.20111
1606.58687	0.20133
1604.65819	0.20154
1602.72952	0.20175
1600.80084	0.20200
1598.87217	0.20224
1596.94349	0.20242
1595.01481	0.20258
1593.08614	0.20275
1591.15746	0.20289
1589.22879	0.20302
1587.30011	0.20317
1585.37144	0.20334
1583.44276	0.20350
1581.51408	0.20360
1579.58541	0.20356
1577.65673	0.20341
1575.72806	0.20349
1573.79938	0.20381
1571.87071	0.20381
1569.94203	0.20361
1568.01335	0.20382
1566.08468	0.20425
1564.15600	0.20455
1562.22733	0.20444
1560.29865	0.20373
1558.36998	0.20316
1556.44130	0.20350
1554.51262	0.20429
1552.58395	0.20485
1550.65527	0.20515
1548.72660	0.20542
1546.79792	0.20556
1544.86925	0.20527
1542.94057	0.20472
1541.01189	0.20433
1539.08322	0.20458
1537.15454	0.20536
1535.22587	0.20589
1533.29719	0.20605
1531.36852	0.20623
1529.43984	0.20632
1527.51116	0.20625
1525.58249	0.20624
1523.65381	0.20610
1521.72514	0.20586
1519.79646	0.20592
1517.86779	0.20621
1515.93911	0.20643
1514.01043	0.20649
1512.08176	0.20642
1510.15308	0.20621
1508.22441	0.20605
1506.29573	0.20635
1504.36706	0.20706
1502.43838	0.20752
1500.50970	0.20743
1498.58103	0.20710
1496.65235	0.20693
1494.72368	0.20710
1492.79500	0.20717
1490.86633	0.20686
1488.93765	0.20664
1487.00897	0.20683
1485.08030	0.20705
1483.15162	0.20702
1481.22295	0.20685
1479.29427	0.20659
1477.36560	0.20610
1475.43692	0.20543
1473.50824	0.20497
1471.57957	0.20494
1469.65089	0.20505
1467.72222	0.20491
1465.79354	0.20458
1463.86487	0.20434
1461.93619	0.20407
1460.00751	0.20346
1458.07884	0.20281
1456.15016	0.20276
1454.22149	0.20318
1452.29281	0.20351
1450.36414	0.20352
1448.43546	0.20345
1446.50678	0.20360
1444.57811	0.20387
1442.64943	0.20410
1440.72076	0.20415
1438.79208	0.20394
1436.86341	0.20377
1434.93473	0.20404
1433.00605	0.20448
1431.07738	0.20474
1429.14870	0.20492
1427.22003	0.20502
1425.29135	0.20493
1423.36268	0.20484
1421.43400	0.20472
1419.50532	0.20454
1417.57665	0.20462
1415.64797	0.20500
1413.71930	0.20529
1411.79062	0.20537
1409.86195	0.20536
1407.93327	0.20523
1406.00459	0.20501
1404.07592	0.20498
1402.14724	0.20510
1400.21857	0.20507
1398.28989	0.20490
1396.36122	0.20477
1394.43254	0.20478
1392.50386	0.20492
1390.57519	0.20491
1388.64651	0.20456
1386.71784	0.20415
1384.78916	0.20397
1382.86049	0.20395
1380.93181	0.20396
1379.00313	0.20395
1377.07446	0.20384
1375.14578	0.20375
1373.21711	0.20384
1371.28843	0.20405
1369.35976	0.20417
1367.43108	0.20413
1365.50240	0.20385
1363.57373	0.20354
1361.64505	0.20362
1359.71638	0.20397
1357.78770	0.20413
1355.85903	0.20413
1353.93035	0.20415
1352.00167	0.20424
1350.07300	0.20433
1348.14432	0.20444
1346.21565	0.20459
1344.28697	0.20466
1342.35830	0.20449
1340.42962	0.20423
1338.50094	0.20413
1336.57227	0.20422
1334.64359	0.20431
1332.71492	0.20428
1330.78624	0.20414
1328.85757	0.20398
1326.92889	0.20381
1325.00021	0.20365
1323.07154	0.20347
1321.14286	0.20325
1319.21419	0.20304
1317.28551	0.20288
1315.35684	0.20274
1313.42816	0.20260
1311.49948	0.20247
1309.57081	0.20227
1307.64213	0.20199
1305.71346	0.20170
1303.78478	0.20146
1301.85611	0.20122
1299.92743	0.20100
1297.99875	0.20082
1296.07008	0.20065
1294.14140	0.20047
1292.21273	0.20029
1290.28405	0.20008
1288.35538	0.19982
1286.42670	0.19959
1284.49802	0.19942
1282.56935	0.19925
1280.64067	0.19905
1278.71200	0.19878
1276.78332	0.19840
1274.85465	0.19797
1272.92597	0.19747
1270.99729	0.19681
1269.06862	0.19596
1267.13994	0.19502
1265.21127	0.19414
1263.28259	0.19353
1261.35392	0.19331
1259.42524	0.19337
1257.49656	0.19355
1255.56789	0.19375
1253.63921	0.19384
1251.71054	0.19373
1249.78186	0.19345
1247.85319	0.19315
1245.92451	0.19283
1243.99583	0.19242
1242.06716	0.19196
1240.13848	0.19149
1238.20981	0.19100
1236.28113	0.19046
1234.35246	0.18992
1232.42378	0.18939
1230.49510	0.18884
1228.56643	0.18824
1226.63775	0.18766
1224.70908	0.18715
1222.78040	0.18672
1220.85173	0.18630
1218.92305	0.18581
1216.99437	0.18527
1215.06570	0.18468
1213.13702	0.18409
1211.20835	0.18352
1209.27967	0.18295
1207.35100	0.18238
1205.42232	0.18182
1203.49364	0.18125
1201.56497	0.18070
1199.63629	0.18015
1197.70762	0.17956
1195.77894	0.17893
1193.85027	0.17829
1191.92159	0.17765
1189.99291	0.17698
1188.06424	0.17626
1186.13556	0.17547
1184.20689	0.17464
1182.27821	0.17381
1180.34954	0.17294
1178.42086	0.17205
1176.49218	0.17118
1174.56351	0.17031
1172.63483	0.16946
1170.70616	0.16865
1168.77748	0.16782
1166.84881	0.16694
1164.92013	0.16606
1162.99145	0.16519
1161.06278	0.16433
1159.13410	0.16350
1157.20543	0.16271
1155.27675	0.16196
1153.34808	0.16124
1151.41940	0.16052
1149.49072	0.15979
1147.56205	0.15894
1145.63337	0.15796
1143.70470	0.15701
1141.77602	0.15612
1139.84735	0.15517
1137.91867	0.15405
1135.98999	0.15281
1134.06132	0.15145
1132.13264	0.14989
1130.20397	0.14807
1128.27529	0.14597
1126.34662	0.14369
1124.41794	0.14134
1122.48926	0.13897
1120.56059	0.13663
1118.63191	0.13441
1116.70324	0.13234
1114.77456	0.13049
1112.84589	0.12888
1110.91721	0.12753
1108.98853	0.12642
1107.05986	0.12564
1105.13118	0.12523
1103.20251	0.12510
1101.27383	0.12517
1099.34516	0.12550
1097.41648	0.12609
1095.48780	0.12687
1093.55913	0.12776
1091.63045	0.12867
1089.70178	0.12950
1087.77310	0.13024
1085.84443	0.13091
1083.91575	0.13148
1081.98707	0.13183
1080.05840	0.13205
1078.12972	0.13225
1076.20105	0.13245
1074.27237	0.13261
1072.34370	0.13274
1070.41502	0.13283
1068.48634	0.13291
1066.55767	0.13303
1064.62899	0.13319
1062.70032	0.13340
1060.77164	0.13368
1058.84297	0.13396
1056.91429	0.13419
1054.98561	0.13440
1053.05694	0.13464
1051.12826	0.13494
1049.19959	0.13528
1047.27091	0.13566
1045.34224	0.13606
1043.41356	0.13648
1041.48488	0.13691
1039.55621	0.13734
1037.62753	0.13778
1035.69886	0.13819
1033.77018	0.13852
1031.84151	0.13880
1029.91283	0.13907
1027.98415	0.13939
1026.05548	0.13978
1024.12680	0.14024
1022.19813	0.14069
1020.26945	0.14106
1018.34078	0.14140
1016.41210	0.14179
1014.48342	0.14226
1012.55475	0.14281
1010.62607	0.14338
1008.69740	0.14392
1006.76872	0.14449
1004.84005	0.14511
1002.91137	0.14563
1000.98269	0.14594
999.05402	0.14617
997.12534	0.14641
995.19667	0.14659
993.26799	0.14668
991.33932	0.14672
989.41064	0.14679
987.48196	0.14688
985.55329	0.14694
983.62461	0.14696
981.69594	0.14691
979.76726	0.14677
977.83859	0.14662
975.90991	0.14650
973.98123	0.14637
972.05256	0.14621
970.12388	0.14600
968.19521	0.14575
966.26653	0.14550
964.33786	0.14529
962.40918	0.14514
960.48050	0.14503
958.55183	0.14491
956.62315	0.14478
954.69448	0.14459
952.76580	0.14436
950.83713	0.14416
948.90845	0.14396
946.97977	0.14373
945.05110	0.14349
943.12242	0.14322
941.19375	0.14289
939.26507	0.14251
937.33640	0.14209
935.40772	0.14164
933.47904	0.14117
931.55037	0.14071
929.62169	0.14022
927.69302	0.13965
925.76434	0.13913
923.83567	0.13869
921.90699	0.13819
919.97831	0.13755
918.04964	0.13680
916.12096	0.13597
914.19229	0.13514
912.26361	0.13438
910.33494	0.13373
908.40626	0.13315
906.47758	0.13253
904.54891	0.13185
902.62023	0.13123
900.69156	0.13064
898.76288	0.13000
896.83421	0.12939
894.90553	0.12888
892.97685	0.12838
891.04818	0.12787
889.11950	0.12746
887.19083	0.12710
885.26215	0.12671
883.33348	0.12634
881.40480	0.12600
879.47612	0.12567
877.54745	0.12536
875.61877	0.12511
873.69010	0.12492
871.76142	0.12472
869.83275	0.12442
867.90407	0.12405
865.97539	0.12379
864.04672	0.12369
862.11804	0.12361
860.18937	0.12352
858.26069	0.12343
856.33202	0.12334
854.40334	0.12318
852.47466	0.12295
850.54599	0.12266
848.61731	0.12236
846.68864	0.12211
844.75996	0.12189
842.83129	0.12165
840.90261	0.12134
838.97394	0.12096
837.04526	0.12050
835.11658	0.11992
833.18791	0.11920
831.25923	0.11835
829.33056	0.11731
827.40188	0.11614
825.47321	0.11499
823.54453	0.11400
821.61585	0.11322
819.68718	0.11260
817.75850	0.11206
815.82983	0.11158
813.90115	0.11121
811.97248	0.11094
810.04380	0.11074
808.11512	0.11058
806.18645	0.11043
804.25777	0.11033
802.32910	0.11028
800.40042	0.11010
798.47175	0.10964
796.54307	0.10900
794.61439	0.10845
792.68572	0.10806
790.75704	0.10775
788.82837	0.10746
786.89969	0.10717
784.97102	0.10691
783.04234	0.10665
781.11366	0.10636
779.18499	0.10604
777.25631	0.10571
775.32764	0.10542
773.39896	0.10513
771.47029	0.10478
769.54161	0.10443
767.61293	0.10413
765.68426	0.10375
763.75558	0.10324
761.82691	0.10275
759.89823	0.10232
757.96956	0.10182
756.04088	0.10124
754.11220	0.10062
752.18353	0.09993
750.25485	0.09920
748.32618	0.09843
746.39750	0.09761
744.46883	0.09674
742.54015	0.09587
740.61147	0.09504
738.68280	0.09447
736.75412	0.09428
734.82545	0.09421
732.89677	0.09415
730.96810	0.09421
729.03942	0.09439
727.11074	0.09458
725.18207	0.09470
723.25339	0.09476
721.32472	0.09481
719.39604	0.09494
717.46737	0.09522
715.53869	0.09567
713.61001	0.09616
711.68134	0.09653
709.75266	0.09679
707.82399	0.09688
705.89531	0.09675
703.96664	0.09647
702.03796	0.09622
700.10928	0.09595
698.18061	0.09552
696.25193	0.09498
694.32326	0.09443
692.39458	0.09389
690.46591	0.09335
688.53723	0.09278
686.60855	0.09219
684.67988	0.09167
682.75120	0.09129
680.82253	0.09083
678.89385	0.09018
676.96518	0.08947
675.03650	0.08881
673.10782	0.08813
671.17915	0.08732
669.25047	0.08641
667.32180	0.08554
665.39312	0.08477
663.46445	0.08402
661.53577	0.08323
659.60709	0.08245
657.67842	0.08166
655.74974	0.08086
653.82107	0.08008
651.89239	0.07925
649.96372	0.07834
648.03504	0.07741
646.10636	0.07649
644.17769	0.07560
642.24901	0.07472
640.32034	0.07371
638.39166	0.07259
636.46299	0.07147
634.53431	0.07039
632.60563	0.06897
630.67696	0.06662
628.74828	0.06307
626.81961	0.05853
624.89093	0.05393
622.96226	0.05039
621.03358	0.04830
619.10490	0.04718
617.17623	0.04637
615.24755	0.04551
613.31888	0.04448
611.39020	0.04331
609.46153	0.04255
607.53285	0.04253
605.60417	0.04289
603.67550	0.04343
601.74682	0.04430
599.81815	0.04537
597.88947	0.04635
595.96080	0.04703
594.03212	0.04748
592.10344	0.04778
590.17477	0.04788
588.24609	0.04783
586.31742	0.04768
584.38874	0.04740
582.46007	0.04708
580.53139	0.04673
578.60271	0.04626
576.67404	0.04570
574.74536	0.04516
572.81669	0.04465
570.88801	0.04407
568.95934	0.04338
567.03066	0.04276
565.10198	0.04237
563.17331	0.04216
561.24463	0.04194
559.31596	0.04164
557.38728	0.04128
555.45861	0.04097
553.52993	0.04078
551.60125	0.04064
549.67258	0.04050
547.74390	0.04035
545.81523	0.04026
543.88655	0.04020
541.95788	0.04006
540.02920	0.03988
538.10052	0.03978
536.17185	0.03968
534.24317	0.03948
532.31450	0.03920
530.38582	0.03892
528.45715	0.03864
526.52847	0.03828
524.59979	0.03782
522.67112	0.03739
520.74244	0.03691
518.81377	0.03628
516.88509	0.03567
514.95642	0.03523
513.02774	0.03492
511.09906	0.03474
509.17039	0.03462
507.24171	0.03440
505.31304	0.03401
503.38436	0.03355
501.45569	0.03315
499.52701	0.03278
497.59833	0.03232
495.66966	0.03177
493.74098	0.03114
491.81231	0.03048
489.88363	0.02989
487.95496	0.02942
486.02628	0.02904
484.09760	0.02857
482.16893	0.02788
480.24025	0.02716
478.31158	0.02654
476.38290	0.02590
474.45423	0.02524
472.52555	0.02474
470.59687	0.02443
468.66820	0.02418
466.73952	0.02386
464.81085	0.02342
462.88217	0.02302
460.95350	0.02285
459.02482	0.02286
457.09614	0.02293
455.16747	0.02298
453.23879	0.02288
451.31012	0.02267
449.38144	0.02255
447.45277	0.02263
445.52409	0.02266
443.59541	0.02238
441.66674	0.02194
439.73806	0.02151
437.80939	0.02116
435.88071	0.02082
433.95204	0.02032
432.02336	0.01968
430.09468	0.01905
428.16601	0.01840
426.23733	0.01772
424.30866	0.01706
422.37998	0.01640
420.45131	0.01568
418.52263	0.01495
416.59395	0.01430
414.66528	0.01379
412.73660	0.01331
410.80793	0.01272
408.87925	0.01203
406.95058	0.01139
405.02190	0.01087
403.09322	0.01038
401.16455	0.00976
399.23587	0.00909
397.30720	0.00854
395.37852	0.00795
393.44985	0.00726
391.52117	0.00675
389.59249	0.00648
387.66382	0.00611
385.73514	0.00560
383.80647	0.00513
381.87779	0.00470
379.94912	0.00432
378.02044	0.00403
376.09176	0.00374
374.16309	0.00339
372.23441	0.00303
370.30574	0.00269
368.37706	0.00231
