7496.76250	0.00228
7494.83382	0.00229
7492.90514	0.00230
7490.97647	0.00231
7489.04779	0.00231
7487.11912	0.00230
7485.19044	0.00230
7483.26177	0.00231
7481.33309	0.00232
7479.40441	0.00234
7477.47574	0.00235
7475.54706	0.00236
7473.61839	0.00236
7471.68971	0.00235
7469.76104	0.00234
7467.83236	0.00234
7465.90368	0.00236
7463.97501	0.00237
7462.04633	0.00238
7460.11766	0.00238
7458.18898	0.00238
7456.26031	0.00238
7454.33163	0.00239
7452.40295	0.00241
7450.47428	0.00242
7448.54560	0.00241
7446.61693	0.00242
7444.68825	0.00244
7442.75958	0.00246
7440.83090	0.00246
7438.90222	0.00247
7436.97355	0.00247
7435.04487	0.00247
7433.11620	0.00247
7431.18752	0.00247
7429.25885	0.00248
7427.33017	0.00250
7425.40149	0.00253
7423.47282	0.00252
7421.54414	0.00250
7419.61547	0.00251
7417.68679	0.00254
7415.75812	0.00256
7413.82944	0.00255
7411.90076	0.00254
7409.97209	0.00254
7408.04341	0.00255
7406.11474	0.00257
7404.18606	0.00259
7402.25739	0.00260
7400.32871	0.00260
7398.40003	0.00260
7396.47136	0.00259
7394.54268	0.00259
7392.61401	0.00260
7390.68533	0.00262
7388.75666	0.00264
7386.82798	0.00264
7384.89930	0.00265
7382.97063	0.00266
7381.04195	0.00266
7379.11328	0.00267
7377.18460	0.00268
7375.25593	0.00268
7373.32725	0.00267
7371.39857	0.00267
7369.46990	0.00268
7367.54122	0.00270
7365.61255	0.00272
7363.68387	0.00272
7361.75520	0.00272
7359.82652	0.00272
7357.89784	0.00273
7355.96917	0.00274
7354.04049	0.00275
7352.11182	0.00275
7350.18314	0.00275
7348.25447	0.00275
7346.32579	0.00275
7344.39711	0.00276
7342.46844	0.00279
7340.53976	0.00281
7338.61109	0.00282
7336.68241	0.00282
7334.75374	0.00281
7332.82506	0.00281
7330.89638	0.00283
7328.96771	0.00284
7327.03903	0.00284
7325.11036	0.00285
7323.18168	0.00287
7321.25301	0.00288
7319.32433	0.00287
7317.39565	0.00287
7315.46698	0.00289
7313.53830	0.00291
7311.60963	0.00292
7309.68095	0.00292
7307.75228	0.00292
7305.82360	0.00292
7303.89492	0.00293
7301.96625	0.00294
7300.03757	0.00294
7298.10890	0.00296
7296.18022	0.00296
7294.25155	0.00296
7292.32287	0.00297
7290.39419	0.00298
7288.46552	0.00299
7286.53684	0.00299
7284.60817	0.00300
7282.67949	0.00301
7280.75082	0.00302
7278.82214	0.00303
7276.89346	0.00304
7274.96479	0.00304
7273.03611	0.00303
7271.10744	0.00303
7269.17876	0.00304
7267.25009	0.00305
7265.32141	0.00306
7263.39273	0.00307
7261.46406	0.00308
7259.53538	0.00309
7257.60671	0.00311
7255.67803	0.00311
7253.74936	0.00312
7251.82068	0.00313
7249.89200	0.00313
7247.96333	0.00312
7246.03465	0.00311
7244.10598	0.00312
7242.17730	0.00313
7240.24863	0.00315
7238.31995	0.00318
7236.39127	0.00319
7234.46260	0.00316
7232.53392	0.00315
7230.60525	0.00316
7228.67657	0.00317
7226.74790	0.00319
7224.81922	0.00320
7222.89054	0.00322
7220.96187	0.00324
7219.03319	0.00326
7217.10452	0.00328
7215.17584	0.00328
7213.24717	0.00329
7211.31849	0.00328
7209.38981	0.00329
7207.46114	0.00329
7205.53246	0.00329
7203.60379	0.00330
7201.67511	0.00331
7199.74644	0.00332
7197.81776	0.00332
7195.88908	0.00334
7193.96041	0.00336
7192.03173	0.00336
7190.10306	0.00336
7188.17438	0.00335
7186.24571	0.00335
7184.31703	0.00335
7182.38835	0.00337
7180.45968	0.00339
7178.53100	0.00341
7176.60233	0.00343
7174.67365	0.00343
7172.74498	0.00342
7170.81630	0.00341
7168.88762	0.00341
7166.95895	0.00342
7165.03027	0.00343
7163.10160	0.00344
7161.17292	0.00346
7159.24425	0.00348
7157.31557	0.00348
7155.38689	0.00347
7153.45822	0.00347
7151.52954	0.00349
7149.60087	0.00351
7147.67219	0.00350
7145.74352	0.00350
7143.81484	0.00352
7141.88616	0.00354
7139.95749	0.00356
7138.02881	0.00357
7136.10014	0.00357
7134.17146	0.00356
7132.24279	0.00357
7130.31411	0.00358
7128.38543	0.00360
7126.45676	0.00361
7124.52808	0.00362
7122.59941	0.00363
7120.67073	0.00364
7118.74206	0.00366
7116.81338	0.00367
7114.88470	0.00366
7112.95603	0.00366
7111.02735	0.00365
7109.09868	0.00365
7107.17000	0.00366
7105.24133	0.00368
7103.31265	0.00369
7101.38397	0.00368
7099.45530	0.00368
7097.52662	0.00370
7095.59795	0.00372
7093.66927	0.00372
7091.74060	0.00372
7089.81192	0.00373
7087.88324	0.00374
7085.95457	0.00375
7084.02589	0.00376
7082.09722	0.00377
7080.16854	0.00378
7078.23987	0.00380
7076.31119	0.00381
7074.38251	0.00382
7072.45384	0.00383
7070.52516	0.00385
7068.59649	0.00385
7066.66781	0.00386
7064.73914	0.00389
7062.81046	0.00390
7060.88178	0.00390
7058.95311	0.00389
7057.02443	0.00389
7055.09576	0.00389
7053.16708	0.00390
7051.23841	0.00391
7049.30973	0.00394
7047.38105	0.00395
7045.45238	0.00394
7043.52370	0.00393
7041.59503	0.00396
7039.66635	0.00398
7037.73768	0.00399
7035.80900	0.00400
7033.88032	0.00401
7031.95165	0.00402
7030.02297	0.00402
7028.09430	0.00403
7026.16562	0.00404
7024.23695	0.00405
7022.30827	0.00405
7020.37959	0.00405
7018.45092	0.00404
7016.52224	0.00403
7014.59357	0.00403
7012.66489	0.00405
7010.73622	0.00407
7008.80754	0.00409
7006.87886	0.00411
7004.95019	0.00411
7003.02151	0.00412
7001.09284	0.00414
6999.16416	0.00415
6997.23549	0.00416
6995.30681	0.00417
6993.37813	0.00418
6991.44946	0.00417
6989.52078	0.00418
6987.59211	0.00420
6985.66343	0.00420
6983.73476	0.00420
6981.80608	0.00420
6979.87740	0.00422
6977.94873	0.00424
6976.02005	0.00425
6974.09138	0.00426
6972.16270	0.00428
6970.23403	0.00430
6968.30535	0.00431
6966.37667	0.00431
6964.44800	0.00432
6962.51932	0.00432
6960.59065	0.00431
6958.66197	0.00432
6956.73330	0.00435
6954.80462	0.00437
6952.87594	0.00438
6950.94727	0.00438
6949.01859	0.00437
6947.08992	0.00437
6945.16124	0.00439
6943.23257	0.00441
6941.30389	0.00443
6939.37521	0.00444
6937.44654	0.00444
6935.51786	0.00443
6933.58919	0.00443
6931.66051	0.00445
6929.73184	0.00447
6927.80316	0.00449
6925.87448	0.00451
6923.94581	0.00451
6922.01713	0.00451
6920.08846	0.00452
6918.15978	0.00454
6916.23111	0.00454
6914.30243	0.00454
6912.37375	0.00455
6910.44508	0.00456
6908.51640	0.00458
6906.58773	0.00459
6904.65905	0.00461
6902.73038	0.00462
6900.80170	0.00464
6898.87302	0.00465
6896.94435	0.00465
6895.01567	0.00467
6893.08700	0.00467
6891.15832	0.00468
6889.22965	0.00468
6887.30097	0.00469
6885.37229	0.00469
6883.44362	0.00470
6881.51494	0.00472
6879.58627	0.00472
6877.65759	0.00473
6875.72892	0.00475
6873.80024	0.00476
6871.87156	0.00477
6869.94289	0.00477
6868.01421	0.00478
6866.08554	0.00478
6864.15686	0.00478
6862.22819	0.00479
6860.29951	0.00481
6858.37083	0.00484
6856.44216	0.00485
6854.51348	0.00486
6852.58481	0.00487
6850.65613	0.00489
6848.72746	0.00490
6846.79878	0.00489
6844.87010	0.00489
6842.94143	0.00490
6841.01275	0.00492
6839.08408	0.00494
6837.15540	0.00496
6835.22673	0.00498
6833.29805	0.00497
6831.36937	0.00496
6829.44070	0.00497
6827.51202	0.00498
6825.58335	0.00500
6823.65467	0.00501
6821.72600	0.00503
6819.79732	0.00504
6817.86864	0.00505
6815.93997	0.00505
6814.01129	0.00505
6812.08262	0.00506
6810.15394	0.00509
6808.22527	0.00511
6806.29659	0.00512
6804.36791	0.00512
6802.43924	0.00512
6800.51056	0.00513
6798.58189	0.00516
6796.65321	0.00517
6794.72454	0.00517
6792.79586	0.00517
6790.86718	0.00518
6788.93851	0.00521
6787.00983	0.00522
6785.08116	0.00523
6783.15248	0.00524
6781.22381	0.00525
6779.29513	0.00527
6777.36645	0.00527
6775.43778	0.00527
6773.50910	0.00528
6771.58043	0.00529
6769.65175	0.00531
6767.72308	0.00532
6765.79440	0.00533
6763.86572	0.00534
6761.93705	0.00536
6760.00837	0.00537
6758.07970	0.00538
6756.15102	0.00539
6754.22235	0.00540
6752.29367	0.00541
6750.36499	0.00541
6748.43632	0.00541
6746.50764	0.00542
6744.57897	0.00544
6742.65029	0.00547
6740.72162	0.00549
6738.79294	0.00550
6736.86426	0.00551
6734.93559	0.00552
6733.00691	0.00553
6731.07824	0.00554
6729.14956	0.00555
6727.22089	0.00556
6725.29221	0.00555
6723.36353	0.00555
6721.43486	0.00556
6719.50618	0.00558
6717.57751	0.00560
6715.64883	0.00562
6713.72016	0.00564
6711.79148	0.00567
6709.86280	0.00569
6707.93413	0.00569
6706.00545	0.00568
6704.07678	0.00568
6702.14810	0.00570
6700.21943	0.00571
6698.29075	0.00572
6696.36207	0.00575
6694.43340	0.00577
6692.50472	0.00579
6690.57605	0.00579
6688.64737	0.00581
6686.71870	0.00584
6684.79002	0.00585
6682.86134	0.00585
6680.93267	0.00585
6679.00399	0.00585
6677.07532	0.00586
6675.14664	0.00587
6673.21797	0.00589
6671.28929	0.00591
6669.36061	0.00592
6667.43194	0.00594
6665.50326	0.00594
6663.57459	0.00595
6661.64591	0.00595
6659.71724	0.00596
6657.78856	0.00597
6655.85988	0.00599
6653.93121	0.00601
6652.00253	0.00602
6650.07386	0.00603
6648.14518	0.00604
6646.21651	0.00604
6644.28783	0.00604
6642.35915	0.00605
6640.43048	0.00607
6638.50180	0.00610
6636.57313	0.00611
6634.64445	0.00613
6632.71578	0.00614
6630.78710	0.00614
6628.85842	0.00615
6626.92975	0.00617
6625.00107	0.00620
6623.07240	0.00621
6621.14372	0.00622
6619.21505	0.00623
6617.28637	0.00626
6615.35769	0.00626
6613.42902	0.00625
6611.50034	0.00626
6609.57167	0.00627
6607.64299	0.00628
6605.71432	0.00629
6603.78564	0.00632
6601.85696	0.00634
6599.92829	0.00635
6597.99961	0.00637
6596.07094	0.00639
6594.14226	0.00641
6592.21359	0.00643
6590.28491	0.00645
6588.35623	0.00647
6586.42756	0.00648
6584.49888	0.00649
6582.57021	0.00649
6580.64153	0.00650
6578.71286	0.00652
6576.78418	0.00653
6574.85550	0.00655
6572.92683	0.00658
6570.99815	0.00660
6569.06948	0.00660
6567.14080	0.00660
6565.21213	0.00660
6563.28345	0.00662
6561.35477	0.00662
6559.42610	0.00663
6557.49742	0.00663
6555.56875	0.00665
6553.64007	0.00667
6551.71140	0.00670
6549.78272	0.00672
6547.85404	0.00674
6545.92537	0.00675
6543.99669	0.00675
6542.06802	0.00676
6540.13934	0.00678
6538.21067	0.00680
6536.28199	0.00683
6534.35331	0.00685
6532.42464	0.00686
6530.49596	0.00685
6528.56729	0.00685
6526.63861	0.00687
6524.70994	0.00689
6522.78126	0.00691
6520.85258	0.00694
6518.92391	0.00696
6516.99523	0.00698
6515.06656	0.00698
6513.13788	0.00697
6511.20921	0.00695
6509.28053	0.00696
6507.35185	0.00699
6505.42318	0.00702
6503.49450	0.00704
6501.56583	0.00706
6499.63715	0.00709
6497.70848	0.00711
6495.77980	0.00712
6493.85112	0.00713
6491.92245	0.00714
6489.99377	0.00715
6488.06510	0.00718
6486.13642	0.00721
6484.20775	0.00722
6482.27907	0.00722
6480.35039	0.00723
6478.42172	0.00726
6476.49304	0.00727
6474.56437	0.00727
6472.63569	0.00727
6470.70702	0.00729
6468.77834	0.00731
6466.84966	0.00734
6464.92099	0.00736
6462.99231	0.00736
6461.06364	0.00736
6459.13496	0.00738
6457.20629	0.00740
6455.27761	0.00743
6453.34893	0.00746
6451.42026	0.00750
6449.49158	0.00751
6447.56291	0.00750
6445.63423	0.00750
6443.70556	0.00751
6441.77688	0.00752
6439.84820	0.00754
6437.91953	0.00756
6435.99085	0.00758
6434.06218	0.00758
6432.13350	0.00761
6430.20483	0.00765
6428.27615	0.00767
6426.34747	0.00768
6424.41880	0.00769
6422.49012	0.00770
6420.56145	0.00770
6418.63277	0.00772
6416.70410	0.00775
6414.77542	0.00778
6412.84674	0.00780
6410.91807	0.00782
6408.98939	0.00783
6407.06072	0.00784
6405.13204	0.00784
6403.20337	0.00786
6401.27469	0.00788
6399.34601	0.00790
6397.41734	0.00791
6395.48866	0.00792
6393.55999	0.00793
6391.63131	0.00796
6389.70264	0.00799
6387.77396	0.00801
6385.84528	0.00803
6383.91661	0.00803
6381.98793	0.00803
6380.05926	0.00804
6378.13058	0.00805
6376.20191	0.00808
6374.27323	0.00812
6372.34455	0.00814
6370.41588	0.00814
6368.48720	0.00816
6366.55853	0.00819
6364.62985	0.00820
6362.70118	0.00820
6360.77250	0.00821
6358.84382	0.00822
6356.91515	0.00823
6354.98647	0.00825
6353.05780	0.00828
6351.12912	0.00831
6349.20045	0.00832
6347.27177	0.00834
6345.34309	0.00835
6343.41442	0.00837
6341.48574	0.00840
6339.55707	0.00841
6337.62839	0.00842
6335.69972	0.00844
6333.77104	0.00846
6331.84236	0.00848
6329.91369	0.00850
6327.98501	0.00851
6326.05634	0.00853
6324.12766	0.00854
6322.19899	0.00856
6320.27031	0.00858
6318.34163	0.00860
6316.41296	0.00863
6314.48428	0.00866
6312.55561	0.00866
6310.62693	0.00868
6308.69826	0.00871
6306.76958	0.00873
6304.84090	0.00873
6302.91223	0.00874
6300.98355	0.00876
6299.05488	0.00878
6297.12620	0.00879
6295.19753	0.00881
6293.26885	0.00883
6291.34017	0.00885
6289.41150	0.00886
6287.48282	0.00888
6285.55415	0.00890
6283.62547	0.00891
6281.69680	0.00892
6279.76812	0.00894
6277.83944	0.00897
6275.91077	0.00898
6273.98209	0.00900
6272.05342	0.00902
6270.12474	0.00904
6268.19607	0.00908
6266.26739	0.00911
6264.33871	0.00913
6262.41004	0.00914
6260.48136	0.00916
6258.55269	0.00919
6256.62401	0.00921
6254.69534	0.00923
6252.76666	0.00923
6250.83798	0.00923
6248.90931	0.00924
6246.98063	0.00927
6245.05196	0.00930
6243.12328	0.00932
6241.19461	0.00933
6239.26593	0.00935
6237.33725	0.00937
6235.40858	0.00939
6233.47990	0.00941
6231.55123	0.00942
6229.62255	0.00944
6227.69388	0.00947
6225.76520	0.00950
6223.83652	0.00954
6221.90785	0.00956
6219.97917	0.00957
6218.05050	0.00957
6216.12182	0.00958
6214.19315	0.00960
6212.26447	0.00963
6210.33579	0.00967
6208.40712	0.00970
6206.47844	0.00972
6204.54977	0.00973
6202.62109	0.00975
6200.69242	0.00977
6198.76374	0.00979
6196.83506	0.00980
6194.90639	0.00981
6192.97771	0.00984
6191.04904	0.00985
6189.12036	0.00986
6187.19169	0.00988
6185.26301	0.00990
6183.33433	0.00992
6181.40566	0.00995
6179.47698	0.00998
6177.54831	0.01000
6175.61963	0.01002
6173.69096	0.01002
6171.76228	0.01003
6169.83360	0.01006
6167.90493	0.01009
6165.97625	0.01011
6164.04758	0.01013
6162.11890	0.01016
6160.19023	0.01018
6158.26155	0.01020
6156.33287	0.01022
6154.40420	0.01024
6152.47552	0.01025
6150.54685	0.01028
6148.61817	0.01031
6146.68950	0.01033
6144.76082	0.01036
6142.83214	0.01038
6140.90347	0.01039
6138.97479	0.01041
6137.04612	0.01043
6135.11744	0.01044
6133.18877	0.01045
6131.26009	0.01047
6129.33141	0.01049
6127.40274	0.01051
6125.47406	0.01054
6123.54539	0.01058
6121.61671	0.01063
6119.68804	0.01065
6117.75936	0.01066
6115.83068	0.01068
6113.90201	0.01071
6111.97333	0.01072
6110.04466	0.01074
6108.11598	0.01075
6106.18731	0.01077
6104.25863	0.01080
6102.32995	0.01084
6100.40128	0.01087
6098.47260	0.01088
6096.54393	0.01090
6094.61525	0.01091
6092.68658	0.01092
6090.75790	0.01093
6088.82922	0.01095
6086.90055	0.01099
6084.97187	0.01103
6083.04320	0.01107
6081.11452	0.01109
6079.18585	0.01112
6077.25717	0.01116
6075.32849	0.01118
6073.39982	0.01120
6071.47114	0.01121
6069.54247	0.01122
6067.61379	0.01123
6065.68512	0.01123
6063.75644	0.01125
6061.82776	0.01129
6059.89909	0.01132
6057.97041	0.01134
6056.04174	0.01135
6054.11306	0.01138
6052.18439	0.01143
6050.25571	0.01148
6048.32703	0.01150
6046.39836	0.01150
6044.46968	0.01150
6042.54101	0.01153
6040.61233	0.01156
6038.68366	0.01159
6036.75498	0.01162
6034.82630	0.01164
6032.89763	0.01166
6030.96895	0.01168
6029.04028	0.01171
6027.11160	0.01174
6025.18293	0.01177
6023.25425	0.01178
6021.32557	0.01179
6019.39690	0.01180
6017.46822	0.01182
6015.53955	0.01187
6013.61087	0.01191
6011.68220	0.01194
6009.75352	0.01195
6007.82484	0.01196
6005.89617	0.01198
6003.96749	0.01201
6002.03882	0.01205
6000.11014	0.01209
5998.18147	0.01212
5996.25279	0.01212
5994.32411	0.01211
5992.39544	0.01213
5990.46676	0.01218
5988.53809	0.01223
5986.60941	0.01225
5984.68074	0.01227
5982.75206	0.01229
5980.82338	0.01233
5978.89471	0.01236
5976.96603	0.01240
5975.03736	0.01243
5973.10868	0.01246
5971.18001	0.01248
5969.25133	0.01250
5967.32265	0.01253
5965.39398	0.01254
5963.46530	0.01255
5961.53663	0.01256
5959.60795	0.01259
5957.67928	0.01263
5955.75060	0.01267
5953.82192	0.01269
5951.89325	0.01270
5949.96457	0.01272
5948.03590	0.01275
5946.10722	0.01278
5944.17855	0.01281
5942.24987	0.01283
5940.32119	0.01286
5938.39252	0.01289
5936.46384	0.01291
5934.53517	0.01295
5932.60649	0.01299
5930.67782	0.01302
5928.74914	0.01304
5926.82046	0.01305
5924.89179	0.01309
5922.96311	0.01312
5921.03444	0.01315
5919.10576	0.01316
5917.17709	0.01319
5915.24841	0.01322
5913.31973	0.01325
5911.39106	0.01327
5909.46238	0.01329
5907.53371	0.01331
5905.60503	0.01335
5903.67636	0.01339
5901.74768	0.01341
5899.81900	0.01342
5897.89033	0.01345
5895.96165	0.01347
5894.03298	0.01350
5892.10430	0.01353
5890.17563	0.01356
5888.24695	0.01360
5886.31827	0.01363
5884.38960	0.01365
5882.46092	0.01367
5880.53225	0.01369
5878.60357	0.01372
5876.67490	0.01376
5874.74622	0.01379
5872.81755	0.01383
5870.88887	0.01386
5868.96019	0.01389
5867.03152	0.01392
5865.10284	0.01393
5863.17417	0.01395
5861.24549	0.01398
5859.31682	0.01401
5857.38814	0.01404
5855.45946	0.01406
5853.53079	0.01409
5851.60211	0.01414
5849.67344	0.01418
5847.74476	0.01420
5845.81609	0.01422
5843.88741	0.01425
5841.95873	0.01429
5840.03006	0.01432
5838.10138	0.01435
5836.17271	0.01438
5834.24403	0.01441
5832.31536	0.01443
5830.38668	0.01444
5828.45800	0.01445
5826.52933	0.01448
5824.60065	0.01452
5822.67198	0.01456
5820.74330	0.01459
5818.81463	0.01462
5816.88595	0.01464
5814.95727	0.01467
5813.02860	0.01470
5811.09992	0.01472
5809.17125	0.01475
5807.24257	0.01478
5805.31390	0.01482
5803.38522	0.01486
5801.45654	0.01489
5799.52787	0.01493
5797.59919	0.01495
5795.67052	0.01496
5793.74184	0.01499
5791.81317	0.01501
5789.88449	0.01504
5787.95581	0.01508
5786.02714	0.01511
5784.09846	0.01514
5782.16979	0.01517
5780.24111	0.01520
5778.31244	0.01522
5776.38376	0.01526
5774.45508	0.01530
5772.52641	0.01535
5770.59773	0.01539
5768.66906	0.01541
5766.74038	0.01542
5764.81171	0.01545
5762.88303	0.01549
5760.95435	0.01553
5759.02568	0.01557
5757.09700	0.01561
5755.16833	0.01564
5753.23965	0.01565
5751.31098	0.01566
5749.38230	0.01569
5747.45362	0.01575
5745.52495	0.01579
5743.59627	0.01582
5741.66760	0.01585
5739.73892	0.01587
5737.81025	0.01590
5735.88157	0.01593
5733.95289	0.01598
5732.02422	0.01601
5730.09554	0.01603
5728.16687	0.01606
5726.23819	0.01609
5724.30952	0.01612
5722.38084	0.01616
5720.45216	0.01620
5718.52349	0.01622
5716.59481	0.01624
5714.66614	0.01627
5712.73746	0.01631
5710.80879	0.01635
5708.88011	0.01638
5706.95143	0.01642
5705.02276	0.01644
5703.09408	0.01645
5701.16541	0.01646
5699.23673	0.01649
5697.30806	0.01654
5695.37938	0.01660
5693.45070	0.01665
5691.52203	0.01666
5689.59335	0.01667
5687.66468	0.01671
5685.73600	0.01675
5683.80733	0.01680
5681.87865	0.01683
5679.94997	0.01687
5678.02130	0.01689
5676.09262	0.01693
5674.16395	0.01697
5672.23527	0.01699
5670.30660	0.01701
5668.37792	0.01705
5666.44924	0.01710
5664.52057	0.01715
5662.59189	0.01717
5660.66322	0.01719
5658.73454	0.01722
5656.80587	0.01727
5654.87719	0.01731
5652.94851	0.01734
5651.01984	0.01738
5649.09116	0.01741
5647.16249	0.01745
5645.23381	0.01750
5643.30514	0.01754
5641.37646	0.01757
5639.44778	0.01760
5637.51911	0.01764
5635.59043	0.01768
5633.66176	0.01770
5631.73308	0.01771
5629.80441	0.01773
5627.87573	0.01777
5625.94705	0.01781
5624.01838	0.01784
5622.08970	0.01788
5620.16103	0.01792
5618.23235	0.01796
5616.30368	0.01801
5614.37500	0.01805
5612.44632	0.01806
5610.51765	0.01808
5608.58897	0.01812
5606.66030	0.01818
5604.73162	0.01823
5602.80295	0.01826
5600.87427	0.01829
5598.94559	0.01831
5597.01692	0.01834
5595.08824	0.01838
5593.15957	0.01842
5591.23089	0.01844
5589.30222	0.01846
5587.37354	0.01850
5585.44486	0.01855
5583.51619	0.01859
5581.58751	0.01862
5579.65884	0.01865
5577.73016	0.01869
5575.80149	0.01873
5573.87281	0.01876
5571.94413	0.01877
5570.01546	0.01879
5568.08678	0.01882
5566.15811	0.01887
5564.22943	0.01893
5562.30076	0.01900
5560.37208	0.01906
5558.44340	0.01910
5556.51473	0.01912
5554.58605	0.01914
5552.65738	0.01916
5550.72870	0.01919
5548.80003	0.01922
5546.87135	0.01924
5544.94267	0.01927
5543.01400	0.01932
5541.08532	0.01936
5539.15665	0.01940
5537.22797	0.01944
5535.29930	0.01950
5533.37062	0.01956
5531.44194	0.01961
5529.51327	0.01964
5527.58459	0.01965
5525.65592	0.01965
5523.72724	0.01967
5521.79857	0.01971
5519.86989	0.01976
5517.94121	0.01980
5516.01254	0.01984
5514.08386	0.01988
5512.15519	0.01993
5510.22651	0.01999
5508.29784	0.02004
5506.36916	0.02008
5504.44048	0.02013
5502.51181	0.02016
5500.58313	0.02018
5498.65446	0.02020
5496.72578	0.02022
5494.79711	0.02024
5492.86843	0.02029
5490.93975	0.02035
5489.01108	0.02039
5487.08240	0.02041
5485.15373	0.02046
5483.22505	0.02051
5481.29638	0.02057
5479.36770	0.02060
5477.43902	0.02062
5475.51035	0.02064
5473.58167	0.02069
5471.65300	0.02074
5469.72432	0.02079
5467.79565	0.02083
5465.86697	0.02087
5463.93829	0.02093
5462.00962	0.02096
5460.08094	0.02098
5458.15227	0.02102
5456.22359	0.02107
5454.29492	0.02111
5452.36624	0.02113
5450.43756	0.02115
5448.50889	0.02117
5446.58021	0.02120
5444.65154	0.02126
5442.72286	0.02131
5440.79419	0.02135
5438.86551	0.02138
5436.93683	0.02140
5435.00816	0.02142
5433.07948	0.02148
5431.15081	0.02154
5429.22213	0.02157
5427.29346	0.02161
5425.36478	0.02167
5423.43610	0.02172
5421.50743	0.02177
5419.57875	0.02181
5417.65008	0.02184
5415.72140	0.02186
5413.79273	0.02188
5411.86405	0.02193
5409.93537	0.02200
5408.00670	0.02205
5406.07802	0.02209
5404.14935	0.02213
5402.22067	0.02217
5400.29200	0.02219
5398.36332	0.02222
5396.43464	0.02225
5394.50597	0.02227
5392.57729	0.02233
5390.64862	0.02240
5388.71994	0.02244
5386.79127	0.02246
5384.86259	0.02248
5382.93391	0.02252
5381.00524	0.02257
5379.07656	0.02261
5377.14789	0.02265
5375.21921	0.02270
5373.29054	0.02275
5371.36186	0.02282
5369.43318	0.02287
5367.50451	0.02291
5365.57583	0.02294
5363.64716	0.02297
5361.71848	0.02302
5359.78981	0.02308
5357.86113	0.02311
5355.93245	0.02312
5354.00378	0.02315
5352.07510	0.02320
5350.14643	0.02326
5348.21775	0.02329
5346.28908	0.02330
5344.36040	0.02332
5342.43172	0.02340
5340.50305	0.02347
5338.57437	0.02350
5336.64570	0.02354
5334.71702	0.02358
5332.78835	0.02363
5330.85967	0.02367
5328.93099	0.02369
5327.00232	0.02374
5325.07364	0.02381
5323.14497	0.02389
5321.21629	0.02395
5319.28762	0.02398
5317.35894	0.02400
5315.43026	0.02403
5313.50159	0.02407
5311.57291	0.02411
5309.64424	0.02414
5307.71556	0.02417
5305.78689	0.02423
5303.85821	0.02429
5301.92953	0.02433
5300.00086	0.02437
5298.07218	0.02443
5296.14351	0.02447
5294.21483	0.02451
5292.28616	0.02455
5290.35748	0.02458
5288.42880	0.02461
5286.50013	0.02465
5284.57145	0.02469
5282.64278	0.02474
5280.71410	0.02480
5278.78543	0.02485
5276.85675	0.02490
5274.92807	0.02496
5272.99940	0.02502
5271.07072	0.02504
5269.14205	0.02505
5267.21337	0.02507
5265.28470	0.02510
5263.35602	0.02514
5261.42734	0.02520
5259.49867	0.02528
5257.56999	0.02533
5255.64132	0.02537
5253.71264	0.02541
5251.78397	0.02546
5249.85529	0.02551
5247.92661	0.02554
5245.99794	0.02556
5244.06926	0.02559
5242.14059	0.02564
5240.21191	0.02569
5238.28324	0.02573
5236.35456	0.02579
5234.42588	0.02586
5232.49721	0.02592
5230.56853	0.02596
5228.63986	0.02598
5226.71118	0.02600
5224.78251	0.02603
5222.85383	0.02610
5220.92515	0.02619
5218.99648	0.02624
5217.06780	0.02624
5215.13913	0.02627
5213.21045	0.02632
5211.28178	0.02638
5209.35310	0.02643
5207.42442	0.02646
5205.49575	0.02650
5203.56707	0.02655
5201.63840	0.02661
5199.70972	0.02667
5197.78105	0.02671
5195.85237	0.02675
5193.92369	0.02679
5191.99502	0.02683
5190.06634	0.02688
5188.13767	0.02693
5186.20899	0.02697
5184.28032	0.02700
5182.35164	0.02703
5180.42296	0.02706
5178.49429	0.02711
5176.56561	0.02717
5174.63694	0.02722
5172.70826	0.02725
5170.77959	0.02730
5168.85091	0.02736
5166.92223	0.02743
5164.99356	0.02747
5163.06488	0.02751
5161.13621	0.02757
5159.20753	0.02762
5157.27886	0.02766
5155.35018	0.02771
5153.42150	0.02777
5151.49283	0.02782
5149.56415	0.02786
5147.63548	0.02790
5145.70680	0.02794
5143.77813	0.02797
5141.84945	0.02802
5139.92077	0.02806
5137.99210	0.02811
5136.06342	0.02816
5134.13475	0.02822
5132.20607	0.02828
5130.27740	0.02832
5128.34872	0.02836
5126.42004	0.02840
5124.49137	0.02844
5122.56269	0.02849
5120.63402	0.02855
5118.70534	0.02861
5116.77667	0.02865
5114.84799	0.02869
5112.91931	0.02873
5110.99064	0.02877
5109.06196	0.02881
5107.13329	0.02885
5105.20461	0.02890
5103.27594	0.02896
5101.34726	0.02901
5099.41858	0.02905
5097.48991	0.02910
5095.56123	0.02915
5093.63256	0.02919
5091.70388	0.02924
5089.77521	0.02928
5087.84653	0.02934
5085.91785	0.02939
5083.98918	0.02944
5082.06050	0.02948
5080.13183	0.02954
5078.20315	0.02960
5076.27448	0.02964
5074.34580	0.02968
5072.41712	0.02975
5070.48845	0.02982
5068.55977	0.02986
5066.63110	0.02988
5064.70242	0.02992
5062.77375	0.02999
5060.84507	0.03005
5058.91639	0.03010
5056.98772	0.03014
5055.05904	0.03020
5053.13037	0.03026
5051.20169	0.03031
5049.27302	0.03035
5047.34434	0.03039
5045.41566	0.03042
5043.48699	0.03046
5041.55831	0.03050
5039.62964	0.03055
5037.70096	0.03060
5035.77229	0.03065
5033.84361	0.03070
5031.91493	0.03076
5029.98626	0.03083
5028.05758	0.03089
5026.12891	0.03095
5024.20023	0.03100
5022.27156	0.03104
5020.34288	0.03107
5018.41420	0.03111
5016.48553	0.03116
5014.55685	0.03121
5012.62818	0.03125
5010.69950	0.03132
5008.77083	0.03139
5006.84215	0.03145
5004.91347	0.03149
5002.98480	0.03152
5001.05612	0.03156
4999.12745	0.03160
4997.19877	0.03165
4995.27010	0.03171
4993.34142	0.03176
4991.41274	0.03182
4989.48407	0.03189
4987.55539	0.03195
4985.62672	0.03200
4983.69804	0.03204
4981.76937	0.03209
4979.84069	0.03214
4977.91201	0.03218
4975.98334	0.03222
4974.05466	0.03227
4972.12599	0.03231
4970.19731	0.03235
4968.26864	0.03241
4966.33996	0.03249
4964.41128	0.03256
4962.48261	0.03261
4960.55393	0.03265
4958.62526	0.03272
4956.69658	0.03279
4954.76791	0.03285
4952.83923	0.03288
4950.91055	0.03289
4948.98188	0.03294
4947.05320	0.03302
4945.12453	0.03308
4943.19585	0.03313
4941.26718	0.03316
4939.33850	0.03321
4937.40982	0.03327
4935.48115	0.03331
4933.55247	0.03336
4931.62380	0.03340
4929.69512	0.03346
4927.76645	0.03354
4925.83777	0.03360
4923.90909	0.03364
4921.98042	0.03368
4920.05174	0.03373
4918.12307	0.03378
4916.19439	0.03385
4914.26572	0.03390
4912.33704	0.03395
4910.40836	0.03401
4908.47969	0.03407
4906.55101	0.03413
4904.62234	0.03418
4902.69366	0.03423
4900.76499	0.03427
4898.83631	0.03433
4896.90763	0.03439
4894.97896	0.03445
4893.05028	0.03450
4891.12161	0.03455
4889.19293	0.03460
4887.26426	0.03465
4885.33558	0.03472
4883.40690	0.03479
4881.47823	0.03483
4879.54955	0.03486
4877.62088	0.03491
4875.69220	0.03497
4873.76353	0.03503
4871.83485	0.03508
4869.90617	0.03513
4867.97750	0.03519
4866.04882	0.03527
4864.12015	0.03534
4862.19147	0.03539
4860.26280	0.03544
4858.33412	0.03549
4856.40544	0.03554
4854.47677	0.03558
4852.54809	0.03565
4850.61942	0.03571
4848.69074	0.03577
4846.76207	0.03584
4844.83339	0.03589
4842.90471	0.03593
4840.97604	0.03599
4839.04736	0.03605
4837.11869	0.03611
4835.19001	0.03616
4833.26134	0.03621
4831.33266	0.03627
4829.40398	0.03633
4827.47531	0.03638
4825.54663	0.03644
4823.61796	0.03649
4821.68928	0.03655
4819.76061	0.03661
4817.83193	0.03667
4815.90325	0.03673
4813.97458	0.03678
4812.04590	0.03683
4810.11723	0.03688
4808.18855	0.03695
4806.25988	0.03701
4804.33120	0.03706
4802.40252	0.03712
4800.47385	0.03719
4798.54517	0.03727
4796.61650	0.03734
4794.68782	0.03738
4792.75915	0.03742
4790.83047	0.03748
4788.90179	0.03754
4786.97312	0.03760
4785.04444	0.03766
4783.11577	0.03773
4781.18709	0.03779
4779.25842	0.03785
4777.32974	0.03790
4775.40106	0.03795
4773.47239	0.03801
4771.54371	0.03808
4769.61504	0.03814
4767.68636	0.03820
4765.75769	0.03825
4763.82901	0.03830
4761.90033	0.03835
4759.97166	0.03840
4758.04298	0.03848
4756.11431	0.03856
4754.18563	0.03863
4752.25696	0.03871
4750.32828	0.03876
4748.39960	0.03881
4746.47093	0.03887
4744.54225	0.03894
4742.61358	0.03901
4740.68490	0.03907
4738.75623	0.03912
4736.82755	0.03918
4734.89887	0.03924
4732.97020	0.03929
4731.04152	0.03933
4729.11285	0.03940
4727.18417	0.03947
4725.25550	0.03955
4723.32682	0.03963
4721.39814	0.03969
4719.46947	0.03975
4717.54079	0.03980
4715.61212	0.03986
4713.68344	0.03992
4711.75477	0.04000
4709.82609	0.04007
4707.89741	0.04012
4705.96874	0.04017
4704.04006	0.04022
4702.11139	0.04028
4700.18271	0.04035
4698.25404	0.04042
4696.32536	0.04050
4694.39668	0.04056
4692.46801	0.04063
4690.53933	0.04070
4688.61066	0.04076
4686.68198	0.04080
4684.75331	0.04086
4682.82463	0.04093
4680.89595	0.04100
4678.96728	0.04106
4677.03860	0.04114
4675.10993	0.04121
4673.18125	0.04126
4671.25258	0.04132
4669.32390	0.04141
4667.39522	0.04148
4665.46655	0.04154
4663.53787	0.04160
4661.60920	0.04167
4659.68052	0.04174
4657.75185	0.04180
4655.82317	0.04186
4653.89449	0.04194
4651.96582	0.04203
4650.03714	0.04209
4648.10847	0.04214
4646.17979	0.04219
4644.25112	0.04224
4642.32244	0.04231
4640.39376	0.04238
4638.46509	0.04247
4636.53641	0.04255
4634.60774	0.04262
4632.67906	0.04268
4630.75039	0.04275
4628.82171	0.04281
4626.89303	0.04289
4624.96436	0.04297
4623.03568	0.04304
4621.10701	0.04310
4619.17833	0.04317
4617.24966	0.04325
4615.32098	0.04331
4613.39230	0.04334
4611.46363	0.04338
4609.53495	0.04347
4607.60628	0.04357
4605.67760	0.04364
4603.74893	0.04370
4601.82025	0.04377
4599.89157	0.04386
4597.96290	0.04395
4596.03422	0.04404
4594.10555	0.04411
4592.17687	0.04415
4590.24820	0.04421
4588.31952	0.04429
4586.39084	0.04438
4584.46217	0.04445
4582.53349	0.04451
4580.60482	0.04457
4578.67614	0.04463
4576.74747	0.04469
4574.81879	0.04477
4572.89011	0.04485
4570.96144	0.04494
4569.03276	0.04503
4567.10409	0.04511
4565.17541	0.04518
4563.24674	0.04525
4561.31806	0.04534
4559.38938	0.04541
4557.46071	0.04549
4555.53203	0.04557
4553.60336	0.04564
4551.67468	0.04568
4549.74601	0.04572
4547.81733	0.04579
4545.88865	0.04589
4543.95998	0.04600
4542.03130	0.04610
4540.10263	0.04618
4538.17395	0.04626
4536.24528	0.04634
4534.31660	0.04643
4532.38792	0.04650
4530.45925	0.04658
4528.53057	0.04664
4526.60190	0.04669
4524.67322	0.04674
4522.74455	0.04682
4520.81587	0.04689
4518.88719	0.04696
4516.95852	0.04703
4515.02984	0.04711
4513.10117	0.04721
4511.17249	0.04730
4509.24382	0.04738
4507.31514	0.04747
4505.38646	0.04755
4503.45779	0.04762
4501.52911	0.04770
4499.60044	0.04778
4497.67176	0.04784
4495.74309	0.04791
4493.81441	0.04799
4491.88573	0.04807
4489.95706	0.04815
4488.02838	0.04824
4486.09971	0.04832
4484.17103	0.04841
4482.24236	0.04850
4480.31368	0.04857
4478.38500	0.04864
4476.45633	0.04871
4474.52765	0.04880
4472.59898	0.04891
4470.67030	0.04900
4468.74163	0.04907
4466.81295	0.04914
4464.88427	0.04923
4462.95560	0.04932
4461.02692	0.04941
4459.09825	0.04949
4457.16957	0.04954
4455.24090	0.04961
4453.31222	0.04970
4451.38354	0.04980
4449.45487	0.04988
4447.52619	0.04998
4445.59752	0.05007
4443.66884	0.05016
4441.74017	0.05024
4439.81149	0.05034
4437.88281	0.05044
4435.95414	0.05053
4434.02546	0.05062
4432.09679	0.05071
4430.16811	0.05078
4428.23944	0.05086
4426.31076	0.05094
4424.38208	0.05102
4422.45341	0.05111
4420.52473	0.05122
4418.59606	0.05132
4416.66738	0.05140
4414.73871	0.05148
4412.81003	0.05157
4410.88135	0.05166
4408.95268	0.05174
4407.02400	0.05182
4405.09533	0.05191
4403.16665	0.05201
4401.23798	0.05210
4399.30930	0.05220
4397.38062	0.05229
4395.45195	0.05238
4393.52327	0.05246
4391.59460	0.05254
4389.66592	0.05264
4387.73725	0.05273
4385.80857	0.05282
4383.87989	0.05292
4381.95122	0.05302
4380.02254	0.05310
4378.09387	0.05318
4376.16519	0.05327
4374.23652	0.05337
4372.30784	0.05348
4370.37916	0.05358
4368.45049	0.05367
4366.52181	0.05376
4364.59314	0.05385
4362.66446	0.05395
4360.73579	0.05406
4358.80711	0.05415
4356.87843	0.05422
4354.94976	0.05431
4353.02108	0.05442
4351.09241	0.05452
4349.16373	0.05461
4347.23506	0.05470
4345.30638	0.05479
4343.37770	0.05486
4341.44903	0.05495
4339.52035	0.05507
4337.59168	0.05521
4335.66300	0.05533
4333.73433	0.05544
4331.80565	0.05552
4329.87697	0.05560
4327.94830	0.05568
4326.01962	0.05579
4324.09095	0.05589
4322.16227	0.05598
4320.23360	0.05607
4318.30492	0.05617
4316.37624	0.05627
4314.44757	0.05637
4312.51889	0.05649
4310.59022	0.05661
4308.66154	0.05672
4306.73287	0.05681
4304.80419	0.05689
4302.87551	0.05697
4300.94684	0.05708
4299.01816	0.05719
4297.08949	0.05730
4295.16081	0.05743
4293.23214	0.05755
4291.30346	0.05765
4289.37478	0.05775
4287.44611	0.05786
4285.51743	0.05796
4283.58876	0.05805
4281.66008	0.05814
4279.73141	0.05827
4277.80273	0.05840
4275.87405	0.05850
4273.94538	0.05859
4272.01670	0.05869
4270.08803	0.05876
4268.15935	0.05885
4266.23068	0.05897
4264.30200	0.05911
4262.37332	0.05923
4260.44465	0.05931
4258.51597	0.05939
4256.58730	0.05951
4254.65862	0.05963
4252.72995	0.05975
4250.80127	0.05984
4248.87259	0.05994
4246.94392	0.06003
4245.01524	0.06014
4243.08657	0.06025
4241.15789	0.06037
4239.22922	0.06049
4237.30054	0.06062
4235.37186	0.06073
4233.44319	0.06083
4231.51451	0.06093
4229.58584	0.06103
4227.65716	0.06113
4225.72849	0.06125
4223.79981	0.06137
4221.87113	0.06149
4219.94246	0.06161
4218.01378	0.06172
4216.08511	0.06183
4214.15643	0.06195
4212.22776	0.06206
4210.29908	0.06217
4208.37040	0.06228
4206.44173	0.06239
4204.51305	0.06250
4202.58438	0.06261
4200.65570	0.06272
4198.72703	0.06285
4196.79835	0.06300
4194.86968	0.06312
4192.94100	0.06322
4191.01232	0.06332
4189.08365	0.06343
4187.15497	0.06355
4185.22630	0.06366
4183.29762	0.06379
4181.36895	0.06393
4179.44027	0.06407
4177.51159	0.06419
4175.58292	0.06431
4173.65424	0.06441
4171.72557	0.06451
4169.79689	0.06463
4167.86822	0.06476
4165.93954	0.06488
4164.01086	0.06499
4162.08219	0.06511
4160.15351	0.06523
4158.22484	0.06534
4156.29616	0.06546
4154.36749	0.06557
4152.43881	0.06569
4150.51013	0.06582
4148.58146	0.06596
4146.65278	0.06606
4144.72411	0.06616
4142.79543	0.06629
4140.86676	0.06643
4138.93808	0.06656
4137.00940	0.06669
4135.08073	0.06682
4133.15205	0.06695
4131.22338	0.06709
4129.29470	0.06723
4127.36603	0.06736
4125.43735	0.06748
4123.50867	0.06759
4121.58000	0.06771
4119.65132	0.06784
4117.72265	0.06796
4115.79397	0.06808
4113.86530	0.06821
4111.93662	0.06834
4110.00794	0.06845
4108.07927	0.06857
4106.15059	0.06870
4104.22192	0.06884
4102.29324	0.06898
4100.36457	0.06911
4098.43589	0.06923
4096.50721	0.06938
4094.57854	0.06953
4092.64986	0.06964
4090.72119	0.06974
4088.79251	0.06986
4086.86384	0.06998
4084.93516	0.07010
4083.00648	0.07024
4081.07781	0.07038
4079.14913	0.07051
4077.22046	0.07063
4075.29178	0.07076
4073.36311	0.07090
4071.43443	0.07106
4069.50575	0.07123
4067.57708	0.07137
4065.64840	0.07147
4063.71973	0.07157
4061.79105	0.07170
4059.86238	0.07188
4057.93370	0.07205
4056.00502	0.07219
4054.07635	0.07231
4052.14767	0.07245
4050.21900	0.07259
4048.29032	0.07273
4046.36165	0.07285
4044.43297	0.07298
4042.50429	0.07311
4040.57562	0.07323
4038.64694	0.07336
4036.71827	0.07351
4034.78959	0.07363
4032.86092	0.07375
4030.93224	0.07389
4029.00356	0.07404
4027.07489	0.07418
4025.14621	0.07433
4023.21754	0.07449
4021.28886	0.07462
4019.36019	0.07472
4017.43151	0.07483
4015.50283	0.07499
4013.57416	0.07517
4011.64548	0.07532
4009.71681	0.07546
4007.78813	0.07560
4005.85946	0.07575
4003.93078	0.07588
4002.00210	0.07600
4000.07343	0.07614
3998.14475	0.07628
3996.21608	0.07641
3994.28740	0.07655
3992.35873	0.07670
3990.43005	0.07685
3988.50137	0.07702
3986.57270	0.07720
3984.64402	0.07736
3982.71535	0.07750
3980.78667	0.07765
3978.85800	0.07778
3976.92932	0.07789
3975.00064	0.07801
3973.07197	0.07816
3971.14329	0.07834
3969.21462	0.07851
3967.28594	0.07865
3965.35727	0.07877
3963.42859	0.07888
3961.49991	0.07904
3959.57124	0.07921
3957.64256	0.07936
3955.71389	0.07950
3953.78521	0.07963
3951.85654	0.07972
3949.92786	0.07981
3947.99918	0.07995
3946.07051	0.08013
3944.14183	0.08029
3942.21316	0.08045
3940.28448	0.08065
3938.35581	0.08083
3936.42713	0.08095
3934.49845	0.08104
3932.56978	0.08115
3930.64110	0.08132
3928.71243	0.08150
3926.78375	0.08164
3924.85508	0.08176
3922.92640	0.08191
3920.99772	0.08206
3919.06905	0.08216
3917.14037	0.08228
3915.21170	0.08251
3913.28302	0.08277
3911.35435	0.08297
3909.42567	0.08307
3907.49699	0.08306
3905.56832	0.08297
3903.63964	0.08295
3901.71097	0.08310
3899.78229	0.08339
3897.85362	0.08375
3895.92494	0.08404
3893.99626	0.08414
3892.06759	0.08420
3890.13891	0.08440
3888.21024	0.08455
3886.28156	0.08461
3884.35289	0.08477
3882.42421	0.08498
3880.49553	0.08513
3878.56686	0.08537
3876.63818	0.08559
3874.70951	0.08567
3872.78083	0.08570
3870.85216	0.08574
3868.92348	0.08591
3866.99480	0.08615
3865.06613	0.08635
3863.13745	0.08658
3861.20878	0.08686
3859.28010	0.08704
3857.35143	0.08694
3855.42275	0.08659
3853.49407	0.08654
3851.56540	0.08707
3849.63672	0.08774
3847.70805	0.08814
3845.77937	0.08828
3843.85070	0.08829
3841.92202	0.08830
3839.99334	0.08831
3838.06467	0.08842
3836.13599	0.08868
3834.20732	0.08898
3832.27864	0.08922
3830.34997	0.08946
3828.42129	0.08967
3826.49261	0.08984
3824.56394	0.08991
3822.63526	0.08987
3820.70659	0.08994
3818.77791	0.09018
3816.84924	0.09040
3814.92056	0.09068
3812.99188	0.09107
3811.06321	0.09131
3809.13453	0.09133
3807.20586	0.09135
3805.27718	0.09149
3803.34851	0.09157
3801.41983	0.09166
3799.49115	0.09193
3797.56248	0.09224
3795.63380	0.09252
3793.70513	0.09282
3791.77645	0.09307
3789.84778	0.09324
3787.91910	0.09336
3785.99042	0.09349
3784.06175	0.09366
3782.13307	0.09382
3780.20440	0.09393
3778.27572	0.09411
3776.34705	0.09435
3774.41837	0.09455
3772.48969	0.09463
3770.56102	0.09468
3768.63234	0.09484
3766.70367	0.09506
3764.77499	0.09528
3762.84632	0.09548
3760.91764	0.09559
3758.98896	0.09569
3757.06029	0.09584
3755.13161	0.09588
3753.20294	0.09574
3751.27426	0.09566
3749.34559	0.09587
3747.41691	0.09604
3745.48823	0.09599
3743.55956	0.09625
3741.63088	0.09690
3739.70221	0.09724
3737.77353	0.09713
3735.84486	0.09705
3733.91618	0.09729
3731.98750	0.09775
3730.05883	0.09819
3728.13015	0.09844
3726.20148	0.09857
3724.27280	0.09873
3722.34413	0.09894
3720.41545	0.09917
3718.48677	0.09943
3716.55810	0.09959
3714.62942	0.09960
3712.70075	0.09956
3710.77207	0.09972
3708.84340	0.10008
3706.91472	0.10045
3704.98604	0.10065
3703.05737	0.10073
3701.12869	0.10088
3699.20002	0.10116
3697.27134	0.10142
3695.34267	0.10158
3693.41399	0.10163
3691.48531	0.10157
3689.55664	0.10159
3687.62796	0.10187
3685.69929	0.10230
3683.77061	0.10262
3681.84194	0.10276
3679.91326	0.10276
3677.98458	0.10265
3676.05591	0.10259
3674.12723	0.10280
3672.19856	0.10307
3670.26988	0.10327
3668.34121	0.10364
3666.41253	0.10409
3664.48385	0.10437
3662.55518	0.10453
3660.62650	0.10464
3658.69783	0.10467
3656.76915	0.10470
3654.84048	0.10481
3652.91180	0.10477
3650.98312	0.10447
3649.05445	0.10431
3647.12577	0.10461
3645.19710	0.10521
3643.26842	0.10573
3641.33975	0.10604
3639.41107	0.10626
3637.48239	0.10643
3635.55372	0.10656
3633.62504	0.10662
3631.69637	0.10649
3629.76769	0.10632
3627.83902	0.10653
3625.91034	0.10703
3623.98166	0.10736
3622.05299	0.10742
3620.12431	0.10739
3618.19564	0.10749
3616.26696	0.10767
3614.33829	0.10778
3612.40961	0.10786
3610.48093	0.10796
3608.55226	0.10814
3606.62358	0.10845
3604.69491	0.10875
3602.76623	0.10890
3600.83756	0.10900
3598.90888	0.10912
3596.98020	0.10924
3595.05153	0.10936
3593.12285	0.10950
3591.19418	0.10959
3589.26550	0.10958
3587.33683	0.10969
3585.40815	0.11002
3583.47947	0.11035
3581.55080	0.11056
3579.62212	0.11071
3577.69345	0.11084
3575.76477	0.11096
3573.83610	0.11111
3571.90742	0.11123
3569.97874	0.11120
3568.05007	0.11112
3566.12139	0.11126
3564.19272	0.11160
3562.26404	0.11191
3560.33537	0.11212
3558.40669	0.11230
3556.47801	0.11244
3554.54934	0.11254
3552.62066	0.11264
3550.69199	0.11279
3548.76331	0.11286
3546.83464	0.11290
3544.90596	0.11304
3542.97728	0.11328
3541.04861	0.11348
3539.11993	0.11361
3537.19126	0.11370
3535.26258	0.11378
3533.33391	0.11387
3531.40523	0.11394
3529.47655	0.11400
3527.54788	0.11405
3525.61920	0.11412
3523.69053	0.11423
3521.76185	0.11439
3519.83318	0.11453
3517.90450	0.11463
3515.97582	0.11472
3514.04715	0.11478
3512.11847	0.11482
3510.18980	0.11485
3508.26112	0.11491
3506.33245	0.11498
3504.40377	0.11502
3502.47509	0.11507
3500.54642	0.11516
3498.61774	0.11524
3496.68907	0.11531
3494.76039	0.11538
3492.83172	0.11544
3490.90304	0.11545
3488.97436	0.11545
3487.04569	0.11548
3485.11701	0.11555
3483.18834	0.11564
3481.25966	0.11577
3479.33099	0.11592
3477.40231	0.11607
3475.47363	0.11620
3473.54496	0.11635
3471.61628	0.11650
3469.68761	0.11666
3467.75893	0.11685
3465.83026	0.11706
3463.90158	0.11727
3461.97290	0.11746
3460.04423	0.11765
3458.11555	0.11784
3456.18688	0.11803
3454.25820	0.11822
3452.32953	0.11840
3450.40085	0.11857
3448.47217	0.11870
3446.54350	0.11885
3444.61482	0.11901
3442.68615	0.11920
3440.75747	0.11945
3438.82880	0.11973
3436.90012	0.12004
3434.97144	0.12038
3433.04277	0.12074
3431.11409	0.12113
3429.18542	0.12156
3427.25674	0.12195
3425.32807	0.12229
3423.39939	0.12260
3421.47071	0.12292
3419.54204	0.12326
3417.61336	0.12360
3415.68469	0.12392
3413.75601	0.12421
3411.82734	0.12446
3409.89866	0.12470
3407.96998	0.12497
3406.04131	0.12526
3404.11263	0.12549
3402.18396	0.12570
3400.25528	0.12592
3398.32661	0.12616
3396.39793	0.12642
3394.46925	0.12672
3392.54058	0.12702
3390.61190	0.12729
3388.68323	0.12752
3386.75455	0.12775
3384.82588	0.12800
3382.89720	0.12827
3380.96852	0.12855
3379.03985	0.12882
3377.11117	0.12903
3375.18250	0.12923
3373.25382	0.12943
3371.32515	0.12966
3369.39647	0.12989
3367.46779	0.13013
3365.53912	0.13040
3363.61044	0.13066
3361.68177	0.13088
3359.75309	0.13109
3357.82442	0.13131
3355.89574	0.13153
3353.96706	0.13176
3352.03839	0.13202
3350.10971	0.13228
3348.18104	0.13251
3346.25236	0.13272
3344.32369	0.13293
3342.39501	0.13317
3340.46633	0.13342
3338.53766	0.13364
3336.60898	0.13385
3334.68031	0.13408
3332.75163	0.13432
3330.82296	0.13455
3328.89428	0.13478
3326.96560	0.13503
3325.03693	0.13529
3323.10825	0.13552
3321.17958	0.13575
3319.25090	0.13599
3317.32223	0.13622
3315.39355	0.13645
3313.46487	0.13669
3311.53620	0.13695
3309.60752	0.13721
3307.67885	0.13746
3305.75017	0.13770
3303.82150	0.13796
3301.89282	0.13823
3299.96414	0.13850
3298.03547	0.13874
3296.10679	0.13894
3294.17812	0.13916
3292.24944	0.13940
3290.32077	0.13966
3288.39209	0.13994
3286.46341	0.14021
3284.53474	0.14044
3282.60606	0.14065
3280.67739	0.14090
3278.74871	0.14120
3276.82004	0.14148
3274.89136	0.14173
3272.96268	0.14197
3271.03401	0.14221
3269.10533	0.14245
3267.17666	0.14270
3265.24798	0.14299
3263.31931	0.14327
3261.39063	0.14351
3259.46195	0.14372
3257.53328	0.14394
3255.60460	0.14420
3253.67593	0.14447
3251.74725	0.14474
3249.81858	0.14498
3247.88990	0.14521
3245.96122	0.14547
3244.03255	0.14575
3242.10387	0.14601
3240.17520	0.14625
3238.24652	0.14651
3236.31785	0.14678
3234.38917	0.14704
3232.46049	0.14727
3230.53182	0.14750
3228.60314	0.14777
3226.67447	0.14806
3224.74579	0.14834
3222.81712	0.14857
3220.88844	0.14880
3218.95976	0.14905
3217.03109	0.14929
3215.10241	0.14951
3213.17374	0.14974
3211.24506	0.14998
3209.31639	0.15023
3207.38771	0.15049
3205.45903	0.15077
3203.53036	0.15106
3201.60168	0.15136
3199.67301	0.15163
3197.74433	0.15189
3195.81566	0.15217
3193.88698	0.15247
3191.95830	0.15273
3190.02963	0.15300
3188.10095	0.15328
3186.17228	0.15357
3184.24360	0.15385
3182.31493	0.15413
3180.38625	0.15439
3178.45757	0.15463
3176.52890	0.15488
3174.60022	0.15514
3172.67155	0.15542
3170.74287	0.15569
3168.81420	0.15595
3166.88552	0.15623
3164.95684	0.15653
3163.02817	0.15681
3161.09949	0.15706
3159.17082	0.15729
3157.24214	0.15752
3155.31347	0.15778
3153.38479	0.15806
3151.45611	0.15833
3149.52744	0.15858
3147.59876	0.15886
3145.67009	0.15915
3143.74141	0.15941
3141.81274	0.15966
3139.88406	0.15993
3137.95538	0.16020
3136.02671	0.16043
3134.09803	0.16067
3132.16936	0.16094
3130.24068	0.16122
3128.31201	0.16152
3126.38333	0.16182
3124.45465	0.16207
3122.52598	0.16230
3120.59730	0.16255
3118.66863	0.16282
3116.73995	0.16307
3114.81128	0.16332
3112.88260	0.16356
3110.95392	0.16381
3109.02525	0.16409
3107.09657	0.16438
3105.16790	0.16467
3103.23922	0.16493
3101.31055	0.16519
3099.38187	0.16545
3097.45319	0.16573
3095.52452	0.16603
3093.59584	0.16629
3091.66717	0.16653
3089.73849	0.16678
3087.80982	0.16704
3085.88114	0.16731
3083.95246	0.16758
3082.02379	0.16785
3080.09511	0.16807
3078.16644	0.16829
3076.23776	0.16855
3074.30909	0.16885
3072.38041	0.16915
3070.45173	0.16944
3068.52306	0.16972
3066.59438	0.16998
3064.66571	0.17023
3062.73703	0.17049
3060.80836	0.17075
3058.87968	0.17101
3056.95100	0.17126
3055.02233	0.17149
3053.09365	0.17173
3051.16498	0.17199
3049.23630	0.17225
3047.30763	0.17253
3045.37895	0.17282
3043.45027	0.17311
3041.52160	0.17336
3039.59292	0.17359
3037.66425	0.17382
3035.73557	0.17407
3033.80690	0.17432
3031.87822	0.17458
3029.94954	0.17488
3028.02087	0.17520
3026.09219	0.17548
3024.16352	0.17574
3022.23484	0.17600
3020.30617	0.17623
3018.37749	0.17644
3016.44881	0.17669
3014.52014	0.17697
3012.59146	0.17723
3010.66279	0.17750
3008.73411	0.17776
3006.80544	0.17800
3004.87676	0.17825
3002.94808	0.17853
3001.01941	0.17883
2999.09073	0.17911
2997.16206	0.17937
2995.23338	0.17962
2993.30471	0.17984
2991.37603	0.18007
2989.44735	0.18031
2987.51868	0.18052
2985.59000	0.18068
2983.66133	0.18082
2981.73265	0.18097
2979.80398	0.18110
2977.87530	0.18120
2975.94662	0.18128
2974.01795	0.18135
2972.08927	0.18137
2970.16060	0.18134
2968.23192	0.18127
2966.30325	0.18126
2964.37457	0.18133
2962.44589	0.18149
2960.51722	0.18171
2958.58854	0.18202
2956.65987	0.18238
2954.73119	0.18277
2952.80252	0.18313
2950.87384	0.18343
2948.94516	0.18369
2947.01649	0.18392
2945.08781	0.18413
2943.15914	0.18427
2941.23046	0.18432
2939.30179	0.18432
2937.37311	0.18430
2935.44443	0.18427
2933.51576	0.18423
2931.58708	0.18415
2929.65841	0.18405
2927.72973	0.18395
2925.80106	0.18390
2923.87238	0.18391
2921.94370	0.18398
2920.01503	0.18415
2918.08635	0.18445
2916.15768	0.18498
2914.22900	0.18576
2912.30033	0.18666
2910.37165	0.18749
2908.44297	0.18818
2906.51430	0.18877
2904.58562	0.18926
2902.65695	0.18970
2900.72827	0.19011
2898.79960	0.19049
2896.87092	0.19085
2894.94224	0.19121
2893.01357	0.19161
2891.08489	0.19201
2889.15622	0.19238
2887.22754	0.19272
2885.29887	0.19304
2883.37019	0.19334
2881.44151	0.19361
2879.51284	0.19388
2877.58416	0.19417
2875.65549	0.19443
2873.72681	0.19466
2871.79814	0.19487
2869.86946	0.19507
2867.94078	0.19529
2866.01211	0.19553
2864.08343	0.19574
2862.15476	0.19590
2860.22608	0.19598
2858.29741	0.19599
2856.36873	0.19594
2854.44005	0.19585
2852.51138	0.19579
2850.58270	0.19592
2848.65403	0.19643
2846.72535	0.19728
2844.79668	0.19820
2842.86800	0.19902
2840.93932	0.19973
2839.01065	0.20025
2837.08197	0.20062
2835.15330	0.20095
2833.22462	0.20132
2831.29595	0.20171
2829.36727	0.20207
2827.43859	0.20242
2825.50992	0.20276
2823.58124	0.20307
2821.65257	0.20333
2819.72389	0.20361
2817.79522	0.20392
2815.86654	0.20424
2813.93786	0.20455
2812.00919	0.20486
2810.08051	0.20520
2808.15184	0.20554
2806.22316	0.20581
2804.29449	0.20604
2802.36581	0.20631
2800.43713	0.20662
2798.50846	0.20694
2796.57978	0.20726
2794.65111	0.20757
2792.72243	0.20786
2790.79376	0.20815
2788.86508	0.20845
2786.93640	0.20874
2785.00773	0.20903
2783.07905	0.20929
2781.15038	0.20955
2779.22170	0.20984
2777.29303	0.21017
2775.36435	0.21050
2773.43567	0.21079
2771.50700	0.21103
2769.57832	0.21128
2767.64965	0.21156
2765.72097	0.21185
2763.79230	0.21213
2761.86362	0.21241
2759.93494	0.21268
2758.00627	0.21297
2756.07759	0.21329
2754.14892	0.21359
2752.22024	0.21387
2750.29157	0.21413
2748.36289	0.21438
2746.43421	0.21464
2744.50554	0.21492
2742.57686	0.21518
2740.64819	0.21543
2738.71951	0.21570
2736.79084	0.21597
2734.86216	0.21625
2732.93348	0.21657
2731.00481	0.21688
2729.07613	0.21716
2727.14746	0.21742
2725.21878	0.21769
2723.29011	0.21798
2721.36143	0.21826
2719.43275	0.21852
2717.50408	0.21878
2715.57540	0.21906
2713.64673	0.21935
2711.71805	0.21963
2709.78938	0.21988
2707.86070	0.22012
2705.93202	0.22038
2704.00335	0.22068
2702.07467	0.22098
2700.14600	0.22129
2698.21732	0.22159
2696.28865	0.22185
2694.35997	0.22209
2692.43129	0.22234
2690.50262	0.22258
2688.57394	0.22282
2686.64527	0.22307
2684.71659	0.22335
2682.78792	0.22366
2680.85924	0.22397
2678.93056	0.22428
2677.00189	0.22456
2675.07321	0.22482
2673.14454	0.22507
2671.21586	0.22533
2669.28719	0.22561
2667.35851	0.22589
2665.42983	0.22615
2663.50116	0.22641
2661.57248	0.22670
2659.64381	0.22701
2657.71513	0.22731
2655.78646	0.22757
2653.85778	0.22783
2651.92910	0.22812
2650.00043	0.22843
2648.07175	0.22872
2646.14308	0.22898
2644.21440	0.22926
2642.28573	0.22955
2640.35705	0.22984
2638.42837	0.23013
2636.49970	0.23043
2634.57102	0.23073
2632.64235	0.23103
2630.71367	0.23132
2628.78500	0.23160
2626.85632	0.23187
2624.92764	0.23215
2622.99897	0.23245
2621.07029	0.23277
2619.14162	0.23309
2617.21294	0.23340
2615.28427	0.23369
2613.35559	0.23399
2611.42691	0.23429
2609.49824	0.23458
2607.56956	0.23486
2605.64089	0.23516
2603.71221	0.23547
2601.78354	0.23577
2599.85486	0.23605
2597.92618	0.23633
2595.99751	0.23659
2594.06883	0.23689
2592.14016	0.23722
2590.21148	0.23754
2588.28281	0.23782
2586.35413	0.23809
2584.42545	0.23837
2582.49678	0.23867
2580.56810	0.23898
2578.63943	0.23927
2576.71075	0.23955
2574.78208	0.23986
2572.85340	0.24017
2570.92472	0.24044
2568.99605	0.24073
2567.06737	0.24105
2565.13870	0.24133
2563.21002	0.24158
2561.28135	0.24182
2559.35267	0.24210
2557.42399	0.24240
2555.49532	0.24268
2553.56664	0.24295
2551.63797	0.24324
2549.70929	0.24352
2547.78062	0.24377
2545.85194	0.24404
2543.92326	0.24434
2541.99459	0.24465
2540.06591	0.24495
2538.13724	0.24524
2536.20856	0.24554
2534.27989	0.24582
2532.35121	0.24610
2530.42253	0.24636
2528.49386	0.24664
2526.56518	0.24693
2524.63651	0.24722
2522.70783	0.24751
2520.77916	0.24781
2518.85048	0.24813
2516.92181	0.24845
2514.99313	0.24873
2513.06445	0.24899
2511.13578	0.24930
2509.20710	0.24963
2507.27843	0.24995
2505.34975	0.25026
2503.42108	0.25056
2501.49240	0.25086
2499.56372	0.25120
2497.63505	0.25155
2495.70637	0.25188
2493.77770	0.25218
2491.84902	0.25250
2489.92035	0.25281
2487.99167	0.25313
2486.06299	0.25346
2484.13432	0.25380
2482.20564	0.25411
2480.27697	0.25438
2478.34829	0.25467
2476.41962	0.25499
2474.49094	0.25531
2472.56226	0.25561
2470.63359	0.25591
2468.70491	0.25619
2466.77624	0.25649
2464.84756	0.25679
2462.91889	0.25711
2460.99021	0.25743
2459.06153	0.25774
2457.13286	0.25804
2455.20418	0.25834
2453.27551	0.25866
2451.34683	0.25898
2449.41816	0.25927
2447.48948	0.25953
2445.56080	0.25982
2443.63213	0.26015
2441.70345	0.26048
2439.77478	0.26078
2437.84610	0.26110
2435.91743	0.26144
2433.98875	0.26174
2432.06007	0.26201
2430.13140	0.26231
2428.20272	0.26265
2426.27405	0.26298
2424.34537	0.26330
2422.41670	0.26362
2420.48802	0.26394
2418.55934	0.26422
2416.63067	0.26449
2414.70199	0.26481
2412.77332	0.26512
2410.84464	0.26540
2408.91597	0.26567
2406.98729	0.26597
2405.05861	0.26626
2403.12994	0.26653
2401.20126	0.26682
2399.27259	0.26714
2397.34391	0.26746
2395.41524	0.26777
2393.48656	0.26809
2391.55788	0.26840
2389.62921	0.26868
2387.70053	0.26896
2385.77186	0.26923
2383.84318	0.26947
2381.91451	0.26968
2379.98583	0.26983
2378.05715	0.26997
2376.12848	0.27011
2374.19980	0.27021
2372.27113	0.27024
2370.34245	0.27025
2368.41378	0.27033
2366.48510	0.27049
2364.55642	0.27071
2362.62775	0.27096
2360.69907	0.27123
2358.77040	0.27157
2356.84172	0.27202
2354.91305	0.27255
2352.98437	0.27316
2351.05569	0.27379
2349.12702	0.27422
2347.19834	0.27438
2345.26967	0.27442
2343.34099	0.27449
2341.41232	0.27465
2339.48364	0.27491
2337.55496	0.27525
2335.62629	0.27561
2333.69761	0.27593
2331.76894	0.27622
2329.84026	0.27654
2327.91159	0.27690
2325.98291	0.27730
2324.05423	0.27771
2322.12556	0.27814
2320.19688	0.27856
2318.26821	0.27893
2316.33953	0.27931
2314.41086	0.27971
2312.48218	0.28011
2310.55350	0.28050
2308.62483	0.28087
2306.69615	0.28125
2304.76748	0.28164
2302.83880	0.28199
2300.91013	0.28229
2298.98145	0.28260
2297.05277	0.28293
2295.12410	0.28327
2293.19542	0.28359
2291.26675	0.28391
2289.33807	0.28423
2287.40940	0.28455
2285.48072	0.28485
2283.55204	0.28515
2281.62337	0.28542
2279.69469	0.28570
2277.76602	0.28601
2275.83734	0.28634
2273.90867	0.28665
2271.97999	0.28694
2270.05131	0.28725
2268.12264	0.28756
2266.19396	0.28788
2264.26529	0.28820
2262.33661	0.28852
2260.40794	0.28882
2258.47926	0.28914
2256.55058	0.28945
2254.62191	0.28972
2252.69323	0.29000
2250.76456	0.29034
2248.83588	0.29068
2246.90721	0.29097
2244.97853	0.29126
2243.04985	0.29155
2241.12118	0.29182
2239.19250	0.29210
2237.26383	0.29242
2235.33515	0.29275
2233.40648	0.29307
2231.47780	0.29337
2229.54912	0.29365
2227.62045	0.29390
2225.69177	0.29416
2223.76310	0.29446
2221.83442	0.29477
2219.90575	0.29510
2217.97707	0.29543
2216.04839	0.29576
2214.11972	0.29607
2212.19104	0.29637
2210.26237	0.29664
2208.33369	0.29691
2206.40502	0.29719
2204.47634	0.29747
2202.54766	0.29779
2200.61899	0.29813
2198.69031	0.29847
2196.76164	0.29876
2194.83296	0.29902
2192.90429	0.29929
2190.97561	0.29958
2189.04693	0.29987
2187.11826	0.30015
2185.18958	0.30044
2183.26091	0.30076
2181.33223	0.30108
2179.40356	0.30137
2177.47488	0.30166
2175.54620	0.30196
2173.61753	0.30224
2171.68885	0.30253
2169.76018	0.30286
2167.83150	0.30321
2165.90283	0.30356
2163.97415	0.30387
2162.04547	0.30415
2160.11680	0.30445
2158.18812	0.30479
2156.25945	0.30513
2154.33077	0.30546
2152.40210	0.30576
2150.47342	0.30604
2148.54474	0.30632
2146.61607	0.30659
2144.68739	0.30686
2142.75872	0.30716
2140.83004	0.30747
2138.90137	0.30777
2136.97269	0.30809
2135.04401	0.30845
2133.11534	0.30878
2131.18666	0.30908
2129.25799	0.30936
2127.32931	0.30963
2125.40064	0.30992
2123.47196	0.31022
2121.54328	0.31055
2119.61461	0.31088
2117.68593	0.31121
2115.75726	0.31156
2113.82858	0.31188
2111.89991	0.31214
2109.97123	0.31240
2108.04255	0.31271
2106.11388	0.31304
2104.18520	0.31337
2102.25653	0.31370
2100.32785	0.31402
2098.39918	0.31434
2096.47050	0.31463
2094.54182	0.31491
2092.61315	0.31522
2090.68447	0.31555
2088.75580	0.31587
2086.82712	0.31618
2084.89845	0.31646
2082.96977	0.31673
2081.04109	0.31706
2079.11242	0.31742
2077.18374	0.31772
2075.25507	0.31799
2073.32639	0.31828
2071.39772	0.31857
2069.46904	0.31885
2067.54036	0.31914
2065.61169	0.31943
2063.68301	0.31974
2061.75434	0.32007
2059.82566	0.32040
2057.89699	0.32074
2055.96831	0.32109
2054.03963	0.32143
2052.11096	0.32170
2050.18228	0.32196
2048.25361	0.32224
2046.32493	0.32254
2044.39626	0.32286
2042.46758	0.32318
2040.53890	0.32349
2038.61023	0.32380
2036.68155	0.32414
2034.75288	0.32448
2032.82420	0.32480
2030.89553	0.32508
2028.96685	0.32537
2027.03817	0.32568
2025.10950	0.32601
2023.18082	0.32635
2021.25215	0.32664
2019.32347	0.32687
2017.39480	0.32712
2015.46612	0.32747
2013.53744	0.32787
2011.60877	0.32823
2009.68009	0.32854
2007.75142	0.32883
2005.82274	0.32914
2003.89407	0.32948
2001.96539	0.32976
2000.03671	0.33001
1998.10804	0.33028
1996.17936	0.33055
1994.25069	0.33074
1992.32201	0.33095
1990.39334	0.33130
1988.46466	0.33170
1986.53598	0.33202
1984.60731	0.33233
1982.67863	0.33261
1980.74996	0.33287
1978.82128	0.33313
1976.89261	0.33342
1974.96393	0.33370
1973.03525	0.33397
1971.10658	0.33417
1969.17790	0.33428
1967.24923	0.33445
1965.32055	0.33479
1963.39188	0.33518
1961.46320	0.33551
1959.53452	0.33582
1957.60585	0.33612
1955.67717	0.33642
1953.74850	0.33674
1951.81982	0.33706
1949.89115	0.33735
1947.96247	0.33761
1946.03379	0.33782
1944.10512	0.33799
1942.17644	0.33826
1940.24777	0.33870
1938.31909	0.33913
1936.39042	0.33944
1934.46174	0.33971
1932.53306	0.33998
1930.60439	0.34026
1928.67571	0.34061
1926.74704	0.34095
1924.81836	0.34116
1922.88969	0.34131
1920.96101	0.34149
1919.03233	0.34165
1917.10366	0.34197
1915.17498	0.34251
1913.24631	0.34294
1911.31763	0.34319
1909.38896	0.34345
1907.46028	0.34382
1905.53160	0.34425
1903.60293	0.34462
1901.67425	0.34491
1899.74558	0.34513
1897.81690	0.34531
1895.88823	0.34552
1893.95955	0.34579
1892.03087	0.34599
1890.10220	0.34615
1888.17352	0.34653
1886.24485	0.34702
1884.31617	0.34741
1882.38750	0.34773
1880.45882	0.34801
1878.53014	0.34828
1876.60147	0.34854
1874.67279	0.34879
1872.74412	0.34892
1870.81544	0.34884
1868.88677	0.34890
1866.95809	0.34944
1865.02941	0.35017
1863.10074	0.35066
1861.17206	0.35096
1859.24339	0.35129
1857.31471	0.35167
1855.38604	0.35204
1853.45736	0.35236
1851.52868	0.35263
1849.60001	0.35282
1847.67133	0.35280
1845.74266	0.35258
1843.81398	0.35274
1841.88531	0.35352
1839.95663	0.35427
1838.02795	0.35466
1836.09928	0.35497
1834.17060	0.35523
1832.24193	0.35522
1830.31325	0.35516
1828.38458	0.35545
1826.45590	0.35588
1824.52722	0.35633
1822.59855	0.35689
1820.66987	0.35735
1818.74120	0.35763
1816.81252	0.35789
1814.88385	0.35814
1812.95517	0.35828
1811.02649	0.35842
1809.09782	0.35876
1807.16914	0.35915
1805.24047	0.35937
1803.31179	0.35937
1801.38312	0.35941
1799.45444	0.35973
1797.52576	0.36014
1795.59709	0.36023
1793.66841	0.36005
1791.73974	0.36022
1789.81106	0.36091
1787.88239	0.36145
1785.95371	0.36156
1784.02503	0.36169
1782.09636	0.36195
1780.16768	0.36225
1778.23901	0.36258
1776.31033	0.36268
1774.38166	0.36238
1772.45298	0.36218
1770.52430	0.36246
1768.59563	0.36297
1766.66695	0.36354
1764.73828	0.36393
1762.80960	0.36399
1760.88093	0.36414
1758.95225	0.36439
1757.02357	0.36454
1755.09490	0.36459
1753.16622	0.36425
1751.23755	0.36370
1749.30887	0.36365
1747.38020	0.36406
1745.45152	0.36440
1743.52284	0.36450
1741.59417	0.36446
1739.66549	0.36454
1737.73682	0.36456
1735.80814	0.36404
1733.87947	0.36380
1731.95079	0.36464
1730.02211	0.36582
1728.09344	0.36668
1726.16476	0.36719
1724.23609	0.36745
1722.30741	0.36748
1720.37874	0.36699
1718.45006	0.36634
1716.52138	0.36642
1714.59271	0.36728
1712.66403	0.36823
1710.73536	0.36878
1708.80668	0.36877
1706.87801	0.36848
1704.94933	0.36831
1703.02065	0.36787
1701.09198	0.36715
1699.16330	0.36712
1697.23463	0.36764
1695.30595	0.36827
1693.37728	0.36914
1691.44860	0.36961
1689.51992	0.36947
1687.59125	0.36902
1685.66257	0.36829
1683.73390	0.36808
1681.80522	0.36886
1679.87655	0.36970
1677.94787	0.36978
1676.01919	0.36945
1674.09052	0.36940
1672.16184	0.36944
1670.23317	0.36935
1668.30449	0.36978
1666.37582	0.37052
1664.44714	0.37070
1662.51846	0.37064
1660.58979	0.37097
1658.66111	0.37128
1656.73244	0.37068
1654.80376	0.36922
1652.87509	0.36866
1650.94641	0.36963
1649.01773	0.37034
1647.08906	0.37034
1645.16038	0.37082
1643.23171	0.37168
1641.30303	0.37210
1639.37436	0.37187
1637.44568	0.37122
1635.51700	0.37105
1633.58833	0.37185
1631.65965	0.37266
1629.73098	0.37271
1627.80230	0.37241
1625.87363	0.37200
1623.94495	0.37139
1622.01627	0.37096
1620.08760	0.37093
1618.15892	0.37119
1616.23025	0.37210
1614.30157	0.37352
1612.37290	0.37462
1610.44422	0.37520
1608.51554	0.37566
1606.58687	0.37615
1604.65819	0.37659
1602.72952	0.37699
1600.80084	0.37744
1598.87217	0.37785
1596.94349	0.37811
1595.01481	0.37834
1593.08614	0.37867
1591.15746	0.37904
1589.22879	0.37937
1587.30011	0.37970
1585.37144	0.38004
1583.44276	0.38033
1581.51408	0.38051
1579.58541	0.38040
1577.65673	0.38003
1575.72806	0.38012
1573.79938	0.38082
1571.87071	0.38117
1569.94203	0.38114
1568.01335	0.38149
1566.08468	0.38204
1564.15600	0.38227
1562.22733	0.38169
1560.29865	0.38042
1558.36998	0.38004
1556.44130	0.38120
1554.51262	0.38260
1552.58395	0.38342
1550.65527	0.38383
1548.72660	0.38411
1546.79792	0.38408
1544.86925	0.38351
1542.94057	0.38275
1541.01189	0.38243
1539.08322	0.38313
1537.15454	0.38430
1535.22587	0.38475
1533.29719	0.38485
1531.36852	0.38534
1529.43984	0.38568
1527.51116	0.38552
1525.58249	0.38528
1523.65381	0.38482
1521.72514	0.38436
1519.79646	0.38463
1517.86779	0.38531
1515.93911	0.38594
1514.01043	0.38649
1512.08176	0.38663
1510.15308	0.38612
1508.22441	0.38544
1506.29573	0.38570
1504.36706	0.38708
1502.43838	0.38815
1500.50970	0.38815
1498.58103	0.38778
1496.65235	0.38787
1494.72368	0.38841
1492.79500	0.38858
1490.86633	0.38817
1488.93765	0.38802
1487.00897	0.38853
1485.08030	0.38917
1483.15162	0.38949
1481.22295	0.38949
1479.29427	0.38924
1477.36560	0.38868
1475.43692	0.38793
1473.50824	0.38734
1471.57957	0.38735
1469.65089	0.38781
1467.72222	0.38793
1465.79354	0.38768
1463.86487	0.38771
1461.93619	0.38780
1460.00751	0.38705
1458.07884	0.38596
1456.15016	0.38607
1454.22149	0.38735
1452.29281	0.38838
1450.36414	0.38866
1448.43546	0.38870
1446.50678	0.38899
1444.57811	0.38944
1442.64943	0.38971
1440.72076	0.38956
1438.79208	0.38884
1436.86341	0.38826
1434.93473	0.38868
1433.00605	0.38941
1431.07738	0.38962
1429.14870	0.38966
1427.22003	0.38971
1425.29135	0.38960
1423.36268	0.38930
1421.43400	0.38868
1419.50532	0.38803
1417.57665	0.38819
1415.64797	0.38888
1413.71930	0.38922
1411.79062	0.38921
1409.86195	0.38915
1407.93327	0.38900
1406.00459	0.38878
1404.07592	0.38875
1402.14724	0.38876
1400.21857	0.38847
1398.28989	0.38806
1396.36122	0.38780
1394.43254	0.38787
1392.50386	0.38823
1390.57519	0.38821
1388.64651	0.38751
1386.71784	0.38680
1384.78916	0.38662
1382.86049	0.38684
1380.93181	0.38708
1379.00313	0.38709
1377.07446	0.38684
1375.14578	0.38659
1373.21711	0.38664
1371.28843	0.38684
1369.35976	0.38689
1367.43108	0.38679
1365.50240	0.38651
1363.57373	0.38613
1361.64505	0.38607
1359.71638	0.38637
1357.78770	0.38661
1355.85903	0.38665
1353.93035	0.38669
1352.00167	0.38681
1350.07300	0.38694
1348.14432	0.38707
1346.21565	0.38724
1344.28697	0.38732
1342.35830	0.38717
1340.42962	0.38694
1338.50094	0.38689
1336.57227	0.38701
1334.64359	0.38712
1332.71492	0.38716
1330.78624	0.38716
1328.85757	0.38708
1326.92889	0.38697
1325.00021	0.38681
1323.07154	0.38661
1321.14286	0.38638
1319.21419	0.38618
1317.28551	0.38607
1315.35684	0.38596
1313.42816	0.38578
1311.49948	0.38554
1309.57081	0.38527
1307.64213	0.38497
1305.71346	0.38466
1303.78478	0.38432
1301.85611	0.38399
1299.92743	0.38365
1297.99875	0.38330
1296.07008	0.38291
1294.14140	0.38249
1292.21273	0.38204
1290.28405	0.38160
1288.35538	0.38115
1286.42670	0.38063
1284.49802	0.38006
1282.56935	0.37945
1280.64067	0.37881
1278.71200	0.37817
1276.78332	0.37746
1274.85465	0.37653
1272.92597	0.37537
1270.99729	0.37397
1269.06862	0.37225
1267.13994	0.37034
1265.21127	0.36857
1263.28259	0.36733
1261.35392	0.36677
1259.42524	0.36676
1257.49656	0.36703
1255.56789	0.36726
1253.63921	0.36723
1251.71054	0.36689
1249.78186	0.36634
1247.85319	0.36566
1245.92451	0.36492
1243.99583	0.36415
1242.06716	0.36333
1240.13848	0.36243
1238.20981	0.36145
1236.28113	0.36045
1234.35246	0.35944
1232.42378	0.35838
1230.49510	0.35724
1228.56643	0.35612
1226.63775	0.35513
1224.70908	0.35425
1222.78040	0.35337
1220.85173	0.35245
1218.92305	0.35152
1216.99437	0.35060
1215.06570	0.34964
1213.13702	0.34866
1211.20835	0.34770
1209.27967	0.34675
1207.35100	0.34581
1205.42232	0.34488
1203.49364	0.34393
1201.56497	0.34302
1199.63629	0.34215
1197.70762	0.34128
1195.77894	0.34041
1193.85027	0.33952
1191.92159	0.33854
1189.99291	0.33745
1188.06424	0.33624
1186.13556	0.33496
1184.20689	0.33369
1182.27821	0.33238
1180.34954	0.33099
1178.42086	0.32964
1176.49218	0.32836
1174.56351	0.32704
1172.63483	0.32564
1170.70616	0.32416
1168.77748	0.32264
1166.84881	0.32115
1164.92013	0.31971
1162.99145	0.31832
1161.06278	0.31697
1159.13410	0.31561
1157.20543	0.31429
1155.27675	0.31306
1153.34808	0.31186
1151.41940	0.31062
1149.49072	0.30939
1147.56205	0.30826
1145.63337	0.30716
1143.70470	0.30606
1141.77602	0.30496
1139.84735	0.30381
1137.91867	0.30258
1135.98999	0.30132
1134.06132	0.30004
1132.13264	0.29876
1130.20397	0.29743
1128.27529	0.29605
1126.34662	0.29460
1124.41794	0.29310
1122.48926	0.29162
1120.56059	0.29010
1118.63191	0.28852
1116.70324	0.28693
1114.77456	0.28532
1112.84589	0.28371
1110.91721	0.28213
1108.98853	0.28057
1107.05986	0.27903
1105.13118	0.27753
1103.20251	0.27609
1101.27383	0.27471
1099.34516	0.27336
1097.41648	0.27205
1095.48780	0.27076
1093.55913	0.26950
1091.63045	0.26824
1089.70178	0.26701
1087.77310	0.26590
1085.84443	0.26490
1083.91575	0.26389
1081.98707	0.26284
1080.05840	0.26181
1078.12972	0.26084
1076.20105	0.25999
1074.27237	0.25927
1072.34370	0.25861
1070.41502	0.25806
1068.48634	0.25776
1066.55767	0.25769
1064.62899	0.25775
1062.70032	0.25786
1060.77164	0.25794
1058.84297	0.25803
1056.91429	0.25822
1054.98561	0.25861
1053.05694	0.25911
1051.12826	0.25962
1049.19959	0.26013
1047.27091	0.26067
1045.34224	0.26130
1043.41356	0.26204
1041.48488	0.26282
1039.55621	0.26359
1037.62753	0.26430
1035.69886	0.26499
1033.77018	0.26575
1031.84151	0.26656
1029.91283	0.26740
1027.98415	0.26822
1026.05548	0.26897
1024.12680	0.26973
1022.19813	0.27060
1020.26945	0.27156
1018.34078	0.27258
1016.41210	0.27370
1014.48342	0.27498
1012.55475	0.27634
1010.62607	0.27769
1008.69740	0.27905
1006.76872	0.28039
1004.84005	0.28164
1002.91137	0.28278
1000.98269	0.28382
999.05402	0.28476
997.12534	0.28559
995.19667	0.28635
993.26799	0.28705
991.33932	0.28771
989.41064	0.28833
987.48196	0.28893
985.55329	0.28951
983.62461	0.29004
981.69594	0.29049
979.76726	0.29085
977.83859	0.29108
975.90991	0.29114
973.98123	0.29111
972.05256	0.29106
970.12388	0.29098
968.19521	0.29086
966.26653	0.29074
964.33786	0.29060
962.40918	0.29039
960.48050	0.29007
958.55183	0.28968
956.62315	0.28928
954.69448	0.28888
952.76580	0.28844
950.83713	0.28795
948.90845	0.28749
946.97977	0.28702
945.05110	0.28652
943.12242	0.28602
941.19375	0.28544
939.26507	0.28476
937.33640	0.28406
935.40772	0.28344
933.47904	0.28283
931.55037	0.28215
929.62169	0.28147
927.69302	0.28087
925.76434	0.28029
923.83567	0.27964
921.90699	0.27893
919.97831	0.27820
918.04964	0.27746
916.12096	0.27669
914.19229	0.27592
912.26361	0.27512
910.33494	0.27434
908.40626	0.27362
906.47758	0.27284
904.54891	0.27191
902.62023	0.27098
900.69156	0.27011
898.76288	0.26920
896.83421	0.26825
894.90553	0.26737
892.97685	0.26654
891.04818	0.26568
889.11950	0.26474
887.19083	0.26377
885.26215	0.26287
883.33348	0.26203
881.40480	0.26119
879.47612	0.26033
877.54745	0.25951
875.61877	0.25876
873.69010	0.25807
871.76142	0.25733
869.83275	0.25650
867.90407	0.25566
865.97539	0.25479
864.04672	0.25390
862.11804	0.25300
860.18937	0.25208
858.26069	0.25117
856.33202	0.25027
854.40334	0.24935
852.47466	0.24841
850.54599	0.24744
848.61731	0.24647
846.68864	0.24549
844.75996	0.24458
842.83129	0.24373
840.90261	0.24285
838.97394	0.24193
837.04526	0.24101
835.11658	0.24010
833.18791	0.23914
831.25923	0.23812
829.33056	0.23702
827.40188	0.23588
825.47321	0.23471
823.54453	0.23356
821.61585	0.23249
819.68718	0.23148
817.75850	0.23051
815.82983	0.22954
813.90115	0.22852
811.97248	0.22746
810.04380	0.22647
808.11512	0.22554
806.18645	0.22458
804.25777	0.22368
802.32910	0.22296
800.40042	0.22237
798.47175	0.22181
796.54307	0.22133
794.61439	0.22096
792.68572	0.22062
790.75704	0.22032
788.82837	0.22008
786.89969	0.21977
784.97102	0.21933
783.04234	0.21889
781.11366	0.21847
779.18499	0.21801
777.25631	0.21750
775.32764	0.21698
773.39896	0.21643
771.47029	0.21587
769.54161	0.21532
767.61293	0.21470
765.68426	0.21400
763.75558	0.21332
761.82691	0.21269
759.89823	0.21201
757.96956	0.21119
756.04088	0.21030
754.11220	0.20935
752.18353	0.20836
750.25485	0.20745
748.32618	0.20654
746.39750	0.20557
744.46883	0.20461
742.54015	0.20371
740.61147	0.20288
738.68280	0.20209
736.75412	0.20129
734.82545	0.20049
732.89677	0.19970
730.96810	0.19891
729.03942	0.19813
727.11074	0.19737
725.18207	0.19668
723.25339	0.19604
721.32472	0.19534
719.39604	0.19458
717.46737	0.19380
715.53869	0.19297
713.61001	0.19211
711.68134	0.19133
709.75266	0.19062
707.82399	0.18985
705.89531	0.18900
703.96664	0.18810
702.03796	0.18728
700.10928	0.18653
698.18061	0.18577
696.25193	0.18496
694.32326	0.18410
692.39458	0.18325
690.46591	0.18244
688.53723	0.18164
686.60855	0.18075
684.67988	0.17976
682.75120	0.17872
680.82253	0.17769
678.89385	0.17663
676.96518	0.17547
675.03650	0.17417
673.10782	0.17280
671.17915	0.17135
669.25047	0.16972
667.32180	0.16814
665.39312	0.16683
663.46445	0.16555
661.53577	0.16399
659.60709	0.16227
657.67842	0.16063
655.74974	0.15915
653.82107	0.15770
651.89239	0.15627
649.96372	0.15482
648.03504	0.15332
646.10636	0.15171
644.17769	0.14997
642.24901	0.14815
640.32034	0.14638
638.39166	0.14462
636.46299	0.14283
634.53431	0.14103
632.60563	0.13926
630.67696	0.13745
628.74828	0.13562
626.81961	0.13383
624.89093	0.13205
622.96226	0.13029
621.03358	0.12863
619.10490	0.12707
617.17623	0.12547
615.24755	0.12366
613.31888	0.12167
611.39020	0.11971
609.46153	0.11792
607.53285	0.11630
605.60417	0.11478
603.67550	0.11330
601.74682	0.11185
599.81815	0.11040
597.88947	0.10892
595.96080	0.10750
594.03212	0.10627
592.10344	0.10519
590.17477	0.10413
588.24609	0.10304
586.31742	0.10195
584.38874	0.10092
582.46007	0.09990
580.53139	0.09882
578.60271	0.09772
576.67404	0.09664
574.74536	0.09557
572.81669	0.09455
570.88801	0.09362
568.95934	0.09275
567.03066	0.09191
565.10198	0.09114
563.17331	0.09035
561.24463	0.08947
559.31596	0.08864
557.38728	0.08794
555.45861	0.08721
553.52993	0.08639
551.60125	0.08566
549.67258	0.08508
547.74390	0.08462
545.81523	0.08426
543.88655	0.08384
541.95788	0.08331
540.02920	0.08274
538.10052	0.08212
536.17185	0.08148
534.24317	0.08096
532.31450	0.08049
530.38582	0.07991
528.45715	0.07925
526.52847	0.07856
524.59979	0.07785
522.67112	0.07711
520.74244	0.07630
518.81377	0.07546
516.88509	0.07464
514.95642	0.07384
513.02774	0.07301
511.09906	0.07215
509.17039	0.07132
507.24171	0.07053
505.31304	0.06969
503.38436	0.06867
501.45569	0.06750
499.52701	0.06637
497.59833	0.06529
495.66966	0.06409
493.74098	0.06276
491.81231	0.06148
489.88363	0.06029
487.95496	0.05907
486.02628	0.05779
484.09760	0.05654
482.16893	0.05532
480.24025	0.05408
478.31158	0.05282
476.38290	0.05159
474.45423	0.05044
472.52555	0.04933
470.59687	0.04828
468.66820	0.04737
466.73952	0.04663
464.81085	0.04600
462.88217	0.04541
460.95350	0.04494
459.02482	0.04464
457.09614	0.04450
455.16747	0.04451
453.23879	0.04452
451.31012	0.04442
449.38144	0.04427
447.45277	0.04408
445.52409	0.04373
443.59541	0.04321
441.66674	0.04257
439.73806	0.04183
437.80939	0.04099
435.88071	0.04005
433.95204	0.03898
432.02336	0.03783
430.09468	0.03666
428.16601	0.03545
426.23733	0.03417
424.30866	0.03279
422.37998	0.03141
420.45131	0.03015
418.52263	0.02895
416.59395	0.02768
414.66528	0.02635
412.73660	0.02506
410.80793	0.02384
408.87925	0.02265
406.95058	0.02146
405.02190	0.02030
403.09322	0.01921
401.16455	0.01810
399.23587	0.01694
397.30720	0.01580
395.37852	0.01476
393.44985	0.01388
391.52117	0.01310
389.59249	0.01227
387.66382	0.01143
385.73514	0.01066
383.80647	0.00998
381.87779	0.00926
379.94912	0.00851
378.02044	0.00780
376.09176	0.00712
374.16309	0.00641
372.23441	0.00578
370.30574	0.00525
368.37706	0.00477
