7496.76250	0.00232
7494.83382	0.00231
7492.90514	0.00231
7490.97647	0.00233
7489.04779	0.00234
7487.11912	0.00234
7485.19044	0.00236
7483.26177	0.00237
7481.33309	0.00238
7479.40441	0.00237
7477.47574	0.00237
7475.54706	0.00237
7473.61839	0.00238
7471.68971	0.00239
7469.76104	0.00238
7467.83236	0.00237
7465.90368	0.00239
7463.97501	0.00240
7462.04633	0.00241
7460.11766	0.00241
7458.18898	0.00241
7456.26031	0.00242
7454.33163	0.00244
7452.40295	0.00245
7450.47428	0.00247
7448.54560	0.00249
7446.61693	0.00250
7444.68825	0.00249
7442.75958	0.00248
7440.83090	0.00248
7438.90222	0.00248
7436.97355	0.00248
7435.04487	0.00248
7433.11620	0.00248
7431.18752	0.00251
7429.25885	0.00253
7427.33017	0.00255
7425.40149	0.00255
7423.47282	0.00256
7421.54414	0.00255
7419.61547	0.00255
7417.68679	0.00256
7415.75812	0.00257
7413.82944	0.00258
7411.90076	0.00259
7409.97209	0.00260
7408.04341	0.00261
7406.11474	0.00262
7404.18606	0.00262
7402.25739	0.00263
7400.32871	0.00263
7398.40003	0.00263
7396.47136	0.00263
7394.54268	0.00264
7392.61401	0.00265
7390.68533	0.00265
7388.75666	0.00265
7386.82798	0.00267
7384.89930	0.00270
7382.97063	0.00272
7381.04195	0.00272
7379.11328	0.00270
7377.18460	0.00270
7375.25593	0.00272
7373.32725	0.00274
7371.39857	0.00275
7369.46990	0.00274
7367.54122	0.00272
7365.61255	0.00272
7363.68387	0.00272
7361.75520	0.00274
7359.82652	0.00276
7357.89784	0.00278
7355.96917	0.00279
7354.04049	0.00280
7352.11182	0.00280
7350.18314	0.00281
7348.25447	0.00282
7346.32579	0.00283
7344.39711	0.00283
7342.46844	0.00283
7340.53976	0.00283
7338.61109	0.00284
7336.68241	0.00285
7334.75374	0.00286
7332.82506	0.00286
7330.89638	0.00287
7328.96771	0.00288
7327.03903	0.00290
7325.11036	0.00291
7323.18168	0.00290
7321.25301	0.00289
7319.32433	0.00290
7317.39565	0.00291
7315.46698	0.00293
7313.53830	0.00294
7311.60963	0.00294
7309.68095	0.00293
7307.75228	0.00293
7305.82360	0.00294
7303.89492	0.00295
7301.96625	0.00298
7300.03757	0.00300
7298.10890	0.00300
7296.18022	0.00299
7294.25155	0.00299
7292.32287	0.00300
7290.39419	0.00301
7288.46552	0.00300
7286.53684	0.00299
7284.60817	0.00299
7282.67949	0.00302
7280.75082	0.00306
7278.82214	0.00307
7276.89346	0.00308
7274.96479	0.00308
7273.03611	0.00308
7271.10744	0.00308
7269.17876	0.00308
7267.25009	0.00308
7265.32141	0.00310
7263.39273	0.00312
7261.46406	0.00314
7259.53538	0.00315
7257.60671	0.00316
7255.67803	0.00315
7253.74936	0.00316
7251.82068	0.00316
7249.89200	0.00316
7247.96333	0.00316
7246.03465	0.00317
7244.10598	0.00320
7242.17730	0.00321
7240.24863	0.00322
7238.31995	0.00322
7236.39127	0.00323
7234.46260	0.00323
7232.53392	0.00324
7230.60525	0.00326
7228.67657	0.00327
7226.74790	0.00327
7224.81922	0.00328
7222.89054	0.00328
7220.96187	0.00328
7219.03319	0.00328
7217.10452	0.00330
7215.17584	0.00332
7213.24717	0.00332
7211.31849	0.00331
7209.38981	0.00331
7207.46114	0.00332
7205.53246	0.00332
7203.60379	0.00334
7201.67511	0.00336
7199.74644	0.00337
7197.81776	0.00338
7195.88908	0.00339
7193.96041	0.00339
7192.03173	0.00339
7190.10306	0.00339
7188.17438	0.00340
7186.24571	0.00342
7184.31703	0.00343
7182.38835	0.00343
7180.45968	0.00343
7178.53100	0.00344
7176.60233	0.00345
7174.67365	0.00347
7172.74498	0.00348
7170.81630	0.00349
7168.88762	0.00349
7166.95895	0.00350
7165.03027	0.00351
7163.10160	0.00351
7161.17292	0.00351
7159.24425	0.00352
7157.31557	0.00353
7155.38689	0.00355
7153.45822	0.00357
7151.52954	0.00358
7149.60087	0.00360
7147.67219	0.00360
7145.74352	0.00359
7143.81484	0.00359
7141.88616	0.00361
7139.95749	0.00363
7138.02881	0.00364
7136.10014	0.00364
7134.17146	0.00363
7132.24279	0.00363
7130.31411	0.00362
7128.38543	0.00362
7126.45676	0.00364
7124.52808	0.00366
7122.59941	0.00367
7120.67073	0.00367
7118.74206	0.00368
7116.81338	0.00369
7114.88470	0.00369
7112.95603	0.00369
7111.02735	0.00370
7109.09868	0.00371
7107.17000	0.00373
7105.24133	0.00374
7103.31265	0.00375
7101.38397	0.00376
7099.45530	0.00376
7097.52662	0.00378
7095.59795	0.00379
7093.66927	0.00379
7091.74060	0.00379
7089.81192	0.00378
7087.88324	0.00378
7085.95457	0.00379
7084.02589	0.00380
7082.09722	0.00382
7080.16854	0.00384
7078.23987	0.00384
7076.31119	0.00384
7074.38251	0.00386
7072.45384	0.00389
7070.52516	0.00390
7068.59649	0.00391
7066.66781	0.00393
7064.73914	0.00394
7062.81046	0.00395
7060.88178	0.00396
7058.95311	0.00395
7057.02443	0.00395
7055.09576	0.00397
7053.16708	0.00397
7051.23841	0.00397
7049.30973	0.00397
7047.38105	0.00398
7045.45238	0.00399
7043.52370	0.00401
7041.59503	0.00402
7039.66635	0.00403
7037.73768	0.00403
7035.80900	0.00404
7033.88032	0.00406
7031.95165	0.00406
7030.02297	0.00406
7028.09430	0.00406
7026.16562	0.00406
7024.23695	0.00406
7022.30827	0.00406
7020.37959	0.00408
7018.45092	0.00411
7016.52224	0.00413
7014.59357	0.00414
7012.66489	0.00415
7010.73622	0.00415
7008.80754	0.00415
7006.87886	0.00416
7004.95019	0.00417
7003.02151	0.00418
7001.09284	0.00420
6999.16416	0.00422
6997.23549	0.00423
6995.30681	0.00424
6993.37813	0.00425
6991.44946	0.00426
6989.52078	0.00426
6987.59211	0.00427
6985.66343	0.00427
6983.73476	0.00427
6981.80608	0.00427
6979.87740	0.00428
6977.94873	0.00429
6976.02005	0.00430
6974.09138	0.00431
6972.16270	0.00433
6970.23403	0.00433
6968.30535	0.00432
6966.37667	0.00433
6964.44800	0.00435
6962.51932	0.00436
6960.59065	0.00437
6958.66197	0.00439
6956.73330	0.00441
6954.80462	0.00441
6952.87594	0.00441
6950.94727	0.00443
6949.01859	0.00446
6947.08992	0.00446
6945.16124	0.00445
6943.23257	0.00445
6941.30389	0.00445
6939.37521	0.00446
6937.44654	0.00447
6935.51786	0.00448
6933.58919	0.00450
6931.66051	0.00452
6929.73184	0.00455
6927.80316	0.00456
6925.87448	0.00456
6923.94581	0.00457
6922.01713	0.00458
6920.08846	0.00458
6918.15978	0.00458
6916.23111	0.00458
6914.30243	0.00459
6912.37375	0.00462
6910.44508	0.00464
6908.51640	0.00466
6906.58773	0.00466
6904.65905	0.00466
6902.73038	0.00467
6900.80170	0.00469
6898.87302	0.00470
6896.94435	0.00469
6895.01567	0.00469
6893.08700	0.00469
6891.15832	0.00471
6889.22965	0.00473
6887.30097	0.00474
6885.37229	0.00476
6883.44362	0.00478
6881.51494	0.00478
6879.58627	0.00479
6877.65759	0.00480
6875.72892	0.00482
6873.80024	0.00484
6871.87156	0.00485
6869.94289	0.00484
6868.01421	0.00485
6866.08554	0.00486
6864.15686	0.00488
6862.22819	0.00489
6860.29951	0.00488
6858.37083	0.00488
6856.44216	0.00489
6854.51348	0.00490
6852.58481	0.00491
6850.65613	0.00492
6848.72746	0.00493
6846.79878	0.00496
6844.87010	0.00499
6842.94143	0.00499
6841.01275	0.00498
6839.08408	0.00499
6837.15540	0.00500
6835.22673	0.00501
6833.29805	0.00503
6831.36937	0.00504
6829.44070	0.00503
6827.51202	0.00504
6825.58335	0.00506
6823.65467	0.00508
6821.72600	0.00510
6819.79732	0.00513
6817.86864	0.00515
6815.93997	0.00515
6814.01129	0.00514
6812.08262	0.00514
6810.15394	0.00515
6808.22527	0.00516
6806.29659	0.00517
6804.36791	0.00517
6802.43924	0.00518
6800.51056	0.00519
6798.58189	0.00520
6796.65321	0.00523
6794.72454	0.00524
6792.79586	0.00524
6790.86718	0.00524
6788.93851	0.00525
6787.00983	0.00526
6785.08116	0.00528
6783.15248	0.00531
6781.22381	0.00533
6779.29513	0.00536
6777.36645	0.00537
6775.43778	0.00537
6773.50910	0.00537
6771.58043	0.00537
6769.65175	0.00538
6767.72308	0.00540
6765.79440	0.00541
6763.86572	0.00542
6761.93705	0.00543
6760.00837	0.00542
6758.07970	0.00542
6756.15102	0.00543
6754.22235	0.00545
6752.29367	0.00547
6750.36499	0.00549
6748.43632	0.00552
6746.50764	0.00554
6744.57897	0.00555
6742.65029	0.00557
6740.72162	0.00558
6738.79294	0.00557
6736.86426	0.00559
6734.93559	0.00561
6733.00691	0.00563
6731.07824	0.00563
6729.14956	0.00563
6727.22089	0.00564
6725.29221	0.00564
6723.36353	0.00565
6721.43486	0.00567
6719.50618	0.00569
6717.57751	0.00572
6715.64883	0.00574
6713.72016	0.00574
6711.79148	0.00573
6709.86280	0.00573
6707.93413	0.00575
6706.00545	0.00576
6704.07678	0.00576
6702.14810	0.00576
6700.21943	0.00577
6698.29075	0.00579
6696.36207	0.00581
6694.43340	0.00584
6692.50472	0.00585
6690.57605	0.00587
6688.64737	0.00589
6686.71870	0.00589
6684.79002	0.00589
6682.86134	0.00589
6680.93267	0.00591
6679.00399	0.00593
6677.07532	0.00594
6675.14664	0.00594
6673.21797	0.00594
6671.28929	0.00595
6669.36061	0.00597
6667.43194	0.00601
6665.50326	0.00603
6663.57459	0.00604
6661.64591	0.00604
6659.71724	0.00606
6657.78856	0.00606
6655.85988	0.00606
6653.93121	0.00608
6652.00253	0.00611
6650.07386	0.00614
6648.14518	0.00614
6646.21651	0.00613
6644.28783	0.00615
6642.35915	0.00618
6640.43048	0.00619
6638.50180	0.00620
6636.57313	0.00621
6634.64445	0.00622
6632.71578	0.00624
6630.78710	0.00626
6628.85842	0.00628
6626.92975	0.00629
6625.00107	0.00630
6623.07240	0.00631
6621.14372	0.00632
6619.21505	0.00633
6617.28637	0.00633
6615.35769	0.00634
6613.42902	0.00634
6611.50034	0.00635
6609.57167	0.00638
6607.64299	0.00642
6605.71432	0.00644
6603.78564	0.00644
6601.85696	0.00644
6599.92829	0.00645
6597.99961	0.00646
6596.07094	0.00647
6594.14226	0.00649
6592.21359	0.00650
6590.28491	0.00652
6588.35623	0.00652
6586.42756	0.00654
6584.49888	0.00657
6582.57021	0.00660
6580.64153	0.00660
6578.71286	0.00659
6576.78418	0.00659
6574.85550	0.00659
6572.92683	0.00661
6570.99815	0.00663
6569.06948	0.00664
6567.14080	0.00664
6565.21213	0.00666
6563.28345	0.00669
6561.35477	0.00673
6559.42610	0.00675
6557.49742	0.00675
6555.56875	0.00676
6553.64007	0.00676
6551.71140	0.00678
6549.78272	0.00681
6547.85404	0.00682
6545.92537	0.00682
6543.99669	0.00683
6542.06802	0.00684
6540.13934	0.00686
6538.21067	0.00689
6536.28199	0.00691
6534.35331	0.00690
6532.42464	0.00691
6530.49596	0.00693
6528.56729	0.00696
6526.63861	0.00697
6524.70994	0.00699
6522.78126	0.00701
6520.85258	0.00703
6518.92391	0.00705
6516.99523	0.00705
6515.06656	0.00705
6513.13788	0.00706
6511.20921	0.00709
6509.28053	0.00711
6507.35185	0.00712
6505.42318	0.00712
6503.49450	0.00713
6501.56583	0.00715
6499.63715	0.00716
6497.70848	0.00718
6495.77980	0.00720
6493.85112	0.00724
6491.92245	0.00725
6489.99377	0.00726
6488.06510	0.00726
6486.13642	0.00728
6484.20775	0.00730
6482.27907	0.00731
6480.35039	0.00732
6478.42172	0.00733
6476.49304	0.00735
6474.56437	0.00737
6472.63569	0.00739
6470.70702	0.00741
6468.77834	0.00742
6466.84966	0.00743
6464.92099	0.00745
6462.99231	0.00747
6461.06364	0.00748
6459.13496	0.00750
6457.20629	0.00752
6455.27761	0.00753
6453.34893	0.00753
6451.42026	0.00755
6449.49158	0.00759
6447.56291	0.00760
6445.63423	0.00761
6443.70556	0.00762
6441.77688	0.00763
6439.84820	0.00765
6437.91953	0.00766
6435.99085	0.00767
6434.06218	0.00770
6432.13350	0.00773
6430.20483	0.00776
6428.27615	0.00777
6426.34747	0.00777
6424.41880	0.00778
6422.49012	0.00779
6420.56145	0.00780
6418.63277	0.00782
6416.70410	0.00785
6414.77542	0.00787
6412.84674	0.00789
6410.91807	0.00790
6408.98939	0.00792
6407.06072	0.00794
6405.13204	0.00796
6403.20337	0.00797
6401.27469	0.00799
6399.34601	0.00800
6397.41734	0.00801
6395.48866	0.00801
6393.55999	0.00801
6391.63131	0.00803
6389.70264	0.00806
6387.77396	0.00810
6385.84528	0.00812
6383.91661	0.00812
6381.98793	0.00812
6380.05926	0.00813
6378.13058	0.00815
6376.20191	0.00818
6374.27323	0.00820
6372.34455	0.00820
6370.41588	0.00822
6368.48720	0.00826
6366.55853	0.00829
6364.62985	0.00830
6362.70118	0.00830
6360.77250	0.00832
6358.84382	0.00836
6356.91515	0.00839
6354.98647	0.00841
6353.05780	0.00842
6351.12912	0.00843
6349.20045	0.00844
6347.27177	0.00844
6345.34309	0.00845
6343.41442	0.00847
6341.48574	0.00849
6339.55707	0.00850
6337.62839	0.00853
6335.69972	0.00858
6333.77104	0.00860
6331.84236	0.00860
6329.91369	0.00860
6327.98501	0.00863
6326.05634	0.00865
6324.12766	0.00865
6322.19899	0.00865
6320.27031	0.00867
6318.34163	0.00869
6316.41296	0.00872
6314.48428	0.00875
6312.55561	0.00879
6310.62693	0.00881
6308.69826	0.00882
6306.76958	0.00882
6304.84090	0.00883
6302.91223	0.00886
6300.98355	0.00889
6299.05488	0.00892
6297.12620	0.00893
6295.19753	0.00893
6293.26885	0.00894
6291.34017	0.00895
6289.41150	0.00897
6287.48282	0.00901
6285.55415	0.00904
6283.62547	0.00907
6281.69680	0.00908
6279.76812	0.00908
6277.83944	0.00909
6275.91077	0.00910
6273.98209	0.00913
6272.05342	0.00916
6270.12474	0.00917
6268.19607	0.00921
6266.26739	0.00924
6264.33871	0.00926
6262.41004	0.00926
6260.48136	0.00928
6258.55269	0.00930
6256.62401	0.00932
6254.69534	0.00934
6252.76666	0.00936
6250.83798	0.00938
6248.90931	0.00941
6246.98063	0.00943
6245.05196	0.00945
6243.12328	0.00947
6241.19461	0.00949
6239.26593	0.00951
6237.33725	0.00952
6235.40858	0.00953
6233.47990	0.00954
6231.55123	0.00957
6229.62255	0.00959
6227.69388	0.00959
6225.76520	0.00961
6223.83652	0.00963
6221.90785	0.00964
6219.97917	0.00966
6218.05050	0.00968
6216.12182	0.00970
6214.19315	0.00971
6212.26447	0.00974
6210.33579	0.00978
6208.40712	0.00982
6206.47844	0.00983
6204.54977	0.00984
6202.62109	0.00987
6200.69242	0.00990
6198.76374	0.00991
6196.83506	0.00992
6194.90639	0.00993
6192.97771	0.00995
6191.04904	0.00998
6189.12036	0.01000
6187.19169	0.01002
6185.26301	0.01005
6183.33433	0.01007
6181.40566	0.01008
6179.47698	0.01011
6177.54831	0.01013
6175.61963	0.01014
6173.69096	0.01015
6171.76228	0.01017
6169.83360	0.01021
6167.90493	0.01023
6165.97625	0.01026
6164.04758	0.01028
6162.11890	0.01030
6160.19023	0.01033
6158.26155	0.01037
6156.33287	0.01038
6154.40420	0.01040
6152.47552	0.01042
6150.54685	0.01044
6148.61817	0.01046
6146.68950	0.01048
6144.76082	0.01050
6142.83214	0.01051
6140.90347	0.01053
6138.97479	0.01055
6137.04612	0.01059
6135.11744	0.01063
6133.18877	0.01066
6131.26009	0.01066
6129.33141	0.01066
6127.40274	0.01066
6125.47406	0.01068
6123.54539	0.01071
6121.61671	0.01073
6119.68804	0.01076
6117.75936	0.01079
6115.83068	0.01082
6113.90201	0.01083
6111.97333	0.01085
6110.04466	0.01088
6108.11598	0.01092
6106.18731	0.01095
6104.25863	0.01098
6102.32995	0.01099
6100.40128	0.01101
6098.47260	0.01103
6096.54393	0.01106
6094.61525	0.01109
6092.68658	0.01112
6090.75790	0.01112
6088.82922	0.01112
6086.90055	0.01113
6084.97187	0.01117
6083.04320	0.01122
6081.11452	0.01125
6079.18585	0.01128
6077.25717	0.01130
6075.32849	0.01132
6073.39982	0.01133
6071.47114	0.01135
6069.54247	0.01139
6067.61379	0.01141
6065.68512	0.01142
6063.75644	0.01143
6061.82776	0.01145
6059.89909	0.01147
6057.97041	0.01148
6056.04174	0.01151
6054.11306	0.01154
6052.18439	0.01157
6050.25571	0.01159
6048.32703	0.01161
6046.39836	0.01162
6044.46968	0.01165
6042.54101	0.01169
6040.61233	0.01172
6038.68366	0.01175
6036.75498	0.01177
6034.82630	0.01179
6032.89763	0.01180
6030.96895	0.01183
6029.04028	0.01186
6027.11160	0.01190
6025.18293	0.01192
6023.25425	0.01192
6021.32557	0.01193
6019.39690	0.01195
6017.46822	0.01199
6015.53955	0.01203
6013.61087	0.01207
6011.68220	0.01212
6009.75352	0.01214
6007.82484	0.01214
6005.89617	0.01215
6003.96749	0.01219
6002.03882	0.01223
6000.11014	0.01224
5998.18147	0.01225
5996.25279	0.01227
5994.32411	0.01230
5992.39544	0.01232
5990.46676	0.01237
5988.53809	0.01241
5986.60941	0.01243
5984.68074	0.01243
5982.75206	0.01243
5980.82338	0.01244
5978.89471	0.01247
5976.96603	0.01251
5975.03736	0.01254
5973.10868	0.01258
5971.18001	0.01261
5969.25133	0.01263
5967.32265	0.01265
5965.39398	0.01268
5963.46530	0.01272
5961.53663	0.01276
5959.60795	0.01281
5957.67928	0.01284
5955.75060	0.01284
5953.82192	0.01286
5951.89325	0.01289
5949.96457	0.01292
5948.03590	0.01293
5946.10722	0.01294
5944.17855	0.01298
5942.24987	0.01303
5940.32119	0.01306
5938.39252	0.01308
5936.46384	0.01309
5934.53517	0.01311
5932.60649	0.01313
5930.67782	0.01316
5928.74914	0.01318
5926.82046	0.01320
5924.89179	0.01323
5922.96311	0.01327
5921.03444	0.01331
5919.10576	0.01334
5917.17709	0.01335
5915.24841	0.01337
5913.31973	0.01339
5911.39106	0.01342
5909.46238	0.01345
5907.53371	0.01349
5905.60503	0.01352
5903.67636	0.01354
5901.74768	0.01354
5899.81900	0.01355
5897.89033	0.01359
5895.96165	0.01365
5894.03298	0.01367
5892.10430	0.01368
5890.17563	0.01371
5888.24695	0.01376
5886.31827	0.01379
5884.38960	0.01381
5882.46092	0.01382
5880.53225	0.01385
5878.60357	0.01388
5876.67490	0.01391
5874.74622	0.01394
5872.81755	0.01396
5870.88887	0.01398
5868.96019	0.01400
5867.03152	0.01404
5865.10284	0.01408
5863.17417	0.01413
5861.24549	0.01417
5859.31682	0.01420
5857.38814	0.01424
5855.45946	0.01424
5853.53079	0.01424
5851.60211	0.01426
5849.67344	0.01430
5847.74476	0.01434
5845.81609	0.01438
5843.88741	0.01441
5841.95873	0.01444
5840.03006	0.01445
5838.10138	0.01448
5836.17271	0.01453
5834.24403	0.01459
5832.31536	0.01463
5830.38668	0.01465
5828.45800	0.01465
5826.52933	0.01468
5824.60065	0.01472
5822.67198	0.01474
5820.74330	0.01477
5818.81463	0.01480
5816.88595	0.01483
5814.95727	0.01486
5813.02860	0.01489
5811.09992	0.01492
5809.17125	0.01494
5807.24257	0.01496
5805.31390	0.01500
5803.38522	0.01504
5801.45654	0.01507
5799.52787	0.01509
5797.59919	0.01512
5795.67052	0.01516
5793.74184	0.01520
5791.81317	0.01524
5789.88449	0.01527
5787.95581	0.01530
5786.02714	0.01531
5784.09846	0.01532
5782.16979	0.01536
5780.24111	0.01540
5778.31244	0.01543
5776.38376	0.01546
5774.45508	0.01550
5772.52641	0.01553
5770.59773	0.01555
5768.66906	0.01556
5766.74038	0.01558
5764.81171	0.01562
5762.88303	0.01566
5760.95435	0.01570
5759.02568	0.01574
5757.09700	0.01578
5755.16833	0.01580
5753.23965	0.01581
5751.31098	0.01582
5749.38230	0.01585
5747.45362	0.01589
5745.52495	0.01594
5743.59627	0.01598
5741.66760	0.01602
5739.73892	0.01605
5737.81025	0.01608
5735.88157	0.01612
5733.95289	0.01616
5732.02422	0.01620
5730.09554	0.01623
5728.16687	0.01627
5726.23819	0.01631
5724.30952	0.01633
5722.38084	0.01636
5720.45216	0.01639
5718.52349	0.01643
5716.59481	0.01647
5714.66614	0.01650
5712.73746	0.01652
5710.80879	0.01654
5708.88011	0.01657
5706.95143	0.01660
5705.02276	0.01665
5703.09408	0.01670
5701.16541	0.01673
5699.23673	0.01675
5697.30806	0.01677
5695.37938	0.01681
5693.45070	0.01684
5691.52203	0.01686
5689.59335	0.01688
5687.66468	0.01690
5685.73600	0.01694
5683.80733	0.01698
5681.87865	0.01703
5679.94997	0.01707
5678.02130	0.01710
5676.09262	0.01713
5674.16395	0.01720
5672.23527	0.01724
5670.30660	0.01726
5668.37792	0.01729
5666.44924	0.01734
5664.52057	0.01739
5662.59189	0.01740
5660.66322	0.01741
5658.73454	0.01745
5656.80587	0.01750
5654.87719	0.01753
5652.94851	0.01754
5651.01984	0.01756
5649.09116	0.01759
5647.16249	0.01763
5645.23381	0.01768
5643.30514	0.01772
5641.37646	0.01775
5639.44778	0.01778
5637.51911	0.01782
5635.59043	0.01786
5633.66176	0.01790
5631.73308	0.01793
5629.80441	0.01797
5627.87573	0.01800
5625.94705	0.01803
5624.01838	0.01806
5622.08970	0.01809
5620.16103	0.01813
5618.23235	0.01817
5616.30368	0.01820
5614.37500	0.01823
5612.44632	0.01827
5610.51765	0.01831
5608.58897	0.01835
5606.66030	0.01838
5604.73162	0.01839
5602.80295	0.01841
5600.87427	0.01846
5598.94559	0.01852
5597.01692	0.01857
5595.08824	0.01859
5593.15957	0.01861
5591.23089	0.01865
5589.30222	0.01870
5587.37354	0.01876
5585.44486	0.01881
5583.51619	0.01884
5581.58751	0.01885
5579.65884	0.01887
5577.73016	0.01889
5575.80149	0.01893
5573.87281	0.01898
5571.94413	0.01903
5570.01546	0.01906
5568.08678	0.01909
5566.15811	0.01911
5564.22943	0.01914
5562.30076	0.01918
5560.37208	0.01921
5558.44340	0.01925
5556.51473	0.01930
5554.58605	0.01937
5552.65738	0.01942
5550.72870	0.01946
5548.80003	0.01948
5546.87135	0.01950
5544.94267	0.01953
5543.01400	0.01959
5541.08532	0.01963
5539.15665	0.01967
5537.22797	0.01970
5535.29930	0.01973
5533.37062	0.01975
5531.44194	0.01979
5529.51327	0.01985
5527.58459	0.01990
5525.65592	0.01993
5523.72724	0.01995
5521.79857	0.01997
5519.86989	0.02001
5517.94121	0.02006
5516.01254	0.02009
5514.08386	0.02011
5512.15519	0.02016
5510.22651	0.02022
5508.29784	0.02027
5506.36916	0.02029
5504.44048	0.02031
5502.51181	0.02035
5500.58313	0.02039
5498.65446	0.02042
5496.72578	0.02045
5494.79711	0.02049
5492.86843	0.02052
5490.93975	0.02055
5489.01108	0.02059
5487.08240	0.02065
5485.15373	0.02070
5483.22505	0.02074
5481.29638	0.02079
5479.36770	0.02084
5477.43902	0.02087
5475.51035	0.02090
5473.58167	0.02094
5471.65300	0.02098
5469.72432	0.02102
5467.79565	0.02105
5465.86697	0.02108
5463.93829	0.02111
5462.00962	0.02115
5460.08094	0.02122
5458.15227	0.02128
5456.22359	0.02131
5454.29492	0.02133
5452.36624	0.02136
5450.43756	0.02140
5448.50889	0.02144
5446.58021	0.02148
5444.65154	0.02151
5442.72286	0.02155
5440.79419	0.02161
5438.86551	0.02167
5436.93683	0.02171
5435.00816	0.02173
5433.07948	0.02177
5431.15081	0.02181
5429.22213	0.02184
5427.29346	0.02187
5425.36478	0.02191
5423.43610	0.02195
5421.50743	0.02199
5419.57875	0.02203
5417.65008	0.02206
5415.72140	0.02210
5413.79273	0.02214
5411.86405	0.02216
5409.93537	0.02221
5408.00670	0.02228
5406.07802	0.02233
5404.14935	0.02235
5402.22067	0.02237
5400.29200	0.02241
5398.36332	0.02246
5396.43464	0.02252
5394.50597	0.02257
5392.57729	0.02262
5390.64862	0.02266
5388.71994	0.02271
5386.79127	0.02276
5384.86259	0.02281
5382.93391	0.02286
5381.00524	0.02289
5379.07656	0.02292
5377.14789	0.02294
5375.21921	0.02298
5373.29054	0.02304
5371.36186	0.02309
5369.43318	0.02311
5367.50451	0.02313
5365.57583	0.02317
5363.64716	0.02321
5361.71848	0.02325
5359.78981	0.02329
5357.86113	0.02333
5355.93245	0.02337
5354.00378	0.02342
5352.07510	0.02349
5350.14643	0.02356
5348.21775	0.02359
5346.28908	0.02360
5344.36040	0.02362
5342.43172	0.02366
5340.50305	0.02371
5338.57437	0.02377
5336.64570	0.02383
5334.71702	0.02388
5332.78835	0.02392
5330.85967	0.02396
5328.93099	0.02400
5327.00232	0.02404
5325.07364	0.02408
5323.14497	0.02413
5321.21629	0.02417
5319.28762	0.02421
5317.35894	0.02425
5315.43026	0.02428
5313.50159	0.02433
5311.57291	0.02438
5309.64424	0.02443
5307.71556	0.02448
5305.78689	0.02452
5303.85821	0.02456
5301.92953	0.02459
5300.00086	0.02463
5298.07218	0.02468
5296.14351	0.02473
5294.21483	0.02478
5292.28616	0.02481
5290.35748	0.02482
5288.42880	0.02486
5286.50013	0.02491
5284.57145	0.02497
5282.64278	0.02501
5280.71410	0.02506
5278.78543	0.02510
5276.85675	0.02515
5274.92807	0.02520
5272.99940	0.02525
5271.07072	0.02530
5269.14205	0.02535
5267.21337	0.02538
5265.28470	0.02542
5263.35602	0.02547
5261.42734	0.02553
5259.49867	0.02556
5257.56999	0.02558
5255.64132	0.02561
5253.71264	0.02566
5251.78397	0.02572
5249.85529	0.02577
5247.92661	0.02581
5245.99794	0.02584
5244.06926	0.02588
5242.14059	0.02593
5240.21191	0.02597
5238.28324	0.02602
5236.35456	0.02607
5234.42588	0.02614
5232.49721	0.02619
5230.56853	0.02622
5228.63986	0.02626
5226.71118	0.02630
5224.78251	0.02635
5222.85383	0.02640
5220.92515	0.02645
5218.99648	0.02649
5217.06780	0.02654
5215.13913	0.02659
5213.21045	0.02664
5211.28178	0.02667
5209.35310	0.02672
5207.42442	0.02677
5205.49575	0.02680
5203.56707	0.02684
5201.63840	0.02688
5199.70972	0.02692
5197.78105	0.02696
5195.85237	0.02699
5193.92369	0.02704
5191.99502	0.02710
5190.06634	0.02715
5188.13767	0.02720
5186.20899	0.02726
5184.28032	0.02732
5182.35164	0.02737
5180.42296	0.02741
5178.49429	0.02744
5176.56561	0.02749
5174.63694	0.02753
5172.70826	0.02758
5170.77959	0.02764
5168.85091	0.02772
5166.92223	0.02777
5164.99356	0.02782
5163.06488	0.02785
5161.13621	0.02787
5159.20753	0.02789
5157.27886	0.02792
5155.35018	0.02798
5153.42150	0.02805
5151.49283	0.02811
5149.56415	0.02815
5147.63548	0.02818
5145.70680	0.02822
5143.77813	0.02827
5141.84945	0.02833
5139.92077	0.02839
5137.99210	0.02844
5136.06342	0.02849
5134.13475	0.02853
5132.20607	0.02857
5130.27740	0.02861
5128.34872	0.02865
5126.42004	0.02868
5124.49137	0.02874
5122.56269	0.02880
5120.63402	0.02885
5118.70534	0.02888
5116.77667	0.02893
5114.84799	0.02898
5112.91931	0.02904
5110.99064	0.02909
5109.06196	0.02915
5107.13329	0.02920
5105.20461	0.02924
5103.27594	0.02927
5101.34726	0.02929
5099.41858	0.02933
5097.48991	0.02940
5095.56123	0.02948
5093.63256	0.02954
5091.70388	0.02957
5089.77521	0.02961
5087.84653	0.02966
5085.91785	0.02971
5083.98918	0.02976
5082.06050	0.02981
5080.13183	0.02986
5078.20315	0.02992
5076.27448	0.02996
5074.34580	0.02999
5072.41712	0.03004
5070.48845	0.03010
5068.55977	0.03015
5066.63110	0.03021
5064.70242	0.03028
5062.77375	0.03035
5060.84507	0.03038
5058.91639	0.03041
5056.98772	0.03044
5055.05904	0.03049
5053.13037	0.03054
5051.20169	0.03059
5049.27302	0.03065
5047.34434	0.03071
5045.41566	0.03075
5043.48699	0.03079
5041.55831	0.03084
5039.62964	0.03089
5037.70096	0.03095
5035.77229	0.03100
5033.84361	0.03104
5031.91493	0.03111
5029.98626	0.03118
5028.05758	0.03122
5026.12891	0.03126
5024.20023	0.03130
5022.27156	0.03134
5020.34288	0.03138
5018.41420	0.03143
5016.48553	0.03148
5014.55685	0.03154
5012.62818	0.03161
5010.69950	0.03166
5008.77083	0.03170
5006.84215	0.03175
5004.91347	0.03181
5002.98480	0.03186
5001.05612	0.03191
4999.12745	0.03198
4997.19877	0.03205
4995.27010	0.03210
4993.34142	0.03214
4991.41274	0.03220
4989.48407	0.03227
4987.55539	0.03232
4985.62672	0.03235
4983.69804	0.03236
4981.76937	0.03237
4979.84069	0.03243
4977.91201	0.03252
4975.98334	0.03260
4974.05466	0.03265
4972.12599	0.03269
4970.19731	0.03273
4968.26864	0.03277
4966.33996	0.03281
4964.41128	0.03287
4962.48261	0.03294
4960.55393	0.03301
4958.62526	0.03307
4956.69658	0.03313
4954.76791	0.03318
4952.83923	0.03324
4950.91055	0.03328
4948.98188	0.03332
4947.05320	0.03337
4945.12453	0.03342
4943.19585	0.03347
4941.26718	0.03353
4939.33850	0.03359
4937.40982	0.03364
4935.48115	0.03369
4933.55247	0.03373
4931.62380	0.03376
4929.69512	0.03380
4927.76645	0.03386
4925.83777	0.03391
4923.90909	0.03396
4921.98042	0.03402
4920.05174	0.03409
4918.12307	0.03416
4916.19439	0.03421
4914.26572	0.03424
4912.33704	0.03429
4910.40836	0.03435
4908.47969	0.03441
4906.55101	0.03448
4904.62234	0.03454
4902.69366	0.03459
4900.76499	0.03464
4898.83631	0.03469
4896.90763	0.03475
4894.97896	0.03480
4893.05028	0.03486
4891.12161	0.03491
4889.19293	0.03495
4887.26426	0.03499
4885.33558	0.03504
4883.40690	0.03510
4881.47823	0.03516
4879.54955	0.03523
4877.62088	0.03530
4875.69220	0.03536
4873.76353	0.03541
4871.83485	0.03547
4869.90617	0.03554
4867.97750	0.03558
4866.04882	0.03562
4864.12015	0.03566
4862.19147	0.03572
4860.26280	0.03578
4858.33412	0.03585
4856.40544	0.03590
4854.47677	0.03594
4852.54809	0.03598
4850.61942	0.03603
4848.69074	0.03610
4846.76207	0.03617
4844.83339	0.03622
4842.90471	0.03628
4840.97604	0.03635
4839.04736	0.03641
4837.11869	0.03648
4835.19001	0.03654
4833.26134	0.03659
4831.33266	0.03665
4829.40398	0.03672
4827.47531	0.03679
4825.54663	0.03686
4823.61796	0.03692
4821.68928	0.03697
4819.76061	0.03702
4817.83193	0.03705
4815.90325	0.03708
4813.97458	0.03714
4812.04590	0.03722
4810.11723	0.03728
4808.18855	0.03734
4806.25988	0.03740
4804.33120	0.03746
4802.40252	0.03751
4800.47385	0.03757
4798.54517	0.03763
4796.61650	0.03769
4794.68782	0.03774
4792.75915	0.03778
4790.83047	0.03782
4788.90179	0.03789
4786.97312	0.03799
4785.04444	0.03807
4783.11577	0.03813
4781.18709	0.03817
4779.25842	0.03822
4777.32974	0.03828
4775.40106	0.03834
4773.47239	0.03839
4771.54371	0.03844
4769.61504	0.03851
4767.68636	0.03857
4765.75769	0.03862
4763.82901	0.03869
4761.90033	0.03876
4759.97166	0.03883
4758.04298	0.03889
4756.11431	0.03894
4754.18563	0.03901
4752.25696	0.03909
4750.32828	0.03915
4748.39960	0.03920
4746.47093	0.03925
4744.54225	0.03931
4742.61358	0.03936
4740.68490	0.03942
4738.75623	0.03950
4736.82755	0.03957
4734.89887	0.03963
4732.97020	0.03969
4731.04152	0.03975
4729.11285	0.03981
4727.18417	0.03986
4725.25550	0.03993
4723.32682	0.04001
4721.39814	0.04007
4719.46947	0.04015
4717.54079	0.04022
4715.61212	0.04029
4713.68344	0.04034
4711.75477	0.04039
4709.82609	0.04045
4707.89741	0.04052
4705.96874	0.04058
4704.04006	0.04063
4702.11139	0.04068
4700.18271	0.04075
4698.25404	0.04082
4696.32536	0.04087
4694.39668	0.04093
4692.46801	0.04101
4690.53933	0.04109
4688.61066	0.04115
4686.68198	0.04120
4684.75331	0.04125
4682.82463	0.04133
4680.89595	0.04140
4678.96728	0.04147
4677.03860	0.04154
4675.10993	0.04160
4673.18125	0.04166
4671.25258	0.04174
4669.32390	0.04184
4667.39522	0.04192
4665.46655	0.04199
4663.53787	0.04206
4661.60920	0.04210
4659.68052	0.04212
4657.75185	0.04219
4655.82317	0.04228
4653.89449	0.04236
4651.96582	0.04241
4650.03714	0.04248
4648.10847	0.04255
4646.17979	0.04262
4644.25112	0.04269
4642.32244	0.04277
4640.39376	0.04284
4638.46509	0.04290
4636.53641	0.04295
4634.60774	0.04300
4632.67906	0.04306
4630.75039	0.04312
4628.82171	0.04319
4626.89303	0.04327
4624.96436	0.04335
4623.03568	0.04343
4621.10701	0.04351
4619.17833	0.04359
4617.24966	0.04367
4615.32098	0.04374
4613.39230	0.04380
4611.46363	0.04385
4609.53495	0.04392
4607.60628	0.04400
4605.67760	0.04406
4603.74893	0.04414
4601.82025	0.04422
4599.89157	0.04429
4597.96290	0.04436
4596.03422	0.04444
4594.10555	0.04452
4592.17687	0.04457
4590.24820	0.04463
4588.31952	0.04468
4586.39084	0.04475
4584.46217	0.04483
4582.53349	0.04492
4580.60482	0.04500
4578.67614	0.04507
4576.74747	0.04516
4574.81879	0.04525
4572.89011	0.04533
4570.96144	0.04540
4569.03276	0.04547
4567.10409	0.04555
4565.17541	0.04563
4563.24674	0.04570
4561.31806	0.04576
4559.38938	0.04584
4557.46071	0.04593
4555.53203	0.04601
4553.60336	0.04607
4551.67468	0.04614
4549.74601	0.04622
4547.81733	0.04630
4545.88865	0.04637
4543.95998	0.04645
4542.03130	0.04653
4540.10263	0.04659
4538.17395	0.04666
4536.24528	0.04675
4534.31660	0.04685
4532.38792	0.04693
4530.45925	0.04701
4528.53057	0.04709
4526.60190	0.04715
4524.67322	0.04721
4522.74455	0.04728
4520.81587	0.04736
4518.88719	0.04744
4516.95852	0.04753
4515.02984	0.04760
4513.10117	0.04768
4511.17249	0.04775
4509.24382	0.04784
4507.31514	0.04793
4505.38646	0.04802
4503.45779	0.04811
4501.52911	0.04818
4499.60044	0.04823
4497.67176	0.04830
4495.74309	0.04839
4493.81441	0.04850
4491.88573	0.04858
4489.95706	0.04865
4488.02838	0.04871
4486.09971	0.04878
4484.17103	0.04888
4482.24236	0.04897
4480.31368	0.04906
4478.38500	0.04914
4476.45633	0.04923
4474.52765	0.04930
4472.59898	0.04935
4470.67030	0.04941
4468.74163	0.04948
4466.81295	0.04957
4464.88427	0.04968
4462.95560	0.04979
4461.02692	0.04990
4459.09825	0.04999
4457.16957	0.05008
4455.24090	0.05018
4453.31222	0.05026
4451.38354	0.05032
4449.45487	0.05038
4447.52619	0.05043
4445.59752	0.05050
4443.66884	0.05060
4441.74017	0.05070
4439.81149	0.05081
4437.88281	0.05091
4435.95414	0.05101
4434.02546	0.05111
4432.09679	0.05119
4430.16811	0.05125
4428.23944	0.05131
4426.31076	0.05140
4424.38208	0.05151
4422.45341	0.05161
4420.52473	0.05169
4418.59606	0.05178
4416.66738	0.05187
4414.73871	0.05196
4412.81003	0.05205
4410.88135	0.05214
4408.95268	0.05223
4407.02400	0.05232
4405.09533	0.05240
4403.16665	0.05249
4401.23798	0.05259
4399.30930	0.05270
4397.38062	0.05280
4395.45195	0.05288
4393.52327	0.05298
4391.59460	0.05308
4389.66592	0.05317
4387.73725	0.05323
4385.80857	0.05329
4383.87989	0.05337
4381.95122	0.05347
4380.02254	0.05357
4378.09387	0.05366
4376.16519	0.05378
4374.23652	0.05390
4372.30784	0.05400
4370.37916	0.05408
4368.45049	0.05417
4366.52181	0.05426
4364.59314	0.05435
4362.66446	0.05445
4360.73579	0.05456
4358.80711	0.05466
4356.87843	0.05474
4354.94976	0.05482
4353.02108	0.05493
4351.09241	0.05504
4349.16373	0.05514
4347.23506	0.05524
4345.30638	0.05534
4343.37770	0.05544
4341.44903	0.05552
4339.52035	0.05561
4337.59168	0.05571
4335.66300	0.05581
4333.73433	0.05590
4331.80565	0.05600
4329.87697	0.05611
4327.94830	0.05622
4326.01962	0.05631
4324.09095	0.05638
4322.16227	0.05648
4320.23360	0.05662
4318.30492	0.05675
4316.37624	0.05686
4314.44757	0.05696
4312.51889	0.05706
4310.59022	0.05715
4308.66154	0.05726
4306.73287	0.05735
4304.80419	0.05743
4302.87551	0.05753
4300.94684	0.05763
4299.01816	0.05770
4297.08949	0.05779
4295.16081	0.05790
4293.23214	0.05803
4291.30346	0.05817
4289.37478	0.05829
4287.44611	0.05840
4285.51743	0.05850
4283.58876	0.05860
4281.66008	0.05871
4279.73141	0.05883
4277.80273	0.05895
4275.87405	0.05904
4273.94538	0.05913
4272.01670	0.05923
4270.08803	0.05934
4268.15935	0.05944
4266.23068	0.05953
4264.30200	0.05963
4262.37332	0.05974
4260.44465	0.05984
4258.51597	0.05996
4256.58730	0.06009
4254.65862	0.06020
4252.72995	0.06031
4250.80127	0.06040
4248.87259	0.06048
4246.94392	0.06060
4245.01524	0.06074
4243.08657	0.06087
4241.15789	0.06098
4239.22922	0.06108
4237.30054	0.06119
4235.37186	0.06130
4233.44319	0.06140
4231.51451	0.06151
4229.58584	0.06163
4227.65716	0.06174
4225.72849	0.06186
4223.79981	0.06197
4221.87113	0.06207
4219.94246	0.06219
4218.01378	0.06232
4216.08511	0.06243
4214.15643	0.06254
4212.22776	0.06265
4210.29908	0.06277
4208.37040	0.06288
4206.44173	0.06300
4204.51305	0.06313
4202.58438	0.06326
4200.65570	0.06336
4198.72703	0.06346
4196.79835	0.06357
4194.86968	0.06369
4192.94100	0.06381
4191.01232	0.06392
4189.08365	0.06405
4187.15497	0.06417
4185.22630	0.06427
4183.29762	0.06437
4181.36895	0.06448
4179.44027	0.06461
4177.51159	0.06473
4175.58292	0.06485
4173.65424	0.06497
4171.72557	0.06509
4169.79689	0.06521
4167.86822	0.06535
4165.93954	0.06548
4164.01086	0.06560
4162.08219	0.06572
4160.15351	0.06585
4158.22484	0.06596
4156.29616	0.06608
4154.36749	0.06621
4152.43881	0.06632
4150.51013	0.06643
4148.58146	0.06656
4146.65278	0.06671
4144.72411	0.06684
4142.79543	0.06695
4140.86676	0.06706
4138.93808	0.06718
4137.00940	0.06731
4135.08073	0.06744
4133.15205	0.06757
4131.22338	0.06769
4129.29470	0.06781
4127.36603	0.06796
4125.43735	0.06811
4123.50867	0.06823
4121.58000	0.06833
4119.65132	0.06845
4117.72265	0.06860
4115.79397	0.06873
4113.86530	0.06884
4111.93662	0.06897
4110.00794	0.06911
4108.07927	0.06924
4106.15059	0.06936
4104.22192	0.06947
4102.29324	0.06959
4100.36457	0.06973
4098.43589	0.06986
4096.50721	0.07000
4094.57854	0.07012
4092.64986	0.07024
4090.72119	0.07035
4088.79251	0.07047
4086.86384	0.07061
4084.93516	0.07076
4083.00648	0.07090
4081.07781	0.07104
4079.14913	0.07116
4077.22046	0.07130
4075.29178	0.07144
4073.36311	0.07155
4071.43443	0.07168
4069.50575	0.07183
4067.57708	0.07196
4065.64840	0.07208
4063.71973	0.07223
4061.79105	0.07241
4059.86238	0.07257
4057.93370	0.07270
4056.00502	0.07284
4054.07635	0.07298
4052.14767	0.07310
4050.21900	0.07321
4048.29032	0.07332
4046.36165	0.07346
4044.43297	0.07361
4042.50429	0.07377
4040.57562	0.07393
4038.64694	0.07407
4036.71827	0.07419
4034.78959	0.07431
4032.86092	0.07443
4030.93224	0.07458
4029.00356	0.07473
4027.07489	0.07488
4025.14621	0.07500
4023.21754	0.07513
4021.28886	0.07529
4019.36019	0.07543
4017.43151	0.07557
4015.50283	0.07570
4013.57416	0.07584
4011.64548	0.07597
4009.71681	0.07612
4007.78813	0.07628
4005.85946	0.07644
4003.93078	0.07659
4002.00210	0.07672
4000.07343	0.07687
3998.14475	0.07701
3996.21608	0.07715
3994.28740	0.07729
3992.35873	0.07743
3990.43005	0.07756
3988.50137	0.07770
3986.57270	0.07786
3984.64402	0.07803
3982.71535	0.07820
3980.78667	0.07835
3978.85800	0.07849
3976.92932	0.07862
3975.00064	0.07875
3973.07197	0.07888
3971.14329	0.07903
3969.21462	0.07918
3967.28594	0.07932
3965.35727	0.07946
3963.42859	0.07960
3961.49991	0.07974
3959.57124	0.07989
3957.64256	0.08007
3955.71389	0.08025
3953.78521	0.08041
3951.85654	0.08056
3949.92786	0.08069
3947.99918	0.08081
3946.07051	0.08095
3944.14183	0.08112
3942.21316	0.08128
3940.28448	0.08144
3938.35581	0.08159
3936.42713	0.08176
3934.49845	0.08191
3932.56978	0.08204
3930.64110	0.08217
3928.71243	0.08232
3926.78375	0.08249
3924.85508	0.08265
3922.92640	0.08281
3920.99772	0.08296
3919.06905	0.08311
3917.14037	0.08328
3915.21170	0.08343
3913.28302	0.08356
3911.35435	0.08370
3909.42567	0.08385
3907.49699	0.08397
3905.56832	0.08408
3903.63964	0.08421
3901.71097	0.08437
3899.78229	0.08457
3897.85362	0.08480
3895.92494	0.08498
3893.99626	0.08512
3892.06759	0.08525
3890.13891	0.08541
3888.21024	0.08556
3886.28156	0.08570
3884.35289	0.08586
3882.42421	0.08602
3880.49553	0.08617
3878.56686	0.08634
3876.63818	0.08651
3874.70951	0.08667
3872.78083	0.08680
3870.85216	0.08693
3868.92348	0.08710
3866.99480	0.08730
3865.06613	0.08746
3863.13745	0.08761
3861.20878	0.08779
3859.28010	0.08796
3857.35143	0.08806
3855.42275	0.08807
3853.49407	0.08816
3851.56540	0.08845
3849.63672	0.08878
3847.70805	0.08901
3845.77937	0.08916
3843.85070	0.08930
3841.92202	0.08941
3839.99334	0.08950
3838.06467	0.08963
3836.13599	0.08985
3834.20732	0.09010
3832.27864	0.09032
3830.34997	0.09050
3828.42129	0.09068
3826.49261	0.09085
3824.56394	0.09098
3822.63526	0.09105
3820.70659	0.09117
3818.77791	0.09135
3816.84924	0.09153
3814.92056	0.09177
3812.99188	0.09205
3811.06321	0.09224
3809.13453	0.09233
3807.20586	0.09244
3805.27718	0.09261
3803.34851	0.09277
3801.41983	0.09293
3799.49115	0.09314
3797.56248	0.09334
3795.63380	0.09352
3793.70513	0.09372
3791.77645	0.09391
3789.84778	0.09408
3787.91910	0.09425
3785.99042	0.09442
3784.06175	0.09460
3782.13307	0.09477
3780.20440	0.09491
3778.27572	0.09507
3776.34705	0.09527
3774.41837	0.09545
3772.48969	0.09561
3770.56102	0.09576
3768.63234	0.09592
3766.70367	0.09608
3764.77499	0.09625
3762.84632	0.09643
3760.91764	0.09659
3758.98896	0.09676
3757.06029	0.09695
3755.13161	0.09708
3753.20294	0.09713
3751.27426	0.09722
3749.34559	0.09740
3747.41691	0.09759
3745.48823	0.09773
3743.55956	0.09796
3741.63088	0.09828
3739.70221	0.09851
3737.77353	0.09863
3735.84486	0.09875
3733.91618	0.09891
3731.98750	0.09909
3730.05883	0.09931
3728.13015	0.09953
3726.20148	0.09973
3724.27280	0.09991
3722.34413	0.10009
3720.41545	0.10026
3718.48677	0.10045
3716.55810	0.10062
3714.62942	0.10074
3712.70075	0.10086
3710.77207	0.10103
3708.84340	0.10126
3706.91472	0.10147
3704.98604	0.10166
3703.05737	0.10184
3701.12869	0.10201
3699.20002	0.10219
3697.27134	0.10238
3695.34267	0.10256
3693.41399	0.10271
3691.48531	0.10280
3689.55664	0.10288
3687.62796	0.10306
3685.69929	0.10334
3683.77061	0.10359
3681.84194	0.10376
3679.91326	0.10387
3677.98458	0.10390
3676.05591	0.10396
3674.12723	0.10415
3672.19856	0.10438
3670.26988	0.10461
3668.34121	0.10487
3666.41253	0.10513
3664.48385	0.10534
3662.55518	0.10549
3660.62650	0.10562
3658.69783	0.10573
3656.76915	0.10585
3654.84048	0.10600
3652.91180	0.10610
3650.98312	0.10607
3649.05445	0.10604
3647.12577	0.10617
3645.19710	0.10649
3643.26842	0.10682
3641.33975	0.10707
3639.41107	0.10728
3637.48239	0.10747
3635.55372	0.10763
3633.62504	0.10776
3631.69637	0.10782
3629.76769	0.10788
3627.83902	0.10804
3625.91034	0.10827
3623.98166	0.10846
3622.05299	0.10859
3620.12431	0.10872
3618.19564	0.10887
3616.26696	0.10902
3614.33829	0.10915
3612.40961	0.10926
3610.48093	0.10937
3608.55226	0.10950
3606.62358	0.10967
3604.69491	0.10984
3602.76623	0.11000
3600.83756	0.11015
3598.90888	0.11031
3596.98020	0.11045
3595.05153	0.11059
3593.12285	0.11073
3591.19418	0.11086
3589.26550	0.11098
3587.33683	0.11112
3585.40815	0.11131
3583.47947	0.11147
3581.55080	0.11163
3579.62212	0.11178
3577.69345	0.11193
3575.76477	0.11207
3573.83610	0.11222
3571.90742	0.11236
3569.97874	0.11249
3568.05007	0.11260
3566.12139	0.11275
3564.19272	0.11293
3562.26404	0.11312
3560.33537	0.11327
3558.40669	0.11342
3556.47801	0.11356
3554.54934	0.11370
3552.62066	0.11383
3550.69199	0.11395
3548.76331	0.11409
3546.83464	0.11423
3544.90596	0.11434
3542.97728	0.11446
3541.04861	0.11459
3539.11993	0.11473
3537.19126	0.11484
3535.26258	0.11494
3533.33391	0.11504
3531.40523	0.11513
3529.47655	0.11520
3527.54788	0.11527
3525.61920	0.11535
3523.69053	0.11543
3521.76185	0.11551
3519.83318	0.11559
3517.90450	0.11568
3515.97582	0.11578
3514.04715	0.11588
3512.11847	0.11595
3510.18980	0.11599
3508.26112	0.11603
3506.33245	0.11610
3504.40377	0.11617
3502.47509	0.11623
3500.54642	0.11630
3498.61774	0.11636
3496.68907	0.11641
3494.76039	0.11645
3492.83172	0.11651
3490.90304	0.11658
3488.97436	0.11665
3487.04569	0.11673
3485.11701	0.11679
3483.18834	0.11684
3481.25966	0.11692
3479.33099	0.11704
3477.40231	0.11718
3475.47363	0.11731
3473.54496	0.11743
3471.61628	0.11759
3469.68761	0.11779
3467.75893	0.11800
3465.83026	0.11822
3463.90158	0.11844
3461.97290	0.11864
3460.04423	0.11883
3458.11555	0.11900
3456.18688	0.11916
3454.25820	0.11932
3452.32953	0.11947
3450.40085	0.11963
3448.47217	0.11981
3446.54350	0.12000
3444.61482	0.12018
3442.68615	0.12038
3440.75747	0.12062
3438.82880	0.12092
3436.90012	0.12124
3434.97144	0.12158
3433.04277	0.12194
3431.11409	0.12234
3429.18542	0.12274
3427.25674	0.12311
3425.32807	0.12346
3423.39939	0.12379
3421.47071	0.12412
3419.54204	0.12447
3417.61336	0.12481
3415.68469	0.12514
3413.75601	0.12546
3411.82734	0.12573
3409.89866	0.12598
3407.96998	0.12622
3406.04131	0.12645
3404.11263	0.12665
3402.18396	0.12688
3400.25528	0.12713
3398.32661	0.12740
3396.39793	0.12768
3394.46925	0.12795
3392.54058	0.12823
3390.61190	0.12851
3388.68323	0.12878
3386.75455	0.12903
3384.82588	0.12926
3382.89720	0.12949
3380.96852	0.12972
3379.03985	0.12994
3377.11117	0.13018
3375.18250	0.13047
3373.25382	0.13075
3371.32515	0.13100
3369.39647	0.13119
3367.46779	0.13141
3365.53912	0.13166
3363.61044	0.13188
3361.68177	0.13209
3359.75309	0.13232
3357.82442	0.13255
3355.89574	0.13278
3353.96706	0.13303
3352.03839	0.13328
3350.10971	0.13352
3348.18104	0.13376
3346.25236	0.13397
3344.32369	0.13417
3342.39501	0.13439
3340.46633	0.13464
3338.53766	0.13489
3336.60898	0.13511
3334.68031	0.13534
3332.75163	0.13557
3330.82296	0.13580
3328.89428	0.13601
3326.96560	0.13622
3325.03693	0.13648
3323.10825	0.13678
3321.17958	0.13704
3319.25090	0.13726
3317.32223	0.13748
3315.39355	0.13771
3313.46487	0.13795
3311.53620	0.13819
3309.60752	0.13844
3307.67885	0.13869
3305.75017	0.13893
3303.82150	0.13920
3301.89282	0.13945
3299.96414	0.13969
3298.03547	0.13994
3296.10679	0.14020
3294.17812	0.14044
3292.24944	0.14065
3290.32077	0.14089
3288.39209	0.14116
3286.46341	0.14142
3284.53474	0.14166
3282.60606	0.14191
3280.67739	0.14217
3278.74871	0.14242
3276.82004	0.14268
3274.89136	0.14295
3272.96268	0.14326
3271.03401	0.14355
3269.10533	0.14380
3267.17666	0.14403
3265.24798	0.14426
3263.31931	0.14451
3261.39063	0.14479
3259.46195	0.14508
3257.53328	0.14535
3255.60460	0.14557
3253.67593	0.14576
3251.74725	0.14598
3249.81858	0.14625
3247.88990	0.14652
3245.96122	0.14680
3244.03255	0.14710
3242.10387	0.14739
3240.17520	0.14765
3238.24652	0.14790
3236.31785	0.14815
3234.38917	0.14840
3232.46049	0.14866
3230.53182	0.14893
3228.60314	0.14917
3226.67447	0.14939
3224.74579	0.14961
3222.81712	0.14984
3220.88844	0.15007
3218.95976	0.15033
3217.03109	0.15060
3215.10241	0.15088
3213.17374	0.15117
3211.24506	0.15143
3209.31639	0.15167
3207.38771	0.15191
3205.45903	0.15217
3203.53036	0.15244
3201.60168	0.15273
3199.67301	0.15301
3197.74433	0.15328
3195.81566	0.15355
3193.88698	0.15384
3191.95830	0.15414
3190.02963	0.15442
3188.10095	0.15468
3186.17228	0.15494
3184.24360	0.15520
3182.31493	0.15547
3180.38625	0.15575
3178.45757	0.15602
3176.52890	0.15627
3174.60022	0.15651
3172.67155	0.15677
3170.74287	0.15705
3168.81420	0.15734
3166.88552	0.15761
3164.95684	0.15787
3163.02817	0.15813
3161.09949	0.15837
3159.17082	0.15862
3157.24214	0.15890
3155.31347	0.15918
3153.38479	0.15944
3151.45611	0.15972
3149.52744	0.16000
3147.59876	0.16028
3145.67009	0.16058
3143.74141	0.16088
3141.81274	0.16112
3139.88406	0.16134
3137.95538	0.16156
3136.02671	0.16181
3134.09803	0.16207
3132.16936	0.16234
3130.24068	0.16261
3128.31201	0.16287
3126.38333	0.16313
3124.45465	0.16340
3122.52598	0.16368
3120.59730	0.16395
3118.66863	0.16422
3116.73995	0.16449
3114.81128	0.16474
3112.88260	0.16499
3110.95392	0.16526
3109.02525	0.16555
3107.09657	0.16585
3105.16790	0.16613
3103.23922	0.16638
3101.31055	0.16662
3099.38187	0.16689
3097.45319	0.16717
3095.52452	0.16744
3093.59584	0.16768
3091.66717	0.16792
3089.73849	0.16819
3087.80982	0.16846
3085.88114	0.16872
3083.95246	0.16896
3082.02379	0.16922
3080.09511	0.16951
3078.16644	0.16981
3076.23776	0.17008
3074.30909	0.17036
3072.38041	0.17066
3070.45173	0.17095
3068.52306	0.17119
3066.59438	0.17141
3064.66571	0.17165
3062.73703	0.17194
3060.80836	0.17224
3058.87968	0.17253
3056.95100	0.17280
3055.02233	0.17303
3053.09365	0.17324
3051.16498	0.17346
3049.23630	0.17372
3047.30763	0.17398
3045.37895	0.17423
3043.45027	0.17449
3041.52160	0.17478
3039.59292	0.17507
3037.66425	0.17534
3035.73557	0.17558
3033.80690	0.17581
3031.87822	0.17607
3029.94954	0.17634
3028.02087	0.17662
3026.09219	0.17691
3024.16352	0.17722
3022.23484	0.17750
3020.30617	0.17770
3018.37749	0.17789
3016.44881	0.17815
3014.52014	0.17844
3012.59146	0.17873
3010.66279	0.17903
3008.73411	0.17932
3006.80544	0.17958
3004.87676	0.17981
3002.94808	0.18005
3001.01941	0.18029
2999.09073	0.18055
2997.16206	0.18082
2995.23338	0.18108
2993.30471	0.18132
2991.37603	0.18155
2989.44735	0.18178
2987.51868	0.18198
2985.59000	0.18216
2983.66133	0.18233
2981.73265	0.18250
2979.80398	0.18264
2977.87530	0.18276
2975.94662	0.18283
2974.01795	0.18285
2972.08927	0.18284
2970.16060	0.18280
2968.23192	0.18275
2966.30325	0.18276
2964.37457	0.18285
2962.44589	0.18303
2960.51722	0.18327
2958.58854	0.18357
2956.65987	0.18389
2954.73119	0.18422
2952.80252	0.18457
2950.87384	0.18492
2948.94516	0.18522
2947.01649	0.18547
2945.08781	0.18568
2943.15914	0.18581
2941.23046	0.18585
2939.30179	0.18584
2937.37311	0.18581
2935.44443	0.18577
2933.51576	0.18571
2931.58708	0.18567
2929.65841	0.18562
2927.72973	0.18556
2925.80106	0.18553
2923.87238	0.18552
2921.94370	0.18555
2920.01503	0.18566
2918.08635	0.18597
2916.15768	0.18656
2914.22900	0.18738
2912.30033	0.18827
2910.37165	0.18908
2908.44297	0.18974
2906.51430	0.19029
2904.58562	0.19078
2902.65695	0.19121
2900.72827	0.19161
2898.79960	0.19201
2896.87092	0.19243
2894.94224	0.19281
2893.01357	0.19315
2891.08489	0.19352
2889.15622	0.19391
2887.22754	0.19429
2885.29887	0.19463
2883.37019	0.19494
2881.44151	0.19521
2879.51284	0.19544
2877.58416	0.19567
2875.65549	0.19593
2873.72681	0.19620
2871.79814	0.19646
2869.86946	0.19671
2867.94078	0.19696
2866.01211	0.19717
2864.08343	0.19733
2862.15476	0.19744
2860.22608	0.19747
2858.29741	0.19746
2856.36873	0.19743
2854.44005	0.19740
2852.51138	0.19739
2850.58270	0.19756
2848.65403	0.19808
2846.72535	0.19891
2844.79668	0.19984
2842.86800	0.20066
2840.93932	0.20130
2839.01065	0.20181
2837.08197	0.20226
2835.15330	0.20266
2833.22462	0.20303
2831.29595	0.20340
2829.36727	0.20377
2827.43859	0.20412
2825.50992	0.20444
2823.58124	0.20475
2821.65257	0.20508
2819.72389	0.20538
2817.79522	0.20567
2815.86654	0.20593
2813.93786	0.20621
2812.00919	0.20653
2810.08051	0.20687
2808.15184	0.20717
2806.22316	0.20742
2804.29449	0.20769
2802.36581	0.20800
2800.43713	0.20834
2798.50846	0.20866
2796.57978	0.20898
2794.65111	0.20929
2792.72243	0.20958
2790.79376	0.20985
2788.86508	0.21013
2786.93640	0.21044
2785.00773	0.21074
2783.07905	0.21102
2781.15038	0.21128
2779.22170	0.21157
2777.29303	0.21188
2775.36435	0.21215
2773.43567	0.21239
2771.50700	0.21266
2769.57832	0.21298
2767.64965	0.21330
2765.72097	0.21358
2763.79230	0.21386
2761.86362	0.21416
2759.93494	0.21443
2758.00627	0.21467
2756.07759	0.21493
2754.14892	0.21523
2752.22024	0.21554
2750.29157	0.21583
2748.36289	0.21610
2746.43421	0.21639
2744.50554	0.21669
2742.57686	0.21698
2740.64819	0.21723
2738.71951	0.21746
2736.79084	0.21771
2734.86216	0.21799
2732.93348	0.21829
2731.00481	0.21857
2729.07613	0.21885
2727.14746	0.21914
2725.21878	0.21945
2723.29011	0.21978
2721.36143	0.22005
2719.43275	0.22027
2717.50408	0.22050
2715.57540	0.22078
2713.64673	0.22110
2711.71805	0.22139
2709.78938	0.22164
2707.86070	0.22190
2705.93202	0.22218
2704.00335	0.22248
2702.07467	0.22277
2700.14600	0.22306
2698.21732	0.22333
2696.28865	0.22358
2694.35997	0.22383
2692.43129	0.22410
2690.50262	0.22440
2688.57394	0.22470
2686.64527	0.22500
2684.71659	0.22529
2682.78792	0.22556
2680.85924	0.22581
2678.93056	0.22605
2677.00189	0.22631
2675.07321	0.22661
2673.14454	0.22691
2671.21586	0.22717
2669.28719	0.22739
2667.35851	0.22763
2665.42983	0.22791
2663.50116	0.22822
2661.57248	0.22854
2659.64381	0.22883
2657.71513	0.22908
2655.78646	0.22933
2653.85778	0.22961
2651.92910	0.22992
2650.00043	0.23025
2648.07175	0.23055
2646.14308	0.23083
2644.21440	0.23109
2642.28573	0.23134
2640.35705	0.23162
2638.42837	0.23193
2636.49970	0.23225
2634.57102	0.23256
2632.64235	0.23284
2630.71367	0.23312
2628.78500	0.23341
2626.85632	0.23371
2624.92764	0.23402
2622.99897	0.23433
2621.07029	0.23462
2619.14162	0.23490
2617.21294	0.23518
2615.28427	0.23550
2613.35559	0.23583
2611.42691	0.23616
2609.49824	0.23644
2607.56956	0.23672
2605.64089	0.23704
2603.71221	0.23739
2601.78354	0.23771
2599.85486	0.23799
2597.92618	0.23827
2595.99751	0.23856
2594.06883	0.23884
2592.14016	0.23910
2590.21148	0.23937
2588.28281	0.23966
2586.35413	0.23997
2584.42545	0.24028
2582.49678	0.24058
2580.56810	0.24088
2578.63943	0.24118
2576.71075	0.24148
2574.78208	0.24175
2572.85340	0.24201
2570.92472	0.24231
2568.99605	0.24262
2567.06737	0.24290
2565.13870	0.24315
2563.21002	0.24342
2561.28135	0.24369
2559.35267	0.24398
2557.42399	0.24428
2555.49532	0.24457
2553.56664	0.24488
2551.63797	0.24517
2549.70929	0.24545
2547.78062	0.24574
2545.85194	0.24604
2543.92326	0.24630
2541.99459	0.24655
2540.06591	0.24684
2538.13724	0.24713
2536.20856	0.24740
2534.27989	0.24768
2532.35121	0.24799
2530.42253	0.24832
2528.49386	0.24862
2526.56518	0.24891
2524.63651	0.24920
2522.70783	0.24951
2520.77916	0.24983
2518.85048	0.25014
2516.92181	0.25041
2514.99313	0.25067
2513.06445	0.25095
2511.13578	0.25125
2509.20710	0.25156
2507.27843	0.25189
2505.34975	0.25221
2503.42108	0.25252
2501.49240	0.25282
2499.56372	0.25313
2497.63505	0.25347
2495.70637	0.25378
2493.77770	0.25408
2491.84902	0.25441
2489.92035	0.25476
2487.99167	0.25510
2486.06299	0.25542
2484.13432	0.25573
2482.20564	0.25603
2480.27697	0.25633
2478.34829	0.25665
2476.41962	0.25698
2474.49094	0.25731
2472.56226	0.25765
2470.63359	0.25800
2468.70491	0.25830
2466.77624	0.25853
2464.84756	0.25879
2462.91889	0.25913
2460.99021	0.25948
2459.06153	0.25980
2457.13286	0.26010
2455.20418	0.26039
2453.27551	0.26067
2451.34683	0.26097
2449.41816	0.26130
2447.48948	0.26162
2445.56080	0.26190
2443.63213	0.26219
2441.70345	0.26250
2439.77478	0.26284
2437.84610	0.26318
2435.91743	0.26349
2433.98875	0.26376
2432.06007	0.26404
2430.13140	0.26435
2428.20272	0.26469
2426.27405	0.26501
2424.34537	0.26534
2422.41670	0.26566
2420.48802	0.26596
2418.55934	0.26625
2416.63067	0.26652
2414.70199	0.26679
2412.77332	0.26709
2410.84464	0.26741
2408.91597	0.26773
2406.98729	0.26803
2405.05861	0.26829
2403.12994	0.26856
2401.20126	0.26885
2399.27259	0.26916
2397.34391	0.26949
2395.41524	0.26982
2393.48656	0.27013
2391.55788	0.27044
2389.62921	0.27076
2387.70053	0.27107
2385.77186	0.27134
2383.84318	0.27157
2381.91451	0.27177
2379.98583	0.27195
2378.05715	0.27212
2376.12848	0.27229
2374.19980	0.27240
2372.27113	0.27244
2370.34245	0.27246
2368.41378	0.27252
2366.48510	0.27264
2364.55642	0.27281
2362.62775	0.27307
2360.69907	0.27341
2358.77040	0.27378
2356.84172	0.27423
2354.91305	0.27478
2352.98437	0.27540
2351.05569	0.27599
2349.12702	0.27642
2347.19834	0.27661
2345.26967	0.27668
2343.34099	0.27677
2341.41232	0.27692
2339.48364	0.27715
2337.55496	0.27743
2335.62629	0.27773
2333.69761	0.27805
2331.76894	0.27842
2329.84026	0.27879
2327.91159	0.27915
2325.98291	0.27951
2324.05423	0.27989
2322.12556	0.28030
2320.19688	0.28073
2318.26821	0.28117
2316.33953	0.28161
2314.41086	0.28205
2312.48218	0.28242
2310.55350	0.28272
2308.62483	0.28304
2306.69615	0.28342
2304.76748	0.28381
2302.83880	0.28415
2300.91013	0.28444
2298.98145	0.28471
2297.05277	0.28505
2295.12410	0.28543
2293.19542	0.28575
2291.26675	0.28601
2289.33807	0.28629
2287.40940	0.28662
2285.48072	0.28696
2283.55204	0.28730
2281.62337	0.28765
2279.69469	0.28799
2277.76602	0.28831
2275.83734	0.28860
2273.90867	0.28889
2271.97999	0.28916
2270.05131	0.28945
2268.12264	0.28980
2266.19396	0.29017
2264.26529	0.29048
2262.33661	0.29073
2260.40794	0.29098
2258.47926	0.29128
2256.55058	0.29159
2254.62191	0.29188
2252.69323	0.29216
2250.76456	0.29244
2248.83588	0.29276
2246.90721	0.29309
2244.97853	0.29340
2243.04985	0.29370
2241.12118	0.29402
2239.19250	0.29435
2237.26383	0.29466
2235.33515	0.29495
2233.40648	0.29523
2231.47780	0.29551
2229.54912	0.29583
2227.62045	0.29619
2225.69177	0.29654
2223.76310	0.29684
2221.83442	0.29712
2219.90575	0.29740
2217.97707	0.29767
2216.04839	0.29792
2214.11972	0.29820
2212.19104	0.29851
2210.26237	0.29881
2208.33369	0.29911
2206.40502	0.29943
2204.47634	0.29973
2202.54766	0.30001
2200.61899	0.30030
2198.69031	0.30060
2196.76164	0.30091
2194.83296	0.30123
2192.90429	0.30155
2190.97561	0.30183
2189.04693	0.30207
2187.11826	0.30234
2185.18958	0.30265
2183.26091	0.30298
2181.33223	0.30329
2179.40356	0.30360
2177.47488	0.30392
2175.54620	0.30424
2173.61753	0.30455
2171.68885	0.30485
2169.76018	0.30515
2167.83150	0.30546
2165.90283	0.30577
2163.97415	0.30609
2162.04547	0.30640
2160.11680	0.30671
2158.18812	0.30704
2156.25945	0.30737
2154.33077	0.30769
2152.40210	0.30802
2150.47342	0.30834
2148.54474	0.30866
2146.61607	0.30897
2144.68739	0.30927
2142.75872	0.30954
2140.83004	0.30982
2138.90137	0.31013
2136.97269	0.31046
2135.04401	0.31081
2133.11534	0.31113
2131.18666	0.31140
2129.25799	0.31169
2127.32931	0.31204
2125.40064	0.31237
2123.47196	0.31265
2121.54328	0.31292
2119.61461	0.31320
2117.68593	0.31351
2115.75726	0.31383
2113.82858	0.31417
2111.89991	0.31449
2109.97123	0.31478
2108.04255	0.31506
2106.11388	0.31538
2104.18520	0.31573
2102.25653	0.31605
2100.32785	0.31636
2098.39918	0.31666
2096.47050	0.31695
2094.54182	0.31722
2092.61315	0.31751
2090.68447	0.31783
2088.75580	0.31818
2086.82712	0.31851
2084.89845	0.31881
2082.96977	0.31910
2081.04109	0.31939
2079.11242	0.31966
2077.18374	0.31993
2075.25507	0.32026
2073.32639	0.32063
2071.39772	0.32100
2069.46904	0.32131
2067.54036	0.32158
2065.61169	0.32185
2063.68301	0.32217
2061.75434	0.32252
2059.82566	0.32285
2057.89699	0.32314
2055.96831	0.32343
2054.03963	0.32375
2052.11096	0.32407
2050.18228	0.32436
2048.25361	0.32464
2046.32493	0.32494
2044.39626	0.32523
2042.46758	0.32555
2040.53890	0.32591
2038.61023	0.32627
2036.68155	0.32660
2034.75288	0.32691
2032.82420	0.32723
2030.89553	0.32756
2028.96685	0.32788
2027.03817	0.32816
2025.10950	0.32843
2023.18082	0.32872
2021.25215	0.32904
2019.32347	0.32937
2017.39480	0.32968
2015.46612	0.33001
2013.53744	0.33036
2011.60877	0.33066
2009.68009	0.33091
2007.75142	0.33117
2005.82274	0.33149
2003.89407	0.33186
2001.96539	0.33221
2000.03671	0.33251
1998.10804	0.33278
1996.17936	0.33305
1994.25069	0.33330
1992.32201	0.33356
1990.39334	0.33384
1988.46466	0.33412
1986.53598	0.33440
1984.60731	0.33472
1982.67863	0.33505
1980.74996	0.33533
1978.82128	0.33555
1976.89261	0.33578
1974.96393	0.33603
1973.03525	0.33629
1971.10658	0.33652
1969.17790	0.33674
1967.24923	0.33700
1965.32055	0.33733
1963.39188	0.33768
1961.46320	0.33799
1959.53452	0.33826
1957.60585	0.33852
1955.67717	0.33882
1953.74850	0.33916
1951.81982	0.33948
1949.89115	0.33978
1947.96247	0.34009
1946.03379	0.34041
1944.10512	0.34070
1942.17644	0.34100
1940.24777	0.34132
1938.31909	0.34163
1936.39042	0.34191
1934.46174	0.34218
1932.53306	0.34245
1930.60439	0.34271
1928.67571	0.34302
1926.74704	0.34339
1924.81836	0.34373
1922.88969	0.34403
1920.96101	0.34430
1919.03233	0.34455
1917.10366	0.34486
1915.17498	0.34523
1913.24631	0.34558
1911.31763	0.34590
1909.38896	0.34618
1907.46028	0.34642
1905.53160	0.34664
1903.60293	0.34689
1901.67425	0.34719
1899.74558	0.34752
1897.81690	0.34781
1895.88823	0.34807
1893.95955	0.34835
1892.03087	0.34864
1890.10220	0.34888
1888.17352	0.34914
1886.24485	0.34947
1884.31617	0.34983
1882.38750	0.35016
1880.45882	0.35048
1878.53014	0.35077
1876.60147	0.35104
1874.67279	0.35134
1872.74412	0.35162
1870.81544	0.35182
1868.88677	0.35206
1866.95809	0.35243
1865.02941	0.35282
1863.10074	0.35316
1861.17206	0.35346
1859.24339	0.35376
1857.31471	0.35409
1855.38604	0.35443
1853.45736	0.35479
1851.52868	0.35513
1849.60001	0.35544
1847.67133	0.35569
1845.74266	0.35588
1843.81398	0.35615
1841.88531	0.35657
1839.95663	0.35699
1838.02795	0.35732
1836.09928	0.35762
1834.17060	0.35790
1832.24193	0.35813
1830.31325	0.35833
1828.38458	0.35858
1826.45590	0.35887
1824.52722	0.35919
1822.59855	0.35957
1820.66987	0.35994
1818.74120	0.36025
1816.81252	0.36055
1814.88385	0.36083
1812.95517	0.36106
1811.02649	0.36127
1809.09782	0.36152
1807.16914	0.36179
1805.24047	0.36202
1803.31179	0.36222
1801.38312	0.36242
1799.45444	0.36268
1797.52576	0.36296
1795.59709	0.36316
1793.66841	0.36330
1791.73974	0.36354
1789.81106	0.36392
1787.88239	0.36426
1785.95371	0.36450
1784.02503	0.36471
1782.09636	0.36491
1780.16768	0.36512
1778.23901	0.36533
1776.31033	0.36550
1774.38166	0.36556
1772.45298	0.36566
1770.52430	0.36595
1768.59563	0.36629
1766.66695	0.36659
1764.73828	0.36686
1762.80960	0.36704
1760.88093	0.36719
1758.95225	0.36734
1757.02357	0.36746
1755.09490	0.36755
1753.16622	0.36752
1751.23755	0.36741
1749.30887	0.36745
1747.38020	0.36764
1745.45152	0.36777
1743.52284	0.36779
1741.59417	0.36773
1739.66549	0.36777
1737.73682	0.36783
1735.80814	0.36772
1733.87947	0.36776
1731.95079	0.36827
1730.02211	0.36894
1728.09344	0.36945
1726.16476	0.36981
1724.23609	0.37007
1722.30741	0.37026
1720.37874	0.37026
1718.45006	0.37016
1716.52138	0.37036
1714.59271	0.37090
1712.66403	0.37142
1710.73536	0.37174
1708.80668	0.37187
1706.87801	0.37188
1704.94933	0.37185
1703.02065	0.37162
1701.09198	0.37128
1699.16330	0.37128
1697.23463	0.37153
1695.30595	0.37187
1693.37728	0.37232
1691.44860	0.37259
1689.51992	0.37256
1687.59125	0.37233
1685.66257	0.37196
1683.73390	0.37193
1681.80522	0.37237
1679.87655	0.37280
1677.94787	0.37291
1676.01919	0.37287
1674.09052	0.37296
1672.16184	0.37311
1670.23317	0.37321
1668.30449	0.37343
1666.37582	0.37371
1664.44714	0.37378
1662.51846	0.37379
1660.58979	0.37392
1658.66111	0.37402
1656.73244	0.37378
1654.80376	0.37318
1652.87509	0.37298
1650.94641	0.37353
1649.01773	0.37402
1647.08906	0.37408
1645.16038	0.37427
1643.23171	0.37467
1641.30303	0.37498
1639.37436	0.37503
1637.44568	0.37484
1635.51700	0.37481
1633.58833	0.37517
1631.65965	0.37554
1629.73098	0.37558
1627.80230	0.37545
1625.87363	0.37515
1623.94495	0.37457
1622.01627	0.37392
1620.08760	0.37365
1618.15892	0.37401
1616.23025	0.37507
1614.30157	0.37640
1612.37290	0.37738
1610.44422	0.37799
1608.51554	0.37849
1606.58687	0.37894
1604.65819	0.37932
1602.72952	0.37969
1600.80084	0.38010
1598.87217	0.38050
1596.94349	0.38082
1595.01481	0.38110
1593.08614	0.38137
1591.15746	0.38165
1589.22879	0.38195
1587.30011	0.38225
1585.37144	0.38254
1583.44276	0.38283
1581.51408	0.38310
1579.58541	0.38321
1577.65673	0.38315
1575.72806	0.38329
1573.79938	0.38378
1571.87071	0.38416
1569.94203	0.38437
1568.01335	0.38470
1566.08468	0.38508
1564.15600	0.38530
1562.22733	0.38513
1560.29865	0.38471
1558.36998	0.38476
1556.44130	0.38545
1554.51262	0.38618
1552.58395	0.38670
1550.65527	0.38707
1548.72660	0.38731
1546.79792	0.38742
1544.86925	0.38737
1542.94057	0.38715
1541.01189	0.38698
1539.08322	0.38730
1537.15454	0.38801
1535.22587	0.38845
1533.29719	0.38859
1531.36852	0.38880
1529.43984	0.38900
1527.51116	0.38906
1525.58249	0.38910
1523.65381	0.38904
1521.72514	0.38898
1519.79646	0.38922
1517.86779	0.38962
1515.93911	0.38993
1514.01043	0.39018
1512.08176	0.39034
1510.15308	0.39028
1508.22441	0.39001
1506.29573	0.38998
1504.36706	0.39049
1502.43838	0.39106
1500.50970	0.39128
1498.58103	0.39126
1496.65235	0.39131
1494.72368	0.39157
1492.79500	0.39178
1490.86633	0.39174
1488.93765	0.39172
1487.00897	0.39192
1485.08030	0.39216
1483.15162	0.39225
1481.22295	0.39221
1479.29427	0.39210
1477.36560	0.39188
1475.43692	0.39149
1473.50824	0.39106
1471.57957	0.39084
1469.65089	0.39081
1467.72222	0.39074
1465.79354	0.39060
1463.86487	0.39065
1461.93619	0.39080
1460.00751	0.39066
1458.07884	0.39033
1456.15016	0.39039
1454.22149	0.39093
1452.29281	0.39141
1450.36414	0.39158
1448.43546	0.39165
1446.50678	0.39182
1444.57811	0.39210
1442.64943	0.39236
1440.72076	0.39244
1438.79208	0.39224
1436.86341	0.39203
1434.93473	0.39213
1433.00605	0.39235
1431.07738	0.39244
1429.14870	0.39249
1427.22003	0.39254
1425.29135	0.39247
1423.36268	0.39230
1421.43400	0.39202
1419.50532	0.39173
1417.57665	0.39166
1415.64797	0.39177
1413.71930	0.39182
1411.79062	0.39184
1409.86195	0.39184
1407.93327	0.39180
1406.00459	0.39172
1404.07592	0.39167
1402.14724	0.39160
1400.21857	0.39147
1398.28989	0.39136
1396.36122	0.39128
1394.43254	0.39123
1392.50386	0.39122
1390.57519	0.39109
1388.64651	0.39061
1386.71784	0.38994
1384.78916	0.38948
1382.86049	0.38947
1380.93181	0.38968
1379.00313	0.38979
1377.07446	0.38974
1375.14578	0.38960
1373.21711	0.38948
1371.28843	0.38942
1369.35976	0.38938
1367.43108	0.38932
1365.50240	0.38922
1363.57373	0.38912
1361.64505	0.38912
1359.71638	0.38922
1357.78770	0.38924
1355.85903	0.38919
1353.93035	0.38919
1352.00167	0.38931
1350.07300	0.38948
1348.14432	0.38964
1346.21565	0.38981
1344.28697	0.38993
1342.35830	0.38992
1340.42962	0.38980
1338.50094	0.38969
1336.57227	0.38968
1334.64359	0.38973
1332.71492	0.38976
1330.78624	0.38972
1328.85757	0.38961
1326.92889	0.38945
1325.00021	0.38929
1323.07154	0.38918
1321.14286	0.38905
1319.21419	0.38890
1317.28551	0.38877
1315.35684	0.38861
1313.42816	0.38840
1311.49948	0.38812
1309.57081	0.38779
1307.64213	0.38746
1305.71346	0.38715
1303.78478	0.38682
1301.85611	0.38647
1299.92743	0.38610
1297.99875	0.38570
1296.07008	0.38531
1294.14140	0.38497
1292.21273	0.38458
1290.28405	0.38409
1288.35538	0.38357
1286.42670	0.38310
1284.49802	0.38260
1282.56935	0.38199
1280.64067	0.38136
1278.71200	0.38069
1276.78332	0.37986
1274.85465	0.37889
1272.92597	0.37777
1270.99729	0.37637
1269.06862	0.37461
1267.13994	0.37269
1265.21127	0.37098
1263.28259	0.36977
1261.35392	0.36919
1259.42524	0.36916
1257.49656	0.36941
1255.56789	0.36960
1253.63921	0.36952
1251.71054	0.36916
1249.78186	0.36859
1247.85319	0.36791
1245.92451	0.36720
1243.99583	0.36644
1242.06716	0.36558
1240.13848	0.36467
1238.20981	0.36374
1236.28113	0.36278
1234.35246	0.36176
1232.42378	0.36070
1230.49510	0.35964
1228.56643	0.35861
1226.63775	0.35762
1224.70908	0.35669
1222.78040	0.35584
1220.85173	0.35496
1218.92305	0.35400
1216.99437	0.35300
1215.06570	0.35199
1213.13702	0.35099
1211.20835	0.34998
1209.27967	0.34894
1207.35100	0.34793
1205.42232	0.34701
1203.49364	0.34614
1201.56497	0.34528
1199.63629	0.34442
1197.70762	0.34357
1195.77894	0.34268
1193.85027	0.34173
1191.92159	0.34073
1189.99291	0.33968
1188.06424	0.33854
1186.13556	0.33726
1184.20689	0.33593
1182.27821	0.33461
1180.34954	0.33328
1178.42086	0.33193
1176.49218	0.33053
1174.56351	0.32911
1172.63483	0.32771
1170.70616	0.32626
1168.77748	0.32478
1166.84881	0.32335
1164.92013	0.32196
1162.99145	0.32056
1161.06278	0.31918
1159.13410	0.31781
1157.20543	0.31643
1155.27675	0.31505
1153.34808	0.31376
1151.41940	0.31257
1149.49072	0.31142
1147.56205	0.31027
1145.63337	0.30912
1143.70470	0.30795
1141.77602	0.30677
1139.84735	0.30566
1137.91867	0.30457
1135.98999	0.30334
1134.06132	0.30193
1132.13264	0.30050
1130.20397	0.29918
1128.27529	0.29785
1126.34662	0.29641
1124.41794	0.29489
1122.48926	0.29337
1120.56059	0.29180
1118.63191	0.29022
1116.70324	0.28867
1114.77456	0.28714
1112.84589	0.28553
1110.91721	0.28392
1108.98853	0.28238
1107.05986	0.28090
1105.13118	0.27944
1103.20251	0.27804
1101.27383	0.27666
1099.34516	0.27522
1097.41648	0.27379
1095.48780	0.27246
1093.55913	0.27122
1091.63045	0.27005
1089.70178	0.26892
1087.77310	0.26781
1085.84443	0.26668
1083.91575	0.26556
1081.98707	0.26450
1080.05840	0.26351
1078.12972	0.26262
1076.20105	0.26180
1074.27237	0.26104
1072.34370	0.26038
1070.41502	0.25993
1068.48634	0.25963
1066.55767	0.25942
1064.62899	0.25936
1062.70032	0.25944
1060.77164	0.25954
1058.84297	0.25969
1056.91429	0.25993
1054.98561	0.26026
1053.05694	0.26072
1051.12826	0.26125
1049.19959	0.26180
1047.27091	0.26239
1045.34224	0.26304
1043.41356	0.26370
1041.48488	0.26437
1039.55621	0.26509
1037.62753	0.26590
1035.69886	0.26671
1033.77018	0.26751
1031.84151	0.26832
1029.91283	0.26911
1027.98415	0.26984
1026.05548	0.27054
1024.12680	0.27131
1022.19813	0.27220
1020.26945	0.27316
1018.34078	0.27420
1016.41210	0.27534
1014.48342	0.27659
1012.55475	0.27795
1010.62607	0.27935
1008.69740	0.28072
1006.76872	0.28204
1004.84005	0.28333
1002.91137	0.28450
1000.98269	0.28550
999.05402	0.28636
997.12534	0.28720
995.19667	0.28798
993.26799	0.28869
991.33932	0.28939
989.41064	0.29001
987.48196	0.29051
985.55329	0.29102
983.62461	0.29158
981.69594	0.29209
979.76726	0.29245
977.83859	0.29266
975.90991	0.29274
973.98123	0.29272
972.05256	0.29266
970.12388	0.29257
968.19521	0.29243
966.26653	0.29226
964.33786	0.29210
962.40918	0.29189
960.48050	0.29165
958.55183	0.29137
956.62315	0.29100
954.69448	0.29055
952.76580	0.29010
950.83713	0.28970
948.90845	0.28926
946.97977	0.28873
945.05110	0.28811
943.12242	0.28752
941.19375	0.28693
939.26507	0.28630
937.33640	0.28564
935.40772	0.28496
933.47904	0.28427
931.55037	0.28365
929.62169	0.28310
927.69302	0.28254
925.76434	0.28191
923.83567	0.28119
921.90699	0.28046
919.97831	0.27979
918.04964	0.27913
916.12096	0.27837
914.19229	0.27758
912.26361	0.27680
910.33494	0.27598
908.40626	0.27510
906.47758	0.27422
904.54891	0.27340
902.62023	0.27259
900.69156	0.27173
898.76288	0.27083
896.83421	0.26990
894.90553	0.26894
892.97685	0.26800
891.04818	0.26707
889.11950	0.26613
887.19083	0.26524
885.26215	0.26439
883.33348	0.26352
881.40480	0.26266
879.47612	0.26180
877.54745	0.26095
875.61877	0.26012
873.69010	0.25934
871.76142	0.25853
869.83275	0.25769
867.90407	0.25693
865.97539	0.25619
864.04672	0.25533
862.11804	0.25442
860.18937	0.25357
858.26069	0.25270
856.33202	0.25174
854.40334	0.25077
852.47466	0.24982
850.54599	0.24886
848.61731	0.24793
846.68864	0.24707
844.75996	0.24619
842.83129	0.24525
840.90261	0.24432
838.97394	0.24340
837.04526	0.24243
835.11658	0.24145
833.18791	0.24049
831.25923	0.23948
829.33056	0.23839
827.40188	0.23725
825.47321	0.23606
823.54453	0.23488
821.61585	0.23376
819.68718	0.23271
817.75850	0.23172
815.82983	0.23076
813.90115	0.22975
811.97248	0.22870
810.04380	0.22766
808.11512	0.22670
806.18645	0.22580
804.25777	0.22496
802.32910	0.22421
800.40042	0.22360
798.47175	0.22311
796.54307	0.22266
794.61439	0.22229
792.68572	0.22196
790.75704	0.22164
788.82837	0.22133
786.89969	0.22102
784.97102	0.22063
783.04234	0.22016
781.11366	0.21965
779.18499	0.21910
777.25631	0.21854
775.32764	0.21809
773.39896	0.21769
771.47029	0.21716
769.54161	0.21652
767.61293	0.21594
765.68426	0.21537
763.75558	0.21470
761.82691	0.21397
759.89823	0.21324
757.96956	0.21246
756.04088	0.21158
754.11220	0.21062
752.18353	0.20957
750.25485	0.20846
748.32618	0.20746
746.39750	0.20661
744.46883	0.20577
742.54015	0.20487
740.61147	0.20401
738.68280	0.20325
736.75412	0.20252
734.82545	0.20176
732.89677	0.20097
730.96810	0.20019
729.03942	0.19943
727.11074	0.19863
725.18207	0.19779
723.25339	0.19704
721.32472	0.19636
719.39604	0.19569
717.46737	0.19494
715.53869	0.19408
713.61001	0.19317
711.68134	0.19228
709.75266	0.19149
707.82399	0.19078
705.89531	0.19006
703.96664	0.18928
702.03796	0.18850
700.10928	0.18770
698.18061	0.18686
696.25193	0.18600
694.32326	0.18517
692.39458	0.18434
690.46591	0.18346
688.53723	0.18253
686.60855	0.18161
684.67988	0.18067
682.75120	0.17960
680.82253	0.17844
678.89385	0.17731
676.96518	0.17616
675.03650	0.17493
673.10782	0.17359
671.17915	0.17216
669.25047	0.17062
667.32180	0.16909
665.39312	0.16767
663.46445	0.16614
661.53577	0.16452
659.60709	0.16301
657.67842	0.16159
655.74974	0.16007
653.82107	0.15847
651.89239	0.15690
649.96372	0.15539
648.03504	0.15391
646.10636	0.15240
644.17769	0.15079
642.24901	0.14906
640.32034	0.14725
638.39166	0.14543
636.46299	0.14357
634.53431	0.14165
632.60563	0.13976
630.67696	0.13799
628.74828	0.13627
626.81961	0.13457
624.89093	0.13287
622.96226	0.13108
621.03358	0.12927
619.10490	0.12758
617.17623	0.12600
615.24755	0.12433
613.31888	0.12244
611.39020	0.12050
609.46153	0.11865
607.53285	0.11696
605.60417	0.11537
603.67550	0.11376
601.74682	0.11218
599.81815	0.11075
597.88947	0.10945
595.96080	0.10818
594.03212	0.10697
592.10344	0.10581
590.17477	0.10467
588.24609	0.10352
586.31742	0.10236
584.38874	0.10122
582.46007	0.10013
580.53139	0.09906
578.60271	0.09804
576.67404	0.09704
574.74536	0.09601
572.81669	0.09494
570.88801	0.09387
568.95934	0.09295
567.03066	0.09222
565.10198	0.09154
563.17331	0.09074
561.24463	0.08992
559.31596	0.08919
557.38728	0.08852
555.45861	0.08785
553.52993	0.08724
551.60125	0.08669
549.67258	0.08607
547.74390	0.08537
545.81523	0.08469
543.88655	0.08404
541.95788	0.08344
540.02920	0.08295
538.10052	0.08253
536.17185	0.08209
534.24317	0.08163
532.31450	0.08113
530.38582	0.08058
528.45715	0.07990
526.52847	0.07909
524.59979	0.07828
522.67112	0.07750
520.74244	0.07669
518.81377	0.07590
516.88509	0.07516
514.95642	0.07441
513.02774	0.07361
511.09906	0.07275
509.17039	0.07187
507.24171	0.07094
505.31304	0.06995
503.38436	0.06893
501.45569	0.06785
499.52701	0.06670
497.59833	0.06556
495.66966	0.06441
493.74098	0.06315
491.81231	0.06190
489.88363	0.06070
487.95496	0.05936
486.02628	0.05794
484.09760	0.05665
482.16893	0.05551
480.24025	0.05434
478.31158	0.05307
476.38290	0.05176
474.45423	0.05056
472.52555	0.04951
470.59687	0.04855
468.66820	0.04766
466.73952	0.04680
464.81085	0.04608
462.88217	0.04564
460.95350	0.04538
459.02482	0.04512
457.09614	0.04486
455.16747	0.04464
453.23879	0.04451
451.31012	0.04443
449.38144	0.04426
447.45277	0.04393
445.52409	0.04353
443.59541	0.04311
441.66674	0.04261
439.73806	0.04206
437.80939	0.04133
435.88071	0.04030
433.95204	0.03916
432.02336	0.03806
430.09468	0.03694
428.16601	0.03572
426.23733	0.03440
424.30866	0.03298
422.37998	0.03156
420.45131	0.03026
418.52263	0.02906
416.59395	0.02785
414.66528	0.02659
412.73660	0.02534
410.80793	0.02414
408.87925	0.02300
406.95058	0.02189
405.02190	0.02076
403.09322	0.01957
401.16455	0.01838
399.23587	0.01721
397.30720	0.01615
395.37852	0.01521
393.44985	0.01426
391.52117	0.01329
389.59249	0.01242
387.66382	0.01164
385.73514	0.01079
383.80647	0.00990
381.87779	0.00906
379.94912	0.00833
378.02044	0.00778
376.09176	0.00732
374.16309	0.00680
372.23441	0.00616
370.30574	0.00545
368.37706	0.00472
