7496.76250	0.00230
7494.83382	0.00232
7492.90514	0.00233
7490.97647	0.00233
7489.04779	0.00234
7487.11912	0.00235
7485.19044	0.00235
7483.26177	0.00235
7481.33309	0.00235
7479.40441	0.00235
7477.47574	0.00236
7475.54706	0.00236
7473.61839	0.00238
7471.68971	0.00239
7469.76104	0.00240
7467.83236	0.00239
7465.90368	0.00239
7463.97501	0.00240
7462.04633	0.00242
7460.11766	0.00243
7458.18898	0.00244
7456.26031	0.00245
7454.33163	0.00246
7452.40295	0.00246
7450.47428	0.00246
7448.54560	0.00245
7446.61693	0.00244
7444.68825	0.00244
7442.75958	0.00245
7440.83090	0.00246
7438.90222	0.00248
7436.97355	0.00250
7435.04487	0.00251
7433.11620	0.00251
7431.18752	0.00252
7429.25885	0.00254
7427.33017	0.00255
7425.40149	0.00255
7423.47282	0.00256
7421.54414	0.00258
7419.61547	0.00257
7417.68679	0.00256
7415.75812	0.00255
7413.82944	0.00256
7411.90076	0.00257
7409.97209	0.00259
7408.04341	0.00259
7406.11474	0.00259
7404.18606	0.00258
7402.25739	0.00259
7400.32871	0.00262
7398.40003	0.00264
7396.47136	0.00266
7394.54268	0.00264
7392.61401	0.00262
7390.68533	0.00262
7388.75666	0.00265
7386.82798	0.00267
7384.89930	0.00268
7382.97063	0.00268
7381.04195	0.00268
7379.11328	0.00269
7377.18460	0.00270
7375.25593	0.00270
7373.32725	0.00271
7371.39857	0.00273
7369.46990	0.00275
7367.54122	0.00275
7365.61255	0.00274
7363.68387	0.00274
7361.75520	0.00275
7359.82652	0.00276
7357.89784	0.00276
7355.96917	0.00276
7354.04049	0.00277
7352.11182	0.00279
7350.18314	0.00280
7348.25447	0.00281
7346.32579	0.00282
7344.39711	0.00283
7342.46844	0.00283
7340.53976	0.00283
7338.61109	0.00284
7336.68241	0.00285
7334.75374	0.00285
7332.82506	0.00285
7330.89638	0.00286
7328.96771	0.00286
7327.03903	0.00286
7325.11036	0.00288
7323.18168	0.00289
7321.25301	0.00289
7319.32433	0.00289
7317.39565	0.00290
7315.46698	0.00292
7313.53830	0.00293
7311.60963	0.00293
7309.68095	0.00294
7307.75228	0.00295
7305.82360	0.00294
7303.89492	0.00295
7301.96625	0.00296
7300.03757	0.00298
7298.10890	0.00298
7296.18022	0.00298
7294.25155	0.00299
7292.32287	0.00299
7290.39419	0.00300
7288.46552	0.00301
7286.53684	0.00301
7284.60817	0.00301
7282.67949	0.00302
7280.75082	0.00304
7278.82214	0.00305
7276.89346	0.00306
7274.96479	0.00306
7273.03611	0.00308
7271.10744	0.00308
7269.17876	0.00308
7267.25009	0.00307
7265.32141	0.00308
7263.39273	0.00310
7261.46406	0.00311
7259.53538	0.00313
7257.60671	0.00315
7255.67803	0.00316
7253.74936	0.00316
7251.82068	0.00316
7249.89200	0.00318
7247.96333	0.00320
7246.03465	0.00320
7244.10598	0.00320
7242.17730	0.00320
7240.24863	0.00321
7238.31995	0.00322
7236.39127	0.00322
7234.46260	0.00323
7232.53392	0.00323
7230.60525	0.00323
7228.67657	0.00324
7226.74790	0.00324
7224.81922	0.00325
7222.89054	0.00326
7220.96187	0.00325
7219.03319	0.00326
7217.10452	0.00327
7215.17584	0.00327
7213.24717	0.00326
7211.31849	0.00327
7209.38981	0.00329
7207.46114	0.00332
7205.53246	0.00334
7203.60379	0.00334
7201.67511	0.00334
7199.74644	0.00335
7197.81776	0.00336
7195.88908	0.00337
7193.96041	0.00338
7192.03173	0.00339
7190.10306	0.00339
7188.17438	0.00341
7186.24571	0.00342
7184.31703	0.00342
7182.38835	0.00341
7180.45968	0.00341
7178.53100	0.00343
7176.60233	0.00346
7174.67365	0.00348
7172.74498	0.00349
7170.81630	0.00349
7168.88762	0.00348
7166.95895	0.00347
7165.03027	0.00348
7163.10160	0.00348
7161.17292	0.00348
7159.24425	0.00349
7157.31557	0.00350
7155.38689	0.00352
7153.45822	0.00353
7151.52954	0.00353
7149.60087	0.00354
7147.67219	0.00356
7145.74352	0.00358
7143.81484	0.00359
7141.88616	0.00359
7139.95749	0.00359
7138.02881	0.00359
7136.10014	0.00360
7134.17146	0.00361
7132.24279	0.00361
7130.31411	0.00362
7128.38543	0.00364
7126.45676	0.00363
7124.52808	0.00362
7122.59941	0.00363
7120.67073	0.00366
7118.74206	0.00368
7116.81338	0.00368
7114.88470	0.00368
7112.95603	0.00369
7111.02735	0.00371
7109.09868	0.00371
7107.17000	0.00371
7105.24133	0.00373
7103.31265	0.00375
7101.38397	0.00376
7099.45530	0.00376
7097.52662	0.00375
7095.59795	0.00376
7093.66927	0.00378
7091.74060	0.00380
7089.81192	0.00380
7087.88324	0.00381
7085.95457	0.00381
7084.02589	0.00382
7082.09722	0.00383
7080.16854	0.00383
7078.23987	0.00383
7076.31119	0.00385
7074.38251	0.00386
7072.45384	0.00388
7070.52516	0.00387
7068.59649	0.00388
7066.66781	0.00391
7064.73914	0.00394
7062.81046	0.00395
7060.88178	0.00394
7058.95311	0.00392
7057.02443	0.00392
7055.09576	0.00393
7053.16708	0.00396
7051.23841	0.00398
7049.30973	0.00399
7047.38105	0.00398
7045.45238	0.00398
7043.52370	0.00399
7041.59503	0.00402
7039.66635	0.00403
7037.73768	0.00403
7035.80900	0.00402
7033.88032	0.00403
7031.95165	0.00406
7030.02297	0.00407
7028.09430	0.00407
7026.16562	0.00408
7024.23695	0.00410
7022.30827	0.00412
7020.37959	0.00413
7018.45092	0.00413
7016.52224	0.00412
7014.59357	0.00412
7012.66489	0.00413
7010.73622	0.00414
7008.80754	0.00415
7006.87886	0.00416
7004.95019	0.00416
7003.02151	0.00416
7001.09284	0.00417
6999.16416	0.00419
6997.23549	0.00419
6995.30681	0.00419
6993.37813	0.00420
6991.44946	0.00422
6989.52078	0.00423
6987.59211	0.00423
6985.66343	0.00424
6983.73476	0.00425
6981.80608	0.00427
6979.87740	0.00429
6977.94873	0.00430
6976.02005	0.00430
6974.09138	0.00430
6972.16270	0.00431
6970.23403	0.00432
6968.30535	0.00433
6966.37667	0.00435
6964.44800	0.00437
6962.51932	0.00438
6960.59065	0.00439
6958.66197	0.00439
6956.73330	0.00439
6954.80462	0.00439
6952.87594	0.00440
6950.94727	0.00442
6949.01859	0.00443
6947.08992	0.00443
6945.16124	0.00443
6943.23257	0.00444
6941.30389	0.00446
6939.37521	0.00447
6937.44654	0.00447
6935.51786	0.00448
6933.58919	0.00451
6931.66051	0.00454
6929.73184	0.00455
6927.80316	0.00456
6925.87448	0.00457
6923.94581	0.00458
6922.01713	0.00458
6920.08846	0.00458
6918.15978	0.00459
6916.23111	0.00460
6914.30243	0.00460
6912.37375	0.00460
6910.44508	0.00460
6908.51640	0.00461
6906.58773	0.00463
6904.65905	0.00464
6902.73038	0.00465
6900.80170	0.00467
6898.87302	0.00469
6896.94435	0.00471
6895.01567	0.00472
6893.08700	0.00472
6891.15832	0.00473
6889.22965	0.00473
6887.30097	0.00473
6885.37229	0.00474
6883.44362	0.00475
6881.51494	0.00478
6879.58627	0.00480
6877.65759	0.00480
6875.72892	0.00479
6873.80024	0.00480
6871.87156	0.00482
6869.94289	0.00483
6868.01421	0.00483
6866.08554	0.00482
6864.15686	0.00483
6862.22819	0.00485
6860.29951	0.00487
6858.37083	0.00490
6856.44216	0.00490
6854.51348	0.00490
6852.58481	0.00492
6850.65613	0.00494
6848.72746	0.00496
6846.79878	0.00497
6844.87010	0.00498
6842.94143	0.00499
6841.01275	0.00498
6839.08408	0.00498
6837.15540	0.00499
6835.22673	0.00502
6833.29805	0.00504
6831.36937	0.00505
6829.44070	0.00506
6827.51202	0.00507
6825.58335	0.00507
6823.65467	0.00508
6821.72600	0.00509
6819.79732	0.00510
6817.86864	0.00509
6815.93997	0.00509
6814.01129	0.00511
6812.08262	0.00512
6810.15394	0.00513
6808.22527	0.00513
6806.29659	0.00514
6804.36791	0.00516
6802.43924	0.00518
6800.51056	0.00519
6798.58189	0.00519
6796.65321	0.00520
6794.72454	0.00523
6792.79586	0.00526
6790.86718	0.00529
6788.93851	0.00530
6787.00983	0.00530
6785.08116	0.00531
6783.15248	0.00531
6781.22381	0.00531
6779.29513	0.00533
6777.36645	0.00534
6775.43778	0.00535
6773.50910	0.00537
6771.58043	0.00539
6769.65175	0.00539
6767.72308	0.00539
6765.79440	0.00539
6763.86572	0.00541
6761.93705	0.00541
6760.00837	0.00541
6758.07970	0.00541
6756.15102	0.00542
6754.22235	0.00544
6752.29367	0.00546
6750.36499	0.00549
6748.43632	0.00551
6746.50764	0.00553
6744.57897	0.00554
6742.65029	0.00555
6740.72162	0.00556
6738.79294	0.00557
6736.86426	0.00556
6734.93559	0.00556
6733.00691	0.00558
6731.07824	0.00561
6729.14956	0.00563
6727.22089	0.00563
6725.29221	0.00563
6723.36353	0.00564
6721.43486	0.00566
6719.50618	0.00567
6717.57751	0.00567
6715.64883	0.00568
6713.72016	0.00570
6711.79148	0.00571
6709.86280	0.00572
6707.93413	0.00574
6706.00545	0.00577
6704.07678	0.00579
6702.14810	0.00580
6700.21943	0.00580
6698.29075	0.00581
6696.36207	0.00583
6694.43340	0.00584
6692.50472	0.00584
6690.57605	0.00585
6688.64737	0.00587
6686.71870	0.00589
6684.79002	0.00590
6682.86134	0.00592
6680.93267	0.00595
6679.00399	0.00596
6677.07532	0.00596
6675.14664	0.00595
6673.21797	0.00595
6671.28929	0.00596
6669.36061	0.00598
6667.43194	0.00599
6665.50326	0.00600
6663.57459	0.00601
6661.64591	0.00602
6659.71724	0.00604
6657.78856	0.00606
6655.85988	0.00607
6653.93121	0.00608
6652.00253	0.00610
6650.07386	0.00612
6648.14518	0.00614
6646.21651	0.00614
6644.28783	0.00613
6642.35915	0.00612
6640.43048	0.00613
6638.50180	0.00614
6636.57313	0.00618
6634.64445	0.00622
6632.71578	0.00623
6630.78710	0.00623
6628.85842	0.00624
6626.92975	0.00625
6625.00107	0.00627
6623.07240	0.00627
6621.14372	0.00628
6619.21505	0.00630
6617.28637	0.00631
6615.35769	0.00632
6613.42902	0.00633
6611.50034	0.00634
6609.57167	0.00637
6607.64299	0.00639
6605.71432	0.00639
6603.78564	0.00640
6601.85696	0.00644
6599.92829	0.00646
6597.99961	0.00646
6596.07094	0.00646
6594.14226	0.00646
6592.21359	0.00647
6590.28491	0.00649
6588.35623	0.00651
6586.42756	0.00652
6584.49888	0.00654
6582.57021	0.00655
6580.64153	0.00656
6578.71286	0.00658
6576.78418	0.00659
6574.85550	0.00659
6572.92683	0.00661
6570.99815	0.00665
6569.06948	0.00668
6567.14080	0.00669
6565.21213	0.00670
6563.28345	0.00671
6561.35477	0.00670
6559.42610	0.00670
6557.49742	0.00671
6555.56875	0.00672
6553.64007	0.00675
6551.71140	0.00677
6549.78272	0.00678
6547.85404	0.00679
6545.92537	0.00680
6543.99669	0.00682
6542.06802	0.00683
6540.13934	0.00684
6538.21067	0.00686
6536.28199	0.00688
6534.35331	0.00689
6532.42464	0.00691
6530.49596	0.00693
6528.56729	0.00694
6526.63861	0.00695
6524.70994	0.00697
6522.78126	0.00699
6520.85258	0.00699
6518.92391	0.00699
6516.99523	0.00700
6515.06656	0.00701
6513.13788	0.00702
6511.20921	0.00705
6509.28053	0.00707
6507.35185	0.00710
6505.42318	0.00712
6503.49450	0.00713
6501.56583	0.00713
6499.63715	0.00715
6497.70848	0.00717
6495.77980	0.00720
6493.85112	0.00722
6491.92245	0.00724
6489.99377	0.00725
6488.06510	0.00726
6486.13642	0.00727
6484.20775	0.00727
6482.27907	0.00728
6480.35039	0.00729
6478.42172	0.00731
6476.49304	0.00733
6474.56437	0.00736
6472.63569	0.00738
6470.70702	0.00739
6468.77834	0.00740
6466.84966	0.00741
6464.92099	0.00743
6462.99231	0.00745
6461.06364	0.00746
6459.13496	0.00747
6457.20629	0.00749
6455.27761	0.00750
6453.34893	0.00751
6451.42026	0.00753
6449.49158	0.00755
6447.56291	0.00756
6445.63423	0.00758
6443.70556	0.00760
6441.77688	0.00761
6439.84820	0.00763
6437.91953	0.00765
6435.99085	0.00768
6434.06218	0.00770
6432.13350	0.00770
6430.20483	0.00771
6428.27615	0.00772
6426.34747	0.00775
6424.41880	0.00778
6422.49012	0.00779
6420.56145	0.00779
6418.63277	0.00781
6416.70410	0.00782
6414.77542	0.00785
6412.84674	0.00787
6410.91807	0.00788
6408.98939	0.00788
6407.06072	0.00789
6405.13204	0.00792
6403.20337	0.00795
6401.27469	0.00796
6399.34601	0.00796
6397.41734	0.00797
6395.48866	0.00799
6393.55999	0.00801
6391.63131	0.00804
6389.70264	0.00806
6387.77396	0.00806
6385.84528	0.00807
6383.91661	0.00810
6381.98793	0.00813
6380.05926	0.00816
6378.13058	0.00818
6376.20191	0.00819
6374.27323	0.00819
6372.34455	0.00819
6370.41588	0.00819
6368.48720	0.00820
6366.55853	0.00822
6364.62985	0.00824
6362.70118	0.00826
6360.77250	0.00828
6358.84382	0.00830
6356.91515	0.00834
6354.98647	0.00838
6353.05780	0.00841
6351.12912	0.00842
6349.20045	0.00842
6347.27177	0.00844
6345.34309	0.00845
6343.41442	0.00846
6341.48574	0.00847
6339.55707	0.00851
6337.62839	0.00854
6335.69972	0.00854
6333.77104	0.00854
6331.84236	0.00855
6329.91369	0.00858
6327.98501	0.00861
6326.05634	0.00864
6324.12766	0.00866
6322.19899	0.00867
6320.27031	0.00868
6318.34163	0.00868
6316.41296	0.00868
6314.48428	0.00872
6312.55561	0.00875
6310.62693	0.00876
6308.69826	0.00877
6306.76958	0.00880
6304.84090	0.00883
6302.91223	0.00884
6300.98355	0.00886
6299.05488	0.00888
6297.12620	0.00888
6295.19753	0.00887
6293.26885	0.00888
6291.34017	0.00891
6289.41150	0.00896
6287.48282	0.00899
6285.55415	0.00900
6283.62547	0.00900
6281.69680	0.00900
6279.76812	0.00902
6277.83944	0.00905
6275.91077	0.00908
6273.98209	0.00910
6272.05342	0.00912
6270.12474	0.00914
6268.19607	0.00915
6266.26739	0.00917
6264.33871	0.00919
6262.41004	0.00921
6260.48136	0.00925
6258.55269	0.00928
6256.62401	0.00931
6254.69534	0.00933
6252.76666	0.00935
6250.83798	0.00935
6248.90931	0.00936
6246.98063	0.00939
6245.05196	0.00940
6243.12328	0.00941
6241.19461	0.00944
6239.26593	0.00947
6237.33725	0.00948
6235.40858	0.00949
6233.47990	0.00951
6231.55123	0.00954
6229.62255	0.00957
6227.69388	0.00958
6225.76520	0.00959
6223.83652	0.00961
6221.90785	0.00964
6219.97917	0.00967
6218.05050	0.00968
6216.12182	0.00968
6214.19315	0.00968
6212.26447	0.00971
6210.33579	0.00975
6208.40712	0.00978
6206.47844	0.00979
6204.54977	0.00981
6202.62109	0.00983
6200.69242	0.00985
6198.76374	0.00986
6196.83506	0.00988
6194.90639	0.00992
6192.97771	0.00995
6191.04904	0.00995
6189.12036	0.00996
6187.19169	0.00999
6185.26301	0.01002
6183.33433	0.01004
6181.40566	0.01007
6179.47698	0.01010
6177.54831	0.01011
6175.61963	0.01013
6173.69096	0.01016
6171.76228	0.01018
6169.83360	0.01021
6167.90493	0.01024
6165.97625	0.01026
6164.04758	0.01026
6162.11890	0.01026
6160.19023	0.01027
6158.26155	0.01030
6156.33287	0.01033
6154.40420	0.01035
6152.47552	0.01037
6150.54685	0.01039
6148.61817	0.01041
6146.68950	0.01043
6144.76082	0.01045
6142.83214	0.01047
6140.90347	0.01048
6138.97479	0.01049
6137.04612	0.01050
6135.11744	0.01053
6133.18877	0.01056
6131.26009	0.01059
6129.33141	0.01063
6127.40274	0.01067
6125.47406	0.01069
6123.54539	0.01070
6121.61671	0.01072
6119.68804	0.01074
6117.75936	0.01077
6115.83068	0.01081
6113.90201	0.01082
6111.97333	0.01081
6110.04466	0.01082
6108.11598	0.01084
6106.18731	0.01088
6104.25863	0.01092
6102.32995	0.01095
6100.40128	0.01095
6098.47260	0.01096
6096.54393	0.01099
6094.61525	0.01102
6092.68658	0.01104
6090.75790	0.01105
6088.82922	0.01107
6086.90055	0.01109
6084.97187	0.01112
6083.04320	0.01115
6081.11452	0.01117
6079.18585	0.01120
6077.25717	0.01124
6075.32849	0.01128
6073.39982	0.01130
6071.47114	0.01131
6069.54247	0.01133
6067.61379	0.01136
6065.68512	0.01138
6063.75644	0.01141
6061.82776	0.01143
6059.89909	0.01145
6057.97041	0.01148
6056.04174	0.01151
6054.11306	0.01152
6052.18439	0.01153
6050.25571	0.01155
6048.32703	0.01159
6046.39836	0.01163
6044.46968	0.01166
6042.54101	0.01168
6040.61233	0.01168
6038.68366	0.01169
6036.75498	0.01172
6034.82630	0.01176
6032.89763	0.01179
6030.96895	0.01181
6029.04028	0.01183
6027.11160	0.01186
6025.18293	0.01191
6023.25425	0.01194
6021.32557	0.01195
6019.39690	0.01195
6017.46822	0.01197
6015.53955	0.01200
6013.61087	0.01201
6011.68220	0.01201
6009.75352	0.01203
6007.82484	0.01208
6005.89617	0.01212
6003.96749	0.01215
6002.03882	0.01217
6000.11014	0.01220
5998.18147	0.01223
5996.25279	0.01224
5994.32411	0.01225
5992.39544	0.01227
5990.46676	0.01231
5988.53809	0.01235
5986.60941	0.01238
5984.68074	0.01240
5982.75206	0.01244
5980.82338	0.01248
5978.89471	0.01251
5976.96603	0.01252
5975.03736	0.01252
5973.10868	0.01252
5971.18001	0.01255
5969.25133	0.01259
5967.32265	0.01262
5965.39398	0.01263
5963.46530	0.01266
5961.53663	0.01270
5959.60795	0.01273
5957.67928	0.01275
5955.75060	0.01277
5953.82192	0.01280
5951.89325	0.01284
5949.96457	0.01287
5948.03590	0.01291
5946.10722	0.01294
5944.17855	0.01297
5942.24987	0.01298
5940.32119	0.01300
5938.39252	0.01301
5936.46384	0.01302
5934.53517	0.01304
5932.60649	0.01307
5930.67782	0.01312
5928.74914	0.01316
5926.82046	0.01319
5924.89179	0.01322
5922.96311	0.01324
5921.03444	0.01327
5919.10576	0.01328
5917.17709	0.01330
5915.24841	0.01333
5913.31973	0.01336
5911.39106	0.01340
5909.46238	0.01342
5907.53371	0.01344
5905.60503	0.01347
5903.67636	0.01350
5901.74768	0.01353
5899.81900	0.01357
5897.89033	0.01361
5895.96165	0.01365
5894.03298	0.01364
5892.10430	0.01363
5890.17563	0.01364
5888.24695	0.01368
5886.31827	0.01373
5884.38960	0.01377
5882.46092	0.01380
5880.53225	0.01382
5878.60357	0.01385
5876.67490	0.01389
5874.74622	0.01392
5872.81755	0.01395
5870.88887	0.01398
5868.96019	0.01401
5867.03152	0.01403
5865.10284	0.01406
5863.17417	0.01409
5861.24549	0.01412
5859.31682	0.01415
5857.38814	0.01416
5855.45946	0.01418
5853.53079	0.01422
5851.60211	0.01425
5849.67344	0.01427
5847.74476	0.01430
5845.81609	0.01434
5843.88741	0.01436
5841.95873	0.01438
5840.03006	0.01441
5838.10138	0.01445
5836.17271	0.01448
5834.24403	0.01450
5832.31536	0.01453
5830.38668	0.01456
5828.45800	0.01459
5826.52933	0.01463
5824.60065	0.01465
5822.67198	0.01466
5820.74330	0.01469
5818.81463	0.01474
5816.88595	0.01478
5814.95727	0.01480
5813.02860	0.01482
5811.09992	0.01486
5809.17125	0.01491
5807.24257	0.01496
5805.31390	0.01498
5803.38522	0.01500
5801.45654	0.01502
5799.52787	0.01506
5797.59919	0.01509
5795.67052	0.01511
5793.74184	0.01514
5791.81317	0.01517
5789.88449	0.01520
5787.95581	0.01522
5786.02714	0.01525
5784.09846	0.01529
5782.16979	0.01532
5780.24111	0.01535
5778.31244	0.01536
5776.38376	0.01537
5774.45508	0.01541
5772.52641	0.01545
5770.59773	0.01548
5768.66906	0.01552
5766.74038	0.01557
5764.81171	0.01560
5762.88303	0.01563
5760.95435	0.01567
5759.02568	0.01572
5757.09700	0.01574
5755.16833	0.01575
5753.23965	0.01576
5751.31098	0.01580
5749.38230	0.01586
5747.45362	0.01589
5745.52495	0.01591
5743.59627	0.01595
5741.66760	0.01598
5739.73892	0.01601
5737.81025	0.01604
5735.88157	0.01608
5733.95289	0.01611
5732.02422	0.01614
5730.09554	0.01617
5728.16687	0.01620
5726.23819	0.01622
5724.30952	0.01623
5722.38084	0.01626
5720.45216	0.01630
5718.52349	0.01633
5716.59481	0.01637
5714.66614	0.01640
5712.73746	0.01644
5710.80879	0.01647
5708.88011	0.01652
5706.95143	0.01656
5705.02276	0.01659
5703.09408	0.01663
5701.16541	0.01668
5699.23673	0.01672
5697.30806	0.01673
5695.37938	0.01675
5693.45070	0.01678
5691.52203	0.01682
5689.59335	0.01685
5687.66468	0.01687
5685.73600	0.01689
5683.80733	0.01693
5681.87865	0.01696
5679.94997	0.01699
5678.02130	0.01703
5676.09262	0.01708
5674.16395	0.01710
5672.23527	0.01713
5670.30660	0.01716
5668.37792	0.01719
5666.44924	0.01723
5664.52057	0.01726
5662.59189	0.01730
5660.66322	0.01735
5658.73454	0.01739
5656.80587	0.01742
5654.87719	0.01743
5652.94851	0.01744
5651.01984	0.01748
5649.09116	0.01754
5647.16249	0.01760
5645.23381	0.01763
5643.30514	0.01765
5641.37646	0.01768
5639.44778	0.01772
5637.51911	0.01776
5635.59043	0.01780
5633.66176	0.01784
5631.73308	0.01787
5629.80441	0.01790
5627.87573	0.01793
5625.94705	0.01798
5624.01838	0.01802
5622.08970	0.01806
5620.16103	0.01809
5618.23235	0.01811
5616.30368	0.01814
5614.37500	0.01819
5612.44632	0.01824
5610.51765	0.01827
5608.58897	0.01827
5606.66030	0.01829
5604.73162	0.01833
5602.80295	0.01840
5600.87427	0.01844
5598.94559	0.01846
5597.01692	0.01847
5595.08824	0.01849
5593.15957	0.01853
5591.23089	0.01859
5589.30222	0.01864
5587.37354	0.01869
5585.44486	0.01873
5583.51619	0.01876
5581.58751	0.01877
5579.65884	0.01880
5577.73016	0.01884
5575.80149	0.01888
5573.87281	0.01893
5571.94413	0.01896
5570.01546	0.01898
5568.08678	0.01901
5566.15811	0.01904
5564.22943	0.01908
5562.30076	0.01913
5560.37208	0.01917
5558.44340	0.01921
5556.51473	0.01923
5554.58605	0.01926
5552.65738	0.01932
5550.72870	0.01939
5548.80003	0.01944
5546.87135	0.01946
5544.94267	0.01948
5543.01400	0.01952
5541.08532	0.01955
5539.15665	0.01959
5537.22797	0.01963
5535.29930	0.01966
5533.37062	0.01969
5531.44194	0.01971
5529.51327	0.01974
5527.58459	0.01978
5525.65592	0.01982
5523.72724	0.01984
5521.79857	0.01988
5519.86989	0.01994
5517.94121	0.01999
5516.01254	0.02005
5514.08386	0.02010
5512.15519	0.02013
5510.22651	0.02016
5508.29784	0.02020
5506.36916	0.02024
5504.44048	0.02028
5502.51181	0.02030
5500.58313	0.02033
5498.65446	0.02037
5496.72578	0.02042
5494.79711	0.02046
5492.86843	0.02050
5490.93975	0.02054
5489.01108	0.02058
5487.08240	0.02063
5485.15373	0.02067
5483.22505	0.02069
5481.29638	0.02069
5479.36770	0.02072
5477.43902	0.02077
5475.51035	0.02083
5473.58167	0.02087
5471.65300	0.02091
5469.72432	0.02094
5467.79565	0.02097
5465.86697	0.02100
5463.93829	0.02102
5462.00962	0.02105
5460.08094	0.02111
5458.15227	0.02118
5456.22359	0.02122
5454.29492	0.02125
5452.36624	0.02127
5450.43756	0.02130
5448.50889	0.02134
5446.58021	0.02139
5444.65154	0.02142
5442.72286	0.02145
5440.79419	0.02150
5438.86551	0.02153
5436.93683	0.02155
5435.00816	0.02159
5433.07948	0.02166
5431.15081	0.02171
5429.22213	0.02175
5427.29346	0.02179
5425.36478	0.02184
5423.43610	0.02187
5421.50743	0.02190
5419.57875	0.02195
5417.65008	0.02200
5415.72140	0.02204
5413.79273	0.02207
5411.86405	0.02211
5409.93537	0.02217
5408.00670	0.02222
5406.07802	0.02227
5404.14935	0.02229
5402.22067	0.02234
5400.29200	0.02239
5398.36332	0.02243
5396.43464	0.02246
5394.50597	0.02250
5392.57729	0.02253
5390.64862	0.02256
5388.71994	0.02261
5386.79127	0.02266
5384.86259	0.02270
5382.93391	0.02273
5381.00524	0.02276
5379.07656	0.02280
5377.14789	0.02284
5375.21921	0.02289
5373.29054	0.02295
5371.36186	0.02299
5369.43318	0.02303
5367.50451	0.02307
5365.57583	0.02312
5363.64716	0.02317
5361.71848	0.02321
5359.78981	0.02323
5357.86113	0.02327
5355.93245	0.02331
5354.00378	0.02334
5352.07510	0.02338
5350.14643	0.02343
5348.21775	0.02347
5346.28908	0.02351
5344.36040	0.02356
5342.43172	0.02361
5340.50305	0.02365
5338.57437	0.02370
5336.64570	0.02376
5334.71702	0.02382
5332.78835	0.02387
5330.85967	0.02389
5328.93099	0.02392
5327.00232	0.02397
5325.07364	0.02404
5323.14497	0.02409
5321.21629	0.02411
5319.28762	0.02413
5317.35894	0.02417
5315.43026	0.02422
5313.50159	0.02426
5311.57291	0.02430
5309.64424	0.02435
5307.71556	0.02439
5305.78689	0.02442
5303.85821	0.02446
5301.92953	0.02451
5300.00086	0.02456
5298.07218	0.02459
5296.14351	0.02462
5294.21483	0.02466
5292.28616	0.02469
5290.35748	0.02474
5288.42880	0.02480
5286.50013	0.02484
5284.57145	0.02488
5282.64278	0.02494
5280.71410	0.02499
5278.78543	0.02503
5276.85675	0.02506
5274.92807	0.02510
5272.99940	0.02514
5271.07072	0.02518
5269.14205	0.02523
5267.21337	0.02527
5265.28470	0.02532
5263.35602	0.02539
5261.42734	0.02544
5259.49867	0.02547
5257.56999	0.02550
5255.64132	0.02553
5253.71264	0.02557
5251.78397	0.02562
5249.85529	0.02565
5247.92661	0.02569
5245.99794	0.02574
5244.06926	0.02579
5242.14059	0.02585
5240.21191	0.02591
5238.28324	0.02597
5236.35456	0.02602
5234.42588	0.02606
5232.49721	0.02610
5230.56853	0.02615
5228.63986	0.02619
5226.71118	0.02622
5224.78251	0.02625
5222.85383	0.02629
5220.92515	0.02635
5218.99648	0.02641
5217.06780	0.02648
5215.13913	0.02653
5213.21045	0.02656
5211.28178	0.02658
5209.35310	0.02660
5207.42442	0.02665
5205.49575	0.02671
5203.56707	0.02677
5201.63840	0.02683
5199.70972	0.02689
5197.78105	0.02694
5195.85237	0.02697
5193.92369	0.02699
5191.99502	0.02702
5190.06634	0.02707
5188.13767	0.02714
5186.20899	0.02721
5184.28032	0.02726
5182.35164	0.02728
5180.42296	0.02730
5178.49429	0.02733
5176.56561	0.02738
5174.63694	0.02745
5172.70826	0.02752
5170.77959	0.02759
5168.85091	0.02764
5166.92223	0.02769
5164.99356	0.02773
5163.06488	0.02775
5161.13621	0.02777
5159.20753	0.02781
5157.27886	0.02787
5155.35018	0.02790
5153.42150	0.02794
5151.49283	0.02799
5149.56415	0.02805
5147.63548	0.02809
5145.70680	0.02813
5143.77813	0.02818
5141.84945	0.02823
5139.92077	0.02828
5137.99210	0.02833
5136.06342	0.02837
5134.13475	0.02841
5132.20607	0.02844
5130.27740	0.02848
5128.34872	0.02853
5126.42004	0.02858
5124.49137	0.02862
5122.56269	0.02867
5120.63402	0.02873
5118.70534	0.02878
5116.77667	0.02883
5114.84799	0.02889
5112.91931	0.02895
5110.99064	0.02899
5109.06196	0.02903
5107.13329	0.02907
5105.20461	0.02912
5103.27594	0.02917
5101.34726	0.02922
5099.41858	0.02927
5097.48991	0.02932
5095.56123	0.02936
5093.63256	0.02942
5091.70388	0.02947
5089.77521	0.02951
5087.84653	0.02955
5085.91785	0.02960
5083.98918	0.02967
5082.06050	0.02973
5080.13183	0.02976
5078.20315	0.02979
5076.27448	0.02984
5074.34580	0.02990
5072.41712	0.02995
5070.48845	0.02999
5068.55977	0.03004
5066.63110	0.03009
5064.70242	0.03014
5062.77375	0.03020
5060.84507	0.03023
5058.91639	0.03027
5056.98772	0.03034
5055.05904	0.03040
5053.13037	0.03046
5051.20169	0.03050
5049.27302	0.03054
5047.34434	0.03058
5045.41566	0.03064
5043.48699	0.03069
5041.55831	0.03073
5039.62964	0.03079
5037.70096	0.03086
5035.77229	0.03091
5033.84361	0.03095
5031.91493	0.03097
5029.98626	0.03102
5028.05758	0.03108
5026.12891	0.03113
5024.20023	0.03117
5022.27156	0.03121
5020.34288	0.03127
5018.41420	0.03133
5016.48553	0.03140
5014.55685	0.03146
5012.62818	0.03152
5010.69950	0.03156
5008.77083	0.03160
5006.84215	0.03165
5004.91347	0.03171
5002.98480	0.03175
5001.05612	0.03180
4999.12745	0.03184
4997.19877	0.03189
4995.27010	0.03194
4993.34142	0.03199
4991.41274	0.03201
4989.48407	0.03204
4987.55539	0.03208
4985.62672	0.03215
4983.69804	0.03224
4981.76937	0.03232
4979.84069	0.03236
4977.91201	0.03239
4975.98334	0.03244
4974.05466	0.03249
4972.12599	0.03256
4970.19731	0.03263
4968.26864	0.03268
4966.33996	0.03272
4964.41128	0.03276
4962.48261	0.03281
4960.55393	0.03287
4958.62526	0.03292
4956.69658	0.03296
4954.76791	0.03300
4952.83923	0.03306
4950.91055	0.03312
4948.98188	0.03317
4947.05320	0.03321
4945.12453	0.03326
4943.19585	0.03331
4941.26718	0.03338
4939.33850	0.03345
4937.40982	0.03352
4935.48115	0.03357
4933.55247	0.03360
4931.62380	0.03364
4929.69512	0.03370
4927.76645	0.03378
4925.83777	0.03385
4923.90909	0.03390
4921.98042	0.03396
4920.05174	0.03402
4918.12307	0.03408
4916.19439	0.03412
4914.26572	0.03416
4912.33704	0.03418
4910.40836	0.03422
4908.47969	0.03427
4906.55101	0.03433
4904.62234	0.03439
4902.69366	0.03444
4900.76499	0.03451
4898.83631	0.03458
4896.90763	0.03465
4894.97896	0.03471
4893.05028	0.03475
4891.12161	0.03479
4889.19293	0.03483
4887.26426	0.03488
4885.33558	0.03496
4883.40690	0.03502
4881.47823	0.03506
4879.54955	0.03511
4877.62088	0.03515
4875.69220	0.03519
4873.76353	0.03526
4871.83485	0.03535
4869.90617	0.03543
4867.97750	0.03546
4866.04882	0.03549
4864.12015	0.03553
4862.19147	0.03558
4860.26280	0.03564
4858.33412	0.03571
4856.40544	0.03577
4854.47677	0.03583
4852.54809	0.03589
4850.61942	0.03597
4848.69074	0.03603
4846.76207	0.03607
4844.83339	0.03610
4842.90471	0.03615
4840.97604	0.03623
4839.04736	0.03631
4837.11869	0.03638
4835.19001	0.03642
4833.26134	0.03645
4831.33266	0.03649
4829.40398	0.03656
4827.47531	0.03664
4825.54663	0.03671
4823.61796	0.03678
4821.68928	0.03683
4819.76061	0.03686
4817.83193	0.03691
4815.90325	0.03697
4813.97458	0.03704
4812.04590	0.03710
4810.11723	0.03715
4808.18855	0.03720
4806.25988	0.03725
4804.33120	0.03732
4802.40252	0.03739
4800.47385	0.03744
4798.54517	0.03749
4796.61650	0.03755
4794.68782	0.03762
4792.75915	0.03769
4790.83047	0.03775
4788.90179	0.03780
4786.97312	0.03786
4785.04444	0.03792
4783.11577	0.03798
4781.18709	0.03803
4779.25842	0.03808
4777.32974	0.03815
4775.40106	0.03821
4773.47239	0.03827
4771.54371	0.03833
4769.61504	0.03839
4767.68636	0.03845
4765.75769	0.03852
4763.82901	0.03859
4761.90033	0.03864
4759.97166	0.03868
4758.04298	0.03873
4756.11431	0.03879
4754.18563	0.03884
4752.25696	0.03892
4750.32828	0.03900
4748.39960	0.03906
4746.47093	0.03913
4744.54225	0.03920
4742.61358	0.03925
4740.68490	0.03930
4738.75623	0.03935
4736.82755	0.03942
4734.89887	0.03949
4732.97020	0.03955
4731.04152	0.03959
4729.11285	0.03965
4727.18417	0.03972
4725.25550	0.03978
4723.32682	0.03984
4721.39814	0.03991
4719.46947	0.03999
4717.54079	0.04006
4715.61212	0.04012
4713.68344	0.04018
4711.75477	0.04024
4709.82609	0.04029
4707.89741	0.04035
4705.96874	0.04042
4704.04006	0.04050
4702.11139	0.04058
4700.18271	0.04064
4698.25404	0.04071
4696.32536	0.04076
4694.39668	0.04081
4692.46801	0.04087
4690.53933	0.04091
4688.61066	0.04096
4686.68198	0.04101
4684.75331	0.04109
4682.82463	0.04117
4680.89595	0.04123
4678.96728	0.04130
4677.03860	0.04137
4675.10993	0.04146
4673.18125	0.04154
4671.25258	0.04161
4669.32390	0.04167
4667.39522	0.04170
4665.46655	0.04174
4663.53787	0.04181
4661.60920	0.04188
4659.68052	0.04195
4657.75185	0.04201
4655.82317	0.04208
4653.89449	0.04215
4651.96582	0.04224
4650.03714	0.04231
4648.10847	0.04239
4646.17979	0.04246
4644.25112	0.04252
4642.32244	0.04258
4640.39376	0.04265
4638.46509	0.04273
4636.53641	0.04279
4634.60774	0.04285
4632.67906	0.04292
4630.75039	0.04299
4628.82171	0.04305
4626.89303	0.04313
4624.96436	0.04322
4623.03568	0.04329
4621.10701	0.04334
4619.17833	0.04340
4617.24966	0.04347
4615.32098	0.04354
4613.39230	0.04362
4611.46363	0.04370
4609.53495	0.04379
4607.60628	0.04386
4605.67760	0.04392
4603.74893	0.04396
4601.82025	0.04404
4599.89157	0.04414
4597.96290	0.04422
4596.03422	0.04430
4594.10555	0.04437
4592.17687	0.04445
4590.24820	0.04452
4588.31952	0.04457
4586.39084	0.04463
4584.46217	0.04471
4582.53349	0.04479
4580.60482	0.04486
4578.67614	0.04494
4576.74747	0.04501
4574.81879	0.04509
4572.89011	0.04516
4570.96144	0.04523
4569.03276	0.04529
4567.10409	0.04534
4565.17541	0.04539
4563.24674	0.04547
4561.31806	0.04557
4559.38938	0.04566
4557.46071	0.04575
4555.53203	0.04583
4553.60336	0.04591
4551.67468	0.04597
4549.74601	0.04604
4547.81733	0.04610
4545.88865	0.04617
4543.95998	0.04624
4542.03130	0.04631
4540.10263	0.04639
4538.17395	0.04646
4536.24528	0.04653
4534.31660	0.04661
4532.38792	0.04669
4530.45925	0.04676
4528.53057	0.04684
4526.60190	0.04691
4524.67322	0.04699
4522.74455	0.04708
4520.81587	0.04717
4518.88719	0.04723
4516.95852	0.04728
4515.02984	0.04736
4513.10117	0.04744
4511.17249	0.04754
4509.24382	0.04763
4507.31514	0.04772
4505.38646	0.04781
4503.45779	0.04788
4501.52911	0.04797
4499.60044	0.04805
4497.67176	0.04812
4495.74309	0.04818
4493.81441	0.04826
4491.88573	0.04835
4489.95706	0.04842
4488.02838	0.04849
4486.09971	0.04857
4484.17103	0.04865
4482.24236	0.04873
4480.31368	0.04882
4478.38500	0.04890
4476.45633	0.04899
4474.52765	0.04909
4472.59898	0.04917
4470.67030	0.04923
4468.74163	0.04931
4466.81295	0.04941
4464.88427	0.04950
4462.95560	0.04959
4461.02692	0.04968
4459.09825	0.04976
4457.16957	0.04983
4455.24090	0.04991
4453.31222	0.05000
4451.38354	0.05009
4449.45487	0.05017
4447.52619	0.05024
4445.59752	0.05031
4443.66884	0.05040
4441.74017	0.05051
4439.81149	0.05060
4437.88281	0.05067
4435.95414	0.05075
4434.02546	0.05084
4432.09679	0.05094
4430.16811	0.05103
4428.23944	0.05111
4426.31076	0.05120
4424.38208	0.05128
4422.45341	0.05136
4420.52473	0.05145
4418.59606	0.05155
4416.66738	0.05165
4414.73871	0.05175
4412.81003	0.05184
4410.88135	0.05194
4408.95268	0.05205
4407.02400	0.05214
4405.09533	0.05223
4403.16665	0.05232
4401.23798	0.05240
4399.30930	0.05248
4397.38062	0.05255
4395.45195	0.05263
4393.52327	0.05273
4391.59460	0.05284
4389.66592	0.05293
4387.73725	0.05301
4385.80857	0.05309
4383.87989	0.05318
4381.95122	0.05329
4380.02254	0.05339
4378.09387	0.05349
4376.16519	0.05360
4374.23652	0.05370
4372.30784	0.05378
4370.37916	0.05385
4368.45049	0.05393
4366.52181	0.05403
4364.59314	0.05413
4362.66446	0.05422
4360.73579	0.05431
4358.80711	0.05441
4356.87843	0.05451
4354.94976	0.05461
4353.02108	0.05471
4351.09241	0.05480
4349.16373	0.05489
4347.23506	0.05499
4345.30638	0.05508
4343.37770	0.05517
4341.44903	0.05527
4339.52035	0.05537
4337.59168	0.05546
4335.66300	0.05555
4333.73433	0.05566
4331.80565	0.05576
4329.87697	0.05587
4327.94830	0.05598
4326.01962	0.05608
4324.09095	0.05617
4322.16227	0.05625
4320.23360	0.05635
4318.30492	0.05647
4316.37624	0.05658
4314.44757	0.05668
4312.51889	0.05678
4310.59022	0.05687
4308.66154	0.05696
4306.73287	0.05707
4304.80419	0.05719
4302.87551	0.05730
4300.94684	0.05739
4299.01816	0.05749
4297.08949	0.05761
4295.16081	0.05772
4293.23214	0.05782
4291.30346	0.05794
4289.37478	0.05807
4287.44611	0.05819
4285.51743	0.05827
4283.58876	0.05834
4281.66008	0.05843
4279.73141	0.05854
4277.80273	0.05864
4275.87405	0.05876
4273.94538	0.05888
4272.01670	0.05899
4270.08803	0.05910
4268.15935	0.05919
4266.23068	0.05929
4264.30200	0.05940
4262.37332	0.05951
4260.44465	0.05961
4258.51597	0.05972
4256.58730	0.05982
4254.65862	0.05992
4252.72995	0.06003
4250.80127	0.06015
4248.87259	0.06026
4246.94392	0.06036
4245.01524	0.06046
4243.08657	0.06059
4241.15789	0.06070
4239.22922	0.06079
4237.30054	0.06087
4235.37186	0.06098
4233.44319	0.06111
4231.51451	0.06125
4229.58584	0.06135
4227.65716	0.06145
4225.72849	0.06156
4223.79981	0.06169
4221.87113	0.06182
4219.94246	0.06192
4218.01378	0.06200
4216.08511	0.06208
4214.15643	0.06219
4212.22776	0.06231
4210.29908	0.06243
4208.37040	0.06255
4206.44173	0.06267
4204.51305	0.06278
4202.58438	0.06290
4200.65570	0.06303
4198.72703	0.06316
4196.79835	0.06327
4194.86968	0.06339
4192.94100	0.06351
4191.01232	0.06362
4189.08365	0.06372
4187.15497	0.06383
4185.22630	0.06396
4183.29762	0.06410
4181.36895	0.06425
4179.44027	0.06437
4177.51159	0.06448
4175.58292	0.06461
4173.65424	0.06472
4171.72557	0.06481
4169.79689	0.06493
4167.86822	0.06507
4165.93954	0.06519
4164.01086	0.06531
4162.08219	0.06543
4160.15351	0.06554
4158.22484	0.06564
4156.29616	0.06577
4154.36749	0.06590
4152.43881	0.06602
4150.51013	0.06615
4148.58146	0.06628
4146.65278	0.06640
4144.72411	0.06651
4142.79543	0.06664
4140.86676	0.06678
4138.93808	0.06690
4137.00940	0.06700
4135.08073	0.06711
4133.15205	0.06726
4131.22338	0.06741
4129.29470	0.06754
4127.36603	0.06765
4125.43735	0.06775
4123.50867	0.06787
4121.58000	0.06800
4119.65132	0.06814
4117.72265	0.06828
4115.79397	0.06840
4113.86530	0.06852
4111.93662	0.06865
4110.00794	0.06878
4108.07927	0.06889
4106.15059	0.06900
4104.22192	0.06913
4102.29324	0.06928
4100.36457	0.06942
4098.43589	0.06954
4096.50721	0.06967
4094.57854	0.06980
4092.64986	0.06994
4090.72119	0.07007
4088.79251	0.07020
4086.86384	0.07033
4084.93516	0.07047
4083.00648	0.07062
4081.07781	0.07075
4079.14913	0.07087
4077.22046	0.07099
4075.29178	0.07113
4073.36311	0.07126
4071.43443	0.07138
4069.50575	0.07151
4067.57708	0.07166
4065.64840	0.07182
4063.71973	0.07196
4061.79105	0.07208
4059.86238	0.07220
4057.93370	0.07234
4056.00502	0.07248
4054.07635	0.07261
4052.14767	0.07274
4050.21900	0.07287
4048.29032	0.07301
4046.36165	0.07316
4044.43297	0.07328
4042.50429	0.07338
4040.57562	0.07350
4038.64694	0.07363
4036.71827	0.07378
4034.78959	0.07393
4032.86092	0.07409
4030.93224	0.07425
4029.00356	0.07441
4027.07489	0.07456
4025.14621	0.07468
4023.21754	0.07479
4021.28886	0.07490
4019.36019	0.07505
4017.43151	0.07523
4015.50283	0.07541
4013.57416	0.07555
4011.64548	0.07566
4009.71681	0.07578
4007.78813	0.07592
4005.85946	0.07608
4003.93078	0.07622
4002.00210	0.07635
4000.07343	0.07648
3998.14475	0.07662
3996.21608	0.07677
3994.28740	0.07694
3992.35873	0.07711
3990.43005	0.07728
3988.50137	0.07745
3986.57270	0.07762
3984.64402	0.07774
3982.71535	0.07783
3980.78667	0.07794
3978.85800	0.07809
3976.92932	0.07825
3975.00064	0.07840
3973.07197	0.07854
3971.14329	0.07867
3969.21462	0.07881
3967.28594	0.07898
3965.35727	0.07913
3963.42859	0.07926
3961.49991	0.07940
3959.57124	0.07956
3957.64256	0.07973
3955.71389	0.07988
3953.78521	0.08001
3951.85654	0.08014
3949.92786	0.08027
3947.99918	0.08039
3946.07051	0.08054
3944.14183	0.08070
3942.21316	0.08086
3940.28448	0.08103
3938.35581	0.08121
3936.42713	0.08137
3934.49845	0.08150
3932.56978	0.08164
3930.64110	0.08179
3928.71243	0.08195
3926.78375	0.08211
3924.85508	0.08228
3922.92640	0.08242
3920.99772	0.08252
3919.06905	0.08263
3917.14037	0.08280
3915.21170	0.08301
3913.28302	0.08317
3911.35435	0.08329
3909.42567	0.08340
3907.49699	0.08352
3905.56832	0.08362
3903.63964	0.08376
3901.71097	0.08392
3899.78229	0.08412
3897.85362	0.08435
3895.92494	0.08457
3893.99626	0.08471
3892.06759	0.08480
3890.13891	0.08494
3888.21024	0.08508
3886.28156	0.08521
3884.35289	0.08539
3882.42421	0.08559
3880.49553	0.08576
3878.56686	0.08594
3876.63818	0.08612
3874.70951	0.08625
3872.78083	0.08635
3870.85216	0.08644
3868.92348	0.08659
3866.99480	0.08679
3865.06613	0.08698
3863.13745	0.08720
3861.20878	0.08742
3859.28010	0.08755
3857.35143	0.08756
3855.42275	0.08748
3853.49407	0.08754
3851.56540	0.08786
3849.63672	0.08826
3847.70805	0.08854
3845.77937	0.08872
3843.85070	0.08884
3841.92202	0.08894
3839.99334	0.08901
3838.06467	0.08911
3836.13599	0.08929
3834.20732	0.08953
3832.27864	0.08977
3830.34997	0.08998
3828.42129	0.09016
3826.49261	0.09035
3824.56394	0.09049
3822.63526	0.09056
3820.70659	0.09066
3818.77791	0.09083
3816.84924	0.09100
3814.92056	0.09123
3812.99188	0.09151
3811.06321	0.09173
3809.13453	0.09185
3807.20586	0.09195
3805.27718	0.09210
3803.34851	0.09222
3801.41983	0.09234
3799.49115	0.09256
3797.56248	0.09282
3795.63380	0.09305
3793.70513	0.09326
3791.77645	0.09344
3789.84778	0.09362
3787.91910	0.09379
3785.99042	0.09395
3784.06175	0.09410
3782.13307	0.09425
3780.20440	0.09440
3778.27572	0.09458
3776.34705	0.09479
3774.41837	0.09497
3772.48969	0.09511
3770.56102	0.09525
3768.63234	0.09543
3766.70367	0.09561
3764.77499	0.09577
3762.84632	0.09592
3760.91764	0.09606
3758.98896	0.09624
3757.06029	0.09642
3755.13161	0.09654
3753.20294	0.09656
3751.27426	0.09662
3749.34559	0.09680
3747.41691	0.09698
3745.48823	0.09708
3743.55956	0.09732
3741.63088	0.09771
3739.70221	0.09795
3737.77353	0.09802
3735.84486	0.09810
3733.91618	0.09828
3731.98750	0.09853
3730.05883	0.09879
3728.13015	0.09900
3726.20148	0.09918
3724.27280	0.09936
3722.34413	0.09955
3720.41545	0.09974
3718.48677	0.09994
3716.55810	0.10011
3714.62942	0.10023
3712.70075	0.10033
3710.77207	0.10049
3708.84340	0.10074
3706.91472	0.10098
3704.98604	0.10115
3703.05737	0.10127
3701.12869	0.10144
3699.20002	0.10168
3697.27134	0.10191
3695.34267	0.10207
3693.41399	0.10216
3691.48531	0.10222
3689.55664	0.10232
3687.62796	0.10253
3685.69929	0.10283
3683.77061	0.10308
3681.84194	0.10325
3679.91326	0.10336
3677.98458	0.10339
3676.05591	0.10344
3674.12723	0.10363
3672.19856	0.10386
3670.26988	0.10404
3668.34121	0.10431
3666.41253	0.10462
3664.48385	0.10484
3662.55518	0.10501
3660.62650	0.10515
3658.69783	0.10523
3656.76915	0.10530
3654.84048	0.10543
3652.91180	0.10547
3650.98312	0.10535
3649.05445	0.10528
3647.12577	0.10547
3645.19710	0.10584
3643.26842	0.10622
3641.33975	0.10655
3639.41107	0.10679
3637.48239	0.10696
3635.55372	0.10710
3633.62504	0.10722
3631.69637	0.10724
3629.76769	0.10726
3627.83902	0.10744
3625.91034	0.10773
3623.98166	0.10795
3622.05299	0.10806
3620.12431	0.10813
3618.19564	0.10827
3616.26696	0.10842
3614.33829	0.10852
3612.40961	0.10861
3610.48093	0.10873
3608.55226	0.10889
3606.62358	0.10909
3604.69491	0.10928
3602.76623	0.10943
3600.83756	0.10957
3598.90888	0.10970
3596.98020	0.10980
3595.05153	0.10993
3593.12285	0.11012
3591.19418	0.11029
3589.26550	0.11038
3587.33683	0.11047
3585.40815	0.11064
3583.47947	0.11086
3581.55080	0.11104
3579.62212	0.11117
3577.69345	0.11130
3575.76477	0.11146
3573.83610	0.11165
3571.90742	0.11183
3569.97874	0.11194
3568.05007	0.11201
3566.12139	0.11213
3564.19272	0.11232
3562.26404	0.11250
3560.33537	0.11267
3558.40669	0.11284
3556.47801	0.11299
3554.54934	0.11312
3552.62066	0.11324
3550.69199	0.11336
3548.76331	0.11345
3546.83464	0.11356
3544.90596	0.11370
3542.97728	0.11387
3541.04861	0.11401
3539.11993	0.11412
3537.19126	0.11420
3535.26258	0.11429
3533.33391	0.11439
3531.40523	0.11451
3529.47655	0.11461
3527.54788	0.11469
3525.61920	0.11476
3523.69053	0.11485
3521.76185	0.11494
3519.83318	0.11503
3517.90450	0.11510
3515.97582	0.11514
3514.04715	0.11519
3512.11847	0.11527
3510.18980	0.11536
3508.26112	0.11545
3506.33245	0.11553
3504.40377	0.11561
3502.47509	0.11568
3500.54642	0.11573
3498.61774	0.11577
3496.68907	0.11582
3494.76039	0.11587
3492.83172	0.11594
3490.90304	0.11599
3488.97436	0.11604
3487.04569	0.11610
3485.11701	0.11616
3483.18834	0.11623
3481.25966	0.11632
3479.33099	0.11644
3477.40231	0.11659
3475.47363	0.11676
3473.54496	0.11692
3471.61628	0.11707
3469.68761	0.11722
3467.75893	0.11736
3465.83026	0.11754
3463.90158	0.11776
3461.97290	0.11797
3460.04423	0.11815
3458.11555	0.11835
3456.18688	0.11856
3454.25820	0.11876
3452.32953	0.11892
3450.40085	0.11907
3448.47217	0.11924
3446.54350	0.11941
3444.61482	0.11957
3442.68615	0.11975
3440.75747	0.11996
3438.82880	0.12022
3436.90012	0.12053
3434.97144	0.12090
3433.04277	0.12130
3431.11409	0.12167
3429.18542	0.12204
3427.25674	0.12242
3425.32807	0.12280
3423.39939	0.12317
3421.47071	0.12350
3419.54204	0.12381
3417.61336	0.12413
3415.68469	0.12445
3413.75601	0.12474
3411.82734	0.12501
3409.89866	0.12528
3407.96998	0.12554
3406.04131	0.12580
3404.11263	0.12604
3402.18396	0.12627
3400.25528	0.12650
3398.32661	0.12675
3396.39793	0.12701
3394.46925	0.12729
3392.54058	0.12757
3390.61190	0.12783
3388.68323	0.12806
3386.75455	0.12831
3384.82588	0.12856
3382.89720	0.12880
3380.96852	0.12904
3379.03985	0.12929
3377.11117	0.12953
3375.18250	0.12975
3373.25382	0.12998
3371.32515	0.13021
3369.39647	0.13043
3367.46779	0.13066
3365.53912	0.13090
3363.61044	0.13114
3361.68177	0.13137
3359.75309	0.13159
3357.82442	0.13183
3355.89574	0.13207
3353.96706	0.13231
3352.03839	0.13253
3350.10971	0.13274
3348.18104	0.13297
3346.25236	0.13321
3344.32369	0.13345
3342.39501	0.13368
3340.46633	0.13390
3338.53766	0.13412
3336.60898	0.13437
3334.68031	0.13463
3332.75163	0.13489
3330.82296	0.13513
3328.89428	0.13536
3326.96560	0.13560
3325.03693	0.13583
3323.10825	0.13606
3321.17958	0.13629
3319.25090	0.13654
3317.32223	0.13679
3315.39355	0.13704
3313.46487	0.13729
3311.53620	0.13752
3309.60752	0.13777
3307.67885	0.13803
3305.75017	0.13827
3303.82150	0.13848
3301.89282	0.13869
3299.96414	0.13893
3298.03547	0.13917
3296.10679	0.13941
3294.17812	0.13967
3292.24944	0.13995
3290.32077	0.14022
3288.39209	0.14046
3286.46341	0.14070
3284.53474	0.14097
3282.60606	0.14122
3280.67739	0.14148
3278.74871	0.14175
3276.82004	0.14199
3274.89136	0.14220
3272.96268	0.14244
3271.03401	0.14273
3269.10533	0.14304
3267.17666	0.14333
3265.24798	0.14358
3263.31931	0.14381
3261.39063	0.14403
3259.46195	0.14425
3257.53328	0.14449
3255.60460	0.14475
3253.67593	0.14503
3251.74725	0.14530
3249.81858	0.14557
3247.88990	0.14581
3245.96122	0.14602
3244.03255	0.14625
3242.10387	0.14651
3240.17520	0.14679
3238.24652	0.14706
3236.31785	0.14732
3234.38917	0.14758
3232.46049	0.14785
3230.53182	0.14812
3228.60314	0.14840
3226.67447	0.14867
3224.74579	0.14894
3222.81712	0.14920
3220.88844	0.14946
3218.95976	0.14971
3217.03109	0.14992
3215.10241	0.15011
3213.17374	0.15032
3211.24506	0.15058
3209.31639	0.15084
3207.38771	0.15111
3205.45903	0.15138
3203.53036	0.15164
3201.60168	0.15190
3199.67301	0.15218
3197.74433	0.15246
3195.81566	0.15273
3193.88698	0.15301
3191.95830	0.15331
3190.02963	0.15359
3188.10095	0.15387
3186.17228	0.15415
3184.24360	0.15443
3182.31493	0.15470
3180.38625	0.15496
3178.45757	0.15521
3176.52890	0.15546
3174.60022	0.15571
3172.67155	0.15596
3170.74287	0.15624
3168.81420	0.15652
3166.88552	0.15678
3164.95684	0.15704
3163.02817	0.15732
3161.09949	0.15760
3159.17082	0.15788
3157.24214	0.15814
3155.31347	0.15841
3153.38479	0.15868
3151.45611	0.15894
3149.52744	0.15918
3147.59876	0.15944
3145.67009	0.15971
3143.74141	0.15997
3141.81274	0.16022
3139.88406	0.16048
3137.95538	0.16075
3136.02671	0.16101
3134.09803	0.16126
3132.16936	0.16154
3130.24068	0.16184
3128.31201	0.16212
3126.38333	0.16235
3124.45465	0.16258
3122.52598	0.16285
3120.59730	0.16316
3118.66863	0.16343
3116.73995	0.16367
3114.81128	0.16392
3112.88260	0.16418
3110.95392	0.16442
3109.02525	0.16469
3107.09657	0.16499
3105.16790	0.16526
3103.23922	0.16551
3101.31055	0.16576
3099.38187	0.16601
3097.45319	0.16628
3095.52452	0.16656
3093.59584	0.16684
3091.66717	0.16712
3089.73849	0.16737
3087.80982	0.16763
3085.88114	0.16792
3083.95246	0.16821
3082.02379	0.16845
3080.09511	0.16867
3078.16644	0.16891
3076.23776	0.16918
3074.30909	0.16947
3072.38041	0.16974
3070.45173	0.16999
3068.52306	0.17026
3066.59438	0.17054
3064.66571	0.17081
3062.73703	0.17107
3060.80836	0.17129
3058.87968	0.17151
3056.95100	0.17176
3055.02233	0.17205
3053.09365	0.17233
3051.16498	0.17261
3049.23630	0.17290
3047.30763	0.17318
3045.37895	0.17344
3043.45027	0.17369
3041.52160	0.17394
3039.59292	0.17419
3037.66425	0.17445
3035.73557	0.17471
3033.80690	0.17496
3031.87822	0.17521
3029.94954	0.17547
3028.02087	0.17575
3026.09219	0.17602
3024.16352	0.17629
3022.23484	0.17656
3020.30617	0.17681
3018.37749	0.17703
3016.44881	0.17728
3014.52014	0.17758
3012.59146	0.17789
3010.66279	0.17815
3008.73411	0.17841
3006.80544	0.17867
3004.87676	0.17891
3002.94808	0.17917
3001.01941	0.17943
2999.09073	0.17970
2997.16206	0.17995
2995.23338	0.18020
2993.30471	0.18045
2991.37603	0.18069
2989.44735	0.18091
2987.51868	0.18111
2985.59000	0.18131
2983.66133	0.18151
2981.73265	0.18167
2979.80398	0.18179
2977.87530	0.18187
2975.94662	0.18193
2974.01795	0.18196
2972.08927	0.18194
2970.16060	0.18189
2968.23192	0.18183
2966.30325	0.18183
2964.37457	0.18191
2962.44589	0.18207
2960.51722	0.18229
2958.58854	0.18258
2956.65987	0.18293
2954.73119	0.18332
2952.80252	0.18370
2950.87384	0.18402
2948.94516	0.18430
2947.01649	0.18454
2945.08781	0.18474
2943.15914	0.18488
2941.23046	0.18496
2939.30179	0.18499
2937.37311	0.18498
2935.44443	0.18493
2933.51576	0.18485
2931.58708	0.18477
2929.65841	0.18469
2927.72973	0.18461
2925.80106	0.18455
2923.87238	0.18455
2921.94370	0.18464
2920.01503	0.18481
2918.08635	0.18510
2916.15768	0.18562
2914.22900	0.18641
2912.30033	0.18731
2910.37165	0.18814
2908.44297	0.18882
2906.51430	0.18936
2904.58562	0.18984
2902.65695	0.19029
2900.72827	0.19071
2898.79960	0.19112
2896.87092	0.19151
2894.94224	0.19188
2893.01357	0.19223
2891.08489	0.19260
2889.15622	0.19295
2887.22754	0.19328
2885.29887	0.19359
2883.37019	0.19390
2881.44151	0.19421
2879.51284	0.19449
2877.58416	0.19473
2875.65549	0.19498
2873.72681	0.19521
2871.79814	0.19542
2869.86946	0.19565
2867.94078	0.19591
2866.01211	0.19617
2864.08343	0.19637
2862.15476	0.19649
2860.22608	0.19653
2858.29741	0.19653
2856.36873	0.19651
2854.44005	0.19645
2852.51138	0.19641
2850.58270	0.19656
2848.65403	0.19710
2846.72535	0.19801
2844.79668	0.19897
2842.86800	0.19974
2840.93932	0.20038
2839.01065	0.20093
2837.08197	0.20134
2835.15330	0.20169
2833.22462	0.20206
2831.29595	0.20242
2829.36727	0.20273
2827.43859	0.20304
2825.50992	0.20335
2823.58124	0.20366
2821.65257	0.20396
2819.72389	0.20426
2817.79522	0.20456
2815.86654	0.20487
2813.93786	0.20517
2812.00919	0.20547
2810.08051	0.20578
2808.15184	0.20607
2806.22316	0.20638
2804.29449	0.20672
2802.36581	0.20704
2800.43713	0.20731
2798.50846	0.20757
2796.57978	0.20786
2794.65111	0.20816
2792.72243	0.20846
2790.79376	0.20875
2788.86508	0.20903
2786.93640	0.20934
2785.00773	0.20964
2783.07905	0.20991
2781.15038	0.21018
2779.22170	0.21047
2777.29303	0.21078
2775.36435	0.21109
2773.43567	0.21137
2771.50700	0.21165
2769.57832	0.21196
2767.64965	0.21228
2765.72097	0.21258
2763.79230	0.21284
2761.86362	0.21309
2759.93494	0.21337
2758.00627	0.21365
2756.07759	0.21390
2754.14892	0.21416
2752.22024	0.21445
2750.29157	0.21475
2748.36289	0.21505
2746.43421	0.21534
2744.50554	0.21560
2742.57686	0.21585
2740.64819	0.21612
2738.71951	0.21639
2736.79084	0.21668
2734.86216	0.21698
2732.93348	0.21728
2731.00481	0.21754
2729.07613	0.21776
2727.14746	0.21799
2725.21878	0.21829
2723.29011	0.21860
2721.36143	0.21890
2719.43275	0.21919
2717.50408	0.21945
2715.57540	0.21971
2713.64673	0.21998
2711.71805	0.22025
2709.78938	0.22051
2707.86070	0.22078
2705.93202	0.22105
2704.00335	0.22136
2702.07467	0.22169
2700.14600	0.22197
2698.21732	0.22221
2696.28865	0.22246
2694.35997	0.22276
2692.43129	0.22307
2690.50262	0.22333
2688.57394	0.22357
2686.64527	0.22380
2684.71659	0.22405
2682.78792	0.22433
2680.85924	0.22462
2678.93056	0.22489
2677.00189	0.22515
2675.07321	0.22540
2673.14454	0.22566
2671.21586	0.22593
2669.28719	0.22620
2667.35851	0.22648
2665.42983	0.22677
2663.50116	0.22706
2661.57248	0.22736
2659.64381	0.22764
2657.71513	0.22793
2655.78646	0.22821
2653.85778	0.22849
2651.92910	0.22878
2650.00043	0.22908
2648.07175	0.22936
2646.14308	0.22963
2644.21440	0.22993
2642.28573	0.23026
2640.35705	0.23056
2638.42837	0.23083
2636.49970	0.23110
2634.57102	0.23137
2632.64235	0.23163
2630.71367	0.23192
2628.78500	0.23222
2626.85632	0.23251
2624.92764	0.23282
2622.99897	0.23317
2621.07029	0.23352
2619.14162	0.23383
2617.21294	0.23410
2615.28427	0.23437
2613.35559	0.23465
2611.42691	0.23497
2609.49824	0.23527
2607.56956	0.23555
2605.64089	0.23581
2603.71221	0.23607
2601.78354	0.23638
2599.85486	0.23672
2597.92618	0.23704
2595.99751	0.23734
2594.06883	0.23764
2592.14016	0.23792
2590.21148	0.23818
2588.28281	0.23849
2586.35413	0.23883
2584.42545	0.23914
2582.49678	0.23943
2580.56810	0.23971
2578.63943	0.23999
2576.71075	0.24028
2574.78208	0.24055
2572.85340	0.24084
2570.92472	0.24114
2568.99605	0.24143
2567.06737	0.24172
2565.13870	0.24200
2563.21002	0.24227
2561.28135	0.24253
2559.35267	0.24282
2557.42399	0.24311
2555.49532	0.24338
2553.56664	0.24366
2551.63797	0.24395
2549.70929	0.24422
2547.78062	0.24447
2545.85194	0.24473
2543.92326	0.24499
2541.99459	0.24526
2540.06591	0.24555
2538.13724	0.24586
2536.20856	0.24618
2534.27989	0.24647
2532.35121	0.24674
2530.42253	0.24701
2528.49386	0.24731
2526.56518	0.24763
2524.63651	0.24795
2522.70783	0.24827
2520.77916	0.24855
2518.85048	0.24881
2516.92181	0.24908
2514.99313	0.24937
2513.06445	0.24969
2511.13578	0.25001
2509.20710	0.25031
2507.27843	0.25061
2505.34975	0.25094
2503.42108	0.25128
2501.49240	0.25159
2499.56372	0.25188
2497.63505	0.25218
2495.70637	0.25251
2493.77770	0.25284
2491.84902	0.25317
2489.92035	0.25349
2487.99167	0.25381
2486.06299	0.25415
2484.13432	0.25449
2482.20564	0.25482
2480.27697	0.25513
2478.34829	0.25541
2476.41962	0.25570
2474.49094	0.25601
2472.56226	0.25630
2470.63359	0.25658
2468.70491	0.25687
2466.77624	0.25717
2464.84756	0.25747
2462.91889	0.25778
2460.99021	0.25811
2459.06153	0.25842
2457.13286	0.25869
2455.20418	0.25897
2453.27551	0.25929
2451.34683	0.25962
2449.41816	0.25998
2447.48948	0.26033
2445.56080	0.26065
2443.63213	0.26094
2441.70345	0.26121
2439.77478	0.26150
2437.84610	0.26182
2435.91743	0.26216
2433.98875	0.26247
2432.06007	0.26275
2430.13140	0.26304
2428.20272	0.26335
2426.27405	0.26364
2424.34537	0.26394
2422.41670	0.26425
2420.48802	0.26459
2418.55934	0.26491
2416.63067	0.26522
2414.70199	0.26552
2412.77332	0.26582
2410.84464	0.26610
2408.91597	0.26637
2406.98729	0.26665
2405.05861	0.26694
2403.12994	0.26726
2401.20126	0.26757
2399.27259	0.26785
2397.34391	0.26814
2395.41524	0.26845
2393.48656	0.26874
2391.55788	0.26903
2389.62921	0.26933
2387.70053	0.26963
2385.77186	0.26992
2383.84318	0.27014
2381.91451	0.27034
2379.98583	0.27054
2378.05715	0.27069
2376.12848	0.27078
2374.19980	0.27086
2372.27113	0.27096
2370.34245	0.27102
2368.41378	0.27109
2366.48510	0.27122
2364.55642	0.27138
2362.62775	0.27159
2360.69907	0.27189
2358.77040	0.27230
2356.84172	0.27278
2354.91305	0.27331
2352.98437	0.27391
2351.05569	0.27452
2349.12702	0.27495
2347.19834	0.27511
2345.26967	0.27517
2343.34099	0.27528
2341.41232	0.27545
2339.48364	0.27570
2337.55496	0.27600
2335.62629	0.27633
2333.69761	0.27663
2331.76894	0.27694
2329.84026	0.27729
2327.91159	0.27768
2325.98291	0.27805
2324.05423	0.27844
2322.12556	0.27885
2320.19688	0.27927
2318.26821	0.27969
2316.33953	0.28012
2314.41086	0.28054
2312.48218	0.28096
2310.55350	0.28134
2308.62483	0.28169
2306.69615	0.28201
2304.76748	0.28234
2302.83880	0.28270
2300.91013	0.28305
2298.98145	0.28336
2297.05277	0.28368
2295.12410	0.28403
2293.19542	0.28436
2291.26675	0.28466
2289.33807	0.28496
2287.40940	0.28526
2285.48072	0.28555
2283.55204	0.28585
2281.62337	0.28615
2279.69469	0.28645
2277.76602	0.28674
2275.83734	0.28702
2273.90867	0.28731
2271.97999	0.28762
2270.05131	0.28794
2268.12264	0.28826
2266.19396	0.28859
2264.26529	0.28890
2262.33661	0.28920
2260.40794	0.28950
2258.47926	0.28978
2256.55058	0.29007
2254.62191	0.29038
2252.69323	0.29070
2250.76456	0.29101
2248.83588	0.29135
2246.90721	0.29169
2244.97853	0.29203
2243.04985	0.29234
2241.12118	0.29264
2239.19250	0.29292
2237.26383	0.29320
2235.33515	0.29348
2233.40648	0.29376
2231.47780	0.29404
2229.54912	0.29435
2227.62045	0.29466
2225.69177	0.29495
2223.76310	0.29523
2221.83442	0.29554
2219.90575	0.29587
2217.97707	0.29618
2216.04839	0.29647
2214.11972	0.29678
2212.19104	0.29709
2210.26237	0.29740
2208.33369	0.29771
2206.40502	0.29798
2204.47634	0.29823
2202.54766	0.29848
2200.61899	0.29877
2198.69031	0.29909
2196.76164	0.29942
2194.83296	0.29972
2192.90429	0.29999
2190.97561	0.30026
2189.04693	0.30056
2187.11826	0.30087
2185.18958	0.30117
2183.26091	0.30146
2181.33223	0.30173
2179.40356	0.30200
2177.47488	0.30229
2175.54620	0.30260
2173.61753	0.30293
2171.68885	0.30327
2169.76018	0.30360
2167.83150	0.30392
2165.90283	0.30425
2163.97415	0.30458
2162.04547	0.30487
2160.11680	0.30513
2158.18812	0.30541
2156.25945	0.30574
2154.33077	0.30605
2152.40210	0.30636
2150.47342	0.30670
2148.54474	0.30703
2146.61607	0.30732
2144.68739	0.30762
2142.75872	0.30794
2140.83004	0.30825
2138.90137	0.30856
2136.97269	0.30888
2135.04401	0.30918
2133.11534	0.30945
2131.18666	0.30971
2129.25799	0.30999
2127.32931	0.31028
2125.40064	0.31059
2123.47196	0.31094
2121.54328	0.31129
2119.61461	0.31162
2117.68593	0.31192
2115.75726	0.31221
2113.82858	0.31253
2111.89991	0.31285
2109.97123	0.31318
2108.04255	0.31351
2106.11388	0.31382
2104.18520	0.31409
2102.25653	0.31435
2100.32785	0.31465
2098.39918	0.31498
2096.47050	0.31531
2094.54182	0.31564
2092.61315	0.31593
2090.68447	0.31623
2088.75580	0.31657
2086.82712	0.31692
2084.89845	0.31725
2082.96977	0.31756
2081.04109	0.31788
2079.11242	0.31819
2077.18374	0.31844
2075.25507	0.31868
2073.32639	0.31892
2071.39772	0.31919
2069.46904	0.31950
2067.54036	0.31981
2065.61169	0.32013
2063.68301	0.32049
2061.75434	0.32085
2059.82566	0.32118
2057.89699	0.32146
2055.96831	0.32175
2054.03963	0.32205
2052.11096	0.32236
2050.18228	0.32268
2048.25361	0.32299
2046.32493	0.32331
2044.39626	0.32365
2042.46758	0.32396
2040.53890	0.32424
2038.61023	0.32452
2036.68155	0.32482
2034.75288	0.32513
2032.82420	0.32546
2030.89553	0.32577
2028.96685	0.32605
2027.03817	0.32634
2025.10950	0.32665
2023.18082	0.32700
2021.25215	0.32736
2019.32347	0.32767
2017.39480	0.32798
2015.46612	0.32834
2013.53744	0.32869
2011.60877	0.32897
2009.68009	0.32921
2007.75142	0.32948
2005.82274	0.32979
2003.89407	0.33013
2001.96539	0.33048
2000.03671	0.33082
1998.10804	0.33110
1996.17936	0.33134
1994.25069	0.33159
1992.32201	0.33187
1990.39334	0.33216
1988.46466	0.33246
1986.53598	0.33274
1984.60731	0.33300
1982.67863	0.33326
1980.74996	0.33353
1978.82128	0.33381
1976.89261	0.33408
1974.96393	0.33434
1973.03525	0.33461
1971.10658	0.33489
1969.17790	0.33513
1967.24923	0.33533
1965.32055	0.33558
1963.39188	0.33587
1961.46320	0.33616
1959.53452	0.33645
1957.60585	0.33676
1955.67717	0.33708
1953.74850	0.33742
1951.81982	0.33776
1949.89115	0.33807
1947.96247	0.33835
1946.03379	0.33862
1944.10512	0.33889
1942.17644	0.33917
1940.24777	0.33948
1938.31909	0.33979
1936.39042	0.34009
1934.46174	0.34038
1932.53306	0.34069
1930.60439	0.34099
1928.67571	0.34129
1926.74704	0.34160
1924.81836	0.34188
1922.88969	0.34215
1920.96101	0.34244
1919.03233	0.34270
1917.10366	0.34302
1915.17498	0.34344
1913.24631	0.34381
1911.31763	0.34406
1909.38896	0.34430
1907.46028	0.34457
1905.53160	0.34486
1903.60293	0.34516
1901.67425	0.34549
1899.74558	0.34581
1897.81690	0.34608
1895.88823	0.34633
1893.95955	0.34658
1892.03087	0.34682
1890.10220	0.34704
1888.17352	0.34735
1886.24485	0.34772
1884.31617	0.34806
1882.38750	0.34840
1880.45882	0.34871
1878.53014	0.34900
1876.60147	0.34926
1874.67279	0.34953
1872.74412	0.34976
1870.81544	0.34987
1868.88677	0.35006
1866.95809	0.35048
1865.02941	0.35096
1863.10074	0.35136
1861.17206	0.35167
1859.24339	0.35199
1857.31471	0.35233
1855.38604	0.35265
1853.45736	0.35296
1851.52868	0.35328
1849.60001	0.35358
1847.67133	0.35376
1845.74266	0.35384
1843.81398	0.35409
1841.88531	0.35459
1839.95663	0.35507
1838.02795	0.35541
1836.09928	0.35574
1834.17060	0.35604
1832.24193	0.35621
1830.31325	0.35639
1828.38458	0.35672
1826.45590	0.35706
1824.52722	0.35733
1822.59855	0.35767
1820.66987	0.35804
1818.74120	0.35835
1816.81252	0.35862
1814.88385	0.35891
1812.95517	0.35918
1811.02649	0.35942
1809.09782	0.35968
1807.16914	0.35996
1805.24047	0.36020
1803.31179	0.36038
1801.38312	0.36057
1799.45444	0.36083
1797.52576	0.36113
1795.59709	0.36131
1793.66841	0.36136
1791.73974	0.36156
1789.81106	0.36202
1787.88239	0.36241
1785.95371	0.36259
1784.02503	0.36279
1782.09636	0.36305
1780.16768	0.36327
1778.23901	0.36348
1776.31033	0.36358
1774.38166	0.36352
1772.45298	0.36353
1770.52430	0.36382
1768.59563	0.36426
1766.66695	0.36470
1764.73828	0.36498
1762.80960	0.36503
1760.88093	0.36512
1758.95225	0.36534
1757.02357	0.36555
1755.09490	0.36567
1753.16622	0.36555
1751.23755	0.36533
1749.30887	0.36539
1747.38020	0.36567
1745.45152	0.36585
1743.52284	0.36584
1741.59417	0.36575
1739.66549	0.36578
1737.73682	0.36581
1735.80814	0.36554
1733.87947	0.36547
1731.95079	0.36608
1730.02211	0.36685
1728.09344	0.36739
1726.16476	0.36779
1724.23609	0.36815
1722.30741	0.36838
1720.37874	0.36827
1718.45006	0.36798
1716.52138	0.36812
1714.59271	0.36877
1712.66403	0.36946
1710.73536	0.36987
1708.80668	0.36998
1706.87801	0.36991
1704.94933	0.36984
1703.02065	0.36954
1701.09198	0.36909
1699.16330	0.36907
1697.23463	0.36937
1695.30595	0.36975
1693.37728	0.37025
1691.44860	0.37058
1689.51992	0.37059
1687.59125	0.37029
1685.66257	0.36973
1683.73390	0.36962
1681.80522	0.37019
1679.87655	0.37074
1677.94787	0.37084
1676.01919	0.37075
1674.09052	0.37083
1672.16184	0.37097
1670.23317	0.37104
1668.30449	0.37130
1666.37582	0.37166
1664.44714	0.37173
1662.51846	0.37170
1660.58979	0.37189
1658.66111	0.37207
1656.73244	0.37179
1654.80376	0.37099
1652.87509	0.37064
1650.94641	0.37124
1649.01773	0.37174
1647.08906	0.37179
1645.16038	0.37213
1643.23171	0.37274
1641.30303	0.37307
1639.37436	0.37296
1637.44568	0.37259
1635.51700	0.37251
1633.58833	0.37300
1631.65965	0.37350
1629.73098	0.37355
1627.80230	0.37337
1625.87363	0.37304
1623.94495	0.37247
1622.01627	0.37191
1620.08760	0.37168
1618.15892	0.37195
1616.23025	0.37291
1614.30157	0.37430
1612.37290	0.37540
1610.44422	0.37606
1608.51554	0.37655
1606.58687	0.37699
1604.65819	0.37743
1602.72952	0.37786
1600.80084	0.37823
1598.87217	0.37855
1596.94349	0.37884
1595.01481	0.37912
1593.08614	0.37941
1591.15746	0.37973
1589.22879	0.38003
1587.30011	0.38034
1585.37144	0.38066
1583.44276	0.38096
1581.51408	0.38123
1579.58541	0.38130
1577.65673	0.38113
1575.72806	0.38120
1573.79938	0.38172
1571.87071	0.38206
1569.94203	0.38218
1568.01335	0.38253
1566.08468	0.38298
1564.15600	0.38318
1562.22733	0.38289
1560.29865	0.38230
1558.36998	0.38232
1556.44130	0.38316
1554.51262	0.38403
1552.58395	0.38457
1550.65527	0.38496
1548.72660	0.38527
1546.79792	0.38535
1544.86925	0.38511
1542.94057	0.38472
1541.01189	0.38448
1539.08322	0.38483
1537.15454	0.38563
1535.22587	0.38612
1533.29719	0.38633
1531.36852	0.38668
1529.43984	0.38697
1527.51116	0.38700
1525.58249	0.38690
1523.65381	0.38667
1521.72514	0.38652
1519.79646	0.38681
1517.86779	0.38730
1515.93911	0.38769
1514.01043	0.38797
1512.08176	0.38811
1510.15308	0.38794
1508.22441	0.38751
1506.29573	0.38752
1504.36706	0.38831
1502.43838	0.38908
1500.50970	0.38923
1498.58103	0.38909
1496.65235	0.38913
1494.72368	0.38946
1492.79500	0.38968
1490.86633	0.38956
1488.93765	0.38949
1487.00897	0.38969
1485.08030	0.38998
1483.15162	0.39016
1481.22295	0.39018
1479.29427	0.39006
1477.36560	0.38977
1475.43692	0.38928
1473.50824	0.38875
1471.57957	0.38856
1469.65089	0.38867
1467.72222	0.38864
1465.79354	0.38849
1463.86487	0.38856
1461.93619	0.38869
1460.00751	0.38840
1458.07884	0.38788
1456.15016	0.38794
1454.22149	0.38865
1452.29281	0.38922
1450.36414	0.38939
1448.43546	0.38948
1446.50678	0.38975
1444.57811	0.39007
1442.64943	0.39028
1440.72076	0.39031
1438.79208	0.39005
1436.86341	0.38978
1434.93473	0.38993
1433.00605	0.39025
1431.07738	0.39037
1429.14870	0.39043
1427.22003	0.39052
1425.29135	0.39045
1423.36268	0.39018
1421.43400	0.38973
1419.50532	0.38941
1417.57665	0.38950
1415.64797	0.38977
1413.71930	0.38989
1411.79062	0.38989
1409.86195	0.38984
1407.93327	0.38974
1406.00459	0.38963
1404.07592	0.38955
1402.14724	0.38946
1400.21857	0.38934
1398.28989	0.38923
1396.36122	0.38911
1394.43254	0.38904
1392.50386	0.38909
1390.57519	0.38897
1388.64651	0.38845
1386.71784	0.38778
1384.78916	0.38741
1382.86049	0.38744
1380.93181	0.38761
1379.00313	0.38766
1377.07446	0.38758
1375.14578	0.38746
1373.21711	0.38740
1371.28843	0.38741
1369.35976	0.38742
1367.43108	0.38737
1365.50240	0.38725
1363.57373	0.38712
1361.64505	0.38708
1359.71638	0.38712
1357.78770	0.38718
1355.85903	0.38723
1353.93035	0.38729
1352.00167	0.38736
1350.07300	0.38748
1348.14432	0.38763
1346.21565	0.38778
1344.28697	0.38790
1342.35830	0.38791
1340.42962	0.38782
1338.50094	0.38776
1336.57227	0.38777
1334.64359	0.38775
1332.71492	0.38769
1330.78624	0.38757
1328.85757	0.38741
1326.92889	0.38725
1325.00021	0.38709
1323.07154	0.38694
1321.14286	0.38681
1319.21419	0.38672
1317.28551	0.38663
1315.35684	0.38645
1313.42816	0.38620
1311.49948	0.38592
1309.57081	0.38565
1307.64213	0.38537
1305.71346	0.38510
1303.78478	0.38478
1301.85611	0.38441
1299.92743	0.38404
1297.99875	0.38367
1296.07008	0.38331
1294.14140	0.38294
1292.21273	0.38251
1290.28405	0.38204
1288.35538	0.38155
1286.42670	0.38105
1284.49802	0.38051
1282.56935	0.37996
1280.64067	0.37940
1278.71200	0.37873
1276.78332	0.37789
1274.85465	0.37695
1272.92597	0.37586
1270.99729	0.37451
1269.06862	0.37284
1267.13994	0.37097
1265.21127	0.36921
1263.28259	0.36791
1261.35392	0.36724
1259.42524	0.36715
1257.49656	0.36741
1255.56789	0.36767
1253.63921	0.36767
1251.71054	0.36734
1249.78186	0.36676
1247.85319	0.36608
1245.92451	0.36536
1243.99583	0.36459
1242.06716	0.36375
1240.13848	0.36283
1238.20981	0.36188
1236.28113	0.36091
1234.35246	0.35988
1232.42378	0.35878
1230.49510	0.35768
1228.56643	0.35668
1226.63775	0.35574
1224.70908	0.35477
1222.78040	0.35378
1220.85173	0.35282
1218.92305	0.35194
1216.99437	0.35106
1215.06570	0.35002
1213.13702	0.34891
1211.20835	0.34791
1209.27967	0.34704
1207.35100	0.34618
1205.42232	0.34521
1203.49364	0.34424
1201.56497	0.34340
1199.63629	0.34262
1197.70762	0.34179
1195.77894	0.34091
1193.85027	0.33993
1191.92159	0.33888
1189.99291	0.33782
1188.06424	0.33671
1186.13556	0.33552
1184.20689	0.33423
1182.27821	0.33286
1180.34954	0.33146
1178.42086	0.33009
1176.49218	0.32872
1174.56351	0.32733
1172.63483	0.32591
1170.70616	0.32448
1168.77748	0.32304
1166.84881	0.32156
1164.92013	0.32008
1162.99145	0.31862
1161.06278	0.31724
1159.13410	0.31595
1157.20543	0.31475
1155.27675	0.31357
1153.34808	0.31234
1151.41940	0.31109
1149.49072	0.30988
1147.56205	0.30872
1145.63337	0.30759
1143.70470	0.30644
1141.77602	0.30528
1139.84735	0.30414
1137.91867	0.30298
1135.98999	0.30171
1134.06132	0.30037
1132.13264	0.29903
1130.20397	0.29774
1128.27529	0.29641
1126.34662	0.29497
1124.41794	0.29344
1122.48926	0.29190
1120.56059	0.29036
1118.63191	0.28878
1116.70324	0.28716
1114.77456	0.28552
1112.84589	0.28390
1110.91721	0.28234
1108.98853	0.28090
1107.05986	0.27948
1105.13118	0.27803
1103.20251	0.27658
1101.27383	0.27516
1099.34516	0.27382
1097.41648	0.27253
1095.48780	0.27120
1093.55913	0.26985
1091.63045	0.26858
1089.70178	0.26740
1087.77310	0.26632
1085.84443	0.26532
1083.91575	0.26431
1081.98707	0.26328
1080.05840	0.26226
1078.12972	0.26128
1076.20105	0.26037
1074.27237	0.25959
1072.34370	0.25897
1070.41502	0.25849
1068.48634	0.25816
1066.55767	0.25800
1064.62899	0.25797
1062.70032	0.25804
1060.77164	0.25816
1058.84297	0.25836
1056.91429	0.25872
1054.98561	0.25913
1053.05694	0.25949
1051.12826	0.25987
1049.19959	0.26035
1047.27091	0.26093
1045.34224	0.26157
1043.41356	0.26223
1041.48488	0.26295
1039.55621	0.26378
1037.62753	0.26464
1035.69886	0.26542
1033.77018	0.26614
1031.84151	0.26688
1029.91283	0.26761
1027.98415	0.26832
1026.05548	0.26907
1024.12680	0.26992
1022.19813	0.27080
1020.26945	0.27171
1018.34078	0.27274
1016.41210	0.27387
1014.48342	0.27508
1012.55475	0.27640
1010.62607	0.27785
1008.69740	0.27933
1006.76872	0.28074
1004.84005	0.28201
1002.91137	0.28313
1000.98269	0.28411
999.05402	0.28497
997.12534	0.28577
995.19667	0.28656
993.26799	0.28730
991.33932	0.28792
989.41064	0.28845
987.48196	0.28895
985.55329	0.28947
983.62461	0.29003
981.69594	0.29053
979.76726	0.29089
977.83859	0.29116
975.90991	0.29130
973.98123	0.29127
972.05256	0.29115
970.12388	0.29110
968.19521	0.29106
966.26653	0.29093
964.33786	0.29075
962.40918	0.29055
960.48050	0.29027
958.55183	0.28988
956.62315	0.28946
954.69448	0.28910
952.76580	0.28875
950.83713	0.28835
948.90845	0.28787
946.97977	0.28732
945.05110	0.28674
943.12242	0.28614
941.19375	0.28554
939.26507	0.28494
937.33640	0.28429
935.40772	0.28362
933.47904	0.28297
931.55037	0.28234
929.62169	0.28169
927.69302	0.28102
925.76434	0.28035
923.83567	0.27971
921.90699	0.27906
919.97831	0.27832
918.04964	0.27753
916.12096	0.27677
914.19229	0.27604
912.26361	0.27529
910.33494	0.27449
908.40626	0.27366
906.47758	0.27280
904.54891	0.27189
902.62023	0.27100
900.69156	0.27018
898.76288	0.26934
896.83421	0.26842
894.90553	0.26752
892.97685	0.26664
891.04818	0.26570
889.11950	0.26476
887.19083	0.26386
885.26215	0.26302
883.33348	0.26219
881.40480	0.26134
879.47612	0.26045
877.54745	0.25960
875.61877	0.25881
873.69010	0.25805
871.76142	0.25731
869.83275	0.25657
867.90407	0.25579
865.97539	0.25496
864.04672	0.25412
862.11804	0.25325
860.18937	0.25235
858.26069	0.25145
856.33202	0.25053
854.40334	0.24954
852.47466	0.24855
850.54599	0.24758
848.61731	0.24663
846.68864	0.24570
844.75996	0.24479
842.83129	0.24390
840.90261	0.24304
838.97394	0.24216
837.04526	0.24121
835.11658	0.24016
833.18791	0.23910
831.25923	0.23808
829.33056	0.23709
827.40188	0.23602
825.47321	0.23484
823.54453	0.23368
821.61585	0.23262
819.68718	0.23159
817.75850	0.23056
815.82983	0.22953
813.90115	0.22852
811.97248	0.22751
810.04380	0.22650
808.11512	0.22554
806.18645	0.22467
804.25777	0.22387
802.32910	0.22313
800.40042	0.22245
798.47175	0.22186
796.54307	0.22133
794.61439	0.22086
792.68572	0.22053
790.75704	0.22031
788.82837	0.22009
786.89969	0.21981
784.97102	0.21945
783.04234	0.21903
781.11366	0.21856
779.18499	0.21806
777.25631	0.21755
775.32764	0.21702
773.39896	0.21644
771.47029	0.21585
769.54161	0.21530
767.61293	0.21475
765.68426	0.21414
763.75558	0.21345
761.82691	0.21269
759.89823	0.21192
757.96956	0.21117
756.04088	0.21043
754.11220	0.20958
752.18353	0.20863
750.25485	0.20768
748.32618	0.20672
746.39750	0.20572
744.46883	0.20471
742.54015	0.20379
740.61147	0.20294
738.68280	0.20213
736.75412	0.20131
734.82545	0.20050
732.89677	0.19971
730.96810	0.19893
729.03942	0.19819
727.11074	0.19747
725.18207	0.19676
723.25339	0.19605
721.32472	0.19533
719.39604	0.19455
717.46737	0.19376
715.53869	0.19300
713.61001	0.19223
711.68134	0.19138
709.75266	0.19058
707.82399	0.18983
705.89531	0.18903
703.96664	0.18825
702.03796	0.18756
700.10928	0.18684
698.18061	0.18603
696.25193	0.18515
694.32326	0.18428
692.39458	0.18344
690.46591	0.18254
688.53723	0.18156
686.60855	0.18060
684.67988	0.17960
682.75120	0.17853
680.82253	0.17748
678.89385	0.17643
676.96518	0.17535
675.03650	0.17421
673.10782	0.17291
671.17915	0.17135
669.25047	0.16964
667.32180	0.16807
665.39312	0.16667
663.46445	0.16522
661.53577	0.16370
659.60709	0.16228
657.67842	0.16089
655.74974	0.15938
653.82107	0.15777
651.89239	0.15620
649.96372	0.15466
648.03504	0.15310
646.10636	0.15149
644.17769	0.14988
642.24901	0.14823
640.32034	0.14648
638.39166	0.14464
636.46299	0.14277
634.53431	0.14092
632.60563	0.13910
630.67696	0.13732
628.74828	0.13556
626.81961	0.13379
624.89093	0.13202
622.96226	0.13030
621.03358	0.12861
619.10490	0.12696
617.17623	0.12537
615.24755	0.12366
613.31888	0.12176
611.39020	0.11985
609.46153	0.11815
607.53285	0.11660
605.60417	0.11501
603.67550	0.11334
601.74682	0.11173
599.81815	0.11019
597.88947	0.10873
595.96080	0.10744
594.03212	0.10632
592.10344	0.10524
590.17477	0.10410
588.24609	0.10298
586.31742	0.10194
584.38874	0.10088
582.46007	0.09981
580.53139	0.09873
578.60271	0.09766
576.67404	0.09657
574.74536	0.09549
572.81669	0.09449
570.88801	0.09356
568.95934	0.09259
567.03066	0.09161
565.10198	0.09081
563.17331	0.09019
561.24463	0.08954
559.31596	0.08878
557.38728	0.08796
555.45861	0.08718
553.52993	0.08653
551.60125	0.08595
549.67258	0.08533
547.74390	0.08476
545.81523	0.08425
543.88655	0.08374
541.95788	0.08317
540.02920	0.08257
538.10052	0.08198
536.17185	0.08139
534.24317	0.08083
532.31450	0.08035
530.38582	0.07985
528.45715	0.07926
526.52847	0.07863
524.59979	0.07795
522.67112	0.07714
520.74244	0.07623
518.81377	0.07537
516.88509	0.07457
514.95642	0.07382
513.02774	0.07305
511.09906	0.07226
509.17039	0.07148
507.24171	0.07067
505.31304	0.06970
503.38436	0.06863
501.45569	0.06752
499.52701	0.06629
497.59833	0.06500
495.66966	0.06378
493.74098	0.06252
491.81231	0.06120
489.88363	0.05996
487.95496	0.05881
486.02628	0.05763
484.09760	0.05638
482.16893	0.05517
480.24025	0.05405
478.31158	0.05294
476.38290	0.05169
474.45423	0.05037
472.52555	0.04923
470.59687	0.04831
468.66820	0.04745
466.73952	0.04665
464.81085	0.04604
462.88217	0.04559
460.95350	0.04521
459.02482	0.04492
457.09614	0.04476
455.16747	0.04467
453.23879	0.04457
451.31012	0.04448
449.38144	0.04439
447.45277	0.04420
445.52409	0.04379
443.59541	0.04320
441.66674	0.04255
439.73806	0.04188
437.80939	0.04110
435.88071	0.04018
433.95204	0.03909
432.02336	0.03788
430.09468	0.03665
428.16601	0.03541
426.23733	0.03417
424.30866	0.03291
422.37998	0.03158
420.45131	0.03025
418.52263	0.02900
416.59395	0.02782
414.66528	0.02660
412.73660	0.02528
410.80793	0.02394
408.87925	0.02268
406.95058	0.02155
405.02190	0.02046
403.09322	0.01931
401.16455	0.01811
399.23587	0.01697
397.30720	0.01597
395.37852	0.01507
393.44985	0.01415
391.52117	0.01320
389.59249	0.01226
387.66382	0.01140
385.73514	0.01059
383.80647	0.00975
381.87779	0.00890
379.94912	0.00818
378.02044	0.00760
376.09176	0.00708
374.16309	0.00656
372.23441	0.00603
370.30574	0.00549
368.37706	0.00500
