7496.76250	0.00228
7494.83382	0.00229
7492.90514	0.00230
7490.97647	0.00231
7489.04779	0.00231
7487.11912	0.00231
7485.19044	0.00231
7483.26177	0.00231
7481.33309	0.00232
7479.40441	0.00233
7477.47574	0.00233
7475.54706	0.00232
7473.61839	0.00232
7471.68971	0.00233
7469.76104	0.00234
7467.83236	0.00235
7465.90368	0.00235
7463.97501	0.00235
7462.04633	0.00235
7460.11766	0.00236
7458.18898	0.00238
7456.26031	0.00238
7454.33163	0.00238
7452.40295	0.00240
7450.47428	0.00242
7448.54560	0.00244
7446.61693	0.00244
7444.68825	0.00243
7442.75958	0.00244
7440.83090	0.00245
7438.90222	0.00246
7436.97355	0.00246
7435.04487	0.00246
7433.11620	0.00248
7431.18752	0.00250
7429.25885	0.00251
7427.33017	0.00252
7425.40149	0.00252
7423.47282	0.00253
7421.54414	0.00253
7419.61547	0.00253
7417.68679	0.00253
7415.75812	0.00253
7413.82944	0.00252
7411.90076	0.00253
7409.97209	0.00255
7408.04341	0.00256
7406.11474	0.00257
7404.18606	0.00258
7402.25739	0.00258
7400.32871	0.00258
7398.40003	0.00259
7396.47136	0.00260
7394.54268	0.00261
7392.61401	0.00261
7390.68533	0.00263
7388.75666	0.00264
7386.82798	0.00265
7384.89930	0.00266
7382.97063	0.00266
7381.04195	0.00267
7379.11328	0.00269
7377.18460	0.00271
7375.25593	0.00271
7373.32725	0.00270
7371.39857	0.00270
7369.46990	0.00271
7367.54122	0.00272
7365.61255	0.00272
7363.68387	0.00272
7361.75520	0.00272
7359.82652	0.00273
7357.89784	0.00274
7355.96917	0.00275
7354.04049	0.00275
7352.11182	0.00275
7350.18314	0.00277
7348.25447	0.00277
7346.32579	0.00277
7344.39711	0.00277
7342.46844	0.00277
7340.53976	0.00277
7338.61109	0.00278
7336.68241	0.00278
7334.75374	0.00278
7332.82506	0.00280
7330.89638	0.00282
7328.96771	0.00283
7327.03903	0.00283
7325.11036	0.00282
7323.18168	0.00283
7321.25301	0.00285
7319.32433	0.00286
7317.39565	0.00287
7315.46698	0.00287
7313.53830	0.00287
7311.60963	0.00289
7309.68095	0.00290
7307.75228	0.00291
7305.82360	0.00291
7303.89492	0.00292
7301.96625	0.00293
7300.03757	0.00292
7298.10890	0.00290
7296.18022	0.00292
7294.25155	0.00296
7292.32287	0.00298
7290.39419	0.00299
7288.46552	0.00300
7286.53684	0.00302
7284.60817	0.00302
7282.67949	0.00302
7280.75082	0.00301
7278.82214	0.00302
7276.89346	0.00304
7274.96479	0.00306
7273.03611	0.00307
7271.10744	0.00306
7269.17876	0.00305
7267.25009	0.00306
7265.32141	0.00307
7263.39273	0.00307
7261.46406	0.00307
7259.53538	0.00308
7257.60671	0.00308
7255.67803	0.00309
7253.74936	0.00311
7251.82068	0.00312
7249.89200	0.00312
7247.96333	0.00314
7246.03465	0.00314
7244.10598	0.00313
7242.17730	0.00313
7240.24863	0.00315
7238.31995	0.00317
7236.39127	0.00318
7234.46260	0.00318
7232.53392	0.00317
7230.60525	0.00318
7228.67657	0.00319
7226.74790	0.00321
7224.81922	0.00323
7222.89054	0.00325
7220.96187	0.00327
7219.03319	0.00327
7217.10452	0.00326
7215.17584	0.00327
7213.24717	0.00327
7211.31849	0.00327
7209.38981	0.00327
7207.46114	0.00327
7205.53246	0.00327
7203.60379	0.00329
7201.67511	0.00331
7199.74644	0.00332
7197.81776	0.00332
7195.88908	0.00332
7193.96041	0.00335
7192.03173	0.00337
7190.10306	0.00337
7188.17438	0.00338
7186.24571	0.00338
7184.31703	0.00338
7182.38835	0.00339
7180.45968	0.00339
7178.53100	0.00339
7176.60233	0.00341
7174.67365	0.00342
7172.74498	0.00343
7170.81630	0.00344
7168.88762	0.00346
7166.95895	0.00347
7165.03027	0.00347
7163.10160	0.00348
7161.17292	0.00348
7159.24425	0.00347
7157.31557	0.00346
7155.38689	0.00347
7153.45822	0.00348
7151.52954	0.00350
7149.60087	0.00350
7147.67219	0.00351
7145.74352	0.00353
7143.81484	0.00356
7141.88616	0.00357
7139.95749	0.00357
7138.02881	0.00357
7136.10014	0.00356
7134.17146	0.00356
7132.24279	0.00357
7130.31411	0.00360
7128.38543	0.00361
7126.45676	0.00360
7124.52808	0.00360
7122.59941	0.00360
7120.67073	0.00361
7118.74206	0.00362
7116.81338	0.00365
7114.88470	0.00367
7112.95603	0.00368
7111.02735	0.00367
7109.09868	0.00367
7107.17000	0.00367
7105.24133	0.00368
7103.31265	0.00370
7101.38397	0.00372
7099.45530	0.00373
7097.52662	0.00373
7095.59795	0.00374
7093.66927	0.00375
7091.74060	0.00376
7089.81192	0.00377
7087.88324	0.00378
7085.95457	0.00379
7084.02589	0.00380
7082.09722	0.00381
7080.16854	0.00381
7078.23987	0.00380
7076.31119	0.00380
7074.38251	0.00381
7072.45384	0.00384
7070.52516	0.00387
7068.59649	0.00387
7066.66781	0.00386
7064.73914	0.00386
7062.81046	0.00387
7060.88178	0.00389
7058.95311	0.00392
7057.02443	0.00394
7055.09576	0.00394
7053.16708	0.00393
7051.23841	0.00392
7049.30973	0.00392
7047.38105	0.00392
7045.45238	0.00392
7043.52370	0.00393
7041.59503	0.00395
7039.66635	0.00397
7037.73768	0.00397
7035.80900	0.00398
7033.88032	0.00401
7031.95165	0.00403
7030.02297	0.00403
7028.09430	0.00403
7026.16562	0.00401
7024.23695	0.00401
7022.30827	0.00402
7020.37959	0.00404
7018.45092	0.00406
7016.52224	0.00408
7014.59357	0.00410
7012.66489	0.00411
7010.73622	0.00411
7008.80754	0.00411
7006.87886	0.00412
7004.95019	0.00412
7003.02151	0.00413
7001.09284	0.00415
6999.16416	0.00416
6997.23549	0.00417
6995.30681	0.00417
6993.37813	0.00418
6991.44946	0.00419
6989.52078	0.00422
6987.59211	0.00423
6985.66343	0.00423
6983.73476	0.00424
6981.80608	0.00424
6979.87740	0.00425
6977.94873	0.00426
6976.02005	0.00428
6974.09138	0.00428
6972.16270	0.00427
6970.23403	0.00427
6968.30535	0.00429
6966.37667	0.00430
6964.44800	0.00431
6962.51932	0.00433
6960.59065	0.00433
6958.66197	0.00434
6956.73330	0.00435
6954.80462	0.00436
6952.87594	0.00437
6950.94727	0.00438
6949.01859	0.00438
6947.08992	0.00438
6945.16124	0.00439
6943.23257	0.00442
6941.30389	0.00443
6939.37521	0.00443
6937.44654	0.00443
6935.51786	0.00444
6933.58919	0.00446
6931.66051	0.00448
6929.73184	0.00450
6927.80316	0.00451
6925.87448	0.00452
6923.94581	0.00453
6922.01713	0.00454
6920.08846	0.00452
6918.15978	0.00451
6916.23111	0.00452
6914.30243	0.00453
6912.37375	0.00455
6910.44508	0.00456
6908.51640	0.00458
6906.58773	0.00458
6904.65905	0.00458
6902.73038	0.00460
6900.80170	0.00461
6898.87302	0.00463
6896.94435	0.00464
6895.01567	0.00464
6893.08700	0.00465
6891.15832	0.00465
6889.22965	0.00466
6887.30097	0.00468
6885.37229	0.00470
6883.44362	0.00472
6881.51494	0.00473
6879.58627	0.00474
6877.65759	0.00474
6875.72892	0.00474
6873.80024	0.00476
6871.87156	0.00477
6869.94289	0.00478
6868.01421	0.00479
6866.08554	0.00481
6864.15686	0.00483
6862.22819	0.00484
6860.29951	0.00484
6858.37083	0.00484
6856.44216	0.00485
6854.51348	0.00485
6852.58481	0.00485
6850.65613	0.00486
6848.72746	0.00489
6846.79878	0.00492
6844.87010	0.00492
6842.94143	0.00492
6841.01275	0.00493
6839.08408	0.00494
6837.15540	0.00496
6835.22673	0.00497
6833.29805	0.00498
6831.36937	0.00498
6829.44070	0.00498
6827.51202	0.00499
6825.58335	0.00502
6823.65467	0.00504
6821.72600	0.00504
6819.79732	0.00503
6817.86864	0.00504
6815.93997	0.00505
6814.01129	0.00507
6812.08262	0.00508
6810.15394	0.00510
6808.22527	0.00513
6806.29659	0.00515
6804.36791	0.00515
6802.43924	0.00516
6800.51056	0.00517
6798.58189	0.00517
6796.65321	0.00517
6794.72454	0.00518
6792.79586	0.00520
6790.86718	0.00520
6788.93851	0.00520
6787.00983	0.00521
6785.08116	0.00524
6783.15248	0.00527
6781.22381	0.00528
6779.29513	0.00529
6777.36645	0.00529
6775.43778	0.00530
6773.50910	0.00532
6771.58043	0.00534
6769.65175	0.00533
6767.72308	0.00531
6765.79440	0.00532
6763.86572	0.00534
6761.93705	0.00536
6760.00837	0.00538
6758.07970	0.00538
6756.15102	0.00539
6754.22235	0.00540
6752.29367	0.00540
6750.36499	0.00540
6748.43632	0.00542
6746.50764	0.00546
6744.57897	0.00548
6742.65029	0.00549
6740.72162	0.00549
6738.79294	0.00549
6736.86426	0.00549
6734.93559	0.00551
6733.00691	0.00554
6731.07824	0.00556
6729.14956	0.00556
6727.22089	0.00557
6725.29221	0.00559
6723.36353	0.00560
6721.43486	0.00560
6719.50618	0.00560
6717.57751	0.00563
6715.64883	0.00566
6713.72016	0.00567
6711.79148	0.00567
6709.86280	0.00567
6707.93413	0.00569
6706.00545	0.00570
6704.07678	0.00572
6702.14810	0.00573
6700.21943	0.00574
6698.29075	0.00575
6696.36207	0.00576
6694.43340	0.00577
6692.50472	0.00577
6690.57605	0.00578
6688.64737	0.00581
6686.71870	0.00582
6684.79002	0.00582
6682.86134	0.00581
6680.93267	0.00583
6679.00399	0.00585
6677.07532	0.00588
6675.14664	0.00588
6673.21797	0.00587
6671.28929	0.00588
6669.36061	0.00589
6667.43194	0.00592
6665.50326	0.00594
6663.57459	0.00596
6661.64591	0.00597
6659.71724	0.00598
6657.78856	0.00600
6655.85988	0.00602
6653.93121	0.00602
6652.00253	0.00602
6650.07386	0.00603
6648.14518	0.00605
6646.21651	0.00606
6644.28783	0.00606
6642.35915	0.00607
6640.43048	0.00608
6638.50180	0.00610
6636.57313	0.00612
6634.64445	0.00615
6632.71578	0.00618
6630.78710	0.00620
6628.85842	0.00620
6626.92975	0.00619
6625.00107	0.00619
6623.07240	0.00620
6621.14372	0.00622
6619.21505	0.00624
6617.28637	0.00626
6615.35769	0.00628
6613.42902	0.00630
6611.50034	0.00630
6609.57167	0.00629
6607.64299	0.00631
6605.71432	0.00633
6603.78564	0.00635
6601.85696	0.00638
6599.92829	0.00641
6597.99961	0.00643
6596.07094	0.00643
6594.14226	0.00642
6592.21359	0.00643
6590.28491	0.00645
6588.35623	0.00648
6586.42756	0.00649
6584.49888	0.00648
6582.57021	0.00648
6580.64153	0.00649
6578.71286	0.00650
6576.78418	0.00652
6574.85550	0.00654
6572.92683	0.00655
6570.99815	0.00657
6569.06948	0.00659
6567.14080	0.00661
6565.21213	0.00662
6563.28345	0.00664
6561.35477	0.00664
6559.42610	0.00665
6557.49742	0.00668
6555.56875	0.00671
6553.64007	0.00672
6551.71140	0.00673
6549.78272	0.00673
6547.85404	0.00673
6545.92537	0.00675
6543.99669	0.00678
6542.06802	0.00681
6540.13934	0.00682
6538.21067	0.00683
6536.28199	0.00684
6534.35331	0.00685
6532.42464	0.00687
6530.49596	0.00688
6528.56729	0.00689
6526.63861	0.00691
6524.70994	0.00692
6522.78126	0.00693
6520.85258	0.00695
6518.92391	0.00697
6516.99523	0.00698
6515.06656	0.00700
6513.13788	0.00700
6511.20921	0.00700
6509.28053	0.00702
6507.35185	0.00703
6505.42318	0.00704
6503.49450	0.00705
6501.56583	0.00706
6499.63715	0.00707
6497.70848	0.00710
6495.77980	0.00712
6493.85112	0.00714
6491.92245	0.00715
6489.99377	0.00716
6488.06510	0.00719
6486.13642	0.00721
6484.20775	0.00722
6482.27907	0.00723
6480.35039	0.00724
6478.42172	0.00726
6476.49304	0.00729
6474.56437	0.00730
6472.63569	0.00731
6470.70702	0.00731
6468.77834	0.00733
6466.84966	0.00736
6464.92099	0.00739
6462.99231	0.00741
6461.06364	0.00741
6459.13496	0.00741
6457.20629	0.00740
6455.27761	0.00742
6453.34893	0.00745
6451.42026	0.00748
6449.49158	0.00750
6447.56291	0.00752
6445.63423	0.00753
6443.70556	0.00754
6441.77688	0.00754
6439.84820	0.00757
6437.91953	0.00760
6435.99085	0.00762
6434.06218	0.00763
6432.13350	0.00764
6430.20483	0.00766
6428.27615	0.00769
6426.34747	0.00771
6424.41880	0.00771
6422.49012	0.00771
6420.56145	0.00773
6418.63277	0.00775
6416.70410	0.00778
6414.77542	0.00780
6412.84674	0.00782
6410.91807	0.00784
6408.98939	0.00785
6407.06072	0.00785
6405.13204	0.00785
6403.20337	0.00787
6401.27469	0.00789
6399.34601	0.00792
6397.41734	0.00794
6395.48866	0.00796
6393.55999	0.00798
6391.63131	0.00799
6389.70264	0.00798
6387.77396	0.00799
6385.84528	0.00799
6383.91661	0.00800
6381.98793	0.00802
6380.05926	0.00804
6378.13058	0.00807
6376.20191	0.00811
6374.27323	0.00815
6372.34455	0.00817
6370.41588	0.00817
6368.48720	0.00818
6366.55853	0.00819
6364.62985	0.00821
6362.70118	0.00822
6360.77250	0.00824
6358.84382	0.00825
6356.91515	0.00826
6354.98647	0.00827
6353.05780	0.00830
6351.12912	0.00834
6349.20045	0.00836
6347.27177	0.00836
6345.34309	0.00836
6343.41442	0.00837
6341.48574	0.00839
6339.55707	0.00840
6337.62839	0.00843
6335.69972	0.00846
6333.77104	0.00849
6331.84236	0.00851
6329.91369	0.00852
6327.98501	0.00854
6326.05634	0.00855
6324.12766	0.00857
6322.19899	0.00858
6320.27031	0.00860
6318.34163	0.00862
6316.41296	0.00865
6314.48428	0.00867
6312.55561	0.00869
6310.62693	0.00871
6308.69826	0.00872
6306.76958	0.00874
6304.84090	0.00874
6302.91223	0.00875
6300.98355	0.00877
6299.05488	0.00880
6297.12620	0.00884
6295.19753	0.00887
6293.26885	0.00888
6291.34017	0.00888
6289.41150	0.00889
6287.48282	0.00892
6285.55415	0.00894
6283.62547	0.00894
6281.69680	0.00895
6279.76812	0.00898
6277.83944	0.00901
6275.91077	0.00903
6273.98209	0.00904
6272.05342	0.00906
6270.12474	0.00908
6268.19607	0.00909
6266.26739	0.00910
6264.33871	0.00911
6262.41004	0.00912
6260.48136	0.00913
6258.55269	0.00916
6256.62401	0.00920
6254.69534	0.00923
6252.76666	0.00925
6250.83798	0.00926
6248.90931	0.00926
6246.98063	0.00928
6245.05196	0.00931
6243.12328	0.00935
6241.19461	0.00938
6239.26593	0.00942
6237.33725	0.00944
6235.40858	0.00944
6233.47990	0.00945
6231.55123	0.00947
6229.62255	0.00949
6227.69388	0.00951
6225.76520	0.00953
6223.83652	0.00956
6221.90785	0.00960
6219.97917	0.00962
6218.05050	0.00963
6216.12182	0.00962
6214.19315	0.00963
6212.26447	0.00966
6210.33579	0.00969
6208.40712	0.00972
6206.47844	0.00974
6204.54977	0.00976
6202.62109	0.00978
6200.69242	0.00980
6198.76374	0.00984
6196.83506	0.00987
6194.90639	0.00987
6192.97771	0.00986
6191.04904	0.00988
6189.12036	0.00992
6187.19169	0.00995
6185.26301	0.00997
6183.33433	0.00997
6181.40566	0.00998
6179.47698	0.01000
6177.54831	0.01003
6175.61963	0.01005
6173.69096	0.01007
6171.76228	0.01009
6169.83360	0.01011
6167.90493	0.01013
6165.97625	0.01015
6164.04758	0.01016
6162.11890	0.01018
6160.19023	0.01020
6158.26155	0.01022
6156.33287	0.01024
6154.40420	0.01026
6152.47552	0.01029
6150.54685	0.01034
6148.61817	0.01038
6146.68950	0.01040
6144.76082	0.01040
6142.83214	0.01042
6140.90347	0.01044
6138.97479	0.01044
6137.04612	0.01045
6135.11744	0.01048
6133.18877	0.01051
6131.26009	0.01053
6129.33141	0.01056
6127.40274	0.01059
6125.47406	0.01061
6123.54539	0.01063
6121.61671	0.01065
6119.68804	0.01067
6117.75936	0.01069
6115.83068	0.01071
6113.90201	0.01072
6111.97333	0.01073
6110.04466	0.01075
6108.11598	0.01079
6106.18731	0.01084
6104.25863	0.01087
6102.32995	0.01090
6100.40128	0.01092
6098.47260	0.01094
6096.54393	0.01094
6094.61525	0.01095
6092.68658	0.01097
6090.75790	0.01101
6088.82922	0.01104
6086.90055	0.01107
6084.97187	0.01110
6083.04320	0.01114
6081.11452	0.01116
6079.18585	0.01117
6077.25717	0.01118
6075.32849	0.01119
6073.39982	0.01121
6071.47114	0.01124
6069.54247	0.01126
6067.61379	0.01128
6065.68512	0.01130
6063.75644	0.01131
6061.82776	0.01133
6059.89909	0.01136
6057.97041	0.01139
6056.04174	0.01141
6054.11306	0.01143
6052.18439	0.01147
6050.25571	0.01150
6048.32703	0.01151
6046.39836	0.01152
6044.46968	0.01154
6042.54101	0.01158
6040.61233	0.01162
6038.68366	0.01165
6036.75498	0.01167
6034.82630	0.01170
6032.89763	0.01172
6030.96895	0.01173
6029.04028	0.01175
6027.11160	0.01178
6025.18293	0.01181
6023.25425	0.01185
6021.32557	0.01187
6019.39690	0.01189
6017.46822	0.01191
6015.53955	0.01193
6013.61087	0.01195
6011.68220	0.01196
6009.75352	0.01197
6007.82484	0.01200
6005.89617	0.01204
6003.96749	0.01209
6002.03882	0.01212
6000.11014	0.01214
5998.18147	0.01216
5996.25279	0.01220
5994.32411	0.01222
5992.39544	0.01223
5990.46676	0.01224
5988.53809	0.01225
5986.60941	0.01227
5984.68074	0.01231
5982.75206	0.01234
5980.82338	0.01237
5978.89471	0.01239
5976.96603	0.01241
5975.03736	0.01244
5973.10868	0.01248
5971.18001	0.01252
5969.25133	0.01254
5967.32265	0.01255
5965.39398	0.01257
5963.46530	0.01260
5961.53663	0.01263
5959.60795	0.01266
5957.67928	0.01269
5955.75060	0.01270
5953.82192	0.01271
5951.89325	0.01275
5949.96457	0.01278
5948.03590	0.01281
5946.10722	0.01283
5944.17855	0.01285
5942.24987	0.01288
5940.32119	0.01291
5938.39252	0.01293
5936.46384	0.01295
5934.53517	0.01298
5932.60649	0.01301
5930.67782	0.01304
5928.74914	0.01308
5926.82046	0.01312
5924.89179	0.01314
5922.96311	0.01315
5921.03444	0.01318
5919.10576	0.01321
5917.17709	0.01322
5915.24841	0.01324
5913.31973	0.01327
5911.39106	0.01332
5909.46238	0.01335
5907.53371	0.01337
5905.60503	0.01338
5903.67636	0.01341
5901.74768	0.01345
5899.81900	0.01349
5897.89033	0.01351
5895.96165	0.01352
5894.03298	0.01354
5892.10430	0.01357
5890.17563	0.01360
5888.24695	0.01364
5886.31827	0.01368
5884.38960	0.01372
5882.46092	0.01374
5880.53225	0.01375
5878.60357	0.01376
5876.67490	0.01379
5874.74622	0.01383
5872.81755	0.01386
5870.88887	0.01389
5868.96019	0.01392
5867.03152	0.01394
5865.10284	0.01396
5863.17417	0.01398
5861.24549	0.01400
5859.31682	0.01404
5857.38814	0.01410
5855.45946	0.01413
5853.53079	0.01414
5851.60211	0.01417
5849.67344	0.01420
5847.74476	0.01424
5845.81609	0.01427
5843.88741	0.01430
5841.95873	0.01433
5840.03006	0.01435
5838.10138	0.01437
5836.17271	0.01439
5834.24403	0.01441
5832.31536	0.01445
5830.38668	0.01450
5828.45800	0.01454
5826.52933	0.01456
5824.60065	0.01459
5822.67198	0.01462
5820.74330	0.01467
5818.81463	0.01470
5816.88595	0.01471
5814.95727	0.01472
5813.02860	0.01475
5811.09992	0.01479
5809.17125	0.01484
5807.24257	0.01487
5805.31390	0.01488
5803.38522	0.01490
5801.45654	0.01492
5799.52787	0.01494
5797.59919	0.01496
5795.67052	0.01500
5793.74184	0.01506
5791.81317	0.01511
5789.88449	0.01514
5787.95581	0.01517
5786.02714	0.01520
5784.09846	0.01522
5782.16979	0.01523
5780.24111	0.01525
5778.31244	0.01527
5776.38376	0.01530
5774.45508	0.01533
5772.52641	0.01538
5770.59773	0.01542
5768.66906	0.01544
5766.74038	0.01546
5764.81171	0.01549
5762.88303	0.01552
5760.95435	0.01556
5759.02568	0.01560
5757.09700	0.01564
5755.16833	0.01567
5753.23965	0.01571
5751.31098	0.01575
5749.38230	0.01579
5747.45362	0.01583
5745.52495	0.01585
5743.59627	0.01586
5741.66760	0.01588
5739.73892	0.01590
5737.81025	0.01594
5735.88157	0.01597
5733.95289	0.01602
5732.02422	0.01607
5730.09554	0.01611
5728.16687	0.01614
5726.23819	0.01615
5724.30952	0.01617
5722.38084	0.01621
5720.45216	0.01624
5718.52349	0.01627
5716.59481	0.01630
5714.66614	0.01635
5712.73746	0.01639
5710.80879	0.01640
5708.88011	0.01641
5706.95143	0.01645
5705.02276	0.01649
5703.09408	0.01652
5701.16541	0.01655
5699.23673	0.01657
5697.30806	0.01659
5695.37938	0.01662
5693.45070	0.01667
5691.52203	0.01672
5689.59335	0.01677
5687.66468	0.01681
5685.73600	0.01683
5683.80733	0.01686
5681.87865	0.01690
5679.94997	0.01694
5678.02130	0.01696
5676.09262	0.01699
5674.16395	0.01702
5672.23527	0.01704
5670.30660	0.01706
5668.37792	0.01710
5666.44924	0.01714
5664.52057	0.01717
5662.59189	0.01719
5660.66322	0.01721
5658.73454	0.01725
5656.80587	0.01730
5654.87719	0.01735
5652.94851	0.01738
5651.01984	0.01740
5649.09116	0.01745
5647.16249	0.01751
5645.23381	0.01756
5643.30514	0.01758
5641.37646	0.01759
5639.44778	0.01762
5637.51911	0.01765
5635.59043	0.01769
5633.66176	0.01773
5631.73308	0.01777
5629.80441	0.01780
5627.87573	0.01783
5625.94705	0.01786
5624.01838	0.01788
5622.08970	0.01791
5620.16103	0.01795
5618.23235	0.01801
5616.30368	0.01806
5614.37500	0.01809
5612.44632	0.01812
5610.51765	0.01816
5608.58897	0.01820
5606.66030	0.01824
5604.73162	0.01828
5602.80295	0.01832
5600.87427	0.01835
5598.94559	0.01838
5597.01692	0.01842
5595.08824	0.01846
5593.15957	0.01849
5591.23089	0.01850
5589.30222	0.01852
5587.37354	0.01853
5585.44486	0.01857
5583.51619	0.01863
5581.58751	0.01868
5579.65884	0.01872
5577.73016	0.01875
5575.80149	0.01878
5573.87281	0.01880
5571.94413	0.01883
5570.01546	0.01888
5568.08678	0.01893
5566.15811	0.01898
5564.22943	0.01902
5562.30076	0.01906
5560.37208	0.01910
5558.44340	0.01914
5556.51473	0.01919
5554.58605	0.01923
5552.65738	0.01925
5550.72870	0.01927
5548.80003	0.01931
5546.87135	0.01936
5544.94267	0.01939
5543.01400	0.01942
5541.08532	0.01944
5539.15665	0.01946
5537.22797	0.01949
5535.29930	0.01954
5533.37062	0.01959
5531.44194	0.01964
5529.51327	0.01968
5527.58459	0.01973
5525.65592	0.01976
5523.72724	0.01979
5521.79857	0.01981
5519.86989	0.01985
5517.94121	0.01988
5516.01254	0.01992
5514.08386	0.01997
5512.15519	0.02001
5510.22651	0.02004
5508.29784	0.02007
5506.36916	0.02009
5504.44048	0.02012
5502.51181	0.02015
5500.58313	0.02019
5498.65446	0.02025
5496.72578	0.02030
5494.79711	0.02033
5492.86843	0.02037
5490.93975	0.02042
5489.01108	0.02048
5487.08240	0.02052
5485.15373	0.02054
5483.22505	0.02057
5481.29638	0.02061
5479.36770	0.02065
5477.43902	0.02067
5475.51035	0.02072
5473.58167	0.02078
5471.65300	0.02083
5469.72432	0.02087
5467.79565	0.02090
5465.86697	0.02093
5463.93829	0.02095
5462.00962	0.02097
5460.08094	0.02099
5458.15227	0.02104
5456.22359	0.02110
5454.29492	0.02115
5452.36624	0.02119
5450.43756	0.02123
5448.50889	0.02125
5446.58021	0.02127
5444.65154	0.02130
5442.72286	0.02134
5440.79419	0.02138
5438.86551	0.02145
5436.93683	0.02150
5435.00816	0.02154
5433.07948	0.02156
5431.15081	0.02159
5429.22213	0.02161
5427.29346	0.02166
5425.36478	0.02172
5423.43610	0.02178
5421.50743	0.02183
5419.57875	0.02185
5417.65008	0.02187
5415.72140	0.02190
5413.79273	0.02194
5411.86405	0.02199
5409.93537	0.02204
5408.00670	0.02210
5406.07802	0.02215
5404.14935	0.02218
5402.22067	0.02222
5400.29200	0.02225
5398.36332	0.02228
5396.43464	0.02232
5394.50597	0.02236
5392.57729	0.02242
5390.64862	0.02247
5388.71994	0.02252
5386.79127	0.02256
5384.86259	0.02259
5382.93391	0.02263
5381.00524	0.02267
5379.07656	0.02272
5377.14789	0.02276
5375.21921	0.02280
5373.29054	0.02284
5371.36186	0.02288
5369.43318	0.02293
5367.50451	0.02297
5365.57583	0.02302
5363.64716	0.02306
5361.71848	0.02310
5359.78981	0.02313
5357.86113	0.02317
5355.93245	0.02319
5354.00378	0.02321
5352.07510	0.02327
5350.14643	0.02334
5348.21775	0.02337
5346.28908	0.02338
5344.36040	0.02341
5342.43172	0.02347
5340.50305	0.02352
5338.57437	0.02355
5336.64570	0.02360
5334.71702	0.02366
5332.78835	0.02371
5330.85967	0.02375
5328.93099	0.02376
5327.00232	0.02377
5325.07364	0.02381
5323.14497	0.02388
5321.21629	0.02395
5319.28762	0.02402
5317.35894	0.02408
5315.43026	0.02412
5313.50159	0.02416
5311.57291	0.02421
5309.64424	0.02424
5307.71556	0.02425
5305.78689	0.02428
5303.85821	0.02433
5301.92953	0.02439
5300.00086	0.02445
5298.07218	0.02451
5296.14351	0.02455
5294.21483	0.02457
5292.28616	0.02458
5290.35748	0.02462
5288.42880	0.02469
5286.50013	0.02474
5284.57145	0.02477
5282.64278	0.02481
5280.71410	0.02485
5278.78543	0.02488
5276.85675	0.02493
5274.92807	0.02497
5272.99940	0.02502
5271.07072	0.02507
5269.14205	0.02511
5267.21337	0.02514
5265.28470	0.02517
5263.35602	0.02520
5261.42734	0.02526
5259.49867	0.02533
5257.56999	0.02538
5255.64132	0.02542
5253.71264	0.02546
5251.78397	0.02550
5249.85529	0.02553
5247.92661	0.02556
5245.99794	0.02561
5244.06926	0.02566
5242.14059	0.02571
5240.21191	0.02576
5238.28324	0.02580
5236.35456	0.02584
5234.42588	0.02590
5232.49721	0.02596
5230.56853	0.02600
5228.63986	0.02602
5226.71118	0.02605
5224.78251	0.02609
5222.85383	0.02615
5220.92515	0.02622
5218.99648	0.02627
5217.06780	0.02633
5215.13913	0.02636
5213.21045	0.02638
5211.28178	0.02642
5209.35310	0.02646
5207.42442	0.02650
5205.49575	0.02655
5203.56707	0.02662
5201.63840	0.02668
5199.70972	0.02671
5197.78105	0.02674
5195.85237	0.02678
5193.92369	0.02683
5191.99502	0.02687
5190.06634	0.02692
5188.13767	0.02697
5186.20899	0.02702
5184.28032	0.02707
5182.35164	0.02712
5180.42296	0.02717
5178.49429	0.02722
5176.56561	0.02728
5174.63694	0.02734
5172.70826	0.02739
5170.77959	0.02743
5168.85091	0.02747
5166.92223	0.02750
5164.99356	0.02753
5163.06488	0.02758
5161.13621	0.02765
5159.20753	0.02771
5157.27886	0.02776
5155.35018	0.02780
5153.42150	0.02783
5151.49283	0.02787
5149.56415	0.02792
5147.63548	0.02797
5145.70680	0.02801
5143.77813	0.02806
5141.84945	0.02811
5139.92077	0.02816
5137.99210	0.02821
5136.06342	0.02827
5134.13475	0.02832
5132.20607	0.02834
5130.27740	0.02837
5128.34872	0.02842
5126.42004	0.02847
5124.49137	0.02853
5122.56269	0.02857
5120.63402	0.02861
5118.70534	0.02866
5116.77667	0.02871
5114.84799	0.02876
5112.91931	0.02878
5110.99064	0.02881
5109.06196	0.02887
5107.13329	0.02894
5105.20461	0.02899
5103.27594	0.02904
5101.34726	0.02910
5099.41858	0.02913
5097.48991	0.02917
5095.56123	0.02922
5093.63256	0.02928
5091.70388	0.02933
5089.77521	0.02938
5087.84653	0.02944
5085.91785	0.02949
5083.98918	0.02953
5082.06050	0.02958
5080.13183	0.02963
5078.20315	0.02968
5076.27448	0.02972
5074.34580	0.02976
5072.41712	0.02980
5070.48845	0.02986
5068.55977	0.02993
5066.63110	0.03000
5064.70242	0.03004
5062.77375	0.03008
5060.84507	0.03012
5058.91639	0.03016
5056.98772	0.03019
5055.05904	0.03023
5053.13037	0.03029
5051.20169	0.03035
5049.27302	0.03040
5047.34434	0.03043
5045.41566	0.03047
5043.48699	0.03051
5041.55831	0.03057
5039.62964	0.03063
5037.70096	0.03069
5035.77229	0.03074
5033.84361	0.03078
5031.91493	0.03082
5029.98626	0.03087
5028.05758	0.03094
5026.12891	0.03099
5024.20023	0.03104
5022.27156	0.03109
5020.34288	0.03114
5018.41420	0.03120
5016.48553	0.03126
5014.55685	0.03130
5012.62818	0.03134
5010.69950	0.03139
5008.77083	0.03144
5006.84215	0.03148
5004.91347	0.03153
5002.98480	0.03159
5001.05612	0.03164
4999.12745	0.03169
4997.19877	0.03173
4995.27010	0.03177
4993.34142	0.03183
4991.41274	0.03190
4989.48407	0.03195
4987.55539	0.03200
4985.62672	0.03204
4983.69804	0.03210
4981.76937	0.03216
4979.84069	0.03221
4977.91201	0.03225
4975.98334	0.03229
4974.05466	0.03235
4972.12599	0.03241
4970.19731	0.03245
4968.26864	0.03250
4966.33996	0.03256
4964.41128	0.03262
4962.48261	0.03266
4960.55393	0.03270
4958.62526	0.03274
4956.69658	0.03278
4954.76791	0.03283
4952.83923	0.03289
4950.91055	0.03297
4948.98188	0.03305
4947.05320	0.03310
4945.12453	0.03314
4943.19585	0.03320
4941.26718	0.03324
4939.33850	0.03330
4937.40982	0.03337
4935.48115	0.03345
4933.55247	0.03350
4931.62380	0.03354
4929.69512	0.03357
4927.76645	0.03360
4925.83777	0.03366
4923.90909	0.03371
4921.98042	0.03378
4920.05174	0.03385
4918.12307	0.03389
4916.19439	0.03392
4914.26572	0.03396
4912.33704	0.03402
4910.40836	0.03408
4908.47969	0.03415
4906.55101	0.03421
4904.62234	0.03426
4902.69366	0.03430
4900.76499	0.03436
4898.83631	0.03442
4896.90763	0.03447
4894.97896	0.03452
4893.05028	0.03457
4891.12161	0.03463
4889.19293	0.03468
4887.26426	0.03473
4885.33558	0.03479
4883.40690	0.03486
4881.47823	0.03492
4879.54955	0.03495
4877.62088	0.03499
4875.69220	0.03505
4873.76353	0.03511
4871.83485	0.03516
4869.90617	0.03521
4867.97750	0.03527
4866.04882	0.03533
4864.12015	0.03540
4862.19147	0.03546
4860.26280	0.03551
4858.33412	0.03556
4856.40544	0.03562
4854.47677	0.03566
4852.54809	0.03571
4850.61942	0.03578
4848.69074	0.03583
4846.76207	0.03587
4844.83339	0.03594
4842.90471	0.03601
4840.97604	0.03607
4839.04736	0.03613
4837.11869	0.03619
4835.19001	0.03625
4833.26134	0.03630
4831.33266	0.03635
4829.40398	0.03640
4827.47531	0.03644
4825.54663	0.03651
4823.61796	0.03658
4821.68928	0.03664
4819.76061	0.03670
4817.83193	0.03676
4815.90325	0.03681
4813.97458	0.03685
4812.04590	0.03691
4810.11723	0.03697
4808.18855	0.03703
4806.25988	0.03709
4804.33120	0.03716
4802.40252	0.03721
4800.47385	0.03726
4798.54517	0.03730
4796.61650	0.03735
4794.68782	0.03740
4792.75915	0.03747
4790.83047	0.03754
4788.90179	0.03761
4786.97312	0.03768
4785.04444	0.03774
4783.11577	0.03780
4781.18709	0.03786
4779.25842	0.03792
4777.32974	0.03799
4775.40106	0.03807
4773.47239	0.03812
4771.54371	0.03816
4769.61504	0.03822
4767.68636	0.03829
4765.75769	0.03838
4763.82901	0.03845
4761.90033	0.03848
4759.97166	0.03850
4758.04298	0.03854
4756.11431	0.03861
4754.18563	0.03870
4752.25696	0.03877
4750.32828	0.03883
4748.39960	0.03889
4746.47093	0.03895
4744.54225	0.03900
4742.61358	0.03906
4740.68490	0.03913
4738.75623	0.03919
4736.82755	0.03923
4734.89887	0.03928
4732.97020	0.03935
4731.04152	0.03942
4729.11285	0.03947
4727.18417	0.03953
4725.25550	0.03960
4723.32682	0.03968
4721.39814	0.03974
4719.46947	0.03979
4717.54079	0.03984
4715.61212	0.03990
4713.68344	0.03997
4711.75477	0.04003
4709.82609	0.04010
4707.89741	0.04018
4705.96874	0.04024
4704.04006	0.04030
4702.11139	0.04036
4700.18271	0.04042
4698.25404	0.04049
4696.32536	0.04056
4694.39668	0.04061
4692.46801	0.04065
4690.53933	0.04071
4688.61066	0.04081
4686.68198	0.04090
4684.75331	0.04095
4682.82463	0.04099
4680.89595	0.04104
4678.96728	0.04110
4677.03860	0.04117
4675.10993	0.04126
4673.18125	0.04133
4671.25258	0.04139
4669.32390	0.04145
4667.39522	0.04152
4665.46655	0.04160
4663.53787	0.04169
4661.60920	0.04176
4659.68052	0.04182
4657.75185	0.04187
4655.82317	0.04193
4653.89449	0.04200
4651.96582	0.04207
4650.03714	0.04214
4648.10847	0.04220
4646.17979	0.04226
4644.25112	0.04232
4642.32244	0.04236
4640.39376	0.04240
4638.46509	0.04247
4636.53641	0.04256
4634.60774	0.04264
4632.67906	0.04273
4630.75039	0.04282
4628.82171	0.04291
4626.89303	0.04297
4624.96436	0.04301
4623.03568	0.04306
4621.10701	0.04313
4619.17833	0.04321
4617.24966	0.04329
4615.32098	0.04335
4613.39230	0.04341
4611.46363	0.04348
4609.53495	0.04355
4607.60628	0.04363
4605.67760	0.04370
4603.74893	0.04374
4601.82025	0.04381
4599.89157	0.04392
4597.96290	0.04403
4596.03422	0.04411
4594.10555	0.04415
4592.17687	0.04421
4590.24820	0.04429
4588.31952	0.04437
4586.39084	0.04444
4584.46217	0.04451
4582.53349	0.04460
4580.60482	0.04468
4578.67614	0.04474
4576.74747	0.04479
4574.81879	0.04485
4572.89011	0.04493
4570.96144	0.04503
4569.03276	0.04512
4567.10409	0.04519
4565.17541	0.04525
4563.24674	0.04531
4561.31806	0.04538
4559.38938	0.04545
4557.46071	0.04553
4555.53203	0.04560
4553.60336	0.04568
4551.67468	0.04576
4549.74601	0.04586
4547.81733	0.04594
4545.88865	0.04601
4543.95998	0.04608
4542.03130	0.04614
4540.10263	0.04620
4538.17395	0.04627
4536.24528	0.04635
4534.31660	0.04643
4532.38792	0.04652
4530.45925	0.04659
4528.53057	0.04666
4526.60190	0.04674
4524.67322	0.04682
4522.74455	0.04691
4520.81587	0.04700
4518.88719	0.04710
4516.95852	0.04717
4515.02984	0.04722
4513.10117	0.04726
4511.17249	0.04733
4509.24382	0.04742
4507.31514	0.04752
4505.38646	0.04762
4503.45779	0.04771
4501.52911	0.04780
4499.60044	0.04788
4497.67176	0.04795
4495.74309	0.04802
4493.81441	0.04810
4491.88573	0.04817
4489.95706	0.04825
4488.02838	0.04834
4486.09971	0.04843
4484.17103	0.04850
4482.24236	0.04858
4480.31368	0.04867
4478.38500	0.04875
4476.45633	0.04883
4474.52765	0.04890
4472.59898	0.04895
4470.67030	0.04903
4468.74163	0.04915
4466.81295	0.04926
4464.88427	0.04934
4462.95560	0.04940
4461.02692	0.04947
4459.09825	0.04955
4457.16957	0.04963
4455.24090	0.04972
4453.31222	0.04981
4451.38354	0.04990
4449.45487	0.05000
4447.52619	0.05011
4445.59752	0.05020
4443.66884	0.05026
4441.74017	0.05031
4439.81149	0.05040
4437.88281	0.05050
4435.95414	0.05058
4434.02546	0.05066
4432.09679	0.05077
4430.16811	0.05088
4428.23944	0.05096
4426.31076	0.05103
4424.38208	0.05112
4422.45341	0.05121
4420.52473	0.05129
4418.59606	0.05139
4416.66738	0.05149
4414.73871	0.05156
4412.81003	0.05164
4410.88135	0.05174
4408.95268	0.05184
4407.02400	0.05192
4405.09533	0.05199
4403.16665	0.05207
4401.23798	0.05216
4399.30930	0.05226
4397.38062	0.05236
4395.45195	0.05245
4393.52327	0.05253
4391.59460	0.05261
4389.66592	0.05270
4387.73725	0.05279
4385.80857	0.05289
4383.87989	0.05298
4381.95122	0.05308
4380.02254	0.05316
4378.09387	0.05325
4376.16519	0.05334
4374.23652	0.05344
4372.30784	0.05355
4370.37916	0.05366
4368.45049	0.05376
4366.52181	0.05383
4364.59314	0.05390
4362.66446	0.05399
4360.73579	0.05412
4358.80711	0.05422
4356.87843	0.05431
4354.94976	0.05440
4353.02108	0.05450
4351.09241	0.05459
4349.16373	0.05467
4347.23506	0.05476
4345.30638	0.05486
4343.37770	0.05497
4341.44903	0.05509
4339.52035	0.05521
4337.59168	0.05530
4335.66300	0.05537
4333.73433	0.05547
4331.80565	0.05558
4329.87697	0.05568
4327.94830	0.05577
4326.01962	0.05585
4324.09095	0.05595
4322.16227	0.05604
4320.23360	0.05614
4318.30492	0.05624
4316.37624	0.05636
4314.44757	0.05646
4312.51889	0.05657
4310.59022	0.05669
4308.66154	0.05679
4306.73287	0.05687
4304.80419	0.05695
4302.87551	0.05704
4300.94684	0.05713
4299.01816	0.05722
4297.08949	0.05734
4295.16081	0.05746
4293.23214	0.05758
4291.30346	0.05770
4289.37478	0.05781
4287.44611	0.05792
4285.51743	0.05802
4283.58876	0.05813
4281.66008	0.05824
4279.73141	0.05835
4277.80273	0.05843
4275.87405	0.05852
4273.94538	0.05865
4272.01670	0.05877
4270.08803	0.05886
4268.15935	0.05894
4266.23068	0.05904
4264.30200	0.05916
4262.37332	0.05928
4260.44465	0.05940
4258.51597	0.05951
4256.58730	0.05962
4254.65862	0.05973
4252.72995	0.05985
4250.80127	0.05996
4248.87259	0.06004
4246.94392	0.06013
4245.01524	0.06025
4243.08657	0.06039
4241.15789	0.06051
4239.22922	0.06060
4237.30054	0.06069
4235.37186	0.06080
4233.44319	0.06092
4231.51451	0.06102
4229.58584	0.06113
4227.65716	0.06123
4225.72849	0.06134
4223.79981	0.06145
4221.87113	0.06157
4219.94246	0.06168
4218.01378	0.06180
4216.08511	0.06192
4214.15643	0.06204
4212.22776	0.06215
4210.29908	0.06226
4208.37040	0.06239
4206.44173	0.06251
4204.51305	0.06262
4202.58438	0.06272
4200.65570	0.06283
4198.72703	0.06294
4196.79835	0.06305
4194.86968	0.06317
4192.94100	0.06331
4191.01232	0.06346
4189.08365	0.06358
4187.15497	0.06370
4185.22630	0.06382
4183.29762	0.06392
4181.36895	0.06400
4179.44027	0.06408
4177.51159	0.06420
4175.58292	0.06433
4173.65424	0.06447
4171.72557	0.06460
4169.79689	0.06474
4167.86822	0.06486
4165.93954	0.06498
4164.01086	0.06509
4162.08219	0.06522
4160.15351	0.06534
4158.22484	0.06545
4156.29616	0.06557
4154.36749	0.06569
4152.43881	0.06580
4150.51013	0.06592
4148.58146	0.06605
4146.65278	0.06618
4144.72411	0.06629
4142.79543	0.06641
4140.86676	0.06654
4138.93808	0.06666
4137.00940	0.06678
4135.08073	0.06690
4133.15205	0.06704
4131.22338	0.06718
4129.29470	0.06730
4127.36603	0.06742
4125.43735	0.06754
4123.50867	0.06765
4121.58000	0.06777
4119.65132	0.06792
4117.72265	0.06808
4115.79397	0.06820
4113.86530	0.06828
4111.93662	0.06838
4110.00794	0.06851
4108.07927	0.06864
4106.15059	0.06878
4104.22192	0.06892
4102.29324	0.06908
4100.36457	0.06923
4098.43589	0.06935
4096.50721	0.06947
4094.57854	0.06958
4092.64986	0.06969
4090.72119	0.06980
4088.79251	0.06992
4086.86384	0.07005
4084.93516	0.07020
4083.00648	0.07036
4081.07781	0.07050
4079.14913	0.07063
4077.22046	0.07077
4075.29178	0.07092
4073.36311	0.07107
4071.43443	0.07119
4069.50575	0.07130
4067.57708	0.07142
4065.64840	0.07156
4063.71973	0.07170
4061.79105	0.07183
4059.86238	0.07197
4057.93370	0.07212
4056.00502	0.07225
4054.07635	0.07239
4052.14767	0.07253
4050.21900	0.07266
4048.29032	0.07278
4046.36165	0.07292
4044.43297	0.07307
4042.50429	0.07322
4040.57562	0.07336
4038.64694	0.07349
4036.71827	0.07361
4034.78959	0.07372
4032.86092	0.07384
4030.93224	0.07396
4029.00356	0.07408
4027.07489	0.07423
4025.14621	0.07441
4023.21754	0.07457
4021.28886	0.07471
4019.36019	0.07486
4017.43151	0.07502
4015.50283	0.07516
4013.57416	0.07528
4011.64548	0.07540
4009.71681	0.07554
4007.78813	0.07569
4005.85946	0.07585
4003.93078	0.07599
4002.00210	0.07612
4000.07343	0.07627
3998.14475	0.07644
3996.21608	0.07656
3994.28740	0.07666
3992.35873	0.07679
3990.43005	0.07697
3988.50137	0.07716
3986.57270	0.07732
3984.64402	0.07746
3982.71535	0.07760
3980.78667	0.07774
3978.85800	0.07788
3976.92932	0.07803
3975.00064	0.07817
3973.07197	0.07831
3971.14329	0.07846
3969.21462	0.07864
3967.28594	0.07880
3965.35727	0.07893
3963.42859	0.07904
3961.49991	0.07917
3959.57124	0.07932
3957.64256	0.07947
3955.71389	0.07965
3953.78521	0.07980
3951.85654	0.07991
3949.92786	0.08000
3947.99918	0.08014
3946.07051	0.08030
3944.14183	0.08044
3942.21316	0.08061
3940.28448	0.08081
3938.35581	0.08099
3936.42713	0.08112
3934.49845	0.08121
3932.56978	0.08130
3930.64110	0.08147
3928.71243	0.08165
3926.78375	0.08177
3924.85508	0.08187
3922.92640	0.08201
3920.99772	0.08214
3919.06905	0.08225
3917.14037	0.08243
3915.21170	0.08269
3913.28302	0.08293
3911.35435	0.08311
3909.42567	0.08323
3907.49699	0.08326
3905.56832	0.08321
3903.63964	0.08320
3901.71097	0.08333
3899.78229	0.08358
3897.85362	0.08393
3895.92494	0.08422
3893.99626	0.08434
3892.06759	0.08441
3890.13891	0.08458
3888.21024	0.08469
3886.28156	0.08474
3884.35289	0.08491
3882.42421	0.08512
3880.49553	0.08532
3878.56686	0.08560
3876.63818	0.08582
3874.70951	0.08589
3872.78083	0.08591
3870.85216	0.08593
3868.92348	0.08608
3866.99480	0.08633
3865.06613	0.08653
3863.13745	0.08674
3861.20878	0.08702
3859.28010	0.08722
3857.35143	0.08715
3855.42275	0.08682
3853.49407	0.08676
3851.56540	0.08726
3849.63672	0.08789
3847.70805	0.08825
3845.77937	0.08837
3843.85070	0.08840
3841.92202	0.08844
3839.99334	0.08848
3838.06467	0.08860
3836.13599	0.08886
3834.20732	0.08915
3832.27864	0.08939
3830.34997	0.08963
3828.42129	0.08985
3826.49261	0.09001
3824.56394	0.09010
3822.63526	0.09007
3820.70659	0.09013
3818.77791	0.09035
3816.84924	0.09056
3814.92056	0.09084
3812.99188	0.09122
3811.06321	0.09146
3809.13453	0.09148
3807.20586	0.09151
3805.27718	0.09168
3803.34851	0.09179
3801.41983	0.09187
3799.49115	0.09212
3797.56248	0.09241
3795.63380	0.09268
3793.70513	0.09297
3791.77645	0.09323
3789.84778	0.09346
3787.91910	0.09364
3785.99042	0.09374
3784.06175	0.09384
3782.13307	0.09394
3780.20440	0.09404
3778.27572	0.09426
3776.34705	0.09455
3774.41837	0.09478
3772.48969	0.09485
3770.56102	0.09490
3768.63234	0.09503
3766.70367	0.09522
3764.77499	0.09542
3762.84632	0.09561
3760.91764	0.09572
3758.98896	0.09585
3757.06029	0.09605
3755.13161	0.09612
3753.20294	0.09597
3751.27426	0.09587
3749.34559	0.09605
3747.41691	0.09621
3745.48823	0.09618
3743.55956	0.09646
3741.63088	0.09710
3739.70221	0.09742
3737.77353	0.09731
3735.84486	0.09726
3733.91618	0.09752
3731.98750	0.09798
3730.05883	0.09842
3728.13015	0.09867
3726.20148	0.09879
3724.27280	0.09894
3722.34413	0.09914
3720.41545	0.09938
3718.48677	0.09964
3716.55810	0.09984
3714.62942	0.09985
3712.70075	0.09978
3710.77207	0.09988
3708.84340	0.10020
3706.91472	0.10056
3704.98604	0.10082
3703.05737	0.10095
3701.12869	0.10113
3699.20002	0.10140
3697.27134	0.10165
3695.34267	0.10180
3693.41399	0.10182
3691.48531	0.10174
3689.55664	0.10175
3687.62796	0.10204
3685.69929	0.10249
3683.77061	0.10282
3681.84194	0.10298
3679.91326	0.10301
3677.98458	0.10289
3676.05591	0.10281
3674.12723	0.10300
3672.19856	0.10324
3670.26988	0.10343
3668.34121	0.10378
3666.41253	0.10423
3664.48385	0.10457
3662.55518	0.10478
3660.62650	0.10489
3658.69783	0.10488
3656.76915	0.10490
3654.84048	0.10505
3652.91180	0.10503
3650.98312	0.10472
3649.05445	0.10454
3647.12577	0.10482
3645.19710	0.10542
3643.26842	0.10593
3641.33975	0.10625
3639.41107	0.10648
3637.48239	0.10666
3635.55372	0.10676
3633.62504	0.10681
3631.69637	0.10669
3629.76769	0.10655
3627.83902	0.10678
3625.91034	0.10731
3623.98166	0.10765
3622.05299	0.10768
3620.12431	0.10762
3618.19564	0.10772
3616.26696	0.10794
3614.33829	0.10807
3612.40961	0.10814
3610.48093	0.10822
3608.55226	0.10838
3606.62358	0.10869
3604.69491	0.10901
3602.76623	0.10919
3600.83756	0.10929
3598.90888	0.10941
3596.98020	0.10952
3595.05153	0.10964
3593.12285	0.10979
3591.19418	0.10986
3589.26550	0.10980
3587.33683	0.10988
3585.40815	0.11022
3583.47947	0.11058
3581.55080	0.11080
3579.62212	0.11093
3577.69345	0.11105
3575.76477	0.11119
3573.83610	0.11134
3571.90742	0.11145
3569.97874	0.11144
3568.05007	0.11139
3566.12139	0.11153
3564.19272	0.11186
3562.26404	0.11218
3560.33537	0.11240
3558.40669	0.11258
3556.47801	0.11272
3554.54934	0.11283
3552.62066	0.11295
3550.69199	0.11307
3548.76331	0.11314
3546.83464	0.11317
3544.90596	0.11329
3542.97728	0.11350
3541.04861	0.11370
3539.11993	0.11383
3537.19126	0.11394
3535.26258	0.11405
3533.33391	0.11416
3531.40523	0.11423
3529.47655	0.11426
3527.54788	0.11432
3525.61920	0.11440
3523.69053	0.11451
3521.76185	0.11462
3519.83318	0.11473
3517.90450	0.11483
3515.97582	0.11492
3514.04715	0.11499
3512.11847	0.11503
3510.18980	0.11507
3508.26112	0.11514
3506.33245	0.11520
3504.40377	0.11525
3502.47509	0.11532
3500.54642	0.11543
3498.61774	0.11551
3496.68907	0.11556
3494.76039	0.11560
3492.83172	0.11564
3490.90304	0.11570
3488.97436	0.11578
3487.04569	0.11586
3485.11701	0.11593
3483.18834	0.11600
3481.25966	0.11609
3479.33099	0.11619
3477.40231	0.11631
3475.47363	0.11644
3473.54496	0.11659
3471.61628	0.11674
3469.68761	0.11691
3467.75893	0.11709
3465.83026	0.11731
3463.90158	0.11754
3461.97290	0.11773
3460.04423	0.11790
3458.11555	0.11808
3456.18688	0.11827
3454.25820	0.11846
3452.32953	0.11863
3450.40085	0.11879
3448.47217	0.11893
3446.54350	0.11910
3444.61482	0.11931
3442.68615	0.11953
3440.75747	0.11974
3438.82880	0.11999
3436.90012	0.12029
3434.97144	0.12063
3433.04277	0.12100
3431.11409	0.12139
3429.18542	0.12179
3427.25674	0.12217
3425.32807	0.12253
3423.39939	0.12285
3421.47071	0.12317
3419.54204	0.12351
3417.61336	0.12386
3415.68469	0.12416
3413.75601	0.12445
3411.82734	0.12474
3409.89866	0.12499
3407.96998	0.12523
3406.04131	0.12546
3404.11263	0.12568
3402.18396	0.12592
3400.25528	0.12618
3398.32661	0.12643
3396.39793	0.12670
3394.46925	0.12699
3392.54058	0.12730
3390.61190	0.12759
3388.68323	0.12785
3386.75455	0.12810
3384.82588	0.12834
3382.89720	0.12858
3380.96852	0.12881
3379.03985	0.12904
3377.11117	0.12927
3375.18250	0.12951
3373.25382	0.12976
3371.32515	0.13000
3369.39647	0.13023
3367.46779	0.13047
3365.53912	0.13071
3363.61044	0.13094
3361.68177	0.13116
3359.75309	0.13140
3357.82442	0.13164
3355.89574	0.13186
3353.96706	0.13207
3352.03839	0.13228
3350.10971	0.13250
3348.18104	0.13273
3346.25236	0.13296
3344.32369	0.13319
3342.39501	0.13343
3340.46633	0.13368
3338.53766	0.13394
3336.60898	0.13415
3334.68031	0.13435
3332.75163	0.13458
3330.82296	0.13484
3328.89428	0.13508
3326.96560	0.13532
3325.03693	0.13555
3323.10825	0.13578
3321.17958	0.13600
3319.25090	0.13626
3317.32223	0.13653
3315.39355	0.13678
3313.46487	0.13701
3311.53620	0.13724
3309.60752	0.13748
3307.67885	0.13772
3305.75017	0.13797
3303.82150	0.13821
3301.89282	0.13845
3299.96414	0.13869
3298.03547	0.13894
3296.10679	0.13918
3294.17812	0.13943
3292.24944	0.13971
3290.32077	0.13999
3288.39209	0.14024
3286.46341	0.14048
3284.53474	0.14072
3282.60606	0.14096
3280.67739	0.14121
3278.74871	0.14146
3276.82004	0.14171
3274.89136	0.14196
3272.96268	0.14225
3271.03401	0.14254
3269.10533	0.14281
3267.17666	0.14304
3265.24798	0.14328
3263.31931	0.14353
3261.39063	0.14376
3259.46195	0.14401
3257.53328	0.14429
3255.60460	0.14457
3253.67593	0.14481
3251.74725	0.14505
3249.81858	0.14531
3247.88990	0.14559
3245.96122	0.14585
3244.03255	0.14609
3242.10387	0.14635
3240.17520	0.14662
3238.24652	0.14689
3236.31785	0.14716
3234.38917	0.14743
3232.46049	0.14768
3230.53182	0.14792
3228.60314	0.14815
3226.67447	0.14839
3224.74579	0.14863
3222.81712	0.14888
3220.88844	0.14912
3218.95976	0.14937
3217.03109	0.14964
3215.10241	0.14989
3213.17374	0.15013
3211.24506	0.15038
3209.31639	0.15063
3207.38771	0.15091
3205.45903	0.15118
3203.53036	0.15145
3201.60168	0.15170
3199.67301	0.15195
3197.74433	0.15222
3195.81566	0.15251
3193.88698	0.15280
3191.95830	0.15309
3190.02963	0.15339
3188.10095	0.15368
3186.17228	0.15394
3184.24360	0.15417
3182.31493	0.15440
3180.38625	0.15466
3178.45757	0.15492
3176.52890	0.15520
3174.60022	0.15549
3172.67155	0.15576
3170.74287	0.15602
3168.81420	0.15631
3166.88552	0.15660
3164.95684	0.15687
3163.02817	0.15712
3161.09949	0.15738
3159.17082	0.15765
3157.24214	0.15792
3155.31347	0.15819
3153.38479	0.15846
3151.45611	0.15872
3149.52744	0.15898
3147.59876	0.15924
3145.67009	0.15949
3143.74141	0.15973
3141.81274	0.15998
3139.88406	0.16024
3137.95538	0.16051
3136.02671	0.16077
3134.09803	0.16102
3132.16936	0.16129
3130.24068	0.16155
3128.31201	0.16180
3126.38333	0.16206
3124.45465	0.16235
3122.52598	0.16262
3120.59730	0.16288
3118.66863	0.16316
3116.73995	0.16346
3114.81128	0.16374
3112.88260	0.16401
3110.95392	0.16426
3109.02525	0.16451
3107.09657	0.16478
3105.16790	0.16504
3103.23922	0.16529
3101.31055	0.16555
3099.38187	0.16582
3097.45319	0.16607
3095.52452	0.16631
3093.59584	0.16657
3091.66717	0.16684
3089.73849	0.16713
3087.80982	0.16743
3085.88114	0.16773
3083.95246	0.16801
3082.02379	0.16827
3080.09511	0.16850
3078.16644	0.16874
3076.23776	0.16901
3074.30909	0.16928
3072.38041	0.16954
3070.45173	0.16978
3068.52306	0.17004
3066.59438	0.17031
3064.66571	0.17056
3062.73703	0.17081
3060.80836	0.17109
3058.87968	0.17138
3056.95100	0.17165
3055.02233	0.17192
3053.09365	0.17220
3051.16498	0.17245
3049.23630	0.17269
3047.30763	0.17292
3045.37895	0.17314
3043.45027	0.17336
3041.52160	0.17362
3039.59292	0.17390
3037.66425	0.17418
3035.73557	0.17447
3033.80690	0.17474
3031.87822	0.17498
3029.94954	0.17524
3028.02087	0.17553
3026.09219	0.17583
3024.16352	0.17614
3022.23484	0.17642
3020.30617	0.17665
3018.37749	0.17687
3016.44881	0.17713
3014.52014	0.17741
3012.59146	0.17769
3010.66279	0.17796
3008.73411	0.17821
3006.80544	0.17846
3004.87676	0.17871
3002.94808	0.17896
3001.01941	0.17920
2999.09073	0.17943
2997.16206	0.17969
2995.23338	0.17996
2993.30471	0.18021
2991.37603	0.18045
2989.44735	0.18064
2987.51868	0.18082
2985.59000	0.18104
2983.66133	0.18128
2981.73265	0.18146
2979.80398	0.18155
2977.87530	0.18158
2975.94662	0.18166
2974.01795	0.18177
2972.08927	0.18182
2970.16060	0.18179
2968.23192	0.18175
2966.30325	0.18173
2964.37457	0.18179
2962.44589	0.18192
2960.51722	0.18213
2958.58854	0.18242
2956.65987	0.18276
2954.73119	0.18314
2952.80252	0.18350
2950.87384	0.18382
2948.94516	0.18407
2947.01649	0.18428
2945.08781	0.18448
2943.15914	0.18462
2941.23046	0.18469
2939.30179	0.18471
2937.37311	0.18470
2935.44443	0.18468
2933.51576	0.18465
2931.58708	0.18460
2929.65841	0.18451
2927.72973	0.18444
2925.80106	0.18441
2923.87238	0.18442
2921.94370	0.18447
2920.01503	0.18460
2918.08635	0.18490
2916.15768	0.18545
2914.22900	0.18627
2912.30033	0.18720
2910.37165	0.18802
2908.44297	0.18867
2906.51430	0.18920
2904.58562	0.18966
2902.65695	0.19010
2900.72827	0.19053
2898.79960	0.19094
2896.87092	0.19132
2894.94224	0.19169
2893.01357	0.19206
2891.08489	0.19242
2889.15622	0.19277
2887.22754	0.19312
2885.29887	0.19346
2883.37019	0.19377
2881.44151	0.19405
2879.51284	0.19434
2877.58416	0.19459
2875.65549	0.19480
2873.72681	0.19503
2871.79814	0.19526
2869.86946	0.19550
2867.94078	0.19574
2866.01211	0.19597
2864.08343	0.19612
2862.15476	0.19622
2860.22608	0.19631
2858.29741	0.19637
2856.36873	0.19635
2854.44005	0.19627
2852.51138	0.19623
2850.58270	0.19637
2848.65403	0.19688
2846.72535	0.19774
2844.79668	0.19874
2842.86800	0.19962
2840.93932	0.20028
2839.01065	0.20073
2837.08197	0.20111
2835.15330	0.20150
2833.22462	0.20189
2831.29595	0.20226
2829.36727	0.20260
2827.43859	0.20292
2825.50992	0.20324
2823.58124	0.20354
2821.65257	0.20385
2819.72389	0.20415
2817.79522	0.20444
2815.86654	0.20471
2813.93786	0.20501
2812.00919	0.20532
2810.08051	0.20564
2808.15184	0.20597
2806.22316	0.20627
2804.29449	0.20656
2802.36581	0.20687
2800.43713	0.20723
2798.50846	0.20756
2796.57978	0.20783
2794.65111	0.20807
2792.72243	0.20832
2790.79376	0.20860
2788.86508	0.20889
2786.93640	0.20920
2785.00773	0.20951
2783.07905	0.20982
2781.15038	0.21012
2779.22170	0.21040
2777.29303	0.21068
2775.36435	0.21096
2773.43567	0.21122
2771.50700	0.21149
2769.57832	0.21176
2767.64965	0.21203
2765.72097	0.21231
2763.79230	0.21261
2761.86362	0.21291
2759.93494	0.21318
2758.00627	0.21346
2756.07759	0.21375
2754.14892	0.21404
2752.22024	0.21431
2750.29157	0.21457
2748.36289	0.21485
2746.43421	0.21516
2744.50554	0.21546
2742.57686	0.21573
2740.64819	0.21597
2738.71951	0.21623
2736.79084	0.21652
2734.86216	0.21679
2732.93348	0.21705
2731.00481	0.21731
2729.07613	0.21762
2727.14746	0.21794
2725.21878	0.21826
2723.29011	0.21856
2721.36143	0.21883
2719.43275	0.21909
2717.50408	0.21933
2715.57540	0.21957
2713.64673	0.21983
2711.71805	0.22011
2709.78938	0.22042
2707.86070	0.22072
2705.93202	0.22098
2704.00335	0.22124
2702.07467	0.22151
2700.14600	0.22177
2698.21732	0.22204
2696.28865	0.22231
2694.35997	0.22257
2692.43129	0.22286
2690.50262	0.22317
2688.57394	0.22346
2686.64527	0.22375
2684.71659	0.22401
2682.78792	0.22425
2680.85924	0.22450
2678.93056	0.22476
2677.00189	0.22503
2675.07321	0.22532
2673.14454	0.22563
2671.21586	0.22592
2669.28719	0.22617
2667.35851	0.22639
2665.42983	0.22663
2663.50116	0.22693
2661.57248	0.22723
2659.64381	0.22751
2657.71513	0.22778
2655.78646	0.22806
2653.85778	0.22834
2651.92910	0.22861
2650.00043	0.22889
2648.07175	0.22919
2646.14308	0.22951
2644.21440	0.22985
2642.28573	0.23018
2640.35705	0.23047
2638.42837	0.23072
2636.49970	0.23096
2634.57102	0.23122
2632.64235	0.23149
2630.71367	0.23179
2628.78500	0.23209
2626.85632	0.23241
2624.92764	0.23273
2622.99897	0.23303
2621.07029	0.23333
2619.14162	0.23364
2617.21294	0.23394
2615.28427	0.23425
2613.35559	0.23455
2611.42691	0.23485
2609.49824	0.23515
2607.56956	0.23547
2605.64089	0.23577
2603.71221	0.23603
2601.78354	0.23629
2599.85486	0.23658
2597.92618	0.23688
2595.99751	0.23716
2594.06883	0.23746
2592.14016	0.23778
2590.21148	0.23810
2588.28281	0.23839
2586.35413	0.23867
2584.42545	0.23899
2582.49678	0.23929
2580.56810	0.23958
2578.63943	0.23989
2576.71075	0.24022
2574.78208	0.24050
2572.85340	0.24073
2570.92472	0.24098
2568.99605	0.24126
2567.06737	0.24157
2565.13870	0.24185
2563.21002	0.24213
2561.28135	0.24244
2559.35267	0.24274
2557.42399	0.24302
2555.49532	0.24330
2553.56664	0.24361
2551.63797	0.24390
2549.70929	0.24415
2547.78062	0.24441
2545.85194	0.24470
2543.92326	0.24498
2541.99459	0.24526
2540.06591	0.24555
2538.13724	0.24583
2536.20856	0.24613
2534.27989	0.24643
2532.35121	0.24669
2530.42253	0.24694
2528.49386	0.24721
2526.56518	0.24752
2524.63651	0.24785
2522.70783	0.24816
2520.77916	0.24842
2518.85048	0.24868
2516.92181	0.24897
2514.99313	0.24927
2513.06445	0.24956
2511.13578	0.24986
2509.20710	0.25018
2507.27843	0.25052
2505.34975	0.25089
2503.42108	0.25125
2501.49240	0.25157
2499.56372	0.25184
2497.63505	0.25213
2495.70637	0.25245
2493.77770	0.25279
2491.84902	0.25311
2489.92035	0.25342
2487.99167	0.25375
2486.06299	0.25408
2484.13432	0.25440
2482.20564	0.25474
2480.27697	0.25509
2478.34829	0.25540
2476.41962	0.25567
2474.49094	0.25593
2472.56226	0.25622
2470.63359	0.25653
2468.70491	0.25686
2466.77624	0.25721
2464.84756	0.25754
2462.91889	0.25784
2460.99021	0.25813
2459.06153	0.25843
2457.13286	0.25871
2455.20418	0.25899
2453.27551	0.25929
2451.34683	0.25961
2449.41816	0.25993
2447.48948	0.26022
2445.56080	0.26051
2443.63213	0.26084
2441.70345	0.26118
2439.77478	0.26151
2437.84610	0.26179
2435.91743	0.26208
2433.98875	0.26239
2432.06007	0.26270
2430.13140	0.26301
2428.20272	0.26333
2426.27405	0.26367
2424.34537	0.26397
2422.41670	0.26423
2420.48802	0.26450
2418.55934	0.26478
2416.63067	0.26508
2414.70199	0.26540
2412.77332	0.26573
2410.84464	0.26603
2408.91597	0.26632
2406.98729	0.26662
2405.05861	0.26693
2403.12994	0.26726
2401.20126	0.26760
2399.27259	0.26791
2397.34391	0.26817
2395.41524	0.26843
2393.48656	0.26872
2391.55788	0.26903
2389.62921	0.26934
2387.70053	0.26964
2385.77186	0.26992
2383.84318	0.27017
2381.91451	0.27040
2379.98583	0.27059
2378.05715	0.27073
2376.12848	0.27082
2374.19980	0.27086
2372.27113	0.27086
2370.34245	0.27089
2368.41378	0.27098
2366.48510	0.27116
2364.55642	0.27142
2362.62775	0.27170
2360.69907	0.27201
2358.77040	0.27231
2356.84172	0.27268
2354.91305	0.27321
2352.98437	0.27385
2351.05569	0.27449
2349.12702	0.27495
2347.19834	0.27517
2345.26967	0.27524
2343.34099	0.27532
2341.41232	0.27548
2339.48364	0.27574
2337.55496	0.27603
2335.62629	0.27633
2333.69761	0.27662
2331.76894	0.27694
2329.84026	0.27727
2327.91159	0.27760
2325.98291	0.27798
2324.05423	0.27841
2322.12556	0.27885
2320.19688	0.27928
2318.26821	0.27969
2316.33953	0.28007
2314.41086	0.28047
2312.48218	0.28089
2310.55350	0.28128
2308.62483	0.28163
2306.69615	0.28196
2304.76748	0.28232
2302.83880	0.28269
2300.91013	0.28303
2298.98145	0.28338
2297.05277	0.28375
2295.12410	0.28410
2293.19542	0.28439
2291.26675	0.28465
2289.33807	0.28492
2287.40940	0.28522
2285.48072	0.28553
2283.55204	0.28589
2281.62337	0.28624
2279.69469	0.28655
2277.76602	0.28683
2275.83734	0.28710
2273.90867	0.28738
2271.97999	0.28768
2270.05131	0.28801
2268.12264	0.28834
2266.19396	0.28863
2264.26529	0.28891
2262.33661	0.28921
2260.40794	0.28953
2258.47926	0.28983
2256.55058	0.29011
2254.62191	0.29041
2252.69323	0.29074
2250.76456	0.29109
2248.83588	0.29143
2246.90721	0.29174
2244.97853	0.29202
2243.04985	0.29229
2241.12118	0.29258
2239.19250	0.29291
2237.26383	0.29324
2235.33515	0.29354
2233.40648	0.29383
2231.47780	0.29412
2229.54912	0.29438
2227.62045	0.29465
2225.69177	0.29497
2223.76310	0.29530
2221.83442	0.29559
2219.90575	0.29586
2217.97707	0.29616
2216.04839	0.29649
2214.11972	0.29685
2212.19104	0.29717
2210.26237	0.29744
2208.33369	0.29770
2206.40502	0.29799
2204.47634	0.29833
2202.54766	0.29864
2200.61899	0.29890
2198.69031	0.29913
2196.76164	0.29939
2194.83296	0.29971
2192.90429	0.30004
2190.97561	0.30032
2189.04693	0.30060
2187.11826	0.30093
2185.18958	0.30126
2183.26091	0.30153
2181.33223	0.30181
2179.40356	0.30215
2177.47488	0.30248
2175.54620	0.30277
2173.61753	0.30305
2171.68885	0.30332
2169.76018	0.30359
2167.83150	0.30390
2165.90283	0.30428
2163.97415	0.30463
2162.04547	0.30491
2160.11680	0.30516
2158.18812	0.30544
2156.25945	0.30577
2154.33077	0.30613
2152.40210	0.30647
2150.47342	0.30678
2148.54474	0.30711
2146.61607	0.30747
2144.68739	0.30781
2142.75872	0.30812
2140.83004	0.30839
2138.90137	0.30868
2136.97269	0.30898
2135.04401	0.30930
2133.11534	0.30960
2131.18666	0.30988
2129.25799	0.31015
2127.32931	0.31043
2125.40064	0.31074
2123.47196	0.31107
2121.54328	0.31141
2119.61461	0.31170
2117.68593	0.31198
2115.75726	0.31228
2113.82858	0.31263
2111.89991	0.31297
2109.97123	0.31329
2108.04255	0.31359
2106.11388	0.31389
2104.18520	0.31420
2102.25653	0.31450
2100.32785	0.31481
2098.39918	0.31513
2096.47050	0.31543
2094.54182	0.31575
2092.61315	0.31607
2090.68447	0.31635
2088.75580	0.31666
2086.82712	0.31700
2084.89845	0.31732
2082.96977	0.31761
2081.04109	0.31790
2079.11242	0.31820
2077.18374	0.31852
2075.25507	0.31885
2073.32639	0.31915
2071.39772	0.31941
2069.46904	0.31969
2067.54036	0.31999
2065.61169	0.32032
2063.68301	0.32065
2061.75434	0.32096
2059.82566	0.32127
2057.89699	0.32159
2055.96831	0.32190
2054.03963	0.32219
2052.11096	0.32249
2050.18228	0.32283
2048.25361	0.32314
2046.32493	0.32342
2044.39626	0.32372
2042.46758	0.32401
2040.53890	0.32427
2038.61023	0.32456
2036.68155	0.32491
2034.75288	0.32527
2032.82420	0.32557
2030.89553	0.32586
2028.96685	0.32620
2027.03817	0.32657
2025.10950	0.32691
2023.18082	0.32723
2021.25215	0.32752
2019.32347	0.32777
2017.39480	0.32804
2015.46612	0.32838
2013.53744	0.32875
2011.60877	0.32909
2009.68009	0.32940
2007.75142	0.32969
2005.82274	0.33002
2003.89407	0.33036
2001.96539	0.33064
2000.03671	0.33089
1998.10804	0.33118
1996.17936	0.33146
1994.25069	0.33165
1992.32201	0.33184
1990.39334	0.33214
1988.46466	0.33249
1986.53598	0.33282
1984.60731	0.33315
1982.67863	0.33345
1980.74996	0.33373
1978.82128	0.33398
1976.89261	0.33423
1974.96393	0.33448
1973.03525	0.33475
1971.10658	0.33502
1969.17790	0.33522
1967.24923	0.33542
1965.32055	0.33573
1963.39188	0.33608
1961.46320	0.33640
1959.53452	0.33669
1957.60585	0.33697
1955.67717	0.33727
1953.74850	0.33761
1951.81982	0.33793
1949.89115	0.33820
1947.96247	0.33844
1946.03379	0.33863
1944.10512	0.33879
1942.17644	0.33907
1940.24777	0.33956
1938.31909	0.34006
1936.39042	0.34042
1934.46174	0.34073
1932.53306	0.34101
1930.60439	0.34123
1928.67571	0.34148
1926.74704	0.34174
1924.81836	0.34196
1922.88969	0.34217
1920.96101	0.34240
1919.03233	0.34255
1917.10366	0.34289
1915.17498	0.34348
1913.24631	0.34394
1911.31763	0.34416
1909.38896	0.34439
1907.46028	0.34476
1905.53160	0.34516
1903.60293	0.34550
1901.67425	0.34579
1899.74558	0.34604
1897.81690	0.34623
1895.88823	0.34642
1893.95955	0.34667
1892.03087	0.34685
1890.10220	0.34700
1888.17352	0.34737
1886.24485	0.34785
1884.31617	0.34821
1882.38750	0.34851
1880.45882	0.34882
1878.53014	0.34915
1876.60147	0.34946
1874.67279	0.34974
1872.74412	0.34988
1870.81544	0.34984
1868.88677	0.34991
1866.95809	0.35042
1865.02941	0.35110
1863.10074	0.35158
1861.17206	0.35188
1859.24339	0.35217
1857.31471	0.35255
1855.38604	0.35292
1853.45736	0.35322
1851.52868	0.35346
1849.60001	0.35361
1847.67133	0.35362
1845.74266	0.35351
1843.81398	0.35373
1841.88531	0.35447
1839.95663	0.35518
1838.02795	0.35562
1836.09928	0.35601
1834.17060	0.35627
1832.24193	0.35624
1830.31325	0.35617
1828.38458	0.35641
1826.45590	0.35678
1824.52722	0.35723
1822.59855	0.35784
1820.66987	0.35831
1818.74120	0.35856
1816.81252	0.35880
1814.88385	0.35903
1812.95517	0.35914
1811.02649	0.35929
1809.09782	0.35969
1807.16914	0.36020
1805.24047	0.36049
1803.31179	0.36046
1801.38312	0.36038
1799.45444	0.36061
1797.52576	0.36101
1795.59709	0.36114
1793.66841	0.36099
1791.73974	0.36115
1789.81106	0.36182
1787.88239	0.36240
1785.95371	0.36258
1784.02503	0.36271
1782.09636	0.36293
1780.16768	0.36319
1778.23901	0.36350
1776.31033	0.36356
1774.38166	0.36325
1772.45298	0.36302
1770.52430	0.36326
1768.59563	0.36380
1766.66695	0.36444
1764.73828	0.36484
1762.80960	0.36487
1760.88093	0.36504
1758.95225	0.36534
1757.02357	0.36551
1755.09490	0.36554
1753.16622	0.36516
1751.23755	0.36462
1749.30887	0.36465
1747.38020	0.36515
1745.45152	0.36550
1743.52284	0.36556
1741.59417	0.36550
1739.66549	0.36560
1737.73682	0.36559
1735.80814	0.36506
1733.87947	0.36480
1731.95079	0.36561
1730.02211	0.36678
1728.09344	0.36764
1726.16476	0.36815
1724.23609	0.36840
1722.30741	0.36847
1720.37874	0.36806
1718.45006	0.36742
1716.52138	0.36747
1714.59271	0.36833
1712.66403	0.36930
1710.73536	0.36983
1708.80668	0.36980
1706.87801	0.36950
1704.94933	0.36932
1703.02065	0.36885
1701.09198	0.36811
1699.16330	0.36807
1697.23463	0.36856
1695.30595	0.36919
1693.37728	0.37009
1691.44860	0.37065
1689.51992	0.37058
1687.59125	0.37011
1685.66257	0.36929
1683.73390	0.36904
1681.80522	0.36985
1679.87655	0.37070
1677.94787	0.37073
1676.01919	0.37036
1674.09052	0.37033
1672.16184	0.37041
1670.23317	0.37036
1668.30449	0.37078
1666.37582	0.37150
1664.44714	0.37171
1662.51846	0.37169
1660.58979	0.37202
1658.66111	0.37229
1656.73244	0.37167
1654.80376	0.37024
1652.87509	0.36969
1650.94641	0.37063
1649.01773	0.37133
1647.08906	0.37135
1645.16038	0.37187
1643.23171	0.37276
1641.30303	0.37318
1639.37436	0.37294
1637.44568	0.37229
1635.51700	0.37211
1633.58833	0.37289
1631.65965	0.37373
1629.73098	0.37387
1627.80230	0.37360
1625.87363	0.37313
1623.94495	0.37243
1622.01627	0.37195
1620.08760	0.37188
1618.15892	0.37214
1616.23025	0.37305
1614.30157	0.37456
1612.37290	0.37578
1610.44422	0.37641
1608.51554	0.37684
1606.58687	0.37731
1604.65819	0.37771
1602.72952	0.37807
1600.80084	0.37846
1598.87217	0.37882
1596.94349	0.37908
1595.01481	0.37937
1593.08614	0.37972
1591.15746	0.38006
1589.22879	0.38034
1587.30011	0.38065
1585.37144	0.38100
1583.44276	0.38131
1581.51408	0.38152
1579.58541	0.38143
1577.65673	0.38110
1575.72806	0.38123
1573.79938	0.38191
1571.87071	0.38220
1569.94203	0.38211
1568.01335	0.38244
1566.08468	0.38301
1564.15600	0.38327
1562.22733	0.38273
1560.29865	0.38153
1558.36998	0.38126
1556.44130	0.38247
1554.51262	0.38384
1552.58395	0.38459
1550.65527	0.38499
1548.72660	0.38529
1546.79792	0.38528
1544.86925	0.38471
1542.94057	0.38396
1541.01189	0.38359
1539.08322	0.38415
1537.15454	0.38524
1535.22587	0.38577
1533.29719	0.38596
1531.36852	0.38649
1529.43984	0.38682
1527.51116	0.38666
1525.58249	0.38640
1523.65381	0.38594
1521.72514	0.38548
1519.79646	0.38571
1517.86779	0.38639
1515.93911	0.38705
1514.01043	0.38756
1512.08176	0.38762
1510.15308	0.38708
1508.22441	0.38639
1506.29573	0.38665
1504.36706	0.38805
1502.43838	0.38916
1500.50970	0.38921
1498.58103	0.38886
1496.65235	0.38896
1494.72368	0.38946
1492.79500	0.38958
1490.86633	0.38920
1488.93765	0.38910
1487.00897	0.38960
1485.08030	0.39015
1483.15162	0.39040
1481.22295	0.39041
1479.29427	0.39022
1477.36560	0.38969
1475.43692	0.38895
1473.50824	0.38837
1471.57957	0.38842
1469.65089	0.38890
1467.72222	0.38896
1465.79354	0.38861
1463.86487	0.38863
1461.93619	0.38881
1460.00751	0.38819
1458.07884	0.38714
1456.15016	0.38720
1454.22149	0.38845
1452.29281	0.38949
1450.36414	0.38975
1448.43546	0.38975
1446.50678	0.39001
1444.57811	0.39048
1442.64943	0.39080
1440.72076	0.39073
1438.79208	0.39009
1436.86341	0.38952
1434.93473	0.38985
1433.00605	0.39045
1431.07738	0.39059
1429.14870	0.39063
1427.22003	0.39072
1425.29135	0.39063
1423.36268	0.39036
1421.43400	0.38977
1419.50532	0.38913
1417.57665	0.38924
1415.64797	0.38986
1413.71930	0.39020
1411.79062	0.39021
1409.86195	0.39018
1407.93327	0.39010
1406.00459	0.38993
1404.07592	0.38986
1402.14724	0.38979
1400.21857	0.38946
1398.28989	0.38909
1396.36122	0.38891
1394.43254	0.38899
1392.50386	0.38930
1390.57519	0.38927
1388.64651	0.38857
1386.71784	0.38785
1384.78916	0.38766
1382.86049	0.38785
1380.93181	0.38809
1379.00313	0.38811
1377.07446	0.38786
1375.14578	0.38755
1373.21711	0.38754
1371.28843	0.38776
1369.35976	0.38790
1367.43108	0.38787
1365.50240	0.38759
1363.57373	0.38720
1361.64505	0.38712
1359.71638	0.38738
1357.78770	0.38758
1355.85903	0.38764
1353.93035	0.38771
1352.00167	0.38786
1350.07300	0.38801
1348.14432	0.38815
1346.21565	0.38830
1344.28697	0.38837
1342.35830	0.38824
1340.42962	0.38797
1338.50094	0.38785
1336.57227	0.38797
1334.64359	0.38817
1332.71492	0.38826
1330.78624	0.38823
1328.85757	0.38811
1326.92889	0.38793
1325.00021	0.38775
1323.07154	0.38759
1321.14286	0.38737
1319.21419	0.38715
1317.28551	0.38703
1315.35684	0.38693
1313.42816	0.38676
1311.49948	0.38655
1309.57081	0.38628
1307.64213	0.38597
1305.71346	0.38563
1303.78478	0.38526
1301.85611	0.38488
1299.92743	0.38453
1297.99875	0.38422
1296.07008	0.38390
1294.14140	0.38353
1292.21273	0.38306
1290.28405	0.38253
1288.35538	0.38202
1286.42670	0.38157
1284.49802	0.38110
1282.56935	0.38053
1280.64067	0.37992
1278.71200	0.37926
1276.78332	0.37844
1274.85465	0.37748
1272.92597	0.37637
1270.99729	0.37506
1269.06862	0.37338
1267.13994	0.37140
1265.21127	0.36954
1263.28259	0.36827
1261.35392	0.36772
1259.42524	0.36773
1257.49656	0.36798
1255.56789	0.36817
1253.63921	0.36808
1251.71054	0.36769
1249.78186	0.36714
1247.85319	0.36654
1245.92451	0.36587
1243.99583	0.36511
1242.06716	0.36425
1240.13848	0.36332
1238.20981	0.36241
1236.28113	0.36145
1234.35246	0.36039
1232.42378	0.35926
1230.49510	0.35812
1228.56643	0.35706
1226.63775	0.35611
1224.70908	0.35517
1222.78040	0.35423
1220.85173	0.35331
1218.92305	0.35237
1216.99437	0.35138
1215.06570	0.35038
1213.13702	0.34942
1211.20835	0.34850
1209.27967	0.34764
1207.35100	0.34677
1205.42232	0.34584
1203.49364	0.34486
1201.56497	0.34392
1199.63629	0.34301
1197.70762	0.34209
1195.77894	0.34115
1193.85027	0.34016
1191.92159	0.33916
1189.99291	0.33818
1188.06424	0.33714
1186.13556	0.33593
1184.20689	0.33456
1182.27821	0.33315
1180.34954	0.33178
1178.42086	0.33043
1176.49218	0.32909
1174.56351	0.32774
1172.63483	0.32638
1170.70616	0.32500
1168.77748	0.32356
1166.84881	0.32207
1164.92013	0.32060
1162.99145	0.31916
1161.06278	0.31775
1159.13410	0.31637
1157.20543	0.31505
1155.27675	0.31380
1153.34808	0.31260
1151.41940	0.31139
1149.49072	0.31016
1147.56205	0.30897
1145.63337	0.30785
1143.70470	0.30678
1141.77602	0.30564
1139.84735	0.30439
1137.91867	0.30319
1135.98999	0.30204
1134.06132	0.30080
1132.13264	0.29945
1130.20397	0.29806
1128.27529	0.29664
1126.34662	0.29523
1124.41794	0.29381
1122.48926	0.29232
1120.56059	0.29074
1118.63191	0.28914
1116.70324	0.28758
1114.77456	0.28601
1112.84589	0.28438
1110.91721	0.28279
1108.98853	0.28127
1107.05986	0.27978
1105.13118	0.27831
1103.20251	0.27682
1101.27383	0.27533
1099.34516	0.27389
1097.41648	0.27252
1095.48780	0.27128
1093.55913	0.27012
1091.63045	0.26897
1089.70178	0.26784
1087.77310	0.26673
1085.84443	0.26561
1083.91575	0.26448
1081.98707	0.26340
1080.05840	0.26240
1078.12972	0.26149
1076.20105	0.26068
1074.27237	0.25993
1072.34370	0.25931
1070.41502	0.25888
1068.48634	0.25862
1066.55767	0.25848
1064.62899	0.25841
1062.70032	0.25840
1060.77164	0.25848
1058.84297	0.25868
1056.91429	0.25897
1054.98561	0.25930
1053.05694	0.25965
1051.12826	0.26006
1049.19959	0.26059
1047.27091	0.26123
1045.34224	0.26190
1043.41356	0.26261
1041.48488	0.26338
1039.55621	0.26418
1037.62753	0.26495
1035.69886	0.26573
1033.77018	0.26651
1031.84151	0.26728
1029.91283	0.26804
1027.98415	0.26883
1026.05548	0.26963
1024.12680	0.27044
1022.19813	0.27133
1020.26945	0.27228
1018.34078	0.27328
1016.41210	0.27438
1014.48342	0.27557
1012.55475	0.27685
1010.62607	0.27824
1008.69740	0.27968
1006.76872	0.28110
1004.84005	0.28246
1002.91137	0.28367
1000.98269	0.28469
999.05402	0.28554
997.12534	0.28633
995.19667	0.28709
993.26799	0.28777
991.33932	0.28837
989.41064	0.28898
987.48196	0.28962
985.55329	0.29024
983.62461	0.29076
981.69594	0.29118
979.76726	0.29143
977.83859	0.29154
975.90991	0.29165
973.98123	0.29176
972.05256	0.29173
970.12388	0.29160
968.19521	0.29147
966.26653	0.29130
964.33786	0.29106
962.40918	0.29083
960.48050	0.29063
958.55183	0.29036
956.62315	0.29000
954.69448	0.28958
952.76580	0.28912
950.83713	0.28865
948.90845	0.28822
946.97977	0.28779
945.05110	0.28733
943.12242	0.28676
941.19375	0.28606
939.26507	0.28533
937.33640	0.28466
935.40772	0.28403
933.47904	0.28341
931.55037	0.28278
929.62169	0.28218
927.69302	0.28159
925.76434	0.28097
923.83567	0.28029
921.90699	0.27955
919.97831	0.27879
918.04964	0.27807
916.12096	0.27735
914.19229	0.27657
912.26361	0.27577
910.33494	0.27501
908.40626	0.27427
906.47758	0.27348
904.54891	0.27264
902.62023	0.27178
900.69156	0.27087
898.76288	0.26995
896.83421	0.26908
894.90553	0.26818
892.97685	0.26721
891.04818	0.26623
889.11950	0.26531
887.19083	0.26442
885.26215	0.26355
883.33348	0.26272
881.40480	0.26184
879.47612	0.26091
877.54745	0.26008
875.61877	0.25935
873.69010	0.25866
871.76142	0.25790
869.83275	0.25706
867.90407	0.25622
865.97539	0.25541
864.04672	0.25461
862.11804	0.25380
860.18937	0.25290
858.26069	0.25195
856.33202	0.25103
854.40334	0.25009
852.47466	0.24912
850.54599	0.24820
848.61731	0.24729
846.68864	0.24636
844.75996	0.24542
842.83129	0.24448
840.90261	0.24353
838.97394	0.24263
837.04526	0.24173
835.11658	0.24076
833.18791	0.23974
831.25923	0.23867
829.33056	0.23750
827.40188	0.23628
825.47321	0.23510
823.54453	0.23399
821.61585	0.23293
819.68718	0.23196
817.75850	0.23103
815.82983	0.23001
813.90115	0.22894
811.97248	0.22793
810.04380	0.22699
808.11512	0.22607
806.18645	0.22515
804.25777	0.22430
802.32910	0.22360
800.40042	0.22296
798.47175	0.22232
796.54307	0.22176
794.61439	0.22139
792.68572	0.22113
790.75704	0.22090
788.82837	0.22066
786.89969	0.22034
784.97102	0.21990
783.04234	0.21942
781.11366	0.21892
779.18499	0.21839
777.25631	0.21787
775.32764	0.21737
773.39896	0.21686
771.47029	0.21637
769.54161	0.21590
767.61293	0.21539
765.68426	0.21473
763.75558	0.21390
761.82691	0.21301
759.89823	0.21223
757.96956	0.21149
756.04088	0.21068
754.11220	0.20980
752.18353	0.20888
750.25485	0.20791
748.32618	0.20693
746.39750	0.20600
744.46883	0.20507
742.54015	0.20420
740.61147	0.20342
738.68280	0.20267
736.75412	0.20188
734.82545	0.20105
732.89677	0.20025
730.96810	0.19952
729.03942	0.19878
727.11074	0.19798
725.18207	0.19719
723.25339	0.19645
721.32472	0.19574
719.39604	0.19506
717.46737	0.19432
715.53869	0.19354
713.61001	0.19273
711.68134	0.19184
709.75266	0.19090
707.82399	0.19005
705.89531	0.18932
703.96664	0.18861
702.03796	0.18784
700.10928	0.18702
698.18061	0.18621
696.25193	0.18546
694.32326	0.18467
692.39458	0.18380
690.46591	0.18290
688.53723	0.18201
686.60855	0.18112
684.67988	0.18020
682.75120	0.17921
680.82253	0.17808
678.89385	0.17688
676.96518	0.17571
675.03650	0.17450
673.10782	0.17313
671.17915	0.17154
669.25047	0.16985
667.32180	0.16835
665.39312	0.16706
663.46445	0.16566
661.53577	0.16408
659.60709	0.16255
657.67842	0.16110
655.74974	0.15963
653.82107	0.15811
651.89239	0.15659
649.96372	0.15508
648.03504	0.15352
646.10636	0.15190
644.17769	0.15024
642.24901	0.14854
640.32034	0.14677
638.39166	0.14494
636.46299	0.14305
634.53431	0.14113
632.60563	0.13926
630.67696	0.13746
628.74828	0.13569
626.81961	0.13388
624.89093	0.13206
622.96226	0.13034
621.03358	0.12875
619.10490	0.12723
617.17623	0.12570
615.24755	0.12398
613.31888	0.12203
611.39020	0.12006
609.46153	0.11824
607.53285	0.11661
605.60417	0.11507
603.67550	0.11349
601.74682	0.11192
599.81815	0.11049
597.88947	0.10915
595.96080	0.10783
594.03212	0.10655
592.10344	0.10538
590.17477	0.10435
588.24609	0.10334
586.31742	0.10223
584.38874	0.10108
582.46007	0.10000
580.53139	0.09897
578.60271	0.09789
576.67404	0.09675
574.74536	0.09567
572.81669	0.09469
570.88801	0.09374
568.95934	0.09283
567.03066	0.09199
565.10198	0.09116
563.17331	0.09030
561.24463	0.08951
559.31596	0.08880
557.38728	0.08813
555.45861	0.08749
553.52993	0.08686
551.60125	0.08620
549.67258	0.08552
547.74390	0.08490
545.81523	0.08436
543.88655	0.08385
541.95788	0.08333
540.02920	0.08278
538.10052	0.08226
536.17185	0.08183
534.24317	0.08138
532.31450	0.08083
530.38582	0.08023
528.45715	0.07961
526.52847	0.07893
524.59979	0.07822
522.67112	0.07745
520.74244	0.07652
518.81377	0.07548
516.88509	0.07459
514.95642	0.07397
513.02774	0.07338
511.09906	0.07258
509.17039	0.07162
507.24171	0.07064
505.31304	0.06962
503.38436	0.06863
501.45569	0.06771
499.52701	0.06667
497.59833	0.06539
495.66966	0.06403
493.74098	0.06280
491.81231	0.06163
489.88363	0.06041
487.95496	0.05912
486.02628	0.05787
484.09760	0.05673
482.16893	0.05562
480.24025	0.05443
478.31158	0.05317
476.38290	0.05183
474.45423	0.05050
472.52555	0.04930
470.59687	0.04830
468.66820	0.04746
466.73952	0.04674
464.81085	0.04614
462.88217	0.04560
460.95350	0.04512
459.02482	0.04472
457.09614	0.04451
455.16747	0.04455
453.23879	0.04470
451.31012	0.04472
449.38144	0.04453
447.45277	0.04413
445.52409	0.04361
443.59541	0.04311
441.66674	0.04263
439.73806	0.04208
437.80939	0.04136
435.88071	0.04042
433.95204	0.03928
432.02336	0.03803
430.09468	0.03679
428.16601	0.03557
426.23733	0.03431
424.30866	0.03296
422.37998	0.03162
420.45131	0.03037
418.52263	0.02913
416.59395	0.02781
414.66528	0.02650
412.73660	0.02528
410.80793	0.02406
408.87925	0.02290
406.95058	0.02188
405.02190	0.02076
403.09322	0.01942
401.16455	0.01817
399.23587	0.01723
397.30720	0.01639
395.37852	0.01539
393.44985	0.01432
391.52117	0.01332
389.59249	0.01240
387.66382	0.01161
385.73514	0.01090
383.80647	0.01009
381.87779	0.00922
379.94912	0.00847
378.02044	0.00781
376.09176	0.00717
374.16309	0.00655
372.23441	0.00598
370.30574	0.00544
368.37706	0.00492
