7496.76250	0.00147
7494.83382	0.00147
7492.90514	0.00148
7490.97647	0.00149
7489.04779	0.00150
7487.11912	0.00151
7485.19044	0.00153
7483.26177	0.00153
7481.33309	0.00153
7479.40441	0.00153
7477.47574	0.00152
7475.54706	0.00152
7473.61839	0.00153
7471.68971	0.00153
7469.76104	0.00153
7467.83236	0.00155
7465.90368	0.00156
7463.97501	0.00157
7462.04633	0.00157
7460.11766	0.00156
7458.18898	0.00155
7456.26031	0.00154
7454.33163	0.00154
7452.40295	0.00156
7450.47428	0.00159
7448.54560	0.00160
7446.61693	0.00158
7444.68825	0.00157
7442.75958	0.00158
7440.83090	0.00161
7438.90222	0.00163
7436.97355	0.00164
7435.04487	0.00164
7433.11620	0.00163
7431.18752	0.00162
7429.25885	0.00161
7427.33017	0.00162
7425.40149	0.00163
7423.47282	0.00165
7421.54414	0.00165
7419.61547	0.00166
7417.68679	0.00167
7415.75812	0.00167
7413.82944	0.00167
7411.90076	0.00167
7409.97209	0.00167
7408.04341	0.00168
7406.11474	0.00168
7404.18606	0.00168
7402.25739	0.00168
7400.32871	0.00168
7398.40003	0.00168
7396.47136	0.00169
7394.54268	0.00170
7392.61401	0.00171
7390.68533	0.00171
7388.75666	0.00171
7386.82798	0.00172
7384.89930	0.00173
7382.97063	0.00173
7381.04195	0.00172
7379.11328	0.00172
7377.18460	0.00173
7375.25593	0.00173
7373.32725	0.00174
7371.39857	0.00176
7369.46990	0.00177
7367.54122	0.00178
7365.61255	0.00178
7363.68387	0.00178
7361.75520	0.00177
7359.82652	0.00176
7357.89784	0.00177
7355.96917	0.00178
7354.04049	0.00180
7352.11182	0.00181
7350.18314	0.00182
7348.25447	0.00184
7346.32579	0.00184
7344.39711	0.00184
7342.46844	0.00185
7340.53976	0.00185
7338.61109	0.00184
7336.68241	0.00184
7334.75374	0.00186
7332.82506	0.00187
7330.89638	0.00186
7328.96771	0.00185
7327.03903	0.00185
7325.11036	0.00187
7323.18168	0.00187
7321.25301	0.00187
7319.32433	0.00187
7317.39565	0.00188
7315.46698	0.00188
7313.53830	0.00190
7311.60963	0.00191
7309.68095	0.00192
7307.75228	0.00192
7305.82360	0.00192
7303.89492	0.00192
7301.96625	0.00192
7300.03757	0.00192
7298.10890	0.00193
7296.18022	0.00193
7294.25155	0.00194
7292.32287	0.00194
7290.39419	0.00195
7288.46552	0.00195
7286.53684	0.00197
7284.60817	0.00198
7282.67949	0.00198
7280.75082	0.00197
7278.82214	0.00197
7276.89346	0.00197
7274.96479	0.00199
7273.03611	0.00200
7271.10744	0.00200
7269.17876	0.00201
7267.25009	0.00204
7265.32141	0.00206
7263.39273	0.00206
7261.46406	0.00203
7259.53538	0.00201
7257.60671	0.00200
7255.67803	0.00200
7253.74936	0.00202
7251.82068	0.00204
7249.89200	0.00206
7247.96333	0.00207
7246.03465	0.00207
7244.10598	0.00206
7242.17730	0.00206
7240.24863	0.00207
7238.31995	0.00208
7236.39127	0.00209
7234.46260	0.00210
7232.53392	0.00211
7230.60525	0.00210
7228.67657	0.00209
7226.74790	0.00210
7224.81922	0.00211
7222.89054	0.00211
7220.96187	0.00211
7219.03319	0.00213
7217.10452	0.00214
7215.17584	0.00214
7213.24717	0.00215
7211.31849	0.00215
7209.38981	0.00215
7207.46114	0.00215
7205.53246	0.00217
7203.60379	0.00218
7201.67511	0.00217
7199.74644	0.00216
7197.81776	0.00218
7195.88908	0.00220
7193.96041	0.00220
7192.03173	0.00221
7190.10306	0.00222
7188.17438	0.00223
7186.24571	0.00222
7184.31703	0.00222
7182.38835	0.00223
7180.45968	0.00223
7178.53100	0.00224
7176.60233	0.00224
7174.67365	0.00224
7172.74498	0.00224
7170.81630	0.00226
7168.88762	0.00228
7166.95895	0.00229
7165.03027	0.00229
7163.10160	0.00229
7161.17292	0.00228
7159.24425	0.00228
7157.31557	0.00227
7155.38689	0.00228
7153.45822	0.00229
7151.52954	0.00231
7149.60087	0.00232
7147.67219	0.00231
7145.74352	0.00231
7143.81484	0.00230
7141.88616	0.00231
7139.95749	0.00232
7138.02881	0.00233
7136.10014	0.00234
7134.17146	0.00236
7132.24279	0.00238
7130.31411	0.00237
7128.38543	0.00236
7126.45676	0.00236
7124.52808	0.00239
7122.59941	0.00240
7120.67073	0.00239
7118.74206	0.00237
7116.81338	0.00238
7114.88470	0.00240
7112.95603	0.00240
7111.02735	0.00239
7109.09868	0.00240
7107.17000	0.00243
7105.24133	0.00245
7103.31265	0.00246
7101.38397	0.00245
7099.45530	0.00243
7097.52662	0.00243
7095.59795	0.00243
7093.66927	0.00245
7091.74060	0.00248
7089.81192	0.00251
7087.88324	0.00251
7085.95457	0.00251
7084.02589	0.00250
7082.09722	0.00249
7080.16854	0.00249
7078.23987	0.00251
7076.31119	0.00251
7074.38251	0.00251
7072.45384	0.00251
7070.52516	0.00252
7068.59649	0.00252
7066.66781	0.00253
7064.73914	0.00255
7062.81046	0.00256
7060.88178	0.00256
7058.95311	0.00256
7057.02443	0.00255
7055.09576	0.00256
7053.16708	0.00259
7051.23841	0.00261
7049.30973	0.00260
7047.38105	0.00258
7045.45238	0.00257
7043.52370	0.00258
7041.59503	0.00259
7039.66635	0.00260
7037.73768	0.00262
7035.80900	0.00262
7033.88032	0.00263
7031.95165	0.00264
7030.02297	0.00266
7028.09430	0.00268
7026.16562	0.00268
7024.23695	0.00268
7022.30827	0.00267
7020.37959	0.00267
7018.45092	0.00267
7016.52224	0.00268
7014.59357	0.00269
7012.66489	0.00270
7010.73622	0.00271
7008.80754	0.00273
7006.87886	0.00276
7004.95019	0.00276
7003.02151	0.00274
7001.09284	0.00274
6999.16416	0.00274
6997.23549	0.00274
6995.30681	0.00274
6993.37813	0.00274
6991.44946	0.00274
6989.52078	0.00275
6987.59211	0.00276
6985.66343	0.00277
6983.73476	0.00279
6981.80608	0.00280
6979.87740	0.00281
6977.94873	0.00280
6976.02005	0.00280
6974.09138	0.00280
6972.16270	0.00281
6970.23403	0.00283
6968.30535	0.00284
6966.37667	0.00285
6964.44800	0.00284
6962.51932	0.00283
6960.59065	0.00284
6958.66197	0.00285
6956.73330	0.00287
6954.80462	0.00288
6952.87594	0.00288
6950.94727	0.00287
6949.01859	0.00287
6947.08992	0.00288
6945.16124	0.00290
6943.23257	0.00291
6941.30389	0.00292
6939.37521	0.00292
6937.44654	0.00292
6935.51786	0.00293
6933.58919	0.00294
6931.66051	0.00295
6929.73184	0.00296
6927.80316	0.00297
6925.87448	0.00297
6923.94581	0.00298
6922.01713	0.00300
6920.08846	0.00300
6918.15978	0.00298
6916.23111	0.00298
6914.30243	0.00300
6912.37375	0.00301
6910.44508	0.00302
6908.51640	0.00302
6906.58773	0.00302
6904.65905	0.00303
6902.73038	0.00304
6900.80170	0.00306
6898.87302	0.00308
6896.94435	0.00308
6895.01567	0.00309
6893.08700	0.00309
6891.15832	0.00310
6889.22965	0.00309
6887.30097	0.00308
6885.37229	0.00307
6883.44362	0.00308
6881.51494	0.00310
6879.58627	0.00312
6877.65759	0.00313
6875.72892	0.00314
6873.80024	0.00315
6871.87156	0.00317
6869.94289	0.00319
6868.01421	0.00319
6866.08554	0.00319
6864.15686	0.00319
6862.22819	0.00318
6860.29951	0.00317
6858.37083	0.00317
6856.44216	0.00319
6854.51348	0.00321
6852.58481	0.00323
6850.65613	0.00324
6848.72746	0.00323
6846.79878	0.00322
6844.87010	0.00323
6842.94143	0.00325
6841.01275	0.00326
6839.08408	0.00327
6837.15540	0.00328
6835.22673	0.00331
6833.29805	0.00330
6831.36937	0.00329
6829.44070	0.00329
6827.51202	0.00331
6825.58335	0.00333
6823.65467	0.00332
6821.72600	0.00333
6819.79732	0.00335
6817.86864	0.00336
6815.93997	0.00335
6814.01129	0.00334
6812.08262	0.00335
6810.15394	0.00338
6808.22527	0.00340
6806.29659	0.00340
6804.36791	0.00340
6802.43924	0.00340
6800.51056	0.00340
6798.58189	0.00340
6796.65321	0.00340
6794.72454	0.00341
6792.79586	0.00343
6790.86718	0.00344
6788.93851	0.00344
6787.00983	0.00345
6785.08116	0.00346
6783.15248	0.00349
6781.22381	0.00351
6779.29513	0.00351
6777.36645	0.00351
6775.43778	0.00352
6773.50910	0.00352
6771.58043	0.00352
6769.65175	0.00351
6767.72308	0.00351
6765.79440	0.00352
6763.86572	0.00353
6761.93705	0.00352
6760.00837	0.00353
6758.07970	0.00355
6756.15102	0.00358
6754.22235	0.00360
6752.29367	0.00361
6750.36499	0.00362
6748.43632	0.00362
6746.50764	0.00362
6744.57897	0.00363
6742.65029	0.00364
6740.72162	0.00365
6738.79294	0.00365
6736.86426	0.00366
6734.93559	0.00367
6733.00691	0.00367
6731.07824	0.00368
6729.14956	0.00369
6727.22089	0.00370
6725.29221	0.00371
6723.36353	0.00371
6721.43486	0.00371
6719.50618	0.00371
6717.57751	0.00370
6715.64883	0.00372
6713.72016	0.00373
6711.79148	0.00375
6709.86280	0.00377
6707.93413	0.00378
6706.00545	0.00378
6704.07678	0.00378
6702.14810	0.00379
6700.21943	0.00379
6698.29075	0.00381
6696.36207	0.00382
6694.43340	0.00383
6692.50472	0.00384
6690.57605	0.00385
6688.64737	0.00385
6686.71870	0.00386
6684.79002	0.00386
6682.86134	0.00386
6680.93267	0.00386
6679.00399	0.00387
6677.07532	0.00388
6675.14664	0.00389
6673.21797	0.00390
6671.28929	0.00391
6669.36061	0.00391
6667.43194	0.00393
6665.50326	0.00395
6663.57459	0.00397
6661.64591	0.00397
6659.71724	0.00396
6657.78856	0.00397
6655.85988	0.00400
6653.93121	0.00403
6652.00253	0.00402
6650.07386	0.00401
6648.14518	0.00402
6646.21651	0.00404
6644.28783	0.00406
6642.35915	0.00408
6640.43048	0.00408
6638.50180	0.00408
6636.57313	0.00409
6634.64445	0.00410
6632.71578	0.00410
6630.78710	0.00410
6628.85842	0.00410
6626.92975	0.00410
6625.00107	0.00411
6623.07240	0.00411
6621.14372	0.00412
6619.21505	0.00412
6617.28637	0.00413
6615.35769	0.00415
6613.42902	0.00417
6611.50034	0.00418
6609.57167	0.00419
6607.64299	0.00420
6605.71432	0.00421
6603.78564	0.00423
6601.85696	0.00424
6599.92829	0.00424
6597.99961	0.00425
6596.07094	0.00426
6594.14226	0.00425
6592.21359	0.00426
6590.28491	0.00428
6588.35623	0.00431
6586.42756	0.00431
6584.49888	0.00431
6582.57021	0.00432
6580.64153	0.00433
6578.71286	0.00434
6576.78418	0.00435
6574.85550	0.00436
6572.92683	0.00437
6570.99815	0.00438
6569.06948	0.00439
6567.14080	0.00440
6565.21213	0.00440
6563.28345	0.00440
6561.35477	0.00439
6559.42610	0.00441
6557.49742	0.00443
6555.56875	0.00445
6553.64007	0.00446
6551.71140	0.00446
6549.78272	0.00446
6547.85404	0.00448
6545.92537	0.00450
6543.99669	0.00450
6542.06802	0.00450
6540.13934	0.00450
6538.21067	0.00452
6536.28199	0.00453
6534.35331	0.00454
6532.42464	0.00454
6530.49596	0.00455
6528.56729	0.00456
6526.63861	0.00459
6524.70994	0.00460
6522.78126	0.00459
6520.85258	0.00460
6518.92391	0.00464
6516.99523	0.00466
6515.06656	0.00466
6513.13788	0.00466
6511.20921	0.00466
6509.28053	0.00467
6507.35185	0.00467
6505.42318	0.00466
6503.49450	0.00466
6501.56583	0.00468
6499.63715	0.00471
6497.70848	0.00474
6495.77980	0.00476
6493.85112	0.00476
6491.92245	0.00478
6489.99377	0.00479
6488.06510	0.00480
6486.13642	0.00481
6484.20775	0.00482
6482.27907	0.00482
6480.35039	0.00481
6478.42172	0.00482
6476.49304	0.00483
6474.56437	0.00484
6472.63569	0.00485
6470.70702	0.00487
6468.77834	0.00489
6466.84966	0.00490
6464.92099	0.00490
6462.99231	0.00491
6461.06364	0.00491
6459.13496	0.00492
6457.20629	0.00493
6455.27761	0.00494
6453.34893	0.00495
6451.42026	0.00495
6449.49158	0.00497
6447.56291	0.00500
6445.63423	0.00502
6443.70556	0.00503
6441.77688	0.00504
6439.84820	0.00504
6437.91953	0.00503
6435.99085	0.00503
6434.06218	0.00506
6432.13350	0.00510
6430.20483	0.00512
6428.27615	0.00512
6426.34747	0.00511
6424.41880	0.00510
6422.49012	0.00510
6420.56145	0.00512
6418.63277	0.00515
6416.70410	0.00517
6414.77542	0.00517
6412.84674	0.00518
6410.91807	0.00520
6408.98939	0.00521
6407.06072	0.00522
6405.13204	0.00523
6403.20337	0.00525
6401.27469	0.00526
6399.34601	0.00527
6397.41734	0.00528
6395.48866	0.00528
6393.55999	0.00529
6391.63131	0.00531
6389.70264	0.00531
6387.77396	0.00531
6385.84528	0.00533
6383.91661	0.00534
6381.98793	0.00534
6380.05926	0.00535
6378.13058	0.00536
6376.20191	0.00538
6374.27323	0.00539
6372.34455	0.00540
6370.41588	0.00541
6368.48720	0.00542
6366.55853	0.00544
6364.62985	0.00547
6362.70118	0.00549
6360.77250	0.00550
6358.84382	0.00550
6356.91515	0.00549
6354.98647	0.00548
6353.05780	0.00549
6351.12912	0.00551
6349.20045	0.00553
6347.27177	0.00554
6345.34309	0.00556
6343.41442	0.00558
6341.48574	0.00560
6339.55707	0.00561
6337.62839	0.00560
6335.69972	0.00560
6333.77104	0.00562
6331.84236	0.00565
6329.91369	0.00568
6327.98501	0.00570
6326.05634	0.00571
6324.12766	0.00572
6322.19899	0.00573
6320.27031	0.00575
6318.34163	0.00575
6316.41296	0.00575
6314.48428	0.00576
6312.55561	0.00576
6310.62693	0.00578
6308.69826	0.00581
6306.76958	0.00582
6304.84090	0.00583
6302.91223	0.00583
6300.98355	0.00582
6299.05488	0.00582
6297.12620	0.00582
6295.19753	0.00583
6293.26885	0.00586
6291.34017	0.00590
6289.41150	0.00590
6287.48282	0.00590
6285.55415	0.00592
6283.62547	0.00596
6281.69680	0.00599
6279.76812	0.00600
6277.83944	0.00601
6275.91077	0.00601
6273.98209	0.00602
6272.05342	0.00602
6270.12474	0.00604
6268.19607	0.00605
6266.26739	0.00607
6264.33871	0.00607
6262.41004	0.00608
6260.48136	0.00610
6258.55269	0.00613
6256.62401	0.00614
6254.69534	0.00614
6252.76666	0.00613
6250.83798	0.00614
6248.90931	0.00616
6246.98063	0.00618
6245.05196	0.00619
6243.12328	0.00620
6241.19461	0.00622
6239.26593	0.00626
6237.33725	0.00629
6235.40858	0.00629
6233.47990	0.00630
6231.55123	0.00631
6229.62255	0.00631
6227.69388	0.00631
6225.76520	0.00632
6223.83652	0.00633
6221.90785	0.00636
6219.97917	0.00639
6218.05050	0.00643
6216.12182	0.00645
6214.19315	0.00646
6212.26447	0.00645
6210.33579	0.00644
6208.40712	0.00644
6206.47844	0.00644
6204.54977	0.00644
6202.62109	0.00647
6200.69242	0.00652
6198.76374	0.00655
6196.83506	0.00655
6194.90639	0.00655
6192.97771	0.00656
6191.04904	0.00659
6189.12036	0.00663
6187.19169	0.00664
6185.26301	0.00665
6183.33433	0.00666
6181.40566	0.00669
6179.47698	0.00670
6177.54831	0.00669
6175.61963	0.00669
6173.69096	0.00671
6171.76228	0.00673
6169.83360	0.00675
6167.90493	0.00676
6165.97625	0.00678
6164.04758	0.00680
6162.11890	0.00680
6160.19023	0.00679
6158.26155	0.00680
6156.33287	0.00682
6154.40420	0.00684
6152.47552	0.00687
6150.54685	0.00690
6148.61817	0.00692
6146.68950	0.00693
6144.76082	0.00694
6142.83214	0.00695
6140.90347	0.00696
6138.97479	0.00696
6137.04612	0.00696
6135.11744	0.00697
6133.18877	0.00700
6131.26009	0.00702
6129.33141	0.00704
6127.40274	0.00705
6125.47406	0.00706
6123.54539	0.00707
6121.61671	0.00708
6119.68804	0.00709
6117.75936	0.00711
6115.83068	0.00712
6113.90201	0.00712
6111.97333	0.00714
6110.04466	0.00716
6108.11598	0.00719
6106.18731	0.00721
6104.25863	0.00722
6102.32995	0.00723
6100.40128	0.00724
6098.47260	0.00724
6096.54393	0.00726
6094.61525	0.00729
6092.68658	0.00731
6090.75790	0.00733
6088.82922	0.00734
6086.90055	0.00735
6084.97187	0.00737
6083.04320	0.00739
6081.11452	0.00741
6079.18585	0.00742
6077.25717	0.00743
6075.32849	0.00744
6073.39982	0.00746
6071.47114	0.00749
6069.54247	0.00752
6067.61379	0.00754
6065.68512	0.00756
6063.75644	0.00757
6061.82776	0.00758
6059.89909	0.00759
6057.97041	0.00759
6056.04174	0.00759
6054.11306	0.00761
6052.18439	0.00766
6050.25571	0.00770
6048.32703	0.00770
6046.39836	0.00769
6044.46968	0.00769
6042.54101	0.00771
6040.61233	0.00774
6038.68366	0.00776
6036.75498	0.00776
6034.82630	0.00775
6032.89763	0.00775
6030.96895	0.00778
6029.04028	0.00783
6027.11160	0.00786
6025.18293	0.00787
6023.25425	0.00787
6021.32557	0.00788
6019.39690	0.00790
6017.46822	0.00791
6015.53955	0.00790
6013.61087	0.00792
6011.68220	0.00796
6009.75352	0.00799
6007.82484	0.00801
6005.89617	0.00803
6003.96749	0.00805
6002.03882	0.00806
6000.11014	0.00806
5998.18147	0.00807
5996.25279	0.00810
5994.32411	0.00813
5992.39544	0.00815
5990.46676	0.00817
5988.53809	0.00819
5986.60941	0.00821
5984.68074	0.00822
5982.75206	0.00823
5980.82338	0.00823
5978.89471	0.00824
5976.96603	0.00825
5975.03736	0.00827
5973.10868	0.00829
5971.18001	0.00833
5969.25133	0.00834
5967.32265	0.00833
5965.39398	0.00834
5963.46530	0.00835
5961.53663	0.00837
5959.60795	0.00840
5957.67928	0.00843
5955.75060	0.00845
5953.82192	0.00847
5951.89325	0.00848
5949.96457	0.00849
5948.03590	0.00850
5946.10722	0.00853
5944.17855	0.00854
5942.24987	0.00856
5940.32119	0.00859
5938.39252	0.00863
5936.46384	0.00865
5934.53517	0.00866
5932.60649	0.00867
5930.67782	0.00869
5928.74914	0.00871
5926.82046	0.00872
5924.89179	0.00874
5922.96311	0.00876
5921.03444	0.00878
5919.10576	0.00879
5917.17709	0.00881
5915.24841	0.00883
5913.31973	0.00886
5911.39106	0.00889
5909.46238	0.00890
5907.53371	0.00891
5905.60503	0.00892
5903.67636	0.00894
5901.74768	0.00895
5899.81900	0.00897
5897.89033	0.00898
5895.96165	0.00899
5894.03298	0.00902
5892.10430	0.00905
5890.17563	0.00906
5888.24695	0.00906
5886.31827	0.00907
5884.38960	0.00911
5882.46092	0.00914
5880.53225	0.00917
5878.60357	0.00919
5876.67490	0.00921
5874.74622	0.00923
5872.81755	0.00924
5870.88887	0.00925
5868.96019	0.00926
5867.03152	0.00927
5865.10284	0.00930
5863.17417	0.00933
5861.24549	0.00936
5859.31682	0.00938
5857.38814	0.00939
5855.45946	0.00942
5853.53079	0.00944
5851.60211	0.00946
5849.67344	0.00947
5847.74476	0.00948
5845.81609	0.00950
5843.88741	0.00952
5841.95873	0.00953
5840.03006	0.00953
5838.10138	0.00954
5836.17271	0.00957
5834.24403	0.00961
5832.31536	0.00964
5830.38668	0.00966
5828.45800	0.00967
5826.52933	0.00969
5824.60065	0.00971
5822.67198	0.00974
5820.74330	0.00975
5818.81463	0.00976
5816.88595	0.00977
5814.95727	0.00978
5813.02860	0.00980
5811.09992	0.00981
5809.17125	0.00984
5807.24257	0.00989
5805.31390	0.00993
5803.38522	0.00995
5801.45654	0.00996
5799.52787	0.00996
5797.59919	0.00998
5795.67052	0.01000
5793.74184	0.01002
5791.81317	0.01003
5789.88449	0.01005
5787.95581	0.01008
5786.02714	0.01010
5784.09846	0.01013
5782.16979	0.01017
5780.24111	0.01020
5778.31244	0.01020
5776.38376	0.01019
5774.45508	0.01019
5772.52641	0.01022
5770.59773	0.01026
5768.66906	0.01029
5766.74038	0.01031
5764.81171	0.01033
5762.88303	0.01036
5760.95435	0.01038
5759.02568	0.01039
5757.09700	0.01040
5755.16833	0.01041
5753.23965	0.01042
5751.31098	0.01045
5749.38230	0.01048
5747.45362	0.01051
5745.52495	0.01052
5743.59627	0.01054
5741.66760	0.01057
5739.73892	0.01059
5737.81025	0.01060
5735.88157	0.01060
5733.95289	0.01062
5732.02422	0.01065
5730.09554	0.01069
5728.16687	0.01073
5726.23819	0.01074
5724.30952	0.01075
5722.38084	0.01077
5720.45216	0.01081
5718.52349	0.01084
5716.59481	0.01085
5714.66614	0.01086
5712.73746	0.01087
5710.80879	0.01088
5708.88011	0.01090
5706.95143	0.01093
5705.02276	0.01097
5703.09408	0.01100
5701.16541	0.01102
5699.23673	0.01105
5697.30806	0.01107
5695.37938	0.01110
5693.45070	0.01112
5691.52203	0.01114
5689.59335	0.01115
5687.66468	0.01116
5685.73600	0.01120
5683.80733	0.01124
5681.87865	0.01125
5679.94997	0.01125
5678.02130	0.01127
5676.09262	0.01131
5674.16395	0.01134
5672.23527	0.01136
5670.30660	0.01138
5668.37792	0.01139
5666.44924	0.01141
5664.52057	0.01143
5662.59189	0.01146
5660.66322	0.01149
5658.73454	0.01153
5656.80587	0.01155
5654.87719	0.01156
5652.94851	0.01158
5651.01984	0.01161
5649.09116	0.01163
5647.16249	0.01165
5645.23381	0.01167
5643.30514	0.01168
5641.37646	0.01171
5639.44778	0.01174
5637.51911	0.01177
5635.59043	0.01180
5633.66176	0.01183
5631.73308	0.01186
5629.80441	0.01187
5627.87573	0.01189
5625.94705	0.01190
5624.01838	0.01190
5622.08970	0.01191
5620.16103	0.01193
5618.23235	0.01196
5616.30368	0.01201
5614.37500	0.01205
5612.44632	0.01207
5610.51765	0.01207
5608.58897	0.01208
5606.66030	0.01212
5604.73162	0.01216
5602.80295	0.01220
5600.87427	0.01223
5598.94559	0.01225
5597.01692	0.01226
5595.08824	0.01226
5593.15957	0.01226
5591.23089	0.01228
5589.30222	0.01232
5587.37354	0.01235
5585.44486	0.01238
5583.51619	0.01240
5581.58751	0.01243
5579.65884	0.01247
5577.73016	0.01250
5575.80149	0.01250
5573.87281	0.01252
5571.94413	0.01254
5570.01546	0.01257
5568.08678	0.01260
5566.15811	0.01263
5564.22943	0.01266
5562.30076	0.01269
5560.37208	0.01270
5558.44340	0.01272
5556.51473	0.01274
5554.58605	0.01277
5552.65738	0.01280
5550.72870	0.01282
5548.80003	0.01284
5546.87135	0.01286
5544.94267	0.01289
5543.01400	0.01292
5541.08532	0.01294
5539.15665	0.01296
5537.22797	0.01298
5535.29930	0.01300
5533.37062	0.01300
5531.44194	0.01302
5529.51327	0.01306
5527.58459	0.01310
5525.65592	0.01312
5523.72724	0.01315
5521.79857	0.01317
5519.86989	0.01319
5517.94121	0.01322
5516.01254	0.01325
5514.08386	0.01327
5512.15519	0.01327
5510.22651	0.01329
5508.29784	0.01334
5506.36916	0.01339
5504.44048	0.01342
5502.51181	0.01344
5500.58313	0.01347
5498.65446	0.01350
5496.72578	0.01353
5494.79711	0.01352
5492.86843	0.01349
5490.93975	0.01351
5489.01108	0.01355
5487.08240	0.01359
5485.15373	0.01362
5483.22505	0.01365
5481.29638	0.01367
5479.36770	0.01372
5477.43902	0.01375
5475.51035	0.01376
5473.58167	0.01378
5471.65300	0.01381
5469.72432	0.01385
5467.79565	0.01387
5465.86697	0.01388
5463.93829	0.01389
5462.00962	0.01391
5460.08094	0.01393
5458.15227	0.01397
5456.22359	0.01402
5454.29492	0.01405
5452.36624	0.01406
5450.43756	0.01407
5448.50889	0.01409
5446.58021	0.01410
5444.65154	0.01411
5442.72286	0.01414
5440.79419	0.01418
5438.86551	0.01422
5436.93683	0.01425
5435.00816	0.01426
5433.07948	0.01427
5431.15081	0.01431
5429.22213	0.01435
5427.29346	0.01438
5425.36478	0.01441
5423.43610	0.01443
5421.50743	0.01445
5419.57875	0.01448
5417.65008	0.01453
5415.72140	0.01456
5413.79273	0.01457
5411.86405	0.01458
5409.93537	0.01461
5408.00670	0.01464
5406.07802	0.01467
5404.14935	0.01470
5402.22067	0.01474
5400.29200	0.01478
5398.36332	0.01479
5396.43464	0.01480
5394.50597	0.01482
5392.57729	0.01486
5390.64862	0.01489
5388.71994	0.01492
5386.79127	0.01494
5384.86259	0.01497
5382.93391	0.01500
5381.00524	0.01503
5379.07656	0.01505
5377.14789	0.01508
5375.21921	0.01511
5373.29054	0.01512
5371.36186	0.01516
5369.43318	0.01522
5367.50451	0.01527
5365.57583	0.01528
5363.64716	0.01529
5361.71848	0.01531
5359.78981	0.01534
5357.86113	0.01536
5355.93245	0.01536
5354.00378	0.01538
5352.07510	0.01543
5350.14643	0.01548
5348.21775	0.01550
5346.28908	0.01550
5344.36040	0.01552
5342.43172	0.01556
5340.50305	0.01560
5338.57437	0.01563
5336.64570	0.01566
5334.71702	0.01570
5332.78835	0.01572
5330.85967	0.01574
5328.93099	0.01575
5327.00232	0.01577
5325.07364	0.01582
5323.14497	0.01586
5321.21629	0.01587
5319.28762	0.01589
5317.35894	0.01592
5315.43026	0.01595
5313.50159	0.01597
5311.57291	0.01600
5309.64424	0.01603
5307.71556	0.01606
5305.78689	0.01609
5303.85821	0.01613
5301.92953	0.01616
5300.00086	0.01618
5298.07218	0.01620
5296.14351	0.01622
5294.21483	0.01625
5292.28616	0.01628
5290.35748	0.01631
5288.42880	0.01634
5286.50013	0.01637
5284.57145	0.01639
5282.64278	0.01642
5280.71410	0.01645
5278.78543	0.01648
5276.85675	0.01649
5274.92807	0.01651
5272.99940	0.01653
5271.07072	0.01656
5269.14205	0.01659
5267.21337	0.01661
5265.28470	0.01664
5263.35602	0.01667
5261.42734	0.01670
5259.49867	0.01674
5257.56999	0.01678
5255.64132	0.01680
5253.71264	0.01683
5251.78397	0.01687
5249.85529	0.01691
5247.92661	0.01694
5245.99794	0.01696
5244.06926	0.01697
5242.14059	0.01700
5240.21191	0.01705
5238.28324	0.01709
5236.35456	0.01710
5234.42588	0.01712
5232.49721	0.01715
5230.56853	0.01717
5228.63986	0.01720
5226.71118	0.01722
5224.78251	0.01725
5222.85383	0.01730
5220.92515	0.01734
5218.99648	0.01738
5217.06780	0.01740
5215.13913	0.01743
5213.21045	0.01746
5211.28178	0.01750
5209.35310	0.01752
5207.42442	0.01753
5205.49575	0.01756
5203.56707	0.01760
5201.63840	0.01761
5199.70972	0.01763
5197.78105	0.01767
5195.85237	0.01772
5193.92369	0.01776
5191.99502	0.01778
5190.06634	0.01780
5188.13767	0.01782
5186.20899	0.01785
5184.28032	0.01787
5182.35164	0.01790
5180.42296	0.01794
5178.49429	0.01797
5176.56561	0.01800
5174.63694	0.01803
5172.70826	0.01806
5170.77959	0.01808
5168.85091	0.01811
5166.92223	0.01814
5164.99356	0.01817
5163.06488	0.01821
5161.13621	0.01825
5159.20753	0.01827
5157.27886	0.01829
5155.35018	0.01831
5153.42150	0.01834
5151.49283	0.01837
5149.56415	0.01841
5147.63548	0.01845
5145.70680	0.01849
5143.77813	0.01853
5141.84945	0.01857
5139.92077	0.01860
5137.99210	0.01861
5136.06342	0.01863
5134.13475	0.01866
5132.20607	0.01870
5130.27740	0.01874
5128.34872	0.01879
5126.42004	0.01883
5124.49137	0.01886
5122.56269	0.01888
5120.63402	0.01891
5118.70534	0.01895
5116.77667	0.01899
5114.84799	0.01901
5112.91931	0.01902
5110.99064	0.01903
5109.06196	0.01905
5107.13329	0.01907
5105.20461	0.01911
5103.27594	0.01916
5101.34726	0.01919
5099.41858	0.01921
5097.48991	0.01923
5095.56123	0.01928
5093.63256	0.01931
5091.70388	0.01934
5089.77521	0.01939
5087.84653	0.01944
5085.91785	0.01948
5083.98918	0.01951
5082.06050	0.01952
5080.13183	0.01953
5078.20315	0.01954
5076.27448	0.01957
5074.34580	0.01963
5072.41712	0.01968
5070.48845	0.01969
5068.55977	0.01969
5066.63110	0.01972
5064.70242	0.01975
5062.77375	0.01981
5060.84507	0.01986
5058.91639	0.01989
5056.98772	0.01990
5055.05904	0.01992
5053.13037	0.01995
5051.20169	0.01999
5049.27302	0.02001
5047.34434	0.02003
5045.41566	0.02007
5043.48699	0.02012
5041.55831	0.02014
5039.62964	0.02015
5037.70096	0.02017
5035.77229	0.02023
5033.84361	0.02028
5031.91493	0.02032
5029.98626	0.02036
5028.05758	0.02041
5026.12891	0.02044
5024.20023	0.02045
5022.27156	0.02047
5020.34288	0.02050
5018.41420	0.02054
5016.48553	0.02056
5014.55685	0.02059
5012.62818	0.02064
5010.69950	0.02068
5008.77083	0.02072
5006.84215	0.02076
5004.91347	0.02080
5002.98480	0.02083
5001.05612	0.02085
4999.12745	0.02089
4997.19877	0.02091
4995.27010	0.02093
4993.34142	0.02096
4991.41274	0.02100
4989.48407	0.02101
4987.55539	0.02101
4985.62672	0.02105
4983.69804	0.02110
4981.76937	0.02114
4979.84069	0.02117
4977.91201	0.02120
4975.98334	0.02121
4974.05466	0.02123
4972.12599	0.02128
4970.19731	0.02134
4968.26864	0.02136
4966.33996	0.02137
4964.41128	0.02141
4962.48261	0.02147
4960.55393	0.02153
4958.62526	0.02158
4956.69658	0.02160
4954.76791	0.02160
4952.83923	0.02162
4950.91055	0.02167
4948.98188	0.02171
4947.05320	0.02173
4945.12453	0.02174
4943.19585	0.02178
4941.26718	0.02182
4939.33850	0.02186
4937.40982	0.02191
4935.48115	0.02195
4933.55247	0.02197
4931.62380	0.02198
4929.69512	0.02201
4927.76645	0.02206
4925.83777	0.02209
4923.90909	0.02212
4921.98042	0.02214
4920.05174	0.02217
4918.12307	0.02224
4916.19439	0.02229
4914.26572	0.02231
4912.33704	0.02232
4910.40836	0.02236
4908.47969	0.02241
4906.55101	0.02245
4904.62234	0.02249
4902.69366	0.02254
4900.76499	0.02258
4898.83631	0.02262
4896.90763	0.02267
4894.97896	0.02270
4893.05028	0.02271
4891.12161	0.02272
4889.19293	0.02275
4887.26426	0.02279
4885.33558	0.02283
4883.40690	0.02288
4881.47823	0.02292
4879.54955	0.02294
4877.62088	0.02296
4875.69220	0.02297
4873.76353	0.02300
4871.83485	0.02304
4869.90617	0.02308
4867.97750	0.02311
4866.04882	0.02315
4864.12015	0.02320
4862.19147	0.02323
4860.26280	0.02324
4858.33412	0.02325
4856.40544	0.02329
4854.47677	0.02333
4852.54809	0.02337
4850.61942	0.02342
4848.69074	0.02349
4846.76207	0.02354
4844.83339	0.02356
4842.90471	0.02360
4840.97604	0.02365
4839.04736	0.02367
4837.11869	0.02368
4835.19001	0.02371
4833.26134	0.02377
4831.33266	0.02382
4829.40398	0.02385
4827.47531	0.02385
4825.54663	0.02386
4823.61796	0.02388
4821.68928	0.02392
4819.76061	0.02399
4817.83193	0.02407
4815.90325	0.02413
4813.97458	0.02415
4812.04590	0.02416
4810.11723	0.02419
4808.18855	0.02424
4806.25988	0.02429
4804.33120	0.02433
4802.40252	0.02435
4800.47385	0.02438
4798.54517	0.02440
4796.61650	0.02441
4794.68782	0.02443
4792.75915	0.02448
4790.83047	0.02454
4788.90179	0.02460
4786.97312	0.02466
4785.04444	0.02471
4783.11577	0.02474
4781.18709	0.02476
4779.25842	0.02478
4777.32974	0.02482
4775.40106	0.02486
4773.47239	0.02491
4771.54371	0.02494
4769.61504	0.02496
4767.68636	0.02498
4765.75769	0.02502
4763.82901	0.02507
4761.90033	0.02513
4759.97166	0.02518
4758.04298	0.02522
4756.11431	0.02524
4754.18563	0.02526
4752.25696	0.02528
4750.32828	0.02531
4748.39960	0.02536
4746.47093	0.02541
4744.54225	0.02547
4742.61358	0.02553
4740.68490	0.02558
4738.75623	0.02561
4736.82755	0.02564
4734.89887	0.02567
4732.97020	0.02570
4731.04152	0.02573
4729.11285	0.02576
4727.18417	0.02579
4725.25550	0.02583
4723.32682	0.02588
4721.39814	0.02594
4719.46947	0.02598
4717.54079	0.02599
4715.61212	0.02600
4713.68344	0.02603
4711.75477	0.02608
4709.82609	0.02614
4707.89741	0.02619
4705.96874	0.02623
4704.04006	0.02628
4702.11139	0.02634
4700.18271	0.02638
4698.25404	0.02642
4696.32536	0.02647
4694.39668	0.02651
4692.46801	0.02654
4690.53933	0.02656
4688.61066	0.02659
4686.68198	0.02662
4684.75331	0.02666
4682.82463	0.02669
4680.89595	0.02672
4678.96728	0.02676
4677.03860	0.02680
4675.10993	0.02684
4673.18125	0.02689
4671.25258	0.02692
4669.32390	0.02695
4667.39522	0.02699
4665.46655	0.02705
4663.53787	0.02710
4661.60920	0.02714
4659.68052	0.02719
4657.75185	0.02724
4655.82317	0.02728
4653.89449	0.02731
4651.96582	0.02734
4650.03714	0.02736
4648.10847	0.02740
4646.17979	0.02746
4644.25112	0.02753
4642.32244	0.02759
4640.39376	0.02765
4638.46509	0.02769
4636.53641	0.02772
4634.60774	0.02777
4632.67906	0.02782
4630.75039	0.02786
4628.82171	0.02789
4626.89303	0.02792
4624.96436	0.02795
4623.03568	0.02800
4621.10701	0.02806
4619.17833	0.02812
4617.24966	0.02815
4615.32098	0.02817
4613.39230	0.02821
4611.46363	0.02825
4609.53495	0.02828
4607.60628	0.02831
4605.67760	0.02836
4603.74893	0.02841
4601.82025	0.02846
4599.89157	0.02852
4597.96290	0.02854
4596.03422	0.02857
4594.10555	0.02861
4592.17687	0.02867
4590.24820	0.02872
4588.31952	0.02878
4586.39084	0.02883
4584.46217	0.02889
4582.53349	0.02896
4580.60482	0.02902
4578.67614	0.02905
4576.74747	0.02908
4574.81879	0.02910
4572.89011	0.02912
4570.96144	0.02916
4569.03276	0.02922
4567.10409	0.02927
4565.17541	0.02931
4563.24674	0.02937
4561.31806	0.02944
4559.38938	0.02949
4557.46071	0.02954
4555.53203	0.02960
4553.60336	0.02964
4551.67468	0.02966
4549.74601	0.02969
4547.81733	0.02975
4545.88865	0.02981
4543.95998	0.02985
4542.03130	0.02989
4540.10263	0.02994
4538.17395	0.02999
4536.24528	0.03006
4534.31660	0.03011
4532.38792	0.03014
4530.45925	0.03016
4528.53057	0.03020
4526.60190	0.03026
4524.67322	0.03032
4522.74455	0.03037
4520.81587	0.03042
4518.88719	0.03047
4516.95852	0.03051
4515.02984	0.03053
4513.10117	0.03056
4511.17249	0.03060
4509.24382	0.03065
4507.31514	0.03068
4505.38646	0.03072
4503.45779	0.03076
4501.52911	0.03083
4499.60044	0.03091
4497.67176	0.03097
4495.74309	0.03102
4493.81441	0.03107
4491.88573	0.03113
4489.95706	0.03118
4488.02838	0.03123
4486.09971	0.03127
4484.17103	0.03131
4482.24236	0.03135
4480.31368	0.03139
4478.38500	0.03145
4476.45633	0.03151
4474.52765	0.03154
4472.59898	0.03157
4470.67030	0.03162
4468.74163	0.03168
4466.81295	0.03173
4464.88427	0.03180
4462.95560	0.03188
4461.02692	0.03196
4459.09825	0.03201
4457.16957	0.03206
4455.24090	0.03209
4453.31222	0.03213
4451.38354	0.03218
4449.45487	0.03224
4447.52619	0.03229
4445.59752	0.03234
4443.66884	0.03239
4441.74017	0.03246
4439.81149	0.03251
4437.88281	0.03255
4435.95414	0.03260
4434.02546	0.03266
4432.09679	0.03272
4430.16811	0.03276
4428.23944	0.03281
4426.31076	0.03286
4424.38208	0.03292
4422.45341	0.03299
4420.52473	0.03304
4418.59606	0.03306
4416.66738	0.03309
4414.73871	0.03314
4412.81003	0.03319
4410.88135	0.03324
4408.95268	0.03331
4407.02400	0.03340
4405.09533	0.03347
4403.16665	0.03350
4401.23798	0.03353
4399.30930	0.03358
4397.38062	0.03366
4395.45195	0.03372
4393.52327	0.03376
4391.59460	0.03380
4389.66592	0.03386
4387.73725	0.03392
4385.80857	0.03398
4383.87989	0.03402
4381.95122	0.03406
4380.02254	0.03413
4378.09387	0.03421
4376.16519	0.03428
4374.23652	0.03433
4372.30784	0.03438
4370.37916	0.03442
4368.45049	0.03447
4366.52181	0.03455
4364.59314	0.03462
4362.66446	0.03467
4360.73579	0.03471
4358.80711	0.03475
4356.87843	0.03479
4354.94976	0.03484
4353.02108	0.03491
4351.09241	0.03500
4349.16373	0.03508
4347.23506	0.03515
4345.30638	0.03521
4343.37770	0.03526
4341.44903	0.03531
4339.52035	0.03536
4337.59168	0.03541
4335.66300	0.03546
4333.73433	0.03551
4331.80565	0.03558
4329.87697	0.03566
4327.94830	0.03573
4326.01962	0.03580
4324.09095	0.03587
4322.16227	0.03594
4320.23360	0.03600
4318.30492	0.03605
4316.37624	0.03609
4314.44757	0.03615
4312.51889	0.03622
4310.59022	0.03629
4308.66154	0.03636
4306.73287	0.03643
4304.80419	0.03649
4302.87551	0.03655
4300.94684	0.03661
4299.01816	0.03665
4297.08949	0.03669
4295.16081	0.03674
4293.23214	0.03681
4291.30346	0.03689
4289.37478	0.03697
4287.44611	0.03705
4285.51743	0.03711
4283.58876	0.03717
4281.66008	0.03722
4279.73141	0.03730
4277.80273	0.03738
4275.87405	0.03746
4273.94538	0.03752
4272.01670	0.03757
4270.08803	0.03762
4268.15935	0.03766
4266.23068	0.03771
4264.30200	0.03777
4262.37332	0.03785
4260.44465	0.03794
4258.51597	0.03801
4256.58730	0.03807
4254.65862	0.03813
4252.72995	0.03820
4250.80127	0.03824
4248.87259	0.03828
4246.94392	0.03834
4245.01524	0.03840
4243.08657	0.03846
4241.15789	0.03852
4239.22922	0.03860
4237.30054	0.03868
4235.37186	0.03878
4233.44319	0.03887
4231.51451	0.03895
4229.58584	0.03901
4227.65716	0.03907
4225.72849	0.03911
4223.79981	0.03916
4221.87113	0.03922
4219.94246	0.03929
4218.01378	0.03939
4216.08511	0.03948
4214.15643	0.03953
4212.22776	0.03956
4210.29908	0.03962
4208.37040	0.03971
4206.44173	0.03978
4204.51305	0.03986
4202.58438	0.03994
4200.65570	0.03999
4198.72703	0.04004
4196.79835	0.04011
4194.86968	0.04018
4192.94100	0.04024
4191.01232	0.04030
4189.08365	0.04037
4187.15497	0.04045
4185.22630	0.04053
4183.29762	0.04059
4181.36895	0.04064
4179.44027	0.04072
4177.51159	0.04083
4175.58292	0.04092
4173.65424	0.04099
4171.72557	0.04107
4169.79689	0.04114
4167.86822	0.04120
4165.93954	0.04126
4164.01086	0.04131
4162.08219	0.04138
4160.15351	0.04148
4158.22484	0.04156
4156.29616	0.04164
4154.36749	0.04171
4152.43881	0.04178
4150.51013	0.04183
4148.58146	0.04190
4146.65278	0.04198
4144.72411	0.04207
4142.79543	0.04216
4140.86676	0.04224
4138.93808	0.04229
4137.00940	0.04233
4135.08073	0.04242
4133.15205	0.04252
4131.22338	0.04260
4129.29470	0.04268
4127.36603	0.04276
4125.43735	0.04285
4123.50867	0.04293
4121.58000	0.04299
4119.65132	0.04304
4117.72265	0.04309
4115.79397	0.04316
4113.86530	0.04325
4111.93662	0.04333
4110.00794	0.04342
4108.07927	0.04350
4106.15059	0.04357
4104.22192	0.04365
4102.29324	0.04373
4100.36457	0.04382
4098.43589	0.04391
4096.50721	0.04399
4094.57854	0.04404
4092.64986	0.04411
4090.72119	0.04420
4088.79251	0.04428
4086.86384	0.04435
4084.93516	0.04443
4083.00648	0.04453
4081.07781	0.04461
4079.14913	0.04470
4077.22046	0.04479
4075.29178	0.04487
4073.36311	0.04493
4071.43443	0.04500
4069.50575	0.04506
4067.57708	0.04513
4065.64840	0.04523
4063.71973	0.04533
4061.79105	0.04542
4059.86238	0.04548
4057.93370	0.04556
4056.00502	0.04565
4054.07635	0.04573
4052.14767	0.04581
4050.21900	0.04588
4048.29032	0.04595
4046.36165	0.04602
4044.43297	0.04608
4042.50429	0.04615
4040.57562	0.04624
4038.64694	0.04635
4036.71827	0.04643
4034.78959	0.04649
4032.86092	0.04656
4030.93224	0.04666
4029.00356	0.04674
4027.07489	0.04680
4025.14621	0.04687
4023.21754	0.04698
4021.28886	0.04710
4019.36019	0.04721
4017.43151	0.04730
4015.50283	0.04735
4013.57416	0.04742
4011.64548	0.04750
4009.71681	0.04758
4007.78813	0.04768
4005.85946	0.04778
4003.93078	0.04787
4002.00210	0.04795
4000.07343	0.04803
3998.14475	0.04810
3996.21608	0.04817
3994.28740	0.04824
3992.35873	0.04832
3990.43005	0.04841
3988.50137	0.04850
3986.57270	0.04859
3984.64402	0.04866
3982.71535	0.04875
3980.78667	0.04884
3978.85800	0.04892
3976.92932	0.04899
3975.00064	0.04906
3973.07197	0.04916
3971.14329	0.04927
3969.21462	0.04937
3967.28594	0.04945
3965.35727	0.04954
3963.42859	0.04962
3961.49991	0.04971
3959.57124	0.04982
3957.64256	0.04994
3955.71389	0.05003
3953.78521	0.05008
3951.85654	0.05013
3949.92786	0.05020
3947.99918	0.05028
3946.07051	0.05036
3944.14183	0.05046
3942.21316	0.05058
3940.28448	0.05068
3938.35581	0.05076
3936.42713	0.05081
3934.49845	0.05086
3932.56978	0.05093
3930.64110	0.05106
3928.71243	0.05119
3926.78375	0.05127
3924.85508	0.05133
3922.92640	0.05140
3920.99772	0.05148
3919.06905	0.05154
3917.14037	0.05164
3915.21170	0.05179
3913.28302	0.05194
3911.35435	0.05203
3909.42567	0.05211
3907.49699	0.05216
3905.56832	0.05216
3903.63964	0.05216
3901.71097	0.05222
3899.78229	0.05234
3897.85362	0.05252
3895.92494	0.05270
3893.99626	0.05280
3892.06759	0.05284
3890.13891	0.05293
3888.21024	0.05300
3886.28156	0.05303
3884.35289	0.05313
3882.42421	0.05327
3880.49553	0.05338
3878.56686	0.05349
3876.63818	0.05357
3874.70951	0.05361
3872.78083	0.05364
3870.85216	0.05369
3868.92348	0.05382
3866.99480	0.05396
3865.06613	0.05404
3863.13745	0.05416
3861.20878	0.05433
3859.28010	0.05446
3857.35143	0.05442
3855.42275	0.05423
3853.49407	0.05420
3851.56540	0.05450
3849.63672	0.05487
3847.70805	0.05509
3845.77937	0.05514
3843.85070	0.05516
3841.92202	0.05519
3839.99334	0.05522
3838.06467	0.05526
3836.13599	0.05538
3834.20732	0.05552
3832.27864	0.05565
3830.34997	0.05582
3828.42129	0.05597
3826.49261	0.05608
3824.56394	0.05613
3822.63526	0.05611
3820.70659	0.05614
3818.77791	0.05627
3816.84924	0.05639
3814.92056	0.05657
3812.99188	0.05678
3811.06321	0.05690
3809.13453	0.05691
3807.20586	0.05693
3805.27718	0.05701
3803.34851	0.05706
3801.41983	0.05714
3799.49115	0.05732
3797.56248	0.05749
3795.63380	0.05765
3793.70513	0.05781
3791.77645	0.05796
3789.84778	0.05807
3787.91910	0.05815
3785.99042	0.05822
3784.06175	0.05830
3782.13307	0.05837
3780.20440	0.05845
3778.27572	0.05856
3776.34705	0.05870
3774.41837	0.05881
3772.48969	0.05886
3770.56102	0.05889
3768.63234	0.05896
3766.70367	0.05907
3764.77499	0.05922
3762.84632	0.05934
3760.91764	0.05939
3758.98896	0.05942
3757.06029	0.05952
3755.13161	0.05960
3753.20294	0.05957
3751.27426	0.05953
3749.34559	0.05962
3747.41691	0.05969
3745.48823	0.05965
3743.55956	0.05980
3741.63088	0.06018
3739.70221	0.06038
3737.77353	0.06032
3735.84486	0.06029
3733.91618	0.06046
3731.98750	0.06074
3730.05883	0.06101
3728.13015	0.06116
3726.20148	0.06122
3724.27280	0.06128
3722.34413	0.06138
3720.41545	0.06151
3718.48677	0.06165
3716.55810	0.06174
3714.62942	0.06175
3712.70075	0.06172
3710.77207	0.06179
3708.84340	0.06199
3706.91472	0.06220
3704.98604	0.06231
3703.05737	0.06235
3701.12869	0.06246
3699.20002	0.06262
3697.27134	0.06277
3695.34267	0.06286
3693.41399	0.06286
3691.48531	0.06279
3689.55664	0.06281
3687.62796	0.06300
3685.69929	0.06327
3683.77061	0.06345
3681.84194	0.06351
3679.91326	0.06349
3677.98458	0.06340
3676.05591	0.06338
3674.12723	0.06353
3672.19856	0.06371
3670.26988	0.06383
3668.34121	0.06405
3666.41253	0.06431
3664.48385	0.06447
3662.55518	0.06457
3660.62650	0.06463
3658.69783	0.06465
3656.76915	0.06465
3654.84048	0.06469
3652.91180	0.06466
3650.98312	0.06450
3649.05445	0.06441
3647.12577	0.06458
3645.19710	0.06492
3643.26842	0.06522
3641.33975	0.06541
3639.41107	0.06554
3637.48239	0.06561
3635.55372	0.06566
3633.62504	0.06569
3631.69637	0.06564
3629.76769	0.06557
3627.83902	0.06571
3625.91034	0.06600
3623.98166	0.06616
3622.05299	0.06614
3620.12431	0.06609
3618.19564	0.06614
3616.26696	0.06626
3614.33829	0.06636
3612.40961	0.06641
3610.48093	0.06642
3608.55226	0.06647
3606.62358	0.06664
3604.69491	0.06683
3602.76623	0.06694
3600.83756	0.06699
3598.90888	0.06702
3596.98020	0.06706
3595.05153	0.06714
3593.12285	0.06724
3591.19418	0.06727
3589.26550	0.06725
3587.33683	0.06733
3585.40815	0.06754
3583.47947	0.06772
3581.55080	0.06784
3579.62212	0.06793
3577.69345	0.06800
3575.76477	0.06808
3573.83610	0.06815
3571.90742	0.06819
3569.97874	0.06817
3568.05007	0.06814
3566.12139	0.06823
3564.19272	0.06843
3562.26404	0.06860
3560.33537	0.06871
3558.40669	0.06879
3556.47801	0.06887
3554.54934	0.06894
3552.62066	0.06902
3550.69199	0.06909
3548.76331	0.06911
3546.83464	0.06912
3544.90596	0.06920
3542.97728	0.06932
3541.04861	0.06943
3539.11993	0.06949
3537.19126	0.06955
3535.26258	0.06961
3533.33391	0.06965
3531.40523	0.06968
3529.47655	0.06970
3527.54788	0.06973
3525.61920	0.06976
3523.69053	0.06980
3521.76185	0.06982
3519.83318	0.06987
3517.90450	0.06994
3515.97582	0.07001
3514.04715	0.07003
3512.11847	0.07004
3510.18980	0.07007
3508.26112	0.07012
3506.33245	0.07017
3504.40377	0.07020
3502.47509	0.07021
3500.54642	0.07025
3498.61774	0.07028
3496.68907	0.07029
3494.76039	0.07032
3492.83172	0.07037
3490.90304	0.07040
3488.97436	0.07041
3487.04569	0.07044
3485.11701	0.07048
3483.18834	0.07052
3481.25966	0.07053
3479.33099	0.07057
3477.40231	0.07064
3475.47363	0.07072
3473.54496	0.07081
3471.61628	0.07091
3469.68761	0.07100
3467.75893	0.07109
3465.83026	0.07120
3463.90158	0.07132
3461.97290	0.07141
3460.04423	0.07149
3458.11555	0.07159
3456.18688	0.07172
3454.25820	0.07185
3452.32953	0.07196
3450.40085	0.07203
3448.47217	0.07208
3446.54350	0.07215
3444.61482	0.07228
3442.68615	0.07241
3440.75747	0.07254
3438.82880	0.07269
3436.90012	0.07290
3434.97144	0.07313
3433.04277	0.07337
3431.11409	0.07359
3429.18542	0.07383
3427.25674	0.07405
3425.32807	0.07425
3423.39939	0.07445
3421.47071	0.07463
3419.54204	0.07480
3417.61336	0.07497
3415.68469	0.07516
3413.75601	0.07535
3411.82734	0.07552
3409.89866	0.07568
3407.96998	0.07585
3406.04131	0.07603
3404.11263	0.07619
3402.18396	0.07631
3400.25528	0.07640
3398.32661	0.07650
3396.39793	0.07664
3394.46925	0.07681
3392.54058	0.07701
3390.61190	0.07719
3388.68323	0.07735
3386.75455	0.07750
3384.82588	0.07766
3382.89720	0.07783
3380.96852	0.07798
3379.03985	0.07809
3377.11117	0.07819
3375.18250	0.07832
3373.25382	0.07848
3371.32515	0.07861
3369.39647	0.07872
3367.46779	0.07884
3365.53912	0.07899
3363.61044	0.07914
3361.68177	0.07929
3359.75309	0.07942
3357.82442	0.07955
3355.89574	0.07969
3353.96706	0.07982
3352.03839	0.07996
3350.10971	0.08010
3348.18104	0.08024
3346.25236	0.08037
3344.32369	0.08051
3342.39501	0.08063
3340.46633	0.08074
3338.53766	0.08087
3336.60898	0.08101
3334.68031	0.08114
3332.75163	0.08125
3330.82296	0.08137
3328.89428	0.08151
3326.96560	0.08168
3325.03693	0.08183
3323.10825	0.08194
3321.17958	0.08207
3319.25090	0.08224
3317.32223	0.08241
3315.39355	0.08256
3313.46487	0.08268
3311.53620	0.08280
3309.60752	0.08293
3307.67885	0.08307
3305.75017	0.08322
3303.82150	0.08336
3301.89282	0.08351
3299.96414	0.08368
3298.03547	0.08384
3296.10679	0.08396
3294.17812	0.08408
3292.24944	0.08422
3290.32077	0.08437
3288.39209	0.08450
3286.46341	0.08462
3284.53474	0.08475
3282.60606	0.08492
3280.67739	0.08509
3278.74871	0.08524
3276.82004	0.08539
3274.89136	0.08554
3272.96268	0.08568
3271.03401	0.08585
3269.10533	0.08602
3267.17666	0.08613
3265.24798	0.08624
3263.31931	0.08637
3261.39063	0.08652
3259.46195	0.08669
3257.53328	0.08687
3255.60460	0.08705
3253.67593	0.08720
3251.74725	0.08733
3249.81858	0.08747
3247.88990	0.08761
3245.96122	0.08774
3244.03255	0.08788
3242.10387	0.08804
3240.17520	0.08817
3238.24652	0.08827
3236.31785	0.08840
3234.38917	0.08856
3232.46049	0.08872
3230.53182	0.08889
3228.60314	0.08904
3226.67447	0.08917
3224.74579	0.08931
3222.81712	0.08945
3220.88844	0.08957
3218.95976	0.08970
3217.03109	0.08986
3215.10241	0.09001
3213.17374	0.09015
3211.24506	0.09032
3209.31639	0.09047
3207.38771	0.09061
3205.45903	0.09074
3203.53036	0.09092
3201.60168	0.09110
3199.67301	0.09126
3197.74433	0.09142
3195.81566	0.09159
3193.88698	0.09177
3191.95830	0.09193
3190.02963	0.09208
3188.10095	0.09221
3186.17228	0.09231
3184.24360	0.09241
3182.31493	0.09256
3180.38625	0.09274
3178.45757	0.09290
3176.52890	0.09306
3174.60022	0.09321
3172.67155	0.09335
3170.74287	0.09349
3168.81420	0.09366
3166.88552	0.09385
3164.95684	0.09401
3163.02817	0.09415
3161.09949	0.09427
3159.17082	0.09441
3157.24214	0.09458
3155.31347	0.09474
3153.38479	0.09490
3151.45611	0.09507
3149.52744	0.09522
3147.59876	0.09534
3145.67009	0.09546
3143.74141	0.09558
3141.81274	0.09572
3139.88406	0.09589
3137.95538	0.09607
3136.02671	0.09624
3134.09803	0.09639
3132.16936	0.09654
3130.24068	0.09669
3128.31201	0.09682
3126.38333	0.09694
3124.45465	0.09705
3122.52598	0.09719
3120.59730	0.09735
3118.66863	0.09750
3116.73995	0.09766
3114.81128	0.09781
3112.88260	0.09793
3110.95392	0.09806
3109.02525	0.09824
3107.09657	0.09844
3105.16790	0.09858
3103.23922	0.09871
3101.31055	0.09887
3099.38187	0.09905
3097.45319	0.09919
3095.52452	0.09931
3093.59584	0.09945
3091.66717	0.09963
3089.73849	0.09979
3087.80982	0.09992
3085.88114	0.10003
3083.95246	0.10018
3082.02379	0.10035
3080.09511	0.10052
3078.16644	0.10067
3076.23776	0.10082
3074.30909	0.10098
3072.38041	0.10111
3070.45173	0.10122
3068.52306	0.10133
3066.59438	0.10146
3064.66571	0.10160
3062.73703	0.10176
3060.80836	0.10192
3058.87968	0.10208
3056.95100	0.10225
3055.02233	0.10241
3053.09365	0.10254
3051.16498	0.10266
3049.23630	0.10278
3047.30763	0.10291
3045.37895	0.10306
3043.45027	0.10324
3041.52160	0.10340
3039.59292	0.10352
3037.66425	0.10363
3035.73557	0.10377
3033.80690	0.10393
3031.87822	0.10408
3029.94954	0.10422
3028.02087	0.10434
3026.09219	0.10449
3024.16352	0.10466
3022.23484	0.10482
3020.30617	0.10493
3018.37749	0.10502
3016.44881	0.10515
3014.52014	0.10532
3012.59146	0.10548
3010.66279	0.10560
3008.73411	0.10571
3006.80544	0.10580
3004.87676	0.10590
3002.94808	0.10602
3001.01941	0.10612
2999.09073	0.10621
2997.16206	0.10632
2995.23338	0.10641
2993.30471	0.10647
2991.37603	0.10653
2989.44735	0.10657
2987.51868	0.10659
2985.59000	0.10661
2983.66133	0.10658
2981.73265	0.10646
2979.80398	0.10628
2977.87530	0.10609
2975.94662	0.10583
2974.01795	0.10546
2972.08927	0.10502
2970.16060	0.10459
2968.23192	0.10418
2966.30325	0.10381
2964.37457	0.10353
2962.44589	0.10338
2960.51722	0.10339
2958.58854	0.10364
2956.65987	0.10412
2954.73119	0.10479
2952.80252	0.10558
2950.87384	0.10637
2948.94516	0.10707
2947.01649	0.10765
2945.08781	0.10810
2943.15914	0.10841
2941.23046	0.10863
2939.30179	0.10879
2937.37311	0.10888
2935.44443	0.10887
2933.51576	0.10883
2931.58708	0.10882
2929.65841	0.10884
2927.72973	0.10884
2925.80106	0.10882
2923.87238	0.10878
2921.94370	0.10876
2920.01503	0.10880
2918.08635	0.10893
2916.15768	0.10919
2914.22900	0.10960
2912.30033	0.11008
2910.37165	0.11052
2908.44297	0.11086
2906.51430	0.11108
2904.58562	0.11126
2902.65695	0.11146
2900.72827	0.11169
2898.79960	0.11196
2896.87092	0.11225
2894.94224	0.11255
2893.01357	0.11287
2891.08489	0.11321
2889.15622	0.11353
2887.22754	0.11378
2885.29887	0.11400
2883.37019	0.11423
2881.44151	0.11442
2879.51284	0.11457
2877.58416	0.11468
2875.65549	0.11481
2873.72681	0.11499
2871.79814	0.11522
2869.86946	0.11541
2867.94078	0.11557
2866.01211	0.11573
2864.08343	0.11584
2862.15476	0.11591
2860.22608	0.11595
2858.29741	0.11597
2856.36873	0.11595
2854.44005	0.11590
2852.51138	0.11586
2850.58270	0.11597
2848.65403	0.11630
2846.72535	0.11681
2844.79668	0.11736
2842.86800	0.11784
2840.93932	0.11823
2839.01065	0.11854
2837.08197	0.11880
2835.15330	0.11905
2833.22462	0.11927
2831.29595	0.11945
2829.36727	0.11963
2827.43859	0.11987
2825.50992	0.12010
2823.58124	0.12027
2821.65257	0.12042
2819.72389	0.12058
2817.79522	0.12072
2815.86654	0.12087
2813.93786	0.12105
2812.00919	0.12123
2810.08051	0.12141
2808.15184	0.12158
2806.22316	0.12173
2804.29449	0.12188
2802.36581	0.12206
2800.43713	0.12223
2798.50846	0.12238
2796.57978	0.12252
2794.65111	0.12270
2792.72243	0.12290
2790.79376	0.12314
2788.86508	0.12336
2786.93640	0.12349
2785.00773	0.12359
2783.07905	0.12372
2781.15038	0.12390
2779.22170	0.12407
2777.29303	0.12423
2775.36435	0.12438
2773.43567	0.12455
2771.50700	0.12474
2769.57832	0.12492
2767.64965	0.12507
2765.72097	0.12520
2763.79230	0.12536
2761.86362	0.12554
2759.93494	0.12572
2758.00627	0.12590
2756.07759	0.12605
2754.14892	0.12615
2752.22024	0.12627
2750.29157	0.12642
2748.36289	0.12657
2746.43421	0.12674
2744.50554	0.12692
2742.57686	0.12705
2740.64819	0.12714
2738.71951	0.12724
2736.79084	0.12739
2734.86216	0.12758
2732.93348	0.12776
2731.00481	0.12792
2729.07613	0.12805
2727.14746	0.12819
2725.21878	0.12835
2723.29011	0.12853
2721.36143	0.12869
2719.43275	0.12881
2717.50408	0.12893
2715.57540	0.12909
2713.64673	0.12927
2711.71805	0.12944
2709.78938	0.12959
2707.86070	0.12974
2705.93202	0.12989
2704.00335	0.13002
2702.07467	0.13016
2700.14600	0.13032
2698.21732	0.13045
2696.28865	0.13056
2694.35997	0.13070
2692.43129	0.13087
2690.50262	0.13102
2688.57394	0.13117
2686.64527	0.13132
2684.71659	0.13147
2682.78792	0.13165
2680.85924	0.13183
2678.93056	0.13198
2677.00189	0.13209
2675.07321	0.13219
2673.14454	0.13231
2671.21586	0.13244
2669.28719	0.13259
2667.35851	0.13276
2665.42983	0.13293
2663.50116	0.13308
2661.57248	0.13322
2659.64381	0.13336
2657.71513	0.13350
2655.78646	0.13367
2653.85778	0.13383
2651.92910	0.13400
2650.00043	0.13418
2648.07175	0.13437
2646.14308	0.13455
2644.21440	0.13471
2642.28573	0.13484
2640.35705	0.13496
2638.42837	0.13509
2636.49970	0.13525
2634.57102	0.13546
2632.64235	0.13566
2630.71367	0.13582
2628.78500	0.13596
2626.85632	0.13611
2624.92764	0.13627
2622.99897	0.13643
2621.07029	0.13655
2619.14162	0.13666
2617.21294	0.13683
2615.28427	0.13706
2613.35559	0.13728
2611.42691	0.13745
2609.49824	0.13759
2607.56956	0.13773
2605.64089	0.13786
2603.71221	0.13801
2601.78354	0.13821
2599.85486	0.13840
2597.92618	0.13855
2595.99751	0.13866
2594.06883	0.13882
2592.14016	0.13900
2590.21148	0.13915
2588.28281	0.13929
2586.35413	0.13948
2584.42545	0.13967
2582.49678	0.13981
2580.56810	0.13996
2578.63943	0.14011
2576.71075	0.14025
2574.78208	0.14038
2572.85340	0.14055
2570.92472	0.14073
2568.99605	0.14088
2567.06737	0.14099
2565.13870	0.14112
2563.21002	0.14129
2561.28135	0.14145
2559.35267	0.14160
2557.42399	0.14174
2555.49532	0.14188
2553.56664	0.14201
2551.63797	0.14213
2549.70929	0.14226
2547.78062	0.14242
2545.85194	0.14260
2543.92326	0.14275
2541.99459	0.14293
2540.06591	0.14310
2538.13724	0.14324
2536.20856	0.14336
2534.27989	0.14351
2532.35121	0.14369
2530.42253	0.14387
2528.49386	0.14403
2526.56518	0.14421
2524.63651	0.14437
2522.70783	0.14453
2520.77916	0.14468
2518.85048	0.14483
2516.92181	0.14500
2514.99313	0.14517
2513.06445	0.14532
2511.13578	0.14548
2509.20710	0.14565
2507.27843	0.14583
2505.34975	0.14601
2503.42108	0.14619
2501.49240	0.14636
2499.56372	0.14650
2497.63505	0.14665
2495.70637	0.14682
2493.77770	0.14700
2491.84902	0.14717
2489.92035	0.14732
2487.99167	0.14747
2486.06299	0.14763
2484.13432	0.14780
2482.20564	0.14799
2480.27697	0.14823
2478.34829	0.14843
2476.41962	0.14857
2474.49094	0.14869
2472.56226	0.14884
2470.63359	0.14899
2468.70491	0.14915
2466.77624	0.14934
2464.84756	0.14956
2462.91889	0.14976
2460.99021	0.14990
2459.06153	0.15000
2457.13286	0.15014
2455.20418	0.15032
2453.27551	0.15052
2451.34683	0.15070
2449.41816	0.15086
2447.48948	0.15101
2445.56080	0.15116
2443.63213	0.15131
2441.70345	0.15146
2439.77478	0.15160
2437.84610	0.15177
2435.91743	0.15196
2433.98875	0.15214
2432.06007	0.15230
2430.13140	0.15245
2428.20272	0.15260
2426.27405	0.15275
2424.34537	0.15291
2422.41670	0.15307
2420.48802	0.15322
2418.55934	0.15339
2416.63067	0.15356
2414.70199	0.15374
2412.77332	0.15392
2410.84464	0.15411
2408.91597	0.15430
2406.98729	0.15445
2405.05861	0.15456
2403.12994	0.15470
2401.20126	0.15487
2399.27259	0.15505
2397.34391	0.15521
2395.41524	0.15534
2393.48656	0.15548
2391.55788	0.15562
2389.62921	0.15576
2387.70053	0.15594
2385.77186	0.15612
2383.84318	0.15625
2381.91451	0.15633
2379.98583	0.15642
2378.05715	0.15653
2376.12848	0.15660
2374.19980	0.15658
2372.27113	0.15654
2370.34245	0.15653
2368.41378	0.15656
2366.48510	0.15663
2364.55642	0.15674
2362.62775	0.15690
2360.69907	0.15707
2358.77040	0.15723
2356.84172	0.15744
2354.91305	0.15775
2352.98437	0.15812
2351.05569	0.15848
2349.12702	0.15870
2347.19834	0.15877
2345.26967	0.15874
2343.34099	0.15874
2341.41232	0.15879
2339.48364	0.15892
2337.55496	0.15910
2335.62629	0.15934
2333.69761	0.15955
2331.76894	0.15970
2329.84026	0.15982
2327.91159	0.15997
2325.98291	0.16019
2324.05423	0.16046
2322.12556	0.16071
2320.19688	0.16092
2318.26821	0.16114
2316.33953	0.16138
2314.41086	0.16161
2312.48218	0.16184
2310.55350	0.16205
2308.62483	0.16226
2306.69615	0.16248
2304.76748	0.16267
2302.83880	0.16282
2300.91013	0.16297
2298.98145	0.16315
2297.05277	0.16332
2295.12410	0.16349
2293.19542	0.16370
2291.26675	0.16389
2289.33807	0.16403
2287.40940	0.16417
2285.48072	0.16432
2283.55204	0.16448
2281.62337	0.16462
2279.69469	0.16478
2277.76602	0.16496
2275.83734	0.16514
2273.90867	0.16528
2271.97999	0.16542
2270.05131	0.16559
2268.12264	0.16576
2266.19396	0.16591
2264.26529	0.16602
2262.33661	0.16612
2260.40794	0.16625
2258.47926	0.16640
2256.55058	0.16658
2254.62191	0.16677
2252.69323	0.16695
2250.76456	0.16713
2248.83588	0.16730
2246.90721	0.16747
2244.97853	0.16762
2243.04985	0.16773
2241.12118	0.16784
2239.19250	0.16798
2237.26383	0.16816
2235.33515	0.16834
2233.40648	0.16849
2231.47780	0.16862
2229.54912	0.16878
2227.62045	0.16892
2225.69177	0.16903
2223.76310	0.16915
2221.83442	0.16929
2219.90575	0.16944
2217.97707	0.16959
2216.04839	0.16977
2214.11972	0.16996
2212.19104	0.17013
2210.26237	0.17028
2208.33369	0.17042
2206.40502	0.17055
2204.47634	0.17070
2202.54766	0.17087
2200.61899	0.17103
2198.69031	0.17114
2196.76164	0.17125
2194.83296	0.17140
2192.90429	0.17157
2190.97561	0.17170
2189.04693	0.17181
2187.11826	0.17194
2185.18958	0.17206
2183.26091	0.17218
2181.33223	0.17231
2179.40356	0.17245
2177.47488	0.17257
2175.54620	0.17272
2173.61753	0.17288
2171.68885	0.17303
2169.76018	0.17314
2167.83150	0.17323
2165.90283	0.17334
2163.97415	0.17347
2162.04547	0.17359
2160.11680	0.17369
2158.18812	0.17381
2156.25945	0.17396
2154.33077	0.17412
2152.40210	0.17428
2150.47342	0.17444
2148.54474	0.17459
2146.61607	0.17469
2144.68739	0.17482
2142.75872	0.17501
2140.83004	0.17519
2138.90137	0.17533
2136.97269	0.17548
2135.04401	0.17565
2133.11534	0.17578
2131.18666	0.17589
2129.25799	0.17606
2127.32931	0.17628
2125.40064	0.17649
2123.47196	0.17669
2121.54328	0.17687
2119.61461	0.17705
2117.68593	0.17723
2115.75726	0.17742
2113.82858	0.17760
2111.89991	0.17778
2109.97123	0.17796
2108.04255	0.17817
2106.11388	0.17839
2104.18520	0.17857
2102.25653	0.17873
2100.32785	0.17891
2098.39918	0.17913
2096.47050	0.17934
2094.54182	0.17951
2092.61315	0.17966
2090.68447	0.17981
2088.75580	0.17999
2086.82712	0.18018
2084.89845	0.18038
2082.96977	0.18060
2081.04109	0.18085
2079.11242	0.18105
2077.18374	0.18121
2075.25507	0.18134
2073.32639	0.18150
2071.39772	0.18169
2069.46904	0.18189
2067.54036	0.18208
2065.61169	0.18228
2063.68301	0.18249
2061.75434	0.18269
2059.82566	0.18287
2057.89699	0.18301
2055.96831	0.18317
2054.03963	0.18338
2052.11096	0.18354
2050.18228	0.18365
2048.25361	0.18380
2046.32493	0.18398
2044.39626	0.18414
2042.46758	0.18430
2040.53890	0.18448
2038.61023	0.18464
2036.68155	0.18478
2034.75288	0.18496
2032.82420	0.18517
2030.89553	0.18540
2028.96685	0.18561
2027.03817	0.18575
2025.10950	0.18585
2023.18082	0.18597
2021.25215	0.18613
2019.32347	0.18627
2017.39480	0.18639
2015.46612	0.18655
2013.53744	0.18676
2011.60877	0.18695
2009.68009	0.18714
2007.75142	0.18732
2005.82274	0.18746
2003.89407	0.18757
2001.96539	0.18770
2000.03671	0.18786
1998.10804	0.18804
1996.17936	0.18817
1994.25069	0.18824
1992.32201	0.18833
1990.39334	0.18853
1988.46466	0.18877
1986.53598	0.18895
1984.60731	0.18905
1982.67863	0.18916
1980.74996	0.18929
1978.82128	0.18943
1976.89261	0.18959
1974.96393	0.18976
1973.03525	0.18990
1971.10658	0.19000
1969.17790	0.19010
1967.24923	0.19023
1965.32055	0.19039
1963.39188	0.19052
1961.46320	0.19061
1959.53452	0.19073
1957.60585	0.19090
1955.67717	0.19108
1953.74850	0.19128
1951.81982	0.19147
1949.89115	0.19160
1947.96247	0.19169
1946.03379	0.19173
1944.10512	0.19177
1942.17644	0.19188
1940.24777	0.19212
1938.31909	0.19237
1936.39042	0.19259
1934.46174	0.19278
1932.53306	0.19292
1930.60439	0.19302
1928.67571	0.19315
1926.74704	0.19333
1924.81836	0.19347
1922.88969	0.19361
1920.96101	0.19372
1919.03233	0.19381
1917.10366	0.19399
1915.17498	0.19431
1913.24631	0.19459
1911.31763	0.19472
1909.38896	0.19480
1907.46028	0.19495
1905.53160	0.19514
1903.60293	0.19531
1901.67425	0.19545
1899.74558	0.19560
1897.81690	0.19575
1895.88823	0.19590
1893.95955	0.19602
1892.03087	0.19612
1890.10220	0.19621
1888.17352	0.19638
1886.24485	0.19657
1884.31617	0.19673
1882.38750	0.19687
1880.45882	0.19704
1878.53014	0.19726
1876.60147	0.19748
1874.67279	0.19761
1872.74412	0.19763
1870.81544	0.19751
1868.88677	0.19747
1866.95809	0.19771
1865.02941	0.19812
1863.10074	0.19841
1861.17206	0.19859
1859.24339	0.19874
1857.31471	0.19892
1855.38604	0.19910
1853.45736	0.19927
1851.52868	0.19946
1849.60001	0.19962
1847.67133	0.19962
1845.74266	0.19948
1843.81398	0.19954
1841.88531	0.19993
1839.95663	0.20033
1838.02795	0.20058
1836.09928	0.20074
1834.17060	0.20085
1832.24193	0.20085
1830.31325	0.20081
1828.38458	0.20091
1826.45590	0.20110
1824.52722	0.20133
1822.59855	0.20162
1820.66987	0.20185
1818.74120	0.20199
1816.81252	0.20211
1814.88385	0.20224
1812.95517	0.20233
1811.02649	0.20239
1809.09782	0.20252
1807.16914	0.20271
1805.24047	0.20284
1803.31179	0.20284
1801.38312	0.20284
1799.45444	0.20298
1797.52576	0.20318
1795.59709	0.20320
1793.66841	0.20311
1791.73974	0.20320
1789.81106	0.20358
1787.88239	0.20390
1785.95371	0.20400
1784.02503	0.20402
1782.09636	0.20408
1780.16768	0.20419
1778.23901	0.20435
1776.31033	0.20441
1774.38166	0.20426
1772.45298	0.20414
1770.52430	0.20427
1768.59563	0.20454
1766.66695	0.20485
1764.73828	0.20503
1762.80960	0.20500
1760.88093	0.20506
1758.95225	0.20522
1757.02357	0.20530
1755.09490	0.20530
1753.16622	0.20507
1751.23755	0.20475
1749.30887	0.20469
1747.38020	0.20488
1745.45152	0.20502
1743.52284	0.20501
1741.59417	0.20491
1739.66549	0.20488
1737.73682	0.20486
1735.80814	0.20458
1733.87947	0.20444
1731.95079	0.20482
1730.02211	0.20537
1728.09344	0.20577
1726.16476	0.20601
1724.23609	0.20610
1722.30741	0.20604
1720.37874	0.20576
1718.45006	0.20548
1716.52138	0.20556
1714.59271	0.20598
1712.66403	0.20645
1710.73536	0.20680
1708.80668	0.20689
1706.87801	0.20679
1704.94933	0.20673
1703.02065	0.20651
1701.09198	0.20608
1699.16330	0.20601
1697.23463	0.20626
1695.30595	0.20657
1693.37728	0.20703
1691.44860	0.20732
1689.51992	0.20734
1687.59125	0.20716
1685.66257	0.20674
1683.73390	0.20658
1681.80522	0.20696
1679.87655	0.20740
1677.94787	0.20740
1676.01919	0.20712
1674.09052	0.20704
1672.16184	0.20706
1670.23317	0.20705
1668.30449	0.20728
1666.37582	0.20764
1664.44714	0.20773
1662.51846	0.20772
1660.58979	0.20786
1658.66111	0.20794
1656.73244	0.20760
1654.80376	0.20687
1652.87509	0.20661
1650.94641	0.20708
1649.01773	0.20739
1647.08906	0.20739
1645.16038	0.20772
1643.23171	0.20822
1641.30303	0.20843
1639.37436	0.20823
1637.44568	0.20779
1635.51700	0.20765
1633.58833	0.20806
1631.65965	0.20846
1629.73098	0.20845
1627.80230	0.20827
1625.87363	0.20802
1623.94495	0.20766
1622.01627	0.20738
1620.08760	0.20731
1618.15892	0.20744
1616.23025	0.20800
1614.30157	0.20885
1612.37290	0.20947
1610.44422	0.20978
1608.51554	0.21001
1606.58687	0.21026
1604.65819	0.21050
1602.72952	0.21069
1600.80084	0.21087
1598.87217	0.21107
1596.94349	0.21127
1595.01481	0.21148
1593.08614	0.21171
1591.15746	0.21189
1589.22879	0.21201
1587.30011	0.21212
1585.37144	0.21228
1583.44276	0.21245
1581.51408	0.21258
1579.58541	0.21254
1577.65673	0.21231
1575.72806	0.21231
1573.79938	0.21262
1571.87071	0.21271
1569.94203	0.21264
1568.01335	0.21286
1566.08468	0.21324
1564.15600	0.21340
1562.22733	0.21307
1560.29865	0.21242
1558.36998	0.21231
1556.44130	0.21300
1554.51262	0.21370
1552.58395	0.21399
1550.65527	0.21412
1548.72660	0.21425
1546.79792	0.21422
1544.86925	0.21395
1542.94057	0.21357
1541.01189	0.21339
1539.08322	0.21375
1537.15454	0.21439
1535.22587	0.21465
1533.29719	0.21469
1531.36852	0.21493
1529.43984	0.21510
1527.51116	0.21502
1525.58249	0.21486
1523.65381	0.21455
1521.72514	0.21425
1519.79646	0.21436
1517.86779	0.21471
1515.93911	0.21503
1514.01043	0.21530
1512.08176	0.21537
1510.15308	0.21507
1508.22441	0.21464
1506.29573	0.21470
1504.36706	0.21535
1502.43838	0.21585
1500.50970	0.21581
1498.58103	0.21558
1496.65235	0.21557
1494.72368	0.21577
1492.79500	0.21571
1490.86633	0.21529
1488.93765	0.21506
1487.00897	0.21521
1485.08030	0.21540
1483.15162	0.21538
1481.22295	0.21518
1479.29427	0.21482
1477.36560	0.21432
1475.43692	0.21374
1473.50824	0.21319
1471.57957	0.21293
1469.65089	0.21292
1467.72222	0.21272
1465.79354	0.21231
1463.86487	0.21209
1461.93619	0.21191
1460.00751	0.21128
1458.07884	0.21046
1456.15016	0.21028
1454.22149	0.21078
1452.29281	0.21121
1450.36414	0.21125
1448.43546	0.21119
1446.50678	0.21131
1444.57811	0.21152
1442.64943	0.21166
1440.72076	0.21164
1438.79208	0.21138
1436.86341	0.21121
1434.93473	0.21150
1433.00605	0.21191
1431.07738	0.21207
1429.14870	0.21218
1427.22003	0.21232
1425.29135	0.21231
1423.36268	0.21213
1421.43400	0.21170
1419.50532	0.21119
1417.57665	0.21115
1415.64797	0.21147
1413.71930	0.21167
1411.79062	0.21170
1409.86195	0.21170
1407.93327	0.21163
1406.00459	0.21152
1404.07592	0.21152
1402.14724	0.21156
1400.21857	0.21152
1398.28989	0.21146
1396.36122	0.21148
1394.43254	0.21161
1392.50386	0.21185
1390.57519	0.21191
1388.64651	0.21163
1386.71784	0.21128
1384.78916	0.21116
1382.86049	0.21124
1380.93181	0.21135
1379.00313	0.21136
1377.07446	0.21121
1375.14578	0.21104
1373.21711	0.21105
1371.28843	0.21117
1369.35976	0.21126
1367.43108	0.21125
1365.50240	0.21108
1363.57373	0.21079
1361.64505	0.21068
1359.71638	0.21079
1357.78770	0.21088
1355.85903	0.21089
1353.93035	0.21093
1352.00167	0.21104
1350.07300	0.21121
1348.14432	0.21140
1346.21565	0.21159
1344.28697	0.21165
1342.35830	0.21151
1340.42962	0.21130
1338.50094	0.21117
1336.57227	0.21116
1334.64359	0.21119
1332.71492	0.21112
1330.78624	0.21092
1328.85757	0.21071
1326.92889	0.21057
1325.00021	0.21043
1323.07154	0.21024
1321.14286	0.20998
1319.21419	0.20969
1317.28551	0.20948
1315.35684	0.20935
1313.42816	0.20916
1311.49948	0.20889
1309.57081	0.20861
1307.64213	0.20833
1305.71346	0.20802
1303.78478	0.20773
1301.85611	0.20748
1299.92743	0.20723
1297.99875	0.20696
1296.07008	0.20670
1294.14140	0.20643
1292.21273	0.20614
1290.28405	0.20581
1288.35538	0.20547
1286.42670	0.20513
1284.49802	0.20474
1282.56935	0.20430
1280.64067	0.20383
1278.71200	0.20324
1276.78332	0.20242
1274.85465	0.20127
1272.92597	0.19974
1270.99729	0.19787
1269.06862	0.19562
1267.13994	0.19288
1265.21127	0.18978
1263.28259	0.18685
1261.35392	0.18479
1259.42524	0.18391
1257.49656	0.18400
1255.56789	0.18466
1253.63921	0.18562
1251.71054	0.18689
1249.78186	0.18860
1247.85319	0.19061
1245.92451	0.19246
1243.99583	0.19387
1242.06716	0.19482
1240.13848	0.19536
1238.20981	0.19559
1236.28113	0.19561
1234.35246	0.19541
1232.42378	0.19498
1230.49510	0.19442
1228.56643	0.19387
1226.63775	0.19339
1224.70908	0.19292
1222.78040	0.19241
1220.85173	0.19185
1218.92305	0.19126
1216.99437	0.19065
1215.06570	0.19004
1213.13702	0.18943
1211.20835	0.18882
1209.27967	0.18821
1207.35100	0.18757
1205.42232	0.18690
1203.49364	0.18623
1201.56497	0.18558
1199.63629	0.18492
1197.70762	0.18427
1195.77894	0.18360
1193.85027	0.18289
1191.92159	0.18214
1189.99291	0.18143
1188.06424	0.18070
1186.13556	0.17980
1184.20689	0.17877
1182.27821	0.17780
1180.34954	0.17691
1178.42086	0.17599
1176.49218	0.17502
1174.56351	0.17404
1172.63483	0.17309
1170.70616	0.17212
1168.77748	0.17108
1166.84881	0.16999
1164.92013	0.16893
1162.99145	0.16794
1161.06278	0.16700
1159.13410	0.16603
1157.20543	0.16503
1155.27675	0.16404
1153.34808	0.16307
1151.41940	0.16212
1149.49072	0.16113
1147.56205	0.16006
1145.63337	0.15898
1143.70470	0.15785
1141.77602	0.15664
1139.84735	0.15539
1137.91867	0.15410
1135.98999	0.15267
1134.06132	0.15105
1132.13264	0.14919
1130.20397	0.14705
1128.27529	0.14467
1126.34662	0.14213
1124.41794	0.13955
1122.48926	0.13701
1120.56059	0.13449
1118.63191	0.13202
1116.70324	0.12971
1114.77456	0.12769
1112.84589	0.12593
1110.91721	0.12437
1108.98853	0.12300
1107.05986	0.12194
1105.13118	0.12121
1103.20251	0.12073
1101.27383	0.12045
1099.34516	0.12034
1097.41648	0.12045
1095.48780	0.12073
1093.55913	0.12109
1091.63045	0.12141
1089.70178	0.12166
1087.77310	0.12180
1085.84443	0.12186
1083.91575	0.12189
1081.98707	0.12180
1080.05840	0.12154
1078.12972	0.12124
1076.20105	0.12105
1074.27237	0.12090
1072.34370	0.12068
1070.41502	0.12041
1068.48634	0.12012
1066.55767	0.11981
1064.62899	0.11952
1062.70032	0.11933
1060.77164	0.11921
1058.84297	0.11907
1056.91429	0.11897
1054.98561	0.11892
1053.05694	0.11887
1051.12826	0.11887
1049.19959	0.11894
1047.27091	0.11901
1045.34224	0.11908
1043.41356	0.11915
1041.48488	0.11924
1039.55621	0.11939
1037.62753	0.11968
1035.69886	0.12005
1033.77018	0.12040
1031.84151	0.12074
1029.91283	0.12114
1027.98415	0.12166
1026.05548	0.12233
1024.12680	0.12315
1022.19813	0.12404
1020.26945	0.12497
1018.34078	0.12604
1016.41210	0.12726
1014.48342	0.12858
1012.55475	0.12996
1010.62607	0.13136
1008.69740	0.13278
1006.76872	0.13422
1004.84005	0.13564
1002.91137	0.13705
1000.98269	0.13837
999.05402	0.13953
997.12534	0.14049
995.19667	0.14133
993.26799	0.14210
991.33932	0.14288
989.41064	0.14368
987.48196	0.14438
985.55329	0.14496
983.62461	0.14548
981.69594	0.14594
979.76726	0.14632
977.83859	0.14661
975.90991	0.14679
973.98123	0.14691
972.05256	0.14704
970.12388	0.14722
968.19521	0.14737
966.26653	0.14738
964.33786	0.14729
962.40918	0.14722
960.48050	0.14723
958.55183	0.14725
956.62315	0.14723
954.69448	0.14713
952.76580	0.14701
950.83713	0.14691
948.90845	0.14680
946.97977	0.14660
945.05110	0.14633
943.12242	0.14604
941.19375	0.14574
939.26507	0.14538
937.33640	0.14490
935.40772	0.14433
933.47904	0.14375
931.55037	0.14317
929.62169	0.14261
927.69302	0.14209
925.76434	0.14154
923.83567	0.14086
921.90699	0.14007
919.97831	0.13926
918.04964	0.13840
916.12096	0.13742
914.19229	0.13635
912.26361	0.13532
910.33494	0.13437
908.40626	0.13350
906.47758	0.13277
904.54891	0.13216
902.62023	0.13159
900.69156	0.13099
898.76288	0.13040
896.83421	0.12985
894.90553	0.12936
892.97685	0.12885
891.04818	0.12828
889.11950	0.12773
887.19083	0.12726
885.26215	0.12679
883.33348	0.12628
881.40480	0.12577
879.47612	0.12528
877.54745	0.12484
875.61877	0.12443
873.69010	0.12401
871.76142	0.12357
869.83275	0.12309
867.90407	0.12261
865.97539	0.12215
864.04672	0.12174
862.11804	0.12136
860.18937	0.12096
858.26069	0.12051
856.33202	0.11990
854.40334	0.11908
852.47466	0.11814
850.54599	0.11709
848.61731	0.11592
846.68864	0.11472
844.75996	0.11359
842.83129	0.11263
840.90261	0.11200
838.97394	0.11174
837.04526	0.11171
835.11658	0.11174
833.18791	0.11168
831.25923	0.11153
829.33056	0.11130
827.40188	0.11084
825.47321	0.11015
823.54453	0.10941
821.61585	0.10870
819.68718	0.10799
817.75850	0.10729
815.82983	0.10661
813.90115	0.10596
811.97248	0.10526
810.04380	0.10450
808.11512	0.10373
806.18645	0.10307
804.25777	0.10254
802.32910	0.10207
800.40042	0.10151
798.47175	0.10081
796.54307	0.10018
794.61439	0.09983
792.68572	0.09979
790.75704	0.10000
788.82837	0.10036
786.89969	0.10072
784.97102	0.10096
783.04234	0.10112
781.11366	0.10125
779.18499	0.10129
777.25631	0.10116
775.32764	0.10098
773.39896	0.10089
771.47029	0.10081
769.54161	0.10065
767.61293	0.10046
765.68426	0.10022
763.75558	0.09993
761.82691	0.09958
759.89823	0.09916
757.96956	0.09871
756.04088	0.09829
754.11220	0.09798
752.18353	0.09783
750.25485	0.09771
748.32618	0.09747
746.39750	0.09709
744.46883	0.09658
742.54015	0.09593
740.61147	0.09532
738.68280	0.09497
736.75412	0.09482
734.82545	0.09481
732.89677	0.09496
730.96810	0.09518
729.03942	0.09533
727.11074	0.09546
725.18207	0.09568
723.25339	0.09590
721.32472	0.09600
719.39604	0.09609
717.46737	0.09632
715.53869	0.09670
713.61001	0.09723
711.68134	0.09773
709.75266	0.09799
707.82399	0.09800
705.89531	0.09787
703.96664	0.09763
702.03796	0.09735
700.10928	0.09705
698.18061	0.09651
696.25193	0.09574
694.32326	0.09507
692.39458	0.09455
690.46591	0.09396
688.53723	0.09328
686.60855	0.09275
684.67988	0.09240
682.75120	0.09200
680.82253	0.09149
678.89385	0.09098
676.96518	0.09050
675.03650	0.08995
673.10782	0.08926
671.17915	0.08846
669.25047	0.08759
667.32180	0.08683
665.39312	0.08619
663.46445	0.08544
661.53577	0.08457
659.60709	0.08368
657.67842	0.08278
655.74974	0.08194
653.82107	0.08115
651.89239	0.08036
649.96372	0.07960
648.03504	0.07885
646.10636	0.07797
644.17769	0.07699
642.24901	0.07601
640.32034	0.07500
638.39166	0.07389
636.46299	0.07279
634.53431	0.07167
632.60563	0.07018
630.67696	0.06778
628.74828	0.06414
626.81961	0.05954
624.89093	0.05491
622.96226	0.05128
621.03358	0.04914
619.10490	0.04810
617.17623	0.04740
615.24755	0.04657
613.31888	0.04549
611.39020	0.04439
609.46153	0.04383
607.53285	0.04397
605.60417	0.04440
603.67550	0.04488
601.74682	0.04558
599.81815	0.04657
597.88947	0.04755
595.96080	0.04820
594.03212	0.04854
592.10344	0.04872
590.17477	0.04884
588.24609	0.04888
586.31742	0.04877
584.38874	0.04847
582.46007	0.04808
580.53139	0.04766
578.60271	0.04723
576.67404	0.04679
574.74536	0.04623
572.81669	0.04552
570.88801	0.04472
568.95934	0.04395
567.03066	0.04336
565.10198	0.04299
563.17331	0.04275
561.24463	0.04254
559.31596	0.04231
557.38728	0.04209
555.45861	0.04189
553.52993	0.04170
551.60125	0.04150
549.67258	0.04128
547.74390	0.04103
545.81523	0.04081
543.88655	0.04070
541.95788	0.04066
540.02920	0.04058
538.10052	0.04043
536.17185	0.04025
534.24317	0.04004
532.31450	0.03982
530.38582	0.03959
528.45715	0.03931
526.52847	0.03897
524.59979	0.03855
522.67112	0.03810
520.74244	0.03768
518.81377	0.03725
516.88509	0.03666
514.95642	0.03600
513.02774	0.03554
511.09906	0.03533
509.17039	0.03524
507.24171	0.03514
505.31304	0.03489
503.38436	0.03446
501.45569	0.03392
499.52701	0.03337
497.59833	0.03283
495.66966	0.03220
493.74098	0.03152
491.81231	0.03098
489.88363	0.03053
487.95496	0.02996
486.02628	0.02937
484.09760	0.02888
482.16893	0.02840
480.24025	0.02778
478.31158	0.02711
476.38290	0.02652
474.45423	0.02597
472.52555	0.02538
470.59687	0.02480
468.66820	0.02435
466.73952	0.02406
464.81085	0.02379
462.88217	0.02344
460.95350	0.02318
459.02482	0.02319
457.09614	0.02335
455.16747	0.02337
453.23879	0.02324
451.31012	0.02312
449.38144	0.02308
447.45277	0.02308
445.52409	0.02306
443.59541	0.02290
441.66674	0.02254
439.73806	0.02205
437.80939	0.02150
435.88071	0.02093
433.95204	0.02046
432.02336	0.02002
430.09468	0.01953
428.16601	0.01897
426.23733	0.01835
424.30866	0.01766
422.37998	0.01691
420.45131	0.01614
418.52263	0.01549
416.59395	0.01494
414.66528	0.01438
412.73660	0.01377
410.80793	0.01304
408.87925	0.01226
406.95058	0.01166
405.02190	0.01122
403.09322	0.01073
401.16455	0.01013
399.23587	0.00946
397.30720	0.00871
395.37852	0.00804
393.44985	0.00753
391.52117	0.00715
389.59249	0.00684
387.66382	0.00646
385.73514	0.00597
383.80647	0.00541
381.87779	0.00489
379.94912	0.00452
378.02044	0.00429
376.09176	0.00398
374.16309	0.00353
372.23441	0.00313
370.30574	0.00288
368.37706	0.00266
