7496.76250	0.00146
7494.83382	0.00146
7492.90514	0.00146
7490.97647	0.00147
7489.04779	0.00148
7487.11912	0.00148
7485.19044	0.00147
7483.26177	0.00145
7481.33309	0.00145
7479.40441	0.00147
7477.47574	0.00148
7475.54706	0.00149
7473.61839	0.00149
7471.68971	0.00149
7469.76104	0.00148
7467.83236	0.00148
7465.90368	0.00149
7463.97501	0.00151
7462.04633	0.00152
7460.11766	0.00153
7458.18898	0.00154
7456.26031	0.00154
7454.33163	0.00153
7452.40295	0.00152
7450.47428	0.00152
7448.54560	0.00152
7446.61693	0.00153
7444.68825	0.00154
7442.75958	0.00155
7440.83090	0.00155
7438.90222	0.00155
7436.97355	0.00157
7435.04487	0.00158
7433.11620	0.00159
7431.18752	0.00158
7429.25885	0.00156
7427.33017	0.00157
7425.40149	0.00158
7423.47282	0.00158
7421.54414	0.00157
7419.61547	0.00158
7417.68679	0.00160
7415.75812	0.00161
7413.82944	0.00161
7411.90076	0.00161
7409.97209	0.00161
7408.04341	0.00162
7406.11474	0.00162
7404.18606	0.00163
7402.25739	0.00164
7400.32871	0.00164
7398.40003	0.00164
7396.47136	0.00165
7394.54268	0.00166
7392.61401	0.00167
7390.68533	0.00166
7388.75666	0.00165
7386.82798	0.00166
7384.89930	0.00168
7382.97063	0.00169
7381.04195	0.00169
7379.11328	0.00168
7377.18460	0.00167
7375.25593	0.00167
7373.32725	0.00168
7371.39857	0.00169
7369.46990	0.00171
7367.54122	0.00172
7365.61255	0.00173
7363.68387	0.00173
7361.75520	0.00173
7359.82652	0.00173
7357.89784	0.00173
7355.96917	0.00174
7354.04049	0.00175
7352.11182	0.00176
7350.18314	0.00176
7348.25447	0.00176
7346.32579	0.00176
7344.39711	0.00178
7342.46844	0.00179
7340.53976	0.00180
7338.61109	0.00180
7336.68241	0.00179
7334.75374	0.00179
7332.82506	0.00179
7330.89638	0.00180
7328.96771	0.00180
7327.03903	0.00181
7325.11036	0.00182
7323.18168	0.00181
7321.25301	0.00181
7319.32433	0.00183
7317.39565	0.00184
7315.46698	0.00182
7313.53830	0.00180
7311.60963	0.00180
7309.68095	0.00180
7307.75228	0.00181
7305.82360	0.00182
7303.89492	0.00184
7301.96625	0.00186
7300.03757	0.00186
7298.10890	0.00187
7296.18022	0.00188
7294.25155	0.00189
7292.32287	0.00190
7290.39419	0.00191
7288.46552	0.00192
7286.53684	0.00192
7284.60817	0.00191
7282.67949	0.00191
7280.75082	0.00192
7278.82214	0.00191
7276.89346	0.00190
7274.96479	0.00192
7273.03611	0.00194
7271.10744	0.00195
7269.17876	0.00194
7267.25009	0.00194
7265.32141	0.00193
7263.39273	0.00192
7261.46406	0.00193
7259.53538	0.00195
7257.60671	0.00197
7255.67803	0.00196
7253.74936	0.00197
7251.82068	0.00198
7249.89200	0.00197
7247.96333	0.00196
7246.03465	0.00196
7244.10598	0.00197
7242.17730	0.00197
7240.24863	0.00198
7238.31995	0.00199
7236.39127	0.00199
7234.46260	0.00200
7232.53392	0.00201
7230.60525	0.00203
7228.67657	0.00205
7226.74790	0.00205
7224.81922	0.00204
7222.89054	0.00203
7220.96187	0.00203
7219.03319	0.00205
7217.10452	0.00206
7215.17584	0.00208
7213.24717	0.00209
7211.31849	0.00209
7209.38981	0.00208
7207.46114	0.00207
7205.53246	0.00208
7203.60379	0.00209
7201.67511	0.00208
7199.74644	0.00208
7197.81776	0.00208
7195.88908	0.00209
7193.96041	0.00210
7192.03173	0.00211
7190.10306	0.00211
7188.17438	0.00211
7186.24571	0.00211
7184.31703	0.00212
7182.38835	0.00214
7180.45968	0.00215
7178.53100	0.00214
7176.60233	0.00214
7174.67365	0.00214
7172.74498	0.00215
7170.81630	0.00216
7168.88762	0.00216
7166.95895	0.00216
7165.03027	0.00217
7163.10160	0.00217
7161.17292	0.00218
7159.24425	0.00219
7157.31557	0.00220
7155.38689	0.00220
7153.45822	0.00220
7151.52954	0.00220
7149.60087	0.00222
7147.67219	0.00223
7145.74352	0.00224
7143.81484	0.00225
7141.88616	0.00225
7139.95749	0.00226
7138.02881	0.00227
7136.10014	0.00228
7134.17146	0.00228
7132.24279	0.00228
7130.31411	0.00227
7128.38543	0.00226
7126.45676	0.00227
7124.52808	0.00230
7122.59941	0.00232
7120.67073	0.00232
7118.74206	0.00232
7116.81338	0.00232
7114.88470	0.00233
7112.95603	0.00233
7111.02735	0.00233
7109.09868	0.00233
7107.17000	0.00234
7105.24133	0.00234
7103.31265	0.00234
7101.38397	0.00234
7099.45530	0.00236
7097.52662	0.00238
7095.59795	0.00239
7093.66927	0.00239
7091.74060	0.00240
7089.81192	0.00241
7087.88324	0.00241
7085.95457	0.00242
7084.02589	0.00242
7082.09722	0.00241
7080.16854	0.00241
7078.23987	0.00242
7076.31119	0.00244
7074.38251	0.00244
7072.45384	0.00244
7070.52516	0.00244
7068.59649	0.00244
7066.66781	0.00245
7064.73914	0.00246
7062.81046	0.00247
7060.88178	0.00248
7058.95311	0.00248
7057.02443	0.00249
7055.09576	0.00249
7053.16708	0.00248
7051.23841	0.00249
7049.30973	0.00249
7047.38105	0.00249
7045.45238	0.00250
7043.52370	0.00252
7041.59503	0.00253
7039.66635	0.00253
7037.73768	0.00254
7035.80900	0.00255
7033.88032	0.00256
7031.95165	0.00256
7030.02297	0.00256
7028.09430	0.00255
7026.16562	0.00256
7024.23695	0.00257
7022.30827	0.00258
7020.37959	0.00259
7018.45092	0.00260
7016.52224	0.00260
7014.59357	0.00261
7012.66489	0.00261
7010.73622	0.00261
7008.80754	0.00261
7006.87886	0.00261
7004.95019	0.00262
7003.02151	0.00264
7001.09284	0.00265
6999.16416	0.00266
6997.23549	0.00266
6995.30681	0.00265
6993.37813	0.00266
6991.44946	0.00268
6989.52078	0.00269
6987.59211	0.00268
6985.66343	0.00268
6983.73476	0.00268
6981.80608	0.00268
6979.87740	0.00269
6977.94873	0.00271
6976.02005	0.00272
6974.09138	0.00272
6972.16270	0.00272
6970.23403	0.00274
6968.30535	0.00275
6966.37667	0.00277
6964.44800	0.00277
6962.51932	0.00277
6960.59065	0.00278
6958.66197	0.00278
6956.73330	0.00278
6954.80462	0.00279
6952.87594	0.00280
6950.94727	0.00280
6949.01859	0.00280
6947.08992	0.00281
6945.16124	0.00282
6943.23257	0.00282
6941.30389	0.00282
6939.37521	0.00283
6937.44654	0.00283
6935.51786	0.00283
6933.58919	0.00285
6931.66051	0.00287
6929.73184	0.00288
6927.80316	0.00288
6925.87448	0.00289
6923.94581	0.00289
6922.01713	0.00288
6920.08846	0.00288
6918.15978	0.00289
6916.23111	0.00289
6914.30243	0.00289
6912.37375	0.00289
6910.44508	0.00291
6908.51640	0.00293
6906.58773	0.00295
6904.65905	0.00295
6902.73038	0.00295
6900.80170	0.00295
6898.87302	0.00296
6896.94435	0.00297
6895.01567	0.00298
6893.08700	0.00297
6891.15832	0.00298
6889.22965	0.00299
6887.30097	0.00300
6885.37229	0.00300
6883.44362	0.00300
6881.51494	0.00302
6879.58627	0.00306
6877.65759	0.00307
6875.72892	0.00306
6873.80024	0.00304
6871.87156	0.00303
6869.94289	0.00304
6868.01421	0.00306
6866.08554	0.00307
6864.15686	0.00309
6862.22819	0.00310
6860.29951	0.00311
6858.37083	0.00311
6856.44216	0.00311
6854.51348	0.00312
6852.58481	0.00313
6850.65613	0.00313
6848.72746	0.00314
6846.79878	0.00315
6844.87010	0.00316
6842.94143	0.00316
6841.01275	0.00317
6839.08408	0.00317
6837.15540	0.00316
6835.22673	0.00315
6833.29805	0.00316
6831.36937	0.00318
6829.44070	0.00318
6827.51202	0.00320
6825.58335	0.00321
6823.65467	0.00322
6821.72600	0.00324
6819.79732	0.00325
6817.86864	0.00324
6815.93997	0.00322
6814.01129	0.00322
6812.08262	0.00323
6810.15394	0.00326
6808.22527	0.00328
6806.29659	0.00328
6804.36791	0.00328
6802.43924	0.00328
6800.51056	0.00329
6798.58189	0.00331
6796.65321	0.00333
6794.72454	0.00334
6792.79586	0.00333
6790.86718	0.00333
6788.93851	0.00333
6787.00983	0.00333
6785.08116	0.00335
6783.15248	0.00336
6781.22381	0.00336
6779.29513	0.00336
6777.36645	0.00336
6775.43778	0.00337
6773.50910	0.00337
6771.58043	0.00339
6769.65175	0.00341
6767.72308	0.00342
6765.79440	0.00343
6763.86572	0.00343
6761.93705	0.00343
6760.00837	0.00343
6758.07970	0.00345
6756.15102	0.00348
6754.22235	0.00349
6752.29367	0.00349
6750.36499	0.00348
6748.43632	0.00348
6746.50764	0.00349
6744.57897	0.00351
6742.65029	0.00351
6740.72162	0.00350
6738.79294	0.00351
6736.86426	0.00351
6734.93559	0.00352
6733.00691	0.00353
6731.07824	0.00354
6729.14956	0.00356
6727.22089	0.00357
6725.29221	0.00358
6723.36353	0.00357
6721.43486	0.00357
6719.50618	0.00357
6717.57751	0.00358
6715.64883	0.00359
6713.72016	0.00361
6711.79148	0.00363
6709.86280	0.00364
6707.93413	0.00363
6706.00545	0.00364
6704.07678	0.00365
6702.14810	0.00367
6700.21943	0.00368
6698.29075	0.00369
6696.36207	0.00370
6694.43340	0.00370
6692.50472	0.00370
6690.57605	0.00369
6688.64737	0.00370
6686.71870	0.00371
6684.79002	0.00372
6682.86134	0.00372
6680.93267	0.00373
6679.00399	0.00374
6677.07532	0.00375
6675.14664	0.00375
6673.21797	0.00376
6671.28929	0.00377
6669.36061	0.00377
6667.43194	0.00378
6665.50326	0.00380
6663.57459	0.00382
6661.64591	0.00383
6659.71724	0.00384
6657.78856	0.00385
6655.85988	0.00386
6653.93121	0.00386
6652.00253	0.00387
6650.07386	0.00389
6648.14518	0.00391
6646.21651	0.00392
6644.28783	0.00392
6642.35915	0.00391
6640.43048	0.00391
6638.50180	0.00392
6636.57313	0.00392
6634.64445	0.00393
6632.71578	0.00396
6630.78710	0.00400
6628.85842	0.00401
6626.92975	0.00400
6625.00107	0.00400
6623.07240	0.00400
6621.14372	0.00400
6619.21505	0.00401
6617.28637	0.00401
6615.35769	0.00402
6613.42902	0.00403
6611.50034	0.00405
6609.57167	0.00407
6607.64299	0.00408
6605.71432	0.00409
6603.78564	0.00409
6601.85696	0.00410
6599.92829	0.00411
6597.99961	0.00411
6596.07094	0.00410
6594.14226	0.00410
6592.21359	0.00410
6590.28491	0.00411
6588.35623	0.00413
6586.42756	0.00414
6584.49888	0.00413
6582.57021	0.00413
6580.64153	0.00415
6578.71286	0.00417
6576.78418	0.00418
6574.85550	0.00420
6572.92683	0.00422
6570.99815	0.00425
6569.06948	0.00425
6567.14080	0.00424
6565.21213	0.00425
6563.28345	0.00425
6561.35477	0.00426
6559.42610	0.00427
6557.49742	0.00429
6555.56875	0.00431
6553.64007	0.00433
6551.71140	0.00433
6549.78272	0.00433
6547.85404	0.00433
6545.92537	0.00432
6543.99669	0.00432
6542.06802	0.00434
6540.13934	0.00435
6538.21067	0.00435
6536.28199	0.00437
6534.35331	0.00439
6532.42464	0.00440
6530.49596	0.00441
6528.56729	0.00441
6526.63861	0.00442
6524.70994	0.00443
6522.78126	0.00444
6520.85258	0.00445
6518.92391	0.00446
6516.99523	0.00448
6515.06656	0.00449
6513.13788	0.00449
6511.20921	0.00450
6509.28053	0.00451
6507.35185	0.00453
6505.42318	0.00453
6503.49450	0.00454
6501.56583	0.00456
6499.63715	0.00457
6497.70848	0.00459
6495.77980	0.00460
6493.85112	0.00460
6491.92245	0.00460
6489.99377	0.00461
6488.06510	0.00463
6486.13642	0.00465
6484.20775	0.00467
6482.27907	0.00466
6480.35039	0.00467
6478.42172	0.00469
6476.49304	0.00470
6474.56437	0.00469
6472.63569	0.00469
6470.70702	0.00470
6468.77834	0.00472
6466.84966	0.00474
6464.92099	0.00475
6462.99231	0.00476
6461.06364	0.00477
6459.13496	0.00480
6457.20629	0.00481
6455.27761	0.00480
6453.34893	0.00479
6451.42026	0.00481
6449.49158	0.00483
6447.56291	0.00484
6445.63423	0.00484
6443.70556	0.00485
6441.77688	0.00486
6439.84820	0.00487
6437.91953	0.00487
6435.99085	0.00487
6434.06218	0.00488
6432.13350	0.00489
6430.20483	0.00492
6428.27615	0.00495
6426.34747	0.00497
6424.41880	0.00497
6422.49012	0.00496
6420.56145	0.00496
6418.63277	0.00497
6416.70410	0.00498
6414.77542	0.00499
6412.84674	0.00501
6410.91807	0.00503
6408.98939	0.00505
6407.06072	0.00506
6405.13204	0.00507
6403.20337	0.00507
6401.27469	0.00508
6399.34601	0.00509
6397.41734	0.00510
6395.48866	0.00510
6393.55999	0.00510
6391.63131	0.00512
6389.70264	0.00513
6387.77396	0.00514
6385.84528	0.00515
6383.91661	0.00516
6381.98793	0.00517
6380.05926	0.00518
6378.13058	0.00519
6376.20191	0.00520
6374.27323	0.00521
6372.34455	0.00522
6370.41588	0.00523
6368.48720	0.00525
6366.55853	0.00527
6364.62985	0.00528
6362.70118	0.00529
6360.77250	0.00529
6358.84382	0.00530
6356.91515	0.00533
6354.98647	0.00535
6353.05780	0.00536
6351.12912	0.00537
6349.20045	0.00539
6347.27177	0.00540
6345.34309	0.00541
6343.41442	0.00542
6341.48574	0.00543
6339.55707	0.00544
6337.62839	0.00545
6335.69972	0.00546
6333.77104	0.00548
6331.84236	0.00548
6329.91369	0.00548
6327.98501	0.00548
6326.05634	0.00549
6324.12766	0.00549
6322.19899	0.00550
6320.27031	0.00552
6318.34163	0.00554
6316.41296	0.00555
6314.48428	0.00555
6312.55561	0.00557
6310.62693	0.00559
6308.69826	0.00561
6306.76958	0.00561
6304.84090	0.00561
6302.91223	0.00562
6300.98355	0.00565
6299.05488	0.00567
6297.12620	0.00568
6295.19753	0.00569
6293.26885	0.00570
6291.34017	0.00571
6289.41150	0.00572
6287.48282	0.00573
6285.55415	0.00574
6283.62547	0.00576
6281.69680	0.00577
6279.76812	0.00578
6277.83944	0.00581
6275.91077	0.00584
6273.98209	0.00585
6272.05342	0.00585
6270.12474	0.00584
6268.19607	0.00583
6266.26739	0.00584
6264.33871	0.00585
6262.41004	0.00586
6260.48136	0.00588
6258.55269	0.00590
6256.62401	0.00591
6254.69534	0.00592
6252.76666	0.00593
6250.83798	0.00595
6248.90931	0.00596
6246.98063	0.00597
6245.05196	0.00599
6243.12328	0.00601
6241.19461	0.00605
6239.26593	0.00608
6237.33725	0.00608
6235.40858	0.00607
6233.47990	0.00608
6231.55123	0.00609
6229.62255	0.00610
6227.69388	0.00611
6225.76520	0.00612
6223.83652	0.00613
6221.90785	0.00616
6219.97917	0.00618
6218.05050	0.00619
6216.12182	0.00620
6214.19315	0.00622
6212.26447	0.00624
6210.33579	0.00626
6208.40712	0.00627
6206.47844	0.00628
6204.54977	0.00629
6202.62109	0.00629
6200.69242	0.00630
6198.76374	0.00631
6196.83506	0.00632
6194.90639	0.00632
6192.97771	0.00631
6191.04904	0.00633
6189.12036	0.00637
6187.19169	0.00640
6185.26301	0.00643
6183.33433	0.00643
6181.40566	0.00643
6179.47698	0.00643
6177.54831	0.00644
6175.61963	0.00644
6173.69096	0.00644
6171.76228	0.00646
6169.83360	0.00649
6167.90493	0.00651
6165.97625	0.00652
6164.04758	0.00654
6162.11890	0.00655
6160.19023	0.00656
6158.26155	0.00657
6156.33287	0.00657
6154.40420	0.00658
6152.47552	0.00660
6150.54685	0.00663
6148.61817	0.00666
6146.68950	0.00668
6144.76082	0.00669
6142.83214	0.00669
6140.90347	0.00671
6138.97479	0.00673
6137.04612	0.00676
6135.11744	0.00677
6133.18877	0.00680
6131.26009	0.00681
6129.33141	0.00682
6127.40274	0.00682
6125.47406	0.00683
6123.54539	0.00684
6121.61671	0.00686
6119.68804	0.00687
6117.75936	0.00688
6115.83068	0.00687
6113.90201	0.00687
6111.97333	0.00691
6110.04466	0.00695
6108.11598	0.00698
6106.18731	0.00700
6104.25863	0.00700
6102.32995	0.00701
6100.40128	0.00701
6098.47260	0.00702
6096.54393	0.00704
6094.61525	0.00705
6092.68658	0.00707
6090.75790	0.00709
6088.82922	0.00710
6086.90055	0.00710
6084.97187	0.00712
6083.04320	0.00713
6081.11452	0.00714
6079.18585	0.00716
6077.25717	0.00718
6075.32849	0.00720
6073.39982	0.00722
6071.47114	0.00725
6069.54247	0.00726
6067.61379	0.00727
6065.68512	0.00727
6063.75644	0.00728
6061.82776	0.00731
6059.89909	0.00732
6057.97041	0.00735
6056.04174	0.00737
6054.11306	0.00740
6052.18439	0.00741
6050.25571	0.00742
6048.32703	0.00743
6046.39836	0.00743
6044.46968	0.00745
6042.54101	0.00747
6040.61233	0.00749
6038.68366	0.00749
6036.75498	0.00749
6034.82630	0.00750
6032.89763	0.00752
6030.96895	0.00753
6029.04028	0.00755
6027.11160	0.00759
6025.18293	0.00761
6023.25425	0.00762
6021.32557	0.00764
6019.39690	0.00766
6017.46822	0.00766
6015.53955	0.00766
6013.61087	0.00767
6011.68220	0.00769
6009.75352	0.00770
6007.82484	0.00773
6005.89617	0.00776
6003.96749	0.00779
6002.03882	0.00780
6000.11014	0.00779
5998.18147	0.00780
5996.25279	0.00782
5994.32411	0.00784
5992.39544	0.00786
5990.46676	0.00788
5988.53809	0.00790
5986.60941	0.00793
5984.68074	0.00794
5982.75206	0.00796
5980.82338	0.00797
5978.89471	0.00798
5976.96603	0.00800
5975.03736	0.00802
5973.10868	0.00803
5971.18001	0.00804
5969.25133	0.00805
5967.32265	0.00808
5965.39398	0.00809
5963.46530	0.00810
5961.53663	0.00811
5959.60795	0.00813
5957.67928	0.00815
5955.75060	0.00817
5953.82192	0.00818
5951.89325	0.00818
5949.96457	0.00818
5948.03590	0.00820
5946.10722	0.00823
5944.17855	0.00826
5942.24987	0.00830
5940.32119	0.00833
5938.39252	0.00832
5936.46384	0.00832
5934.53517	0.00834
5932.60649	0.00838
5930.67782	0.00841
5928.74914	0.00842
5926.82046	0.00842
5924.89179	0.00844
5922.96311	0.00847
5921.03444	0.00849
5919.10576	0.00851
5917.17709	0.00853
5915.24841	0.00855
5913.31973	0.00856
5911.39106	0.00857
5909.46238	0.00858
5907.53371	0.00861
5905.60503	0.00863
5903.67636	0.00864
5901.74768	0.00865
5899.81900	0.00867
5897.89033	0.00868
5895.96165	0.00869
5894.03298	0.00871
5892.10430	0.00874
5890.17563	0.00876
5888.24695	0.00878
5886.31827	0.00879
5884.38960	0.00881
5882.46092	0.00883
5880.53225	0.00886
5878.60357	0.00888
5876.67490	0.00890
5874.74622	0.00891
5872.81755	0.00893
5870.88887	0.00894
5868.96019	0.00895
5867.03152	0.00896
5865.10284	0.00899
5863.17417	0.00901
5861.24549	0.00902
5859.31682	0.00904
5857.38814	0.00907
5855.45946	0.00911
5853.53079	0.00915
5851.60211	0.00915
5849.67344	0.00914
5847.74476	0.00915
5845.81609	0.00919
5843.88741	0.00921
5841.95873	0.00921
5840.03006	0.00921
5838.10138	0.00923
5836.17271	0.00926
5834.24403	0.00930
5832.31536	0.00933
5830.38668	0.00934
5828.45800	0.00934
5826.52933	0.00936
5824.60065	0.00939
5822.67198	0.00941
5820.74330	0.00941
5818.81463	0.00942
5816.88595	0.00945
5814.95727	0.00948
5813.02860	0.00949
5811.09992	0.00950
5809.17125	0.00953
5807.24257	0.00958
5805.31390	0.00961
5803.38522	0.00962
5801.45654	0.00962
5799.52787	0.00964
5797.59919	0.00966
5795.67052	0.00968
5793.74184	0.00970
5791.81317	0.00970
5789.88449	0.00971
5787.95581	0.00972
5786.02714	0.00974
5784.09846	0.00978
5782.16979	0.00981
5780.24111	0.00983
5778.31244	0.00984
5776.38376	0.00986
5774.45508	0.00987
5772.52641	0.00987
5770.59773	0.00988
5768.66906	0.00990
5766.74038	0.00994
5764.81171	0.00998
5762.88303	0.01000
5760.95435	0.01002
5759.02568	0.01003
5757.09700	0.01005
5755.16833	0.01007
5753.23965	0.01010
5751.31098	0.01013
5749.38230	0.01016
5747.45362	0.01018
5745.52495	0.01020
5743.59627	0.01020
5741.66760	0.01020
5739.73892	0.01023
5737.81025	0.01025
5735.88157	0.01027
5733.95289	0.01027
5732.02422	0.01029
5730.09554	0.01031
5728.16687	0.01035
5726.23819	0.01037
5724.30952	0.01038
5722.38084	0.01041
5720.45216	0.01044
5718.52349	0.01047
5716.59481	0.01047
5714.66614	0.01049
5712.73746	0.01051
5710.80879	0.01055
5708.88011	0.01057
5706.95143	0.01057
5705.02276	0.01057
5703.09408	0.01060
5701.16541	0.01066
5699.23673	0.01070
5697.30806	0.01072
5695.37938	0.01072
5693.45070	0.01072
5691.52203	0.01073
5689.59335	0.01074
5687.66468	0.01077
5685.73600	0.01080
5683.80733	0.01083
5681.87865	0.01085
5679.94997	0.01086
5678.02130	0.01088
5676.09262	0.01090
5674.16395	0.01093
5672.23527	0.01096
5670.30660	0.01100
5668.37792	0.01103
5666.44924	0.01106
5664.52057	0.01107
5662.59189	0.01108
5660.66322	0.01109
5658.73454	0.01111
5656.80587	0.01114
5654.87719	0.01116
5652.94851	0.01117
5651.01984	0.01118
5649.09116	0.01120
5647.16249	0.01123
5645.23381	0.01125
5643.30514	0.01125
5641.37646	0.01127
5639.44778	0.01129
5637.51911	0.01131
5635.59043	0.01134
5633.66176	0.01139
5631.73308	0.01142
5629.80441	0.01143
5627.87573	0.01145
5625.94705	0.01148
5624.01838	0.01152
5622.08970	0.01155
5620.16103	0.01156
5618.23235	0.01156
5616.30368	0.01158
5614.37500	0.01161
5612.44632	0.01165
5610.51765	0.01167
5608.58897	0.01170
5606.66030	0.01172
5604.73162	0.01174
5602.80295	0.01175
5600.87427	0.01177
5598.94559	0.01180
5597.01692	0.01184
5595.08824	0.01187
5593.15957	0.01189
5591.23089	0.01191
5589.30222	0.01193
5587.37354	0.01194
5585.44486	0.01197
5583.51619	0.01200
5581.58751	0.01204
5579.65884	0.01206
5577.73016	0.01207
5575.80149	0.01206
5573.87281	0.01206
5571.94413	0.01208
5570.01546	0.01212
5568.08678	0.01217
5566.15811	0.01221
5564.22943	0.01222
5562.30076	0.01221
5560.37208	0.01221
5558.44340	0.01224
5556.51473	0.01228
5554.58605	0.01233
5552.65738	0.01235
5550.72870	0.01236
5548.80003	0.01239
5546.87135	0.01241
5544.94267	0.01243
5543.01400	0.01245
5541.08532	0.01247
5539.15665	0.01250
5537.22797	0.01252
5535.29930	0.01255
5533.37062	0.01258
5531.44194	0.01260
5529.51327	0.01262
5527.58459	0.01264
5525.65592	0.01266
5523.72724	0.01268
5521.79857	0.01270
5519.86989	0.01273
5517.94121	0.01275
5516.01254	0.01276
5514.08386	0.01280
5512.15519	0.01282
5510.22651	0.01284
5508.29784	0.01288
5506.36916	0.01292
5504.44048	0.01293
5502.51181	0.01293
5500.58313	0.01295
5498.65446	0.01298
5496.72578	0.01301
5494.79711	0.01304
5492.86843	0.01307
5490.93975	0.01309
5489.01108	0.01311
5487.08240	0.01313
5485.15373	0.01315
5483.22505	0.01317
5481.29638	0.01320
5479.36770	0.01323
5477.43902	0.01325
5475.51035	0.01327
5473.58167	0.01330
5471.65300	0.01333
5469.72432	0.01335
5467.79565	0.01337
5465.86697	0.01339
5463.93829	0.01342
5462.00962	0.01345
5460.08094	0.01347
5458.15227	0.01348
5456.22359	0.01350
5454.29492	0.01352
5452.36624	0.01354
5450.43756	0.01356
5448.50889	0.01360
5446.58021	0.01363
5444.65154	0.01364
5442.72286	0.01366
5440.79419	0.01370
5438.86551	0.01375
5436.93683	0.01378
5435.00816	0.01380
5433.07948	0.01381
5431.15081	0.01382
5429.22213	0.01383
5427.29346	0.01385
5425.36478	0.01388
5423.43610	0.01392
5421.50743	0.01396
5419.57875	0.01402
5417.65008	0.01406
5415.72140	0.01407
5413.79273	0.01405
5411.86405	0.01405
5409.93537	0.01409
5408.00670	0.01414
5406.07802	0.01418
5404.14935	0.01420
5402.22067	0.01422
5400.29200	0.01424
5398.36332	0.01428
5396.43464	0.01431
5394.50597	0.01434
5392.57729	0.01438
5390.64862	0.01442
5388.71994	0.01445
5386.79127	0.01445
5384.86259	0.01447
5382.93391	0.01451
5381.00524	0.01454
5379.07656	0.01454
5377.14789	0.01452
5375.21921	0.01453
5373.29054	0.01457
5371.36186	0.01461
5369.43318	0.01464
5367.50451	0.01467
5365.57583	0.01469
5363.64716	0.01472
5361.71848	0.01476
5359.78981	0.01480
5357.86113	0.01483
5355.93245	0.01485
5354.00378	0.01487
5352.07510	0.01491
5350.14643	0.01495
5348.21775	0.01497
5346.28908	0.01500
5344.36040	0.01503
5342.43172	0.01506
5340.50305	0.01506
5338.57437	0.01506
5336.64570	0.01507
5334.71702	0.01509
5332.78835	0.01512
5330.85967	0.01515
5328.93099	0.01520
5327.00232	0.01525
5325.07364	0.01530
5323.14497	0.01532
5321.21629	0.01532
5319.28762	0.01534
5317.35894	0.01537
5315.43026	0.01539
5313.50159	0.01541
5311.57291	0.01544
5309.64424	0.01547
5307.71556	0.01550
5305.78689	0.01552
5303.85821	0.01555
5301.92953	0.01557
5300.00086	0.01559
5298.07218	0.01562
5296.14351	0.01566
5294.21483	0.01571
5292.28616	0.01574
5290.35748	0.01576
5288.42880	0.01578
5286.50013	0.01581
5284.57145	0.01585
5282.64278	0.01588
5280.71410	0.01590
5278.78543	0.01591
5276.85675	0.01594
5274.92807	0.01598
5272.99940	0.01602
5271.07072	0.01606
5269.14205	0.01609
5267.21337	0.01611
5265.28470	0.01612
5263.35602	0.01614
5261.42734	0.01617
5259.49867	0.01620
5257.56999	0.01623
5255.64132	0.01625
5253.71264	0.01629
5251.78397	0.01634
5249.85529	0.01636
5247.92661	0.01636
5245.99794	0.01638
5244.06926	0.01641
5242.14059	0.01643
5240.21191	0.01646
5238.28324	0.01649
5236.35456	0.01652
5234.42588	0.01655
5232.49721	0.01658
5230.56853	0.01660
5228.63986	0.01663
5226.71118	0.01666
5224.78251	0.01669
5222.85383	0.01672
5220.92515	0.01676
5218.99648	0.01679
5217.06780	0.01682
5215.13913	0.01684
5213.21045	0.01686
5211.28178	0.01689
5209.35310	0.01691
5207.42442	0.01693
5205.49575	0.01696
5203.56707	0.01700
5201.63840	0.01703
5199.70972	0.01705
5197.78105	0.01708
5195.85237	0.01713
5193.92369	0.01714
5191.99502	0.01714
5190.06634	0.01716
5188.13767	0.01720
5186.20899	0.01725
5184.28032	0.01730
5182.35164	0.01733
5180.42296	0.01733
5178.49429	0.01733
5176.56561	0.01736
5174.63694	0.01740
5172.70826	0.01744
5170.77959	0.01747
5168.85091	0.01751
5166.92223	0.01755
5164.99356	0.01758
5163.06488	0.01760
5161.13621	0.01761
5159.20753	0.01762
5157.27886	0.01766
5155.35018	0.01770
5153.42150	0.01772
5151.49283	0.01774
5149.56415	0.01775
5147.63548	0.01778
5145.70680	0.01783
5143.77813	0.01787
5141.84945	0.01790
5139.92077	0.01792
5137.99210	0.01795
5136.06342	0.01800
5134.13475	0.01804
5132.20607	0.01808
5130.27740	0.01810
5128.34872	0.01811
5126.42004	0.01813
5124.49137	0.01816
5122.56269	0.01820
5120.63402	0.01826
5118.70534	0.01829
5116.77667	0.01829
5114.84799	0.01830
5112.91931	0.01833
5110.99064	0.01837
5109.06196	0.01840
5107.13329	0.01842
5105.20461	0.01846
5103.27594	0.01850
5101.34726	0.01851
5099.41858	0.01852
5097.48991	0.01855
5095.56123	0.01859
5093.63256	0.01861
5091.70388	0.01864
5089.77521	0.01868
5087.84653	0.01872
5085.91785	0.01877
5083.98918	0.01880
5082.06050	0.01883
5080.13183	0.01886
5078.20315	0.01889
5076.27448	0.01893
5074.34580	0.01896
5072.41712	0.01899
5070.48845	0.01902
5068.55977	0.01905
5066.63110	0.01909
5064.70242	0.01911
5062.77375	0.01911
5060.84507	0.01911
5058.91639	0.01914
5056.98772	0.01918
5055.05904	0.01920
5053.13037	0.01922
5051.20169	0.01924
5049.27302	0.01928
5047.34434	0.01934
5045.41566	0.01939
5043.48699	0.01944
5041.55831	0.01945
5039.62964	0.01946
5037.70096	0.01949
5035.77229	0.01954
5033.84361	0.01959
5031.91493	0.01963
5029.98626	0.01967
5028.05758	0.01968
5026.12891	0.01970
5024.20023	0.01971
5022.27156	0.01973
5020.34288	0.01974
5018.41420	0.01978
5016.48553	0.01984
5014.55685	0.01990
5012.62818	0.01993
5010.69950	0.01995
5008.77083	0.01996
5006.84215	0.01999
5004.91347	0.02003
5002.98480	0.02007
5001.05612	0.02009
4999.12745	0.02010
4997.19877	0.02011
4995.27010	0.02013
4993.34142	0.02016
4991.41274	0.02021
4989.48407	0.02026
4987.55539	0.02030
4985.62672	0.02034
4983.69804	0.02037
4981.76937	0.02042
4979.84069	0.02046
4977.91201	0.02049
4975.98334	0.02051
4974.05466	0.02052
4972.12599	0.02055
4970.19731	0.02057
4968.26864	0.02059
4966.33996	0.02060
4964.41128	0.02065
4962.48261	0.02071
4960.55393	0.02076
4958.62526	0.02078
4956.69658	0.02081
4954.76791	0.02084
4952.83923	0.02089
4950.91055	0.02093
4948.98188	0.02098
4947.05320	0.02104
4945.12453	0.02109
4943.19585	0.02111
4941.26718	0.02110
4939.33850	0.02110
4937.40982	0.02112
4935.48115	0.02114
4933.55247	0.02117
4931.62380	0.02119
4929.69512	0.02122
4927.76645	0.02126
4925.83777	0.02132
4923.90909	0.02136
4921.98042	0.02140
4920.05174	0.02145
4918.12307	0.02148
4916.19439	0.02150
4914.26572	0.02153
4912.33704	0.02158
4910.40836	0.02162
4908.47969	0.02163
4906.55101	0.02164
4904.62234	0.02166
4902.69366	0.02170
4900.76499	0.02174
4898.83631	0.02178
4896.90763	0.02181
4894.97896	0.02185
4893.05028	0.02188
4891.12161	0.02191
4889.19293	0.02194
4887.26426	0.02198
4885.33558	0.02202
4883.40690	0.02205
4881.47823	0.02208
4879.54955	0.02211
4877.62088	0.02214
4875.69220	0.02218
4873.76353	0.02221
4871.83485	0.02223
4869.90617	0.02226
4867.97750	0.02230
4866.04882	0.02234
4864.12015	0.02237
4862.19147	0.02239
4860.26280	0.02242
4858.33412	0.02247
4856.40544	0.02253
4854.47677	0.02257
4852.54809	0.02260
4850.61942	0.02262
4848.69074	0.02266
4846.76207	0.02271
4844.83339	0.02275
4842.90471	0.02278
4840.97604	0.02280
4839.04736	0.02282
4837.11869	0.02285
4835.19001	0.02290
4833.26134	0.02296
4831.33266	0.02299
4829.40398	0.02300
4827.47531	0.02302
4825.54663	0.02304
4823.61796	0.02307
4821.68928	0.02310
4819.76061	0.02313
4817.83193	0.02316
4815.90325	0.02320
4813.97458	0.02323
4812.04590	0.02328
4810.11723	0.02333
4808.18855	0.02337
4806.25988	0.02341
4804.33120	0.02343
4802.40252	0.02346
4800.47385	0.02349
4798.54517	0.02354
4796.61650	0.02358
4794.68782	0.02364
4792.75915	0.02370
4790.83047	0.02374
4788.90179	0.02376
4786.97312	0.02377
4785.04444	0.02379
4783.11577	0.02383
4781.18709	0.02389
4779.25842	0.02393
4777.32974	0.02394
4775.40106	0.02396
4773.47239	0.02400
4771.54371	0.02404
4769.61504	0.02408
4767.68636	0.02412
4765.75769	0.02416
4763.82901	0.02421
4761.90033	0.02425
4759.97166	0.02428
4758.04298	0.02431
4756.11431	0.02436
4754.18563	0.02440
4752.25696	0.02444
4750.32828	0.02446
4748.39960	0.02448
4746.47093	0.02451
4744.54225	0.02455
4742.61358	0.02459
4740.68490	0.02462
4738.75623	0.02466
4736.82755	0.02471
4734.89887	0.02476
4732.97020	0.02480
4731.04152	0.02484
4729.11285	0.02487
4727.18417	0.02488
4725.25550	0.02490
4723.32682	0.02495
4721.39814	0.02501
4719.46947	0.02505
4717.54079	0.02509
4715.61212	0.02513
4713.68344	0.02517
4711.75477	0.02521
4709.82609	0.02524
4707.89741	0.02528
4705.96874	0.02532
4704.04006	0.02537
4702.11139	0.02541
4700.18271	0.02542
4698.25404	0.02545
4696.32536	0.02550
4694.39668	0.02556
4692.46801	0.02558
4690.53933	0.02559
4688.61066	0.02562
4686.68198	0.02567
4684.75331	0.02572
4682.82463	0.02577
4680.89595	0.02582
4678.96728	0.02584
4677.03860	0.02586
4675.10993	0.02590
4673.18125	0.02594
4671.25258	0.02597
4669.32390	0.02601
4667.39522	0.02605
4665.46655	0.02609
4663.53787	0.02613
4661.60920	0.02617
4659.68052	0.02620
4657.75185	0.02625
4655.82317	0.02630
4653.89449	0.02635
4651.96582	0.02640
4650.03714	0.02645
4648.10847	0.02651
4646.17979	0.02655
4644.25112	0.02658
4642.32244	0.02659
4640.39376	0.02661
4638.46509	0.02666
4636.53641	0.02670
4634.60774	0.02672
4632.67906	0.02676
4630.75039	0.02682
4628.82171	0.02687
4626.89303	0.02692
4624.96436	0.02698
4623.03568	0.02702
4621.10701	0.02706
4619.17833	0.02710
4617.24966	0.02713
4615.32098	0.02717
4613.39230	0.02720
4611.46363	0.02724
4609.53495	0.02729
4607.60628	0.02734
4605.67760	0.02737
4603.74893	0.02740
4601.82025	0.02746
4599.89157	0.02753
4597.96290	0.02759
4596.03422	0.02762
4594.10555	0.02764
4592.17687	0.02765
4590.24820	0.02769
4588.31952	0.02775
4586.39084	0.02779
4584.46217	0.02780
4582.53349	0.02783
4580.60482	0.02789
4578.67614	0.02797
4576.74747	0.02802
4574.81879	0.02805
4572.89011	0.02807
4570.96144	0.02812
4569.03276	0.02818
4567.10409	0.02823
4565.17541	0.02828
4563.24674	0.02834
4561.31806	0.02839
4559.38938	0.02844
4557.46071	0.02847
4555.53203	0.02850
4553.60336	0.02854
4551.67468	0.02858
4549.74601	0.02862
4547.81733	0.02866
4545.88865	0.02870
4543.95998	0.02876
4542.03130	0.02882
4540.10263	0.02888
4538.17395	0.02892
4536.24528	0.02895
4534.31660	0.02900
4532.38792	0.02904
4530.45925	0.02907
4528.53057	0.02910
4526.60190	0.02913
4524.67322	0.02918
4522.74455	0.02924
4520.81587	0.02929
4518.88719	0.02934
4516.95852	0.02938
4515.02984	0.02942
4513.10117	0.02949
4511.17249	0.02954
4509.24382	0.02958
4507.31514	0.02961
4505.38646	0.02966
4503.45779	0.02972
4501.52911	0.02978
4499.60044	0.02983
4497.67176	0.02986
4495.74309	0.02990
4493.81441	0.02996
4491.88573	0.02999
4489.95706	0.03004
4488.02838	0.03010
4486.09971	0.03015
4484.17103	0.03019
4482.24236	0.03024
4480.31368	0.03031
4478.38500	0.03037
4476.45633	0.03041
4474.52765	0.03045
4472.59898	0.03048
4470.67030	0.03052
4468.74163	0.03058
4466.81295	0.03063
4464.88427	0.03067
4462.95560	0.03071
4461.02692	0.03076
4459.09825	0.03082
4457.16957	0.03088
4455.24090	0.03093
4453.31222	0.03099
4451.38354	0.03104
4449.45487	0.03109
4447.52619	0.03113
4445.59752	0.03117
4443.66884	0.03122
4441.74017	0.03127
4439.81149	0.03132
4437.88281	0.03138
4435.95414	0.03146
4434.02546	0.03153
4432.09679	0.03157
4430.16811	0.03161
4428.23944	0.03167
4426.31076	0.03171
4424.38208	0.03173
4422.45341	0.03175
4420.52473	0.03181
4418.59606	0.03187
4416.66738	0.03192
4414.73871	0.03197
4412.81003	0.03201
4410.88135	0.03206
4408.95268	0.03212
4407.02400	0.03220
4405.09533	0.03226
4403.16665	0.03231
4401.23798	0.03235
4399.30930	0.03240
4397.38062	0.03245
4395.45195	0.03252
4393.52327	0.03259
4391.59460	0.03265
4389.66592	0.03268
4387.73725	0.03270
4385.80857	0.03275
4383.87989	0.03282
4381.95122	0.03288
4380.02254	0.03290
4378.09387	0.03293
4376.16519	0.03300
4374.23652	0.03308
4372.30784	0.03312
4370.37916	0.03316
4368.45049	0.03323
4366.52181	0.03332
4364.59314	0.03338
4362.66446	0.03341
4360.73579	0.03345
4358.80711	0.03351
4356.87843	0.03359
4354.94976	0.03366
4353.02108	0.03370
4351.09241	0.03372
4349.16373	0.03378
4347.23506	0.03387
4345.30638	0.03396
4343.37770	0.03400
4341.44903	0.03404
4339.52035	0.03409
4337.59168	0.03415
4335.66300	0.03419
4333.73433	0.03424
4331.80565	0.03431
4329.87697	0.03437
4327.94830	0.03443
4326.01962	0.03450
4324.09095	0.03457
4322.16227	0.03461
4320.23360	0.03466
4318.30492	0.03473
4316.37624	0.03480
4314.44757	0.03486
4312.51889	0.03491
4310.59022	0.03496
4308.66154	0.03502
4306.73287	0.03509
4304.80419	0.03515
4302.87551	0.03521
4300.94684	0.03527
4299.01816	0.03535
4297.08949	0.03542
4295.16081	0.03547
4293.23214	0.03552
4291.30346	0.03559
4289.37478	0.03567
4287.44611	0.03573
4285.51743	0.03578
4283.58876	0.03586
4281.66008	0.03594
4279.73141	0.03599
4277.80273	0.03602
4275.87405	0.03608
4273.94538	0.03614
4272.01670	0.03620
4270.08803	0.03628
4268.15935	0.03636
4266.23068	0.03640
4264.30200	0.03643
4262.37332	0.03650
4260.44465	0.03658
4258.51597	0.03664
4256.58730	0.03670
4254.65862	0.03676
4252.72995	0.03681
4250.80127	0.03687
4248.87259	0.03695
4246.94392	0.03703
4245.01524	0.03710
4243.08657	0.03715
4241.15789	0.03720
4239.22922	0.03725
4237.30054	0.03732
4235.37186	0.03739
4233.44319	0.03745
4231.51451	0.03751
4229.58584	0.03758
4227.65716	0.03764
4225.72849	0.03769
4223.79981	0.03777
4221.87113	0.03787
4219.94246	0.03794
4218.01378	0.03799
4216.08511	0.03802
4214.15643	0.03807
4212.22776	0.03815
4210.29908	0.03822
4208.37040	0.03828
4206.44173	0.03833
4204.51305	0.03839
4202.58438	0.03846
4200.65570	0.03852
4198.72703	0.03859
4196.79835	0.03866
4194.86968	0.03875
4192.94100	0.03881
4191.01232	0.03888
4189.08365	0.03894
4187.15497	0.03900
4185.22630	0.03907
4183.29762	0.03916
4181.36895	0.03922
4179.44027	0.03927
4177.51159	0.03932
4175.58292	0.03940
4173.65424	0.03949
4171.72557	0.03957
4169.79689	0.03965
4167.86822	0.03971
4165.93954	0.03977
4164.01086	0.03982
4162.08219	0.03989
4160.15351	0.03996
4158.22484	0.04004
4156.29616	0.04011
4154.36749	0.04018
4152.43881	0.04024
4150.51013	0.04031
4148.58146	0.04039
4146.65278	0.04047
4144.72411	0.04055
4142.79543	0.04063
4140.86676	0.04069
4138.93808	0.04077
4137.00940	0.04085
4135.08073	0.04092
4133.15205	0.04098
4131.22338	0.04105
4129.29470	0.04112
4127.36603	0.04119
4125.43735	0.04127
4123.50867	0.04136
4121.58000	0.04144
4119.65132	0.04150
4117.72265	0.04156
4115.79397	0.04163
4113.86530	0.04171
4111.93662	0.04180
4110.00794	0.04186
4108.07927	0.04191
4106.15059	0.04196
4104.22192	0.04204
4102.29324	0.04212
4100.36457	0.04220
4098.43589	0.04226
4096.50721	0.04233
4094.57854	0.04241
4092.64986	0.04252
4090.72119	0.04261
4088.79251	0.04268
4086.86384	0.04273
4084.93516	0.04277
4083.00648	0.04284
4081.07781	0.04293
4079.14913	0.04304
4077.22046	0.04314
4075.29178	0.04322
4073.36311	0.04329
4071.43443	0.04334
4069.50575	0.04341
4067.57708	0.04350
4065.64840	0.04359
4063.71973	0.04367
4061.79105	0.04374
4059.86238	0.04382
4057.93370	0.04390
4056.00502	0.04397
4054.07635	0.04405
4052.14767	0.04414
4050.21900	0.04422
4048.29032	0.04428
4046.36165	0.04434
4044.43297	0.04441
4042.50429	0.04450
4040.57562	0.04457
4038.64694	0.04463
4036.71827	0.04468
4034.78959	0.04477
4032.86092	0.04488
4030.93224	0.04497
4029.00356	0.04505
4027.07489	0.04513
4025.14621	0.04522
4023.21754	0.04529
4021.28886	0.04536
4019.36019	0.04547
4017.43151	0.04556
4015.50283	0.04561
4013.57416	0.04568
4011.64548	0.04578
4009.71681	0.04588
4007.78813	0.04596
4005.85946	0.04601
4003.93078	0.04607
4002.00210	0.04615
4000.07343	0.04625
3998.14475	0.04634
3996.21608	0.04642
3994.28740	0.04652
3992.35873	0.04662
3990.43005	0.04671
3988.50137	0.04679
3986.57270	0.04686
3984.64402	0.04693
3982.71535	0.04701
3980.78667	0.04709
3978.85800	0.04717
3976.92932	0.04725
3975.00064	0.04734
3973.07197	0.04743
3971.14329	0.04749
3969.21462	0.04757
3967.28594	0.04767
3965.35727	0.04777
3963.42859	0.04785
3961.49991	0.04794
3959.57124	0.04804
3957.64256	0.04813
3955.71389	0.04820
3953.78521	0.04827
3951.85654	0.04833
3949.92786	0.04839
3947.99918	0.04846
3946.07051	0.04855
3944.14183	0.04863
3942.21316	0.04870
3940.28448	0.04880
3938.35581	0.04892
3936.42713	0.04902
3934.49845	0.04907
3932.56978	0.04909
3930.64110	0.04918
3928.71243	0.04929
3926.78375	0.04936
3924.85508	0.04944
3922.92640	0.04954
3920.99772	0.04964
3919.06905	0.04969
3917.14037	0.04976
3915.21170	0.04989
3913.28302	0.05001
3911.35435	0.05009
3909.42567	0.05017
3907.49699	0.05021
3905.56832	0.05019
3903.63964	0.05018
3901.71097	0.05025
3899.78229	0.05039
3897.85362	0.05057
3895.92494	0.05074
3893.99626	0.05082
3892.06759	0.05086
3890.13891	0.05095
3888.21024	0.05103
3886.28156	0.05107
3884.35289	0.05118
3882.42421	0.05129
3880.49553	0.05138
3878.56686	0.05151
3876.63818	0.05162
3874.70951	0.05167
3872.78083	0.05171
3870.85216	0.05173
3868.92348	0.05181
3866.99480	0.05193
3865.06613	0.05202
3863.13745	0.05215
3861.20878	0.05232
3859.28010	0.05244
3857.35143	0.05239
3855.42275	0.05219
3853.49407	0.05215
3851.56540	0.05245
3849.63672	0.05281
3847.70805	0.05300
3845.77937	0.05308
3843.85070	0.05312
3841.92202	0.05316
3839.99334	0.05320
3838.06467	0.05328
3836.13599	0.05342
3834.20732	0.05356
3832.27864	0.05368
3830.34997	0.05382
3828.42129	0.05394
3826.49261	0.05403
3824.56394	0.05407
3822.63526	0.05405
3820.70659	0.05409
3818.77791	0.05422
3816.84924	0.05432
3814.92056	0.05447
3812.99188	0.05468
3811.06321	0.05482
3809.13453	0.05485
3807.20586	0.05487
3805.27718	0.05496
3803.34851	0.05501
3801.41983	0.05506
3799.49115	0.05520
3797.56248	0.05537
3795.63380	0.05552
3793.70513	0.05569
3791.77645	0.05584
3789.84778	0.05594
3787.91910	0.05601
3785.99042	0.05609
3784.06175	0.05617
3782.13307	0.05620
3780.20440	0.05625
3778.27572	0.05638
3776.34705	0.05656
3774.41837	0.05667
3772.48969	0.05670
3770.56102	0.05672
3768.63234	0.05681
3766.70367	0.05692
3764.77499	0.05704
3762.84632	0.05713
3760.91764	0.05717
3758.98896	0.05724
3757.06029	0.05734
3755.13161	0.05738
3753.20294	0.05732
3751.27426	0.05727
3749.34559	0.05736
3747.41691	0.05744
3745.48823	0.05744
3743.55956	0.05762
3741.63088	0.05799
3739.70221	0.05815
3737.77353	0.05808
3735.84486	0.05804
3733.91618	0.05817
3731.98750	0.05842
3730.05883	0.05864
3728.13015	0.05878
3726.20148	0.05888
3724.27280	0.05898
3722.34413	0.05908
3720.41545	0.05919
3718.48677	0.05931
3716.55810	0.05943
3714.62942	0.05946
3712.70075	0.05944
3710.77207	0.05951
3708.84340	0.05971
3706.91472	0.05992
3704.98604	0.06002
3703.05737	0.06002
3701.12869	0.06007
3699.20002	0.06024
3697.27134	0.06042
3695.34267	0.06051
3693.41399	0.06053
3691.48531	0.06049
3689.55664	0.06051
3687.62796	0.06068
3685.69929	0.06093
3683.77061	0.06111
3681.84194	0.06119
3679.91326	0.06119
3677.98458	0.06109
3676.05591	0.06104
3674.12723	0.06120
3672.19856	0.06140
3670.26988	0.06152
3668.34121	0.06169
3666.41253	0.06193
3664.48385	0.06210
3662.55518	0.06220
3660.62650	0.06227
3658.69783	0.06225
3656.76915	0.06222
3654.84048	0.06228
3652.91180	0.06230
3650.98312	0.06215
3649.05445	0.06202
3647.12577	0.06215
3645.19710	0.06248
3643.26842	0.06280
3641.33975	0.06298
3639.41107	0.06309
3637.48239	0.06316
3635.55372	0.06320
3633.62504	0.06323
3631.69637	0.06318
3629.76769	0.06310
3627.83902	0.06322
3625.91034	0.06351
3623.98166	0.06369
3622.05299	0.06369
3620.12431	0.06365
3618.19564	0.06369
3616.26696	0.06379
3614.33829	0.06388
3612.40961	0.06394
3610.48093	0.06397
3608.55226	0.06404
3606.62358	0.06421
3604.69491	0.06439
3602.76623	0.06448
3600.83756	0.06452
3598.90888	0.06458
3596.98020	0.06463
3595.05153	0.06469
3593.12285	0.06477
3591.19418	0.06482
3589.26550	0.06481
3587.33683	0.06486
3585.40815	0.06500
3583.47947	0.06516
3581.55080	0.06528
3579.62212	0.06539
3577.69345	0.06550
3575.76477	0.06560
3573.83610	0.06564
3571.90742	0.06565
3569.97874	0.06562
3568.05007	0.06559
3566.12139	0.06567
3564.19272	0.06586
3562.26404	0.06604
3560.33537	0.06615
3558.40669	0.06625
3556.47801	0.06632
3554.54934	0.06639
3552.62066	0.06646
3550.69199	0.06650
3548.76331	0.06651
3546.83464	0.06653
3544.90596	0.06662
3542.97728	0.06677
3541.04861	0.06689
3539.11993	0.06695
3537.19126	0.06699
3535.26258	0.06703
3533.33391	0.06707
3531.40523	0.06709
3529.47655	0.06712
3527.54788	0.06717
3525.61920	0.06722
3523.69053	0.06726
3521.76185	0.06730
3519.83318	0.06735
3517.90450	0.06741
3515.97582	0.06745
3514.04715	0.06747
3512.11847	0.06747
3510.18980	0.06748
3508.26112	0.06750
3506.33245	0.06752
3504.40377	0.06753
3502.47509	0.06756
3500.54642	0.06760
3498.61774	0.06764
3496.68907	0.06766
3494.76039	0.06771
3492.83172	0.06776
3490.90304	0.06777
3488.97436	0.06776
3487.04569	0.06777
3485.11701	0.06778
3483.18834	0.06777
3481.25966	0.06780
3479.33099	0.06789
3477.40231	0.06799
3475.47363	0.06807
3473.54496	0.06814
3471.61628	0.06820
3469.68761	0.06829
3467.75893	0.06840
3465.83026	0.06853
3463.90158	0.06865
3461.97290	0.06878
3460.04423	0.06889
3458.11555	0.06900
3456.18688	0.06910
3454.25820	0.06920
3452.32953	0.06929
3450.40085	0.06937
3448.47217	0.06944
3446.54350	0.06954
3444.61482	0.06965
3442.68615	0.06977
3440.75747	0.06989
3438.82880	0.07003
3436.90012	0.07023
3434.97144	0.07044
3433.04277	0.07064
3431.11409	0.07084
3429.18542	0.07105
3427.25674	0.07126
3425.32807	0.07148
3423.39939	0.07167
3421.47071	0.07186
3419.54204	0.07207
3417.61336	0.07228
3415.68469	0.07246
3413.75601	0.07260
3411.82734	0.07274
3409.89866	0.07287
3407.96998	0.07300
3406.04131	0.07313
3404.11263	0.07328
3402.18396	0.07344
3400.25528	0.07359
3398.32661	0.07372
3396.39793	0.07386
3394.46925	0.07402
3392.54058	0.07417
3390.61190	0.07433
3388.68323	0.07450
3386.75455	0.07465
3384.82588	0.07479
3382.89720	0.07494
3380.96852	0.07507
3379.03985	0.07519
3377.11117	0.07530
3375.18250	0.07544
3373.25382	0.07558
3371.32515	0.07570
3369.39647	0.07581
3367.46779	0.07593
3365.53912	0.07608
3363.61044	0.07622
3361.68177	0.07637
3359.75309	0.07650
3357.82442	0.07660
3355.89574	0.07668
3353.96706	0.07677
3352.03839	0.07691
3350.10971	0.07707
3348.18104	0.07721
3346.25236	0.07734
3344.32369	0.07748
3342.39501	0.07763
3340.46633	0.07776
3338.53766	0.07788
3336.60898	0.07801
3334.68031	0.07814
3332.75163	0.07828
3330.82296	0.07841
3328.89428	0.07853
3326.96560	0.07865
3325.03693	0.07880
3323.10825	0.07895
3321.17958	0.07908
3319.25090	0.07921
3317.32223	0.07934
3315.39355	0.07946
3313.46487	0.07958
3311.53620	0.07971
3309.60752	0.07985
3307.67885	0.07999
3305.75017	0.08015
3303.82150	0.08030
3301.89282	0.08043
3299.96414	0.08057
3298.03547	0.08070
3296.10679	0.08084
3294.17812	0.08099
3292.24944	0.08111
3290.32077	0.08120
3288.39209	0.08129
3286.46341	0.08144
3284.53474	0.08159
3282.60606	0.08172
3280.67739	0.08185
3278.74871	0.08201
3276.82004	0.08218
3274.89136	0.08231
3272.96268	0.08243
3271.03401	0.08258
3269.10533	0.08275
3267.17666	0.08292
3265.24798	0.08306
3263.31931	0.08320
3261.39063	0.08334
3259.46195	0.08348
3257.53328	0.08360
3255.60460	0.08373
3253.67593	0.08388
3251.74725	0.08405
3249.81858	0.08419
3247.88990	0.08431
3245.96122	0.08444
3244.03255	0.08458
3242.10387	0.08473
3240.17520	0.08489
3238.24652	0.08505
3236.31785	0.08519
3234.38917	0.08532
3232.46049	0.08546
3230.53182	0.08559
3228.60314	0.08571
3226.67447	0.08584
3224.74579	0.08598
3222.81712	0.08609
3220.88844	0.08621
3218.95976	0.08635
3217.03109	0.08649
3215.10241	0.08663
3213.17374	0.08675
3211.24506	0.08689
3209.31639	0.08703
3207.38771	0.08718
3205.45903	0.08733
3203.53036	0.08747
3201.60168	0.08763
3199.67301	0.08780
3197.74433	0.08794
3195.81566	0.08811
3193.88698	0.08830
3191.95830	0.08845
3190.02963	0.08855
3188.10095	0.08868
3186.17228	0.08885
3184.24360	0.08903
3182.31493	0.08920
3180.38625	0.08935
3178.45757	0.08947
3176.52890	0.08960
3174.60022	0.08974
3172.67155	0.08987
3170.74287	0.09003
3168.81420	0.09018
3166.88552	0.09033
3164.95684	0.09050
3163.02817	0.09069
3161.09949	0.09085
3159.17082	0.09099
3157.24214	0.09113
3155.31347	0.09125
3153.38479	0.09134
3151.45611	0.09146
3149.52744	0.09162
3147.59876	0.09177
3145.67009	0.09191
3143.74141	0.09205
3141.81274	0.09219
3139.88406	0.09232
3137.95538	0.09246
3136.02671	0.09261
3134.09803	0.09276
3132.16936	0.09290
3130.24068	0.09303
3128.31201	0.09316
3126.38333	0.09330
3124.45465	0.09343
3122.52598	0.09356
3120.59730	0.09373
3118.66863	0.09388
3116.73995	0.09401
3114.81128	0.09413
3112.88260	0.09427
3110.95392	0.09441
3109.02525	0.09453
3107.09657	0.09466
3105.16790	0.09480
3103.23922	0.09492
3101.31055	0.09508
3099.38187	0.09525
3097.45319	0.09542
3095.52452	0.09557
3093.59584	0.09572
3091.66717	0.09589
3089.73849	0.09606
3087.80982	0.09621
3085.88114	0.09633
3083.95246	0.09643
3082.02379	0.09653
3080.09511	0.09664
3078.16644	0.09676
3076.23776	0.09690
3074.30909	0.09705
3072.38041	0.09721
3070.45173	0.09737
3068.52306	0.09752
3066.59438	0.09766
3064.66571	0.09780
3062.73703	0.09793
3060.80836	0.09805
3058.87968	0.09818
3056.95100	0.09832
3055.02233	0.09844
3053.09365	0.09856
3051.16498	0.09872
3049.23630	0.09889
3047.30763	0.09906
3045.37895	0.09922
3043.45027	0.09939
3041.52160	0.09954
3039.59292	0.09967
3037.66425	0.09978
3035.73557	0.09987
3033.80690	0.09995
3031.87822	0.10005
3029.94954	0.10022
3028.02087	0.10041
3026.09219	0.10055
3024.16352	0.10067
3022.23484	0.10081
3020.30617	0.10092
3018.37749	0.10101
3016.44881	0.10112
3014.52014	0.10128
3012.59146	0.10144
3010.66279	0.10158
3008.73411	0.10169
3006.80544	0.10183
3004.87676	0.10197
3002.94808	0.10208
3001.01941	0.10215
2999.09073	0.10220
2997.16206	0.10228
2995.23338	0.10238
2993.30471	0.10244
2991.37603	0.10249
2989.44735	0.10252
2987.51868	0.10253
2985.59000	0.10250
2983.66133	0.10244
2981.73265	0.10235
2979.80398	0.10223
2977.87530	0.10209
2975.94662	0.10187
2974.01795	0.10155
2972.08927	0.10117
2970.16060	0.10074
2968.23192	0.10028
2966.30325	0.09987
2964.37457	0.09956
2962.44589	0.09943
2960.51722	0.09949
2958.58854	0.09976
2956.65987	0.10025
2954.73119	0.10092
2952.80252	0.10167
2950.87384	0.10238
2948.94516	0.10302
2947.01649	0.10357
2945.08781	0.10402
2943.15914	0.10436
2941.23046	0.10460
2939.30179	0.10475
2937.37311	0.10480
2935.44443	0.10478
2933.51576	0.10476
2931.58708	0.10476
2929.65841	0.10473
2927.72973	0.10467
2925.80106	0.10460
2923.87238	0.10455
2921.94370	0.10455
2920.01503	0.10460
2918.08635	0.10474
2916.15768	0.10503
2914.22900	0.10547
2912.30033	0.10592
2910.37165	0.10629
2908.44297	0.10657
2906.51430	0.10683
2904.58562	0.10707
2902.65695	0.10731
2900.72827	0.10753
2898.79960	0.10777
2896.87092	0.10806
2894.94224	0.10837
2893.01357	0.10868
2891.08489	0.10898
2889.15622	0.10922
2887.22754	0.10944
2885.29887	0.10968
2883.37019	0.10991
2881.44151	0.11010
2879.51284	0.11026
2877.58416	0.11039
2875.65549	0.11053
2873.72681	0.11069
2871.79814	0.11087
2869.86946	0.11106
2867.94078	0.11123
2866.01211	0.11138
2864.08343	0.11149
2862.15476	0.11153
2860.22608	0.11154
2858.29741	0.11155
2856.36873	0.11155
2854.44005	0.11153
2852.51138	0.11151
2850.58270	0.11159
2848.65403	0.11187
2846.72535	0.11238
2844.79668	0.11296
2842.86800	0.11346
2840.93932	0.11386
2839.01065	0.11419
2837.08197	0.11445
2835.15330	0.11465
2833.22462	0.11480
2831.29595	0.11497
2829.36727	0.11516
2827.43859	0.11535
2825.50992	0.11551
2823.58124	0.11565
2821.65257	0.11583
2819.72389	0.11600
2817.79522	0.11615
2815.86654	0.11629
2813.93786	0.11644
2812.00919	0.11661
2810.08051	0.11677
2808.15184	0.11690
2806.22316	0.11703
2804.29449	0.11718
2802.36581	0.11732
2800.43713	0.11745
2798.50846	0.11762
2796.57978	0.11782
2794.65111	0.11802
2792.72243	0.11819
2790.79376	0.11836
2788.86508	0.11853
2786.93640	0.11870
2785.00773	0.11885
2783.07905	0.11900
2781.15038	0.11916
2779.22170	0.11931
2777.29303	0.11945
2775.36435	0.11960
2773.43567	0.11977
2771.50700	0.11994
2769.57832	0.12014
2767.64965	0.12031
2765.72097	0.12045
2763.79230	0.12058
2761.86362	0.12072
2759.93494	0.12086
2758.00627	0.12101
2756.07759	0.12117
2754.14892	0.12132
2752.22024	0.12145
2750.29157	0.12160
2748.36289	0.12176
2746.43421	0.12190
2744.50554	0.12202
2742.57686	0.12214
2740.64819	0.12227
2738.71951	0.12240
2736.79084	0.12252
2734.86216	0.12268
2732.93348	0.12286
2731.00481	0.12301
2729.07613	0.12314
2727.14746	0.12330
2725.21878	0.12349
2723.29011	0.12367
2721.36143	0.12381
2719.43275	0.12394
2717.50408	0.12408
2715.57540	0.12422
2713.64673	0.12437
2711.71805	0.12450
2709.78938	0.12462
2707.86070	0.12476
2705.93202	0.12492
2704.00335	0.12506
2702.07467	0.12521
2700.14600	0.12536
2698.21732	0.12550
2696.28865	0.12561
2694.35997	0.12571
2692.43129	0.12583
2690.50262	0.12598
2688.57394	0.12612
2686.64527	0.12626
2684.71659	0.12641
2682.78792	0.12658
2680.85924	0.12676
2678.93056	0.12690
2677.00189	0.12703
2675.07321	0.12716
2673.14454	0.12730
2671.21586	0.12745
2669.28719	0.12759
2667.35851	0.12772
2665.42983	0.12787
2663.50116	0.12802
2661.57248	0.12817
2659.64381	0.12832
2657.71513	0.12850
2655.78646	0.12865
2653.85778	0.12877
2651.92910	0.12891
2650.00043	0.12905
2648.07175	0.12919
2646.14308	0.12935
2644.21440	0.12955
2642.28573	0.12973
2640.35705	0.12989
2638.42837	0.13003
2636.49970	0.13015
2634.57102	0.13029
2632.64235	0.13044
2630.71367	0.13060
2628.78500	0.13079
2626.85632	0.13099
2624.92764	0.13115
2622.99897	0.13129
2621.07029	0.13145
2619.14162	0.13162
2617.21294	0.13180
2615.28427	0.13194
2613.35559	0.13207
2611.42691	0.13221
2609.49824	0.13237
2607.56956	0.13252
2605.64089	0.13265
2603.71221	0.13278
2601.78354	0.13295
2599.85486	0.13311
2597.92618	0.13324
2595.99751	0.13336
2594.06883	0.13351
2592.14016	0.13368
2590.21148	0.13384
2588.28281	0.13398
2586.35413	0.13413
2584.42545	0.13427
2582.49678	0.13441
2580.56810	0.13456
2578.63943	0.13473
2576.71075	0.13491
2574.78208	0.13508
2572.85340	0.13522
2570.92472	0.13534
2568.99605	0.13545
2567.06737	0.13560
2565.13870	0.13579
2563.21002	0.13598
2561.28135	0.13612
2559.35267	0.13620
2557.42399	0.13630
2555.49532	0.13645
2553.56664	0.13661
2551.63797	0.13676
2549.70929	0.13693
2547.78062	0.13711
2545.85194	0.13728
2543.92326	0.13742
2541.99459	0.13756
2540.06591	0.13770
2538.13724	0.13783
2536.20856	0.13797
2534.27989	0.13809
2532.35121	0.13822
2530.42253	0.13838
2528.49386	0.13855
2526.56518	0.13869
2524.63651	0.13880
2522.70783	0.13892
2520.77916	0.13905
2518.85048	0.13919
2516.92181	0.13936
2514.99313	0.13954
2513.06445	0.13973
2511.13578	0.13990
2509.20710	0.14006
2507.27843	0.14021
2505.34975	0.14039
2503.42108	0.14056
2501.49240	0.14073
2499.56372	0.14092
2497.63505	0.14111
2495.70637	0.14128
2493.77770	0.14146
2491.84902	0.14162
2489.92035	0.14172
2487.99167	0.14181
2486.06299	0.14194
2484.13432	0.14213
2482.20564	0.14230
2480.27697	0.14247
2478.34829	0.14265
2476.41962	0.14283
2474.49094	0.14299
2472.56226	0.14315
2470.63359	0.14333
2468.70491	0.14350
2466.77624	0.14367
2464.84756	0.14384
2462.91889	0.14399
2460.99021	0.14412
2459.06153	0.14423
2457.13286	0.14438
2455.20418	0.14457
2453.27551	0.14478
2451.34683	0.14496
2449.41816	0.14508
2447.48948	0.14520
2445.56080	0.14535
2443.63213	0.14550
2441.70345	0.14566
2439.77478	0.14582
2437.84610	0.14595
2435.91743	0.14608
2433.98875	0.14624
2432.06007	0.14643
2430.13140	0.14659
2428.20272	0.14673
2426.27405	0.14689
2424.34537	0.14707
2422.41670	0.14724
2420.48802	0.14738
2418.55934	0.14752
2416.63067	0.14766
2414.70199	0.14781
2412.77332	0.14799
2410.84464	0.14817
2408.91597	0.14832
2406.98729	0.14845
2405.05861	0.14857
2403.12994	0.14870
2401.20126	0.14886
2399.27259	0.14902
2397.34391	0.14917
2395.41524	0.14932
2393.48656	0.14948
2391.55788	0.14965
2389.62921	0.14984
2387.70053	0.15000
2385.77186	0.15010
2383.84318	0.15020
2381.91451	0.15031
2379.98583	0.15042
2378.05715	0.15051
2376.12848	0.15056
2374.19980	0.15056
2372.27113	0.15057
2370.34245	0.15061
2368.41378	0.15065
2366.48510	0.15070
2364.55642	0.15076
2362.62775	0.15086
2360.69907	0.15099
2358.77040	0.15116
2356.84172	0.15141
2354.91305	0.15172
2352.98437	0.15208
2351.05569	0.15244
2349.12702	0.15269
2347.19834	0.15278
2345.26967	0.15278
2343.34099	0.15278
2341.41232	0.15284
2339.48364	0.15297
2337.55496	0.15314
2335.62629	0.15332
2333.69761	0.15351
2331.76894	0.15368
2329.84026	0.15383
2327.91159	0.15398
2325.98291	0.15417
2324.05423	0.15437
2322.12556	0.15457
2320.19688	0.15480
2318.26821	0.15505
2316.33953	0.15528
2314.41086	0.15547
2312.48218	0.15566
2310.55350	0.15586
2308.62483	0.15608
2306.69615	0.15625
2304.76748	0.15640
2302.83880	0.15657
2300.91013	0.15678
2298.98145	0.15697
2297.05277	0.15710
2295.12410	0.15723
2293.19542	0.15739
2291.26675	0.15754
2289.33807	0.15767
2287.40940	0.15782
2285.48072	0.15798
2283.55204	0.15813
2281.62337	0.15829
2279.69469	0.15846
2277.76602	0.15863
2275.83734	0.15878
2273.90867	0.15892
2271.97999	0.15909
2270.05131	0.15924
2268.12264	0.15935
2266.19396	0.15945
2264.26529	0.15962
2262.33661	0.15982
2260.40794	0.15999
2258.47926	0.16013
2256.55058	0.16026
2254.62191	0.16039
2252.69323	0.16051
2250.76456	0.16066
2248.83588	0.16084
2246.90721	0.16100
2244.97853	0.16116
2243.04985	0.16130
2241.12118	0.16140
2239.19250	0.16151
2237.26383	0.16166
2235.33515	0.16181
2233.40648	0.16196
2231.47780	0.16213
2229.54912	0.16231
2227.62045	0.16247
2225.69177	0.16260
2223.76310	0.16274
2221.83442	0.16288
2219.90575	0.16298
2217.97707	0.16306
2216.04839	0.16317
2214.11972	0.16336
2212.19104	0.16355
2210.26237	0.16370
2208.33369	0.16385
2206.40502	0.16402
2204.47634	0.16417
2202.54766	0.16429
2200.61899	0.16437
2198.69031	0.16447
2196.76164	0.16459
2194.83296	0.16473
2192.90429	0.16485
2190.97561	0.16497
2189.04693	0.16513
2187.11826	0.16530
2185.18958	0.16541
2183.26091	0.16549
2181.33223	0.16561
2179.40356	0.16575
2177.47488	0.16586
2175.54620	0.16597
2173.61753	0.16609
2171.68885	0.16617
2169.76018	0.16627
2167.83150	0.16646
2165.90283	0.16665
2163.97415	0.16677
2162.04547	0.16690
2160.11680	0.16703
2158.18812	0.16713
2156.25945	0.16724
2154.33077	0.16737
2152.40210	0.16750
2150.47342	0.16763
2148.54474	0.16776
2146.61607	0.16789
2144.68739	0.16806
2142.75872	0.16823
2140.83004	0.16840
2138.90137	0.16856
2136.97269	0.16872
2135.04401	0.16888
2133.11534	0.16901
2131.18666	0.16913
2129.25799	0.16926
2127.32931	0.16942
2125.40064	0.16960
2123.47196	0.16980
2121.54328	0.16998
2119.61461	0.17015
2117.68593	0.17033
2115.75726	0.17052
2113.82858	0.17071
2111.89991	0.17091
2109.97123	0.17109
2108.04255	0.17126
2106.11388	0.17142
2104.18520	0.17161
2102.25653	0.17182
2100.32785	0.17203
2098.39918	0.17225
2096.47050	0.17246
2094.54182	0.17265
2092.61315	0.17283
2090.68447	0.17301
2088.75580	0.17320
2086.82712	0.17339
2084.89845	0.17356
2082.96977	0.17373
2081.04109	0.17390
2079.11242	0.17407
2077.18374	0.17425
2075.25507	0.17444
2073.32639	0.17464
2071.39772	0.17483
2069.46904	0.17497
2067.54036	0.17507
2065.61169	0.17519
2063.68301	0.17535
2061.75434	0.17557
2059.82566	0.17581
2057.89699	0.17598
2055.96831	0.17611
2054.03963	0.17626
2052.11096	0.17647
2050.18228	0.17668
2048.25361	0.17686
2046.32493	0.17702
2044.39626	0.17715
2042.46758	0.17731
2040.53890	0.17752
2038.61023	0.17771
2036.68155	0.17786
2034.75288	0.17800
2032.82420	0.17815
2030.89553	0.17830
2028.96685	0.17844
2027.03817	0.17855
2025.10950	0.17863
2023.18082	0.17879
2021.25215	0.17900
2019.32347	0.17920
2017.39480	0.17936
2015.46612	0.17951
2013.53744	0.17968
2011.60877	0.17983
2009.68009	0.18000
2007.75142	0.18019
2005.82274	0.18036
2003.89407	0.18047
2001.96539	0.18055
2000.03671	0.18066
1998.10804	0.18082
1996.17936	0.18098
1994.25069	0.18110
1992.32201	0.18121
1990.39334	0.18140
1988.46466	0.18160
1986.53598	0.18174
1984.60731	0.18182
1982.67863	0.18192
1980.74996	0.18207
1978.82128	0.18221
1976.89261	0.18228
1974.96393	0.18235
1973.03525	0.18251
1971.10658	0.18269
1969.17790	0.18281
1967.24923	0.18291
1965.32055	0.18306
1963.39188	0.18321
1961.46320	0.18333
1959.53452	0.18348
1957.60585	0.18367
1955.67717	0.18386
1953.74850	0.18402
1951.81982	0.18412
1949.89115	0.18420
1947.96247	0.18430
1946.03379	0.18439
1944.10512	0.18445
1942.17644	0.18457
1940.24777	0.18479
1938.31909	0.18501
1936.39042	0.18515
1934.46174	0.18525
1932.53306	0.18540
1930.60439	0.18559
1928.67571	0.18578
1926.74704	0.18594
1924.81836	0.18604
1922.88969	0.18613
1920.96101	0.18623
1919.03233	0.18633
1917.10366	0.18653
1915.17498	0.18687
1913.24631	0.18713
1911.31763	0.18723
1909.38896	0.18731
1907.46028	0.18744
1905.53160	0.18758
1903.60293	0.18773
1901.67425	0.18790
1899.74558	0.18805
1897.81690	0.18813
1895.88823	0.18821
1893.95955	0.18836
1892.03087	0.18851
1890.10220	0.18860
1888.17352	0.18877
1886.24485	0.18900
1884.31617	0.18919
1882.38750	0.18933
1880.45882	0.18948
1878.53014	0.18964
1876.60147	0.18979
1874.67279	0.18992
1872.74412	0.18999
1870.81544	0.18993
1868.88677	0.18989
1866.95809	0.19010
1865.02941	0.19050
1863.10074	0.19082
1861.17206	0.19101
1859.24339	0.19114
1857.31471	0.19129
1855.38604	0.19146
1853.45736	0.19160
1851.52868	0.19172
1849.60001	0.19183
1847.67133	0.19183
1845.74266	0.19172
1843.81398	0.19181
1841.88531	0.19221
1839.95663	0.19262
1838.02795	0.19286
1836.09928	0.19304
1834.17060	0.19315
1832.24193	0.19312
1830.31325	0.19307
1828.38458	0.19318
1826.45590	0.19336
1824.52722	0.19357
1822.59855	0.19389
1820.66987	0.19414
1818.74120	0.19424
1816.81252	0.19431
1814.88385	0.19442
1812.95517	0.19451
1811.02649	0.19461
1809.09782	0.19478
1807.16914	0.19496
1805.24047	0.19505
1803.31179	0.19504
1801.38312	0.19504
1799.45444	0.19519
1797.52576	0.19541
1795.59709	0.19546
1793.66841	0.19531
1791.73974	0.19532
1789.81106	0.19562
1787.88239	0.19590
1785.95371	0.19597
1784.02503	0.19602
1782.09636	0.19614
1780.16768	0.19632
1778.23901	0.19652
1776.31033	0.19656
1774.38166	0.19640
1772.45298	0.19626
1770.52430	0.19637
1768.59563	0.19668
1766.66695	0.19704
1764.73828	0.19726
1762.80960	0.19722
1760.88093	0.19720
1758.95225	0.19729
1757.02357	0.19736
1755.09490	0.19737
1753.16622	0.19715
1751.23755	0.19679
1749.30887	0.19672
1747.38020	0.19692
1745.45152	0.19707
1743.52284	0.19709
1741.59417	0.19703
1739.66549	0.19700
1737.73682	0.19693
1735.80814	0.19660
1733.87947	0.19642
1731.95079	0.19678
1730.02211	0.19729
1728.09344	0.19764
1726.16476	0.19788
1724.23609	0.19804
1722.30741	0.19808
1720.37874	0.19785
1718.45006	0.19755
1716.52138	0.19760
1714.59271	0.19800
1712.66403	0.19848
1710.73536	0.19879
1708.80668	0.19882
1706.87801	0.19871
1704.94933	0.19869
1703.02065	0.19848
1701.09198	0.19808
1699.16330	0.19805
1697.23463	0.19836
1695.30595	0.19872
1693.37728	0.19916
1691.44860	0.19937
1689.51992	0.19928
1687.59125	0.19902
1685.66257	0.19860
1683.73390	0.19846
1681.80522	0.19889
1679.87655	0.19938
1677.94787	0.19940
1676.01919	0.19914
1674.09052	0.19906
1672.16184	0.19909
1670.23317	0.19907
1668.30449	0.19930
1666.37582	0.19968
1664.44714	0.19977
1662.51846	0.19977
1660.58979	0.19993
1658.66111	0.20001
1656.73244	0.19962
1654.80376	0.19885
1652.87509	0.19854
1650.94641	0.19903
1649.01773	0.19939
1647.08906	0.19938
1645.16038	0.19961
1643.23171	0.20003
1641.30303	0.20022
1639.37436	0.20006
1637.44568	0.19968
1635.51700	0.19956
1633.58833	0.19991
1631.65965	0.20029
1629.73098	0.20034
1627.80230	0.20023
1625.87363	0.20000
1623.94495	0.19962
1622.01627	0.19932
1620.08760	0.19926
1618.15892	0.19945
1616.23025	0.20004
1614.30157	0.20085
1612.37290	0.20143
1610.44422	0.20173
1608.51554	0.20195
1606.58687	0.20217
1604.65819	0.20237
1602.72952	0.20256
1600.80084	0.20276
1598.87217	0.20291
1596.94349	0.20300
1595.01481	0.20311
1593.08614	0.20328
1591.15746	0.20347
1589.22879	0.20363
1587.30011	0.20380
1585.37144	0.20399
1583.44276	0.20420
1581.51408	0.20436
1579.58541	0.20431
1577.65673	0.20408
1575.72806	0.20409
1573.79938	0.20442
1571.87071	0.20455
1569.94203	0.20451
1568.01335	0.20469
1566.08468	0.20501
1564.15600	0.20514
1562.22733	0.20482
1560.29865	0.20416
1558.36998	0.20397
1556.44130	0.20460
1554.51262	0.20535
1552.58395	0.20577
1550.65527	0.20598
1548.72660	0.20614
1546.79792	0.20613
1544.86925	0.20584
1542.94057	0.20547
1541.01189	0.20530
1539.08322	0.20558
1537.15454	0.20607
1535.22587	0.20625
1533.29719	0.20631
1531.36852	0.20660
1529.43984	0.20683
1527.51116	0.20675
1525.58249	0.20657
1523.65381	0.20628
1521.72514	0.20599
1519.79646	0.20608
1517.86779	0.20646
1515.93911	0.20683
1514.01043	0.20709
1512.08176	0.20710
1510.15308	0.20678
1508.22441	0.20636
1506.29573	0.20641
1504.36706	0.20706
1502.43838	0.20757
1500.50970	0.20752
1498.58103	0.20730
1496.65235	0.20731
1494.72368	0.20748
1492.79500	0.20738
1490.86633	0.20700
1488.93765	0.20680
1487.00897	0.20696
1485.08030	0.20717
1483.15162	0.20717
1481.22295	0.20695
1479.29427	0.20659
1477.36560	0.20608
1475.43692	0.20549
1473.50824	0.20499
1471.57957	0.20475
1469.65089	0.20469
1467.72222	0.20448
1465.79354	0.20415
1463.86487	0.20398
1461.93619	0.20383
1460.00751	0.20324
1458.07884	0.20245
1456.15016	0.20230
1454.22149	0.20277
1452.29281	0.20311
1450.36414	0.20312
1448.43546	0.20305
1446.50678	0.20314
1444.57811	0.20340
1442.64943	0.20366
1440.72076	0.20368
1438.79208	0.20331
1436.86341	0.20302
1434.93473	0.20332
1433.00605	0.20383
1431.07738	0.20406
1429.14870	0.20415
1427.22003	0.20421
1425.29135	0.20417
1423.36268	0.20401
1421.43400	0.20362
1419.50532	0.20316
1417.57665	0.20311
1415.64797	0.20339
1413.71930	0.20354
1411.79062	0.20351
1409.86195	0.20343
1407.93327	0.20333
1406.00459	0.20328
1404.07592	0.20336
1402.14724	0.20344
1400.21857	0.20333
1398.28989	0.20323
1396.36122	0.20327
1394.43254	0.20346
1392.50386	0.20373
1390.57519	0.20376
1388.64651	0.20342
1386.71784	0.20304
1384.78916	0.20293
1382.86049	0.20303
1380.93181	0.20313
1379.00313	0.20312
1377.07446	0.20306
1375.14578	0.20300
1373.21711	0.20301
1371.28843	0.20305
1369.35976	0.20305
1367.43108	0.20302
1365.50240	0.20287
1363.57373	0.20264
1361.64505	0.20255
1359.71638	0.20261
1357.78770	0.20267
1355.85903	0.20271
1353.93035	0.20278
1352.00167	0.20290
1350.07300	0.20303
1348.14432	0.20314
1346.21565	0.20327
1344.28697	0.20336
1342.35830	0.20330
1340.42962	0.20314
1338.50094	0.20306
1336.57227	0.20310
1334.64359	0.20313
1332.71492	0.20307
1330.78624	0.20291
1328.85757	0.20272
1326.92889	0.20253
1325.00021	0.20232
1323.07154	0.20207
1321.14286	0.20183
1319.21419	0.20163
1317.28551	0.20149
1315.35684	0.20132
1313.42816	0.20110
1311.49948	0.20089
1309.57081	0.20066
1307.64213	0.20039
1305.71346	0.20014
1303.78478	0.19989
1301.85611	0.19957
1299.92743	0.19925
1297.99875	0.19896
1296.07008	0.19869
1294.14140	0.19842
1292.21273	0.19816
1290.28405	0.19793
1288.35538	0.19768
1286.42670	0.19737
1284.49802	0.19700
1282.56935	0.19658
1280.64067	0.19612
1278.71200	0.19550
1276.78332	0.19467
1274.85465	0.19356
1272.92597	0.19215
1270.99729	0.19039
1269.06862	0.18817
1267.13994	0.18546
1265.21127	0.18250
1263.28259	0.17978
1261.35392	0.17782
1259.42524	0.17693
1257.49656	0.17704
1255.56789	0.17773
1253.63921	0.17864
1251.71054	0.17985
1249.78186	0.18154
1247.85319	0.18347
1245.92451	0.18515
1243.99583	0.18638
1242.06716	0.18726
1240.13848	0.18781
1238.20981	0.18801
1236.28113	0.18791
1234.35246	0.18764
1232.42378	0.18722
1230.49510	0.18670
1228.56643	0.18616
1226.63775	0.18565
1224.70908	0.18519
1222.78040	0.18476
1220.85173	0.18430
1218.92305	0.18379
1216.99437	0.18322
1215.06570	0.18258
1213.13702	0.18194
1211.20835	0.18138
1209.27967	0.18085
1207.35100	0.18026
1205.42232	0.17959
1203.49364	0.17890
1201.56497	0.17827
1199.63629	0.17767
1197.70762	0.17702
1195.77894	0.17633
1193.85027	0.17565
1191.92159	0.17492
1189.99291	0.17414
1188.06424	0.17335
1186.13556	0.17256
1184.20689	0.17170
1182.27821	0.17073
1180.34954	0.16976
1178.42086	0.16891
1176.49218	0.16810
1174.56351	0.16719
1172.63483	0.16620
1170.70616	0.16523
1168.77748	0.16428
1166.84881	0.16336
1164.92013	0.16244
1162.99145	0.16147
1161.06278	0.16045
1159.13410	0.15950
1157.20543	0.15862
1155.27675	0.15770
1153.34808	0.15670
1151.41940	0.15569
1149.49072	0.15471
1147.56205	0.15373
1145.63337	0.15273
1143.70470	0.15167
1141.77602	0.15056
1139.84735	0.14940
1137.91867	0.14813
1135.98999	0.14669
1134.06132	0.14509
1132.13264	0.14335
1130.20397	0.14142
1128.27529	0.13929
1126.34662	0.13697
1124.41794	0.13449
1122.48926	0.13197
1120.56059	0.12953
1118.63191	0.12724
1116.70324	0.12510
1114.77456	0.12307
1112.84589	0.12125
1110.91721	0.11974
1108.98853	0.11856
1107.05986	0.11765
1105.13118	0.11698
1103.20251	0.11650
1101.27383	0.11619
1099.34516	0.11608
1097.41648	0.11615
1095.48780	0.11634
1093.55913	0.11664
1091.63045	0.11699
1089.70178	0.11724
1087.77310	0.11738
1085.84443	0.11746
1083.91575	0.11743
1081.98707	0.11729
1080.05840	0.11710
1078.12972	0.11686
1076.20105	0.11663
1074.27237	0.11642
1072.34370	0.11618
1070.41502	0.11590
1068.48634	0.11565
1066.55767	0.11547
1064.62899	0.11531
1062.70032	0.11518
1060.77164	0.11506
1058.84297	0.11489
1056.91429	0.11471
1054.98561	0.11460
1053.05694	0.11456
1051.12826	0.11460
1049.19959	0.11468
1047.27091	0.11477
1045.34224	0.11489
1043.41356	0.11506
1041.48488	0.11521
1039.55621	0.11537
1037.62753	0.11561
1035.69886	0.11593
1033.77018	0.11628
1031.84151	0.11667
1029.91283	0.11708
1027.98415	0.11752
1026.05548	0.11806
1024.12680	0.11874
1022.19813	0.11962
1020.26945	0.12067
1018.34078	0.12174
1016.41210	0.12276
1014.48342	0.12389
1012.55475	0.12521
1010.62607	0.12663
1008.69740	0.12810
1006.76872	0.12956
1004.84005	0.13092
1002.91137	0.13217
1000.98269	0.13336
999.05402	0.13445
997.12534	0.13540
995.19667	0.13626
993.26799	0.13710
991.33932	0.13791
989.41064	0.13857
987.48196	0.13908
985.55329	0.13955
983.62461	0.14006
981.69594	0.14057
979.76726	0.14097
977.83859	0.14124
975.90991	0.14144
973.98123	0.14162
972.05256	0.14179
970.12388	0.14193
968.19521	0.14199
966.26653	0.14202
964.33786	0.14207
962.40918	0.14203
960.48050	0.14193
958.55183	0.14189
956.62315	0.14189
954.69448	0.14179
952.76580	0.14164
950.83713	0.14155
948.90845	0.14148
946.97977	0.14129
945.05110	0.14095
943.12242	0.14051
941.19375	0.14007
939.26507	0.13967
937.33640	0.13924
935.40772	0.13880
933.47904	0.13839
931.55037	0.13795
929.62169	0.13744
927.69302	0.13694
925.76434	0.13643
923.83567	0.13581
921.90699	0.13505
919.97831	0.13422
918.04964	0.13335
916.12096	0.13239
914.19229	0.13136
912.26361	0.13030
910.33494	0.12932
908.40626	0.12856
906.47758	0.12798
904.54891	0.12740
902.62023	0.12679
900.69156	0.12626
898.76288	0.12577
896.83421	0.12525
894.90553	0.12473
892.97685	0.12425
891.04818	0.12373
889.11950	0.12316
887.19083	0.12259
885.26215	0.12203
883.33348	0.12151
881.40480	0.12105
879.47612	0.12066
877.54745	0.12032
875.61877	0.11994
873.69010	0.11952
871.76142	0.11906
869.83275	0.11858
867.90407	0.11807
865.97539	0.11762
864.04672	0.11731
862.11804	0.11707
860.18937	0.11674
858.26069	0.11624
856.33202	0.11568
854.40334	0.11501
852.47466	0.11418
850.54599	0.11316
848.61731	0.11191
846.68864	0.11052
844.75996	0.10933
842.83129	0.10855
840.90261	0.10810
838.97394	0.10789
837.04526	0.10787
835.11658	0.10792
833.18791	0.10798
831.25923	0.10789
829.33056	0.10748
827.40188	0.10686
825.47321	0.10621
823.54453	0.10556
821.61585	0.10487
819.68718	0.10419
817.75850	0.10356
815.82983	0.10294
813.90115	0.10233
811.97248	0.10172
810.04380	0.10106
808.11512	0.10035
806.18645	0.09966
804.25777	0.09906
802.32910	0.09851
800.40042	0.09788
798.47175	0.09716
796.54307	0.09655
794.61439	0.09631
792.68572	0.09642
790.75704	0.09666
788.82837	0.09687
786.89969	0.09704
784.97102	0.09721
783.04234	0.09740
781.11366	0.09757
779.18499	0.09763
777.25631	0.09759
775.32764	0.09753
773.39896	0.09743
771.47029	0.09729
769.54161	0.09708
767.61293	0.09684
765.68426	0.09659
763.75558	0.09630
761.82691	0.09597
759.89823	0.09562
757.96956	0.09525
756.04088	0.09489
754.11220	0.09461
752.18353	0.09446
750.25485	0.09439
748.32618	0.09421
746.39750	0.09383
744.46883	0.09332
742.54015	0.09272
740.61147	0.09212
738.68280	0.09175
736.75412	0.09166
734.82545	0.09165
732.89677	0.09174
730.96810	0.09194
729.03942	0.09209
727.11074	0.09216
725.18207	0.09228
723.25339	0.09242
721.32472	0.09257
719.39604	0.09277
717.46737	0.09303
715.53869	0.09335
713.61001	0.09374
711.68134	0.09405
709.75266	0.09417
707.82399	0.09423
705.89531	0.09427
703.96664	0.09422
702.03796	0.09398
700.10928	0.09354
698.18061	0.09299
696.25193	0.09243
694.32326	0.09182
692.39458	0.09122
690.46591	0.09064
688.53723	0.09003
686.60855	0.08951
684.67988	0.08915
682.75120	0.08880
680.82253	0.08839
678.89385	0.08798
676.96518	0.08751
675.03650	0.08689
673.10782	0.08619
671.17915	0.08546
669.25047	0.08470
667.32180	0.08392
665.39312	0.08317
663.46445	0.08241
661.53577	0.08163
659.60709	0.08088
657.67842	0.08011
655.74974	0.07928
653.82107	0.07842
651.89239	0.07756
649.96372	0.07676
648.03504	0.07601
646.10636	0.07518
644.17769	0.07420
642.24901	0.07318
640.32034	0.07223
638.39166	0.07124
636.46299	0.07008
634.53431	0.06887
632.60563	0.06751
630.67696	0.06531
628.74828	0.06185
626.81961	0.05752
624.89093	0.05317
622.96226	0.04967
621.03358	0.04749
619.10490	0.04638
617.17623	0.04571
615.24755	0.04497
613.31888	0.04386
611.39020	0.04272
609.46153	0.04215
607.53285	0.04229
605.60417	0.04274
603.67550	0.04327
601.74682	0.04402
599.81815	0.04500
597.88947	0.04587
595.96080	0.04640
594.03212	0.04674
592.10344	0.04698
590.17477	0.04705
588.24609	0.04700
586.31742	0.04688
584.38874	0.04666
582.46007	0.04632
580.53139	0.04592
578.60271	0.04551
576.67404	0.04509
574.74536	0.04456
572.81669	0.04393
570.88801	0.04330
568.95934	0.04268
567.03066	0.04217
565.10198	0.04180
563.17331	0.04148
561.24463	0.04122
559.31596	0.04097
557.38728	0.04067
555.45861	0.04045
553.52993	0.04033
551.60125	0.04019
549.67258	0.04005
547.74390	0.03994
545.81523	0.03978
543.88655	0.03956
541.95788	0.03931
540.02920	0.03906
538.10052	0.03887
536.17185	0.03871
534.24317	0.03853
532.31450	0.03834
530.38582	0.03813
528.45715	0.03786
526.52847	0.03758
524.59979	0.03730
522.67112	0.03701
520.74244	0.03661
518.81377	0.03608
516.88509	0.03545
514.95642	0.03480
513.02774	0.03425
511.09906	0.03392
509.17039	0.03373
507.24171	0.03352
505.31304	0.03331
503.38436	0.03309
501.45569	0.03276
499.52701	0.03229
497.59833	0.03176
495.66966	0.03121
493.74098	0.03063
491.81231	0.03004
489.88363	0.02939
487.95496	0.02878
486.02628	0.02831
484.09760	0.02787
482.16893	0.02737
480.24025	0.02681
478.31158	0.02620
476.38290	0.02554
474.45423	0.02488
472.52555	0.02434
470.59687	0.02399
468.66820	0.02376
466.73952	0.02349
464.81085	0.02313
462.88217	0.02278
460.95350	0.02250
459.02482	0.02240
457.09614	0.02249
455.16747	0.02260
453.23879	0.02261
451.31012	0.02256
449.38144	0.02249
447.45277	0.02236
445.52409	0.02213
443.59541	0.02185
441.66674	0.02158
439.73806	0.02129
437.80939	0.02094
435.88071	0.02055
433.95204	0.02011
432.02336	0.01955
430.09468	0.01889
428.16601	0.01823
426.23733	0.01764
424.30866	0.01702
422.37998	0.01627
420.45131	0.01555
418.52263	0.01492
416.59395	0.01426
414.66528	0.01358
412.73660	0.01298
410.80793	0.01245
408.87925	0.01196
406.95058	0.01145
405.02190	0.01078
403.09322	0.01006
401.16455	0.00940
399.23587	0.00881
397.30720	0.00828
395.37852	0.00782
393.44985	0.00734
391.52117	0.00688
389.59249	0.00649
387.66382	0.00608
385.73514	0.00563
383.80647	0.00520
381.87779	0.00482
379.94912	0.00444
378.02044	0.00408
376.09176	0.00377
374.16309	0.00350
372.23441	0.00315
370.30574	0.00274
368.37706	0.00242
