7496.76250	0.00146
7494.83382	0.00146
7492.90514	0.00145
7490.97647	0.00145
7489.04779	0.00146
7487.11912	0.00147
7485.19044	0.00147
7483.26177	0.00147
7481.33309	0.00147
7479.40441	0.00147
7477.47574	0.00149
7475.54706	0.00149
7473.61839	0.00150
7471.68971	0.00152
7469.76104	0.00154
7467.83236	0.00154
7465.90368	0.00154
7463.97501	0.00153
7462.04633	0.00153
7460.11766	0.00153
7458.18898	0.00154
7456.26031	0.00154
7454.33163	0.00153
7452.40295	0.00153
7450.47428	0.00155
7448.54560	0.00157
7446.61693	0.00159
7444.68825	0.00159
7442.75958	0.00159
7440.83090	0.00158
7438.90222	0.00158
7436.97355	0.00158
7435.04487	0.00158
7433.11620	0.00158
7431.18752	0.00157
7429.25885	0.00157
7427.33017	0.00157
7425.40149	0.00158
7423.47282	0.00159
7421.54414	0.00159
7419.61547	0.00160
7417.68679	0.00161
7415.75812	0.00163
7413.82944	0.00164
7411.90076	0.00164
7409.97209	0.00165
7408.04341	0.00165
7406.11474	0.00165
7404.18606	0.00165
7402.25739	0.00166
7400.32871	0.00166
7398.40003	0.00166
7396.47136	0.00167
7394.54268	0.00168
7392.61401	0.00168
7390.68533	0.00171
7388.75666	0.00172
7386.82798	0.00170
7384.89930	0.00169
7382.97063	0.00170
7381.04195	0.00171
7379.11328	0.00170
7377.18460	0.00170
7375.25593	0.00170
7373.32725	0.00171
7371.39857	0.00170
7369.46990	0.00170
7367.54122	0.00171
7365.61255	0.00171
7363.68387	0.00172
7361.75520	0.00174
7359.82652	0.00175
7357.89784	0.00177
7355.96917	0.00177
7354.04049	0.00177
7352.11182	0.00176
7350.18314	0.00176
7348.25447	0.00176
7346.32579	0.00176
7344.39711	0.00179
7342.46844	0.00181
7340.53976	0.00182
7338.61109	0.00182
7336.68241	0.00182
7334.75374	0.00181
7332.82506	0.00182
7330.89638	0.00181
7328.96771	0.00180
7327.03903	0.00179
7325.11036	0.00180
7323.18168	0.00181
7321.25301	0.00182
7319.32433	0.00182
7317.39565	0.00183
7315.46698	0.00184
7313.53830	0.00186
7311.60963	0.00187
7309.68095	0.00187
7307.75228	0.00187
7305.82360	0.00188
7303.89492	0.00188
7301.96625	0.00189
7300.03757	0.00190
7298.10890	0.00190
7296.18022	0.00189
7294.25155	0.00188
7292.32287	0.00189
7290.39419	0.00190
7288.46552	0.00191
7286.53684	0.00191
7284.60817	0.00192
7282.67949	0.00193
7280.75082	0.00192
7278.82214	0.00192
7276.89346	0.00193
7274.96479	0.00194
7273.03611	0.00195
7271.10744	0.00196
7269.17876	0.00196
7267.25009	0.00195
7265.32141	0.00195
7263.39273	0.00196
7261.46406	0.00196
7259.53538	0.00197
7257.60671	0.00198
7255.67803	0.00198
7253.74936	0.00199
7251.82068	0.00200
7249.89200	0.00199
7247.96333	0.00200
7246.03465	0.00201
7244.10598	0.00201
7242.17730	0.00201
7240.24863	0.00201
7238.31995	0.00203
7236.39127	0.00205
7234.46260	0.00206
7232.53392	0.00205
7230.60525	0.00206
7228.67657	0.00207
7226.74790	0.00208
7224.81922	0.00209
7222.89054	0.00210
7220.96187	0.00211
7219.03319	0.00209
7217.10452	0.00208
7215.17584	0.00210
7213.24717	0.00212
7211.31849	0.00212
7209.38981	0.00211
7207.46114	0.00211
7205.53246	0.00211
7203.60379	0.00211
7201.67511	0.00213
7199.74644	0.00215
7197.81776	0.00216
7195.88908	0.00217
7193.96041	0.00215
7192.03173	0.00214
7190.10306	0.00214
7188.17438	0.00214
7186.24571	0.00215
7184.31703	0.00217
7182.38835	0.00218
7180.45968	0.00218
7178.53100	0.00217
7176.60233	0.00217
7174.67365	0.00219
7172.74498	0.00220
7170.81630	0.00221
7168.88762	0.00221
7166.95895	0.00221
7165.03027	0.00220
7163.10160	0.00221
7161.17292	0.00223
7159.24425	0.00224
7157.31557	0.00223
7155.38689	0.00224
7153.45822	0.00226
7151.52954	0.00227
7149.60087	0.00228
7147.67219	0.00227
7145.74352	0.00227
7143.81484	0.00227
7141.88616	0.00226
7139.95749	0.00226
7138.02881	0.00226
7136.10014	0.00227
7134.17146	0.00228
7132.24279	0.00229
7130.31411	0.00231
7128.38543	0.00232
7126.45676	0.00231
7124.52808	0.00231
7122.59941	0.00231
7120.67073	0.00233
7118.74206	0.00234
7116.81338	0.00236
7114.88470	0.00237
7112.95603	0.00238
7111.02735	0.00237
7109.09868	0.00237
7107.17000	0.00236
7105.24133	0.00238
7103.31265	0.00239
7101.38397	0.00241
7099.45530	0.00242
7097.52662	0.00242
7095.59795	0.00242
7093.66927	0.00243
7091.74060	0.00244
7089.81192	0.00244
7087.88324	0.00244
7085.95457	0.00244
7084.02589	0.00246
7082.09722	0.00246
7080.16854	0.00247
7078.23987	0.00247
7076.31119	0.00247
7074.38251	0.00246
7072.45384	0.00247
7070.52516	0.00248
7068.59649	0.00248
7066.66781	0.00247
7064.73914	0.00248
7062.81046	0.00249
7060.88178	0.00250
7058.95311	0.00250
7057.02443	0.00250
7055.09576	0.00250
7053.16708	0.00251
7051.23841	0.00251
7049.30973	0.00251
7047.38105	0.00253
7045.45238	0.00254
7043.52370	0.00254
7041.59503	0.00254
7039.66635	0.00255
7037.73768	0.00255
7035.80900	0.00256
7033.88032	0.00258
7031.95165	0.00259
7030.02297	0.00259
7028.09430	0.00259
7026.16562	0.00260
7024.23695	0.00260
7022.30827	0.00260
7020.37959	0.00261
7018.45092	0.00261
7016.52224	0.00261
7014.59357	0.00263
7012.66489	0.00265
7010.73622	0.00265
7008.80754	0.00266
7006.87886	0.00266
7004.95019	0.00267
7003.02151	0.00267
7001.09284	0.00266
6999.16416	0.00267
6997.23549	0.00268
6995.30681	0.00268
6993.37813	0.00269
6991.44946	0.00270
6989.52078	0.00272
6987.59211	0.00273
6985.66343	0.00272
6983.73476	0.00271
6981.80608	0.00272
6979.87740	0.00274
6977.94873	0.00275
6976.02005	0.00277
6974.09138	0.00277
6972.16270	0.00276
6970.23403	0.00277
6968.30535	0.00279
6966.37667	0.00279
6964.44800	0.00279
6962.51932	0.00279
6960.59065	0.00280
6958.66197	0.00281
6956.73330	0.00281
6954.80462	0.00280
6952.87594	0.00280
6950.94727	0.00280
6949.01859	0.00281
6947.08992	0.00282
6945.16124	0.00285
6943.23257	0.00288
6941.30389	0.00288
6939.37521	0.00287
6937.44654	0.00286
6935.51786	0.00287
6933.58919	0.00288
6931.66051	0.00289
6929.73184	0.00290
6927.80316	0.00291
6925.87448	0.00290
6923.94581	0.00290
6922.01713	0.00291
6920.08846	0.00292
6918.15978	0.00292
6916.23111	0.00292
6914.30243	0.00293
6912.37375	0.00294
6910.44508	0.00295
6908.51640	0.00296
6906.58773	0.00297
6904.65905	0.00297
6902.73038	0.00298
6900.80170	0.00298
6898.87302	0.00300
6896.94435	0.00300
6895.01567	0.00300
6893.08700	0.00301
6891.15832	0.00302
6889.22965	0.00303
6887.30097	0.00304
6885.37229	0.00304
6883.44362	0.00304
6881.51494	0.00305
6879.58627	0.00306
6877.65759	0.00308
6875.72892	0.00308
6873.80024	0.00308
6871.87156	0.00309
6869.94289	0.00309
6868.01421	0.00309
6866.08554	0.00308
6864.15686	0.00309
6862.22819	0.00311
6860.29951	0.00311
6858.37083	0.00312
6856.44216	0.00313
6854.51348	0.00314
6852.58481	0.00315
6850.65613	0.00316
6848.72746	0.00317
6846.79878	0.00318
6844.87010	0.00318
6842.94143	0.00317
6841.01275	0.00317
6839.08408	0.00317
6837.15540	0.00317
6835.22673	0.00318
6833.29805	0.00320
6831.36937	0.00320
6829.44070	0.00321
6827.51202	0.00322
6825.58335	0.00323
6823.65467	0.00325
6821.72600	0.00327
6819.79732	0.00328
6817.86864	0.00328
6815.93997	0.00327
6814.01129	0.00327
6812.08262	0.00329
6810.15394	0.00331
6808.22527	0.00331
6806.29659	0.00331
6804.36791	0.00331
6802.43924	0.00332
6800.51056	0.00332
6798.58189	0.00332
6796.65321	0.00334
6794.72454	0.00336
6792.79586	0.00336
6790.86718	0.00337
6788.93851	0.00337
6787.00983	0.00337
6785.08116	0.00337
6783.15248	0.00338
6781.22381	0.00339
6779.29513	0.00339
6777.36645	0.00339
6775.43778	0.00340
6773.50910	0.00342
6771.58043	0.00344
6769.65175	0.00345
6767.72308	0.00346
6765.79440	0.00347
6763.86572	0.00346
6761.93705	0.00346
6760.00837	0.00347
6758.07970	0.00347
6756.15102	0.00349
6754.22235	0.00350
6752.29367	0.00352
6750.36499	0.00354
6748.43632	0.00355
6746.50764	0.00354
6744.57897	0.00354
6742.65029	0.00354
6740.72162	0.00355
6738.79294	0.00356
6736.86426	0.00356
6734.93559	0.00357
6733.00691	0.00359
6731.07824	0.00361
6729.14956	0.00362
6727.22089	0.00361
6725.29221	0.00362
6723.36353	0.00363
6721.43486	0.00365
6719.50618	0.00365
6717.57751	0.00366
6715.64883	0.00369
6713.72016	0.00370
6711.79148	0.00368
6709.86280	0.00366
6707.93413	0.00367
6706.00545	0.00370
6704.07678	0.00371
6702.14810	0.00372
6700.21943	0.00374
6698.29075	0.00375
6696.36207	0.00375
6694.43340	0.00374
6692.50472	0.00374
6690.57605	0.00376
6688.64737	0.00379
6686.71870	0.00381
6684.79002	0.00380
6682.86134	0.00379
6680.93267	0.00379
6679.00399	0.00380
6677.07532	0.00380
6675.14664	0.00381
6673.21797	0.00383
6671.28929	0.00385
6669.36061	0.00386
6667.43194	0.00387
6665.50326	0.00387
6663.57459	0.00386
6661.64591	0.00386
6659.71724	0.00387
6657.78856	0.00387
6655.85988	0.00389
6653.93121	0.00391
6652.00253	0.00391
6650.07386	0.00392
6648.14518	0.00393
6646.21651	0.00394
6644.28783	0.00395
6642.35915	0.00397
6640.43048	0.00399
6638.50180	0.00399
6636.57313	0.00397
6634.64445	0.00396
6632.71578	0.00397
6630.78710	0.00398
6628.85842	0.00399
6626.92975	0.00401
6625.00107	0.00402
6623.07240	0.00402
6621.14372	0.00404
6619.21505	0.00405
6617.28637	0.00406
6615.35769	0.00407
6613.42902	0.00408
6611.50034	0.00409
6609.57167	0.00410
6607.64299	0.00411
6605.71432	0.00413
6603.78564	0.00412
6601.85696	0.00412
6599.92829	0.00412
6597.99961	0.00414
6596.07094	0.00415
6594.14226	0.00416
6592.21359	0.00416
6590.28491	0.00417
6588.35623	0.00418
6586.42756	0.00420
6584.49888	0.00422
6582.57021	0.00422
6580.64153	0.00423
6578.71286	0.00423
6576.78418	0.00422
6574.85550	0.00423
6572.92683	0.00425
6570.99815	0.00428
6569.06948	0.00429
6567.14080	0.00428
6565.21213	0.00428
6563.28345	0.00429
6561.35477	0.00431
6559.42610	0.00432
6557.49742	0.00434
6555.56875	0.00435
6553.64007	0.00435
6551.71140	0.00436
6549.78272	0.00438
6547.85404	0.00441
6545.92537	0.00443
6543.99669	0.00442
6542.06802	0.00441
6540.13934	0.00441
6538.21067	0.00443
6536.28199	0.00445
6534.35331	0.00448
6532.42464	0.00450
6530.49596	0.00450
6528.56729	0.00449
6526.63861	0.00449
6524.70994	0.00449
6522.78126	0.00451
6520.85258	0.00452
6518.92391	0.00453
6516.99523	0.00453
6515.06656	0.00455
6513.13788	0.00456
6511.20921	0.00458
6509.28053	0.00459
6507.35185	0.00459
6505.42318	0.00459
6503.49450	0.00459
6501.56583	0.00461
6499.63715	0.00463
6497.70848	0.00464
6495.77980	0.00465
6493.85112	0.00465
6491.92245	0.00465
6489.99377	0.00465
6488.06510	0.00466
6486.13642	0.00468
6484.20775	0.00469
6482.27907	0.00470
6480.35039	0.00471
6478.42172	0.00472
6476.49304	0.00473
6474.56437	0.00475
6472.63569	0.00477
6470.70702	0.00477
6468.77834	0.00477
6466.84966	0.00479
6464.92099	0.00482
6462.99231	0.00483
6461.06364	0.00481
6459.13496	0.00480
6457.20629	0.00480
6455.27761	0.00482
6453.34893	0.00483
6451.42026	0.00485
6449.49158	0.00486
6447.56291	0.00489
6445.63423	0.00491
6443.70556	0.00492
6441.77688	0.00493
6439.84820	0.00493
6437.91953	0.00494
6435.99085	0.00495
6434.06218	0.00497
6432.13350	0.00499
6430.20483	0.00500
6428.27615	0.00500
6426.34747	0.00499
6424.41880	0.00499
6422.49012	0.00501
6420.56145	0.00502
6418.63277	0.00504
6416.70410	0.00506
6414.77542	0.00507
6412.84674	0.00507
6410.91807	0.00508
6408.98939	0.00509
6407.06072	0.00511
6405.13204	0.00512
6403.20337	0.00512
6401.27469	0.00513
6399.34601	0.00514
6397.41734	0.00515
6395.48866	0.00516
6393.55999	0.00518
6391.63131	0.00519
6389.70264	0.00519
6387.77396	0.00520
6385.84528	0.00523
6383.91661	0.00524
6381.98793	0.00524
6380.05926	0.00523
6378.13058	0.00524
6376.20191	0.00526
6374.27323	0.00528
6372.34455	0.00528
6370.41588	0.00529
6368.48720	0.00531
6366.55853	0.00533
6364.62985	0.00535
6362.70118	0.00537
6360.77250	0.00538
6358.84382	0.00539
6356.91515	0.00540
6354.98647	0.00540
6353.05780	0.00541
6351.12912	0.00543
6349.20045	0.00543
6347.27177	0.00543
6345.34309	0.00544
6343.41442	0.00545
6341.48574	0.00546
6339.55707	0.00546
6337.62839	0.00547
6335.69972	0.00549
6333.77104	0.00553
6331.84236	0.00554
6329.91369	0.00554
6327.98501	0.00554
6326.05634	0.00556
6324.12766	0.00559
6322.19899	0.00560
6320.27031	0.00561
6318.34163	0.00563
6316.41296	0.00564
6314.48428	0.00566
6312.55561	0.00567
6310.62693	0.00568
6308.69826	0.00568
6306.76958	0.00568
6304.84090	0.00568
6302.91223	0.00568
6300.98355	0.00569
6299.05488	0.00571
6297.12620	0.00572
6295.19753	0.00573
6293.26885	0.00575
6291.34017	0.00577
6289.41150	0.00579
6287.48282	0.00579
6285.55415	0.00581
6283.62547	0.00582
6281.69680	0.00584
6279.76812	0.00585
6277.83944	0.00586
6275.91077	0.00587
6273.98209	0.00589
6272.05342	0.00589
6270.12474	0.00590
6268.19607	0.00591
6266.26739	0.00594
6264.33871	0.00596
6262.41004	0.00596
6260.48136	0.00596
6258.55269	0.00597
6256.62401	0.00599
6254.69534	0.00601
6252.76666	0.00603
6250.83798	0.00604
6248.90931	0.00604
6246.98063	0.00606
6245.05196	0.00607
6243.12328	0.00609
6241.19461	0.00611
6239.26593	0.00613
6237.33725	0.00615
6235.40858	0.00617
6233.47990	0.00617
6231.55123	0.00617
6229.62255	0.00617
6227.69388	0.00619
6225.76520	0.00621
6223.83652	0.00622
6221.90785	0.00625
6219.97917	0.00626
6218.05050	0.00626
6216.12182	0.00625
6214.19315	0.00625
6212.26447	0.00626
6210.33579	0.00628
6208.40712	0.00630
6206.47844	0.00633
6204.54977	0.00635
6202.62109	0.00637
6200.69242	0.00638
6198.76374	0.00637
6196.83506	0.00636
6194.90639	0.00638
6192.97771	0.00641
6191.04904	0.00645
6189.12036	0.00647
6187.19169	0.00648
6185.26301	0.00650
6183.33433	0.00650
6181.40566	0.00651
6179.47698	0.00651
6177.54831	0.00651
6175.61963	0.00653
6173.69096	0.00655
6171.76228	0.00658
6169.83360	0.00660
6167.90493	0.00660
6165.97625	0.00661
6164.04758	0.00663
6162.11890	0.00665
6160.19023	0.00667
6158.26155	0.00668
6156.33287	0.00669
6154.40420	0.00670
6152.47552	0.00672
6150.54685	0.00675
6148.61817	0.00677
6146.68950	0.00678
6144.76082	0.00678
6142.83214	0.00679
6140.90347	0.00679
6138.97479	0.00680
6137.04612	0.00682
6135.11744	0.00685
6133.18877	0.00687
6131.26009	0.00687
6129.33141	0.00688
6127.40274	0.00689
6125.47406	0.00689
6123.54539	0.00691
6121.61671	0.00694
6119.68804	0.00697
6117.75936	0.00698
6115.83068	0.00699
6113.90201	0.00700
6111.97333	0.00701
6110.04466	0.00702
6108.11598	0.00702
6106.18731	0.00702
6104.25863	0.00703
6102.32995	0.00705
6100.40128	0.00709
6098.47260	0.00713
6096.54393	0.00715
6094.61525	0.00716
6092.68658	0.00715
6090.75790	0.00715
6088.82922	0.00717
6086.90055	0.00720
6084.97187	0.00722
6083.04320	0.00722
6081.11452	0.00722
6079.18585	0.00723
6077.25717	0.00727
6075.32849	0.00730
6073.39982	0.00731
6071.47114	0.00732
6069.54247	0.00732
6067.61379	0.00733
6065.68512	0.00735
6063.75644	0.00739
6061.82776	0.00743
6059.89909	0.00746
6057.97041	0.00746
6056.04174	0.00746
6054.11306	0.00747
6052.18439	0.00748
6050.25571	0.00748
6048.32703	0.00747
6046.39836	0.00748
6044.46968	0.00750
6042.54101	0.00752
6040.61233	0.00754
6038.68366	0.00755
6036.75498	0.00757
6034.82630	0.00758
6032.89763	0.00760
6030.96895	0.00762
6029.04028	0.00763
6027.11160	0.00765
6025.18293	0.00767
6023.25425	0.00769
6021.32557	0.00770
6019.39690	0.00771
6017.46822	0.00773
6015.53955	0.00777
6013.61087	0.00780
6011.68220	0.00782
6009.75352	0.00782
6007.82484	0.00781
6005.89617	0.00782
6003.96749	0.00784
6002.03882	0.00786
6000.11014	0.00788
5998.18147	0.00790
5996.25279	0.00792
5994.32411	0.00794
5992.39544	0.00796
5990.46676	0.00797
5988.53809	0.00798
5986.60941	0.00801
5984.68074	0.00802
5982.75206	0.00803
5980.82338	0.00803
5978.89471	0.00805
5976.96603	0.00808
5975.03736	0.00811
5973.10868	0.00814
5971.18001	0.00817
5969.25133	0.00819
5967.32265	0.00819
5965.39398	0.00819
5963.46530	0.00821
5961.53663	0.00822
5959.60795	0.00824
5957.67928	0.00826
5955.75060	0.00828
5953.82192	0.00831
5951.89325	0.00832
5949.96457	0.00833
5948.03590	0.00836
5946.10722	0.00837
5944.17855	0.00836
5942.24987	0.00836
5940.32119	0.00839
5938.39252	0.00842
5936.46384	0.00845
5934.53517	0.00847
5932.60649	0.00848
5930.67782	0.00849
5928.74914	0.00852
5926.82046	0.00854
5924.89179	0.00855
5922.96311	0.00855
5921.03444	0.00855
5919.10576	0.00856
5917.17709	0.00858
5915.24841	0.00862
5913.31973	0.00864
5911.39106	0.00865
5909.46238	0.00865
5907.53371	0.00866
5905.60503	0.00868
5903.67636	0.00870
5901.74768	0.00874
5899.81900	0.00876
5897.89033	0.00878
5895.96165	0.00880
5894.03298	0.00884
5892.10430	0.00887
5890.17563	0.00888
5888.24695	0.00889
5886.31827	0.00889
5884.38960	0.00890
5882.46092	0.00891
5880.53225	0.00895
5878.60357	0.00899
5876.67490	0.00901
5874.74622	0.00901
5872.81755	0.00900
5870.88887	0.00901
5868.96019	0.00904
5867.03152	0.00908
5865.10284	0.00911
5863.17417	0.00912
5861.24549	0.00914
5859.31682	0.00915
5857.38814	0.00916
5855.45946	0.00918
5853.53079	0.00920
5851.60211	0.00922
5849.67344	0.00923
5847.74476	0.00925
5845.81609	0.00928
5843.88741	0.00931
5841.95873	0.00933
5840.03006	0.00934
5838.10138	0.00935
5836.17271	0.00937
5834.24403	0.00939
5832.31536	0.00941
5830.38668	0.00941
5828.45800	0.00942
5826.52933	0.00945
5824.60065	0.00948
5822.67198	0.00951
5820.74330	0.00954
5818.81463	0.00956
5816.88595	0.00956
5814.95727	0.00955
5813.02860	0.00957
5811.09992	0.00961
5809.17125	0.00965
5807.24257	0.00967
5805.31390	0.00969
5803.38522	0.00971
5801.45654	0.00973
5799.52787	0.00975
5797.59919	0.00976
5795.67052	0.00976
5793.74184	0.00977
5791.81317	0.00980
5789.88449	0.00984
5787.95581	0.00986
5786.02714	0.00988
5784.09846	0.00989
5782.16979	0.00991
5780.24111	0.00993
5778.31244	0.00995
5776.38376	0.00996
5774.45508	0.00999
5772.52641	0.01003
5770.59773	0.01006
5768.66906	0.01008
5766.74038	0.01009
5764.81171	0.01010
5762.88303	0.01012
5760.95435	0.01015
5759.02568	0.01016
5757.09700	0.01016
5755.16833	0.01018
5753.23965	0.01022
5751.31098	0.01025
5749.38230	0.01027
5747.45362	0.01028
5745.52495	0.01028
5743.59627	0.01029
5741.66760	0.01033
5739.73892	0.01037
5737.81025	0.01040
5735.88157	0.01040
5733.95289	0.01040
5732.02422	0.01041
5730.09554	0.01044
5728.16687	0.01049
5726.23819	0.01052
5724.30952	0.01053
5722.38084	0.01054
5720.45216	0.01055
5718.52349	0.01057
5716.59481	0.01060
5714.66614	0.01064
5712.73746	0.01066
5710.80879	0.01069
5708.88011	0.01071
5706.95143	0.01071
5705.02276	0.01071
5703.09408	0.01073
5701.16541	0.01075
5699.23673	0.01077
5697.30806	0.01078
5695.37938	0.01080
5693.45070	0.01082
5691.52203	0.01084
5689.59335	0.01088
5687.66468	0.01092
5685.73600	0.01096
5683.80733	0.01099
5681.87865	0.01103
5679.94997	0.01104
5678.02130	0.01104
5676.09262	0.01104
5674.16395	0.01106
5672.23527	0.01108
5670.30660	0.01112
5668.37792	0.01114
5666.44924	0.01115
5664.52057	0.01117
5662.59189	0.01120
5660.66322	0.01121
5658.73454	0.01123
5656.80587	0.01127
5654.87719	0.01130
5652.94851	0.01133
5651.01984	0.01135
5649.09116	0.01136
5647.16249	0.01136
5645.23381	0.01138
5643.30514	0.01140
5641.37646	0.01143
5639.44778	0.01148
5637.51911	0.01151
5635.59043	0.01151
5633.66176	0.01152
5631.73308	0.01153
5629.80441	0.01154
5627.87573	0.01156
5625.94705	0.01159
5624.01838	0.01164
5622.08970	0.01167
5620.16103	0.01170
5618.23235	0.01172
5616.30368	0.01175
5614.37500	0.01178
5612.44632	0.01180
5610.51765	0.01181
5608.58897	0.01181
5606.66030	0.01182
5604.73162	0.01185
5602.80295	0.01188
5600.87427	0.01191
5598.94559	0.01192
5597.01692	0.01194
5595.08824	0.01196
5593.15957	0.01198
5591.23089	0.01199
5589.30222	0.01202
5587.37354	0.01207
5585.44486	0.01211
5583.51619	0.01212
5581.58751	0.01214
5579.65884	0.01216
5577.73016	0.01217
5575.80149	0.01220
5573.87281	0.01224
5571.94413	0.01226
5570.01546	0.01227
5568.08678	0.01229
5566.15811	0.01231
5564.22943	0.01234
5562.30076	0.01237
5560.37208	0.01239
5558.44340	0.01241
5556.51473	0.01244
5554.58605	0.01247
5552.65738	0.01251
5550.72870	0.01253
5548.80003	0.01253
5546.87135	0.01255
5544.94267	0.01259
5543.01400	0.01262
5541.08532	0.01266
5539.15665	0.01267
5537.22797	0.01268
5535.29930	0.01268
5533.37062	0.01272
5531.44194	0.01276
5529.51327	0.01280
5527.58459	0.01283
5525.65592	0.01284
5523.72724	0.01285
5521.79857	0.01287
5519.86989	0.01289
5517.94121	0.01289
5516.01254	0.01290
5514.08386	0.01295
5512.15519	0.01301
5510.22651	0.01304
5508.29784	0.01307
5506.36916	0.01310
5504.44048	0.01314
5502.51181	0.01316
5500.58313	0.01316
5498.65446	0.01316
5496.72578	0.01318
5494.79711	0.01320
5492.86843	0.01322
5490.93975	0.01322
5489.01108	0.01324
5487.08240	0.01329
5485.15373	0.01334
5483.22505	0.01336
5481.29638	0.01338
5479.36770	0.01340
5477.43902	0.01342
5475.51035	0.01344
5473.58167	0.01346
5471.65300	0.01348
5469.72432	0.01350
5467.79565	0.01355
5465.86697	0.01359
5463.93829	0.01359
5462.00962	0.01358
5460.08094	0.01359
5458.15227	0.01362
5456.22359	0.01367
5454.29492	0.01372
5452.36624	0.01376
5450.43756	0.01378
5448.50889	0.01380
5446.58021	0.01383
5444.65154	0.01385
5442.72286	0.01387
5440.79419	0.01390
5438.86551	0.01393
5436.93683	0.01395
5435.00816	0.01395
5433.07948	0.01396
5431.15081	0.01398
5429.22213	0.01400
5427.29346	0.01404
5425.36478	0.01409
5423.43610	0.01414
5421.50743	0.01418
5419.57875	0.01421
5417.65008	0.01423
5415.72140	0.01424
5413.79273	0.01426
5411.86405	0.01428
5409.93537	0.01431
5408.00670	0.01432
5406.07802	0.01433
5404.14935	0.01435
5402.22067	0.01439
5400.29200	0.01443
5398.36332	0.01446
5396.43464	0.01448
5394.50597	0.01451
5392.57729	0.01455
5390.64862	0.01459
5388.71994	0.01460
5386.79127	0.01461
5384.86259	0.01463
5382.93391	0.01467
5381.00524	0.01470
5379.07656	0.01471
5377.14789	0.01473
5375.21921	0.01475
5373.29054	0.01479
5371.36186	0.01483
5369.43318	0.01487
5367.50451	0.01490
5365.57583	0.01492
5363.64716	0.01495
5361.71848	0.01497
5359.78981	0.01498
5357.86113	0.01502
5355.93245	0.01504
5354.00378	0.01506
5352.07510	0.01508
5350.14643	0.01511
5348.21775	0.01513
5346.28908	0.01514
5344.36040	0.01515
5342.43172	0.01519
5340.50305	0.01524
5338.57437	0.01528
5336.64570	0.01532
5334.71702	0.01536
5332.78835	0.01538
5330.85967	0.01538
5328.93099	0.01539
5327.00232	0.01543
5325.07364	0.01547
5323.14497	0.01552
5321.21629	0.01557
5319.28762	0.01559
5317.35894	0.01561
5315.43026	0.01562
5313.50159	0.01565
5311.57291	0.01567
5309.64424	0.01568
5307.71556	0.01567
5305.78689	0.01568
5303.85821	0.01572
5301.92953	0.01577
5300.00086	0.01580
5298.07218	0.01583
5296.14351	0.01588
5294.21483	0.01591
5292.28616	0.01592
5290.35748	0.01596
5288.42880	0.01601
5286.50013	0.01604
5284.57145	0.01605
5282.64278	0.01606
5280.71410	0.01609
5278.78543	0.01612
5276.85675	0.01614
5274.92807	0.01617
5272.99940	0.01620
5271.07072	0.01623
5269.14205	0.01625
5267.21337	0.01628
5265.28470	0.01630
5263.35602	0.01631
5261.42734	0.01635
5259.49867	0.01639
5257.56999	0.01642
5255.64132	0.01642
5253.71264	0.01643
5251.78397	0.01646
5249.85529	0.01649
5247.92661	0.01653
5245.99794	0.01658
5244.06926	0.01661
5242.14059	0.01663
5240.21191	0.01666
5238.28324	0.01669
5236.35456	0.01671
5234.42588	0.01674
5232.49721	0.01677
5230.56853	0.01680
5228.63986	0.01684
5226.71118	0.01687
5224.78251	0.01691
5222.85383	0.01694
5220.92515	0.01696
5218.99648	0.01698
5217.06780	0.01701
5215.13913	0.01705
5213.21045	0.01708
5211.28178	0.01708
5209.35310	0.01708
5207.42442	0.01712
5205.49575	0.01718
5203.56707	0.01723
5201.63840	0.01725
5199.70972	0.01727
5197.78105	0.01729
5195.85237	0.01732
5193.92369	0.01734
5191.99502	0.01736
5190.06634	0.01741
5188.13767	0.01745
5186.20899	0.01747
5184.28032	0.01749
5182.35164	0.01752
5180.42296	0.01755
5178.49429	0.01757
5176.56561	0.01759
5174.63694	0.01762
5172.70826	0.01766
5170.77959	0.01771
5168.85091	0.01774
5166.92223	0.01775
5164.99356	0.01777
5163.06488	0.01781
5161.13621	0.01785
5159.20753	0.01788
5157.27886	0.01790
5155.35018	0.01792
5153.42150	0.01795
5151.49283	0.01797
5149.56415	0.01800
5147.63548	0.01804
5145.70680	0.01807
5143.77813	0.01810
5141.84945	0.01813
5139.92077	0.01814
5137.99210	0.01815
5136.06342	0.01819
5134.13475	0.01824
5132.20607	0.01827
5130.27740	0.01831
5128.34872	0.01835
5126.42004	0.01839
5124.49137	0.01842
5122.56269	0.01845
5120.63402	0.01846
5118.70534	0.01847
5116.77667	0.01848
5114.84799	0.01852
5112.91931	0.01857
5110.99064	0.01861
5109.06196	0.01865
5107.13329	0.01869
5105.20461	0.01871
5103.27594	0.01872
5101.34726	0.01874
5099.41858	0.01877
5097.48991	0.01881
5095.56123	0.01884
5093.63256	0.01888
5091.70388	0.01893
5089.77521	0.01896
5087.84653	0.01898
5085.91785	0.01902
5083.98918	0.01907
5082.06050	0.01910
5080.13183	0.01913
5078.20315	0.01916
5076.27448	0.01919
5074.34580	0.01919
5072.41712	0.01920
5070.48845	0.01922
5068.55977	0.01927
5066.63110	0.01932
5064.70242	0.01935
5062.77375	0.01937
5060.84507	0.01939
5058.91639	0.01943
5056.98772	0.01948
5055.05904	0.01952
5053.13037	0.01955
5051.20169	0.01955
5049.27302	0.01956
5047.34434	0.01957
5045.41566	0.01960
5043.48699	0.01965
5041.55831	0.01971
5039.62964	0.01976
5037.70096	0.01978
5035.77229	0.01980
5033.84361	0.01984
5031.91493	0.01989
5029.98626	0.01992
5028.05758	0.01994
5026.12891	0.01997
5024.20023	0.02000
5022.27156	0.02004
5020.34288	0.02007
5018.41420	0.02008
5016.48553	0.02010
5014.55685	0.02014
5012.62818	0.02018
5010.69950	0.02021
5008.77083	0.02023
5006.84215	0.02026
5004.91347	0.02029
5002.98480	0.02032
5001.05612	0.02034
4999.12745	0.02038
4997.19877	0.02042
4995.27010	0.02045
4993.34142	0.02048
4991.41274	0.02051
4989.48407	0.02055
4987.55539	0.02058
4985.62672	0.02061
4983.69804	0.02064
4981.76937	0.02066
4979.84069	0.02069
4977.91201	0.02075
4975.98334	0.02079
4974.05466	0.02081
4972.12599	0.02083
4970.19731	0.02087
4968.26864	0.02091
4966.33996	0.02096
4964.41128	0.02098
4962.48261	0.02099
4960.55393	0.02101
4958.62526	0.02106
4956.69658	0.02111
4954.76791	0.02115
4952.83923	0.02119
4950.91055	0.02121
4948.98188	0.02123
4947.05320	0.02125
4945.12453	0.02129
4943.19585	0.02132
4941.26718	0.02134
4939.33850	0.02137
4937.40982	0.02141
4935.48115	0.02144
4933.55247	0.02147
4931.62380	0.02150
4929.69512	0.02153
4927.76645	0.02156
4925.83777	0.02160
4923.90909	0.02164
4921.98042	0.02168
4920.05174	0.02171
4918.12307	0.02175
4916.19439	0.02180
4914.26572	0.02183
4912.33704	0.02184
4910.40836	0.02187
4908.47969	0.02191
4906.55101	0.02196
4904.62234	0.02199
4902.69366	0.02202
4900.76499	0.02204
4898.83631	0.02206
4896.90763	0.02207
4894.97896	0.02210
4893.05028	0.02216
4891.12161	0.02221
4889.19293	0.02224
4887.26426	0.02227
4885.33558	0.02230
4883.40690	0.02232
4881.47823	0.02236
4879.54955	0.02239
4877.62088	0.02242
4875.69220	0.02247
4873.76353	0.02252
4871.83485	0.02254
4869.90617	0.02256
4867.97750	0.02261
4866.04882	0.02265
4864.12015	0.02267
4862.19147	0.02268
4860.26280	0.02272
4858.33412	0.02279
4856.40544	0.02283
4854.47677	0.02285
4852.54809	0.02287
4850.61942	0.02290
4848.69074	0.02294
4846.76207	0.02297
4844.83339	0.02300
4842.90471	0.02304
4840.97604	0.02307
4839.04736	0.02310
4837.11869	0.02314
4835.19001	0.02317
4833.26134	0.02322
4831.33266	0.02327
4829.40398	0.02329
4827.47531	0.02330
4825.54663	0.02334
4823.61796	0.02340
4821.68928	0.02345
4819.76061	0.02347
4817.83193	0.02348
4815.90325	0.02349
4813.97458	0.02352
4812.04590	0.02357
4810.11723	0.02362
4808.18855	0.02367
4806.25988	0.02370
4804.33120	0.02374
4802.40252	0.02379
4800.47385	0.02383
4798.54517	0.02387
4796.61650	0.02390
4794.68782	0.02393
4792.75915	0.02397
4790.83047	0.02401
4788.90179	0.02406
4786.97312	0.02410
4785.04444	0.02413
4783.11577	0.02414
4781.18709	0.02417
4779.25842	0.02422
4777.32974	0.02426
4775.40106	0.02430
4773.47239	0.02435
4771.54371	0.02439
4769.61504	0.02440
4767.68636	0.02442
4765.75769	0.02445
4763.82901	0.02450
4761.90033	0.02454
4759.97166	0.02457
4758.04298	0.02461
4756.11431	0.02468
4754.18563	0.02474
4752.25696	0.02478
4750.32828	0.02479
4748.39960	0.02480
4746.47093	0.02482
4744.54225	0.02487
4742.61358	0.02491
4740.68490	0.02494
4738.75623	0.02498
4736.82755	0.02504
4734.89887	0.02510
4732.97020	0.02513
4731.04152	0.02518
4729.11285	0.02523
4727.18417	0.02528
4725.25550	0.02531
4723.32682	0.02532
4721.39814	0.02534
4719.46947	0.02538
4717.54079	0.02543
4715.61212	0.02549
4713.68344	0.02555
4711.75477	0.02560
4709.82609	0.02562
4707.89741	0.02564
4705.96874	0.02566
4704.04006	0.02571
4702.11139	0.02576
4700.18271	0.02579
4698.25404	0.02582
4696.32536	0.02585
4694.39668	0.02588
4692.46801	0.02593
4690.53933	0.02598
4688.61066	0.02603
4686.68198	0.02605
4684.75331	0.02606
4682.82463	0.02610
4680.89595	0.02617
4678.96728	0.02623
4677.03860	0.02625
4675.10993	0.02628
4673.18125	0.02631
4671.25258	0.02634
4669.32390	0.02638
4667.39522	0.02643
4665.46655	0.02645
4663.53787	0.02648
4661.60920	0.02652
4659.68052	0.02658
4657.75185	0.02663
4655.82317	0.02666
4653.89449	0.02670
4651.96582	0.02675
4650.03714	0.02679
4648.10847	0.02683
4646.17979	0.02687
4644.25112	0.02689
4642.32244	0.02693
4640.39376	0.02697
4638.46509	0.02703
4636.53641	0.02708
4634.60774	0.02713
4632.67906	0.02718
4630.75039	0.02723
4628.82171	0.02726
4626.89303	0.02730
4624.96436	0.02734
4623.03568	0.02741
4621.10701	0.02746
4619.17833	0.02748
4617.24966	0.02750
4615.32098	0.02755
4613.39230	0.02758
4611.46363	0.02759
4609.53495	0.02761
4607.60628	0.02767
4605.67760	0.02774
4603.74893	0.02777
4601.82025	0.02781
4599.89157	0.02785
4597.96290	0.02790
4596.03422	0.02794
4594.10555	0.02799
4592.17687	0.02806
4590.24820	0.02813
4588.31952	0.02818
4586.39084	0.02822
4584.46217	0.02825
4582.53349	0.02829
4580.60482	0.02835
4578.67614	0.02839
4576.74747	0.02842
4574.81879	0.02844
4572.89011	0.02849
4570.96144	0.02855
4569.03276	0.02860
4567.10409	0.02863
4565.17541	0.02866
4563.24674	0.02868
4561.31806	0.02873
4559.38938	0.02880
4557.46071	0.02885
4555.53203	0.02889
4553.60336	0.02894
4551.67468	0.02901
4549.74601	0.02906
4547.81733	0.02908
4545.88865	0.02911
4543.95998	0.02914
4542.03130	0.02918
4540.10263	0.02923
4538.17395	0.02929
4536.24528	0.02934
4534.31660	0.02940
4532.38792	0.02944
4530.45925	0.02946
4528.53057	0.02950
4526.60190	0.02958
4524.67322	0.02966
4522.74455	0.02970
4520.81587	0.02972
4518.88719	0.02977
4516.95852	0.02983
4515.02984	0.02987
4513.10117	0.02989
4511.17249	0.02993
4509.24382	0.02999
4507.31514	0.03002
4505.38646	0.03007
4503.45779	0.03014
4501.52911	0.03019
4499.60044	0.03022
4497.67176	0.03025
4495.74309	0.03031
4493.81441	0.03040
4491.88573	0.03047
4489.95706	0.03050
4488.02838	0.03052
4486.09971	0.03054
4484.17103	0.03059
4482.24236	0.03066
4480.31368	0.03074
4478.38500	0.03080
4476.45633	0.03083
4474.52765	0.03087
4472.59898	0.03093
4470.67030	0.03098
4468.74163	0.03101
4466.81295	0.03104
4464.88427	0.03107
4462.95560	0.03110
4461.02692	0.03115
4459.09825	0.03123
4457.16957	0.03131
4455.24090	0.03136
4453.31222	0.03140
4451.38354	0.03145
4449.45487	0.03150
4447.52619	0.03153
4445.59752	0.03159
4443.66884	0.03167
4441.74017	0.03172
4439.81149	0.03175
4437.88281	0.03178
4435.95414	0.03183
4434.02546	0.03189
4432.09679	0.03194
4430.16811	0.03198
4428.23944	0.03203
4426.31076	0.03208
4424.38208	0.03215
4422.45341	0.03222
4420.52473	0.03228
4418.59606	0.03231
4416.66738	0.03234
4414.73871	0.03239
4412.81003	0.03245
4410.88135	0.03252
4408.95268	0.03257
4407.02400	0.03262
4405.09533	0.03269
4403.16665	0.03276
4401.23798	0.03280
4399.30930	0.03284
4397.38062	0.03290
4395.45195	0.03296
4393.52327	0.03302
4391.59460	0.03309
4389.66592	0.03314
4387.73725	0.03319
4385.80857	0.03323
4383.87989	0.03326
4381.95122	0.03330
4380.02254	0.03335
4378.09387	0.03339
4376.16519	0.03344
4374.23652	0.03352
4372.30784	0.03360
4370.37916	0.03364
4368.45049	0.03368
4366.52181	0.03374
4364.59314	0.03381
4362.66446	0.03386
4360.73579	0.03391
4358.80711	0.03395
4356.87843	0.03401
4354.94976	0.03407
4353.02108	0.03411
4351.09241	0.03415
4349.16373	0.03420
4347.23506	0.03428
4345.30638	0.03437
4343.37770	0.03444
4341.44903	0.03450
4339.52035	0.03456
4337.59168	0.03461
4335.66300	0.03465
4333.73433	0.03470
4331.80565	0.03477
4329.87697	0.03484
4327.94830	0.03491
4326.01962	0.03498
4324.09095	0.03503
4322.16227	0.03509
4320.23360	0.03516
4318.30492	0.03520
4316.37624	0.03525
4314.44757	0.03533
4312.51889	0.03540
4310.59022	0.03545
4308.66154	0.03550
4306.73287	0.03556
4304.80419	0.03563
4302.87551	0.03570
4300.94684	0.03575
4299.01816	0.03580
4297.08949	0.03587
4295.16081	0.03594
4293.23214	0.03600
4291.30346	0.03604
4289.37478	0.03610
4287.44611	0.03617
4285.51743	0.03624
4283.58876	0.03630
4281.66008	0.03635
4279.73141	0.03641
4277.80273	0.03648
4275.87405	0.03656
4273.94538	0.03662
4272.01670	0.03669
4270.08803	0.03675
4268.15935	0.03678
4266.23068	0.03683
4264.30200	0.03690
4262.37332	0.03699
4260.44465	0.03706
4258.51597	0.03714
4256.58730	0.03721
4254.65862	0.03725
4252.72995	0.03728
4250.80127	0.03732
4248.87259	0.03739
4246.94392	0.03747
4245.01524	0.03756
4243.08657	0.03765
4241.15789	0.03771
4239.22922	0.03776
4237.30054	0.03783
4235.37186	0.03790
4233.44319	0.03796
4231.51451	0.03801
4229.58584	0.03807
4227.65716	0.03812
4225.72849	0.03816
4223.79981	0.03822
4221.87113	0.03828
4219.94246	0.03835
4218.01378	0.03843
4216.08511	0.03853
4214.15643	0.03859
4212.22776	0.03864
4210.29908	0.03871
4208.37040	0.03881
4206.44173	0.03889
4204.51305	0.03895
4202.58438	0.03900
4200.65570	0.03907
4198.72703	0.03914
4196.79835	0.03922
4194.86968	0.03928
4192.94100	0.03934
4191.01232	0.03941
4189.08365	0.03950
4187.15497	0.03959
4185.22630	0.03967
4183.29762	0.03974
4181.36895	0.03980
4179.44027	0.03985
4177.51159	0.03991
4175.58292	0.03997
4173.65424	0.04003
4171.72557	0.04009
4169.79689	0.04016
4167.86822	0.04025
4165.93954	0.04034
4164.01086	0.04042
4162.08219	0.04048
4160.15351	0.04054
4158.22484	0.04058
4156.29616	0.04063
4154.36749	0.04071
4152.43881	0.04080
4150.51013	0.04089
4148.58146	0.04096
4146.65278	0.04106
4144.72411	0.04115
4142.79543	0.04122
4140.86676	0.04127
4138.93808	0.04133
4137.00940	0.04141
4135.08073	0.04149
4133.15205	0.04157
4131.22338	0.04162
4129.29470	0.04168
4127.36603	0.04176
4125.43735	0.04185
4123.50867	0.04194
4121.58000	0.04203
4119.65132	0.04210
4117.72265	0.04215
4115.79397	0.04220
4113.86530	0.04228
4111.93662	0.04239
4110.00794	0.04247
4108.07927	0.04253
4106.15059	0.04259
4104.22192	0.04264
4102.29324	0.04269
4100.36457	0.04276
4098.43589	0.04284
4096.50721	0.04291
4094.57854	0.04300
4092.64986	0.04309
4090.72119	0.04318
4088.79251	0.04326
4086.86384	0.04334
4084.93516	0.04341
4083.00648	0.04347
4081.07781	0.04352
4079.14913	0.04359
4077.22046	0.04367
4075.29178	0.04375
4073.36311	0.04385
4071.43443	0.04393
4069.50575	0.04399
4067.57708	0.04407
4065.64840	0.04416
4063.71973	0.04426
4061.79105	0.04437
4059.86238	0.04446
4057.93370	0.04454
4056.00502	0.04463
4054.07635	0.04472
4052.14767	0.04477
4050.21900	0.04483
4048.29032	0.04489
4046.36165	0.04496
4044.43297	0.04504
4042.50429	0.04513
4040.57562	0.04522
4038.64694	0.04530
4036.71827	0.04534
4034.78959	0.04540
4032.86092	0.04549
4030.93224	0.04560
4029.00356	0.04568
4027.07489	0.04575
4025.14621	0.04583
4023.21754	0.04590
4021.28886	0.04597
4019.36019	0.04602
4017.43151	0.04609
4015.50283	0.04619
4013.57416	0.04632
4011.64548	0.04643
4009.71681	0.04651
4007.78813	0.04659
4005.85946	0.04668
4003.93078	0.04673
4002.00210	0.04678
4000.07343	0.04684
3998.14475	0.04694
3996.21608	0.04706
3994.28740	0.04715
3992.35873	0.04720
3990.43005	0.04725
3988.50137	0.04736
3986.57270	0.04748
3984.64402	0.04757
3982.71535	0.04764
3980.78667	0.04772
3978.85800	0.04780
3976.92932	0.04787
3975.00064	0.04795
3973.07197	0.04805
3971.14329	0.04816
3969.21462	0.04824
3967.28594	0.04829
3965.35727	0.04836
3963.42859	0.04843
3961.49991	0.04853
3959.57124	0.04865
3957.64256	0.04876
3955.71389	0.04885
3953.78521	0.04892
3951.85654	0.04898
3949.92786	0.04905
3947.99918	0.04912
3946.07051	0.04922
3944.14183	0.04931
3942.21316	0.04941
3940.28448	0.04950
3938.35581	0.04957
3936.42713	0.04964
3934.49845	0.04971
3932.56978	0.04979
3930.64110	0.04990
3928.71243	0.05002
3926.78375	0.05010
3924.85508	0.05018
3922.92640	0.05028
3920.99772	0.05035
3919.06905	0.05037
3917.14037	0.05044
3915.21170	0.05059
3913.28302	0.05073
3911.35435	0.05083
3909.42567	0.05088
3907.49699	0.05089
3905.56832	0.05086
3903.63964	0.05088
3901.71097	0.05096
3899.78229	0.05112
3897.85362	0.05132
3895.92494	0.05147
3893.99626	0.05152
3892.06759	0.05157
3890.13891	0.05168
3888.21024	0.05177
3886.28156	0.05178
3884.35289	0.05186
3882.42421	0.05198
3880.49553	0.05211
3878.56686	0.05226
3876.63818	0.05237
3874.70951	0.05240
3872.78083	0.05242
3870.85216	0.05244
3868.92348	0.05256
3866.99480	0.05271
3865.06613	0.05281
3863.13745	0.05293
3861.20878	0.05311
3859.28010	0.05324
3857.35143	0.05318
3855.42275	0.05296
3853.49407	0.05290
3851.56540	0.05321
3849.63672	0.05362
3847.70805	0.05383
3845.77937	0.05386
3843.85070	0.05384
3841.92202	0.05385
3839.99334	0.05387
3838.06467	0.05393
3836.13599	0.05407
3834.20732	0.05425
3832.27864	0.05442
3830.34997	0.05458
3828.42129	0.05470
3826.49261	0.05477
3824.56394	0.05483
3822.63526	0.05483
3820.70659	0.05486
3818.77791	0.05498
3816.84924	0.05511
3814.92056	0.05527
3812.99188	0.05548
3811.06321	0.05562
3809.13453	0.05564
3807.20586	0.05568
3805.27718	0.05578
3803.34851	0.05583
3801.41983	0.05587
3799.49115	0.05601
3797.56248	0.05615
3795.63380	0.05629
3793.70513	0.05647
3791.77645	0.05662
3789.84778	0.05672
3787.91910	0.05677
3785.99042	0.05683
3784.06175	0.05693
3782.13307	0.05702
3780.20440	0.05710
3778.27572	0.05723
3776.34705	0.05738
3774.41837	0.05747
3772.48969	0.05750
3770.56102	0.05752
3768.63234	0.05761
3766.70367	0.05774
3764.77499	0.05788
3762.84632	0.05799
3760.91764	0.05801
3758.98896	0.05804
3757.06029	0.05815
3755.13161	0.05821
3753.20294	0.05814
3751.27426	0.05809
3749.34559	0.05820
3747.41691	0.05831
3745.48823	0.05828
3743.55956	0.05844
3741.63088	0.05882
3739.70221	0.05903
3737.77353	0.05897
3735.84486	0.05894
3733.91618	0.05909
3731.98750	0.05933
3730.05883	0.05954
3728.13015	0.05964
3726.20148	0.05969
3724.27280	0.05977
3722.34413	0.05991
3720.41545	0.06009
3718.48677	0.06027
3716.55810	0.06037
3714.62942	0.06036
3712.70075	0.06032
3710.77207	0.06039
3708.84340	0.06059
3706.91472	0.06080
3704.98604	0.06092
3703.05737	0.06096
3701.12869	0.06102
3699.20002	0.06116
3697.27134	0.06133
3695.34267	0.06142
3693.41399	0.06143
3691.48531	0.06139
3689.55664	0.06141
3687.62796	0.06158
3685.69929	0.06185
3683.77061	0.06203
3681.84194	0.06209
3679.91326	0.06209
3677.98458	0.06202
3676.05591	0.06196
3674.12723	0.06208
3672.19856	0.06226
3670.26988	0.06235
3668.34121	0.06251
3666.41253	0.06274
3664.48385	0.06292
3662.55518	0.06303
3660.62650	0.06310
3658.69783	0.06312
3656.76915	0.06311
3654.84048	0.06318
3652.91180	0.06316
3650.98312	0.06294
3649.05445	0.06281
3647.12577	0.06299
3645.19710	0.06336
3643.26842	0.06368
3641.33975	0.06388
3639.41107	0.06400
3637.48239	0.06407
3635.55372	0.06414
3633.62504	0.06416
3631.69637	0.06408
3629.76769	0.06396
3627.83902	0.06408
3625.91034	0.06439
3623.98166	0.06458
3622.05299	0.06459
3620.12431	0.06458
3618.19564	0.06466
3616.26696	0.06477
3614.33829	0.06482
3612.40961	0.06486
3610.48093	0.06489
3608.55226	0.06495
3606.62358	0.06508
3604.69491	0.06525
3602.76623	0.06537
3600.83756	0.06544
3598.90888	0.06551
3596.98020	0.06555
3595.05153	0.06560
3593.12285	0.06569
3591.19418	0.06573
3589.26550	0.06570
3587.33683	0.06572
3585.40815	0.06591
3583.47947	0.06613
3581.55080	0.06628
3579.62212	0.06636
3577.69345	0.06644
3575.76477	0.06651
3573.83610	0.06657
3571.90742	0.06660
3569.97874	0.06657
3568.05007	0.06652
3566.12139	0.06660
3564.19272	0.06680
3562.26404	0.06698
3560.33537	0.06709
3558.40669	0.06717
3556.47801	0.06724
3554.54934	0.06730
3552.62066	0.06734
3550.69199	0.06740
3548.76331	0.06746
3546.83464	0.06751
3544.90596	0.06760
3542.97728	0.06773
3541.04861	0.06784
3539.11993	0.06790
3537.19126	0.06793
3535.26258	0.06798
3533.33391	0.06803
3531.40523	0.06805
3529.47655	0.06805
3527.54788	0.06807
3525.61920	0.06812
3523.69053	0.06819
3521.76185	0.06826
3519.83318	0.06829
3517.90450	0.06830
3515.97582	0.06835
3514.04715	0.06841
3512.11847	0.06845
3510.18980	0.06846
3508.26112	0.06848
3506.33245	0.06850
3504.40377	0.06852
3502.47509	0.06854
3500.54642	0.06856
3498.61774	0.06857
3496.68907	0.06859
3494.76039	0.06862
3492.83172	0.06865
3490.90304	0.06866
3488.97436	0.06869
3487.04569	0.06874
3485.11701	0.06879
3483.18834	0.06882
3481.25966	0.06886
3479.33099	0.06892
3477.40231	0.06899
3475.47363	0.06907
3473.54496	0.06915
3471.61628	0.06921
3469.68761	0.06929
3467.75893	0.06938
3465.83026	0.06948
3463.90158	0.06961
3461.97290	0.06975
3460.04423	0.06988
3458.11555	0.06999
3456.18688	0.07010
3454.25820	0.07019
3452.32953	0.07026
3450.40085	0.07032
3448.47217	0.07040
3446.54350	0.07048
3444.61482	0.07060
3442.68615	0.07073
3440.75747	0.07087
3438.82880	0.07102
3436.90012	0.07121
3434.97144	0.07142
3433.04277	0.07166
3431.11409	0.07189
3429.18542	0.07211
3427.25674	0.07232
3425.32807	0.07251
3423.39939	0.07270
3421.47071	0.07291
3419.54204	0.07313
3417.61336	0.07332
3415.68469	0.07350
3413.75601	0.07369
3411.82734	0.07387
3409.89866	0.07403
3407.96998	0.07416
3406.04131	0.07428
3404.11263	0.07441
3402.18396	0.07454
3400.25528	0.07469
3398.32661	0.07486
3396.39793	0.07501
3394.46925	0.07515
3392.54058	0.07527
3390.61190	0.07539
3388.68323	0.07554
3386.75455	0.07573
3384.82588	0.07592
3382.89720	0.07608
3380.96852	0.07619
3379.03985	0.07631
3377.11117	0.07645
3375.18250	0.07660
3373.25382	0.07673
3371.32515	0.07686
3369.39647	0.07698
3367.46779	0.07710
3365.53912	0.07724
3363.61044	0.07739
3361.68177	0.07752
3359.75309	0.07764
3357.82442	0.07776
3355.89574	0.07788
3353.96706	0.07801
3352.03839	0.07818
3350.10971	0.07832
3348.18104	0.07842
3346.25236	0.07851
3344.32369	0.07865
3342.39501	0.07880
3340.46633	0.07893
3338.53766	0.07902
3336.60898	0.07913
3334.68031	0.07929
3332.75163	0.07947
3330.82296	0.07963
3328.89428	0.07975
3326.96560	0.07987
3325.03693	0.08000
3323.10825	0.08014
3321.17958	0.08028
3319.25090	0.08041
3317.32223	0.08053
3315.39355	0.08065
3313.46487	0.08078
3311.53620	0.08092
3309.60752	0.08106
3307.67885	0.08120
3305.75017	0.08132
3303.82150	0.08143
3301.89282	0.08155
3299.96414	0.08171
3298.03547	0.08189
3296.10679	0.08204
3294.17812	0.08215
3292.24944	0.08228
3290.32077	0.08243
3288.39209	0.08258
3286.46341	0.08272
3284.53474	0.08285
3282.60606	0.08299
3280.67739	0.08315
3278.74871	0.08331
3276.82004	0.08345
3274.89136	0.08357
3272.96268	0.08371
3271.03401	0.08387
3269.10533	0.08400
3267.17666	0.08414
3265.24798	0.08429
3263.31931	0.08446
3261.39063	0.08460
3259.46195	0.08474
3257.53328	0.08488
3255.60460	0.08502
3253.67593	0.08516
3251.74725	0.08532
3249.81858	0.08547
3247.88990	0.08560
3245.96122	0.08571
3244.03255	0.08584
3242.10387	0.08599
3240.17520	0.08613
3238.24652	0.08628
3236.31785	0.08645
3234.38917	0.08660
3232.46049	0.08675
3230.53182	0.08689
3228.60314	0.08701
3226.67447	0.08715
3224.74579	0.08728
3222.81712	0.08741
3220.88844	0.08754
3218.95976	0.08768
3217.03109	0.08783
3215.10241	0.08799
3213.17374	0.08813
3211.24506	0.08824
3209.31639	0.08836
3207.38771	0.08849
3205.45903	0.08863
3203.53036	0.08877
3201.60168	0.08891
3199.67301	0.08904
3197.74433	0.08920
3195.81566	0.08939
3193.88698	0.08959
3191.95830	0.08975
3190.02963	0.08988
3188.10095	0.09002
3186.17228	0.09017
3184.24360	0.09031
3182.31493	0.09043
3180.38625	0.09058
3178.45757	0.09075
3176.52890	0.09092
3174.60022	0.09108
3172.67155	0.09124
3170.74287	0.09138
3168.81420	0.09150
3166.88552	0.09163
3164.95684	0.09178
3163.02817	0.09192
3161.09949	0.09206
3159.17082	0.09224
3157.24214	0.09242
3155.31347	0.09257
3153.38479	0.09268
3151.45611	0.09279
3149.52744	0.09291
3147.59876	0.09304
3145.67009	0.09318
3143.74141	0.09333
3141.81274	0.09349
3139.88406	0.09363
3137.95538	0.09376
3136.02671	0.09391
3134.09803	0.09407
3132.16936	0.09421
3130.24068	0.09434
3128.31201	0.09450
3126.38333	0.09467
3124.45465	0.09485
3122.52598	0.09501
3120.59730	0.09515
3118.66863	0.09527
3116.73995	0.09538
3114.81128	0.09547
3112.88260	0.09558
3110.95392	0.09571
3109.02525	0.09587
3107.09657	0.09604
3105.16790	0.09623
3103.23922	0.09641
3101.31055	0.09657
3099.38187	0.09669
3097.45319	0.09682
3095.52452	0.09697
3093.59584	0.09713
3091.66717	0.09729
3089.73849	0.09743
3087.80982	0.09755
3085.88114	0.09767
3083.95246	0.09779
3082.02379	0.09792
3080.09511	0.09804
3078.16644	0.09816
3076.23776	0.09832
3074.30909	0.09849
3072.38041	0.09864
3070.45173	0.09880
3068.52306	0.09897
3066.59438	0.09913
3064.66571	0.09927
3062.73703	0.09941
3060.80836	0.09954
3058.87968	0.09966
3056.95100	0.09978
3055.02233	0.09991
3053.09365	0.10005
3051.16498	0.10019
3049.23630	0.10034
3047.30763	0.10050
3045.37895	0.10066
3043.45027	0.10079
3041.52160	0.10091
3039.59292	0.10103
3037.66425	0.10117
3035.73557	0.10132
3033.80690	0.10148
3031.87822	0.10164
3029.94954	0.10178
3028.02087	0.10196
3026.09219	0.10212
3024.16352	0.10226
3022.23484	0.10239
3020.30617	0.10252
3018.37749	0.10264
3016.44881	0.10274
3014.52014	0.10284
3012.59146	0.10297
3010.66279	0.10312
3008.73411	0.10325
3006.80544	0.10337
3004.87676	0.10348
3002.94808	0.10358
3001.01941	0.10368
2999.09073	0.10377
2997.16206	0.10387
2995.23338	0.10395
2993.30471	0.10402
2991.37603	0.10407
2989.44735	0.10406
2987.51868	0.10405
2985.59000	0.10405
2983.66133	0.10405
2981.73265	0.10397
2979.80398	0.10383
2977.87530	0.10363
2975.94662	0.10336
2974.01795	0.10300
2972.08927	0.10262
2970.16060	0.10222
2968.23192	0.10180
2966.30325	0.10141
2964.37457	0.10111
2962.44589	0.10099
2960.51722	0.10107
2958.58854	0.10136
2956.65987	0.10181
2954.73119	0.10243
2952.80252	0.10316
2950.87384	0.10391
2948.94516	0.10459
2947.01649	0.10518
2945.08781	0.10565
2943.15914	0.10599
2941.23046	0.10621
2939.30179	0.10633
2937.37311	0.10639
2935.44443	0.10642
2933.51576	0.10642
2931.58708	0.10638
2929.65841	0.10631
2927.72973	0.10624
2925.80106	0.10623
2923.87238	0.10625
2921.94370	0.10626
2920.01503	0.10630
2918.08635	0.10642
2916.15768	0.10666
2914.22900	0.10705
2912.30033	0.10755
2910.37165	0.10797
2908.44297	0.10826
2906.51430	0.10850
2904.58562	0.10873
2902.65695	0.10897
2900.72827	0.10920
2898.79960	0.10944
2896.87092	0.10971
2894.94224	0.11003
2893.01357	0.11035
2891.08489	0.11066
2889.15622	0.11096
2887.22754	0.11124
2885.29887	0.11147
2883.37019	0.11167
2881.44151	0.11183
2879.51284	0.11199
2877.58416	0.11215
2875.65549	0.11231
2873.72681	0.11245
2871.79814	0.11260
2869.86946	0.11276
2867.94078	0.11290
2866.01211	0.11303
2864.08343	0.11317
2862.15476	0.11328
2860.22608	0.11333
2858.29741	0.11335
2856.36873	0.11335
2854.44005	0.11333
2852.51138	0.11332
2850.58270	0.11343
2848.65403	0.11373
2846.72535	0.11425
2844.79668	0.11482
2842.86800	0.11528
2840.93932	0.11561
2839.01065	0.11590
2837.08197	0.11616
2835.15330	0.11637
2833.22462	0.11655
2831.29595	0.11672
2829.36727	0.11690
2827.43859	0.11709
2825.50992	0.11729
2823.58124	0.11747
2821.65257	0.11764
2819.72389	0.11779
2817.79522	0.11793
2815.86654	0.11809
2813.93786	0.11825
2812.00919	0.11840
2810.08051	0.11857
2808.15184	0.11876
2806.22316	0.11893
2804.29449	0.11907
2802.36581	0.11922
2800.43713	0.11938
2798.50846	0.11954
2796.57978	0.11971
2794.65111	0.11989
2792.72243	0.12006
2790.79376	0.12021
2788.86508	0.12037
2786.93640	0.12057
2785.00773	0.12076
2783.07905	0.12090
2781.15038	0.12103
2779.22170	0.12119
2777.29303	0.12137
2775.36435	0.12153
2773.43567	0.12168
2771.50700	0.12183
2769.57832	0.12199
2767.64965	0.12214
2765.72097	0.12231
2763.79230	0.12247
2761.86362	0.12261
2759.93494	0.12273
2758.00627	0.12285
2756.07759	0.12300
2754.14892	0.12317
2752.22024	0.12333
2750.29157	0.12349
2748.36289	0.12366
2746.43421	0.12382
2744.50554	0.12396
2742.57686	0.12411
2740.64819	0.12425
2738.71951	0.12435
2736.79084	0.12446
2734.86216	0.12460
2732.93348	0.12478
2731.00481	0.12498
2729.07613	0.12515
2727.14746	0.12527
2725.21878	0.12540
2723.29011	0.12552
2721.36143	0.12565
2719.43275	0.12579
2717.50408	0.12596
2715.57540	0.12610
2713.64673	0.12621
2711.71805	0.12633
2709.78938	0.12646
2707.86070	0.12658
2705.93202	0.12672
2704.00335	0.12688
2702.07467	0.12705
2700.14600	0.12721
2698.21732	0.12737
2696.28865	0.12751
2694.35997	0.12763
2692.43129	0.12777
2690.50262	0.12793
2688.57394	0.12809
2686.64527	0.12822
2684.71659	0.12835
2682.78792	0.12850
2680.85924	0.12864
2678.93056	0.12877
2677.00189	0.12887
2675.07321	0.12896
2673.14454	0.12906
2671.21586	0.12919
2669.28719	0.12936
2667.35851	0.12955
2665.42983	0.12974
2663.50116	0.12988
2661.57248	0.13001
2659.64381	0.13017
2657.71513	0.13035
2655.78646	0.13051
2653.85778	0.13066
2651.92910	0.13080
2650.00043	0.13094
2648.07175	0.13110
2646.14308	0.13125
2644.21440	0.13140
2642.28573	0.13157
2640.35705	0.13176
2638.42837	0.13192
2636.49970	0.13205
2634.57102	0.13217
2632.64235	0.13230
2630.71367	0.13246
2628.78500	0.13266
2626.85632	0.13284
2624.92764	0.13301
2622.99897	0.13316
2621.07029	0.13330
2619.14162	0.13344
2617.21294	0.13362
2615.28427	0.13383
2613.35559	0.13400
2611.42691	0.13414
2609.49824	0.13428
2607.56956	0.13445
2605.64089	0.13463
2603.71221	0.13479
2601.78354	0.13491
2599.85486	0.13504
2597.92618	0.13521
2595.99751	0.13539
2594.06883	0.13556
2592.14016	0.13574
2590.21148	0.13591
2588.28281	0.13605
2586.35413	0.13618
2584.42545	0.13631
2582.49678	0.13643
2580.56810	0.13656
2578.63943	0.13670
2576.71075	0.13686
2574.78208	0.13703
2572.85340	0.13722
2570.92472	0.13741
2568.99605	0.13757
2567.06737	0.13770
2565.13870	0.13785
2563.21002	0.13801
2561.28135	0.13816
2559.35267	0.13830
2557.42399	0.13843
2555.49532	0.13856
2553.56664	0.13869
2551.63797	0.13881
2549.70929	0.13897
2547.78062	0.13918
2545.85194	0.13938
2543.92326	0.13953
2541.99459	0.13964
2540.06591	0.13975
2538.13724	0.13987
2536.20856	0.14004
2534.27989	0.14022
2532.35121	0.14040
2530.42253	0.14056
2528.49386	0.14072
2526.56518	0.14088
2524.63651	0.14102
2522.70783	0.14113
2520.77916	0.14128
2518.85048	0.14147
2516.92181	0.14165
2514.99313	0.14183
2513.06445	0.14202
2511.13578	0.14217
2509.20710	0.14233
2507.27843	0.14250
2505.34975	0.14267
2503.42108	0.14284
2501.49240	0.14304
2499.56372	0.14324
2497.63505	0.14341
2495.70637	0.14354
2493.77770	0.14366
2491.84902	0.14381
2489.92035	0.14397
2487.99167	0.14414
2486.06299	0.14430
2484.13432	0.14446
2482.20564	0.14468
2480.27697	0.14490
2478.34829	0.14507
2476.41962	0.14524
2474.49094	0.14540
2472.56226	0.14554
2470.63359	0.14569
2468.70491	0.14586
2466.77624	0.14602
2464.84756	0.14616
2462.91889	0.14630
2460.99021	0.14644
2459.06153	0.14660
2457.13286	0.14675
2455.20418	0.14691
2453.27551	0.14710
2451.34683	0.14732
2449.41816	0.14752
2447.48948	0.14765
2445.56080	0.14777
2443.63213	0.14792
2441.70345	0.14811
2439.77478	0.14829
2437.84610	0.14843
2435.91743	0.14853
2433.98875	0.14867
2432.06007	0.14885
2430.13140	0.14902
2428.20272	0.14917
2426.27405	0.14933
2424.34537	0.14953
2422.41670	0.14973
2420.48802	0.14986
2418.55934	0.14998
2416.63067	0.15016
2414.70199	0.15037
2412.77332	0.15052
2410.84464	0.15065
2408.91597	0.15081
2406.98729	0.15098
2405.05861	0.15114
2403.12994	0.15130
2401.20126	0.15145
2399.27259	0.15155
2397.34391	0.15166
2395.41524	0.15181
2393.48656	0.15198
2391.55788	0.15211
2389.62921	0.15223
2387.70053	0.15237
2385.77186	0.15251
2383.84318	0.15263
2381.91451	0.15276
2379.98583	0.15290
2378.05715	0.15299
2376.12848	0.15302
2374.19980	0.15303
2372.27113	0.15302
2370.34245	0.15300
2368.41378	0.15301
2366.48510	0.15310
2364.55642	0.15324
2362.62775	0.15337
2360.69907	0.15352
2358.77040	0.15372
2356.84172	0.15393
2354.91305	0.15417
2352.98437	0.15447
2351.05569	0.15479
2349.12702	0.15502
2347.19834	0.15512
2345.26967	0.15518
2343.34099	0.15525
2341.41232	0.15533
2339.48364	0.15543
2337.55496	0.15559
2335.62629	0.15575
2333.69761	0.15588
2331.76894	0.15602
2329.84026	0.15619
2327.91159	0.15641
2325.98291	0.15663
2324.05423	0.15684
2322.12556	0.15708
2320.19688	0.15731
2318.26821	0.15750
2316.33953	0.15769
2314.41086	0.15789
2312.48218	0.15809
2310.55350	0.15828
2308.62483	0.15846
2306.69615	0.15862
2304.76748	0.15879
2302.83880	0.15898
2300.91013	0.15920
2298.98145	0.15941
2297.05277	0.15958
2295.12410	0.15970
2293.19542	0.15981
2291.26675	0.15995
2289.33807	0.16011
2287.40940	0.16026
2285.48072	0.16038
2283.55204	0.16053
2281.62337	0.16069
2279.69469	0.16085
2277.76602	0.16103
2275.83734	0.16120
2273.90867	0.16134
2271.97999	0.16148
2270.05131	0.16163
2268.12264	0.16177
2266.19396	0.16191
2264.26529	0.16207
2262.33661	0.16224
2260.40794	0.16240
2258.47926	0.16252
2256.55058	0.16262
2254.62191	0.16273
2252.69323	0.16287
2250.76456	0.16306
2248.83588	0.16327
2246.90721	0.16344
2244.97853	0.16355
2243.04985	0.16364
2241.12118	0.16374
2239.19250	0.16391
2237.26383	0.16412
2235.33515	0.16429
2233.40648	0.16442
2231.47780	0.16454
2229.54912	0.16468
2227.62045	0.16483
2225.69177	0.16493
2223.76310	0.16500
2221.83442	0.16514
2219.90575	0.16534
2217.97707	0.16554
2216.04839	0.16571
2214.11972	0.16585
2212.19104	0.16597
2210.26237	0.16609
2208.33369	0.16619
2206.40502	0.16631
2204.47634	0.16643
2202.54766	0.16659
2200.61899	0.16676
2198.69031	0.16691
2196.76164	0.16704
2194.83296	0.16717
2192.90429	0.16728
2190.97561	0.16740
2189.04693	0.16754
2187.11826	0.16770
2185.18958	0.16784
2183.26091	0.16795
2181.33223	0.16807
2179.40356	0.16821
2177.47488	0.16835
2175.54620	0.16848
2173.61753	0.16860
2171.68885	0.16872
2169.76018	0.16885
2167.83150	0.16898
2165.90283	0.16909
2163.97415	0.16922
2162.04547	0.16937
2160.11680	0.16948
2158.18812	0.16958
2156.25945	0.16974
2154.33077	0.16994
2152.40210	0.17009
2150.47342	0.17019
2148.54474	0.17030
2146.61607	0.17046
2144.68739	0.17063
2142.75872	0.17078
2140.83004	0.17093
2138.90137	0.17108
2136.97269	0.17123
2135.04401	0.17140
2133.11534	0.17160
2131.18666	0.17179
2129.25799	0.17196
2127.32931	0.17213
2125.40064	0.17232
2123.47196	0.17249
2121.54328	0.17267
2119.61461	0.17286
2117.68593	0.17306
2115.75726	0.17325
2113.82858	0.17341
2111.89991	0.17358
2109.97123	0.17378
2108.04255	0.17400
2106.11388	0.17420
2104.18520	0.17438
2102.25653	0.17459
2100.32785	0.17481
2098.39918	0.17498
2096.47050	0.17514
2094.54182	0.17530
2092.61315	0.17546
2090.68447	0.17565
2088.75580	0.17585
2086.82712	0.17605
2084.89845	0.17624
2082.96977	0.17643
2081.04109	0.17662
2079.11242	0.17682
2077.18374	0.17704
2075.25507	0.17727
2073.32639	0.17750
2071.39772	0.17767
2069.46904	0.17780
2067.54036	0.17796
2065.61169	0.17812
2063.68301	0.17827
2061.75434	0.17845
2059.82566	0.17863
2057.89699	0.17881
2055.96831	0.17900
2054.03963	0.17921
2052.11096	0.17944
2050.18228	0.17966
2048.25361	0.17983
2046.32493	0.17993
2044.39626	0.18004
2042.46758	0.18020
2040.53890	0.18039
2038.61023	0.18057
2036.68155	0.18071
2034.75288	0.18087
2032.82420	0.18107
2030.89553	0.18127
2028.96685	0.18144
2027.03817	0.18159
2025.10950	0.18171
2023.18082	0.18183
2021.25215	0.18197
2019.32347	0.18214
2017.39480	0.18228
2015.46612	0.18243
2013.53744	0.18263
2011.60877	0.18285
2009.68009	0.18303
2007.75142	0.18319
2005.82274	0.18335
2003.89407	0.18352
2001.96539	0.18367
2000.03671	0.18381
1998.10804	0.18394
1996.17936	0.18407
1994.25069	0.18419
1992.32201	0.18430
1990.39334	0.18440
1988.46466	0.18453
1986.53598	0.18471
1984.60731	0.18487
1982.67863	0.18497
1980.74996	0.18509
1978.82128	0.18528
1976.89261	0.18544
1974.96393	0.18556
1973.03525	0.18567
1971.10658	0.18582
1969.17790	0.18594
1967.24923	0.18604
1965.32055	0.18614
1963.39188	0.18628
1961.46320	0.18643
1959.53452	0.18658
1957.60585	0.18672
1955.67717	0.18686
1953.74850	0.18700
1951.81982	0.18712
1949.89115	0.18722
1947.96247	0.18734
1946.03379	0.18743
1944.10512	0.18750
1942.17644	0.18767
1940.24777	0.18792
1938.31909	0.18813
1936.39042	0.18830
1934.46174	0.18845
1932.53306	0.18858
1930.60439	0.18872
1928.67571	0.18891
1926.74704	0.18909
1924.81836	0.18919
1922.88969	0.18930
1920.96101	0.18939
1919.03233	0.18943
1917.10366	0.18958
1915.17498	0.18990
1913.24631	0.19016
1911.31763	0.19028
1909.38896	0.19036
1907.46028	0.19049
1905.53160	0.19067
1903.60293	0.19085
1901.67425	0.19103
1899.74558	0.19118
1897.81690	0.19130
1895.88823	0.19141
1893.95955	0.19152
1892.03087	0.19158
1890.10220	0.19164
1888.17352	0.19183
1886.24485	0.19206
1884.31617	0.19222
1882.38750	0.19234
1880.45882	0.19249
1878.53014	0.19267
1876.60147	0.19282
1874.67279	0.19293
1872.74412	0.19298
1870.81544	0.19293
1868.88677	0.19294
1866.95809	0.19318
1865.02941	0.19354
1863.10074	0.19379
1861.17206	0.19391
1859.24339	0.19404
1857.31471	0.19424
1855.38604	0.19442
1853.45736	0.19456
1851.52868	0.19470
1849.60001	0.19482
1847.67133	0.19481
1845.74266	0.19469
1843.81398	0.19476
1841.88531	0.19516
1839.95663	0.19556
1838.02795	0.19575
1836.09928	0.19589
1834.17060	0.19602
1832.24193	0.19597
1830.31325	0.19587
1828.38458	0.19598
1826.45590	0.19619
1824.52722	0.19639
1822.59855	0.19666
1820.66987	0.19688
1818.74120	0.19702
1816.81252	0.19714
1814.88385	0.19726
1812.95517	0.19735
1811.02649	0.19746
1809.09782	0.19760
1807.16914	0.19777
1805.24047	0.19785
1803.31179	0.19781
1801.38312	0.19780
1799.45444	0.19797
1797.52576	0.19820
1795.59709	0.19825
1793.66841	0.19814
1791.73974	0.19820
1789.81106	0.19853
1787.88239	0.19881
1785.95371	0.19888
1784.02503	0.19891
1782.09636	0.19899
1780.16768	0.19912
1778.23901	0.19930
1776.31033	0.19936
1774.38166	0.19918
1772.45298	0.19902
1770.52430	0.19911
1768.59563	0.19941
1766.66695	0.19974
1764.73828	0.19995
1762.80960	0.19998
1760.88093	0.19998
1758.95225	0.19998
1757.02357	0.19996
1755.09490	0.19999
1753.16622	0.19984
1751.23755	0.19956
1749.30887	0.19954
1747.38020	0.19976
1745.45152	0.19988
1743.52284	0.19984
1741.59417	0.19978
1739.66549	0.19985
1737.73682	0.19984
1735.80814	0.19948
1733.87947	0.19925
1731.95079	0.19961
1730.02211	0.20015
1728.09344	0.20058
1726.16476	0.20087
1724.23609	0.20101
1722.30741	0.20100
1720.37874	0.20074
1718.45006	0.20043
1716.52138	0.20053
1714.59271	0.20104
1712.66403	0.20156
1710.73536	0.20185
1708.80668	0.20184
1706.87801	0.20169
1704.94933	0.20164
1703.02065	0.20147
1701.09198	0.20112
1699.16330	0.20108
1697.23463	0.20136
1695.30595	0.20173
1693.37728	0.20222
1691.44860	0.20248
1689.51992	0.20241
1687.59125	0.20215
1685.66257	0.20171
1683.73390	0.20159
1681.80522	0.20205
1679.87655	0.20253
1677.94787	0.20253
1676.01919	0.20228
1674.09052	0.20222
1672.16184	0.20229
1670.23317	0.20235
1668.30449	0.20266
1666.37582	0.20306
1664.44714	0.20312
1662.51846	0.20304
1660.58979	0.20316
1658.66111	0.20325
1656.73244	0.20285
1654.80376	0.20207
1652.87509	0.20183
1650.94641	0.20235
1649.01773	0.20265
1647.08906	0.20257
1645.16038	0.20280
1643.23171	0.20326
1641.30303	0.20349
1639.37436	0.20339
1637.44568	0.20311
1635.51700	0.20307
1633.58833	0.20347
1631.65965	0.20384
1629.73098	0.20382
1627.80230	0.20365
1625.87363	0.20341
1623.94495	0.20303
1622.01627	0.20272
1620.08760	0.20263
1618.15892	0.20275
1616.23025	0.20329
1614.30157	0.20411
1612.37290	0.20471
1610.44422	0.20507
1608.51554	0.20540
1606.58687	0.20571
1604.65819	0.20594
1602.72952	0.20612
1600.80084	0.20630
1598.87217	0.20648
1596.94349	0.20664
1595.01481	0.20678
1593.08614	0.20692
1591.15746	0.20704
1589.22879	0.20716
1587.30011	0.20735
1585.37144	0.20756
1583.44276	0.20773
1581.51408	0.20781
1579.58541	0.20773
1577.65673	0.20755
1575.72806	0.20762
1573.79938	0.20798
1571.87071	0.20813
1569.94203	0.20810
1568.01335	0.20825
1566.08468	0.20850
1564.15600	0.20865
1562.22733	0.20844
1560.29865	0.20787
1558.36998	0.20772
1556.44130	0.20831
1554.51262	0.20902
1552.58395	0.20942
1550.65527	0.20962
1548.72660	0.20974
1546.79792	0.20969
1544.86925	0.20937
1542.94057	0.20899
1541.01189	0.20887
1539.08322	0.20920
1537.15454	0.20977
1535.22587	0.20999
1533.29719	0.20999
1531.36852	0.21022
1529.43984	0.21041
1527.51116	0.21033
1525.58249	0.21018
1523.65381	0.20992
1521.72514	0.20964
1519.79646	0.20973
1517.86779	0.21003
1515.93911	0.21028
1514.01043	0.21046
1512.08176	0.21046
1510.15308	0.21020
1508.22441	0.20988
1506.29573	0.21000
1504.36706	0.21064
1502.43838	0.21109
1500.50970	0.21102
1498.58103	0.21076
1496.65235	0.21070
1494.72368	0.21086
1492.79500	0.21085
1490.86633	0.21054
1488.93765	0.21030
1487.00897	0.21038
1485.08030	0.21056
1483.15162	0.21060
1481.22295	0.21051
1479.29427	0.21026
1477.36560	0.20974
1475.43692	0.20904
1473.50824	0.20843
1471.57957	0.20818
1469.65089	0.20817
1467.72222	0.20794
1465.79354	0.20756
1463.86487	0.20737
1461.93619	0.20719
1460.00751	0.20656
1458.07884	0.20577
1456.15016	0.20561
1454.22149	0.20608
1452.29281	0.20643
1450.36414	0.20641
1448.43546	0.20628
1446.50678	0.20636
1444.57811	0.20662
1442.64943	0.20682
1440.72076	0.20681
1438.79208	0.20652
1436.86341	0.20632
1434.93473	0.20666
1433.00605	0.20712
1431.07738	0.20726
1429.14870	0.20729
1427.22003	0.20736
1425.29135	0.20729
1423.36268	0.20706
1421.43400	0.20663
1419.50532	0.20622
1417.57665	0.20626
1415.64797	0.20657
1413.71930	0.20673
1411.79062	0.20672
1409.86195	0.20669
1407.93327	0.20663
1406.00459	0.20653
1404.07592	0.20651
1402.14724	0.20654
1400.21857	0.20647
1398.28989	0.20638
1396.36122	0.20637
1394.43254	0.20651
1392.50386	0.20679
1390.57519	0.20687
1388.64651	0.20658
1386.71784	0.20621
1384.78916	0.20608
1382.86049	0.20621
1380.93181	0.20640
1379.00313	0.20643
1377.07446	0.20625
1375.14578	0.20603
1373.21711	0.20600
1371.28843	0.20613
1369.35976	0.20612
1367.43108	0.20601
1365.50240	0.20590
1363.57373	0.20576
1361.64505	0.20564
1359.71638	0.20564
1357.78770	0.20567
1355.85903	0.20570
1353.93035	0.20579
1352.00167	0.20595
1350.07300	0.20610
1348.14432	0.20621
1346.21565	0.20632
1344.28697	0.20640
1342.35830	0.20632
1340.42962	0.20611
1338.50094	0.20602
1336.57227	0.20607
1334.64359	0.20606
1332.71492	0.20595
1330.78624	0.20577
1328.85757	0.20555
1326.92889	0.20533
1325.00021	0.20514
1323.07154	0.20497
1321.14286	0.20476
1319.21419	0.20456
1317.28551	0.20439
1315.35684	0.20420
1313.42816	0.20398
1311.49948	0.20376
1309.57081	0.20354
1307.64213	0.20327
1305.71346	0.20295
1303.78478	0.20264
1301.85611	0.20237
1299.92743	0.20212
1297.99875	0.20189
1296.07008	0.20165
1294.14140	0.20139
1292.21273	0.20108
1290.28405	0.20074
1288.35538	0.20048
1286.42670	0.20024
1284.49802	0.19992
1282.56935	0.19951
1280.64067	0.19899
1278.71200	0.19834
1276.78332	0.19754
1274.85465	0.19647
1272.92597	0.19504
1270.99729	0.19321
1269.06862	0.19090
1267.13994	0.18821
1265.21127	0.18533
1263.28259	0.18261
1261.35392	0.18060
1259.42524	0.17971
1257.49656	0.17985
1255.56789	0.18057
1253.63921	0.18149
1251.71054	0.18266
1249.78186	0.18431
1247.85319	0.18625
1245.92451	0.18800
1243.99583	0.18928
1242.06716	0.19013
1240.13848	0.19067
1238.20981	0.19091
1236.28113	0.19086
1234.35246	0.19063
1232.42378	0.19030
1230.49510	0.18980
1228.56643	0.18917
1226.63775	0.18860
1224.70908	0.18814
1222.78040	0.18770
1220.85173	0.18721
1218.92305	0.18668
1216.99437	0.18614
1215.06570	0.18550
1213.13702	0.18481
1211.20835	0.18424
1209.27967	0.18374
1207.35100	0.18317
1205.42232	0.18250
1203.49364	0.18183
1201.56497	0.18121
1199.63629	0.18058
1197.70762	0.17992
1195.77894	0.17926
1193.85027	0.17856
1191.92159	0.17778
1189.99291	0.17697
1188.06424	0.17618
1186.13556	0.17532
1184.20689	0.17442
1182.27821	0.17355
1180.34954	0.17270
1178.42086	0.17181
1176.49218	0.17093
1174.56351	0.17003
1172.63483	0.16906
1170.70616	0.16807
1168.77748	0.16712
1166.84881	0.16616
1164.92013	0.16515
1162.99145	0.16412
1161.06278	0.16314
1159.13410	0.16219
1157.20543	0.16128
1155.27675	0.16037
1153.34808	0.15943
1151.41940	0.15848
1149.49072	0.15754
1147.56205	0.15654
1145.63337	0.15545
1143.70470	0.15436
1141.77602	0.15323
1139.84735	0.15198
1137.91867	0.15064
1135.98999	0.14919
1134.06132	0.14758
1132.13264	0.14581
1130.20397	0.14378
1128.27529	0.14155
1126.34662	0.13920
1124.41794	0.13670
1122.48926	0.13415
1120.56059	0.13167
1118.63191	0.12930
1116.70324	0.12714
1114.77456	0.12519
1112.84589	0.12341
1110.91721	0.12183
1108.98853	0.12050
1107.05986	0.11948
1105.13118	0.11873
1103.20251	0.11821
1101.27383	0.11794
1099.34516	0.11792
1097.41648	0.11807
1095.48780	0.11829
1093.55913	0.11854
1091.63045	0.11875
1089.70178	0.11894
1087.77310	0.11914
1085.84443	0.11925
1083.91575	0.11921
1081.98707	0.11911
1080.05840	0.11898
1078.12972	0.11881
1076.20105	0.11854
1074.27237	0.11818
1072.34370	0.11789
1070.41502	0.11768
1068.48634	0.11747
1066.55767	0.11726
1064.62899	0.11709
1062.70032	0.11693
1060.77164	0.11676
1058.84297	0.11664
1056.91429	0.11652
1054.98561	0.11637
1053.05694	0.11621
1051.12826	0.11614
1049.19959	0.11617
1047.27091	0.11632
1045.34224	0.11653
1043.41356	0.11674
1041.48488	0.11697
1039.55621	0.11725
1037.62753	0.11753
1035.69886	0.11778
1033.77018	0.11804
1031.84151	0.11834
1029.91283	0.11878
1027.98415	0.11935
1026.05548	0.11996
1024.12680	0.12062
1022.19813	0.12140
1020.26945	0.12229
1018.34078	0.12335
1016.41210	0.12458
1014.48342	0.12588
1012.55475	0.12719
1010.62607	0.12855
1008.69740	0.12997
1006.76872	0.13137
1004.84005	0.13270
1002.91137	0.13396
1000.98269	0.13522
999.05402	0.13640
997.12534	0.13742
995.19667	0.13830
993.26799	0.13911
991.33932	0.13986
989.41064	0.14053
987.48196	0.14112
985.55329	0.14172
983.62461	0.14231
981.69594	0.14278
979.76726	0.14311
977.83859	0.14339
975.90991	0.14365
973.98123	0.14389
972.05256	0.14409
970.12388	0.14421
968.19521	0.14423
966.26653	0.14421
964.33786	0.14421
962.40918	0.14422
960.48050	0.14416
958.55183	0.14405
956.62315	0.14397
954.69448	0.14392
952.76580	0.14378
950.83713	0.14356
948.90845	0.14338
946.97977	0.14324
945.05110	0.14307
943.12242	0.14284
941.19375	0.14249
939.26507	0.14200
937.33640	0.14144
935.40772	0.14090
933.47904	0.14041
931.55037	0.13990
929.62169	0.13935
927.69302	0.13882
925.76434	0.13828
923.83567	0.13764
921.90699	0.13696
919.97831	0.13626
918.04964	0.13543
916.12096	0.13440
914.19229	0.13325
912.26361	0.13211
910.33494	0.13115
908.40626	0.13041
906.47758	0.12977
904.54891	0.12915
902.62023	0.12860
900.69156	0.12808
898.76288	0.12753
896.83421	0.12696
894.90553	0.12640
892.97685	0.12585
891.04818	0.12534
889.11950	0.12484
887.19083	0.12434
885.26215	0.12387
883.33348	0.12343
881.40480	0.12292
879.47612	0.12235
877.54745	0.12182
875.61877	0.12143
873.69010	0.12110
871.76142	0.12069
869.83275	0.12026
867.90407	0.11983
865.97539	0.11936
864.04672	0.11891
862.11804	0.11854
860.18937	0.11818
858.26069	0.11776
856.33202	0.11722
854.40334	0.11648
852.47466	0.11557
850.54599	0.11456
848.61731	0.11342
846.68864	0.11224
844.75996	0.11115
842.83129	0.11025
840.90261	0.10965
838.97394	0.10942
837.04526	0.10946
835.11658	0.10963
833.18791	0.10973
831.25923	0.10961
829.33056	0.10925
827.40188	0.10870
825.47321	0.10804
823.54453	0.10737
821.61585	0.10671
819.68718	0.10601
817.75850	0.10532
815.82983	0.10467
813.90115	0.10400
811.97248	0.10332
810.04380	0.10258
808.11512	0.10179
806.18645	0.10105
804.25777	0.10045
802.32910	0.09995
800.40042	0.09935
798.47175	0.09861
796.54307	0.09795
794.61439	0.09762
792.68572	0.09770
790.75704	0.09804
788.82837	0.09839
786.89969	0.09865
784.97102	0.09888
783.04234	0.09905
781.11366	0.09913
779.18499	0.09910
777.25631	0.09900
775.32764	0.09892
773.39896	0.09883
771.47029	0.09870
769.54161	0.09857
767.61293	0.09843
765.68426	0.09825
763.75558	0.09802
761.82691	0.09772
759.89823	0.09735
757.96956	0.09695
756.04088	0.09652
754.11220	0.09611
752.18353	0.09586
750.25485	0.09577
748.32618	0.09564
746.39750	0.09538
744.46883	0.09491
742.54015	0.09426
740.61147	0.09363
738.68280	0.09325
736.75412	0.09316
734.82545	0.09325
732.89677	0.09341
730.96810	0.09353
729.03942	0.09358
727.11074	0.09360
725.18207	0.09367
723.25339	0.09377
721.32472	0.09393
719.39604	0.09425
717.46737	0.09462
715.53869	0.09497
713.61001	0.09535
711.68134	0.09575
709.75266	0.09604
707.82399	0.09612
705.89531	0.09603
703.96664	0.09582
702.03796	0.09547
700.10928	0.09500
698.18061	0.09450
696.25193	0.09398
694.32326	0.09338
692.39458	0.09277
690.46591	0.09219
688.53723	0.09165
686.60855	0.09114
684.67988	0.09070
682.75120	0.09027
680.82253	0.08982
678.89385	0.08932
676.96518	0.08878
675.03650	0.08822
673.10782	0.08760
671.17915	0.08683
669.25047	0.08594
667.32180	0.08511
665.39312	0.08443
663.46445	0.08372
661.53577	0.08290
659.60709	0.08205
657.67842	0.08127
655.74974	0.08055
653.82107	0.07979
651.89239	0.07897
649.96372	0.07813
648.03504	0.07728
646.10636	0.07637
644.17769	0.07540
642.24901	0.07440
640.32034	0.07342
638.39166	0.07235
636.46299	0.07119
634.53431	0.07003
632.60563	0.06862
630.67696	0.06633
628.74828	0.06279
626.81961	0.05835
624.89093	0.05392
622.96226	0.05041
621.03358	0.04822
619.10490	0.04706
617.17623	0.04632
615.24755	0.04556
613.31888	0.04454
611.39020	0.04342
609.46153	0.04279
607.53285	0.04285
605.60417	0.04330
603.67550	0.04395
601.74682	0.04483
599.81815	0.04581
597.88947	0.04662
595.96080	0.04719
594.03212	0.04757
592.10344	0.04783
590.17477	0.04805
588.24609	0.04812
586.31742	0.04791
584.38874	0.04749
582.46007	0.04713
580.53139	0.04682
578.60271	0.04634
576.67404	0.04571
574.74536	0.04510
572.81669	0.04453
570.88801	0.04395
568.95934	0.04336
567.03066	0.04283
565.10198	0.04246
563.17331	0.04224
561.24463	0.04198
559.31596	0.04167
557.38728	0.04139
555.45861	0.04116
553.52993	0.04100
551.60125	0.04083
549.67258	0.04063
547.74390	0.04041
545.81523	0.04016
543.88655	0.03993
541.95788	0.03976
540.02920	0.03962
538.10052	0.03951
536.17185	0.03946
534.24317	0.03933
532.31450	0.03906
530.38582	0.03879
528.45715	0.03851
526.52847	0.03818
524.59979	0.03784
522.67112	0.03741
520.74244	0.03689
518.81377	0.03633
516.88509	0.03575
514.95642	0.03529
513.02774	0.03499
511.09906	0.03476
509.17039	0.03455
507.24171	0.03436
505.31304	0.03407
503.38436	0.03369
501.45569	0.03328
499.52701	0.03277
497.59833	0.03215
495.66966	0.03151
493.74098	0.03092
491.81231	0.03032
489.88363	0.02974
487.95496	0.02920
486.02628	0.02872
484.09760	0.02824
482.16893	0.02770
480.24025	0.02713
478.31158	0.02657
476.38290	0.02606
474.45423	0.02556
472.52555	0.02494
470.59687	0.02429
468.66820	0.02381
466.73952	0.02353
464.81085	0.02330
462.88217	0.02300
460.95350	0.02271
459.02482	0.02260
457.09614	0.02261
455.16747	0.02261
453.23879	0.02263
451.31012	0.02268
449.38144	0.02264
447.45277	0.02255
445.52409	0.02250
443.59541	0.02236
441.66674	0.02203
439.73806	0.02158
437.80939	0.02109
435.88071	0.02056
433.95204	0.01998
432.02336	0.01944
430.09468	0.01891
428.16601	0.01828
426.23733	0.01762
424.30866	0.01704
422.37998	0.01649
420.45131	0.01593
418.52263	0.01540
416.59395	0.01484
414.66528	0.01421
412.73660	0.01351
410.80793	0.01275
408.87925	0.01205
406.95058	0.01146
405.02190	0.01087
403.09322	0.01021
401.16455	0.00950
399.23587	0.00885
397.30720	0.00837
395.37852	0.00798
393.44985	0.00755
391.52117	0.00704
389.59249	0.00652
387.66382	0.00604
385.73514	0.00558
383.80647	0.00514
381.87779	0.00486
379.94912	0.00460
378.02044	0.00414
376.09176	0.00371
374.16309	0.00348
372.23441	0.00327
370.30574	0.00296
368.37706	0.00267
