7496.76250	0.00148
7494.83382	0.00150
7492.90514	0.00151
7490.97647	0.00152
7489.04779	0.00152
7487.11912	0.00152
7485.19044	0.00153
7483.26177	0.00154
7481.33309	0.00154
7479.40441	0.00154
7477.47574	0.00154
7475.54706	0.00155
7473.61839	0.00155
7471.68971	0.00156
7469.76104	0.00157
7467.83236	0.00158
7465.90368	0.00158
7463.97501	0.00158
7462.04633	0.00158
7460.11766	0.00157
7458.18898	0.00157
7456.26031	0.00157
7454.33163	0.00158
7452.40295	0.00160
7450.47428	0.00162
7448.54560	0.00164
7446.61693	0.00164
7444.68825	0.00164
7442.75958	0.00163
7440.83090	0.00163
7438.90222	0.00163
7436.97355	0.00163
7435.04487	0.00164
7433.11620	0.00166
7431.18752	0.00167
7429.25885	0.00167
7427.33017	0.00166
7425.40149	0.00166
7423.47282	0.00167
7421.54414	0.00168
7419.61547	0.00168
7417.68679	0.00170
7415.75812	0.00171
7413.82944	0.00173
7411.90076	0.00173
7409.97209	0.00172
7408.04341	0.00171
7406.11474	0.00170
7404.18606	0.00170
7402.25739	0.00170
7400.32871	0.00170
7398.40003	0.00172
7396.47136	0.00174
7394.54268	0.00173
7392.61401	0.00171
7390.68533	0.00171
7388.75666	0.00172
7386.82798	0.00173
7384.89930	0.00175
7382.97063	0.00176
7381.04195	0.00175
7379.11328	0.00175
7377.18460	0.00175
7375.25593	0.00175
7373.32725	0.00176
7371.39857	0.00176
7369.46990	0.00177
7367.54122	0.00178
7365.61255	0.00180
7363.68387	0.00180
7361.75520	0.00179
7359.82652	0.00179
7357.89784	0.00180
7355.96917	0.00180
7354.04049	0.00181
7352.11182	0.00182
7350.18314	0.00184
7348.25447	0.00183
7346.32579	0.00183
7344.39711	0.00185
7342.46844	0.00187
7340.53976	0.00186
7338.61109	0.00185
7336.68241	0.00185
7334.75374	0.00187
7332.82506	0.00187
7330.89638	0.00187
7328.96771	0.00188
7327.03903	0.00189
7325.11036	0.00190
7323.18168	0.00190
7321.25301	0.00190
7319.32433	0.00191
7317.39565	0.00191
7315.46698	0.00192
7313.53830	0.00193
7311.60963	0.00194
7309.68095	0.00193
7307.75228	0.00192
7305.82360	0.00191
7303.89492	0.00192
7301.96625	0.00193
7300.03757	0.00193
7298.10890	0.00193
7296.18022	0.00194
7294.25155	0.00195
7292.32287	0.00197
7290.39419	0.00198
7288.46552	0.00197
7286.53684	0.00197
7284.60817	0.00197
7282.67949	0.00197
7280.75082	0.00198
7278.82214	0.00200
7276.89346	0.00202
7274.96479	0.00202
7273.03611	0.00201
7271.10744	0.00200
7269.17876	0.00201
7267.25009	0.00202
7265.32141	0.00202
7263.39273	0.00202
7261.46406	0.00204
7259.53538	0.00205
7257.60671	0.00206
7255.67803	0.00207
7253.74936	0.00209
7251.82068	0.00210
7249.89200	0.00211
7247.96333	0.00211
7246.03465	0.00211
7244.10598	0.00212
7242.17730	0.00210
7240.24863	0.00208
7238.31995	0.00208
7236.39127	0.00210
7234.46260	0.00213
7232.53392	0.00214
7230.60525	0.00214
7228.67657	0.00214
7226.74790	0.00214
7224.81922	0.00213
7222.89054	0.00212
7220.96187	0.00212
7219.03319	0.00213
7217.10452	0.00214
7215.17584	0.00215
7213.24717	0.00217
7211.31849	0.00218
7209.38981	0.00219
7207.46114	0.00220
7205.53246	0.00220
7203.60379	0.00220
7201.67511	0.00221
7199.74644	0.00221
7197.81776	0.00220
7195.88908	0.00220
7193.96041	0.00221
7192.03173	0.00222
7190.10306	0.00222
7188.17438	0.00223
7186.24571	0.00224
7184.31703	0.00224
7182.38835	0.00224
7180.45968	0.00224
7178.53100	0.00226
7176.60233	0.00227
7174.67365	0.00228
7172.74498	0.00228
7170.81630	0.00229
7168.88762	0.00230
7166.95895	0.00231
7165.03027	0.00231
7163.10160	0.00231
7161.17292	0.00231
7159.24425	0.00232
7157.31557	0.00233
7155.38689	0.00233
7153.45822	0.00233
7151.52954	0.00234
7149.60087	0.00235
7147.67219	0.00236
7145.74352	0.00236
7143.81484	0.00236
7141.88616	0.00237
7139.95749	0.00238
7138.02881	0.00240
7136.10014	0.00239
7134.17146	0.00238
7132.24279	0.00237
7130.31411	0.00236
7128.38543	0.00237
7126.45676	0.00239
7124.52808	0.00241
7122.59941	0.00242
7120.67073	0.00242
7118.74206	0.00241
7116.81338	0.00242
7114.88470	0.00243
7112.95603	0.00245
7111.02735	0.00247
7109.09868	0.00246
7107.17000	0.00246
7105.24133	0.00247
7103.31265	0.00248
7101.38397	0.00248
7099.45530	0.00248
7097.52662	0.00247
7095.59795	0.00247
7093.66927	0.00250
7091.74060	0.00252
7089.81192	0.00252
7087.88324	0.00250
7085.95457	0.00250
7084.02589	0.00252
7082.09722	0.00253
7080.16854	0.00254
7078.23987	0.00255
7076.31119	0.00256
7074.38251	0.00257
7072.45384	0.00257
7070.52516	0.00257
7068.59649	0.00257
7066.66781	0.00257
7064.73914	0.00258
7062.81046	0.00259
7060.88178	0.00260
7058.95311	0.00260
7057.02443	0.00259
7055.09576	0.00259
7053.16708	0.00261
7051.23841	0.00262
7049.30973	0.00262
7047.38105	0.00262
7045.45238	0.00263
7043.52370	0.00263
7041.59503	0.00264
7039.66635	0.00266
7037.73768	0.00267
7035.80900	0.00269
7033.88032	0.00269
7031.95165	0.00269
7030.02297	0.00268
7028.09430	0.00267
7026.16562	0.00268
7024.23695	0.00270
7022.30827	0.00271
7020.37959	0.00272
7018.45092	0.00272
7016.52224	0.00271
7014.59357	0.00271
7012.66489	0.00273
7010.73622	0.00274
7008.80754	0.00274
7006.87886	0.00274
7004.95019	0.00273
7003.02151	0.00274
7001.09284	0.00275
6999.16416	0.00276
6997.23549	0.00277
6995.30681	0.00277
6993.37813	0.00277
6991.44946	0.00279
6989.52078	0.00280
6987.59211	0.00281
6985.66343	0.00282
6983.73476	0.00284
6981.80608	0.00285
6979.87740	0.00285
6977.94873	0.00285
6976.02005	0.00285
6974.09138	0.00286
6972.16270	0.00287
6970.23403	0.00287
6968.30535	0.00288
6966.37667	0.00288
6964.44800	0.00289
6962.51932	0.00290
6960.59065	0.00292
6958.66197	0.00292
6956.73330	0.00292
6954.80462	0.00291
6952.87594	0.00290
6950.94727	0.00290
6949.01859	0.00290
6947.08992	0.00292
6945.16124	0.00293
6943.23257	0.00294
6941.30389	0.00296
6939.37521	0.00297
6937.44654	0.00299
6935.51786	0.00301
6933.58919	0.00301
6931.66051	0.00299
6929.73184	0.00299
6927.80316	0.00300
6925.87448	0.00301
6923.94581	0.00302
6922.01713	0.00302
6920.08846	0.00302
6918.15978	0.00301
6916.23111	0.00302
6914.30243	0.00303
6912.37375	0.00305
6910.44508	0.00304
6908.51640	0.00305
6906.58773	0.00308
6904.65905	0.00310
6902.73038	0.00312
6900.80170	0.00312
6898.87302	0.00311
6896.94435	0.00312
6895.01567	0.00314
6893.08700	0.00316
6891.15832	0.00317
6889.22965	0.00317
6887.30097	0.00317
6885.37229	0.00318
6883.44362	0.00318
6881.51494	0.00318
6879.58627	0.00318
6877.65759	0.00318
6875.72892	0.00318
6873.80024	0.00319
6871.87156	0.00321
6869.94289	0.00323
6868.01421	0.00325
6866.08554	0.00325
6864.15686	0.00324
6862.22819	0.00324
6860.29951	0.00324
6858.37083	0.00324
6856.44216	0.00325
6854.51348	0.00326
6852.58481	0.00328
6850.65613	0.00330
6848.72746	0.00330
6846.79878	0.00331
6844.87010	0.00331
6842.94143	0.00331
6841.01275	0.00331
6839.08408	0.00331
6837.15540	0.00331
6835.22673	0.00332
6833.29805	0.00334
6831.36937	0.00334
6829.44070	0.00335
6827.51202	0.00336
6825.58335	0.00338
6823.65467	0.00337
6821.72600	0.00337
6819.79732	0.00337
6817.86864	0.00338
6815.93997	0.00340
6814.01129	0.00341
6812.08262	0.00341
6810.15394	0.00342
6808.22527	0.00343
6806.29659	0.00344
6804.36791	0.00345
6802.43924	0.00347
6800.51056	0.00348
6798.58189	0.00346
6796.65321	0.00346
6794.72454	0.00348
6792.79586	0.00349
6790.86718	0.00349
6788.93851	0.00349
6787.00983	0.00349
6785.08116	0.00350
6783.15248	0.00350
6781.22381	0.00352
6779.29513	0.00353
6777.36645	0.00354
6775.43778	0.00355
6773.50910	0.00356
6771.58043	0.00357
6769.65175	0.00358
6767.72308	0.00358
6765.79440	0.00358
6763.86572	0.00358
6761.93705	0.00359
6760.00837	0.00362
6758.07970	0.00363
6756.15102	0.00364
6754.22235	0.00364
6752.29367	0.00365
6750.36499	0.00365
6748.43632	0.00365
6746.50764	0.00366
6744.57897	0.00368
6742.65029	0.00370
6740.72162	0.00370
6738.79294	0.00369
6736.86426	0.00369
6734.93559	0.00370
6733.00691	0.00370
6731.07824	0.00370
6729.14956	0.00371
6727.22089	0.00372
6725.29221	0.00373
6723.36353	0.00374
6721.43486	0.00376
6719.50618	0.00377
6717.57751	0.00379
6715.64883	0.00379
6713.72016	0.00379
6711.79148	0.00380
6709.86280	0.00380
6707.93413	0.00381
6706.00545	0.00382
6704.07678	0.00383
6702.14810	0.00384
6700.21943	0.00385
6698.29075	0.00386
6696.36207	0.00386
6694.43340	0.00387
6692.50472	0.00389
6690.57605	0.00390
6688.64737	0.00392
6686.71870	0.00392
6684.79002	0.00391
6682.86134	0.00391
6680.93267	0.00391
6679.00399	0.00391
6677.07532	0.00392
6675.14664	0.00394
6673.21797	0.00396
6671.28929	0.00397
6669.36061	0.00398
6667.43194	0.00397
6665.50326	0.00396
6663.57459	0.00398
6661.64591	0.00401
6659.71724	0.00403
6657.78856	0.00404
6655.85988	0.00404
6653.93121	0.00405
6652.00253	0.00407
6650.07386	0.00408
6648.14518	0.00408
6646.21651	0.00409
6644.28783	0.00410
6642.35915	0.00411
6640.43048	0.00412
6638.50180	0.00414
6636.57313	0.00415
6634.64445	0.00415
6632.71578	0.00415
6630.78710	0.00414
6628.85842	0.00414
6626.92975	0.00416
6625.00107	0.00419
6623.07240	0.00420
6621.14372	0.00421
6619.21505	0.00422
6617.28637	0.00422
6615.35769	0.00423
6613.42902	0.00423
6611.50034	0.00424
6609.57167	0.00425
6607.64299	0.00425
6605.71432	0.00426
6603.78564	0.00427
6601.85696	0.00429
6599.92829	0.00430
6597.99961	0.00429
6596.07094	0.00430
6594.14226	0.00431
6592.21359	0.00433
6590.28491	0.00435
6588.35623	0.00436
6586.42756	0.00435
6584.49888	0.00435
6582.57021	0.00437
6580.64153	0.00437
6578.71286	0.00438
6576.78418	0.00440
6574.85550	0.00440
6572.92683	0.00439
6570.99815	0.00439
6569.06948	0.00441
6567.14080	0.00444
6565.21213	0.00447
6563.28345	0.00449
6561.35477	0.00448
6559.42610	0.00449
6557.49742	0.00449
6555.56875	0.00450
6553.64007	0.00450
6551.71140	0.00451
6549.78272	0.00453
6547.85404	0.00454
6545.92537	0.00455
6543.99669	0.00456
6542.06802	0.00457
6540.13934	0.00457
6538.21067	0.00458
6536.28199	0.00458
6534.35331	0.00458
6532.42464	0.00458
6530.49596	0.00461
6528.56729	0.00464
6526.63861	0.00467
6524.70994	0.00468
6522.78126	0.00469
6520.85258	0.00469
6518.92391	0.00469
6516.99523	0.00469
6515.06656	0.00470
6513.13788	0.00472
6511.20921	0.00474
6509.28053	0.00475
6507.35185	0.00475
6505.42318	0.00474
6503.49450	0.00473
6501.56583	0.00474
6499.63715	0.00476
6497.70848	0.00479
6495.77980	0.00481
6493.85112	0.00482
6491.92245	0.00482
6489.99377	0.00482
6488.06510	0.00482
6486.13642	0.00484
6484.20775	0.00488
6482.27907	0.00490
6480.35039	0.00491
6478.42172	0.00491
6476.49304	0.00491
6474.56437	0.00492
6472.63569	0.00493
6470.70702	0.00493
6468.77834	0.00494
6466.84966	0.00494
6464.92099	0.00495
6462.99231	0.00497
6461.06364	0.00499
6459.13496	0.00500
6457.20629	0.00502
6455.27761	0.00502
6453.34893	0.00502
6451.42026	0.00503
6449.49158	0.00505
6447.56291	0.00506
6445.63423	0.00507
6443.70556	0.00509
6441.77688	0.00511
6439.84820	0.00512
6437.91953	0.00514
6435.99085	0.00514
6434.06218	0.00514
6432.13350	0.00514
6430.20483	0.00515
6428.27615	0.00517
6426.34747	0.00519
6424.41880	0.00519
6422.49012	0.00520
6420.56145	0.00520
6418.63277	0.00521
6416.70410	0.00521
6414.77542	0.00522
6412.84674	0.00523
6410.91807	0.00525
6408.98939	0.00526
6407.06072	0.00527
6405.13204	0.00528
6403.20337	0.00530
6401.27469	0.00532
6399.34601	0.00532
6397.41734	0.00534
6395.48866	0.00536
6393.55999	0.00538
6391.63131	0.00539
6389.70264	0.00540
6387.77396	0.00542
6385.84528	0.00543
6383.91661	0.00545
6381.98793	0.00547
6380.05926	0.00548
6378.13058	0.00548
6376.20191	0.00547
6374.27323	0.00547
6372.34455	0.00547
6370.41588	0.00549
6368.48720	0.00551
6366.55853	0.00552
6364.62985	0.00554
6362.70118	0.00556
6360.77250	0.00557
6358.84382	0.00557
6356.91515	0.00558
6354.98647	0.00561
6353.05780	0.00563
6351.12912	0.00563
6349.20045	0.00563
6347.27177	0.00565
6345.34309	0.00567
6343.41442	0.00568
6341.48574	0.00569
6339.55707	0.00570
6337.62839	0.00572
6335.69972	0.00574
6333.77104	0.00574
6331.84236	0.00573
6329.91369	0.00574
6327.98501	0.00575
6326.05634	0.00576
6324.12766	0.00579
6322.19899	0.00582
6320.27031	0.00583
6318.34163	0.00583
6316.41296	0.00583
6314.48428	0.00583
6312.55561	0.00585
6310.62693	0.00587
6308.69826	0.00588
6306.76958	0.00589
6304.84090	0.00590
6302.91223	0.00592
6300.98355	0.00593
6299.05488	0.00593
6297.12620	0.00594
6295.19753	0.00596
6293.26885	0.00599
6291.34017	0.00600
6289.41150	0.00600
6287.48282	0.00601
6285.55415	0.00602
6283.62547	0.00604
6281.69680	0.00606
6279.76812	0.00609
6277.83944	0.00611
6275.91077	0.00612
6273.98209	0.00610
6272.05342	0.00609
6270.12474	0.00610
6268.19607	0.00612
6266.26739	0.00615
6264.33871	0.00616
6262.41004	0.00617
6260.48136	0.00617
6258.55269	0.00617
6256.62401	0.00620
6254.69534	0.00623
6252.76666	0.00625
6250.83798	0.00626
6248.90931	0.00627
6246.98063	0.00628
6245.05196	0.00629
6243.12328	0.00631
6241.19461	0.00633
6239.26593	0.00635
6237.33725	0.00637
6235.40858	0.00639
6233.47990	0.00640
6231.55123	0.00641
6229.62255	0.00643
6227.69388	0.00643
6225.76520	0.00643
6223.83652	0.00644
6221.90785	0.00647
6219.97917	0.00650
6218.05050	0.00650
6216.12182	0.00649
6214.19315	0.00649
6212.26447	0.00651
6210.33579	0.00653
6208.40712	0.00654
6206.47844	0.00654
6204.54977	0.00654
6202.62109	0.00656
6200.69242	0.00660
6198.76374	0.00661
6196.83506	0.00662
6194.90639	0.00663
6192.97771	0.00664
6191.04904	0.00667
6189.12036	0.00669
6187.19169	0.00671
6185.26301	0.00673
6183.33433	0.00676
6181.40566	0.00677
6179.47698	0.00679
6177.54831	0.00680
6175.61963	0.00681
6173.69096	0.00680
6171.76228	0.00680
6169.83360	0.00681
6167.90493	0.00683
6165.97625	0.00685
6164.04758	0.00687
6162.11890	0.00688
6160.19023	0.00690
6158.26155	0.00691
6156.33287	0.00693
6154.40420	0.00695
6152.47552	0.00696
6150.54685	0.00697
6148.61817	0.00699
6146.68950	0.00701
6144.76082	0.00701
6142.83214	0.00703
6140.90347	0.00705
6138.97479	0.00707
6137.04612	0.00708
6135.11744	0.00709
6133.18877	0.00712
6131.26009	0.00714
6129.33141	0.00715
6127.40274	0.00715
6125.47406	0.00716
6123.54539	0.00718
6121.61671	0.00720
6119.68804	0.00721
6117.75936	0.00722
6115.83068	0.00724
6113.90201	0.00724
6111.97333	0.00724
6110.04466	0.00726
6108.11598	0.00729
6106.18731	0.00731
6104.25863	0.00732
6102.32995	0.00734
6100.40128	0.00735
6098.47260	0.00736
6096.54393	0.00737
6094.61525	0.00739
6092.68658	0.00742
6090.75790	0.00743
6088.82922	0.00744
6086.90055	0.00746
6084.97187	0.00748
6083.04320	0.00749
6081.11452	0.00751
6079.18585	0.00753
6077.25717	0.00754
6075.32849	0.00754
6073.39982	0.00754
6071.47114	0.00756
6069.54247	0.00758
6067.61379	0.00759
6065.68512	0.00762
6063.75644	0.00764
6061.82776	0.00765
6059.89909	0.00767
6057.97041	0.00770
6056.04174	0.00772
6054.11306	0.00773
6052.18439	0.00775
6050.25571	0.00779
6048.32703	0.00781
6046.39836	0.00781
6044.46968	0.00781
6042.54101	0.00782
6040.61233	0.00783
6038.68366	0.00784
6036.75498	0.00785
6034.82630	0.00787
6032.89763	0.00788
6030.96895	0.00788
6029.04028	0.00790
6027.11160	0.00795
6025.18293	0.00799
6023.25425	0.00800
6021.32557	0.00801
6019.39690	0.00801
6017.46822	0.00801
6015.53955	0.00801
6013.61087	0.00805
6011.68220	0.00809
6009.75352	0.00813
6007.82484	0.00815
6005.89617	0.00815
6003.96749	0.00816
6002.03882	0.00819
6000.11014	0.00821
5998.18147	0.00822
5996.25279	0.00823
5994.32411	0.00824
5992.39544	0.00824
5990.46676	0.00824
5988.53809	0.00825
5986.60941	0.00829
5984.68074	0.00832
5982.75206	0.00835
5980.82338	0.00836
5978.89471	0.00835
5976.96603	0.00836
5975.03736	0.00837
5973.10868	0.00840
5971.18001	0.00843
5969.25133	0.00847
5967.32265	0.00850
5965.39398	0.00851
5963.46530	0.00851
5961.53663	0.00851
5959.60795	0.00854
5957.67928	0.00857
5955.75060	0.00859
5953.82192	0.00861
5951.89325	0.00863
5949.96457	0.00866
5948.03590	0.00869
5946.10722	0.00871
5944.17855	0.00870
5942.24987	0.00869
5940.32119	0.00872
5938.39252	0.00876
5936.46384	0.00879
5934.53517	0.00880
5932.60649	0.00881
5930.67782	0.00882
5928.74914	0.00883
5926.82046	0.00884
5924.89179	0.00885
5922.96311	0.00887
5921.03444	0.00890
5919.10576	0.00893
5917.17709	0.00895
5915.24841	0.00897
5913.31973	0.00898
5911.39106	0.00900
5909.46238	0.00902
5907.53371	0.00903
5905.60503	0.00904
5903.67636	0.00906
5901.74768	0.00907
5899.81900	0.00908
5897.89033	0.00909
5895.96165	0.00911
5894.03298	0.00915
5892.10430	0.00916
5890.17563	0.00917
5888.24695	0.00918
5886.31827	0.00921
5884.38960	0.00923
5882.46092	0.00925
5880.53225	0.00927
5878.60357	0.00930
5876.67490	0.00935
5874.74622	0.00939
5872.81755	0.00941
5870.88887	0.00942
5868.96019	0.00943
5867.03152	0.00944
5865.10284	0.00946
5863.17417	0.00947
5861.24549	0.00947
5859.31682	0.00949
5857.38814	0.00950
5855.45946	0.00950
5853.53079	0.00952
5851.60211	0.00956
5849.67344	0.00959
5847.74476	0.00961
5845.81609	0.00963
5843.88741	0.00964
5841.95873	0.00965
5840.03006	0.00967
5838.10138	0.00969
5836.17271	0.00972
5834.24403	0.00973
5832.31536	0.00974
5830.38668	0.00975
5828.45800	0.00979
5826.52933	0.00984
5824.60065	0.00987
5822.67198	0.00989
5820.74330	0.00989
5818.81463	0.00990
5816.88595	0.00991
5814.95727	0.00992
5813.02860	0.00994
5811.09992	0.00999
5809.17125	0.01003
5807.24257	0.01004
5805.31390	0.01004
5803.38522	0.01006
5801.45654	0.01010
5799.52787	0.01014
5797.59919	0.01016
5795.67052	0.01017
5793.74184	0.01018
5791.81317	0.01018
5789.88449	0.01018
5787.95581	0.01019
5786.02714	0.01021
5784.09846	0.01025
5782.16979	0.01029
5780.24111	0.01032
5778.31244	0.01033
5776.38376	0.01035
5774.45508	0.01038
5772.52641	0.01040
5770.59773	0.01041
5768.66906	0.01043
5766.74038	0.01045
5764.81171	0.01047
5762.88303	0.01050
5760.95435	0.01051
5759.02568	0.01052
5757.09700	0.01055
5755.16833	0.01057
5753.23965	0.01060
5751.31098	0.01062
5749.38230	0.01064
5747.45362	0.01066
5745.52495	0.01069
5743.59627	0.01071
5741.66760	0.01072
5739.73892	0.01073
5737.81025	0.01075
5735.88157	0.01077
5733.95289	0.01078
5732.02422	0.01080
5730.09554	0.01083
5728.16687	0.01087
5726.23819	0.01091
5724.30952	0.01092
5722.38084	0.01092
5720.45216	0.01094
5718.52349	0.01097
5716.59481	0.01101
5714.66614	0.01105
5712.73746	0.01106
5710.80879	0.01105
5708.88011	0.01104
5706.95143	0.01106
5705.02276	0.01110
5703.09408	0.01113
5701.16541	0.01115
5699.23673	0.01116
5697.30806	0.01118
5695.37938	0.01121
5693.45070	0.01124
5691.52203	0.01127
5689.59335	0.01131
5687.66468	0.01134
5685.73600	0.01137
5683.80733	0.01139
5681.87865	0.01140
5679.94997	0.01142
5678.02130	0.01144
5676.09262	0.01147
5674.16395	0.01150
5672.23527	0.01151
5670.30660	0.01153
5668.37792	0.01154
5666.44924	0.01157
5664.52057	0.01160
5662.59189	0.01163
5660.66322	0.01164
5658.73454	0.01167
5656.80587	0.01170
5654.87719	0.01172
5652.94851	0.01173
5651.01984	0.01176
5649.09116	0.01178
5647.16249	0.01179
5645.23381	0.01182
5643.30514	0.01185
5641.37646	0.01187
5639.44778	0.01188
5637.51911	0.01188
5635.59043	0.01191
5633.66176	0.01194
5631.73308	0.01197
5629.80441	0.01200
5627.87573	0.01202
5625.94705	0.01203
5624.01838	0.01205
5622.08970	0.01207
5620.16103	0.01209
5618.23235	0.01214
5616.30368	0.01219
5614.37500	0.01221
5612.44632	0.01222
5610.51765	0.01225
5608.58897	0.01228
5606.66030	0.01231
5604.73162	0.01233
5602.80295	0.01234
5600.87427	0.01235
5598.94559	0.01237
5597.01692	0.01241
5595.08824	0.01244
5593.15957	0.01246
5591.23089	0.01247
5589.30222	0.01248
5587.37354	0.01249
5585.44486	0.01252
5583.51619	0.01256
5581.58751	0.01259
5579.65884	0.01261
5577.73016	0.01264
5575.80149	0.01266
5573.87281	0.01269
5571.94413	0.01272
5570.01546	0.01274
5568.08678	0.01275
5566.15811	0.01277
5564.22943	0.01281
5562.30076	0.01285
5560.37208	0.01289
5558.44340	0.01289
5556.51473	0.01288
5554.58605	0.01290
5552.65738	0.01293
5550.72870	0.01296
5548.80003	0.01300
5546.87135	0.01304
5544.94267	0.01306
5543.01400	0.01308
5541.08532	0.01310
5539.15665	0.01313
5537.22797	0.01315
5535.29930	0.01317
5533.37062	0.01320
5531.44194	0.01324
5529.51327	0.01328
5527.58459	0.01331
5525.65592	0.01333
5523.72724	0.01334
5521.79857	0.01336
5519.86989	0.01339
5517.94121	0.01342
5516.01254	0.01343
5514.08386	0.01344
5512.15519	0.01345
5510.22651	0.01346
5508.29784	0.01348
5506.36916	0.01352
5504.44048	0.01357
5502.51181	0.01362
5500.58313	0.01364
5498.65446	0.01366
5496.72578	0.01368
5494.79711	0.01370
5492.86843	0.01372
5490.93975	0.01373
5489.01108	0.01373
5487.08240	0.01375
5485.15373	0.01380
5483.22505	0.01386
5481.29638	0.01389
5479.36770	0.01390
5477.43902	0.01390
5475.51035	0.01391
5473.58167	0.01393
5471.65300	0.01396
5469.72432	0.01402
5467.79565	0.01407
5465.86697	0.01410
5463.93829	0.01410
5462.00962	0.01412
5460.08094	0.01414
5458.15227	0.01417
5456.22359	0.01420
5454.29492	0.01423
5452.36624	0.01425
5450.43756	0.01427
5448.50889	0.01431
5446.58021	0.01433
5444.65154	0.01435
5442.72286	0.01438
5440.79419	0.01439
5438.86551	0.01441
5436.93683	0.01444
5435.00816	0.01448
5433.07948	0.01450
5431.15081	0.01452
5429.22213	0.01454
5427.29346	0.01457
5425.36478	0.01461
5423.43610	0.01463
5421.50743	0.01466
5419.57875	0.01469
5417.65008	0.01473
5415.72140	0.01475
5413.79273	0.01477
5411.86405	0.01480
5409.93537	0.01484
5408.00670	0.01488
5406.07802	0.01490
5404.14935	0.01493
5402.22067	0.01496
5400.29200	0.01498
5398.36332	0.01498
5396.43464	0.01501
5394.50597	0.01504
5392.57729	0.01508
5390.64862	0.01510
5388.71994	0.01512
5386.79127	0.01513
5384.86259	0.01517
5382.93391	0.01521
5381.00524	0.01524
5379.07656	0.01524
5377.14789	0.01524
5375.21921	0.01527
5373.29054	0.01532
5371.36186	0.01536
5369.43318	0.01538
5367.50451	0.01539
5365.57583	0.01542
5363.64716	0.01545
5361.71848	0.01549
5359.78981	0.01554
5357.86113	0.01559
5355.93245	0.01560
5354.00378	0.01560
5352.07510	0.01562
5350.14643	0.01566
5348.21775	0.01568
5346.28908	0.01568
5344.36040	0.01570
5342.43172	0.01576
5340.50305	0.01580
5338.57437	0.01582
5336.64570	0.01584
5334.71702	0.01588
5332.78835	0.01592
5330.85967	0.01595
5328.93099	0.01596
5327.00232	0.01598
5325.07364	0.01601
5323.14497	0.01605
5321.21629	0.01610
5319.28762	0.01616
5317.35894	0.01619
5315.43026	0.01619
5313.50159	0.01621
5311.57291	0.01625
5309.64424	0.01628
5307.71556	0.01630
5305.78689	0.01632
5303.85821	0.01634
5301.92953	0.01637
5300.00086	0.01640
5298.07218	0.01645
5296.14351	0.01649
5294.21483	0.01650
5292.28616	0.01652
5290.35748	0.01653
5288.42880	0.01656
5286.50013	0.01658
5284.57145	0.01661
5282.64278	0.01664
5280.71410	0.01668
5278.78543	0.01670
5276.85675	0.01674
5274.92807	0.01678
5272.99940	0.01682
5271.07072	0.01685
5269.14205	0.01687
5267.21337	0.01688
5265.28470	0.01691
5263.35602	0.01694
5261.42734	0.01697
5259.49867	0.01701
5257.56999	0.01703
5255.64132	0.01704
5253.71264	0.01705
5251.78397	0.01708
5249.85529	0.01712
5247.92661	0.01715
5245.99794	0.01719
5244.06926	0.01723
5242.14059	0.01726
5240.21191	0.01728
5238.28324	0.01731
5236.35456	0.01735
5234.42588	0.01739
5232.49721	0.01741
5230.56853	0.01743
5228.63986	0.01744
5226.71118	0.01746
5224.78251	0.01749
5222.85383	0.01753
5220.92515	0.01757
5218.99648	0.01762
5217.06780	0.01767
5215.13913	0.01770
5213.21045	0.01772
5211.28178	0.01772
5209.35310	0.01772
5207.42442	0.01774
5205.49575	0.01780
5203.56707	0.01787
5201.63840	0.01791
5199.70972	0.01793
5197.78105	0.01794
5195.85237	0.01796
5193.92369	0.01799
5191.99502	0.01803
5190.06634	0.01807
5188.13767	0.01811
5186.20899	0.01814
5184.28032	0.01816
5182.35164	0.01818
5180.42296	0.01821
5178.49429	0.01824
5176.56561	0.01827
5174.63694	0.01830
5172.70826	0.01834
5170.77959	0.01837
5168.85091	0.01840
5166.92223	0.01843
5164.99356	0.01846
5163.06488	0.01849
5161.13621	0.01850
5159.20753	0.01852
5157.27886	0.01854
5155.35018	0.01859
5153.42150	0.01864
5151.49283	0.01867
5149.56415	0.01869
5147.63548	0.01872
5145.70680	0.01875
5143.77813	0.01878
5141.84945	0.01880
5139.92077	0.01881
5137.99210	0.01885
5136.06342	0.01888
5134.13475	0.01891
5132.20607	0.01894
5130.27740	0.01900
5128.34872	0.01904
5126.42004	0.01908
5124.49137	0.01909
5122.56269	0.01911
5120.63402	0.01914
5118.70534	0.01916
5116.77667	0.01919
5114.84799	0.01922
5112.91931	0.01926
5110.99064	0.01928
5109.06196	0.01930
5107.13329	0.01934
5105.20461	0.01938
5103.27594	0.01940
5101.34726	0.01941
5099.41858	0.01945
5097.48991	0.01950
5095.56123	0.01956
5093.63256	0.01959
5091.70388	0.01960
5089.77521	0.01962
5087.84653	0.01965
5085.91785	0.01968
5083.98918	0.01972
5082.06050	0.01975
5080.13183	0.01978
5078.20315	0.01982
5076.27448	0.01987
5074.34580	0.01992
5072.41712	0.01997
5070.48845	0.01999
5068.55977	0.01999
5066.63110	0.02001
5064.70242	0.02005
5062.77375	0.02008
5060.84507	0.02011
5058.91639	0.02015
5056.98772	0.02018
5055.05904	0.02021
5053.13037	0.02022
5051.20169	0.02024
5049.27302	0.02027
5047.34434	0.02032
5045.41566	0.02037
5043.48699	0.02040
5041.55831	0.02040
5039.62964	0.02041
5037.70096	0.02045
5035.77229	0.02049
5033.84361	0.02053
5031.91493	0.02057
5029.98626	0.02061
5028.05758	0.02065
5026.12891	0.02068
5024.20023	0.02072
5022.27156	0.02075
5020.34288	0.02078
5018.41420	0.02081
5016.48553	0.02084
5014.55685	0.02090
5012.62818	0.02095
5010.69950	0.02098
5008.77083	0.02098
5006.84215	0.02099
5004.91347	0.02103
5002.98480	0.02107
5001.05612	0.02109
4999.12745	0.02112
4997.19877	0.02116
4995.27010	0.02120
4993.34142	0.02123
4991.41274	0.02126
4989.48407	0.02129
4987.55539	0.02132
4985.62672	0.02136
4983.69804	0.02141
4981.76937	0.02146
4979.84069	0.02149
4977.91201	0.02151
4975.98334	0.02154
4974.05466	0.02157
4972.12599	0.02161
4970.19731	0.02165
4968.26864	0.02169
4966.33996	0.02171
4964.41128	0.02173
4962.48261	0.02175
4960.55393	0.02177
4958.62526	0.02181
4956.69658	0.02185
4954.76791	0.02190
4952.83923	0.02195
4950.91055	0.02200
4948.98188	0.02206
4947.05320	0.02209
4945.12453	0.02211
4943.19585	0.02211
4941.26718	0.02214
4939.33850	0.02217
4937.40982	0.02219
4935.48115	0.02222
4933.55247	0.02225
4931.62380	0.02229
4929.69512	0.02232
4927.76645	0.02235
4925.83777	0.02240
4923.90909	0.02245
4921.98042	0.02248
4920.05174	0.02251
4918.12307	0.02256
4916.19439	0.02261
4914.26572	0.02266
4912.33704	0.02269
4910.40836	0.02270
4908.47969	0.02272
4906.55101	0.02275
4904.62234	0.02279
4902.69366	0.02284
4900.76499	0.02287
4898.83631	0.02288
4896.90763	0.02290
4894.97896	0.02294
4893.05028	0.02299
4891.12161	0.02303
4889.19293	0.02305
4887.26426	0.02308
4885.33558	0.02312
4883.40690	0.02316
4881.47823	0.02319
4879.54955	0.02323
4877.62088	0.02328
4875.69220	0.02331
4873.76353	0.02333
4871.83485	0.02337
4869.90617	0.02342
4867.97750	0.02345
4866.04882	0.02348
4864.12015	0.02351
4862.19147	0.02355
4860.26280	0.02360
4858.33412	0.02367
4856.40544	0.02373
4854.47677	0.02376
4852.54809	0.02377
4850.61942	0.02378
4848.69074	0.02380
4846.76207	0.02384
4844.83339	0.02388
4842.90471	0.02392
4840.97604	0.02397
4839.04736	0.02399
4837.11869	0.02401
4835.19001	0.02404
4833.26134	0.02406
4831.33266	0.02408
4829.40398	0.02412
4827.47531	0.02416
4825.54663	0.02420
4823.61796	0.02424
4821.68928	0.02427
4819.76061	0.02432
4817.83193	0.02436
4815.90325	0.02441
4813.97458	0.02444
4812.04590	0.02449
4810.11723	0.02455
4808.18855	0.02459
4806.25988	0.02462
4804.33120	0.02464
4802.40252	0.02466
4800.47385	0.02470
4798.54517	0.02474
4796.61650	0.02478
4794.68782	0.02481
4792.75915	0.02485
4790.83047	0.02489
4788.90179	0.02493
4786.97312	0.02497
4785.04444	0.02501
4783.11577	0.02506
4781.18709	0.02511
4779.25842	0.02514
4777.32974	0.02517
4775.40106	0.02521
4773.47239	0.02523
4771.54371	0.02526
4769.61504	0.02529
4767.68636	0.02532
4765.75769	0.02537
4763.82901	0.02542
4761.90033	0.02547
4759.97166	0.02551
4758.04298	0.02555
4756.11431	0.02559
4754.18563	0.02564
4752.25696	0.02569
4750.32828	0.02572
4748.39960	0.02575
4746.47093	0.02580
4744.54225	0.02583
4742.61358	0.02585
4740.68490	0.02589
4738.75623	0.02594
4736.82755	0.02600
4734.89887	0.02603
4732.97020	0.02603
4731.04152	0.02606
4729.11285	0.02612
4727.18417	0.02619
4725.25550	0.02623
4723.32682	0.02627
4721.39814	0.02632
4719.46947	0.02637
4717.54079	0.02639
4715.61212	0.02640
4713.68344	0.02642
4711.75477	0.02647
4709.82609	0.02653
4707.89741	0.02658
4705.96874	0.02662
4704.04006	0.02665
4702.11139	0.02668
4700.18271	0.02671
4698.25404	0.02673
4696.32536	0.02677
4694.39668	0.02682
4692.46801	0.02688
4690.53933	0.02691
4688.61066	0.02694
4686.68198	0.02697
4684.75331	0.02702
4682.82463	0.02707
4680.89595	0.02712
4678.96728	0.02717
4677.03860	0.02721
4675.10993	0.02724
4673.18125	0.02729
4671.25258	0.02733
4669.32390	0.02737
4667.39522	0.02740
4665.46655	0.02744
4663.53787	0.02747
4661.60920	0.02752
4659.68052	0.02759
4657.75185	0.02765
4655.82317	0.02769
4653.89449	0.02772
4651.96582	0.02776
4650.03714	0.02782
4648.10847	0.02786
4646.17979	0.02787
4644.25112	0.02790
4642.32244	0.02796
4640.39376	0.02802
4638.46509	0.02806
4636.53641	0.02809
4634.60774	0.02811
4632.67906	0.02815
4630.75039	0.02820
4628.82171	0.02824
4626.89303	0.02829
4624.96436	0.02834
4623.03568	0.02838
4621.10701	0.02842
4619.17833	0.02846
4617.24966	0.02852
4615.32098	0.02857
4613.39230	0.02861
4611.46363	0.02864
4609.53495	0.02868
4607.60628	0.02873
4605.67760	0.02878
4603.74893	0.02884
4601.82025	0.02888
4599.89157	0.02891
4597.96290	0.02892
4596.03422	0.02896
4594.10555	0.02902
4592.17687	0.02910
4590.24820	0.02916
4588.31952	0.02917
4586.39084	0.02920
4584.46217	0.02926
4582.53349	0.02934
4580.60482	0.02942
4578.67614	0.02947
4576.74747	0.02949
4574.81879	0.02949
4572.89011	0.02953
4570.96144	0.02958
4569.03276	0.02964
4567.10409	0.02972
4565.17541	0.02978
4563.24674	0.02983
4561.31806	0.02985
4559.38938	0.02987
4557.46071	0.02990
4555.53203	0.02996
4553.60336	0.03000
4551.67468	0.03005
4549.74601	0.03011
4547.81733	0.03017
4545.88865	0.03022
4543.95998	0.03026
4542.03130	0.03031
4540.10263	0.03037
4538.17395	0.03042
4536.24528	0.03045
4534.31660	0.03047
4532.38792	0.03051
4530.45925	0.03055
4528.53057	0.03059
4526.60190	0.03064
4524.67322	0.03070
4522.74455	0.03075
4520.81587	0.03080
4518.88719	0.03086
4516.95852	0.03091
4515.02984	0.03097
4513.10117	0.03101
4511.17249	0.03105
4509.24382	0.03109
4507.31514	0.03115
4505.38646	0.03119
4503.45779	0.03121
4501.52911	0.03126
4499.60044	0.03131
4497.67176	0.03137
4495.74309	0.03142
4493.81441	0.03146
4491.88573	0.03151
4489.95706	0.03157
4488.02838	0.03162
4486.09971	0.03165
4484.17103	0.03171
4482.24236	0.03178
4480.31368	0.03185
4478.38500	0.03190
4476.45633	0.03196
4474.52765	0.03202
4472.59898	0.03209
4470.67030	0.03214
4468.74163	0.03218
4466.81295	0.03220
4464.88427	0.03222
4462.95560	0.03227
4461.02692	0.03233
4459.09825	0.03240
4457.16957	0.03247
4455.24090	0.03251
4453.31222	0.03257
4451.38354	0.03262
4449.45487	0.03267
4447.52619	0.03271
4445.59752	0.03276
4443.66884	0.03283
4441.74017	0.03290
4439.81149	0.03295
4437.88281	0.03300
4435.95414	0.03306
4434.02546	0.03312
4432.09679	0.03317
4430.16811	0.03320
4428.23944	0.03322
4426.31076	0.03325
4424.38208	0.03333
4422.45341	0.03343
4420.52473	0.03351
4418.59606	0.03358
4416.66738	0.03364
4414.73871	0.03369
4412.81003	0.03373
4410.88135	0.03378
4408.95268	0.03382
4407.02400	0.03385
4405.09533	0.03388
4403.16665	0.03395
4401.23798	0.03402
4399.30930	0.03405
4397.38062	0.03409
4395.45195	0.03415
4393.52327	0.03421
4391.59460	0.03428
4389.66592	0.03439
4387.73725	0.03448
4385.80857	0.03451
4383.87989	0.03453
4381.95122	0.03458
4380.02254	0.03464
4378.09387	0.03470
4376.16519	0.03474
4374.23652	0.03479
4372.30784	0.03485
4370.37916	0.03492
4368.45049	0.03499
4366.52181	0.03505
4364.59314	0.03510
4362.66446	0.03513
4360.73579	0.03516
4358.80711	0.03523
4356.87843	0.03533
4354.94976	0.03541
4353.02108	0.03545
4351.09241	0.03548
4349.16373	0.03552
4347.23506	0.03560
4345.30638	0.03569
4343.37770	0.03576
4341.44903	0.03583
4339.52035	0.03588
4337.59168	0.03593
4335.66300	0.03598
4333.73433	0.03602
4331.80565	0.03607
4329.87697	0.03613
4327.94830	0.03620
4326.01962	0.03628
4324.09095	0.03635
4322.16227	0.03640
4320.23360	0.03647
4318.30492	0.03654
4316.37624	0.03662
4314.44757	0.03668
4312.51889	0.03674
4310.59022	0.03682
4308.66154	0.03690
4306.73287	0.03696
4304.80419	0.03701
4302.87551	0.03706
4300.94684	0.03713
4299.01816	0.03720
4297.08949	0.03726
4295.16081	0.03733
4293.23214	0.03738
4291.30346	0.03743
4289.37478	0.03751
4287.44611	0.03760
4285.51743	0.03766
4283.58876	0.03772
4281.66008	0.03777
4279.73141	0.03783
4277.80273	0.03789
4275.87405	0.03794
4273.94538	0.03799
4272.01670	0.03806
4270.08803	0.03815
4268.15935	0.03823
4266.23068	0.03829
4264.30200	0.03834
4262.37332	0.03840
4260.44465	0.03844
4258.51597	0.03848
4256.58730	0.03853
4254.65862	0.03859
4252.72995	0.03869
4250.80127	0.03879
4248.87259	0.03886
4246.94392	0.03893
4245.01524	0.03901
4243.08657	0.03910
4241.15789	0.03915
4239.22922	0.03919
4237.30054	0.03925
4235.37186	0.03932
4233.44319	0.03939
4231.51451	0.03944
4229.58584	0.03950
4227.65716	0.03959
4225.72849	0.03968
4223.79981	0.03974
4221.87113	0.03979
4219.94246	0.03986
4218.01378	0.03992
4216.08511	0.03998
4214.15643	0.04004
4212.22776	0.04013
4210.29908	0.04021
4208.37040	0.04027
4206.44173	0.04034
4204.51305	0.04038
4202.58438	0.04041
4200.65570	0.04047
4198.72703	0.04057
4196.79835	0.04066
4194.86968	0.04073
4192.94100	0.04081
4191.01232	0.04090
4189.08365	0.04098
4187.15497	0.04105
4185.22630	0.04113
4183.29762	0.04119
4181.36895	0.04127
4179.44027	0.04137
4177.51159	0.04144
4175.58292	0.04149
4173.65424	0.04153
4171.72557	0.04160
4169.79689	0.04168
4167.86822	0.04175
4165.93954	0.04182
4164.01086	0.04191
4162.08219	0.04200
4160.15351	0.04207
4158.22484	0.04213
4156.29616	0.04219
4154.36749	0.04227
4152.43881	0.04236
4150.51013	0.04246
4148.58146	0.04256
4146.65278	0.04264
4144.72411	0.04270
4142.79543	0.04273
4140.86676	0.04276
4138.93808	0.04283
4137.00940	0.04294
4135.08073	0.04303
4133.15205	0.04310
4131.22338	0.04317
4129.29470	0.04326
4127.36603	0.04335
4125.43735	0.04342
4123.50867	0.04349
4121.58000	0.04358
4119.65132	0.04368
4117.72265	0.04377
4115.79397	0.04386
4113.86530	0.04394
4111.93662	0.04399
4110.00794	0.04403
4108.07927	0.04409
4106.15059	0.04415
4104.22192	0.04424
4102.29324	0.04434
4100.36457	0.04444
4098.43589	0.04451
4096.50721	0.04458
4094.57854	0.04465
4092.64986	0.04474
4090.72119	0.04482
4088.79251	0.04490
4086.86384	0.04496
4084.93516	0.04505
4083.00648	0.04513
4081.07781	0.04520
4079.14913	0.04527
4077.22046	0.04533
4075.29178	0.04541
4073.36311	0.04550
4071.43443	0.04561
4069.50575	0.04570
4067.57708	0.04578
4065.64840	0.04585
4063.71973	0.04591
4061.79105	0.04598
4059.86238	0.04607
4057.93370	0.04617
4056.00502	0.04627
4054.07635	0.04637
4052.14767	0.04646
4050.21900	0.04654
4048.29032	0.04661
4046.36165	0.04666
4044.43297	0.04674
4042.50429	0.04682
4040.57562	0.04690
4038.64694	0.04697
4036.71827	0.04704
4034.78959	0.04712
4032.86092	0.04721
4030.93224	0.04731
4029.00356	0.04743
4027.07489	0.04753
4025.14621	0.04759
4023.21754	0.04764
4021.28886	0.04770
4019.36019	0.04778
4017.43151	0.04786
4015.50283	0.04792
4013.57416	0.04800
4011.64548	0.04812
4009.71681	0.04823
4007.78813	0.04833
4005.85946	0.04841
4003.93078	0.04848
4002.00210	0.04856
4000.07343	0.04865
3998.14475	0.04874
3996.21608	0.04882
3994.28740	0.04891
3992.35873	0.04903
3990.43005	0.04915
3988.50137	0.04922
3986.57270	0.04929
3984.64402	0.04939
3982.71535	0.04950
3980.78667	0.04961
3978.85800	0.04967
3976.92932	0.04971
3975.00064	0.04979
3973.07197	0.04988
3971.14329	0.04995
3969.21462	0.05004
3967.28594	0.05014
3965.35727	0.05023
3963.42859	0.05029
3961.49991	0.05035
3959.57124	0.05044
3957.64256	0.05055
3955.71389	0.05066
3953.78521	0.05076
3951.85654	0.05084
3949.92786	0.05093
3947.99918	0.05103
3946.07051	0.05109
3944.14183	0.05113
3942.21316	0.05122
3940.28448	0.05136
3938.35581	0.05149
3936.42713	0.05157
3934.49845	0.05161
3932.56978	0.05166
3930.64110	0.05177
3928.71243	0.05191
3926.78375	0.05199
3924.85508	0.05205
3922.92640	0.05213
3920.99772	0.05221
3919.06905	0.05228
3917.14037	0.05237
3915.21170	0.05250
3913.28302	0.05262
3911.35435	0.05275
3909.42567	0.05286
3907.49699	0.05290
3905.56832	0.05286
3903.63964	0.05285
3901.71097	0.05295
3899.78229	0.05311
3897.85362	0.05329
3895.92494	0.05343
3893.99626	0.05348
3892.06759	0.05353
3890.13891	0.05365
3888.21024	0.05374
3886.28156	0.05373
3884.35289	0.05380
3882.42421	0.05392
3880.49553	0.05403
3878.56686	0.05420
3876.63818	0.05433
3874.70951	0.05434
3872.78083	0.05434
3870.85216	0.05438
3868.92348	0.05452
3866.99480	0.05469
3865.06613	0.05480
3863.13745	0.05490
3861.20878	0.05504
3859.28010	0.05516
3857.35143	0.05513
3855.42275	0.05495
3853.49407	0.05492
3851.56540	0.05522
3849.63672	0.05561
3847.70805	0.05584
3845.77937	0.05592
3843.85070	0.05593
3841.92202	0.05595
3839.99334	0.05597
3838.06467	0.05604
3836.13599	0.05620
3834.20732	0.05635
3832.27864	0.05647
3830.34997	0.05661
3828.42129	0.05673
3826.49261	0.05681
3824.56394	0.05686
3822.63526	0.05683
3820.70659	0.05689
3818.77791	0.05704
3816.84924	0.05718
3814.92056	0.05735
3812.99188	0.05758
3811.06321	0.05771
3809.13453	0.05771
3807.20586	0.05772
3805.27718	0.05781
3803.34851	0.05785
3801.41983	0.05790
3799.49115	0.05807
3797.56248	0.05827
3795.63380	0.05845
3793.70513	0.05865
3791.77645	0.05879
3789.84778	0.05887
3787.91910	0.05894
3785.99042	0.05901
3784.06175	0.05908
3782.13307	0.05916
3780.20440	0.05924
3778.27572	0.05939
3776.34705	0.05956
3774.41837	0.05965
3772.48969	0.05964
3770.56102	0.05965
3768.63234	0.05976
3766.70367	0.05990
3764.77499	0.06005
3762.84632	0.06016
3760.91764	0.06021
3758.98896	0.06027
3757.06029	0.06038
3755.13161	0.06042
3753.20294	0.06034
3751.27426	0.06029
3749.34559	0.06039
3747.41691	0.06048
3745.48823	0.06046
3743.55956	0.06065
3741.63088	0.06102
3739.70221	0.06120
3737.77353	0.06116
3735.84486	0.06115
3733.91618	0.06128
3731.98750	0.06154
3730.05883	0.06181
3728.13015	0.06196
3726.20148	0.06203
3724.27280	0.06210
3722.34413	0.06222
3720.41545	0.06237
3718.48677	0.06255
3716.55810	0.06268
3714.62942	0.06270
3712.70075	0.06266
3710.77207	0.06273
3708.84340	0.06292
3706.91472	0.06311
3704.98604	0.06322
3703.05737	0.06324
3701.12869	0.06331
3699.20002	0.06348
3697.27134	0.06365
3695.34267	0.06374
3693.41399	0.06374
3691.48531	0.06369
3689.55664	0.06370
3687.62796	0.06389
3685.69929	0.06417
3683.77061	0.06440
3681.84194	0.06451
3679.91326	0.06450
3677.98458	0.06439
3676.05591	0.06431
3674.12723	0.06442
3672.19856	0.06458
3670.26988	0.06472
3668.34121	0.06496
3666.41253	0.06525
3664.48385	0.06543
3662.55518	0.06550
3660.62650	0.06554
3658.69783	0.06555
3656.76915	0.06556
3654.84048	0.06564
3652.91180	0.06562
3650.98312	0.06540
3649.05445	0.06528
3647.12577	0.06545
3645.19710	0.06580
3643.26842	0.06610
3641.33975	0.06628
3639.41107	0.06641
3637.48239	0.06652
3635.55372	0.06662
3633.62504	0.06665
3631.69637	0.06656
3629.76769	0.06644
3627.83902	0.06658
3625.91034	0.06689
3623.98166	0.06709
3622.05299	0.06709
3620.12431	0.06705
3618.19564	0.06712
3616.26696	0.06724
3614.33829	0.06730
3612.40961	0.06731
3610.48093	0.06734
3608.55226	0.06741
3606.62358	0.06758
3604.69491	0.06776
3602.76623	0.06787
3600.83756	0.06794
3598.90888	0.06800
3596.98020	0.06805
3595.05153	0.06812
3593.12285	0.06822
3591.19418	0.06825
3589.26550	0.06818
3587.33683	0.06822
3585.40815	0.06842
3583.47947	0.06865
3581.55080	0.06880
3579.62212	0.06888
3577.69345	0.06894
3575.76477	0.06901
3573.83610	0.06910
3571.90742	0.06914
3569.97874	0.06910
3568.05007	0.06905
3566.12139	0.06915
3564.19272	0.06939
3562.26404	0.06958
3560.33537	0.06967
3558.40669	0.06973
3556.47801	0.06981
3554.54934	0.06989
3552.62066	0.06995
3550.69199	0.07002
3548.76331	0.07008
3546.83464	0.07013
3544.90596	0.07021
3542.97728	0.07031
3541.04861	0.07041
3539.11993	0.07047
3537.19126	0.07052
3535.26258	0.07057
3533.33391	0.07064
3531.40523	0.07069
3529.47655	0.07069
3527.54788	0.07069
3525.61920	0.07071
3523.69053	0.07076
3521.76185	0.07085
3519.83318	0.07095
3517.90450	0.07101
3515.97582	0.07102
3514.04715	0.07104
3512.11847	0.07105
3510.18980	0.07106
3508.26112	0.07110
3506.33245	0.07115
3504.40377	0.07118
3502.47509	0.07122
3500.54642	0.07127
3498.61774	0.07131
3496.68907	0.07133
3494.76039	0.07134
3492.83172	0.07136
3490.90304	0.07139
3488.97436	0.07141
3487.04569	0.07143
3485.11701	0.07145
3483.18834	0.07145
3481.25966	0.07148
3479.33099	0.07156
3477.40231	0.07165
3475.47363	0.07175
3473.54496	0.07184
3471.61628	0.07190
3469.68761	0.07197
3467.75893	0.07206
3465.83026	0.07216
3463.90158	0.07227
3461.97290	0.07239
3460.04423	0.07253
3458.11555	0.07266
3456.18688	0.07277
3454.25820	0.07285
3452.32953	0.07296
3450.40085	0.07307
3448.47217	0.07317
3446.54350	0.07325
3444.61482	0.07335
3442.68615	0.07347
3440.75747	0.07360
3438.82880	0.07376
3436.90012	0.07394
3434.97144	0.07415
3433.04277	0.07438
3431.11409	0.07461
3429.18542	0.07483
3427.25674	0.07504
3425.32807	0.07524
3423.39939	0.07545
3421.47071	0.07569
3419.54204	0.07591
3417.61336	0.07613
3415.68469	0.07632
3413.75601	0.07650
3411.82734	0.07666
3409.89866	0.07681
3407.96998	0.07697
3406.04131	0.07710
3404.11263	0.07722
3402.18396	0.07737
3400.25528	0.07753
3398.32661	0.07770
3396.39793	0.07787
3394.46925	0.07803
3392.54058	0.07817
3390.61190	0.07830
3388.68323	0.07844
3386.75455	0.07858
3384.82588	0.07873
3382.89720	0.07888
3380.96852	0.07903
3379.03985	0.07920
3377.11117	0.07934
3375.18250	0.07945
3373.25382	0.07956
3371.32515	0.07970
3369.39647	0.07985
3367.46779	0.08000
3365.53912	0.08015
3363.61044	0.08030
3361.68177	0.08042
3359.75309	0.08055
3357.82442	0.08068
3355.89574	0.08081
3353.96706	0.08095
3352.03839	0.08112
3350.10971	0.08127
3348.18104	0.08141
3346.25236	0.08154
3344.32369	0.08168
3342.39501	0.08182
3340.46633	0.08196
3338.53766	0.08206
3336.60898	0.08218
3334.68031	0.08233
3332.75163	0.08248
3330.82296	0.08262
3328.89428	0.08274
3326.96560	0.08286
3325.03693	0.08300
3323.10825	0.08316
3321.17958	0.08333
3319.25090	0.08347
3317.32223	0.08361
3315.39355	0.08375
3313.46487	0.08388
3311.53620	0.08399
3309.60752	0.08413
3307.67885	0.08428
3305.75017	0.08441
3303.82150	0.08454
3301.89282	0.08468
3299.96414	0.08483
3298.03547	0.08499
3296.10679	0.08515
3294.17812	0.08532
3292.24944	0.08549
3290.32077	0.08564
3288.39209	0.08575
3286.46341	0.08587
3284.53474	0.08601
3282.60606	0.08616
3280.67739	0.08628
3278.74871	0.08639
3276.82004	0.08655
3274.89136	0.08673
3272.96268	0.08688
3271.03401	0.08702
3269.10533	0.08718
3267.17666	0.08733
3265.24798	0.08747
3263.31931	0.08764
3261.39063	0.08785
3259.46195	0.08802
3257.53328	0.08814
3255.60460	0.08825
3253.67593	0.08838
3251.74725	0.08855
3249.81858	0.08872
3247.88990	0.08887
3245.96122	0.08900
3244.03255	0.08912
3242.10387	0.08926
3240.17520	0.08944
3238.24652	0.08960
3236.31785	0.08973
3234.38917	0.08984
3232.46049	0.08997
3230.53182	0.09013
3228.60314	0.09029
3226.67447	0.09046
3224.74579	0.09062
3222.81712	0.09077
3220.88844	0.09094
3218.95976	0.09109
3217.03109	0.09121
3215.10241	0.09131
3213.17374	0.09146
3211.24506	0.09161
3209.31639	0.09174
3207.38771	0.09190
3205.45903	0.09209
3203.53036	0.09228
3201.60168	0.09243
3199.67301	0.09255
3197.74433	0.09269
3195.81566	0.09285
3193.88698	0.09303
3191.95830	0.09321
3190.02963	0.09336
3188.10095	0.09350
3186.17228	0.09363
3184.24360	0.09379
3182.31493	0.09397
3180.38625	0.09413
3178.45757	0.09429
3176.52890	0.09446
3174.60022	0.09461
3172.67155	0.09473
3170.74287	0.09486
3168.81420	0.09503
3166.88552	0.09521
3164.95684	0.09536
3163.02817	0.09552
3161.09949	0.09567
3159.17082	0.09582
3157.24214	0.09597
3155.31347	0.09613
3153.38479	0.09629
3151.45611	0.09643
3149.52744	0.09655
3147.59876	0.09666
3145.67009	0.09680
3143.74141	0.09699
3141.81274	0.09718
3139.88406	0.09734
3137.95538	0.09748
3136.02671	0.09761
3134.09803	0.09773
3132.16936	0.09785
3130.24068	0.09799
3128.31201	0.09815
3126.38333	0.09832
3124.45465	0.09850
3122.52598	0.09867
3120.59730	0.09882
3118.66863	0.09897
3116.73995	0.09912
3114.81128	0.09931
3112.88260	0.09945
3110.95392	0.09955
3109.02525	0.09967
3107.09657	0.09985
3105.16790	0.10004
3103.23922	0.10020
3101.31055	0.10029
3099.38187	0.10037
3097.45319	0.10049
3095.52452	0.10067
3093.59584	0.10087
3091.66717	0.10103
3089.73849	0.10118
3087.80982	0.10135
3085.88114	0.10150
3083.95246	0.10163
3082.02379	0.10178
3080.09511	0.10194
3078.16644	0.10210
3076.23776	0.10225
3074.30909	0.10238
3072.38041	0.10251
3070.45173	0.10265
3068.52306	0.10278
3066.59438	0.10293
3064.66571	0.10310
3062.73703	0.10327
3060.80836	0.10343
3058.87968	0.10357
3056.95100	0.10373
3055.02233	0.10388
3053.09365	0.10401
3051.16498	0.10415
3049.23630	0.10430
3047.30763	0.10446
3045.37895	0.10462
3043.45027	0.10477
3041.52160	0.10490
3039.59292	0.10502
3037.66425	0.10516
3035.73557	0.10532
3033.80690	0.10547
3031.87822	0.10561
3029.94954	0.10574
3028.02087	0.10588
3026.09219	0.10602
3024.16352	0.10618
3022.23484	0.10634
3020.30617	0.10646
3018.37749	0.10654
3016.44881	0.10665
3014.52014	0.10680
3012.59146	0.10697
3010.66279	0.10712
3008.73411	0.10724
3006.80544	0.10736
3004.87676	0.10749
3002.94808	0.10760
3001.01941	0.10767
2999.09073	0.10777
2997.16206	0.10789
2995.23338	0.10799
2993.30471	0.10805
2991.37603	0.10809
2989.44735	0.10811
2987.51868	0.10812
2985.59000	0.10812
2983.66133	0.10808
2981.73265	0.10800
2979.80398	0.10786
2977.87530	0.10764
2975.94662	0.10736
2974.01795	0.10701
2972.08927	0.10661
2970.16060	0.10616
2968.23192	0.10571
2966.30325	0.10529
2964.37457	0.10496
2962.44589	0.10480
2960.51722	0.10485
2958.58854	0.10510
2956.65987	0.10560
2954.73119	0.10629
2952.80252	0.10707
2950.87384	0.10783
2948.94516	0.10854
2947.01649	0.10917
2945.08781	0.10968
2943.15914	0.11002
2941.23046	0.11022
2939.30179	0.11033
2937.37311	0.11043
2935.44443	0.11050
2933.51576	0.11049
2931.58708	0.11043
2929.65841	0.11039
2927.72973	0.11035
2925.80106	0.11032
2923.87238	0.11029
2921.94370	0.11031
2920.01503	0.11035
2918.08635	0.11047
2916.15768	0.11073
2914.22900	0.11114
2912.30033	0.11160
2910.37165	0.11205
2908.44297	0.11242
2906.51430	0.11269
2904.58562	0.11290
2902.65695	0.11310
2900.72827	0.11334
2898.79960	0.11364
2896.87092	0.11396
2894.94224	0.11426
2893.01357	0.11452
2891.08489	0.11478
2889.15622	0.11510
2887.22754	0.11542
2885.29887	0.11568
2883.37019	0.11586
2881.44151	0.11603
2879.51284	0.11621
2877.58416	0.11638
2875.65549	0.11654
2873.72681	0.11670
2871.79814	0.11684
2869.86946	0.11700
2867.94078	0.11719
2866.01211	0.11736
2864.08343	0.11747
2862.15476	0.11755
2860.22608	0.11763
2858.29741	0.11768
2856.36873	0.11767
2854.44005	0.11762
2852.51138	0.11758
2850.58270	0.11766
2848.65403	0.11797
2846.72535	0.11850
2844.79668	0.11907
2842.86800	0.11954
2840.93932	0.11992
2839.01065	0.12025
2837.08197	0.12053
2835.15330	0.12080
2833.22462	0.12106
2831.29595	0.12128
2829.36727	0.12143
2827.43859	0.12157
2825.50992	0.12175
2823.58124	0.12194
2821.65257	0.12213
2819.72389	0.12231
2817.79522	0.12248
2815.86654	0.12264
2813.93786	0.12281
2812.00919	0.12297
2810.08051	0.12316
2808.15184	0.12337
2806.22316	0.12354
2804.29449	0.12369
2802.36581	0.12382
2800.43713	0.12397
2798.50846	0.12413
2796.57978	0.12429
2794.65111	0.12446
2792.72243	0.12464
2790.79376	0.12483
2788.86508	0.12501
2786.93640	0.12520
2785.00773	0.12538
2783.07905	0.12555
2781.15038	0.12571
2779.22170	0.12586
2777.29303	0.12603
2775.36435	0.12619
2773.43567	0.12635
2771.50700	0.12651
2769.57832	0.12668
2767.64965	0.12686
2765.72097	0.12702
2763.79230	0.12719
2761.86362	0.12735
2759.93494	0.12751
2758.00627	0.12766
2756.07759	0.12780
2754.14892	0.12796
2752.22024	0.12815
2750.29157	0.12831
2748.36289	0.12845
2746.43421	0.12861
2744.50554	0.12877
2742.57686	0.12892
2740.64819	0.12906
2738.71951	0.12920
2736.79084	0.12935
2734.86216	0.12948
2732.93348	0.12963
2731.00481	0.12982
2729.07613	0.13001
2727.14746	0.13016
2725.21878	0.13029
2723.29011	0.13045
2721.36143	0.13059
2719.43275	0.13070
2717.50408	0.13083
2715.57540	0.13100
2713.64673	0.13119
2711.71805	0.13132
2709.78938	0.13143
2707.86070	0.13155
2705.93202	0.13168
2704.00335	0.13184
2702.07467	0.13201
2700.14600	0.13218
2698.21732	0.13234
2696.28865	0.13248
2694.35997	0.13261
2692.43129	0.13274
2690.50262	0.13290
2688.57394	0.13308
2686.64527	0.13324
2684.71659	0.13339
2682.78792	0.13351
2680.85924	0.13365
2678.93056	0.13382
2677.00189	0.13399
2675.07321	0.13413
2673.14454	0.13426
2671.21586	0.13442
2669.28719	0.13458
2667.35851	0.13470
2665.42983	0.13483
2663.50116	0.13501
2661.57248	0.13518
2659.64381	0.13532
2657.71513	0.13543
2655.78646	0.13558
2653.85778	0.13577
2651.92910	0.13597
2650.00043	0.13617
2648.07175	0.13635
2646.14308	0.13650
2644.21440	0.13664
2642.28573	0.13682
2640.35705	0.13700
2638.42837	0.13717
2636.49970	0.13730
2634.57102	0.13745
2632.64235	0.13765
2630.71367	0.13787
2628.78500	0.13802
2626.85632	0.13814
2624.92764	0.13828
2622.99897	0.13845
2621.07029	0.13864
2619.14162	0.13883
2617.21294	0.13900
2615.28427	0.13918
2613.35559	0.13934
2611.42691	0.13949
2609.49824	0.13964
2607.56956	0.13978
2605.64089	0.13993
2603.71221	0.14008
2601.78354	0.14024
2599.85486	0.14042
2597.92618	0.14061
2595.99751	0.14078
2594.06883	0.14093
2592.14016	0.14105
2590.21148	0.14120
2588.28281	0.14139
2586.35413	0.14159
2584.42545	0.14172
2582.49678	0.14182
2580.56810	0.14195
2578.63943	0.14209
2576.71075	0.14223
2574.78208	0.14240
2572.85340	0.14258
2570.92472	0.14275
2568.99605	0.14289
2567.06737	0.14303
2565.13870	0.14319
2563.21002	0.14336
2561.28135	0.14351
2559.35267	0.14367
2557.42399	0.14384
2555.49532	0.14402
2553.56664	0.14416
2551.63797	0.14429
2549.70929	0.14443
2547.78062	0.14458
2545.85194	0.14477
2543.92326	0.14494
2541.99459	0.14507
2540.06591	0.14520
2538.13724	0.14535
2536.20856	0.14551
2534.27989	0.14566
2532.35121	0.14581
2530.42253	0.14601
2528.49386	0.14620
2526.56518	0.14637
2524.63651	0.14652
2522.70783	0.14665
2520.77916	0.14679
2518.85048	0.14695
2516.92181	0.14714
2514.99313	0.14732
2513.06445	0.14748
2511.13578	0.14765
2509.20710	0.14783
2507.27843	0.14801
2505.34975	0.14817
2503.42108	0.14835
2501.49240	0.14853
2499.56372	0.14871
2497.63505	0.14890
2495.70637	0.14907
2493.77770	0.14923
2491.84902	0.14939
2489.92035	0.14956
2487.99167	0.14972
2486.06299	0.14984
2484.13432	0.14999
2482.20564	0.15018
2480.27697	0.15038
2478.34829	0.15055
2476.41962	0.15073
2474.49094	0.15092
2472.56226	0.15110
2470.63359	0.15125
2468.70491	0.15136
2466.77624	0.15150
2464.84756	0.15170
2462.91889	0.15190
2460.99021	0.15205
2459.06153	0.15220
2457.13286	0.15236
2455.20418	0.15250
2453.27551	0.15269
2451.34683	0.15288
2449.41816	0.15305
2447.48948	0.15321
2445.56080	0.15339
2443.63213	0.15357
2441.70345	0.15379
2439.77478	0.15399
2437.84610	0.15411
2435.91743	0.15421
2433.98875	0.15435
2432.06007	0.15454
2430.13140	0.15473
2428.20272	0.15491
2426.27405	0.15509
2424.34537	0.15524
2422.41670	0.15537
2420.48802	0.15554
2418.55934	0.15574
2416.63067	0.15592
2414.70199	0.15605
2412.77332	0.15617
2410.84464	0.15631
2408.91597	0.15648
2406.98729	0.15666
2405.05861	0.15686
2403.12994	0.15704
2401.20126	0.15721
2399.27259	0.15737
2397.34391	0.15751
2395.41524	0.15765
2393.48656	0.15779
2391.55788	0.15792
2389.62921	0.15810
2387.70053	0.15830
2385.77186	0.15845
2383.84318	0.15855
2381.91451	0.15867
2379.98583	0.15882
2378.05715	0.15891
2376.12848	0.15890
2374.19980	0.15886
2372.27113	0.15886
2370.34245	0.15888
2368.41378	0.15893
2366.48510	0.15901
2364.55642	0.15911
2362.62775	0.15926
2360.69907	0.15946
2358.77040	0.15967
2356.84172	0.15989
2354.91305	0.16016
2352.98437	0.16050
2351.05569	0.16085
2349.12702	0.16110
2347.19834	0.16114
2345.26967	0.16109
2343.34099	0.16110
2341.41232	0.16119
2339.48364	0.16133
2337.55496	0.16151
2335.62629	0.16172
2333.69761	0.16189
2331.76894	0.16202
2329.84026	0.16219
2327.91159	0.16239
2325.98291	0.16260
2324.05423	0.16284
2322.12556	0.16312
2320.19688	0.16336
2318.26821	0.16355
2316.33953	0.16375
2314.41086	0.16397
2312.48218	0.16422
2310.55350	0.16444
2308.62483	0.16466
2306.69615	0.16488
2304.76748	0.16506
2302.83880	0.16520
2300.91013	0.16536
2298.98145	0.16557
2297.05277	0.16578
2295.12410	0.16595
2293.19542	0.16608
2291.26675	0.16622
2289.33807	0.16642
2287.40940	0.16661
2285.48072	0.16677
2283.55204	0.16693
2281.62337	0.16709
2279.69469	0.16725
2277.76602	0.16740
2275.83734	0.16757
2273.90867	0.16774
2271.97999	0.16787
2270.05131	0.16798
2268.12264	0.16809
2266.19396	0.16825
2264.26529	0.16845
2262.33661	0.16867
2260.40794	0.16885
2258.47926	0.16900
2256.55058	0.16913
2254.62191	0.16926
2252.69323	0.16942
2250.76456	0.16958
2248.83588	0.16972
2246.90721	0.16985
2244.97853	0.16998
2243.04985	0.17013
2241.12118	0.17032
2239.19250	0.17050
2237.26383	0.17066
2235.33515	0.17084
2233.40648	0.17103
2231.47780	0.17119
2229.54912	0.17130
2227.62045	0.17140
2225.69177	0.17153
2223.76310	0.17170
2221.83442	0.17191
2219.90575	0.17210
2217.97707	0.17222
2216.04839	0.17231
2214.11972	0.17242
2212.19104	0.17252
2210.26237	0.17266
2208.33369	0.17282
2206.40502	0.17299
2204.47634	0.17316
2202.54766	0.17333
2200.61899	0.17347
2198.69031	0.17359
2196.76164	0.17373
2194.83296	0.17389
2192.90429	0.17405
2190.97561	0.17419
2189.04693	0.17431
2187.11826	0.17440
2185.18958	0.17454
2183.26091	0.17470
2181.33223	0.17485
2179.40356	0.17498
2177.47488	0.17510
2175.54620	0.17522
2173.61753	0.17537
2171.68885	0.17551
2169.76018	0.17564
2167.83150	0.17576
2165.90283	0.17586
2163.97415	0.17592
2162.04547	0.17599
2160.11680	0.17615
2158.18812	0.17637
2156.25945	0.17656
2154.33077	0.17667
2152.40210	0.17677
2150.47342	0.17692
2148.54474	0.17707
2146.61607	0.17721
2144.68739	0.17733
2142.75872	0.17747
2140.83004	0.17763
2138.90137	0.17780
2136.97269	0.17798
2135.04401	0.17816
2133.11534	0.17832
2131.18666	0.17848
2129.25799	0.17860
2127.32931	0.17873
2125.40064	0.17892
2123.47196	0.17916
2121.54328	0.17937
2119.61461	0.17955
2117.68593	0.17975
2115.75726	0.17995
2113.82858	0.18013
2111.89991	0.18032
2109.97123	0.18051
2108.04255	0.18069
2106.11388	0.18088
2104.18520	0.18109
2102.25653	0.18131
2100.32785	0.18155
2098.39918	0.18176
2096.47050	0.18193
2094.54182	0.18207
2092.61315	0.18221
2090.68447	0.18237
2088.75580	0.18255
2086.82712	0.18274
2084.89845	0.18293
2082.96977	0.18315
2081.04109	0.18337
2079.11242	0.18360
2077.18374	0.18378
2075.25507	0.18392
2073.32639	0.18408
2071.39772	0.18429
2069.46904	0.18453
2067.54036	0.18472
2065.61169	0.18487
2063.68301	0.18506
2061.75434	0.18531
2059.82566	0.18552
2057.89699	0.18569
2055.96831	0.18587
2054.03963	0.18604
2052.11096	0.18618
2050.18228	0.18630
2048.25361	0.18645
2046.32493	0.18664
2044.39626	0.18683
2042.46758	0.18697
2040.53890	0.18714
2038.61023	0.18739
2036.68155	0.18762
2034.75288	0.18777
2032.82420	0.18788
2030.89553	0.18805
2028.96685	0.18823
2027.03817	0.18839
2025.10950	0.18854
2023.18082	0.18870
2021.25215	0.18886
2019.32347	0.18900
2017.39480	0.18913
2015.46612	0.18928
2013.53744	0.18947
2011.60877	0.18964
2009.68009	0.18981
2007.75142	0.18997
2005.82274	0.19014
2003.89407	0.19033
2001.96539	0.19053
2000.03671	0.19070
1998.10804	0.19084
1996.17936	0.19097
1994.25069	0.19108
1992.32201	0.19119
1990.39334	0.19137
1988.46466	0.19160
1986.53598	0.19180
1984.60731	0.19192
1982.67863	0.19201
1980.74996	0.19212
1978.82128	0.19224
1976.89261	0.19238
1974.96393	0.19250
1973.03525	0.19262
1971.10658	0.19273
1969.17790	0.19282
1967.24923	0.19296
1965.32055	0.19317
1963.39188	0.19336
1961.46320	0.19351
1959.53452	0.19366
1957.60585	0.19378
1955.67717	0.19388
1953.74850	0.19399
1951.81982	0.19414
1949.89115	0.19430
1947.96247	0.19445
1946.03379	0.19458
1944.10512	0.19467
1942.17644	0.19478
1940.24777	0.19500
1938.31909	0.19523
1936.39042	0.19542
1934.46174	0.19559
1932.53306	0.19574
1930.60439	0.19587
1928.67571	0.19603
1926.74704	0.19621
1924.81836	0.19635
1922.88969	0.19647
1920.96101	0.19655
1919.03233	0.19656
1917.10366	0.19671
1915.17498	0.19703
1913.24631	0.19730
1911.31763	0.19746
1909.38896	0.19761
1907.46028	0.19781
1905.53160	0.19800
1903.60293	0.19815
1901.67425	0.19832
1899.74558	0.19845
1897.81690	0.19853
1895.88823	0.19862
1893.95955	0.19878
1892.03087	0.19892
1890.10220	0.19901
1888.17352	0.19920
1886.24485	0.19943
1884.31617	0.19959
1882.38750	0.19972
1880.45882	0.19988
1878.53014	0.20005
1876.60147	0.20023
1874.67279	0.20040
1872.74412	0.20045
1870.81544	0.20036
1868.88677	0.20038
1866.95809	0.20069
1865.02941	0.20107
1863.10074	0.20131
1861.17206	0.20149
1859.24339	0.20168
1857.31471	0.20188
1855.38604	0.20204
1853.45736	0.20218
1851.52868	0.20233
1849.60001	0.20246
1847.67133	0.20245
1845.74266	0.20232
1843.81398	0.20241
1841.88531	0.20284
1839.95663	0.20323
1838.02795	0.20340
1836.09928	0.20352
1834.17060	0.20364
1832.24193	0.20365
1830.31325	0.20366
1828.38458	0.20382
1826.45590	0.20397
1824.52722	0.20414
1822.59855	0.20447
1820.66987	0.20477
1818.74120	0.20492
1816.81252	0.20506
1814.88385	0.20521
1812.95517	0.20529
1811.02649	0.20532
1809.09782	0.20544
1807.16914	0.20564
1805.24047	0.20576
1803.31179	0.20574
1801.38312	0.20575
1799.45444	0.20595
1797.52576	0.20620
1795.59709	0.20628
1793.66841	0.20620
1791.73974	0.20628
1789.81106	0.20661
1787.88239	0.20685
1785.95371	0.20688
1784.02503	0.20692
1782.09636	0.20701
1780.16768	0.20716
1778.23901	0.20736
1776.31033	0.20742
1774.38166	0.20722
1772.45298	0.20707
1770.52430	0.20720
1768.59563	0.20747
1766.66695	0.20775
1764.73828	0.20794
1762.80960	0.20796
1760.88093	0.20802
1758.95225	0.20814
1757.02357	0.20823
1755.09490	0.20826
1753.16622	0.20803
1751.23755	0.20766
1749.30887	0.20760
1747.38020	0.20780
1745.45152	0.20796
1743.52284	0.20802
1741.59417	0.20800
1739.66549	0.20795
1737.73682	0.20785
1735.80814	0.20750
1733.87947	0.20729
1731.95079	0.20762
1730.02211	0.20811
1728.09344	0.20851
1726.16476	0.20881
1724.23609	0.20896
1722.30741	0.20894
1720.37874	0.20868
1718.45006	0.20837
1716.52138	0.20845
1714.59271	0.20898
1712.66403	0.20956
1710.73536	0.20988
1708.80668	0.20988
1706.87801	0.20974
1704.94933	0.20965
1703.02065	0.20940
1701.09198	0.20902
1699.16330	0.20902
1697.23463	0.20931
1695.30595	0.20964
1693.37728	0.21010
1691.44860	0.21035
1689.51992	0.21031
1687.59125	0.21005
1685.66257	0.20955
1683.73390	0.20934
1681.80522	0.20973
1679.87655	0.21019
1677.94787	0.21026
1676.01919	0.21011
1674.09052	0.21012
1672.16184	0.21015
1670.23317	0.21010
1668.30449	0.21032
1666.37582	0.21070
1664.44714	0.21077
1662.51846	0.21070
1660.58979	0.21085
1658.66111	0.21098
1656.73244	0.21059
1654.80376	0.20977
1652.87509	0.20947
1650.94641	0.21001
1649.01773	0.21033
1647.08906	0.21026
1645.16038	0.21053
1643.23171	0.21106
1641.30303	0.21131
1639.37436	0.21112
1637.44568	0.21065
1635.51700	0.21051
1633.58833	0.21103
1631.65965	0.21158
1629.73098	0.21158
1627.80230	0.21134
1625.87363	0.21108
1623.94495	0.21072
1622.01627	0.21040
1620.08760	0.21030
1618.15892	0.21043
1616.23025	0.21096
1614.30157	0.21179
1612.37290	0.21243
1610.44422	0.21276
1608.51554	0.21298
1606.58687	0.21321
1604.65819	0.21347
1602.72952	0.21372
1600.80084	0.21395
1598.87217	0.21410
1596.94349	0.21420
1595.01481	0.21437
1593.08614	0.21458
1591.15746	0.21479
1589.22879	0.21494
1587.30011	0.21509
1585.37144	0.21527
1583.44276	0.21547
1581.51408	0.21559
1579.58541	0.21551
1577.65673	0.21531
1575.72806	0.21536
1573.79938	0.21574
1571.87071	0.21590
1569.94203	0.21584
1568.01335	0.21598
1566.08468	0.21627
1564.15600	0.21641
1562.22733	0.21612
1560.29865	0.21543
1558.36998	0.21516
1556.44130	0.21574
1554.51262	0.21650
1552.58395	0.21695
1550.65527	0.21720
1548.72660	0.21737
1546.79792	0.21737
1544.86925	0.21706
1542.94057	0.21662
1541.01189	0.21641
1539.08322	0.21676
1537.15454	0.21738
1535.22587	0.21763
1533.29719	0.21767
1531.36852	0.21788
1529.43984	0.21805
1527.51116	0.21798
1525.58249	0.21785
1523.65381	0.21761
1521.72514	0.21736
1519.79646	0.21744
1517.86779	0.21774
1515.93911	0.21801
1514.01043	0.21825
1512.08176	0.21830
1510.15308	0.21801
1508.22441	0.21756
1506.29573	0.21764
1504.36706	0.21836
1502.43838	0.21892
1500.50970	0.21886
1498.58103	0.21861
1496.65235	0.21860
1494.72368	0.21875
1492.79500	0.21867
1490.86633	0.21835
1488.93765	0.21819
1487.00897	0.21833
1485.08030	0.21853
1483.15162	0.21856
1481.22295	0.21838
1479.29427	0.21802
1477.36560	0.21747
1475.43692	0.21676
1473.50824	0.21613
1471.57957	0.21586
1469.65089	0.21585
1467.72222	0.21564
1465.79354	0.21524
1463.86487	0.21501
1461.93619	0.21484
1460.00751	0.21423
1458.07884	0.21342
1456.15016	0.21326
1454.22149	0.21372
1452.29281	0.21409
1450.36414	0.21414
1448.43546	0.21411
1446.50678	0.21423
1444.57811	0.21446
1442.64943	0.21462
1440.72076	0.21462
1438.79208	0.21438
1436.86341	0.21421
1434.93473	0.21454
1433.00605	0.21502
1431.07738	0.21520
1429.14870	0.21529
1427.22003	0.21537
1425.29135	0.21525
1423.36268	0.21500
1421.43400	0.21463
1419.50532	0.21423
1417.57665	0.21420
1415.64797	0.21448
1413.71930	0.21464
1411.79062	0.21461
1409.86195	0.21455
1407.93327	0.21451
1406.00459	0.21448
1404.07592	0.21454
1402.14724	0.21461
1400.21857	0.21455
1398.28989	0.21445
1396.36122	0.21444
1394.43254	0.21462
1392.50386	0.21489
1390.57519	0.21494
1388.64651	0.21464
1386.71784	0.21432
1384.78916	0.21424
1382.86049	0.21430
1380.93181	0.21438
1379.00313	0.21440
1377.07446	0.21437
1375.14578	0.21434
1373.21711	0.21439
1371.28843	0.21446
1369.35976	0.21442
1367.43108	0.21430
1365.50240	0.21411
1363.57373	0.21386
1361.64505	0.21376
1359.71638	0.21387
1357.78770	0.21399
1355.85903	0.21405
1353.93035	0.21412
1352.00167	0.21424
1350.07300	0.21437
1348.14432	0.21449
1346.21565	0.21462
1344.28697	0.21471
1342.35830	0.21470
1340.42962	0.21456
1338.50094	0.21446
1336.57227	0.21445
1334.64359	0.21446
1332.71492	0.21441
1330.78624	0.21426
1328.85757	0.21403
1326.92889	0.21381
1325.00021	0.21359
1323.07154	0.21339
1321.14286	0.21323
1319.21419	0.21305
1317.28551	0.21282
1315.35684	0.21260
1313.42816	0.21236
1311.49948	0.21207
1309.57081	0.21177
1307.64213	0.21150
1305.71346	0.21121
1303.78478	0.21090
1301.85611	0.21061
1299.92743	0.21031
1297.99875	0.21000
1296.07008	0.20973
1294.14140	0.20950
1292.21273	0.20927
1290.28405	0.20902
1288.35538	0.20866
1286.42670	0.20825
1284.49802	0.20787
1282.56935	0.20751
1280.64067	0.20709
1278.71200	0.20651
1276.78332	0.20565
1274.85465	0.20444
1272.92597	0.20290
1270.99729	0.20098
1269.06862	0.19859
1267.13994	0.19570
1265.21127	0.19253
1263.28259	0.18957
1261.35392	0.18746
1259.42524	0.18656
1257.49656	0.18669
1255.56789	0.18737
1253.63921	0.18833
1251.71054	0.18969
1249.78186	0.19154
1247.85319	0.19355
1245.92451	0.19535
1243.99583	0.19673
1242.06716	0.19767
1240.13848	0.19824
1238.20981	0.19851
1236.28113	0.19849
1234.35246	0.19822
1232.42378	0.19781
1230.49510	0.19737
1228.56643	0.19688
1226.63775	0.19632
1224.70908	0.19577
1222.78040	0.19528
1220.85173	0.19477
1218.92305	0.19420
1216.99437	0.19360
1215.06570	0.19295
1213.13702	0.19230
1211.20835	0.19173
1209.27967	0.19119
1207.35100	0.19057
1205.42232	0.18985
1203.49364	0.18913
1201.56497	0.18845
1199.63629	0.18777
1197.70762	0.18711
1195.77894	0.18644
1193.85027	0.18568
1191.92159	0.18483
1189.99291	0.18397
1188.06424	0.18317
1186.13556	0.18238
1184.20689	0.18153
1182.27821	0.18061
1180.34954	0.17965
1178.42086	0.17870
1176.49218	0.17773
1174.56351	0.17671
1172.63483	0.17566
1170.70616	0.17461
1168.77748	0.17359
1166.84881	0.17258
1164.92013	0.17161
1162.99145	0.17062
1161.06278	0.16956
1159.13410	0.16848
1157.20543	0.16749
1155.27675	0.16654
1153.34808	0.16553
1151.41940	0.16450
1149.49072	0.16354
1147.56205	0.16255
1145.63337	0.16146
1143.70470	0.16029
1141.77602	0.15905
1139.84735	0.15772
1137.91867	0.15633
1135.98999	0.15487
1134.06132	0.15322
1132.13264	0.15128
1130.20397	0.14906
1128.27529	0.14670
1126.34662	0.14427
1124.41794	0.14179
1122.48926	0.13926
1120.56059	0.13674
1118.63191	0.13430
1116.70324	0.13196
1114.77456	0.12982
1112.84589	0.12796
1110.91721	0.12639
1108.98853	0.12504
1107.05986	0.12395
1105.13118	0.12314
1103.20251	0.12260
1101.27383	0.12229
1099.34516	0.12223
1097.41648	0.12240
1095.48780	0.12265
1093.55913	0.12292
1091.63045	0.12321
1089.70178	0.12344
1087.77310	0.12358
1085.84443	0.12364
1083.91575	0.12359
1081.98707	0.12345
1080.05840	0.12330
1078.12972	0.12317
1076.20105	0.12296
1074.27237	0.12262
1072.34370	0.12223
1070.41502	0.12189
1068.48634	0.12163
1066.55767	0.12141
1064.62899	0.12124
1062.70032	0.12110
1060.77164	0.12097
1058.84297	0.12083
1056.91429	0.12072
1054.98561	0.12061
1053.05694	0.12052
1051.12826	0.12050
1049.19959	0.12052
1047.27091	0.12051
1045.34224	0.12055
1043.41356	0.12075
1041.48488	0.12103
1039.55621	0.12130
1037.62753	0.12157
1035.69886	0.12188
1033.77018	0.12221
1031.84151	0.12253
1029.91283	0.12289
1027.98415	0.12338
1026.05548	0.12404
1024.12680	0.12483
1022.19813	0.12574
1020.26945	0.12679
1018.34078	0.12796
1016.41210	0.12922
1014.48342	0.13049
1012.55475	0.13179
1010.62607	0.13317
1008.69740	0.13463
1006.76872	0.13611
1004.84005	0.13754
1002.91137	0.13893
1000.98269	0.14023
999.05402	0.14138
997.12534	0.14241
995.19667	0.14336
993.26799	0.14425
991.33932	0.14508
989.41064	0.14581
987.48196	0.14641
985.55329	0.14695
983.62461	0.14749
981.69594	0.14802
979.76726	0.14845
977.83859	0.14878
975.90991	0.14901
973.98123	0.14916
972.05256	0.14926
970.12388	0.14932
968.19521	0.14941
966.26653	0.14950
964.33786	0.14952
962.40918	0.14946
960.48050	0.14941
958.55183	0.14937
956.62315	0.14930
954.69448	0.14923
952.76580	0.14914
950.83713	0.14902
948.90845	0.14884
946.97977	0.14864
945.05110	0.14840
943.12242	0.14810
941.19375	0.14775
939.26507	0.14734
937.33640	0.14690
935.40772	0.14641
933.47904	0.14583
931.55037	0.14522
929.62169	0.14467
927.69302	0.14409
925.76434	0.14346
923.83567	0.14279
921.90699	0.14207
919.97831	0.14119
918.04964	0.14018
916.12096	0.13911
914.19229	0.13805
912.26361	0.13708
910.33494	0.13618
908.40626	0.13538
906.47758	0.13471
904.54891	0.13408
902.62023	0.13341
900.69156	0.13278
898.76288	0.13218
896.83421	0.13165
894.90553	0.13118
892.97685	0.13070
891.04818	0.13022
889.11950	0.12969
887.19083	0.12914
885.26215	0.12861
883.33348	0.12806
881.40480	0.12749
879.47612	0.12695
877.54745	0.12651
875.61877	0.12613
873.69010	0.12573
871.76142	0.12527
869.83275	0.12477
867.90407	0.12428
865.97539	0.12382
864.04672	0.12336
862.11804	0.12296
860.18937	0.12259
858.26069	0.12217
856.33202	0.12161
854.40334	0.12084
852.47466	0.11984
850.54599	0.11870
848.61731	0.11749
846.68864	0.11629
844.75996	0.11517
842.83129	0.11422
840.90261	0.11357
838.97394	0.11330
837.04526	0.11331
835.11658	0.11338
833.18791	0.11336
831.25923	0.11318
829.33056	0.11288
827.40188	0.11245
825.47321	0.11185
823.54453	0.11111
821.61585	0.11032
819.68718	0.10954
817.75850	0.10884
815.82983	0.10823
813.90115	0.10760
811.97248	0.10687
810.04380	0.10616
808.11512	0.10550
806.18645	0.10478
804.25777	0.10399
802.32910	0.10326
800.40042	0.10260
798.47175	0.10191
796.54307	0.10127
794.61439	0.10097
792.68572	0.10102
790.75704	0.10124
788.82837	0.10150
786.89969	0.10179
784.97102	0.10209
783.04234	0.10230
781.11366	0.10239
779.18499	0.10240
777.25631	0.10236
775.32764	0.10230
773.39896	0.10222
771.47029	0.10208
769.54161	0.10189
767.61293	0.10166
765.68426	0.10139
763.75558	0.10111
761.82691	0.10081
759.89823	0.10049
757.96956	0.10013
756.04088	0.09972
754.11220	0.09939
752.18353	0.09921
750.25485	0.09905
748.32618	0.09878
746.39750	0.09837
744.46883	0.09784
742.54015	0.09719
740.61147	0.09657
738.68280	0.09625
736.75412	0.09626
734.82545	0.09645
732.89677	0.09659
730.96810	0.09660
729.03942	0.09659
727.11074	0.09671
725.18207	0.09694
723.25339	0.09713
721.32472	0.09725
719.39604	0.09745
717.46737	0.09780
715.53869	0.09821
713.61001	0.09867
711.68134	0.09910
709.75266	0.09936
707.82399	0.09941
705.89531	0.09926
703.96664	0.09898
702.03796	0.09870
700.10928	0.09834
698.18061	0.09777
696.25193	0.09712
694.32326	0.09649
692.39458	0.09590
690.46591	0.09538
688.53723	0.09494
686.60855	0.09447
684.67988	0.09394
682.75120	0.09345
680.82253	0.09305
678.89385	0.09260
676.96518	0.09205
675.03650	0.09145
673.10782	0.09085
671.17915	0.09010
669.25047	0.08912
667.32180	0.08814
665.39312	0.08735
663.46445	0.08662
661.53577	0.08581
659.60709	0.08492
657.67842	0.08402
655.74974	0.08321
653.82107	0.08247
651.89239	0.08166
649.96372	0.08078
648.03504	0.07989
646.10636	0.07901
644.17769	0.07813
642.24901	0.07718
640.32034	0.07614
638.39166	0.07506
636.46299	0.07394
634.53431	0.07273
632.60563	0.07119
630.67696	0.06872
628.74828	0.06498
626.81961	0.06035
624.89093	0.05576
622.96226	0.05213
621.03358	0.04990
619.10490	0.04875
617.17623	0.04795
615.24755	0.04701
613.31888	0.04591
611.39020	0.04494
609.46153	0.04448
607.53285	0.04461
605.60417	0.04502
603.67550	0.04553
601.74682	0.04620
599.81815	0.04710
597.88947	0.04802
595.96080	0.04872
594.03212	0.04915
592.10344	0.04943
590.17477	0.04960
588.24609	0.04959
586.31742	0.04940
584.38874	0.04917
582.46007	0.04892
580.53139	0.04860
578.60271	0.04813
576.67404	0.04747
574.74536	0.04676
572.81669	0.04614
570.88801	0.04552
568.95934	0.04484
567.03066	0.04429
565.10198	0.04397
563.17331	0.04375
561.24463	0.04351
559.31596	0.04319
557.38728	0.04281
555.45861	0.04245
553.52993	0.04218
551.60125	0.04202
549.67258	0.04195
547.74390	0.04191
545.81523	0.04177
543.88655	0.04158
541.95788	0.04141
540.02920	0.04128
538.10052	0.04115
536.17185	0.04095
534.24317	0.04069
532.31450	0.04046
530.38582	0.04026
528.45715	0.04000
526.52847	0.03961
524.59979	0.03917
522.67112	0.03875
520.74244	0.03837
518.81377	0.03794
516.88509	0.03734
514.95642	0.03669
513.02774	0.03623
511.09906	0.03601
509.17039	0.03587
507.24171	0.03565
505.31304	0.03531
503.38436	0.03492
501.45569	0.03452
499.52701	0.03401
497.59833	0.03342
495.66966	0.03283
493.74098	0.03225
491.81231	0.03161
489.88363	0.03104
487.95496	0.03058
486.02628	0.03004
484.09760	0.02932
482.16893	0.02866
480.24025	0.02813
478.31158	0.02757
476.38290	0.02687
474.45423	0.02615
472.52555	0.02555
470.59687	0.02506
468.66820	0.02467
466.73952	0.02442
464.81085	0.02422
462.88217	0.02404
460.95350	0.02393
459.02482	0.02391
457.09614	0.02382
455.16747	0.02366
453.23879	0.02361
451.31012	0.02362
449.38144	0.02351
447.45277	0.02331
445.52409	0.02309
443.59541	0.02283
441.66674	0.02259
439.73806	0.02235
437.80939	0.02195
435.88071	0.02137
433.95204	0.02078
432.02336	0.02026
430.09468	0.01971
428.16601	0.01904
426.23733	0.01834
424.30866	0.01771
422.37998	0.01715
420.45131	0.01645
418.52263	0.01568
416.59395	0.01506
414.66528	0.01454
412.73660	0.01393
410.80793	0.01320
408.87925	0.01248
406.95058	0.01181
405.02190	0.01113
403.09322	0.01048
401.16455	0.00993
399.23587	0.00945
397.30720	0.00889
395.37852	0.00824
393.44985	0.00766
391.52117	0.00716
389.59249	0.00664
387.66382	0.00609
385.73514	0.00564
383.80647	0.00527
381.87779	0.00490
379.94912	0.00461
378.02044	0.00439
376.09176	0.00404
374.16309	0.00360
372.23441	0.00320
370.30574	0.00282
368.37706	0.00246
