7496.76250	0.00229
7494.83382	0.00230
7492.90514	0.00228
7490.97647	0.00227
7489.04779	0.00228
7487.11912	0.00230
7485.19044	0.00232
7483.26177	0.00234
7481.33309	0.00234
7479.40441	0.00234
7477.47574	0.00235
7475.54706	0.00236
7473.61839	0.00235
7471.68971	0.00235
7469.76104	0.00234
7467.83236	0.00234
7465.90368	0.00235
7463.97501	0.00238
7462.04633	0.00239
7460.11766	0.00239
7458.18898	0.00239
7456.26031	0.00241
7454.33163	0.00242
7452.40295	0.00242
7450.47428	0.00241
7448.54560	0.00241
7446.61693	0.00242
7444.68825	0.00243
7442.75958	0.00244
7440.83090	0.00244
7438.90222	0.00246
7436.97355	0.00247
7435.04487	0.00246
7433.11620	0.00246
7431.18752	0.00246
7429.25885	0.00247
7427.33017	0.00248
7425.40149	0.00250
7423.47282	0.00251
7421.54414	0.00252
7419.61547	0.00252
7417.68679	0.00253
7415.75812	0.00253
7413.82944	0.00253
7411.90076	0.00253
7409.97209	0.00252
7408.04341	0.00252
7406.11474	0.00254
7404.18606	0.00257
7402.25739	0.00257
7400.32871	0.00258
7398.40003	0.00258
7396.47136	0.00258
7394.54268	0.00259
7392.61401	0.00260
7390.68533	0.00260
7388.75666	0.00262
7386.82798	0.00264
7384.89930	0.00264
7382.97063	0.00265
7381.04195	0.00266
7379.11328	0.00267
7377.18460	0.00268
7375.25593	0.00268
7373.32725	0.00269
7371.39857	0.00269
7369.46990	0.00270
7367.54122	0.00271
7365.61255	0.00272
7363.68387	0.00272
7361.75520	0.00272
7359.82652	0.00271
7357.89784	0.00271
7355.96917	0.00272
7354.04049	0.00272
7352.11182	0.00273
7350.18314	0.00275
7348.25447	0.00277
7346.32579	0.00277
7344.39711	0.00276
7342.46844	0.00276
7340.53976	0.00277
7338.61109	0.00276
7336.68241	0.00276
7334.75374	0.00277
7332.82506	0.00279
7330.89638	0.00280
7328.96771	0.00281
7327.03903	0.00283
7325.11036	0.00284
7323.18168	0.00285
7321.25301	0.00286
7319.32433	0.00286
7317.39565	0.00286
7315.46698	0.00287
7313.53830	0.00288
7311.60963	0.00289
7309.68095	0.00290
7307.75228	0.00290
7305.82360	0.00290
7303.89492	0.00289
7301.96625	0.00289
7300.03757	0.00291
7298.10890	0.00291
7296.18022	0.00292
7294.25155	0.00293
7292.32287	0.00295
7290.39419	0.00297
7288.46552	0.00296
7286.53684	0.00296
7284.60817	0.00296
7282.67949	0.00296
7280.75082	0.00296
7278.82214	0.00298
7276.89346	0.00300
7274.96479	0.00301
7273.03611	0.00300
7271.10744	0.00300
7269.17876	0.00300
7267.25009	0.00301
7265.32141	0.00302
7263.39273	0.00304
7261.46406	0.00306
7259.53538	0.00309
7257.60671	0.00311
7255.67803	0.00311
7253.74936	0.00311
7251.82068	0.00312
7249.89200	0.00311
7247.96333	0.00310
7246.03465	0.00311
7244.10598	0.00313
7242.17730	0.00313
7240.24863	0.00313
7238.31995	0.00314
7236.39127	0.00315
7234.46260	0.00316
7232.53392	0.00315
7230.60525	0.00315
7228.67657	0.00317
7226.74790	0.00319
7224.81922	0.00321
7222.89054	0.00322
7220.96187	0.00322
7219.03319	0.00322
7217.10452	0.00323
7215.17584	0.00323
7213.24717	0.00323
7211.31849	0.00323
7209.38981	0.00325
7207.46114	0.00327
7205.53246	0.00328
7203.60379	0.00329
7201.67511	0.00330
7199.74644	0.00331
7197.81776	0.00331
7195.88908	0.00331
7193.96041	0.00332
7192.03173	0.00333
7190.10306	0.00334
7188.17438	0.00336
7186.24571	0.00336
7184.31703	0.00335
7182.38835	0.00336
7180.45968	0.00338
7178.53100	0.00340
7176.60233	0.00340
7174.67365	0.00340
7172.74498	0.00339
7170.81630	0.00339
7168.88762	0.00339
7166.95895	0.00340
7165.03027	0.00340
7163.10160	0.00342
7161.17292	0.00343
7159.24425	0.00344
7157.31557	0.00344
7155.38689	0.00344
7153.45822	0.00346
7151.52954	0.00349
7149.60087	0.00350
7147.67219	0.00350
7145.74352	0.00350
7143.81484	0.00351
7141.88616	0.00351
7139.95749	0.00352
7138.02881	0.00354
7136.10014	0.00356
7134.17146	0.00357
7132.24279	0.00357
7130.31411	0.00357
7128.38543	0.00355
7126.45676	0.00355
7124.52808	0.00356
7122.59941	0.00359
7120.67073	0.00361
7118.74206	0.00361
7116.81338	0.00361
7114.88470	0.00362
7112.95603	0.00362
7111.02735	0.00363
7109.09868	0.00364
7107.17000	0.00365
7105.24133	0.00367
7103.31265	0.00368
7101.38397	0.00369
7099.45530	0.00371
7097.52662	0.00373
7095.59795	0.00372
7093.66927	0.00370
7091.74060	0.00370
7089.81192	0.00371
7087.88324	0.00373
7085.95457	0.00375
7084.02589	0.00376
7082.09722	0.00376
7080.16854	0.00376
7078.23987	0.00378
7076.31119	0.00380
7074.38251	0.00381
7072.45384	0.00382
7070.52516	0.00382
7068.59649	0.00381
7066.66781	0.00383
7064.73914	0.00385
7062.81046	0.00385
7060.88178	0.00385
7058.95311	0.00385
7057.02443	0.00385
7055.09576	0.00387
7053.16708	0.00388
7051.23841	0.00388
7049.30973	0.00389
7047.38105	0.00390
7045.45238	0.00391
7043.52370	0.00394
7041.59503	0.00396
7039.66635	0.00396
7037.73768	0.00396
7035.80900	0.00396
7033.88032	0.00397
7031.95165	0.00399
7030.02297	0.00401
7028.09430	0.00401
7026.16562	0.00402
7024.23695	0.00402
7022.30827	0.00403
7020.37959	0.00403
7018.45092	0.00404
7016.52224	0.00405
7014.59357	0.00406
7012.66489	0.00407
7010.73622	0.00409
7008.80754	0.00410
7006.87886	0.00410
7004.95019	0.00410
7003.02151	0.00410
7001.09284	0.00412
6999.16416	0.00413
6997.23549	0.00413
6995.30681	0.00414
6993.37813	0.00415
6991.44946	0.00416
6989.52078	0.00416
6987.59211	0.00416
6985.66343	0.00417
6983.73476	0.00419
6981.80608	0.00421
6979.87740	0.00421
6977.94873	0.00421
6976.02005	0.00421
6974.09138	0.00421
6972.16270	0.00421
6970.23403	0.00424
6968.30535	0.00426
6966.37667	0.00428
6964.44800	0.00428
6962.51932	0.00428
6960.59065	0.00429
6958.66197	0.00430
6956.73330	0.00431
6954.80462	0.00432
6952.87594	0.00433
6950.94727	0.00434
6949.01859	0.00435
6947.08992	0.00436
6945.16124	0.00436
6943.23257	0.00437
6941.30389	0.00439
6939.37521	0.00441
6937.44654	0.00443
6935.51786	0.00444
6933.58919	0.00445
6931.66051	0.00446
6929.73184	0.00446
6927.80316	0.00447
6925.87448	0.00446
6923.94581	0.00447
6922.01713	0.00448
6920.08846	0.00451
6918.15978	0.00451
6916.23111	0.00451
6914.30243	0.00452
6912.37375	0.00452
6910.44508	0.00452
6908.51640	0.00451
6906.58773	0.00451
6904.65905	0.00454
6902.73038	0.00456
6900.80170	0.00457
6898.87302	0.00458
6896.94435	0.00459
6895.01567	0.00460
6893.08700	0.00461
6891.15832	0.00463
6889.22965	0.00465
6887.30097	0.00466
6885.37229	0.00467
6883.44362	0.00467
6881.51494	0.00468
6879.58627	0.00470
6877.65759	0.00472
6875.72892	0.00473
6873.80024	0.00472
6871.87156	0.00472
6869.94289	0.00474
6868.01421	0.00475
6866.08554	0.00476
6864.15686	0.00476
6862.22819	0.00476
6860.29951	0.00477
6858.37083	0.00479
6856.44216	0.00482
6854.51348	0.00483
6852.58481	0.00484
6850.65613	0.00484
6848.72746	0.00485
6846.79878	0.00486
6844.87010	0.00488
6842.94143	0.00489
6841.01275	0.00491
6839.08408	0.00492
6837.15540	0.00492
6835.22673	0.00492
6833.29805	0.00493
6831.36937	0.00495
6829.44070	0.00496
6827.51202	0.00496
6825.58335	0.00495
6823.65467	0.00495
6821.72600	0.00498
6819.79732	0.00499
6817.86864	0.00501
6815.93997	0.00502
6814.01129	0.00502
6812.08262	0.00502
6810.15394	0.00503
6808.22527	0.00505
6806.29659	0.00506
6804.36791	0.00508
6802.43924	0.00510
6800.51056	0.00511
6798.58189	0.00512
6796.65321	0.00513
6794.72454	0.00515
6792.79586	0.00516
6790.86718	0.00517
6788.93851	0.00517
6787.00983	0.00516
6785.08116	0.00516
6783.15248	0.00517
6781.22381	0.00519
6779.29513	0.00522
6777.36645	0.00524
6775.43778	0.00525
6773.50910	0.00525
6771.58043	0.00525
6769.65175	0.00528
6767.72308	0.00533
6765.79440	0.00534
6763.86572	0.00534
6761.93705	0.00535
6760.00837	0.00536
6758.07970	0.00536
6756.15102	0.00535
6754.22235	0.00537
6752.29367	0.00539
6750.36499	0.00541
6748.43632	0.00542
6746.50764	0.00543
6744.57897	0.00543
6742.65029	0.00545
6740.72162	0.00546
6738.79294	0.00546
6736.86426	0.00545
6734.93559	0.00545
6733.00691	0.00546
6731.07824	0.00550
6729.14956	0.00553
6727.22089	0.00553
6725.29221	0.00554
6723.36353	0.00556
6721.43486	0.00557
6719.50618	0.00557
6717.57751	0.00557
6715.64883	0.00559
6713.72016	0.00562
6711.79148	0.00563
6709.86280	0.00563
6707.93413	0.00564
6706.00545	0.00566
6704.07678	0.00567
6702.14810	0.00568
6700.21943	0.00571
6698.29075	0.00573
6696.36207	0.00574
6694.43340	0.00573
6692.50472	0.00572
6690.57605	0.00571
6688.64737	0.00572
6686.71870	0.00574
6684.79002	0.00577
6682.86134	0.00580
6680.93267	0.00581
6679.00399	0.00582
6677.07532	0.00582
6675.14664	0.00584
6673.21797	0.00586
6671.28929	0.00587
6669.36061	0.00589
6667.43194	0.00592
6665.50326	0.00594
6663.57459	0.00594
6661.64591	0.00593
6659.71724	0.00593
6657.78856	0.00595
6655.85988	0.00596
6653.93121	0.00598
6652.00253	0.00599
6650.07386	0.00600
6648.14518	0.00602
6646.21651	0.00604
6644.28783	0.00605
6642.35915	0.00606
6640.43048	0.00606
6638.50180	0.00606
6636.57313	0.00608
6634.64445	0.00609
6632.71578	0.00611
6630.78710	0.00613
6628.85842	0.00616
6626.92975	0.00617
6625.00107	0.00616
6623.07240	0.00617
6621.14372	0.00618
6619.21505	0.00620
6617.28637	0.00623
6615.35769	0.00625
6613.42902	0.00626
6611.50034	0.00625
6609.57167	0.00625
6607.64299	0.00627
6605.71432	0.00629
6603.78564	0.00632
6601.85696	0.00632
6599.92829	0.00631
6597.99961	0.00632
6596.07094	0.00635
6594.14226	0.00637
6592.21359	0.00637
6590.28491	0.00639
6588.35623	0.00641
6586.42756	0.00643
6584.49888	0.00643
6582.57021	0.00644
6580.64153	0.00647
6578.71286	0.00650
6576.78418	0.00652
6574.85550	0.00652
6572.92683	0.00651
6570.99815	0.00653
6569.06948	0.00655
6567.14080	0.00656
6565.21213	0.00657
6563.28345	0.00660
6561.35477	0.00661
6559.42610	0.00661
6557.49742	0.00662
6555.56875	0.00664
6553.64007	0.00666
6551.71140	0.00667
6549.78272	0.00668
6547.85404	0.00670
6545.92537	0.00672
6543.99669	0.00674
6542.06802	0.00675
6540.13934	0.00675
6538.21067	0.00674
6536.28199	0.00676
6534.35331	0.00679
6532.42464	0.00681
6530.49596	0.00681
6528.56729	0.00681
6526.63861	0.00683
6524.70994	0.00685
6522.78126	0.00688
6520.85258	0.00691
6518.92391	0.00692
6516.99523	0.00692
6515.06656	0.00693
6513.13788	0.00694
6511.20921	0.00696
6509.28053	0.00698
6507.35185	0.00700
6505.42318	0.00701
6503.49450	0.00701
6501.56583	0.00700
6499.63715	0.00701
6497.70848	0.00702
6495.77980	0.00705
6493.85112	0.00710
6491.92245	0.00714
6489.99377	0.00715
6488.06510	0.00715
6486.13642	0.00715
6484.20775	0.00717
6482.27907	0.00718
6480.35039	0.00720
6478.42172	0.00722
6476.49304	0.00724
6474.56437	0.00726
6472.63569	0.00728
6470.70702	0.00729
6468.77834	0.00729
6466.84966	0.00729
6464.92099	0.00731
6462.99231	0.00734
6461.06364	0.00736
6459.13496	0.00738
6457.20629	0.00739
6455.27761	0.00738
6453.34893	0.00739
6451.42026	0.00742
6449.49158	0.00745
6447.56291	0.00746
6445.63423	0.00748
6443.70556	0.00750
6441.77688	0.00751
6439.84820	0.00751
6437.91953	0.00753
6435.99085	0.00754
6434.06218	0.00756
6432.13350	0.00758
6430.20483	0.00760
6428.27615	0.00763
6426.34747	0.00763
6424.41880	0.00763
6422.49012	0.00765
6420.56145	0.00767
6418.63277	0.00770
6416.70410	0.00772
6414.77542	0.00774
6412.84674	0.00775
6410.91807	0.00776
6408.98939	0.00777
6407.06072	0.00779
6405.13204	0.00780
6403.20337	0.00781
6401.27469	0.00784
6399.34601	0.00787
6397.41734	0.00790
6395.48866	0.00791
6393.55999	0.00792
6391.63131	0.00793
6389.70264	0.00794
6387.77396	0.00794
6385.84528	0.00795
6383.91661	0.00798
6381.98793	0.00802
6380.05926	0.00804
6378.13058	0.00804
6376.20191	0.00805
6374.27323	0.00807
6372.34455	0.00808
6370.41588	0.00809
6368.48720	0.00811
6366.55853	0.00813
6364.62985	0.00813
6362.70118	0.00815
6360.77250	0.00819
6358.84382	0.00822
6356.91515	0.00823
6354.98647	0.00824
6353.05780	0.00825
6351.12912	0.00827
6349.20045	0.00830
6347.27177	0.00831
6345.34309	0.00832
6343.41442	0.00834
6341.48574	0.00835
6339.55707	0.00836
6337.62839	0.00838
6335.69972	0.00841
6333.77104	0.00844
6331.84236	0.00846
6329.91369	0.00847
6327.98501	0.00848
6326.05634	0.00850
6324.12766	0.00851
6322.19899	0.00854
6320.27031	0.00856
6318.34163	0.00857
6316.41296	0.00859
6314.48428	0.00861
6312.55561	0.00863
6310.62693	0.00866
6308.69826	0.00867
6306.76958	0.00868
6304.84090	0.00869
6302.91223	0.00871
6300.98355	0.00874
6299.05488	0.00877
6297.12620	0.00877
6295.19753	0.00877
6293.26885	0.00879
6291.34017	0.00882
6289.41150	0.00884
6287.48282	0.00884
6285.55415	0.00886
6283.62547	0.00888
6281.69680	0.00891
6279.76812	0.00893
6277.83944	0.00894
6275.91077	0.00895
6273.98209	0.00897
6272.05342	0.00901
6270.12474	0.00904
6268.19607	0.00905
6266.26739	0.00908
6264.33871	0.00910
6262.41004	0.00911
6260.48136	0.00912
6258.55269	0.00915
6256.62401	0.00918
6254.69534	0.00919
6252.76666	0.00920
6250.83798	0.00921
6248.90931	0.00922
6246.98063	0.00924
6245.05196	0.00926
6243.12328	0.00929
6241.19461	0.00932
6239.26593	0.00935
6237.33725	0.00936
6235.40858	0.00939
6233.47990	0.00941
6231.55123	0.00942
6229.62255	0.00943
6227.69388	0.00944
6225.76520	0.00946
6223.83652	0.00949
6221.90785	0.00951
6219.97917	0.00952
6218.05050	0.00956
6216.12182	0.00960
6214.19315	0.00962
6212.26447	0.00962
6210.33579	0.00962
6208.40712	0.00965
6206.47844	0.00968
6204.54977	0.00972
6202.62109	0.00974
6200.69242	0.00975
6198.76374	0.00975
6196.83506	0.00977
6194.90639	0.00978
6192.97771	0.00980
6191.04904	0.00980
6189.12036	0.00980
6187.19169	0.00982
6185.26301	0.00985
6183.33433	0.00990
6181.40566	0.00994
6179.47698	0.00996
6177.54831	0.00999
6175.61963	0.01000
6173.69096	0.01001
6171.76228	0.01004
6169.83360	0.01006
6167.90493	0.01008
6165.97625	0.01009
6164.04758	0.01012
6162.11890	0.01016
6160.19023	0.01017
6158.26155	0.01018
6156.33287	0.01019
6154.40420	0.01022
6152.47552	0.01026
6150.54685	0.01031
6148.61817	0.01033
6146.68950	0.01033
6144.76082	0.01035
6142.83214	0.01038
6140.90347	0.01039
6138.97479	0.01041
6137.04612	0.01043
6135.11744	0.01046
6133.18877	0.01048
6131.26009	0.01050
6129.33141	0.01051
6127.40274	0.01052
6125.47406	0.01054
6123.54539	0.01057
6121.61671	0.01060
6119.68804	0.01061
6117.75936	0.01063
6115.83068	0.01065
6113.90201	0.01065
6111.97333	0.01066
6110.04466	0.01068
6108.11598	0.01073
6106.18731	0.01078
6104.25863	0.01081
6102.32995	0.01084
6100.40128	0.01087
6098.47260	0.01088
6096.54393	0.01089
6094.61525	0.01092
6092.68658	0.01094
6090.75790	0.01096
6088.82922	0.01100
6086.90055	0.01103
6084.97187	0.01103
6083.04320	0.01103
6081.11452	0.01105
6079.18585	0.01108
6077.25717	0.01110
6075.32849	0.01112
6073.39982	0.01115
6071.47114	0.01119
6069.54247	0.01123
6067.61379	0.01126
6065.68512	0.01127
6063.75644	0.01127
6061.82776	0.01128
6059.89909	0.01130
6057.97041	0.01134
6056.04174	0.01138
6054.11306	0.01141
6052.18439	0.01144
6050.25571	0.01145
6048.32703	0.01147
6046.39836	0.01148
6044.46968	0.01151
6042.54101	0.01153
6040.61233	0.01154
6038.68366	0.01156
6036.75498	0.01159
6034.82630	0.01163
6032.89763	0.01165
6030.96895	0.01167
6029.04028	0.01170
6027.11160	0.01174
6025.18293	0.01177
6023.25425	0.01179
6021.32557	0.01181
6019.39690	0.01183
6017.46822	0.01185
6015.53955	0.01186
6013.61087	0.01187
6011.68220	0.01189
6009.75352	0.01193
6007.82484	0.01196
6005.89617	0.01200
6003.96749	0.01202
6002.03882	0.01205
6000.11014	0.01207
5998.18147	0.01210
5996.25279	0.01214
5994.32411	0.01216
5992.39544	0.01218
5990.46676	0.01220
5988.53809	0.01223
5986.60941	0.01226
5984.68074	0.01230
5982.75206	0.01233
5980.82338	0.01237
5978.89471	0.01239
5976.96603	0.01241
5975.03736	0.01243
5973.10868	0.01246
5971.18001	0.01248
5969.25133	0.01249
5967.32265	0.01251
5965.39398	0.01254
5963.46530	0.01257
5961.53663	0.01259
5959.60795	0.01260
5957.67928	0.01262
5955.75060	0.01265
5953.82192	0.01266
5951.89325	0.01268
5949.96457	0.01270
5948.03590	0.01273
5946.10722	0.01276
5944.17855	0.01281
5942.24987	0.01286
5940.32119	0.01288
5938.39252	0.01289
5936.46384	0.01291
5934.53517	0.01293
5932.60649	0.01296
5930.67782	0.01300
5928.74914	0.01304
5926.82046	0.01307
5924.89179	0.01309
5922.96311	0.01312
5921.03444	0.01315
5919.10576	0.01318
5917.17709	0.01321
5915.24841	0.01323
5913.31973	0.01324
5911.39106	0.01326
5909.46238	0.01329
5907.53371	0.01333
5905.60503	0.01336
5903.67636	0.01338
5901.74768	0.01340
5899.81900	0.01344
5897.89033	0.01346
5895.96165	0.01350
5894.03298	0.01354
5892.10430	0.01356
5890.17563	0.01357
5888.24695	0.01358
5886.31827	0.01362
5884.38960	0.01365
5882.46092	0.01367
5880.53225	0.01369
5878.60357	0.01373
5876.67490	0.01377
5874.74622	0.01381
5872.81755	0.01384
5870.88887	0.01388
5868.96019	0.01390
5867.03152	0.01392
5865.10284	0.01395
5863.17417	0.01399
5861.24549	0.01402
5859.31682	0.01405
5857.38814	0.01407
5855.45946	0.01409
5853.53079	0.01412
5851.60211	0.01417
5849.67344	0.01421
5847.74476	0.01423
5845.81609	0.01424
5843.88741	0.01426
5841.95873	0.01428
5840.03006	0.01431
5838.10138	0.01433
5836.17271	0.01436
5834.24403	0.01440
5832.31536	0.01443
5830.38668	0.01445
5828.45800	0.01447
5826.52933	0.01450
5824.60065	0.01453
5822.67198	0.01456
5820.74330	0.01459
5818.81463	0.01462
5816.88595	0.01464
5814.95727	0.01467
5813.02860	0.01470
5811.09992	0.01473
5809.17125	0.01476
5807.24257	0.01480
5805.31390	0.01484
5803.38522	0.01488
5801.45654	0.01491
5799.52787	0.01493
5797.59919	0.01495
5795.67052	0.01498
5793.74184	0.01503
5791.81317	0.01506
5789.88449	0.01508
5787.95581	0.01510
5786.02714	0.01512
5784.09846	0.01516
5782.16979	0.01521
5780.24111	0.01526
5778.31244	0.01528
5776.38376	0.01531
5774.45508	0.01534
5772.52641	0.01538
5770.59773	0.01541
5768.66906	0.01545
5766.74038	0.01548
5764.81171	0.01550
5762.88303	0.01551
5760.95435	0.01552
5759.02568	0.01554
5757.09700	0.01558
5755.16833	0.01564
5753.23965	0.01569
5751.31098	0.01573
5749.38230	0.01576
5747.45362	0.01578
5745.52495	0.01581
5743.59627	0.01584
5741.66760	0.01587
5739.73892	0.01590
5737.81025	0.01592
5735.88157	0.01595
5733.95289	0.01598
5732.02422	0.01600
5730.09554	0.01605
5728.16687	0.01610
5726.23819	0.01613
5724.30952	0.01615
5722.38084	0.01618
5720.45216	0.01623
5718.52349	0.01627
5716.59481	0.01629
5714.66614	0.01631
5712.73746	0.01633
5710.80879	0.01636
5708.88011	0.01642
5706.95143	0.01647
5705.02276	0.01649
5703.09408	0.01650
5701.16541	0.01653
5699.23673	0.01656
5697.30806	0.01660
5695.37938	0.01663
5693.45070	0.01666
5691.52203	0.01670
5689.59335	0.01675
5687.66468	0.01679
5685.73600	0.01683
5683.80733	0.01686
5681.87865	0.01688
5679.94997	0.01689
5678.02130	0.01692
5676.09262	0.01697
5674.16395	0.01701
5672.23527	0.01704
5670.30660	0.01707
5668.37792	0.01711
5666.44924	0.01715
5664.52057	0.01718
5662.59189	0.01720
5660.66322	0.01724
5658.73454	0.01728
5656.80587	0.01731
5654.87719	0.01734
5652.94851	0.01737
5651.01984	0.01741
5649.09116	0.01746
5647.16249	0.01750
5645.23381	0.01752
5643.30514	0.01755
5641.37646	0.01761
5639.44778	0.01766
5637.51911	0.01769
5635.59043	0.01772
5633.66176	0.01774
5631.73308	0.01778
5629.80441	0.01781
5627.87573	0.01783
5625.94705	0.01785
5624.01838	0.01790
5622.08970	0.01794
5620.16103	0.01797
5618.23235	0.01800
5616.30368	0.01804
5614.37500	0.01809
5612.44632	0.01812
5610.51765	0.01815
5608.58897	0.01819
5606.66030	0.01823
5604.73162	0.01827
5602.80295	0.01830
5600.87427	0.01833
5598.94559	0.01837
5597.01692	0.01841
5595.08824	0.01843
5593.15957	0.01845
5591.23089	0.01849
5589.30222	0.01852
5587.37354	0.01855
5585.44486	0.01859
5583.51619	0.01862
5581.58751	0.01866
5579.65884	0.01870
5577.73016	0.01875
5575.80149	0.01881
5573.87281	0.01884
5571.94413	0.01886
5570.01546	0.01889
5568.08678	0.01894
5566.15811	0.01898
5564.22943	0.01902
5562.30076	0.01906
5560.37208	0.01908
5558.44340	0.01912
5556.51473	0.01918
5554.58605	0.01925
5552.65738	0.01928
5550.72870	0.01930
5548.80003	0.01932
5546.87135	0.01936
5544.94267	0.01941
5543.01400	0.01945
5541.08532	0.01948
5539.15665	0.01951
5537.22797	0.01953
5535.29930	0.01956
5533.37062	0.01960
5531.44194	0.01965
5529.51327	0.01969
5527.58459	0.01974
5525.65592	0.01978
5523.72724	0.01981
5521.79857	0.01984
5519.86989	0.01988
5517.94121	0.01993
5516.01254	0.01995
5514.08386	0.01998
5512.15519	0.02003
5510.22651	0.02009
5508.29784	0.02012
5506.36916	0.02014
5504.44048	0.02017
5502.51181	0.02021
5500.58313	0.02024
5498.65446	0.02027
5496.72578	0.02031
5494.79711	0.02036
5492.86843	0.02041
5490.93975	0.02045
5489.01108	0.02050
5487.08240	0.02055
5485.15373	0.02059
5483.22505	0.02063
5481.29638	0.02067
5479.36770	0.02068
5477.43902	0.02069
5475.51035	0.02072
5473.58167	0.02078
5471.65300	0.02084
5469.72432	0.02089
5467.79565	0.02092
5465.86697	0.02095
5463.93829	0.02098
5462.00962	0.02100
5460.08094	0.02104
5458.15227	0.02111
5456.22359	0.02118
5454.29492	0.02122
5452.36624	0.02126
5450.43756	0.02130
5448.50889	0.02131
5446.58021	0.02134
5444.65154	0.02137
5442.72286	0.02140
5440.79419	0.02145
5438.86551	0.02151
5436.93683	0.02155
5435.00816	0.02160
5433.07948	0.02164
5431.15081	0.02168
5429.22213	0.02170
5427.29346	0.02174
5425.36478	0.02180
5423.43610	0.02185
5421.50743	0.02189
5419.57875	0.02192
5417.65008	0.02194
5415.72140	0.02196
5413.79273	0.02198
5411.86405	0.02203
5409.93537	0.02210
5408.00670	0.02216
5406.07802	0.02221
5404.14935	0.02224
5402.22067	0.02227
5400.29200	0.02231
5398.36332	0.02235
5396.43464	0.02237
5394.50597	0.02241
5392.57729	0.02246
5390.64862	0.02251
5388.71994	0.02256
5386.79127	0.02260
5384.86259	0.02265
5382.93391	0.02270
5381.00524	0.02275
5379.07656	0.02276
5377.14789	0.02278
5375.21921	0.02283
5373.29054	0.02291
5371.36186	0.02297
5369.43318	0.02301
5367.50451	0.02303
5365.57583	0.02305
5363.64716	0.02309
5361.71848	0.02315
5359.78981	0.02320
5357.86113	0.02325
5355.93245	0.02327
5354.00378	0.02329
5352.07510	0.02331
5350.14643	0.02335
5348.21775	0.02342
5346.28908	0.02348
5344.36040	0.02351
5342.43172	0.02355
5340.50305	0.02358
5338.57437	0.02362
5336.64570	0.02367
5334.71702	0.02374
5332.78835	0.02382
5330.85967	0.02388
5328.93099	0.02390
5327.00232	0.02392
5325.07364	0.02396
5323.14497	0.02400
5321.21629	0.02404
5319.28762	0.02407
5317.35894	0.02411
5315.43026	0.02418
5313.50159	0.02425
5311.57291	0.02430
5309.64424	0.02433
5307.71556	0.02436
5305.78689	0.02439
5303.85821	0.02443
5301.92953	0.02447
5300.00086	0.02453
5298.07218	0.02458
5296.14351	0.02462
5294.21483	0.02466
5292.28616	0.02470
5290.35748	0.02474
5288.42880	0.02480
5286.50013	0.02485
5284.57145	0.02487
5282.64278	0.02490
5280.71410	0.02494
5278.78543	0.02500
5276.85675	0.02507
5274.92807	0.02512
5272.99940	0.02514
5271.07072	0.02515
5269.14205	0.02519
5267.21337	0.02523
5265.28470	0.02526
5263.35602	0.02531
5261.42734	0.02537
5259.49867	0.02544
5257.56999	0.02549
5255.64132	0.02554
5253.71264	0.02560
5251.78397	0.02564
5249.85529	0.02567
5247.92661	0.02570
5245.99794	0.02574
5244.06926	0.02578
5242.14059	0.02583
5240.21191	0.02589
5238.28324	0.02594
5236.35456	0.02598
5234.42588	0.02603
5232.49721	0.02609
5230.56853	0.02614
5228.63986	0.02617
5226.71118	0.02620
5224.78251	0.02623
5222.85383	0.02627
5220.92515	0.02632
5218.99648	0.02638
5217.06780	0.02642
5215.13913	0.02646
5213.21045	0.02649
5211.28178	0.02655
5209.35310	0.02662
5207.42442	0.02668
5205.49575	0.02672
5203.56707	0.02676
5201.63840	0.02681
5199.70972	0.02687
5197.78105	0.02692
5195.85237	0.02696
5193.92369	0.02699
5191.99502	0.02702
5190.06634	0.02706
5188.13767	0.02711
5186.20899	0.02716
5184.28032	0.02721
5182.35164	0.02725
5180.42296	0.02729
5178.49429	0.02734
5176.56561	0.02740
5174.63694	0.02747
5172.70826	0.02753
5170.77959	0.02756
5168.85091	0.02760
5166.92223	0.02765
5164.99356	0.02769
5163.06488	0.02770
5161.13621	0.02774
5159.20753	0.02780
5157.27886	0.02785
5155.35018	0.02790
5153.42150	0.02795
5151.49283	0.02799
5149.56415	0.02803
5147.63548	0.02808
5145.70680	0.02814
5143.77813	0.02820
5141.84945	0.02826
5139.92077	0.02831
5137.99210	0.02835
5136.06342	0.02838
5134.13475	0.02843
5132.20607	0.02849
5130.27740	0.02856
5128.34872	0.02861
5126.42004	0.02865
5124.49137	0.02869
5122.56269	0.02874
5120.63402	0.02879
5118.70534	0.02883
5116.77667	0.02887
5114.84799	0.02891
5112.91931	0.02897
5110.99064	0.02904
5109.06196	0.02909
5107.13329	0.02913
5105.20461	0.02917
5103.27594	0.02921
5101.34726	0.02925
5099.41858	0.02930
5097.48991	0.02935
5095.56123	0.02939
5093.63256	0.02944
5091.70388	0.02950
5089.77521	0.02957
5087.84653	0.02963
5085.91785	0.02966
5083.98918	0.02969
5082.06050	0.02973
5080.13183	0.02979
5078.20315	0.02986
5076.27448	0.02992
5074.34580	0.02997
5072.41712	0.03002
5070.48845	0.03006
5068.55977	0.03009
5066.63110	0.03013
5064.70242	0.03018
5062.77375	0.03025
5060.84507	0.03030
5058.91639	0.03034
5056.98772	0.03039
5055.05904	0.03045
5053.13037	0.03051
5051.20169	0.03054
5049.27302	0.03056
5047.34434	0.03060
5045.41566	0.03067
5043.48699	0.03073
5041.55831	0.03077
5039.62964	0.03082
5037.70096	0.03088
5035.77229	0.03096
5033.84361	0.03101
5031.91493	0.03105
5029.98626	0.03110
5028.05758	0.03114
5026.12891	0.03119
5024.20023	0.03124
5022.27156	0.03128
5020.34288	0.03132
5018.41420	0.03137
5016.48553	0.03141
5014.55685	0.03146
5012.62818	0.03153
5010.69950	0.03160
5008.77083	0.03166
5006.84215	0.03171
5004.91347	0.03176
5002.98480	0.03182
5001.05612	0.03187
4999.12745	0.03191
4997.19877	0.03195
4995.27010	0.03200
4993.34142	0.03207
4991.41274	0.03213
4989.48407	0.03220
4987.55539	0.03226
4985.62672	0.03232
4983.69804	0.03235
4981.76937	0.03237
4979.84069	0.03241
4977.91201	0.03248
4975.98334	0.03254
4974.05466	0.03259
4972.12599	0.03265
4970.19731	0.03271
4968.26864	0.03276
4966.33996	0.03280
4964.41128	0.03285
4962.48261	0.03292
4960.55393	0.03299
4958.62526	0.03304
4956.69658	0.03308
4954.76791	0.03311
4952.83923	0.03315
4950.91055	0.03320
4948.98188	0.03327
4947.05320	0.03333
4945.12453	0.03337
4943.19585	0.03343
4941.26718	0.03350
4939.33850	0.03355
4937.40982	0.03361
4935.48115	0.03366
4933.55247	0.03370
4931.62380	0.03375
4929.69512	0.03382
4927.76645	0.03389
4925.83777	0.03393
4923.90909	0.03396
4921.98042	0.03400
4920.05174	0.03406
4918.12307	0.03412
4916.19439	0.03419
4914.26572	0.03424
4912.33704	0.03430
4910.40836	0.03435
4908.47969	0.03441
4906.55101	0.03445
4904.62234	0.03450
4902.69366	0.03455
4900.76499	0.03459
4898.83631	0.03465
4896.90763	0.03472
4894.97896	0.03479
4893.05028	0.03485
4891.12161	0.03491
4889.19293	0.03496
4887.26426	0.03501
4885.33558	0.03507
4883.40690	0.03513
4881.47823	0.03519
4879.54955	0.03526
4877.62088	0.03533
4875.69220	0.03538
4873.76353	0.03543
4871.83485	0.03548
4869.90617	0.03551
4867.97750	0.03556
4866.04882	0.03563
4864.12015	0.03569
4862.19147	0.03573
4860.26280	0.03578
4858.33412	0.03583
4856.40544	0.03588
4854.47677	0.03594
4852.54809	0.03601
4850.61942	0.03606
4848.69074	0.03612
4846.76207	0.03617
4844.83339	0.03623
4842.90471	0.03629
4840.97604	0.03635
4839.04736	0.03641
4837.11869	0.03648
4835.19001	0.03655
4833.26134	0.03662
4831.33266	0.03669
4829.40398	0.03674
4827.47531	0.03677
4825.54663	0.03680
4823.61796	0.03686
4821.68928	0.03691
4819.76061	0.03699
4817.83193	0.03708
4815.90325	0.03716
4813.97458	0.03721
4812.04590	0.03725
4810.11723	0.03730
4808.18855	0.03735
4806.25988	0.03740
4804.33120	0.03745
4802.40252	0.03750
4800.47385	0.03756
4798.54517	0.03763
4796.61650	0.03769
4794.68782	0.03774
4792.75915	0.03779
4790.83047	0.03785
4788.90179	0.03793
4786.97312	0.03801
4785.04444	0.03808
4783.11577	0.03812
4781.18709	0.03817
4779.25842	0.03824
4777.32974	0.03831
4775.40106	0.03838
4773.47239	0.03845
4771.54371	0.03851
4769.61504	0.03858
4767.68636	0.03863
4765.75769	0.03869
4763.82901	0.03876
4761.90033	0.03884
4759.97166	0.03890
4758.04298	0.03896
4756.11431	0.03901
4754.18563	0.03907
4752.25696	0.03913
4750.32828	0.03921
4748.39960	0.03926
4746.47093	0.03929
4744.54225	0.03934
4742.61358	0.03939
4740.68490	0.03945
4738.75623	0.03953
4736.82755	0.03961
4734.89887	0.03968
4732.97020	0.03975
4731.04152	0.03979
4729.11285	0.03983
4727.18417	0.03989
4725.25550	0.03998
4723.32682	0.04007
4721.39814	0.04015
4719.46947	0.04020
4717.54079	0.04025
4715.61212	0.04029
4713.68344	0.04032
4711.75477	0.04037
4709.82609	0.04044
4707.89741	0.04053
4705.96874	0.04061
4704.04006	0.04069
4702.11139	0.04074
4700.18271	0.04077
4698.25404	0.04082
4696.32536	0.04091
4694.39668	0.04101
4692.46801	0.04109
4690.53933	0.04116
4688.61066	0.04121
4686.68198	0.04124
4684.75331	0.04130
4682.82463	0.04139
4680.89595	0.04147
4678.96728	0.04154
4677.03860	0.04162
4675.10993	0.04169
4673.18125	0.04176
4671.25258	0.04182
4669.32390	0.04188
4667.39522	0.04193
4665.46655	0.04197
4663.53787	0.04203
4661.60920	0.04211
4659.68052	0.04219
4657.75185	0.04226
4655.82317	0.04234
4653.89449	0.04245
4651.96582	0.04253
4650.03714	0.04258
4648.10847	0.04262
4646.17979	0.04268
4644.25112	0.04274
4642.32244	0.04280
4640.39376	0.04288
4638.46509	0.04296
4636.53641	0.04303
4634.60774	0.04308
4632.67906	0.04314
4630.75039	0.04321
4628.82171	0.04329
4626.89303	0.04338
4624.96436	0.04344
4623.03568	0.04350
4621.10701	0.04354
4619.17833	0.04360
4617.24966	0.04369
4615.32098	0.04378
4613.39230	0.04385
4611.46363	0.04391
4609.53495	0.04399
4607.60628	0.04408
4605.67760	0.04417
4603.74893	0.04422
4601.82025	0.04426
4599.89157	0.04432
4597.96290	0.04440
4596.03422	0.04448
4594.10555	0.04455
4592.17687	0.04463
4590.24820	0.04471
4588.31952	0.04478
4586.39084	0.04486
4584.46217	0.04494
4582.53349	0.04502
4580.60482	0.04510
4578.67614	0.04517
4576.74747	0.04523
4574.81879	0.04529
4572.89011	0.04536
4570.96144	0.04546
4569.03276	0.04556
4567.10409	0.04563
4565.17541	0.04571
4563.24674	0.04579
4561.31806	0.04588
4559.38938	0.04596
4557.46071	0.04604
4555.53203	0.04610
4553.60336	0.04615
4551.67468	0.04620
4549.74601	0.04627
4547.81733	0.04636
4545.88865	0.04647
4543.95998	0.04656
4542.03130	0.04661
4540.10263	0.04667
4538.17395	0.04674
4536.24528	0.04682
4534.31660	0.04690
4532.38792	0.04698
4530.45925	0.04706
4528.53057	0.04714
4526.60190	0.04723
4524.67322	0.04731
4522.74455	0.04740
4520.81587	0.04748
4518.88719	0.04756
4516.95852	0.04763
4515.02984	0.04768
4513.10117	0.04775
4511.17249	0.04783
4509.24382	0.04790
4507.31514	0.04798
4505.38646	0.04807
4503.45779	0.04815
4501.52911	0.04822
4499.60044	0.04829
4497.67176	0.04836
4495.74309	0.04844
4493.81441	0.04852
4491.88573	0.04861
4489.95706	0.04870
4488.02838	0.04879
4486.09971	0.04887
4484.17103	0.04897
4482.24236	0.04907
4480.31368	0.04916
4478.38500	0.04923
4476.45633	0.04929
4474.52765	0.04936
4472.59898	0.04945
4470.67030	0.04956
4468.74163	0.04965
4466.81295	0.04973
4464.88427	0.04981
4462.95560	0.04986
4461.02692	0.04994
4459.09825	0.05003
4457.16957	0.05012
4455.24090	0.05019
4453.31222	0.05026
4451.38354	0.05034
4449.45487	0.05044
4447.52619	0.05054
4445.59752	0.05064
4443.66884	0.05073
4441.74017	0.05083
4439.81149	0.05093
4437.88281	0.05101
4435.95414	0.05107
4434.02546	0.05113
4432.09679	0.05121
4430.16811	0.05131
4428.23944	0.05143
4426.31076	0.05153
4424.38208	0.05159
4422.45341	0.05167
4420.52473	0.05178
4418.59606	0.05187
4416.66738	0.05195
4414.73871	0.05203
4412.81003	0.05211
4410.88135	0.05220
4408.95268	0.05232
4407.02400	0.05242
4405.09533	0.05251
4403.16665	0.05260
4401.23798	0.05269
4399.30930	0.05278
4397.38062	0.05288
4395.45195	0.05298
4393.52327	0.05306
4391.59460	0.05314
4389.66592	0.05321
4387.73725	0.05329
4385.80857	0.05337
4383.87989	0.05346
4381.95122	0.05356
4380.02254	0.05366
4378.09387	0.05377
4376.16519	0.05387
4374.23652	0.05397
4372.30784	0.05407
4370.37916	0.05420
4368.45049	0.05433
4366.52181	0.05444
4364.59314	0.05450
4362.66446	0.05456
4360.73579	0.05464
4358.80711	0.05473
4356.87843	0.05484
4354.94976	0.05495
4353.02108	0.05506
4351.09241	0.05516
4349.16373	0.05526
4347.23506	0.05534
4345.30638	0.05544
4343.37770	0.05554
4341.44903	0.05564
4339.52035	0.05573
4337.59168	0.05582
4335.66300	0.05593
4333.73433	0.05603
4331.80565	0.05614
4329.87697	0.05625
4327.94830	0.05635
4326.01962	0.05643
4324.09095	0.05651
4322.16227	0.05659
4320.23360	0.05668
4318.30492	0.05677
4316.37624	0.05689
4314.44757	0.05702
4312.51889	0.05712
4310.59022	0.05722
4308.66154	0.05733
4306.73287	0.05744
4304.80419	0.05754
4302.87551	0.05762
4300.94684	0.05771
4299.01816	0.05781
4297.08949	0.05791
4295.16081	0.05801
4293.23214	0.05811
4291.30346	0.05822
4289.37478	0.05834
4287.44611	0.05846
4285.51743	0.05856
4283.58876	0.05866
4281.66008	0.05877
4279.73141	0.05889
4277.80273	0.05900
4275.87405	0.05912
4273.94538	0.05924
4272.01670	0.05936
4270.08803	0.05945
4268.15935	0.05953
4266.23068	0.05961
4264.30200	0.05973
4262.37332	0.05985
4260.44465	0.05996
4258.51597	0.06006
4256.58730	0.06016
4254.65862	0.06028
4252.72995	0.06039
4250.80127	0.06047
4248.87259	0.06056
4246.94392	0.06068
4245.01524	0.06082
4243.08657	0.06095
4241.15789	0.06106
4239.22922	0.06117
4237.30054	0.06129
4235.37186	0.06142
4233.44319	0.06152
4231.51451	0.06160
4229.58584	0.06171
4227.65716	0.06181
4225.72849	0.06191
4223.79981	0.06203
4221.87113	0.06215
4219.94246	0.06226
4218.01378	0.06237
4216.08511	0.06249
4214.15643	0.06259
4212.22776	0.06270
4210.29908	0.06282
4208.37040	0.06294
4206.44173	0.06304
4204.51305	0.06314
4202.58438	0.06327
4200.65570	0.06341
4198.72703	0.06351
4196.79835	0.06360
4194.86968	0.06370
4192.94100	0.06381
4191.01232	0.06394
4189.08365	0.06407
4187.15497	0.06419
4185.22630	0.06433
4183.29762	0.06446
4181.36895	0.06457
4179.44027	0.06468
4177.51159	0.06480
4175.58292	0.06493
4173.65424	0.06507
4171.72557	0.06520
4169.79689	0.06532
4167.86822	0.06546
4165.93954	0.06560
4164.01086	0.06569
4162.08219	0.06577
4160.15351	0.06586
4158.22484	0.06598
4156.29616	0.06612
4154.36749	0.06627
4152.43881	0.06639
4150.51013	0.06648
4148.58146	0.06658
4146.65278	0.06672
4144.72411	0.06687
4142.79543	0.06701
4140.86676	0.06715
4138.93808	0.06731
4137.00940	0.06745
4135.08073	0.06756
4133.15205	0.06766
4131.22338	0.06776
4129.29470	0.06788
4127.36603	0.06801
4125.43735	0.06814
4123.50867	0.06825
4121.58000	0.06837
4119.65132	0.06850
4117.72265	0.06864
4115.79397	0.06876
4113.86530	0.06888
4111.93662	0.06903
4110.00794	0.06918
4108.07927	0.06930
4106.15059	0.06940
4104.22192	0.06951
4102.29324	0.06964
4100.36457	0.06979
4098.43589	0.06993
4096.50721	0.07004
4094.57854	0.07013
4092.64986	0.07025
4090.72119	0.07038
4088.79251	0.07052
4086.86384	0.07068
4084.93516	0.07083
4083.00648	0.07097
4081.07781	0.07110
4079.14913	0.07123
4077.22046	0.07136
4075.29178	0.07148
4073.36311	0.07161
4071.43443	0.07175
4069.50575	0.07190
4067.57708	0.07203
4065.64840	0.07217
4063.71973	0.07233
4061.79105	0.07249
4059.86238	0.07263
4057.93370	0.07275
4056.00502	0.07285
4054.07635	0.07298
4052.14767	0.07312
4050.21900	0.07326
4048.29032	0.07339
4046.36165	0.07352
4044.43297	0.07367
4042.50429	0.07380
4040.57562	0.07392
4038.64694	0.07408
4036.71827	0.07425
4034.78959	0.07438
4032.86092	0.07450
4030.93224	0.07464
4029.00356	0.07479
4027.07489	0.07494
4025.14621	0.07508
4023.21754	0.07522
4021.28886	0.07534
4019.36019	0.07547
4017.43151	0.07560
4015.50283	0.07574
4013.57416	0.07587
4011.64548	0.07601
4009.71681	0.07615
4007.78813	0.07629
4005.85946	0.07645
4003.93078	0.07660
4002.00210	0.07675
4000.07343	0.07687
3998.14475	0.07700
3996.21608	0.07716
3994.28740	0.07733
3992.35873	0.07748
3990.43005	0.07761
3988.50137	0.07775
3986.57270	0.07790
3984.64402	0.07805
3982.71535	0.07820
3980.78667	0.07833
3978.85800	0.07847
3976.92932	0.07861
3975.00064	0.07874
3973.07197	0.07888
3971.14329	0.07905
3969.21462	0.07922
3967.28594	0.07938
3965.35727	0.07952
3963.42859	0.07965
3961.49991	0.07978
3959.57124	0.07990
3957.64256	0.08004
3955.71389	0.08020
3953.78521	0.08038
3951.85654	0.08053
3949.92786	0.08064
3947.99918	0.08076
3946.07051	0.08093
3944.14183	0.08110
3942.21316	0.08127
3940.28448	0.08145
3938.35581	0.08163
3936.42713	0.08178
3934.49845	0.08188
3932.56978	0.08197
3930.64110	0.08211
3928.71243	0.08229
3926.78375	0.08243
3924.85508	0.08258
3922.92640	0.08275
3920.99772	0.08290
3919.06905	0.08300
3917.14037	0.08313
3915.21170	0.08334
3913.28302	0.08357
3911.35435	0.08374
3909.42567	0.08388
3907.49699	0.08395
3905.56832	0.08397
3903.63964	0.08401
3901.71097	0.08414
3899.78229	0.08435
3897.85362	0.08464
3895.92494	0.08491
3893.99626	0.08505
3892.06759	0.08511
3890.13891	0.08524
3888.21024	0.08538
3886.28156	0.08549
3884.35289	0.08566
3882.42421	0.08585
3880.49553	0.08601
3878.56686	0.08622
3876.63818	0.08641
3874.70951	0.08652
3872.78083	0.08660
3870.85216	0.08669
3868.92348	0.08689
3866.99480	0.08712
3865.06613	0.08729
3863.13745	0.08747
3861.20878	0.08771
3859.28010	0.08788
3857.35143	0.08784
3855.42275	0.08762
3853.49407	0.08764
3851.56540	0.08811
3849.63672	0.08867
3847.70805	0.08899
3845.77937	0.08912
3843.85070	0.08916
3841.92202	0.08921
3839.99334	0.08924
3838.06467	0.08933
3836.13599	0.08955
3834.20732	0.08985
3832.27864	0.09013
3830.34997	0.09039
3828.42129	0.09058
3826.49261	0.09073
3824.56394	0.09082
3822.63526	0.09083
3820.70659	0.09091
3818.77791	0.09110
3816.84924	0.09127
3814.92056	0.09153
3812.99188	0.09187
3811.06321	0.09211
3809.13453	0.09220
3807.20586	0.09230
3805.27718	0.09246
3803.34851	0.09254
3801.41983	0.09261
3799.49115	0.09285
3797.56248	0.09314
3795.63380	0.09339
3793.70513	0.09366
3791.77645	0.09390
3789.84778	0.09407
3787.91910	0.09421
3785.99042	0.09433
3784.06175	0.09447
3782.13307	0.09462
3780.20440	0.09478
3778.27572	0.09499
3776.34705	0.09522
3774.41837	0.09540
3772.48969	0.09547
3770.56102	0.09554
3768.63234	0.09571
3766.70367	0.09595
3764.77499	0.09618
3762.84632	0.09637
3760.91764	0.09646
3758.98896	0.09658
3757.06029	0.09677
3755.13161	0.09687
3753.20294	0.09681
3751.27426	0.09679
3749.34559	0.09697
3747.41691	0.09711
3745.48823	0.09712
3743.55956	0.09739
3741.63088	0.09794
3739.70221	0.09822
3737.77353	0.09819
3735.84486	0.09824
3733.91618	0.09850
3731.98750	0.09886
3730.05883	0.09920
3728.13015	0.09942
3726.20148	0.09956
3724.27280	0.09973
3722.34413	0.09994
3720.41545	0.10015
3718.48677	0.10036
3716.55810	0.10052
3714.62942	0.10057
3712.70075	0.10059
3710.77207	0.10075
3708.84340	0.10107
3706.91472	0.10139
3704.98604	0.10160
3703.05737	0.10172
3701.12869	0.10189
3699.20002	0.10215
3697.27134	0.10237
3695.34267	0.10251
3693.41399	0.10255
3691.48531	0.10251
3689.55664	0.10258
3687.62796	0.10288
3685.69929	0.10329
3683.77061	0.10357
3681.84194	0.10371
3679.91326	0.10375
3677.98458	0.10367
3676.05591	0.10362
3674.12723	0.10381
3672.19856	0.10405
3670.26988	0.10424
3668.34121	0.10456
3666.41253	0.10497
3664.48385	0.10526
3662.55518	0.10544
3660.62650	0.10557
3658.69783	0.10564
3656.76915	0.10572
3654.84048	0.10586
3652.91180	0.10585
3650.98312	0.10561
3649.05445	0.10546
3647.12577	0.10569
3645.19710	0.10621
3643.26842	0.10669
3641.33975	0.10700
3639.41107	0.10721
3637.48239	0.10736
3635.55372	0.10746
3633.62504	0.10751
3631.69637	0.10748
3629.76769	0.10742
3627.83902	0.10762
3625.91034	0.10802
3623.98166	0.10831
3622.05299	0.10840
3620.12431	0.10841
3618.19564	0.10850
3616.26696	0.10865
3614.33829	0.10878
3612.40961	0.10888
3610.48093	0.10898
3608.55226	0.10911
3606.62358	0.10937
3604.69491	0.10964
3602.76623	0.10981
3600.83756	0.10993
3598.90888	0.11006
3596.98020	0.11018
3595.05153	0.11030
3593.12285	0.11043
3591.19418	0.11051
3589.26550	0.11051
3587.33683	0.11061
3585.40815	0.11087
3583.47947	0.11112
3581.55080	0.11129
3579.62212	0.11145
3577.69345	0.11160
3575.76477	0.11175
3573.83610	0.11189
3571.90742	0.11202
3569.97874	0.11207
3568.05007	0.11211
3566.12139	0.11227
3564.19272	0.11253
3562.26404	0.11275
3560.33537	0.11293
3558.40669	0.11309
3556.47801	0.11323
3554.54934	0.11333
3552.62066	0.11344
3550.69199	0.11356
3548.76331	0.11365
3546.83464	0.11374
3544.90596	0.11390
3542.97728	0.11409
3541.04861	0.11422
3539.11993	0.11429
3537.19126	0.11438
3535.26258	0.11453
3533.33391	0.11469
3531.40523	0.11478
3529.47655	0.11483
3527.54788	0.11489
3525.61920	0.11498
3523.69053	0.11507
3521.76185	0.11514
3519.83318	0.11521
3517.90450	0.11528
3515.97582	0.11539
3514.04715	0.11548
3512.11847	0.11553
3510.18980	0.11558
3508.26112	0.11565
3506.33245	0.11570
3504.40377	0.11572
3502.47509	0.11580
3500.54642	0.11591
3498.61774	0.11597
3496.68907	0.11597
3494.76039	0.11599
3492.83172	0.11604
3490.90304	0.11608
3488.97436	0.11612
3487.04569	0.11617
3485.11701	0.11624
3483.18834	0.11632
3481.25966	0.11643
3479.33099	0.11656
3477.40231	0.11669
3475.47363	0.11679
3473.54496	0.11689
3471.61628	0.11703
3469.68761	0.11723
3467.75893	0.11744
3465.83026	0.11763
3463.90158	0.11783
3461.97290	0.11805
3460.04423	0.11827
3458.11555	0.11849
3456.18688	0.11868
3454.25820	0.11884
3452.32953	0.11901
3450.40085	0.11917
3448.47217	0.11932
3446.54350	0.11947
3444.61482	0.11962
3442.68615	0.11983
3440.75747	0.12011
3438.82880	0.12041
3436.90012	0.12071
3434.97144	0.12104
3433.04277	0.12140
3431.11409	0.12177
3429.18542	0.12216
3427.25674	0.12257
3425.32807	0.12297
3423.39939	0.12333
3421.47071	0.12367
3419.54204	0.12399
3417.61336	0.12431
3415.68469	0.12462
3413.75601	0.12493
3411.82734	0.12521
3409.89866	0.12549
3407.96998	0.12576
3406.04131	0.12603
3404.11263	0.12629
3402.18396	0.12653
3400.25528	0.12675
3398.32661	0.12700
3396.39793	0.12727
3394.46925	0.12751
3392.54058	0.12777
3390.61190	0.12807
3388.68323	0.12835
3386.75455	0.12859
3384.82588	0.12884
3382.89720	0.12907
3380.96852	0.12929
3379.03985	0.12952
3377.11117	0.12979
3375.18250	0.13006
3373.25382	0.13030
3371.32515	0.13050
3369.39647	0.13070
3367.46779	0.13091
3365.53912	0.13117
3363.61044	0.13146
3361.68177	0.13173
3359.75309	0.13198
3357.82442	0.13222
3355.89574	0.13246
3353.96706	0.13267
3352.03839	0.13288
3350.10971	0.13311
3348.18104	0.13336
3346.25236	0.13360
3344.32369	0.13382
3342.39501	0.13404
3340.46633	0.13426
3338.53766	0.13448
3336.60898	0.13470
3334.68031	0.13494
3332.75163	0.13521
3330.82296	0.13547
3328.89428	0.13572
3326.96560	0.13597
3325.03693	0.13621
3323.10825	0.13644
3321.17958	0.13668
3319.25090	0.13694
3317.32223	0.13720
3315.39355	0.13741
3313.46487	0.13762
3311.53620	0.13786
3309.60752	0.13812
3307.67885	0.13840
3305.75017	0.13867
3303.82150	0.13890
3301.89282	0.13913
3299.96414	0.13937
3298.03547	0.13962
3296.10679	0.13986
3294.17812	0.14011
3292.24944	0.14035
3290.32077	0.14060
3288.39209	0.14088
3286.46341	0.14116
3284.53474	0.14144
3282.60606	0.14169
3280.67739	0.14194
3278.74871	0.14218
3276.82004	0.14241
3274.89136	0.14265
3272.96268	0.14292
3271.03401	0.14319
3269.10533	0.14345
3267.17666	0.14370
3265.24798	0.14393
3263.31931	0.14418
3261.39063	0.14447
3259.46195	0.14475
3257.53328	0.14501
3255.60460	0.14527
3253.67593	0.14553
3251.74725	0.14578
3249.81858	0.14602
3247.88990	0.14629
3245.96122	0.14655
3244.03255	0.14680
3242.10387	0.14707
3240.17520	0.14734
3238.24652	0.14761
3236.31785	0.14787
3234.38917	0.14811
3232.46049	0.14835
3230.53182	0.14861
3228.60314	0.14890
3226.67447	0.14920
3224.74579	0.14946
3222.81712	0.14967
3220.88844	0.14988
3218.95976	0.15012
3217.03109	0.15036
3215.10241	0.15061
3213.17374	0.15087
3211.24506	0.15116
3209.31639	0.15145
3207.38771	0.15173
3205.45903	0.15197
3203.53036	0.15221
3201.60168	0.15247
3199.67301	0.15274
3197.74433	0.15301
3195.81566	0.15330
3193.88698	0.15361
3191.95830	0.15393
3190.02963	0.15424
3188.10095	0.15452
3186.17228	0.15475
3184.24360	0.15496
3182.31493	0.15519
3180.38625	0.15546
3178.45757	0.15576
3176.52890	0.15607
3174.60022	0.15637
3172.67155	0.15665
3170.74287	0.15689
3168.81420	0.15714
3166.88552	0.15742
3164.95684	0.15771
3163.02817	0.15800
3161.09949	0.15828
3159.17082	0.15856
3157.24214	0.15883
3155.31347	0.15908
3153.38479	0.15932
3151.45611	0.15957
3149.52744	0.15984
3147.59876	0.16013
3145.67009	0.16040
3143.74141	0.16066
3141.81274	0.16094
3139.88406	0.16124
3137.95538	0.16151
3136.02671	0.16173
3134.09803	0.16195
3132.16936	0.16220
3130.24068	0.16248
3128.31201	0.16279
3126.38333	0.16309
3124.45465	0.16334
3122.52598	0.16358
3120.59730	0.16384
3118.66863	0.16411
3116.73995	0.16438
3114.81128	0.16466
3112.88260	0.16493
3110.95392	0.16520
3109.02525	0.16547
3107.09657	0.16576
3105.16790	0.16604
3103.23922	0.16631
3101.31055	0.16655
3099.38187	0.16681
3097.45319	0.16708
3095.52452	0.16736
3093.59584	0.16764
3091.66717	0.16791
3089.73849	0.16817
3087.80982	0.16844
3085.88114	0.16871
3083.95246	0.16898
3082.02379	0.16925
3080.09511	0.16950
3078.16644	0.16976
3076.23776	0.17005
3074.30909	0.17034
3072.38041	0.17062
3070.45173	0.17087
3068.52306	0.17112
3066.59438	0.17139
3064.66571	0.17165
3062.73703	0.17192
3060.80836	0.17218
3058.87968	0.17241
3056.95100	0.17265
3055.02233	0.17292
3053.09365	0.17321
3051.16498	0.17349
3049.23630	0.17375
3047.30763	0.17401
3045.37895	0.17427
3043.45027	0.17454
3041.52160	0.17481
3039.59292	0.17510
3037.66425	0.17540
3035.73557	0.17567
3033.80690	0.17591
3031.87822	0.17616
3029.94954	0.17643
3028.02087	0.17668
3026.09219	0.17693
3024.16352	0.17721
3022.23484	0.17750
3020.30617	0.17777
3018.37749	0.17802
3016.44881	0.17828
3014.52014	0.17854
3012.59146	0.17883
3010.66279	0.17909
3008.73411	0.17931
3006.80544	0.17955
3004.87676	0.17982
3002.94808	0.18009
3001.01941	0.18035
2999.09073	0.18061
2997.16206	0.18088
2995.23338	0.18112
2993.30471	0.18136
2991.37603	0.18160
2989.44735	0.18183
2987.51868	0.18205
2985.59000	0.18228
2983.66133	0.18248
2981.73265	0.18261
2979.80398	0.18270
2977.87530	0.18277
2975.94662	0.18282
2974.01795	0.18287
2972.08927	0.18287
2970.16060	0.18282
2968.23192	0.18278
2966.30325	0.18278
2964.37457	0.18284
2962.44589	0.18299
2960.51722	0.18324
2958.58854	0.18356
2956.65987	0.18393
2954.73119	0.18434
2952.80252	0.18474
2950.87384	0.18504
2948.94516	0.18528
2947.01649	0.18547
2945.08781	0.18566
2943.15914	0.18582
2941.23046	0.18592
2939.30179	0.18596
2937.37311	0.18593
2935.44443	0.18590
2933.51576	0.18587
2931.58708	0.18584
2929.65841	0.18580
2927.72973	0.18574
2925.80106	0.18571
2923.87238	0.18573
2921.94370	0.18578
2920.01503	0.18588
2918.08635	0.18614
2916.15768	0.18670
2914.22900	0.18755
2912.30033	0.18847
2910.37165	0.18932
2908.44297	0.19002
2906.51430	0.19060
2904.58562	0.19108
2902.65695	0.19151
2900.72827	0.19192
2898.79960	0.19233
2896.87092	0.19273
2894.94224	0.19314
2893.01357	0.19353
2891.08489	0.19387
2889.15622	0.19422
2887.22754	0.19459
2885.29887	0.19492
2883.37019	0.19519
2881.44151	0.19546
2879.51284	0.19573
2877.58416	0.19597
2875.65549	0.19621
2873.72681	0.19649
2871.79814	0.19676
2869.86946	0.19702
2867.94078	0.19725
2866.01211	0.19744
2864.08343	0.19758
2862.15476	0.19771
2860.22608	0.19782
2858.29741	0.19787
2856.36873	0.19785
2854.44005	0.19777
2852.51138	0.19770
2850.58270	0.19783
2848.65403	0.19835
2846.72535	0.19922
2844.79668	0.20019
2842.86800	0.20105
2840.93932	0.20176
2839.01065	0.20232
2837.08197	0.20275
2835.15330	0.20313
2833.22462	0.20347
2831.29595	0.20381
2829.36727	0.20417
2827.43859	0.20453
2825.50992	0.20488
2823.58124	0.20519
2821.65257	0.20548
2819.72389	0.20578
2817.79522	0.20612
2815.86654	0.20645
2813.93786	0.20673
2812.00919	0.20697
2810.08051	0.20725
2808.15184	0.20756
2806.22316	0.20788
2804.29449	0.20820
2802.36581	0.20852
2800.43713	0.20882
2798.50846	0.20910
2796.57978	0.20938
2794.65111	0.20965
2792.72243	0.20994
2790.79376	0.21027
2788.86508	0.21057
2786.93640	0.21086
2785.00773	0.21113
2783.07905	0.21141
2781.15038	0.21170
2779.22170	0.21201
2777.29303	0.21228
2775.36435	0.21256
2773.43567	0.21288
2771.50700	0.21323
2769.57832	0.21357
2767.64965	0.21387
2765.72097	0.21412
2763.79230	0.21437
2761.86362	0.21464
2759.93494	0.21492
2758.00627	0.21521
2756.07759	0.21549
2754.14892	0.21573
2752.22024	0.21597
2750.29157	0.21626
2748.36289	0.21660
2746.43421	0.21691
2744.50554	0.21720
2742.57686	0.21748
2740.64819	0.21774
2738.71951	0.21799
2736.79084	0.21825
2734.86216	0.21852
2732.93348	0.21879
2731.00481	0.21907
2729.07613	0.21933
2727.14746	0.21961
2725.21878	0.21992
2723.29011	0.22021
2721.36143	0.22048
2719.43275	0.22076
2717.50408	0.22105
2715.57540	0.22136
2713.64673	0.22168
2711.71805	0.22198
2709.78938	0.22224
2707.86070	0.22247
2705.93202	0.22271
2704.00335	0.22298
2702.07467	0.22328
2700.14600	0.22357
2698.21732	0.22385
2696.28865	0.22412
2694.35997	0.22440
2692.43129	0.22469
2690.50262	0.22496
2688.57394	0.22523
2686.64527	0.22550
2684.71659	0.22577
2682.78792	0.22604
2680.85924	0.22632
2678.93056	0.22660
2677.00189	0.22689
2675.07321	0.22717
2673.14454	0.22745
2671.21586	0.22771
2669.28719	0.22797
2667.35851	0.22824
2665.42983	0.22853
2663.50116	0.22881
2661.57248	0.22906
2659.64381	0.22932
2657.71513	0.22963
2655.78646	0.22993
2653.85778	0.23021
2651.92910	0.23051
2650.00043	0.23084
2648.07175	0.23116
2646.14308	0.23146
2644.21440	0.23173
2642.28573	0.23201
2640.35705	0.23232
2638.42837	0.23265
2636.49970	0.23294
2634.57102	0.23321
2632.64235	0.23351
2630.71367	0.23381
2628.78500	0.23411
2626.85632	0.23441
2624.92764	0.23472
2622.99897	0.23502
2621.07029	0.23532
2619.14162	0.23564
2617.21294	0.23597
2615.28427	0.23628
2613.35559	0.23657
2611.42691	0.23686
2609.49824	0.23713
2607.56956	0.23740
2605.64089	0.23771
2603.71221	0.23802
2601.78354	0.23832
2599.85486	0.23864
2597.92618	0.23895
2595.99751	0.23921
2594.06883	0.23947
2592.14016	0.23974
2590.21148	0.24003
2588.28281	0.24030
2586.35413	0.24058
2584.42545	0.24090
2582.49678	0.24126
2580.56810	0.24159
2578.63943	0.24189
2576.71075	0.24216
2574.78208	0.24243
2572.85340	0.24270
2570.92472	0.24296
2568.99605	0.24323
2567.06737	0.24352
2565.13870	0.24383
2563.21002	0.24413
2561.28135	0.24442
2559.35267	0.24470
2557.42399	0.24496
2555.49532	0.24522
2553.56664	0.24550
2551.63797	0.24580
2549.70929	0.24610
2547.78062	0.24639
2545.85194	0.24667
2543.92326	0.24693
2541.99459	0.24719
2540.06591	0.24749
2538.13724	0.24780
2536.20856	0.24812
2534.27989	0.24844
2532.35121	0.24876
2530.42253	0.24908
2528.49386	0.24936
2526.56518	0.24963
2524.63651	0.24991
2522.70783	0.25020
2520.77916	0.25053
2518.85048	0.25087
2516.92181	0.25118
2514.99313	0.25146
2513.06445	0.25175
2511.13578	0.25207
2509.20710	0.25240
2507.27843	0.25272
2505.34975	0.25304
2503.42108	0.25335
2501.49240	0.25366
2499.56372	0.25398
2497.63505	0.25431
2495.70637	0.25462
2493.77770	0.25492
2491.84902	0.25524
2489.92035	0.25556
2487.99167	0.25589
2486.06299	0.25623
2484.13432	0.25656
2482.20564	0.25689
2480.27697	0.25721
2478.34829	0.25752
2476.41962	0.25783
2474.49094	0.25815
2472.56226	0.25846
2470.63359	0.25876
2468.70491	0.25908
2466.77624	0.25938
2464.84756	0.25967
2462.91889	0.25996
2460.99021	0.26026
2459.06153	0.26058
2457.13286	0.26090
2455.20418	0.26123
2453.27551	0.26153
2451.34683	0.26185
2449.41816	0.26219
2447.48948	0.26252
2445.56080	0.26284
2443.63213	0.26316
2441.70345	0.26348
2439.77478	0.26377
2437.84610	0.26403
2435.91743	0.26431
2433.98875	0.26463
2432.06007	0.26495
2430.13140	0.26525
2428.20272	0.26557
2426.27405	0.26590
2424.34537	0.26621
2422.41670	0.26649
2420.48802	0.26678
2418.55934	0.26708
2416.63067	0.26741
2414.70199	0.26776
2412.77332	0.26808
2410.84464	0.26836
2408.91597	0.26862
2406.98729	0.26892
2405.05861	0.26927
2403.12994	0.26958
2401.20126	0.26985
2399.27259	0.27014
2397.34391	0.27047
2395.41524	0.27077
2393.48656	0.27105
2391.55788	0.27132
2389.62921	0.27160
2387.70053	0.27191
2385.77186	0.27221
2383.84318	0.27246
2381.91451	0.27271
2379.98583	0.27293
2378.05715	0.27308
2376.12848	0.27315
2374.19980	0.27317
2372.27113	0.27319
2370.34245	0.27326
2368.41378	0.27339
2366.48510	0.27354
2364.55642	0.27371
2362.62775	0.27394
2360.69907	0.27425
2358.77040	0.27462
2356.84172	0.27507
2354.91305	0.27559
2352.98437	0.27618
2351.05569	0.27681
2349.12702	0.27730
2347.19834	0.27750
2345.26967	0.27753
2343.34099	0.27759
2341.41232	0.27775
2339.48364	0.27801
2337.55496	0.27830
2335.62629	0.27859
2333.69761	0.27893
2331.76894	0.27930
2329.84026	0.27965
2327.91159	0.28003
2325.98291	0.28042
2324.05423	0.28082
2322.12556	0.28126
2320.19688	0.28172
2318.26821	0.28214
2316.33953	0.28251
2314.41086	0.28289
2312.48218	0.28325
2310.55350	0.28363
2308.62483	0.28400
2306.69615	0.28438
2304.76748	0.28476
2302.83880	0.28513
2300.91013	0.28548
2298.98145	0.28583
2297.05277	0.28618
2295.12410	0.28650
2293.19542	0.28681
2291.26675	0.28712
2289.33807	0.28744
2287.40940	0.28776
2285.48072	0.28807
2283.55204	0.28834
2281.62337	0.28863
2279.69469	0.28896
2277.76602	0.28929
2275.83734	0.28960
2273.90867	0.28989
2271.97999	0.29018
2270.05131	0.29047
2268.12264	0.29075
2266.19396	0.29106
2264.26529	0.29139
2262.33661	0.29170
2260.40794	0.29198
2258.47926	0.29229
2256.55058	0.29261
2254.62191	0.29293
2252.69323	0.29327
2250.76456	0.29360
2248.83588	0.29391
2246.90721	0.29420
2244.97853	0.29449
2243.04985	0.29479
2241.12118	0.29506
2239.19250	0.29534
2237.26383	0.29566
2235.33515	0.29601
2233.40648	0.29635
2231.47780	0.29666
2229.54912	0.29694
2227.62045	0.29725
2225.69177	0.29758
2223.76310	0.29789
2221.83442	0.29817
2219.90575	0.29846
2217.97707	0.29876
2216.04839	0.29905
2214.11972	0.29933
2212.19104	0.29963
2210.26237	0.29993
2208.33369	0.30023
2206.40502	0.30053
2204.47634	0.30084
2202.54766	0.30114
2200.61899	0.30141
2198.69031	0.30167
2196.76164	0.30195
2194.83296	0.30225
2192.90429	0.30255
2190.97561	0.30284
2189.04693	0.30313
2187.11826	0.30344
2185.18958	0.30378
2183.26091	0.30412
2181.33223	0.30442
2179.40356	0.30469
2177.47488	0.30501
2175.54620	0.30539
2173.61753	0.30572
2171.68885	0.30601
2169.76018	0.30632
2167.83150	0.30665
2165.90283	0.30698
2163.97415	0.30731
2162.04547	0.30760
2160.11680	0.30788
2158.18812	0.30817
2156.25945	0.30851
2154.33077	0.30886
2152.40210	0.30916
2150.47342	0.30942
2148.54474	0.30971
2146.61607	0.31001
2144.68739	0.31033
2142.75872	0.31068
2140.83004	0.31101
2138.90137	0.31130
2136.97269	0.31159
2135.04401	0.31187
2133.11534	0.31218
2131.18666	0.31253
2129.25799	0.31286
2127.32931	0.31317
2125.40064	0.31350
2123.47196	0.31385
2121.54328	0.31417
2119.61461	0.31445
2117.68593	0.31472
2115.75726	0.31503
2113.82858	0.31537
2111.89991	0.31567
2109.97123	0.31597
2108.04255	0.31630
2106.11388	0.31662
2104.18520	0.31691
2102.25653	0.31719
2100.32785	0.31749
2098.39918	0.31783
2096.47050	0.31818
2094.54182	0.31851
2092.61315	0.31880
2090.68447	0.31909
2088.75580	0.31938
2086.82712	0.31965
2084.89845	0.31996
2082.96977	0.32031
2081.04109	0.32068
2079.11242	0.32102
2077.18374	0.32131
2075.25507	0.32157
2073.32639	0.32185
2071.39772	0.32218
2069.46904	0.32249
2067.54036	0.32276
2065.61169	0.32305
2063.68301	0.32337
2061.75434	0.32373
2059.82566	0.32408
2057.89699	0.32440
2055.96831	0.32471
2054.03963	0.32501
2052.11096	0.32534
2050.18228	0.32566
2048.25361	0.32592
2046.32493	0.32612
2044.39626	0.32634
2042.46758	0.32665
2040.53890	0.32703
2038.61023	0.32742
2036.68155	0.32778
2034.75288	0.32811
2032.82420	0.32841
2030.89553	0.32872
2028.96685	0.32907
2027.03817	0.32942
2025.10950	0.32974
2023.18082	0.33003
2021.25215	0.33029
2019.32347	0.33055
2017.39480	0.33085
2015.46612	0.33121
2013.53744	0.33159
2011.60877	0.33193
2009.68009	0.33223
2007.75142	0.33253
2005.82274	0.33285
2003.89407	0.33319
2001.96539	0.33351
2000.03671	0.33379
1998.10804	0.33407
1996.17936	0.33435
1994.25069	0.33457
1992.32201	0.33477
1990.39334	0.33506
1988.46466	0.33539
1986.53598	0.33569
1984.60731	0.33595
1982.67863	0.33621
1980.74996	0.33647
1978.82128	0.33676
1976.89261	0.33704
1974.96393	0.33731
1973.03525	0.33759
1971.10658	0.33785
1969.17790	0.33809
1967.24923	0.33836
1965.32055	0.33870
1963.39188	0.33903
1961.46320	0.33932
1959.53452	0.33961
1957.60585	0.33992
1955.67717	0.34021
1953.74850	0.34050
1951.81982	0.34082
1949.89115	0.34116
1947.96247	0.34145
1946.03379	0.34168
1944.10512	0.34188
1942.17644	0.34217
1940.24777	0.34260
1938.31909	0.34300
1936.39042	0.34331
1934.46174	0.34363
1932.53306	0.34392
1930.60439	0.34417
1928.67571	0.34446
1926.74704	0.34480
1924.81836	0.34509
1922.88969	0.34533
1920.96101	0.34551
1919.03233	0.34565
1917.10366	0.34598
1915.17498	0.34651
1913.24631	0.34696
1911.31763	0.34722
1909.38896	0.34747
1907.46028	0.34783
1905.53160	0.34822
1903.60293	0.34852
1901.67425	0.34875
1899.74558	0.34900
1897.81690	0.34922
1895.88823	0.34946
1893.95955	0.34973
1892.03087	0.34995
1890.10220	0.35019
1888.17352	0.35058
1886.24485	0.35104
1884.31617	0.35141
1882.38750	0.35171
1880.45882	0.35194
1878.53014	0.35219
1876.60147	0.35248
1874.67279	0.35278
1872.74412	0.35297
1870.81544	0.35302
1868.88677	0.35317
1866.95809	0.35366
1865.02941	0.35422
1863.10074	0.35461
1861.17206	0.35493
1859.24339	0.35530
1857.31471	0.35568
1855.38604	0.35605
1853.45736	0.35642
1851.52868	0.35674
1849.60001	0.35698
1847.67133	0.35703
1845.74266	0.35689
1843.81398	0.35703
1841.88531	0.35773
1839.95663	0.35849
1838.02795	0.35895
1836.09928	0.35921
1834.17060	0.35940
1832.24193	0.35948
1830.31325	0.35958
1828.38458	0.35985
1826.45590	0.36017
1824.52722	0.36053
1822.59855	0.36102
1820.66987	0.36149
1818.74120	0.36182
1816.81252	0.36211
1814.88385	0.36236
1812.95517	0.36253
1811.02649	0.36271
1809.09782	0.36300
1807.16914	0.36332
1805.24047	0.36355
1803.31179	0.36366
1801.38312	0.36379
1799.45444	0.36410
1797.52576	0.36444
1795.59709	0.36452
1793.66841	0.36444
1791.73974	0.36463
1789.81106	0.36520
1787.88239	0.36569
1785.95371	0.36590
1784.02503	0.36609
1782.09636	0.36635
1780.16768	0.36661
1778.23901	0.36688
1776.31033	0.36696
1774.38166	0.36676
1772.45298	0.36665
1770.52430	0.36695
1768.59563	0.36748
1766.66695	0.36802
1764.73828	0.36834
1762.80960	0.36839
1760.88093	0.36851
1758.95225	0.36876
1757.02357	0.36895
1755.09490	0.36902
1753.16622	0.36877
1751.23755	0.36839
1749.30887	0.36839
1747.38020	0.36870
1745.45152	0.36895
1743.52284	0.36900
1741.59417	0.36893
1739.66549	0.36898
1737.73682	0.36900
1735.80814	0.36863
1733.87947	0.36851
1731.95079	0.36927
1730.02211	0.37028
1728.09344	0.37101
1726.16476	0.37148
1724.23609	0.37175
1722.30741	0.37180
1720.37874	0.37148
1718.45006	0.37104
1716.52138	0.37122
1714.59271	0.37201
1712.66403	0.37279
1710.73536	0.37321
1708.80668	0.37327
1706.87801	0.37315
1704.94933	0.37307
1703.02065	0.37268
1701.09198	0.37204
1699.16330	0.37199
1697.23463	0.37241
1695.30595	0.37292
1693.37728	0.37361
1691.44860	0.37401
1689.51992	0.37395
1687.59125	0.37354
1685.66257	0.37287
1683.73390	0.37275
1681.80522	0.37348
1679.87655	0.37420
1677.94787	0.37426
1676.01919	0.37401
1674.09052	0.37403
1672.16184	0.37411
1670.23317	0.37404
1668.30449	0.37433
1666.37582	0.37484
1664.44714	0.37496
1662.51846	0.37499
1660.58979	0.37533
1658.66111	0.37557
1656.73244	0.37504
1654.80376	0.37383
1652.87509	0.37337
1650.94641	0.37419
1649.01773	0.37484
1647.08906	0.37489
1645.16038	0.37535
1643.23171	0.37613
1641.30303	0.37653
1639.37436	0.37632
1637.44568	0.37577
1635.51700	0.37564
1633.58833	0.37630
1631.65965	0.37698
1629.73098	0.37705
1627.80230	0.37677
1625.87363	0.37634
1623.94495	0.37568
1622.01627	0.37513
1620.08760	0.37499
1618.15892	0.37535
1616.23025	0.37642
1614.30157	0.37793
1612.37290	0.37906
1610.44422	0.37966
1608.51554	0.38014
1606.58687	0.38068
1604.65819	0.38115
1602.72952	0.38153
1600.80084	0.38190
1598.87217	0.38227
1596.94349	0.38258
1595.01481	0.38285
1593.08614	0.38316
1591.15746	0.38353
1589.22879	0.38392
1587.30011	0.38428
1585.37144	0.38453
1583.44276	0.38475
1581.51408	0.38499
1579.58541	0.38503
1577.65673	0.38481
1575.72806	0.38495
1573.79938	0.38556
1571.87071	0.38583
1569.94203	0.38583
1568.01335	0.38622
1566.08468	0.38678
1564.15600	0.38702
1562.22733	0.38660
1560.29865	0.38565
1558.36998	0.38544
1556.44130	0.38645
1554.51262	0.38761
1552.58395	0.38833
1550.65527	0.38876
1548.72660	0.38906
1546.79792	0.38905
1544.86925	0.38862
1542.94057	0.38805
1541.01189	0.38779
1539.08322	0.38833
1537.15454	0.38932
1535.22587	0.38979
1533.29719	0.38994
1531.36852	0.39041
1529.43984	0.39078
1527.51116	0.39074
1525.58249	0.39059
1523.65381	0.39021
1521.72514	0.38985
1519.79646	0.39012
1517.86779	0.39075
1515.93911	0.39127
1514.01043	0.39166
1512.08176	0.39178
1510.15308	0.39145
1508.22441	0.39093
1506.29573	0.39114
1504.36706	0.39231
1502.43838	0.39327
1500.50970	0.39334
1498.58103	0.39307
1496.65235	0.39316
1494.72368	0.39362
1492.79500	0.39378
1490.86633	0.39346
1488.93765	0.39334
1487.00897	0.39376
1485.08030	0.39428
1483.15162	0.39452
1481.22295	0.39452
1479.29427	0.39435
1477.36560	0.39388
1475.43692	0.39315
1473.50824	0.39252
1471.57957	0.39244
1469.65089	0.39273
1467.72222	0.39273
1465.79354	0.39250
1463.86487	0.39259
1461.93619	0.39276
1460.00751	0.39231
1458.07884	0.39157
1456.15016	0.39174
1454.22149	0.39277
1452.29281	0.39356
1450.36414	0.39376
1448.43546	0.39381
1446.50678	0.39407
1444.57811	0.39446
1442.64943	0.39473
1440.72076	0.39467
1438.79208	0.39419
1436.86341	0.39386
1434.93473	0.39426
1433.00605	0.39477
1431.07738	0.39484
1429.14870	0.39484
1427.22003	0.39490
1425.29135	0.39479
1423.36268	0.39451
1421.43400	0.39399
1419.50532	0.39351
1417.57665	0.39367
1415.64797	0.39421
1413.71930	0.39448
1411.79062	0.39450
1409.86195	0.39444
1407.93327	0.39427
1406.00459	0.39401
1404.07592	0.39389
1402.14724	0.39385
1400.21857	0.39364
1398.28989	0.39339
1396.36122	0.39327
1394.43254	0.39331
1392.50386	0.39349
1390.57519	0.39340
1388.64651	0.39278
1386.71784	0.39203
1384.78916	0.39167
1382.86049	0.39177
1380.93181	0.39204
1379.00313	0.39213
1377.07446	0.39197
1375.14578	0.39174
1373.21711	0.39169
1371.28843	0.39179
1369.35976	0.39185
1367.43108	0.39183
1365.50240	0.39168
1363.57373	0.39143
1361.64505	0.39135
1359.71638	0.39152
1357.78770	0.39170
1355.85903	0.39177
1353.93035	0.39182
1352.00167	0.39192
1350.07300	0.39208
1348.14432	0.39229
1346.21565	0.39244
1344.28697	0.39249
1342.35830	0.39242
1340.42962	0.39230
1338.50094	0.39227
1336.57227	0.39236
1334.64359	0.39243
1332.71492	0.39244
1330.78624	0.39239
1328.85757	0.39226
1326.92889	0.39208
1325.00021	0.39192
1323.07154	0.39176
1321.14286	0.39157
1319.21419	0.39142
1317.28551	0.39135
1315.35684	0.39124
1313.42816	0.39106
1311.49948	0.39084
1309.57081	0.39056
1307.64213	0.39022
1305.71346	0.38984
1303.78478	0.38947
1301.85611	0.38911
1299.92743	0.38872
1297.99875	0.38833
1296.07008	0.38798
1294.14140	0.38761
1292.21273	0.38717
1290.28405	0.38669
1288.35538	0.38618
1286.42670	0.38561
1284.49802	0.38505
1282.56935	0.38455
1280.64067	0.38399
1278.71200	0.38327
1276.78332	0.38243
1274.85465	0.38155
1272.92597	0.38048
1270.99729	0.37903
1269.06862	0.37716
1267.13994	0.37513
1265.21127	0.37333
1263.28259	0.37210
1261.35392	0.37154
1259.42524	0.37157
1257.49656	0.37185
1255.56789	0.37203
1253.63921	0.37196
1251.71054	0.37166
1249.78186	0.37113
1247.85319	0.37043
1245.92451	0.36968
1243.99583	0.36890
1242.06716	0.36805
1240.13848	0.36712
1238.20981	0.36614
1236.28113	0.36517
1234.35246	0.36417
1232.42378	0.36309
1230.49510	0.36198
1228.56643	0.36092
1226.63775	0.35989
1224.70908	0.35891
1222.78040	0.35797
1220.85173	0.35706
1218.92305	0.35615
1216.99437	0.35518
1215.06570	0.35412
1213.13702	0.35306
1211.20835	0.35208
1209.27967	0.35119
1207.35100	0.35032
1205.42232	0.34939
1203.49364	0.34838
1201.56497	0.34739
1199.63629	0.34651
1197.70762	0.34568
1195.77894	0.34479
1193.85027	0.34385
1191.92159	0.34286
1189.99291	0.34176
1188.06424	0.34053
1186.13556	0.33924
1184.20689	0.33793
1182.27821	0.33656
1180.34954	0.33513
1178.42086	0.33369
1176.49218	0.33226
1174.56351	0.33087
1172.63483	0.32950
1170.70616	0.32804
1168.77748	0.32650
1166.84881	0.32494
1164.92013	0.32346
1162.99145	0.32201
1161.06278	0.32062
1159.13410	0.31928
1157.20543	0.31795
1155.27675	0.31660
1153.34808	0.31530
1151.41940	0.31410
1149.49072	0.31293
1147.56205	0.31173
1145.63337	0.31053
1143.70470	0.30931
1141.77602	0.30810
1139.84735	0.30692
1137.91867	0.30577
1135.98999	0.30455
1134.06132	0.30327
1132.13264	0.30196
1130.20397	0.30056
1128.27529	0.29909
1126.34662	0.29761
1124.41794	0.29616
1122.48926	0.29472
1120.56059	0.29322
1118.63191	0.29168
1116.70324	0.29015
1114.77456	0.28856
1112.84589	0.28691
1110.91721	0.28533
1108.98853	0.28380
1107.05986	0.28223
1105.13118	0.28068
1103.20251	0.27921
1101.27383	0.27781
1099.34516	0.27642
1097.41648	0.27502
1095.48780	0.27369
1093.55913	0.27247
1091.63045	0.27134
1089.70178	0.27023
1087.77310	0.26909
1085.84443	0.26797
1083.91575	0.26691
1081.98707	0.26590
1080.05840	0.26489
1078.12972	0.26392
1076.20105	0.26307
1074.27237	0.26234
1072.34370	0.26171
1070.41502	0.26125
1068.48634	0.26098
1066.55767	0.26083
1064.62899	0.26081
1062.70032	0.26090
1060.77164	0.26102
1058.84297	0.26119
1056.91429	0.26145
1054.98561	0.26183
1053.05694	0.26229
1051.12826	0.26272
1049.19959	0.26321
1047.27091	0.26386
1045.34224	0.26460
1043.41356	0.26534
1041.48488	0.26612
1039.55621	0.26693
1037.62753	0.26774
1035.69886	0.26855
1033.77018	0.26937
1031.84151	0.27017
1029.91283	0.27095
1027.98415	0.27175
1026.05548	0.27253
1024.12680	0.27335
1022.19813	0.27431
1020.26945	0.27537
1018.34078	0.27641
1016.41210	0.27741
1014.48342	0.27858
1012.55475	0.27999
1010.62607	0.28152
1008.69740	0.28306
1006.76872	0.28449
1004.84005	0.28577
1002.91137	0.28688
1000.98269	0.28789
999.05402	0.28887
997.12534	0.28980
995.19667	0.29058
993.26799	0.29125
991.33932	0.29190
989.41064	0.29257
987.48196	0.29321
985.55329	0.29380
983.62461	0.29433
981.69594	0.29480
979.76726	0.29512
977.83859	0.29525
975.90991	0.29524
973.98123	0.29525
972.05256	0.29530
970.12388	0.29531
968.19521	0.29527
966.26653	0.29517
964.33786	0.29495
962.40918	0.29463
960.48050	0.29433
958.55183	0.29403
956.62315	0.29367
954.69448	0.29327
952.76580	0.29283
950.83713	0.29232
948.90845	0.29177
946.97977	0.29116
945.05110	0.29051
943.12242	0.28988
941.19375	0.28929
939.26507	0.28868
937.33640	0.28803
935.40772	0.28733
933.47904	0.28664
931.55037	0.28598
929.62169	0.28535
927.69302	0.28469
925.76434	0.28394
923.83567	0.28317
921.90699	0.28242
919.97831	0.28165
918.04964	0.28088
916.12096	0.28010
914.19229	0.27928
912.26361	0.27843
910.33494	0.27762
908.40626	0.27683
906.47758	0.27599
904.54891	0.27506
902.62023	0.27410
900.69156	0.27317
898.76288	0.27227
896.83421	0.27137
894.90553	0.27045
892.97685	0.26951
891.04818	0.26861
889.11950	0.26772
887.19083	0.26679
885.26215	0.26585
883.33348	0.26499
881.40480	0.26416
879.47612	0.26335
877.54745	0.26255
875.61877	0.26175
873.69010	0.26097
871.76142	0.26021
869.83275	0.25942
867.90407	0.25858
865.97539	0.25771
864.04672	0.25683
862.11804	0.25599
860.18937	0.25512
858.26069	0.25419
856.33202	0.25321
854.40334	0.25222
852.47466	0.25124
850.54599	0.25032
848.61731	0.24942
846.68864	0.24854
844.75996	0.24771
842.83129	0.24686
840.90261	0.24588
838.97394	0.24491
837.04526	0.24400
835.11658	0.24307
833.18791	0.24214
831.25923	0.24119
829.33056	0.24008
827.40188	0.23882
825.47321	0.23755
823.54453	0.23638
821.61585	0.23532
819.68718	0.23428
817.75850	0.23323
815.82983	0.23224
813.90115	0.23130
811.97248	0.23035
810.04380	0.22936
808.11512	0.22840
806.18645	0.22750
804.25777	0.22661
802.32910	0.22579
800.40042	0.22510
798.47175	0.22458
796.54307	0.22414
794.61439	0.22375
792.68572	0.22343
790.75704	0.22315
788.82837	0.22289
786.89969	0.22263
784.97102	0.22235
783.04234	0.22201
781.11366	0.22150
779.18499	0.22091
777.25631	0.22037
775.32764	0.21989
773.39896	0.21940
771.47029	0.21887
769.54161	0.21829
767.61293	0.21772
765.68426	0.21712
763.75558	0.21644
761.82691	0.21569
759.89823	0.21491
757.96956	0.21408
756.04088	0.21316
754.11220	0.21215
752.18353	0.21112
750.25485	0.21015
748.32618	0.20925
746.39750	0.20838
744.46883	0.20751
742.54015	0.20661
740.61147	0.20572
738.68280	0.20492
736.75412	0.20419
734.82545	0.20348
732.89677	0.20276
730.96810	0.20197
729.03942	0.20113
727.11074	0.20033
725.18207	0.19959
723.25339	0.19886
721.32472	0.19812
719.39604	0.19739
717.46737	0.19663
715.53869	0.19580
713.61001	0.19500
711.68134	0.19422
709.75266	0.19340
707.82399	0.19252
705.89531	0.19170
703.96664	0.19099
702.03796	0.19030
700.10928	0.18953
698.18061	0.18874
696.25193	0.18794
694.32326	0.18712
692.39458	0.18626
690.46591	0.18529
688.53723	0.18429
686.60855	0.18338
684.67988	0.18243
682.75120	0.18136
680.82253	0.18029
678.89385	0.17921
676.96518	0.17809
675.03650	0.17685
673.10782	0.17544
671.17915	0.17382
669.25047	0.17208
667.32180	0.17056
665.39312	0.16926
663.46445	0.16779
661.53577	0.16606
659.60709	0.16437
657.67842	0.16288
655.74974	0.16144
653.82107	0.15992
651.89239	0.15840
649.96372	0.15693
648.03504	0.15541
646.10636	0.15379
644.17769	0.15213
642.24901	0.15038
640.32034	0.14856
638.39166	0.14672
636.46299	0.14489
634.53431	0.14303
632.60563	0.14119
630.67696	0.13937
628.74828	0.13753
626.81961	0.13569
624.89093	0.13394
622.96226	0.13226
621.03358	0.13058
619.10490	0.12889
617.17623	0.12718
615.24755	0.12541
613.31888	0.12346
611.39020	0.12142
609.46153	0.11954
607.53285	0.11787
605.60417	0.11630
603.67550	0.11477
601.74682	0.11328
599.81815	0.11179
597.88947	0.11033
595.96080	0.10901
594.03212	0.10786
592.10344	0.10677
590.17477	0.10562
588.24609	0.10443
586.31742	0.10326
584.38874	0.10212
582.46007	0.10103
580.53139	0.09998
578.60271	0.09894
576.67404	0.09786
574.74536	0.09672
572.81669	0.09561
570.88801	0.09462
568.95934	0.09375
567.03066	0.09291
565.10198	0.09211
563.17331	0.09139
561.24463	0.09067
559.31596	0.08987
557.38728	0.08906
555.45861	0.08826
553.52993	0.08754
551.60125	0.08699
549.67258	0.08656
547.74390	0.08610
545.81523	0.08555
543.88655	0.08491
541.95788	0.08428
540.02920	0.08375
538.10052	0.08325
536.17185	0.08279
534.24317	0.08230
532.31450	0.08166
530.38582	0.08095
528.45715	0.08030
526.52847	0.07967
524.59979	0.07897
522.67112	0.07820
520.74244	0.07735
518.81377	0.07644
516.88509	0.07557
514.95642	0.07480
513.02774	0.07403
511.09906	0.07320
509.17039	0.07236
507.24171	0.07151
505.31304	0.07063
503.38436	0.06971
501.45569	0.06869
499.52701	0.06753
497.59833	0.06623
495.66966	0.06493
493.74098	0.06369
491.81231	0.06245
489.88363	0.06118
487.95496	0.05992
486.02628	0.05877
484.09760	0.05762
482.16893	0.05640
480.24025	0.05514
478.31158	0.05380
476.38290	0.05243
474.45423	0.05122
472.52555	0.05020
470.59687	0.04918
468.66820	0.04819
466.73952	0.04738
464.81085	0.04669
462.88217	0.04615
460.95350	0.04585
459.02482	0.04561
457.09614	0.04541
455.16747	0.04537
453.23879	0.04534
451.31012	0.04519
449.38144	0.04503
447.45277	0.04492
445.52409	0.04479
443.59541	0.04448
441.66674	0.04388
439.73806	0.04304
437.80939	0.04205
435.88071	0.04100
433.95204	0.04000
432.02336	0.03902
430.09468	0.03792
428.16601	0.03665
426.23733	0.03530
424.30866	0.03393
422.37998	0.03258
420.45131	0.03126
418.52263	0.02996
416.59395	0.02872
414.66528	0.02748
412.73660	0.02617
410.80793	0.02484
408.87925	0.02361
406.95058	0.02248
405.02190	0.02140
403.09322	0.02022
401.16455	0.01898
399.23587	0.01784
397.30720	0.01680
395.37852	0.01580
393.44985	0.01490
391.52117	0.01402
389.59249	0.01300
387.66382	0.01201
385.73514	0.01128
383.80647	0.01062
381.87779	0.00977
379.94912	0.00884
378.02044	0.00799
376.09176	0.00730
374.16309	0.00670
372.23441	0.00614
370.30574	0.00558
368.37706	0.00500
