7496.76250	0.00146
7494.83382	0.00146
7492.90514	0.00145
7490.97647	0.00145
7489.04779	0.00146
7487.11912	0.00147
7485.19044	0.00147
7483.26177	0.00147
7481.33309	0.00148
7479.40441	0.00150
7477.47574	0.00151
7475.54706	0.00151
7473.61839	0.00150
7471.68971	0.00149
7469.76104	0.00149
7467.83236	0.00150
7465.90368	0.00152
7463.97501	0.00153
7462.04633	0.00154
7460.11766	0.00154
7458.18898	0.00154
7456.26031	0.00154
7454.33163	0.00154
7452.40295	0.00155
7450.47428	0.00156
7448.54560	0.00155
7446.61693	0.00154
7444.68825	0.00153
7442.75958	0.00154
7440.83090	0.00155
7438.90222	0.00156
7436.97355	0.00155
7435.04487	0.00156
7433.11620	0.00157
7431.18752	0.00159
7429.25885	0.00160
7427.33017	0.00162
7425.40149	0.00163
7423.47282	0.00163
7421.54414	0.00163
7419.61547	0.00163
7417.68679	0.00162
7415.75812	0.00163
7413.82944	0.00164
7411.90076	0.00166
7409.97209	0.00167
7408.04341	0.00165
7406.11474	0.00165
7404.18606	0.00166
7402.25739	0.00166
7400.32871	0.00166
7398.40003	0.00166
7396.47136	0.00167
7394.54268	0.00167
7392.61401	0.00166
7390.68533	0.00166
7388.75666	0.00166
7386.82798	0.00167
7384.89930	0.00169
7382.97063	0.00170
7381.04195	0.00170
7379.11328	0.00168
7377.18460	0.00169
7375.25593	0.00170
7373.32725	0.00169
7371.39857	0.00168
7369.46990	0.00168
7367.54122	0.00170
7365.61255	0.00172
7363.68387	0.00174
7361.75520	0.00175
7359.82652	0.00174
7357.89784	0.00174
7355.96917	0.00175
7354.04049	0.00177
7352.11182	0.00178
7350.18314	0.00179
7348.25447	0.00179
7346.32579	0.00179
7344.39711	0.00178
7342.46844	0.00177
7340.53976	0.00178
7338.61109	0.00179
7336.68241	0.00181
7334.75374	0.00181
7332.82506	0.00180
7330.89638	0.00180
7328.96771	0.00182
7327.03903	0.00184
7325.11036	0.00184
7323.18168	0.00185
7321.25301	0.00186
7319.32433	0.00187
7317.39565	0.00188
7315.46698	0.00187
7313.53830	0.00187
7311.60963	0.00186
7309.68095	0.00187
7307.75228	0.00188
7305.82360	0.00189
7303.89492	0.00189
7301.96625	0.00188
7300.03757	0.00189
7298.10890	0.00191
7296.18022	0.00192
7294.25155	0.00192
7292.32287	0.00191
7290.39419	0.00191
7288.46552	0.00190
7286.53684	0.00190
7284.60817	0.00191
7282.67949	0.00192
7280.75082	0.00192
7278.82214	0.00193
7276.89346	0.00195
7274.96479	0.00196
7273.03611	0.00195
7271.10744	0.00195
7269.17876	0.00195
7267.25009	0.00196
7265.32141	0.00197
7263.39273	0.00199
7261.46406	0.00200
7259.53538	0.00200
7257.60671	0.00199
7255.67803	0.00198
7253.74936	0.00198
7251.82068	0.00199
7249.89200	0.00200
7247.96333	0.00200
7246.03465	0.00201
7244.10598	0.00201
7242.17730	0.00201
7240.24863	0.00202
7238.31995	0.00203
7236.39127	0.00203
7234.46260	0.00203
7232.53392	0.00204
7230.60525	0.00205
7228.67657	0.00206
7226.74790	0.00206
7224.81922	0.00205
7222.89054	0.00205
7220.96187	0.00206
7219.03319	0.00206
7217.10452	0.00207
7215.17584	0.00208
7213.24717	0.00207
7211.31849	0.00207
7209.38981	0.00208
7207.46114	0.00210
7205.53246	0.00212
7203.60379	0.00213
7201.67511	0.00214
7199.74644	0.00215
7197.81776	0.00215
7195.88908	0.00215
7193.96041	0.00214
7192.03173	0.00214
7190.10306	0.00215
7188.17438	0.00217
7186.24571	0.00218
7184.31703	0.00218
7182.38835	0.00217
7180.45968	0.00217
7178.53100	0.00218
7176.60233	0.00219
7174.67365	0.00220
7172.74498	0.00221
7170.81630	0.00222
7168.88762	0.00223
7166.95895	0.00222
7165.03027	0.00222
7163.10160	0.00222
7161.17292	0.00223
7159.24425	0.00223
7157.31557	0.00223
7155.38689	0.00223
7153.45822	0.00224
7151.52954	0.00226
7149.60087	0.00226
7147.67219	0.00225
7145.74352	0.00225
7143.81484	0.00227
7141.88616	0.00228
7139.95749	0.00230
7138.02881	0.00231
7136.10014	0.00231
7134.17146	0.00230
7132.24279	0.00230
7130.31411	0.00231
7128.38543	0.00232
7126.45676	0.00232
7124.52808	0.00232
7122.59941	0.00233
7120.67073	0.00234
7118.74206	0.00234
7116.81338	0.00234
7114.88470	0.00235
7112.95603	0.00235
7111.02735	0.00235
7109.09868	0.00236
7107.17000	0.00238
7105.24133	0.00239
7103.31265	0.00240
7101.38397	0.00241
7099.45530	0.00242
7097.52662	0.00242
7095.59795	0.00243
7093.66927	0.00244
7091.74060	0.00243
7089.81192	0.00243
7087.88324	0.00244
7085.95457	0.00245
7084.02589	0.00245
7082.09722	0.00245
7080.16854	0.00247
7078.23987	0.00248
7076.31119	0.00248
7074.38251	0.00249
7072.45384	0.00249
7070.52516	0.00249
7068.59649	0.00249
7066.66781	0.00250
7064.73914	0.00251
7062.81046	0.00251
7060.88178	0.00251
7058.95311	0.00251
7057.02443	0.00251
7055.09576	0.00253
7053.16708	0.00255
7051.23841	0.00256
7049.30973	0.00256
7047.38105	0.00254
7045.45238	0.00254
7043.52370	0.00255
7041.59503	0.00256
7039.66635	0.00256
7037.73768	0.00257
7035.80900	0.00258
7033.88032	0.00259
7031.95165	0.00258
7030.02297	0.00259
7028.09430	0.00262
7026.16562	0.00264
7024.23695	0.00264
7022.30827	0.00264
7020.37959	0.00265
7018.45092	0.00266
7016.52224	0.00267
7014.59357	0.00267
7012.66489	0.00267
7010.73622	0.00268
7008.80754	0.00268
7006.87886	0.00268
7004.95019	0.00267
7003.02151	0.00268
7001.09284	0.00268
6999.16416	0.00269
6997.23549	0.00271
6995.30681	0.00271
6993.37813	0.00271
6991.44946	0.00271
6989.52078	0.00272
6987.59211	0.00274
6985.66343	0.00275
6983.73476	0.00276
6981.80608	0.00275
6979.87740	0.00276
6977.94873	0.00278
6976.02005	0.00279
6974.09138	0.00280
6972.16270	0.00281
6970.23403	0.00281
6968.30535	0.00281
6966.37667	0.00282
6964.44800	0.00283
6962.51932	0.00283
6960.59065	0.00282
6958.66197	0.00281
6956.73330	0.00281
6954.80462	0.00282
6952.87594	0.00284
6950.94727	0.00285
6949.01859	0.00286
6947.08992	0.00285
6945.16124	0.00285
6943.23257	0.00287
6941.30389	0.00288
6939.37521	0.00289
6937.44654	0.00289
6935.51786	0.00290
6933.58919	0.00291
6931.66051	0.00293
6929.73184	0.00293
6927.80316	0.00294
6925.87448	0.00295
6923.94581	0.00295
6922.01713	0.00296
6920.08846	0.00295
6918.15978	0.00295
6916.23111	0.00296
6914.30243	0.00297
6912.37375	0.00297
6910.44508	0.00298
6908.51640	0.00298
6906.58773	0.00299
6904.65905	0.00300
6902.73038	0.00302
6900.80170	0.00304
6898.87302	0.00305
6896.94435	0.00304
6895.01567	0.00303
6893.08700	0.00304
6891.15832	0.00307
6889.22965	0.00308
6887.30097	0.00306
6885.37229	0.00306
6883.44362	0.00306
6881.51494	0.00308
6879.58627	0.00309
6877.65759	0.00309
6875.72892	0.00309
6873.80024	0.00309
6871.87156	0.00310
6869.94289	0.00312
6868.01421	0.00313
6866.08554	0.00313
6864.15686	0.00313
6862.22819	0.00313
6860.29951	0.00313
6858.37083	0.00314
6856.44216	0.00316
6854.51348	0.00318
6852.58481	0.00320
6850.65613	0.00322
6848.72746	0.00321
6846.79878	0.00320
6844.87010	0.00321
6842.94143	0.00323
6841.01275	0.00324
6839.08408	0.00324
6837.15540	0.00324
6835.22673	0.00324
6833.29805	0.00325
6831.36937	0.00326
6829.44070	0.00329
6827.51202	0.00330
6825.58335	0.00331
6823.65467	0.00331
6821.72600	0.00331
6819.79732	0.00330
6817.86864	0.00330
6815.93997	0.00332
6814.01129	0.00334
6812.08262	0.00337
6810.15394	0.00338
6808.22527	0.00337
6806.29659	0.00337
6804.36791	0.00337
6802.43924	0.00337
6800.51056	0.00337
6798.58189	0.00337
6796.65321	0.00338
6794.72454	0.00339
6792.79586	0.00341
6790.86718	0.00343
6788.93851	0.00344
6787.00983	0.00344
6785.08116	0.00343
6783.15248	0.00344
6781.22381	0.00346
6779.29513	0.00347
6777.36645	0.00346
6775.43778	0.00346
6773.50910	0.00346
6771.58043	0.00347
6769.65175	0.00348
6767.72308	0.00348
6765.79440	0.00349
6763.86572	0.00350
6761.93705	0.00352
6760.00837	0.00353
6758.07970	0.00354
6756.15102	0.00355
6754.22235	0.00355
6752.29367	0.00355
6750.36499	0.00355
6748.43632	0.00356
6746.50764	0.00358
6744.57897	0.00359
6742.65029	0.00361
6740.72162	0.00362
6738.79294	0.00359
6736.86426	0.00358
6734.93559	0.00359
6733.00691	0.00361
6731.07824	0.00362
6729.14956	0.00364
6727.22089	0.00365
6725.29221	0.00367
6723.36353	0.00369
6721.43486	0.00368
6719.50618	0.00367
6717.57751	0.00367
6715.64883	0.00368
6713.72016	0.00370
6711.79148	0.00372
6709.86280	0.00373
6707.93413	0.00374
6706.00545	0.00375
6704.07678	0.00375
6702.14810	0.00375
6700.21943	0.00375
6698.29075	0.00378
6696.36207	0.00379
6694.43340	0.00379
6692.50472	0.00380
6690.57605	0.00381
6688.64737	0.00382
6686.71870	0.00383
6684.79002	0.00384
6682.86134	0.00385
6680.93267	0.00386
6679.00399	0.00386
6677.07532	0.00384
6675.14664	0.00383
6673.21797	0.00385
6671.28929	0.00387
6669.36061	0.00389
6667.43194	0.00389
6665.50326	0.00388
6663.57459	0.00388
6661.64591	0.00389
6659.71724	0.00391
6657.78856	0.00392
6655.85988	0.00393
6653.93121	0.00395
6652.00253	0.00397
6650.07386	0.00398
6648.14518	0.00400
6646.21651	0.00401
6644.28783	0.00402
6642.35915	0.00401
6640.43048	0.00400
6638.50180	0.00400
6636.57313	0.00402
6634.64445	0.00405
6632.71578	0.00405
6630.78710	0.00405
6628.85842	0.00406
6626.92975	0.00407
6625.00107	0.00408
6623.07240	0.00408
6621.14372	0.00409
6619.21505	0.00411
6617.28637	0.00414
6615.35769	0.00414
6613.42902	0.00414
6611.50034	0.00415
6609.57167	0.00416
6607.64299	0.00417
6605.71432	0.00418
6603.78564	0.00419
6601.85696	0.00420
6599.92829	0.00421
6597.99961	0.00422
6596.07094	0.00422
6594.14226	0.00422
6592.21359	0.00423
6590.28491	0.00423
6588.35623	0.00424
6586.42756	0.00424
6584.49888	0.00425
6582.57021	0.00427
6580.64153	0.00428
6578.71286	0.00430
6576.78418	0.00431
6574.85550	0.00432
6572.92683	0.00434
6570.99815	0.00436
6569.06948	0.00437
6567.14080	0.00436
6565.21213	0.00435
6563.28345	0.00436
6561.35477	0.00438
6559.42610	0.00438
6557.49742	0.00439
6555.56875	0.00440
6553.64007	0.00441
6551.71140	0.00442
6549.78272	0.00443
6547.85404	0.00446
6545.92537	0.00448
6543.99669	0.00448
6542.06802	0.00447
6540.13934	0.00449
6538.21067	0.00452
6536.28199	0.00452
6534.35331	0.00451
6532.42464	0.00452
6530.49596	0.00454
6528.56729	0.00457
6526.63861	0.00458
6524.70994	0.00458
6522.78126	0.00457
6520.85258	0.00458
6518.92391	0.00459
6516.99523	0.00461
6515.06656	0.00464
6513.13788	0.00467
6511.20921	0.00467
6509.28053	0.00465
6507.35185	0.00464
6505.42318	0.00464
6503.49450	0.00465
6501.56583	0.00466
6499.63715	0.00467
6497.70848	0.00468
6495.77980	0.00469
6493.85112	0.00471
6491.92245	0.00473
6489.99377	0.00474
6488.06510	0.00475
6486.13642	0.00477
6484.20775	0.00478
6482.27907	0.00478
6480.35039	0.00477
6478.42172	0.00478
6476.49304	0.00482
6474.56437	0.00485
6472.63569	0.00485
6470.70702	0.00485
6468.77834	0.00485
6466.84966	0.00487
6464.92099	0.00489
6462.99231	0.00492
6461.06364	0.00493
6459.13496	0.00493
6457.20629	0.00492
6455.27761	0.00493
6453.34893	0.00495
6451.42026	0.00495
6449.49158	0.00495
6447.56291	0.00496
6445.63423	0.00497
6443.70556	0.00498
6441.77688	0.00500
6439.84820	0.00502
6437.91953	0.00504
6435.99085	0.00504
6434.06218	0.00503
6432.13350	0.00504
6430.20483	0.00506
6428.27615	0.00508
6426.34747	0.00509
6424.41880	0.00511
6422.49012	0.00512
6420.56145	0.00511
6418.63277	0.00511
6416.70410	0.00512
6414.77542	0.00514
6412.84674	0.00515
6410.91807	0.00516
6408.98939	0.00516
6407.06072	0.00516
6405.13204	0.00518
6403.20337	0.00520
6401.27469	0.00521
6399.34601	0.00523
6397.41734	0.00525
6395.48866	0.00528
6393.55999	0.00530
6391.63131	0.00531
6389.70264	0.00531
6387.77396	0.00530
6385.84528	0.00530
6383.91661	0.00530
6381.98793	0.00533
6380.05926	0.00536
6378.13058	0.00538
6376.20191	0.00538
6374.27323	0.00537
6372.34455	0.00537
6370.41588	0.00538
6368.48720	0.00539
6366.55853	0.00540
6364.62985	0.00544
6362.70118	0.00547
6360.77250	0.00548
6358.84382	0.00548
6356.91515	0.00550
6354.98647	0.00551
6353.05780	0.00551
6351.12912	0.00550
6349.20045	0.00550
6347.27177	0.00552
6345.34309	0.00554
6343.41442	0.00555
6341.48574	0.00557
6339.55707	0.00559
6337.62839	0.00559
6335.69972	0.00560
6333.77104	0.00562
6331.84236	0.00564
6329.91369	0.00564
6327.98501	0.00565
6326.05634	0.00566
6324.12766	0.00567
6322.19899	0.00568
6320.27031	0.00569
6318.34163	0.00572
6316.41296	0.00575
6314.48428	0.00576
6312.55561	0.00577
6310.62693	0.00577
6308.69826	0.00578
6306.76958	0.00579
6304.84090	0.00581
6302.91223	0.00583
6300.98355	0.00584
6299.05488	0.00584
6297.12620	0.00585
6295.19753	0.00584
6293.26885	0.00583
6291.34017	0.00584
6289.41150	0.00587
6287.48282	0.00590
6285.55415	0.00592
6283.62547	0.00593
6281.69680	0.00595
6279.76812	0.00596
6277.83944	0.00597
6275.91077	0.00598
6273.98209	0.00600
6272.05342	0.00601
6270.12474	0.00602
6268.19607	0.00603
6266.26739	0.00604
6264.33871	0.00605
6262.41004	0.00607
6260.48136	0.00608
6258.55269	0.00609
6256.62401	0.00610
6254.69534	0.00612
6252.76666	0.00615
6250.83798	0.00617
6248.90931	0.00619
6246.98063	0.00619
6245.05196	0.00619
6243.12328	0.00621
6241.19461	0.00622
6239.26593	0.00624
6237.33725	0.00625
6235.40858	0.00626
6233.47990	0.00626
6231.55123	0.00628
6229.62255	0.00630
6227.69388	0.00632
6225.76520	0.00633
6223.83652	0.00634
6221.90785	0.00636
6219.97917	0.00638
6218.05050	0.00639
6216.12182	0.00639
6214.19315	0.00641
6212.26447	0.00642
6210.33579	0.00644
6208.40712	0.00645
6206.47844	0.00647
6204.54977	0.00648
6202.62109	0.00649
6200.69242	0.00650
6198.76374	0.00649
6196.83506	0.00649
6194.90639	0.00651
6192.97771	0.00654
6191.04904	0.00657
6189.12036	0.00660
6187.19169	0.00662
6185.26301	0.00663
6183.33433	0.00664
6181.40566	0.00665
6179.47698	0.00665
6177.54831	0.00667
6175.61963	0.00670
6173.69096	0.00672
6171.76228	0.00672
6169.83360	0.00673
6167.90493	0.00674
6165.97625	0.00675
6164.04758	0.00677
6162.11890	0.00680
6160.19023	0.00682
6158.26155	0.00683
6156.33287	0.00682
6154.40420	0.00681
6152.47552	0.00683
6150.54685	0.00686
6148.61817	0.00687
6146.68950	0.00689
6144.76082	0.00689
6142.83214	0.00689
6140.90347	0.00690
6138.97479	0.00693
6137.04612	0.00696
6135.11744	0.00697
6133.18877	0.00699
6131.26009	0.00702
6129.33141	0.00705
6127.40274	0.00706
6125.47406	0.00705
6123.54539	0.00704
6121.61671	0.00705
6119.68804	0.00706
6117.75936	0.00709
6115.83068	0.00712
6113.90201	0.00715
6111.97333	0.00717
6110.04466	0.00718
6108.11598	0.00720
6106.18731	0.00722
6104.25863	0.00724
6102.32995	0.00724
6100.40128	0.00725
6098.47260	0.00725
6096.54393	0.00727
6094.61525	0.00729
6092.68658	0.00731
6090.75790	0.00733
6088.82922	0.00735
6086.90055	0.00737
6084.97187	0.00738
6083.04320	0.00739
6081.11452	0.00741
6079.18585	0.00743
6077.25717	0.00745
6075.32849	0.00746
6073.39982	0.00747
6071.47114	0.00748
6069.54247	0.00749
6067.61379	0.00751
6065.68512	0.00752
6063.75644	0.00753
6061.82776	0.00754
6059.89909	0.00756
6057.97041	0.00758
6056.04174	0.00761
6054.11306	0.00764
6052.18439	0.00765
6050.25571	0.00765
6048.32703	0.00766
6046.39836	0.00766
6044.46968	0.00766
6042.54101	0.00768
6040.61233	0.00771
6038.68366	0.00773
6036.75498	0.00774
6034.82630	0.00775
6032.89763	0.00777
6030.96895	0.00778
6029.04028	0.00779
6027.11160	0.00781
6025.18293	0.00783
6023.25425	0.00784
6021.32557	0.00783
6019.39690	0.00785
6017.46822	0.00788
6015.53955	0.00792
6013.61087	0.00794
6011.68220	0.00796
6009.75352	0.00799
6007.82484	0.00803
6005.89617	0.00805
6003.96749	0.00807
6002.03882	0.00807
6000.11014	0.00806
5998.18147	0.00807
5996.25279	0.00810
5994.32411	0.00813
5992.39544	0.00814
5990.46676	0.00815
5988.53809	0.00817
5986.60941	0.00818
5984.68074	0.00819
5982.75206	0.00822
5980.82338	0.00823
5978.89471	0.00824
5976.96603	0.00827
5975.03736	0.00830
5973.10868	0.00831
5971.18001	0.00832
5969.25133	0.00833
5967.32265	0.00835
5965.39398	0.00837
5963.46530	0.00839
5961.53663	0.00841
5959.60795	0.00842
5957.67928	0.00843
5955.75060	0.00844
5953.82192	0.00845
5951.89325	0.00847
5949.96457	0.00851
5948.03590	0.00854
5946.10722	0.00856
5944.17855	0.00858
5942.24987	0.00859
5940.32119	0.00861
5938.39252	0.00862
5936.46384	0.00861
5934.53517	0.00863
5932.60649	0.00866
5930.67782	0.00868
5928.74914	0.00869
5926.82046	0.00871
5924.89179	0.00872
5922.96311	0.00875
5921.03444	0.00878
5919.10576	0.00881
5917.17709	0.00882
5915.24841	0.00883
5913.31973	0.00886
5911.39106	0.00888
5909.46238	0.00888
5907.53371	0.00889
5905.60503	0.00891
5903.67636	0.00894
5901.74768	0.00896
5899.81900	0.00899
5897.89033	0.00901
5895.96165	0.00901
5894.03298	0.00901
5892.10430	0.00902
5890.17563	0.00904
5888.24695	0.00906
5886.31827	0.00908
5884.38960	0.00911
5882.46092	0.00914
5880.53225	0.00919
5878.60357	0.00921
5876.67490	0.00922
5874.74622	0.00921
5872.81755	0.00923
5870.88887	0.00927
5868.96019	0.00929
5867.03152	0.00929
5865.10284	0.00931
5863.17417	0.00933
5861.24549	0.00935
5859.31682	0.00936
5857.38814	0.00937
5855.45946	0.00937
5853.53079	0.00939
5851.60211	0.00942
5849.67344	0.00944
5847.74476	0.00945
5845.81609	0.00948
5843.88741	0.00951
5841.95873	0.00952
5840.03006	0.00954
5838.10138	0.00955
5836.17271	0.00956
5834.24403	0.00959
5832.31536	0.00962
5830.38668	0.00965
5828.45800	0.00967
5826.52933	0.00969
5824.60065	0.00972
5822.67198	0.00974
5820.74330	0.00975
5818.81463	0.00976
5816.88595	0.00978
5814.95727	0.00981
5813.02860	0.00984
5811.09992	0.00984
5809.17125	0.00985
5807.24257	0.00988
5805.31390	0.00991
5803.38522	0.00993
5801.45654	0.00994
5799.52787	0.00996
5797.59919	0.01000
5795.67052	0.01004
5793.74184	0.01005
5791.81317	0.01004
5789.88449	0.01005
5787.95581	0.01007
5786.02714	0.01010
5784.09846	0.01013
5782.16979	0.01016
5780.24111	0.01020
5778.31244	0.01022
5776.38376	0.01023
5774.45508	0.01022
5772.52641	0.01022
5770.59773	0.01023
5768.66906	0.01025
5766.74038	0.01028
5764.81171	0.01031
5762.88303	0.01034
5760.95435	0.01036
5759.02568	0.01037
5757.09700	0.01039
5755.16833	0.01041
5753.23965	0.01042
5751.31098	0.01044
5749.38230	0.01046
5747.45362	0.01050
5745.52495	0.01054
5743.59627	0.01056
5741.66760	0.01058
5739.73892	0.01060
5737.81025	0.01062
5735.88157	0.01062
5733.95289	0.01063
5732.02422	0.01066
5730.09554	0.01069
5728.16687	0.01071
5726.23819	0.01073
5724.30952	0.01076
5722.38084	0.01079
5720.45216	0.01081
5718.52349	0.01080
5716.59481	0.01080
5714.66614	0.01081
5712.73746	0.01084
5710.80879	0.01088
5708.88011	0.01093
5706.95143	0.01097
5705.02276	0.01100
5703.09408	0.01102
5701.16541	0.01103
5699.23673	0.01103
5697.30806	0.01104
5695.37938	0.01106
5693.45070	0.01109
5691.52203	0.01112
5689.59335	0.01114
5687.66468	0.01115
5685.73600	0.01116
5683.80733	0.01119
5681.87865	0.01122
5679.94997	0.01125
5678.02130	0.01126
5676.09262	0.01128
5674.16395	0.01131
5672.23527	0.01136
5670.30660	0.01140
5668.37792	0.01142
5666.44924	0.01142
5664.52057	0.01144
5662.59189	0.01147
5660.66322	0.01150
5658.73454	0.01151
5656.80587	0.01152
5654.87719	0.01156
5652.94851	0.01160
5651.01984	0.01162
5649.09116	0.01162
5647.16249	0.01164
5645.23381	0.01167
5643.30514	0.01170
5641.37646	0.01172
5639.44778	0.01174
5637.51911	0.01176
5635.59043	0.01178
5633.66176	0.01180
5631.73308	0.01181
5629.80441	0.01182
5627.87573	0.01184
5625.94705	0.01187
5624.01838	0.01191
5622.08970	0.01193
5620.16103	0.01196
5618.23235	0.01199
5616.30368	0.01201
5614.37500	0.01203
5612.44632	0.01206
5610.51765	0.01209
5608.58897	0.01210
5606.66030	0.01210
5604.73162	0.01212
5602.80295	0.01214
5600.87427	0.01218
5598.94559	0.01220
5597.01692	0.01223
5595.08824	0.01226
5593.15957	0.01230
5591.23089	0.01231
5589.30222	0.01232
5587.37354	0.01234
5585.44486	0.01238
5583.51619	0.01242
5581.58751	0.01246
5579.65884	0.01248
5577.73016	0.01250
5575.80149	0.01250
5573.87281	0.01251
5571.94413	0.01253
5570.01546	0.01255
5568.08678	0.01258
5566.15811	0.01261
5564.22943	0.01264
5562.30076	0.01267
5560.37208	0.01269
5558.44340	0.01272
5556.51473	0.01275
5554.58605	0.01279
5552.65738	0.01282
5550.72870	0.01283
5548.80003	0.01283
5546.87135	0.01284
5544.94267	0.01288
5543.01400	0.01292
5541.08532	0.01295
5539.15665	0.01298
5537.22797	0.01301
5535.29930	0.01304
5533.37062	0.01306
5531.44194	0.01307
5529.51327	0.01307
5527.58459	0.01309
5525.65592	0.01314
5523.72724	0.01318
5521.79857	0.01321
5519.86989	0.01323
5517.94121	0.01324
5516.01254	0.01324
5514.08386	0.01326
5512.15519	0.01329
5510.22651	0.01333
5508.29784	0.01336
5506.36916	0.01338
5504.44048	0.01340
5502.51181	0.01343
5500.58313	0.01345
5498.65446	0.01346
5496.72578	0.01348
5494.79711	0.01350
5492.86843	0.01353
5490.93975	0.01356
5489.01108	0.01359
5487.08240	0.01361
5485.15373	0.01363
5483.22505	0.01366
5481.29638	0.01369
5479.36770	0.01371
5477.43902	0.01372
5475.51035	0.01374
5473.58167	0.01379
5471.65300	0.01385
5469.72432	0.01388
5467.79565	0.01389
5465.86697	0.01391
5463.93829	0.01394
5462.00962	0.01396
5460.08094	0.01397
5458.15227	0.01400
5456.22359	0.01403
5454.29492	0.01405
5452.36624	0.01408
5450.43756	0.01410
5448.50889	0.01413
5446.58021	0.01415
5444.65154	0.01415
5442.72286	0.01416
5440.79419	0.01419
5438.86551	0.01424
5436.93683	0.01427
5435.00816	0.01429
5433.07948	0.01432
5431.15081	0.01435
5429.22213	0.01437
5427.29346	0.01439
5425.36478	0.01443
5423.43610	0.01446
5421.50743	0.01448
5419.57875	0.01451
5417.65008	0.01453
5415.72140	0.01455
5413.79273	0.01457
5411.86405	0.01459
5409.93537	0.01462
5408.00670	0.01467
5406.07802	0.01470
5404.14935	0.01473
5402.22067	0.01476
5400.29200	0.01480
5398.36332	0.01482
5396.43464	0.01483
5394.50597	0.01485
5392.57729	0.01489
5390.64862	0.01493
5388.71994	0.01495
5386.79127	0.01497
5384.86259	0.01501
5382.93391	0.01504
5381.00524	0.01507
5379.07656	0.01509
5377.14789	0.01511
5375.21921	0.01511
5373.29054	0.01511
5371.36186	0.01514
5369.43318	0.01516
5367.50451	0.01520
5365.57583	0.01524
5363.64716	0.01528
5361.71848	0.01531
5359.78981	0.01535
5357.86113	0.01539
5355.93245	0.01542
5354.00378	0.01544
5352.07510	0.01547
5350.14643	0.01549
5348.21775	0.01551
5346.28908	0.01551
5344.36040	0.01553
5342.43172	0.01557
5340.50305	0.01560
5338.57437	0.01562
5336.64570	0.01564
5334.71702	0.01567
5332.78835	0.01571
5330.85967	0.01574
5328.93099	0.01577
5327.00232	0.01580
5325.07364	0.01586
5323.14497	0.01589
5321.21629	0.01590
5319.28762	0.01590
5317.35894	0.01591
5315.43026	0.01595
5313.50159	0.01601
5311.57291	0.01605
5309.64424	0.01607
5307.71556	0.01609
5305.78689	0.01612
5303.85821	0.01617
5301.92953	0.01619
5300.00086	0.01620
5298.07218	0.01623
5296.14351	0.01626
5294.21483	0.01629
5292.28616	0.01632
5290.35748	0.01634
5288.42880	0.01636
5286.50013	0.01638
5284.57145	0.01641
5282.64278	0.01645
5280.71410	0.01649
5278.78543	0.01653
5276.85675	0.01657
5274.92807	0.01660
5272.99940	0.01661
5271.07072	0.01662
5269.14205	0.01664
5267.21337	0.01666
5265.28470	0.01667
5263.35602	0.01669
5261.42734	0.01673
5259.49867	0.01678
5257.56999	0.01683
5255.64132	0.01686
5253.71264	0.01689
5251.78397	0.01691
5249.85529	0.01691
5247.92661	0.01692
5245.99794	0.01696
5244.06926	0.01702
5242.14059	0.01706
5240.21191	0.01708
5238.28324	0.01708
5236.35456	0.01709
5234.42588	0.01711
5232.49721	0.01714
5230.56853	0.01720
5228.63986	0.01726
5226.71118	0.01728
5224.78251	0.01730
5222.85383	0.01732
5220.92515	0.01733
5218.99648	0.01734
5217.06780	0.01738
5215.13913	0.01744
5213.21045	0.01750
5211.28178	0.01754
5209.35310	0.01755
5207.42442	0.01755
5205.49575	0.01757
5203.56707	0.01761
5201.63840	0.01765
5199.70972	0.01769
5197.78105	0.01773
5195.85237	0.01777
5193.92369	0.01780
5191.99502	0.01783
5190.06634	0.01784
5188.13767	0.01785
5186.20899	0.01787
5184.28032	0.01791
5182.35164	0.01794
5180.42296	0.01797
5178.49429	0.01801
5176.56561	0.01805
5174.63694	0.01807
5172.70826	0.01807
5170.77959	0.01809
5168.85091	0.01813
5166.92223	0.01818
5164.99356	0.01821
5163.06488	0.01823
5161.13621	0.01825
5159.20753	0.01827
5157.27886	0.01832
5155.35018	0.01839
5153.42150	0.01844
5151.49283	0.01847
5149.56415	0.01848
5147.63548	0.01850
5145.70680	0.01854
5143.77813	0.01858
5141.84945	0.01860
5139.92077	0.01862
5137.99210	0.01865
5136.06342	0.01868
5134.13475	0.01870
5132.20607	0.01874
5130.27740	0.01878
5128.34872	0.01881
5126.42004	0.01883
5124.49137	0.01886
5122.56269	0.01888
5120.63402	0.01892
5118.70534	0.01895
5116.77667	0.01898
5114.84799	0.01900
5112.91931	0.01901
5110.99064	0.01905
5109.06196	0.01911
5107.13329	0.01914
5105.20461	0.01916
5103.27594	0.01919
5101.34726	0.01924
5099.41858	0.01927
5097.48991	0.01928
5095.56123	0.01930
5093.63256	0.01933
5091.70388	0.01936
5089.77521	0.01940
5087.84653	0.01945
5085.91785	0.01950
5083.98918	0.01954
5082.06050	0.01957
5080.13183	0.01959
5078.20315	0.01961
5076.27448	0.01963
5074.34580	0.01965
5072.41712	0.01967
5070.48845	0.01971
5068.55977	0.01975
5066.63110	0.01978
5064.70242	0.01981
5062.77375	0.01982
5060.84507	0.01982
5058.91639	0.01985
5056.98772	0.01990
5055.05904	0.01995
5053.13037	0.01999
5051.20169	0.02002
5049.27302	0.02006
5047.34434	0.02011
5045.41566	0.02015
5043.48699	0.02018
5041.55831	0.02021
5039.62964	0.02025
5037.70096	0.02028
5035.77229	0.02029
5033.84361	0.02030
5031.91493	0.02034
5029.98626	0.02038
5028.05758	0.02042
5026.12891	0.02046
5024.20023	0.02050
5022.27156	0.02052
5020.34288	0.02053
5018.41420	0.02054
5016.48553	0.02057
5014.55685	0.02062
5012.62818	0.02065
5010.69950	0.02068
5008.77083	0.02071
5006.84215	0.02073
5004.91347	0.02076
5002.98480	0.02080
5001.05612	0.02086
4999.12745	0.02089
4997.19877	0.02090
4995.27010	0.02092
4993.34142	0.02097
4991.41274	0.02102
4989.48407	0.02105
4987.55539	0.02108
4985.62672	0.02111
4983.69804	0.02113
4981.76937	0.02115
4979.84069	0.02119
4977.91201	0.02124
4975.98334	0.02129
4974.05466	0.02132
4972.12599	0.02135
4970.19731	0.02140
4968.26864	0.02144
4966.33996	0.02147
4964.41128	0.02149
4962.48261	0.02152
4960.55393	0.02153
4958.62526	0.02154
4956.69658	0.02158
4954.76791	0.02163
4952.83923	0.02165
4950.91055	0.02169
4948.98188	0.02176
4947.05320	0.02181
4945.12453	0.02183
4943.19585	0.02185
4941.26718	0.02190
4939.33850	0.02194
4937.40982	0.02197
4935.48115	0.02198
4933.55247	0.02200
4931.62380	0.02205
4929.69512	0.02210
4927.76645	0.02212
4925.83777	0.02215
4923.90909	0.02215
4921.98042	0.02217
4920.05174	0.02221
4918.12307	0.02227
4916.19439	0.02230
4914.26572	0.02232
4912.33704	0.02233
4910.40836	0.02237
4908.47969	0.02242
4906.55101	0.02248
4904.62234	0.02253
4902.69366	0.02257
4900.76499	0.02259
4898.83631	0.02261
4896.90763	0.02264
4894.97896	0.02267
4893.05028	0.02270
4891.12161	0.02274
4889.19293	0.02276
4887.26426	0.02281
4885.33558	0.02287
4883.40690	0.02289
4881.47823	0.02290
4879.54955	0.02293
4877.62088	0.02298
4875.69220	0.02301
4873.76353	0.02305
4871.83485	0.02307
4869.90617	0.02310
4867.97750	0.02312
4866.04882	0.02315
4864.12015	0.02320
4862.19147	0.02324
4860.26280	0.02328
4858.33412	0.02332
4856.40544	0.02338
4854.47677	0.02342
4852.54809	0.02345
4850.61942	0.02348
4848.69074	0.02351
4846.76207	0.02354
4844.83339	0.02357
4842.90471	0.02361
4840.97604	0.02366
4839.04736	0.02372
4837.11869	0.02375
4835.19001	0.02376
4833.26134	0.02378
4831.33266	0.02380
4829.40398	0.02382
4827.47531	0.02387
4825.54663	0.02394
4823.61796	0.02399
4821.68928	0.02402
4819.76061	0.02405
4817.83193	0.02408
4815.90325	0.02413
4813.97458	0.02418
4812.04590	0.02421
4810.11723	0.02423
4808.18855	0.02425
4806.25988	0.02429
4804.33120	0.02435
4802.40252	0.02439
4800.47385	0.02441
4798.54517	0.02444
4796.61650	0.02450
4794.68782	0.02456
4792.75915	0.02457
4790.83047	0.02458
4788.90179	0.02462
4786.97312	0.02466
4785.04444	0.02469
4783.11577	0.02473
4781.18709	0.02477
4779.25842	0.02481
4777.32974	0.02485
4775.40106	0.02487
4773.47239	0.02489
4771.54371	0.02493
4769.61504	0.02497
4767.68636	0.02500
4765.75769	0.02504
4763.82901	0.02508
4761.90033	0.02515
4759.97166	0.02524
4758.04298	0.02530
4756.11431	0.02532
4754.18563	0.02532
4752.25696	0.02532
4750.32828	0.02535
4748.39960	0.02540
4746.47093	0.02544
4744.54225	0.02548
4742.61358	0.02553
4740.68490	0.02558
4738.75623	0.02560
4736.82755	0.02562
4734.89887	0.02567
4732.97020	0.02573
4731.04152	0.02577
4729.11285	0.02580
4727.18417	0.02582
4725.25550	0.02583
4723.32682	0.02586
4721.39814	0.02592
4719.46947	0.02600
4717.54079	0.02604
4715.61212	0.02607
4713.68344	0.02611
4711.75477	0.02615
4709.82609	0.02619
4707.89741	0.02624
4705.96874	0.02627
4704.04006	0.02631
4702.11139	0.02634
4700.18271	0.02638
4698.25404	0.02643
4696.32536	0.02650
4694.39668	0.02654
4692.46801	0.02657
4690.53933	0.02661
4688.61066	0.02667
4686.68198	0.02671
4684.75331	0.02673
4682.82463	0.02675
4680.89595	0.02679
4678.96728	0.02683
4677.03860	0.02687
4675.10993	0.02692
4673.18125	0.02698
4671.25258	0.02703
4669.32390	0.02704
4667.39522	0.02706
4665.46655	0.02709
4663.53787	0.02713
4661.60920	0.02718
4659.68052	0.02723
4657.75185	0.02730
4655.82317	0.02735
4653.89449	0.02739
4651.96582	0.02743
4650.03714	0.02746
4648.10847	0.02749
4646.17979	0.02754
4644.25112	0.02760
4642.32244	0.02764
4640.39376	0.02765
4638.46509	0.02768
4636.53641	0.02775
4634.60774	0.02780
4632.67906	0.02784
4630.75039	0.02788
4628.82171	0.02794
4626.89303	0.02799
4624.96436	0.02804
4623.03568	0.02807
4621.10701	0.02810
4619.17833	0.02815
4617.24966	0.02819
4615.32098	0.02822
4613.39230	0.02826
4611.46363	0.02830
4609.53495	0.02833
4607.60628	0.02837
4605.67760	0.02842
4603.74893	0.02847
4601.82025	0.02852
4599.89157	0.02857
4597.96290	0.02862
4596.03422	0.02866
4594.10555	0.02869
4592.17687	0.02873
4590.24820	0.02877
4588.31952	0.02883
4586.39084	0.02888
4584.46217	0.02894
4582.53349	0.02898
4580.60482	0.02902
4578.67614	0.02906
4576.74747	0.02913
4574.81879	0.02920
4572.89011	0.02924
4570.96144	0.02927
4569.03276	0.02932
4567.10409	0.02937
4565.17541	0.02941
4563.24674	0.02943
4561.31806	0.02946
4559.38938	0.02950
4557.46071	0.02955
4555.53203	0.02959
4553.60336	0.02962
4551.67468	0.02967
4549.74601	0.02974
4547.81733	0.02980
4545.88865	0.02983
4543.95998	0.02987
4542.03130	0.02994
4540.10263	0.03002
4538.17395	0.03008
4536.24528	0.03012
4534.31660	0.03015
4532.38792	0.03018
4530.45925	0.03021
4528.53057	0.03025
4526.60190	0.03027
4524.67322	0.03032
4522.74455	0.03039
4520.81587	0.03044
4518.88719	0.03048
4516.95852	0.03054
4515.02984	0.03060
4513.10117	0.03063
4511.17249	0.03067
4509.24382	0.03072
4507.31514	0.03079
4505.38646	0.03085
4503.45779	0.03089
4501.52911	0.03094
4499.60044	0.03098
4497.67176	0.03104
4495.74309	0.03109
4493.81441	0.03115
4491.88573	0.03120
4489.95706	0.03124
4488.02838	0.03129
4486.09971	0.03133
4484.17103	0.03137
4482.24236	0.03142
4480.31368	0.03147
4478.38500	0.03154
4476.45633	0.03159
4474.52765	0.03163
4472.59898	0.03170
4470.67030	0.03178
4468.74163	0.03184
4466.81295	0.03187
4464.88427	0.03191
4462.95560	0.03195
4461.02692	0.03199
4459.09825	0.03203
4457.16957	0.03209
4455.24090	0.03215
4453.31222	0.03221
4451.38354	0.03227
4449.45487	0.03233
4447.52619	0.03238
4445.59752	0.03241
4443.66884	0.03245
4441.74017	0.03251
4439.81149	0.03259
4437.88281	0.03266
4435.95414	0.03272
4434.02546	0.03277
4432.09679	0.03280
4430.16811	0.03283
4428.23944	0.03287
4426.31076	0.03291
4424.38208	0.03296
4422.45341	0.03302
4420.52473	0.03309
4418.59606	0.03316
4416.66738	0.03322
4414.73871	0.03325
4412.81003	0.03329
4410.88135	0.03335
4408.95268	0.03343
4407.02400	0.03350
4405.09533	0.03355
4403.16665	0.03358
4401.23798	0.03362
4399.30930	0.03367
4397.38062	0.03374
4395.45195	0.03379
4393.52327	0.03383
4391.59460	0.03387
4389.66592	0.03395
4387.73725	0.03403
4385.80857	0.03411
4383.87989	0.03417
4381.95122	0.03422
4380.02254	0.03426
4378.09387	0.03431
4376.16519	0.03436
4374.23652	0.03442
4372.30784	0.03446
4370.37916	0.03450
4368.45049	0.03455
4366.52181	0.03461
4364.59314	0.03468
4362.66446	0.03475
4360.73579	0.03482
4358.80711	0.03489
4356.87843	0.03496
4354.94976	0.03502
4353.02108	0.03506
4351.09241	0.03513
4349.16373	0.03520
4347.23506	0.03526
4345.30638	0.03529
4343.37770	0.03532
4341.44903	0.03538
4339.52035	0.03546
4337.59168	0.03554
4335.66300	0.03561
4333.73433	0.03566
4331.80565	0.03572
4329.87697	0.03578
4327.94830	0.03586
4326.01962	0.03594
4324.09095	0.03600
4322.16227	0.03605
4320.23360	0.03609
4318.30492	0.03614
4316.37624	0.03621
4314.44757	0.03629
4312.51889	0.03635
4310.59022	0.03640
4308.66154	0.03645
4306.73287	0.03651
4304.80419	0.03658
4302.87551	0.03666
4300.94684	0.03673
4299.01816	0.03679
4297.08949	0.03686
4295.16081	0.03693
4293.23214	0.03697
4291.30346	0.03699
4289.37478	0.03704
4287.44611	0.03713
4285.51743	0.03722
4283.58876	0.03729
4281.66008	0.03735
4279.73141	0.03742
4277.80273	0.03749
4275.87405	0.03754
4273.94538	0.03760
4272.01670	0.03769
4270.08803	0.03777
4268.15935	0.03782
4266.23068	0.03787
4264.30200	0.03793
4262.37332	0.03799
4260.44465	0.03804
4258.51597	0.03810
4256.58730	0.03816
4254.65862	0.03825
4252.72995	0.03833
4250.80127	0.03839
4248.87259	0.03844
4246.94392	0.03849
4245.01524	0.03855
4243.08657	0.03864
4241.15789	0.03873
4239.22922	0.03881
4237.30054	0.03888
4235.37186	0.03895
4233.44319	0.03901
4231.51451	0.03907
4229.58584	0.03912
4227.65716	0.03916
4225.72849	0.03920
4223.79981	0.03927
4221.87113	0.03936
4219.94246	0.03945
4218.01378	0.03951
4216.08511	0.03958
4214.15643	0.03964
4212.22776	0.03971
4210.29908	0.03979
4208.37040	0.03986
4206.44173	0.03992
4204.51305	0.03996
4202.58438	0.04000
4200.65570	0.04007
4198.72703	0.04018
4196.79835	0.04028
4194.86968	0.04037
4192.94100	0.04045
4191.01232	0.04051
4189.08365	0.04056
4187.15497	0.04063
4185.22630	0.04070
4183.29762	0.04076
4181.36895	0.04081
4179.44027	0.04088
4177.51159	0.04098
4175.58292	0.04106
4173.65424	0.04114
4171.72557	0.04123
4169.79689	0.04131
4167.86822	0.04136
4165.93954	0.04141
4164.01086	0.04148
4162.08219	0.04157
4160.15351	0.04164
4158.22484	0.04171
4156.29616	0.04178
4154.36749	0.04184
4152.43881	0.04189
4150.51013	0.04197
4148.58146	0.04207
4146.65278	0.04215
4144.72411	0.04220
4142.79543	0.04228
4140.86676	0.04238
4138.93808	0.04246
4137.00940	0.04252
4135.08073	0.04258
4133.15205	0.04264
4131.22338	0.04272
4129.29470	0.04281
4127.36603	0.04290
4125.43735	0.04300
4123.50867	0.04307
4121.58000	0.04314
4119.65132	0.04320
4117.72265	0.04326
4115.79397	0.04333
4113.86530	0.04341
4111.93662	0.04351
4110.00794	0.04360
4108.07927	0.04366
4106.15059	0.04372
4104.22192	0.04380
4102.29324	0.04391
4100.36457	0.04399
4098.43589	0.04406
4096.50721	0.04414
4094.57854	0.04421
4092.64986	0.04427
4090.72119	0.04433
4088.79251	0.04441
4086.86384	0.04450
4084.93516	0.04460
4083.00648	0.04467
4081.07781	0.04472
4079.14913	0.04479
4077.22046	0.04489
4075.29178	0.04499
4073.36311	0.04508
4071.43443	0.04516
4069.50575	0.04524
4067.57708	0.04531
4065.64840	0.04537
4063.71973	0.04545
4061.79105	0.04555
4059.86238	0.04564
4057.93370	0.04572
4056.00502	0.04578
4054.07635	0.04586
4052.14767	0.04595
4050.21900	0.04606
4048.29032	0.04615
4046.36165	0.04623
4044.43297	0.04630
4042.50429	0.04636
4040.57562	0.04642
4038.64694	0.04651
4036.71827	0.04661
4034.78959	0.04669
4032.86092	0.04678
4030.93224	0.04688
4029.00356	0.04696
4027.07489	0.04703
4025.14621	0.04709
4023.21754	0.04716
4021.28886	0.04725
4019.36019	0.04735
4017.43151	0.04745
4015.50283	0.04752
4013.57416	0.04760
4011.64548	0.04770
4009.71681	0.04780
4007.78813	0.04787
4005.85946	0.04796
4003.93078	0.04806
4002.00210	0.04814
4000.07343	0.04823
3998.14475	0.04831
3996.21608	0.04838
3994.28740	0.04846
3992.35873	0.04855
3990.43005	0.04865
3988.50137	0.04874
3986.57270	0.04882
3984.64402	0.04890
3982.71535	0.04897
3980.78667	0.04903
3978.85800	0.04908
3976.92932	0.04916
3975.00064	0.04929
3973.07197	0.04941
3971.14329	0.04953
3969.21462	0.04963
3967.28594	0.04969
3965.35727	0.04973
3963.42859	0.04979
3961.49991	0.04988
3959.57124	0.05000
3957.64256	0.05009
3955.71389	0.05016
3953.78521	0.05023
3951.85654	0.05031
3949.92786	0.05038
3947.99918	0.05046
3946.07051	0.05055
3944.14183	0.05063
3942.21316	0.05073
3940.28448	0.05084
3938.35581	0.05094
3936.42713	0.05105
3934.49845	0.05115
3932.56978	0.05123
3930.64110	0.05131
3928.71243	0.05140
3926.78375	0.05147
3924.85508	0.05152
3922.92640	0.05160
3920.99772	0.05168
3919.06905	0.05175
3917.14037	0.05183
3915.21170	0.05197
3913.28302	0.05211
3911.35435	0.05222
3909.42567	0.05229
3907.49699	0.05230
3905.56832	0.05222
3903.63964	0.05217
3901.71097	0.05224
3899.78229	0.05243
3897.85362	0.05267
3895.92494	0.05286
3893.99626	0.05295
3892.06759	0.05300
3890.13891	0.05308
3888.21024	0.05311
3886.28156	0.05309
3884.35289	0.05321
3882.42421	0.05341
3880.49553	0.05357
3878.56686	0.05371
3876.63818	0.05381
3874.70951	0.05383
3872.78083	0.05386
3870.85216	0.05393
3868.92348	0.05406
3866.99480	0.05421
3865.06613	0.05430
3863.13745	0.05439
3861.20878	0.05452
3859.28010	0.05462
3857.35143	0.05459
3855.42275	0.05441
3853.49407	0.05436
3851.56540	0.05464
3849.63672	0.05503
3847.70805	0.05525
3845.77937	0.05532
3843.85070	0.05534
3841.92202	0.05534
3839.99334	0.05534
3838.06467	0.05541
3836.13599	0.05560
3834.20732	0.05580
3832.27864	0.05597
3830.34997	0.05613
3828.42129	0.05625
3826.49261	0.05632
3824.56394	0.05634
3822.63526	0.05628
3820.70659	0.05632
3818.77791	0.05648
3816.84924	0.05663
3814.92056	0.05680
3812.99188	0.05700
3811.06321	0.05712
3809.13453	0.05710
3807.20586	0.05710
3805.27718	0.05722
3803.34851	0.05732
3801.41983	0.05738
3799.49115	0.05753
3797.56248	0.05769
3795.63380	0.05784
3793.70513	0.05803
3791.77645	0.05819
3789.84778	0.05831
3787.91910	0.05839
3785.99042	0.05845
3784.06175	0.05852
3782.13307	0.05861
3780.20440	0.05871
3778.27572	0.05882
3776.34705	0.05896
3774.41837	0.05907
3772.48969	0.05907
3770.56102	0.05903
3768.63234	0.05908
3766.70367	0.05921
3764.77499	0.05938
3762.84632	0.05955
3760.91764	0.05965
3758.98896	0.05971
3757.06029	0.05980
3755.13161	0.05986
3753.20294	0.05982
3751.27426	0.05978
3749.34559	0.05984
3747.41691	0.05989
3745.48823	0.05986
3743.55956	0.06003
3741.63088	0.06040
3739.70221	0.06058
3737.77353	0.06046
3735.84486	0.06036
3733.91618	0.06048
3731.98750	0.06078
3730.05883	0.06108
3728.13015	0.06126
3726.20148	0.06134
3724.27280	0.06144
3722.34413	0.06158
3720.41545	0.06173
3718.48677	0.06189
3716.55810	0.06199
3714.62942	0.06196
3712.70075	0.06187
3710.77207	0.06190
3708.84340	0.06214
3706.91472	0.06241
3704.98604	0.06251
3703.05737	0.06250
3701.12869	0.06257
3699.20002	0.06276
3697.27134	0.06292
3695.34267	0.06299
3693.41399	0.06298
3691.48531	0.06295
3689.55664	0.06303
3687.62796	0.06325
3685.69929	0.06348
3683.77061	0.06362
3681.84194	0.06367
3679.91326	0.06366
3677.98458	0.06354
3676.05591	0.06346
3674.12723	0.06363
3672.19856	0.06384
3670.26988	0.06394
3668.34121	0.06412
3666.41253	0.06443
3664.48385	0.06467
3662.55518	0.06479
3660.62650	0.06483
3658.69783	0.06479
3656.76915	0.06476
3654.84048	0.06486
3652.91180	0.06487
3650.98312	0.06467
3649.05445	0.06455
3647.12577	0.06472
3645.19710	0.06506
3643.26842	0.06535
3641.33975	0.06554
3639.41107	0.06568
3637.48239	0.06576
3635.55372	0.06581
3633.62504	0.06582
3631.69637	0.06576
3629.76769	0.06569
3627.83902	0.06584
3625.91034	0.06613
3623.98166	0.06631
3622.05299	0.06632
3620.12431	0.06627
3618.19564	0.06634
3616.26696	0.06646
3614.33829	0.06652
3612.40961	0.06657
3610.48093	0.06664
3608.55226	0.06674
3606.62358	0.06689
3604.69491	0.06705
3602.76623	0.06713
3600.83756	0.06718
3598.90888	0.06725
3596.98020	0.06731
3595.05153	0.06737
3593.12285	0.06744
3591.19418	0.06746
3589.26550	0.06744
3587.33683	0.06753
3585.40815	0.06774
3583.47947	0.06793
3581.55080	0.06805
3579.62212	0.06812
3577.69345	0.06817
3575.76477	0.06826
3573.83610	0.06836
3571.90742	0.06843
3569.97874	0.06841
3568.05007	0.06833
3566.12139	0.06839
3564.19272	0.06860
3562.26404	0.06881
3560.33537	0.06892
3558.40669	0.06900
3556.47801	0.06910
3554.54934	0.06918
3552.62066	0.06925
3550.69199	0.06931
3548.76331	0.06936
3546.83464	0.06940
3544.90596	0.06947
3542.97728	0.06956
3541.04861	0.06965
3539.11993	0.06974
3537.19126	0.06981
3535.26258	0.06987
3533.33391	0.06993
3531.40523	0.06997
3529.47655	0.07000
3527.54788	0.07002
3525.61920	0.07006
3523.69053	0.07012
3521.76185	0.07016
3519.83318	0.07020
3517.90450	0.07023
3515.97582	0.07026
3514.04715	0.07029
3512.11847	0.07033
3510.18980	0.07036
3508.26112	0.07037
3506.33245	0.07040
3504.40377	0.07041
3502.47509	0.07045
3500.54642	0.07052
3498.61774	0.07056
3496.68907	0.07057
3494.76039	0.07059
3492.83172	0.07063
3490.90304	0.07066
3488.97436	0.07071
3487.04569	0.07077
3485.11701	0.07081
3483.18834	0.07084
3481.25966	0.07086
3479.33099	0.07089
3477.40231	0.07096
3475.47363	0.07104
3473.54496	0.07113
3471.61628	0.07123
3469.68761	0.07133
3467.75893	0.07143
3465.83026	0.07154
3463.90158	0.07165
3461.97290	0.07175
3460.04423	0.07184
3458.11555	0.07194
3456.18688	0.07205
3454.25820	0.07217
3452.32953	0.07229
3450.40085	0.07242
3448.47217	0.07250
3446.54350	0.07256
3444.61482	0.07266
3442.68615	0.07278
3440.75747	0.07293
3438.82880	0.07309
3436.90012	0.07326
3434.97144	0.07348
3433.04277	0.07373
3431.11409	0.07395
3429.18542	0.07416
3427.25674	0.07438
3425.32807	0.07459
3423.39939	0.07478
3421.47071	0.07495
3419.54204	0.07512
3417.61336	0.07532
3415.68469	0.07553
3413.75601	0.07571
3411.82734	0.07586
3409.89866	0.07599
3407.96998	0.07615
3406.04131	0.07630
3404.11263	0.07643
3402.18396	0.07656
3400.25528	0.07671
3398.32661	0.07689
3396.39793	0.07707
3394.46925	0.07723
3392.54058	0.07735
3390.61190	0.07749
3388.68323	0.07763
3386.75455	0.07778
3384.82588	0.07795
3382.89720	0.07811
3380.96852	0.07825
3379.03985	0.07836
3377.11117	0.07849
3375.18250	0.07863
3373.25382	0.07878
3371.32515	0.07892
3369.39647	0.07904
3367.46779	0.07916
3365.53912	0.07929
3363.61044	0.07946
3361.68177	0.07961
3359.75309	0.07974
3357.82442	0.07986
3355.89574	0.08000
3353.96706	0.08014
3352.03839	0.08027
3350.10971	0.08036
3348.18104	0.08045
3346.25236	0.08056
3344.32369	0.08072
3342.39501	0.08090
3340.46633	0.08105
3338.53766	0.08117
3336.60898	0.08132
3334.68031	0.08147
3332.75163	0.08161
3330.82296	0.08174
3328.89428	0.08187
3326.96560	0.08197
3325.03693	0.08208
3323.10825	0.08221
3321.17958	0.08235
3319.25090	0.08249
3317.32223	0.08263
3315.39355	0.08277
3313.46487	0.08290
3311.53620	0.08303
3309.60752	0.08320
3307.67885	0.08337
3305.75017	0.08349
3303.82150	0.08359
3301.89282	0.08373
3299.96414	0.08392
3298.03547	0.08411
3296.10679	0.08426
3294.17812	0.08438
3292.24944	0.08449
3290.32077	0.08459
3288.39209	0.08470
3286.46341	0.08484
3284.53474	0.08501
3282.60606	0.08518
3280.67739	0.08532
3278.74871	0.08547
3276.82004	0.08564
3274.89136	0.08580
3272.96268	0.08594
3271.03401	0.08606
3269.10533	0.08620
3267.17666	0.08635
3265.24798	0.08648
3263.31931	0.08659
3261.39063	0.08670
3259.46195	0.08684
3257.53328	0.08700
3255.60460	0.08718
3253.67593	0.08737
3251.74725	0.08753
3249.81858	0.08766
3247.88990	0.08778
3245.96122	0.08794
3244.03255	0.08812
3242.10387	0.08831
3240.17520	0.08846
3238.24652	0.08859
3236.31785	0.08872
3234.38917	0.08885
3232.46049	0.08898
3230.53182	0.08911
3228.60314	0.08926
3226.67447	0.08942
3224.74579	0.08957
3222.81712	0.08970
3220.88844	0.08981
3218.95976	0.08993
3217.03109	0.09008
3215.10241	0.09024
3213.17374	0.09041
3211.24506	0.09056
3209.31639	0.09068
3207.38771	0.09080
3205.45903	0.09097
3203.53036	0.09115
3201.60168	0.09130
3199.67301	0.09142
3197.74433	0.09155
3195.81566	0.09171
3193.88698	0.09187
3191.95830	0.09204
3190.02963	0.09220
3188.10095	0.09236
3186.17228	0.09252
3184.24360	0.09267
3182.31493	0.09280
3180.38625	0.09293
3178.45757	0.09310
3176.52890	0.09325
3174.60022	0.09340
3172.67155	0.09357
3170.74287	0.09371
3168.81420	0.09385
3166.88552	0.09401
3164.95684	0.09419
3163.02817	0.09435
3161.09949	0.09452
3159.17082	0.09464
3157.24214	0.09476
3155.31347	0.09489
3153.38479	0.09504
3151.45611	0.09518
3149.52744	0.09530
3147.59876	0.09542
3145.67009	0.09556
3143.74141	0.09572
3141.81274	0.09588
3139.88406	0.09604
3137.95538	0.09619
3136.02671	0.09632
3134.09803	0.09646
3132.16936	0.09663
3130.24068	0.09682
3128.31201	0.09696
3126.38333	0.09707
3124.45465	0.09721
3122.52598	0.09736
3120.59730	0.09751
3118.66863	0.09766
3116.73995	0.09781
3114.81128	0.09795
3112.88260	0.09809
3110.95392	0.09823
3109.02525	0.09838
3107.09657	0.09852
3105.16790	0.09864
3103.23922	0.09877
3101.31055	0.09892
3099.38187	0.09908
3097.45319	0.09922
3095.52452	0.09938
3093.59584	0.09955
3091.66717	0.09970
3089.73849	0.09983
3087.80982	0.09997
3085.88114	0.10013
3083.95246	0.10029
3082.02379	0.10042
3080.09511	0.10054
3078.16644	0.10067
3076.23776	0.10082
3074.30909	0.10097
3072.38041	0.10111
3070.45173	0.10126
3068.52306	0.10142
3066.59438	0.10159
3064.66571	0.10173
3062.73703	0.10185
3060.80836	0.10196
3058.87968	0.10211
3056.95100	0.10230
3055.02233	0.10249
3053.09365	0.10262
3051.16498	0.10271
3049.23630	0.10282
3047.30763	0.10297
3045.37895	0.10312
3043.45027	0.10324
3041.52160	0.10334
3039.59292	0.10346
3037.66425	0.10358
3035.73557	0.10372
3033.80690	0.10387
3031.87822	0.10404
3029.94954	0.10420
3028.02087	0.10435
3026.09219	0.10449
3024.16352	0.10462
3022.23484	0.10474
3020.30617	0.10485
3018.37749	0.10498
3016.44881	0.10514
3014.52014	0.10529
3012.59146	0.10540
3010.66279	0.10550
3008.73411	0.10560
3006.80544	0.10571
3004.87676	0.10581
3002.94808	0.10590
3001.01941	0.10598
2999.09073	0.10609
2997.16206	0.10621
2995.23338	0.10629
2993.30471	0.10631
2991.37603	0.10635
2989.44735	0.10640
2987.51868	0.10642
2985.59000	0.10638
2983.66133	0.10631
2981.73265	0.10621
2979.80398	0.10607
2977.87530	0.10590
2975.94662	0.10569
2974.01795	0.10543
2972.08927	0.10513
2970.16060	0.10482
2968.23192	0.10450
2966.30325	0.10420
2964.37457	0.10398
2962.44589	0.10389
2960.51722	0.10394
2958.58854	0.10414
2956.65987	0.10452
2954.73119	0.10505
2952.80252	0.10566
2950.87384	0.10630
2948.94516	0.10689
2947.01649	0.10739
2945.08781	0.10780
2943.15914	0.10812
2941.23046	0.10834
2939.30179	0.10849
2937.37311	0.10855
2935.44443	0.10855
2933.51576	0.10852
2931.58708	0.10849
2929.65841	0.10847
2927.72973	0.10843
2925.80106	0.10838
2923.87238	0.10834
2921.94370	0.10835
2920.01503	0.10840
2918.08635	0.10849
2916.15768	0.10871
2914.22900	0.10910
2912.30033	0.10954
2910.37165	0.10992
2908.44297	0.11023
2906.51430	0.11052
2904.58562	0.11077
2902.65695	0.11101
2900.72827	0.11129
2898.79960	0.11158
2896.87092	0.11187
2894.94224	0.11217
2893.01357	0.11245
2891.08489	0.11272
2889.15622	0.11296
2887.22754	0.11319
2885.29887	0.11341
2883.37019	0.11364
2881.44151	0.11386
2879.51284	0.11404
2877.58416	0.11421
2875.65549	0.11440
2873.72681	0.11459
2871.79814	0.11476
2869.86946	0.11494
2867.94078	0.11513
2866.01211	0.11527
2864.08343	0.11537
2862.15476	0.11544
2860.22608	0.11550
2858.29741	0.11556
2856.36873	0.11558
2854.44005	0.11554
2852.51138	0.11549
2850.58270	0.11559
2848.65403	0.11592
2846.72535	0.11641
2844.79668	0.11695
2842.86800	0.11744
2840.93932	0.11784
2839.01065	0.11812
2837.08197	0.11835
2835.15330	0.11857
2833.22462	0.11879
2831.29595	0.11900
2829.36727	0.11919
2827.43859	0.11936
2825.50992	0.11954
2823.58124	0.11972
2821.65257	0.11989
2819.72389	0.12006
2817.79522	0.12026
2815.86654	0.12043
2813.93786	0.12060
2812.00919	0.12079
2810.08051	0.12097
2808.15184	0.12111
2806.22316	0.12124
2804.29449	0.12140
2802.36581	0.12156
2800.43713	0.12172
2798.50846	0.12186
2796.57978	0.12202
2794.65111	0.12220
2792.72243	0.12236
2790.79376	0.12251
2788.86508	0.12267
2786.93640	0.12283
2785.00773	0.12300
2783.07905	0.12319
2781.15038	0.12338
2779.22170	0.12356
2777.29303	0.12368
2775.36435	0.12381
2773.43567	0.12399
2771.50700	0.12419
2769.57832	0.12436
2767.64965	0.12452
2765.72097	0.12467
2763.79230	0.12482
2761.86362	0.12498
2759.93494	0.12514
2758.00627	0.12529
2756.07759	0.12546
2754.14892	0.12563
2752.22024	0.12576
2750.29157	0.12587
2748.36289	0.12600
2746.43421	0.12616
2744.50554	0.12633
2742.57686	0.12649
2740.64819	0.12663
2738.71951	0.12675
2736.79084	0.12689
2734.86216	0.12704
2732.93348	0.12721
2731.00481	0.12737
2729.07613	0.12751
2727.14746	0.12766
2725.21878	0.12782
2723.29011	0.12796
2721.36143	0.12808
2719.43275	0.12820
2717.50408	0.12833
2715.57540	0.12847
2713.64673	0.12862
2711.71805	0.12878
2709.78938	0.12894
2707.86070	0.12909
2705.93202	0.12925
2704.00335	0.12942
2702.07467	0.12959
2700.14600	0.12974
2698.21732	0.12988
2696.28865	0.13003
2694.35997	0.13018
2692.43129	0.13032
2690.50262	0.13047
2688.57394	0.13063
2686.64527	0.13077
2684.71659	0.13088
2682.78792	0.13099
2680.85924	0.13113
2678.93056	0.13128
2677.00189	0.13143
2675.07321	0.13158
2673.14454	0.13172
2671.21586	0.13186
2669.28719	0.13200
2667.35851	0.13215
2665.42983	0.13230
2663.50116	0.13244
2661.57248	0.13255
2659.64381	0.13267
2657.71513	0.13284
2655.78646	0.13302
2653.85778	0.13317
2651.92910	0.13331
2650.00043	0.13348
2648.07175	0.13365
2646.14308	0.13380
2644.21440	0.13395
2642.28573	0.13411
2640.35705	0.13427
2638.42837	0.13443
2636.49970	0.13457
2634.57102	0.13470
2632.64235	0.13486
2630.71367	0.13505
2628.78500	0.13522
2626.85632	0.13536
2624.92764	0.13551
2622.99897	0.13570
2621.07029	0.13589
2619.14162	0.13604
2617.21294	0.13617
2615.28427	0.13630
2613.35559	0.13644
2611.42691	0.13660
2609.49824	0.13677
2607.56956	0.13694
2605.64089	0.13709
2603.71221	0.13725
2601.78354	0.13743
2599.85486	0.13760
2597.92618	0.13773
2595.99751	0.13785
2594.06883	0.13803
2592.14016	0.13823
2590.21148	0.13839
2588.28281	0.13849
2586.35413	0.13861
2584.42545	0.13880
2582.49678	0.13901
2580.56810	0.13915
2578.63943	0.13927
2576.71075	0.13943
2574.78208	0.13960
2572.85340	0.13975
2570.92472	0.13989
2568.99605	0.14003
2567.06737	0.14018
2565.13870	0.14034
2563.21002	0.14049
2561.28135	0.14064
2559.35267	0.14081
2557.42399	0.14096
2555.49532	0.14111
2553.56664	0.14126
2551.63797	0.14140
2549.70929	0.14152
2547.78062	0.14166
2545.85194	0.14179
2543.92326	0.14192
2541.99459	0.14206
2540.06591	0.14220
2538.13724	0.14234
2536.20856	0.14252
2534.27989	0.14271
2532.35121	0.14289
2530.42253	0.14303
2528.49386	0.14317
2526.56518	0.14331
2524.63651	0.14347
2522.70783	0.14361
2520.77916	0.14374
2518.85048	0.14390
2516.92181	0.14408
2514.99313	0.14423
2513.06445	0.14438
2511.13578	0.14453
2509.20710	0.14467
2507.27843	0.14481
2505.34975	0.14499
2503.42108	0.14518
2501.49240	0.14535
2499.56372	0.14551
2497.63505	0.14567
2495.70637	0.14584
2493.77770	0.14603
2491.84902	0.14621
2489.92035	0.14636
2487.99167	0.14651
2486.06299	0.14666
2484.13432	0.14683
2482.20564	0.14701
2480.27697	0.14718
2478.34829	0.14737
2476.41962	0.14756
2474.49094	0.14769
2472.56226	0.14783
2470.63359	0.14800
2468.70491	0.14816
2466.77624	0.14830
2464.84756	0.14847
2462.91889	0.14865
2460.99021	0.14878
2459.06153	0.14890
2457.13286	0.14907
2455.20418	0.14926
2453.27551	0.14943
2451.34683	0.14959
2449.41816	0.14977
2447.48948	0.14996
2445.56080	0.15013
2443.63213	0.15027
2441.70345	0.15040
2439.77478	0.15056
2437.84610	0.15075
2435.91743	0.15093
2433.98875	0.15109
2432.06007	0.15122
2430.13140	0.15136
2428.20272	0.15152
2426.27405	0.15168
2424.34537	0.15184
2422.41670	0.15198
2420.48802	0.15215
2418.55934	0.15234
2416.63067	0.15253
2414.70199	0.15266
2412.77332	0.15279
2410.84464	0.15296
2408.91597	0.15317
2406.98729	0.15335
2405.05861	0.15347
2403.12994	0.15358
2401.20126	0.15374
2399.27259	0.15390
2397.34391	0.15403
2395.41524	0.15418
2393.48656	0.15435
2391.55788	0.15450
2389.62921	0.15465
2387.70053	0.15481
2385.77186	0.15495
2383.84318	0.15508
2381.91451	0.15520
2379.98583	0.15529
2378.05715	0.15533
2376.12848	0.15531
2374.19980	0.15529
2372.27113	0.15529
2370.34245	0.15531
2368.41378	0.15534
2366.48510	0.15540
2364.55642	0.15550
2362.62775	0.15563
2360.69907	0.15578
2358.77040	0.15596
2356.84172	0.15620
2354.91305	0.15654
2352.98437	0.15694
2351.05569	0.15729
2349.12702	0.15750
2347.19834	0.15752
2345.26967	0.15746
2343.34099	0.15748
2341.41232	0.15764
2339.48364	0.15784
2337.55496	0.15800
2335.62629	0.15814
2333.69761	0.15826
2331.76894	0.15838
2329.84026	0.15853
2327.91159	0.15872
2325.98291	0.15895
2324.05423	0.15919
2322.12556	0.15942
2320.19688	0.15961
2318.26821	0.15980
2316.33953	0.16003
2314.41086	0.16027
2312.48218	0.16048
2310.55350	0.16068
2308.62483	0.16089
2306.69615	0.16111
2304.76748	0.16131
2302.83880	0.16147
2300.91013	0.16161
2298.98145	0.16177
2297.05277	0.16193
2295.12410	0.16210
2293.19542	0.16228
2291.26675	0.16246
2289.33807	0.16259
2287.40940	0.16272
2285.48072	0.16287
2283.55204	0.16304
2281.62337	0.16319
2279.69469	0.16333
2277.76602	0.16351
2275.83734	0.16371
2273.90867	0.16388
2271.97999	0.16403
2270.05131	0.16416
2268.12264	0.16425
2266.19396	0.16434
2264.26529	0.16446
2262.33661	0.16462
2260.40794	0.16479
2258.47926	0.16496
2256.55058	0.16510
2254.62191	0.16522
2252.69323	0.16538
2250.76456	0.16555
2248.83588	0.16572
2246.90721	0.16588
2244.97853	0.16604
2243.04985	0.16621
2241.12118	0.16637
2239.19250	0.16651
2237.26383	0.16664
2235.33515	0.16675
2233.40648	0.16687
2231.47780	0.16702
2229.54912	0.16715
2227.62045	0.16726
2225.69177	0.16737
2223.76310	0.16752
2221.83442	0.16769
2219.90575	0.16786
2217.97707	0.16802
2216.04839	0.16815
2214.11972	0.16825
2212.19104	0.16835
2210.26237	0.16847
2208.33369	0.16859
2206.40502	0.16871
2204.47634	0.16882
2202.54766	0.16892
2200.61899	0.16905
2198.69031	0.16920
2196.76164	0.16934
2194.83296	0.16947
2192.90429	0.16959
2190.97561	0.16972
2189.04693	0.16985
2187.11826	0.16995
2185.18958	0.17003
2183.26091	0.17011
2181.33223	0.17020
2179.40356	0.17032
2177.47488	0.17043
2175.54620	0.17054
2173.61753	0.17066
2171.68885	0.17079
2169.76018	0.17090
2167.83150	0.17100
2165.90283	0.17114
2163.97415	0.17126
2162.04547	0.17136
2160.11680	0.17147
2158.18812	0.17162
2156.25945	0.17178
2154.33077	0.17191
2152.40210	0.17203
2150.47342	0.17214
2148.54474	0.17226
2146.61607	0.17239
2144.68739	0.17253
2142.75872	0.17265
2140.83004	0.17272
2138.90137	0.17283
2136.97269	0.17300
2135.04401	0.17320
2133.11534	0.17341
2131.18666	0.17359
2129.25799	0.17374
2127.32931	0.17390
2125.40064	0.17410
2123.47196	0.17432
2121.54328	0.17453
2119.61461	0.17468
2117.68593	0.17482
2115.75726	0.17501
2113.82858	0.17520
2111.89991	0.17540
2109.97123	0.17561
2108.04255	0.17583
2106.11388	0.17605
2104.18520	0.17626
2102.25653	0.17645
2100.32785	0.17665
2098.39918	0.17690
2096.47050	0.17716
2094.54182	0.17741
2092.61315	0.17763
2090.68447	0.17784
2088.75580	0.17804
2086.82712	0.17821
2084.89845	0.17836
2082.96977	0.17853
2081.04109	0.17874
2079.11242	0.17896
2077.18374	0.17921
2075.25507	0.17945
2073.32639	0.17965
2071.39772	0.17981
2069.46904	0.17996
2067.54036	0.18015
2065.61169	0.18034
2063.68301	0.18052
2061.75434	0.18070
2059.82566	0.18089
2057.89699	0.18108
2055.96831	0.18125
2054.03963	0.18140
2052.11096	0.18154
2050.18228	0.18169
2048.25361	0.18186
2046.32493	0.18203
2044.39626	0.18221
2042.46758	0.18242
2040.53890	0.18263
2038.61023	0.18278
2036.68155	0.18291
2034.75288	0.18303
2032.82420	0.18317
2030.89553	0.18335
2028.96685	0.18355
2027.03817	0.18371
2025.10950	0.18385
2023.18082	0.18398
2021.25215	0.18413
2019.32347	0.18427
2017.39480	0.18443
2015.46612	0.18464
2013.53744	0.18483
2011.60877	0.18499
2009.68009	0.18515
2007.75142	0.18530
2005.82274	0.18541
2003.89407	0.18552
2001.96539	0.18569
2000.03671	0.18587
1998.10804	0.18605
1996.17936	0.18620
1994.25069	0.18630
1992.32201	0.18640
1990.39334	0.18655
1988.46466	0.18667
1986.53598	0.18676
1984.60731	0.18689
1982.67863	0.18705
1980.74996	0.18721
1978.82128	0.18735
1976.89261	0.18749
1974.96393	0.18762
1973.03525	0.18773
1971.10658	0.18781
1969.17790	0.18787
1967.24923	0.18797
1965.32055	0.18814
1963.39188	0.18834
1961.46320	0.18848
1959.53452	0.18859
1957.60585	0.18875
1955.67717	0.18893
1953.74850	0.18907
1951.81982	0.18917
1949.89115	0.18930
1947.96247	0.18944
1946.03379	0.18957
1944.10512	0.18970
1942.17644	0.18986
1940.24777	0.19008
1938.31909	0.19028
1936.39042	0.19043
1934.46174	0.19057
1932.53306	0.19071
1930.60439	0.19083
1928.67571	0.19095
1926.74704	0.19111
1924.81836	0.19125
1922.88969	0.19134
1920.96101	0.19133
1919.03233	0.19127
1917.10366	0.19144
1915.17498	0.19187
1913.24631	0.19222
1911.31763	0.19236
1909.38896	0.19245
1907.46028	0.19262
1905.53160	0.19279
1903.60293	0.19294
1901.67425	0.19310
1899.74558	0.19325
1897.81690	0.19332
1895.88823	0.19336
1893.95955	0.19349
1892.03087	0.19370
1890.10220	0.19386
1888.17352	0.19403
1886.24485	0.19424
1884.31617	0.19443
1882.38750	0.19458
1880.45882	0.19470
1878.53014	0.19482
1876.60147	0.19496
1874.67279	0.19508
1872.74412	0.19511
1870.81544	0.19502
1868.88677	0.19506
1866.95809	0.19536
1865.02941	0.19575
1863.10074	0.19602
1861.17206	0.19619
1859.24339	0.19635
1857.31471	0.19649
1855.38604	0.19662
1853.45736	0.19678
1851.52868	0.19699
1849.60001	0.19714
1847.67133	0.19713
1845.74266	0.19706
1843.81398	0.19719
1841.88531	0.19755
1839.95663	0.19785
1838.02795	0.19804
1836.09928	0.19821
1834.17060	0.19828
1832.24193	0.19813
1830.31325	0.19803
1828.38458	0.19824
1826.45590	0.19855
1824.52722	0.19879
1822.59855	0.19905
1820.66987	0.19930
1818.74120	0.19946
1816.81252	0.19959
1814.88385	0.19970
1812.95517	0.19974
1811.02649	0.19979
1809.09782	0.19994
1807.16914	0.20012
1805.24047	0.20022
1803.31179	0.20017
1801.38312	0.20009
1799.45444	0.20017
1797.52576	0.20038
1795.59709	0.20042
1793.66841	0.20028
1791.73974	0.20038
1789.81106	0.20080
1787.88239	0.20107
1785.95371	0.20103
1784.02503	0.20103
1782.09636	0.20115
1780.16768	0.20135
1778.23901	0.20162
1776.31033	0.20169
1774.38166	0.20146
1772.45298	0.20134
1770.52430	0.20157
1768.59563	0.20190
1766.66695	0.20216
1764.73828	0.20219
1762.80960	0.20199
1760.88093	0.20201
1758.95225	0.20228
1757.02357	0.20243
1755.09490	0.20243
1753.16622	0.20217
1751.23755	0.20184
1749.30887	0.20184
1747.38020	0.20203
1745.45152	0.20210
1743.52284	0.20204
1741.59417	0.20198
1739.66549	0.20200
1737.73682	0.20194
1735.80814	0.20157
1733.87947	0.20140
1731.95079	0.20183
1730.02211	0.20240
1728.09344	0.20272
1726.16476	0.20282
1724.23609	0.20286
1722.30741	0.20291
1720.37874	0.20279
1718.45006	0.20257
1716.52138	0.20260
1714.59271	0.20296
1712.66403	0.20342
1710.73536	0.20375
1708.80668	0.20380
1706.87801	0.20363
1704.94933	0.20338
1703.02065	0.20286
1701.09198	0.20230
1699.16330	0.20247
1697.23463	0.20318
1695.30595	0.20376
1693.37728	0.20419
1691.44860	0.20438
1689.51992	0.20430
1687.59125	0.20405
1685.66257	0.20366
1683.73390	0.20360
1681.80522	0.20400
1679.87655	0.20440
1677.94787	0.20445
1676.01919	0.20433
1674.09052	0.20431
1672.16184	0.20433
1670.23317	0.20432
1668.30449	0.20456
1666.37582	0.20482
1664.44714	0.20470
1662.51846	0.20458
1660.58979	0.20487
1658.66111	0.20515
1656.73244	0.20488
1654.80376	0.20425
1652.87509	0.20404
1650.94641	0.20438
1649.01773	0.20450
1647.08906	0.20445
1645.16038	0.20480
1643.23171	0.20526
1641.30303	0.20544
1639.37436	0.20527
1637.44568	0.20482
1635.51700	0.20461
1633.58833	0.20506
1631.65965	0.20554
1629.73098	0.20554
1627.80230	0.20532
1625.87363	0.20510
1623.94495	0.20479
1622.01627	0.20448
1620.08760	0.20428
1618.15892	0.20423
1616.23025	0.20469
1614.30157	0.20567
1612.37290	0.20641
1610.44422	0.20669
1608.51554	0.20687
1606.58687	0.20712
1604.65819	0.20735
1602.72952	0.20756
1600.80084	0.20778
1598.87217	0.20799
1596.94349	0.20813
1595.01481	0.20824
1593.08614	0.20840
1591.15746	0.20857
1589.22879	0.20869
1587.30011	0.20880
1585.37144	0.20892
1583.44276	0.20908
1581.51408	0.20923
1579.58541	0.20924
1577.65673	0.20911
1575.72806	0.20917
1573.79938	0.20950
1571.87071	0.20967
1569.94203	0.20968
1568.01335	0.20984
1566.08468	0.21008
1564.15600	0.21010
1562.22733	0.20960
1560.29865	0.20889
1558.36998	0.20897
1556.44130	0.20983
1554.51262	0.21056
1552.58395	0.21090
1550.65527	0.21103
1548.72660	0.21105
1546.79792	0.21090
1544.86925	0.21058
1542.94057	0.21026
1541.01189	0.21017
1539.08322	0.21060
1537.15454	0.21119
1535.22587	0.21123
1533.29719	0.21110
1531.36852	0.21135
1529.43984	0.21156
1527.51116	0.21141
1525.58249	0.21117
1523.65381	0.21082
1521.72514	0.21050
1519.79646	0.21064
1517.86779	0.21108
1515.93911	0.21155
1514.01043	0.21195
1512.08176	0.21194
1510.15308	0.21147
1508.22441	0.21092
1506.29573	0.21097
1504.36706	0.21169
1502.43838	0.21221
1500.50970	0.21203
1498.58103	0.21173
1496.65235	0.21185
1494.72368	0.21213
1492.79500	0.21204
1490.86633	0.21165
1488.93765	0.21138
1487.00897	0.21147
1485.08030	0.21175
1483.15162	0.21187
1481.22295	0.21169
1479.29427	0.21129
1477.36560	0.21068
1475.43692	0.21002
1473.50824	0.20940
1471.57957	0.20907
1469.65089	0.20911
1467.72222	0.20897
1465.79354	0.20854
1463.86487	0.20831
1461.93619	0.20820
1460.00751	0.20750
1458.07884	0.20639
1456.15016	0.20611
1454.22149	0.20682
1452.29281	0.20745
1450.36414	0.20757
1448.43546	0.20754
1446.50678	0.20762
1444.57811	0.20780
1442.64943	0.20797
1440.72076	0.20797
1438.79208	0.20768
1436.86341	0.20746
1434.93473	0.20771
1433.00605	0.20804
1431.07738	0.20808
1429.14870	0.20817
1427.22003	0.20839
1425.29135	0.20845
1423.36268	0.20827
1421.43400	0.20776
1419.50532	0.20722
1417.57665	0.20719
1415.64797	0.20747
1413.71930	0.20761
1411.79062	0.20765
1409.86195	0.20772
1407.93327	0.20772
1406.00459	0.20768
1404.07592	0.20770
1402.14724	0.20767
1400.21857	0.20746
1398.28989	0.20733
1396.36122	0.20746
1394.43254	0.20776
1392.50386	0.20806
1390.57519	0.20802
1388.64651	0.20759
1386.71784	0.20722
1384.78916	0.20718
1382.86049	0.20734
1380.93181	0.20750
1379.00313	0.20756
1377.07446	0.20747
1375.14578	0.20737
1373.21711	0.20733
1371.28843	0.20731
1369.35976	0.20728
1367.43108	0.20723
1365.50240	0.20710
1363.57373	0.20681
1361.64505	0.20662
1359.71638	0.20670
1357.78770	0.20687
1355.85903	0.20693
1353.93035	0.20696
1352.00167	0.20706
1350.07300	0.20723
1348.14432	0.20745
1346.21565	0.20764
1344.28697	0.20769
1342.35830	0.20754
1340.42962	0.20731
1338.50094	0.20724
1336.57227	0.20734
1334.64359	0.20741
1332.71492	0.20735
1330.78624	0.20714
1328.85757	0.20684
1326.92889	0.20660
1325.00021	0.20643
1323.07154	0.20623
1321.14286	0.20597
1319.21419	0.20574
1317.28551	0.20557
1315.35684	0.20538
1313.42816	0.20515
1311.49948	0.20491
1309.57081	0.20467
1307.64213	0.20442
1305.71346	0.20416
1303.78478	0.20392
1301.85611	0.20368
1299.92743	0.20340
1297.99875	0.20311
1296.07008	0.20285
1294.14140	0.20259
1292.21273	0.20228
1290.28405	0.20192
1288.35538	0.20157
1286.42670	0.20122
1284.49802	0.20085
1282.56935	0.20043
1280.64067	0.19996
1278.71200	0.19938
1276.78332	0.19856
1274.85465	0.19742
1272.92597	0.19591
1270.99729	0.19406
1269.06862	0.19180
1267.13994	0.18913
1265.21127	0.18630
1263.28259	0.18376
1261.35392	0.18200
1259.42524	0.18125
1257.49656	0.18131
1255.56789	0.18185
1253.63921	0.18266
1251.71054	0.18381
1249.78186	0.18538
1247.85319	0.18710
1245.92451	0.18865
1243.99583	0.18990
1242.06716	0.19079
1240.13848	0.19129
1238.20981	0.19148
1236.28113	0.19147
1234.35246	0.19124
1232.42378	0.19083
1230.49510	0.19034
1228.56643	0.18984
1226.63775	0.18932
1224.70908	0.18879
1222.78040	0.18827
1220.85173	0.18782
1218.92305	0.18735
1216.99437	0.18679
1215.06570	0.18616
1213.13702	0.18551
1211.20835	0.18487
1209.27967	0.18426
1207.35100	0.18365
1205.42232	0.18302
1203.49364	0.18237
1201.56497	0.18172
1199.63629	0.18107
1197.70762	0.18043
1195.77894	0.17976
1193.85027	0.17906
1191.92159	0.17834
1189.99291	0.17760
1188.06424	0.17679
1186.13556	0.17592
1184.20689	0.17504
1182.27821	0.17415
1180.34954	0.17324
1178.42086	0.17235
1176.49218	0.17150
1174.56351	0.17062
1172.63483	0.16967
1170.70616	0.16868
1168.77748	0.16767
1166.84881	0.16670
1164.92013	0.16577
1162.99145	0.16480
1161.06278	0.16378
1159.13410	0.16282
1157.20543	0.16191
1155.27675	0.16096
1153.34808	0.15998
1151.41940	0.15901
1149.49072	0.15803
1147.56205	0.15700
1145.63337	0.15594
1143.70470	0.15487
1141.77602	0.15373
1139.84735	0.15247
1137.91867	0.15113
1135.98999	0.14970
1134.06132	0.14813
1132.13264	0.14634
1130.20397	0.14434
1128.27529	0.14208
1126.34662	0.13961
1124.41794	0.13702
1122.48926	0.13440
1120.56059	0.13185
1118.63191	0.12942
1116.70324	0.12712
1114.77456	0.12501
1112.84589	0.12317
1110.91721	0.12160
1108.98853	0.12028
1107.05986	0.11918
1105.13118	0.11837
1103.20251	0.11784
1101.27383	0.11756
1099.34516	0.11751
1097.41648	0.11767
1095.48780	0.11798
1093.55913	0.11835
1091.63045	0.11868
1089.70178	0.11898
1087.77310	0.11922
1085.84443	0.11938
1083.91575	0.11943
1081.98707	0.11939
1080.05840	0.11931
1078.12972	0.11919
1076.20105	0.11898
1074.27237	0.11872
1072.34370	0.11845
1070.41502	0.11820
1068.48634	0.11798
1066.55767	0.11778
1064.62899	0.11756
1062.70032	0.11737
1060.77164	0.11725
1058.84297	0.11718
1056.91429	0.11709
1054.98561	0.11704
1053.05694	0.11704
1051.12826	0.11704
1049.19959	0.11710
1047.27091	0.11725
1045.34224	0.11745
1043.41356	0.11765
1041.48488	0.11786
1039.55621	0.11813
1037.62753	0.11841
1035.69886	0.11868
1033.77018	0.11899
1031.84151	0.11934
1029.91283	0.11967
1027.98415	0.12002
1026.05548	0.12043
1024.12680	0.12096
1022.19813	0.12164
1020.26945	0.12242
1018.34078	0.12331
1016.41210	0.12433
1014.48342	0.12536
1012.55475	0.12634
1010.62607	0.12744
1008.69740	0.12869
1006.76872	0.12997
1004.84005	0.13113
1002.91137	0.13214
1000.98269	0.13309
999.05402	0.13401
997.12534	0.13489
995.19667	0.13569
993.26799	0.13643
991.33932	0.13712
989.41064	0.13775
987.48196	0.13832
985.55329	0.13885
983.62461	0.13936
981.69594	0.13988
979.76726	0.14029
977.83859	0.14054
975.90991	0.14077
973.98123	0.14105
972.05256	0.14127
970.12388	0.14144
968.19521	0.14163
966.26653	0.14180
964.33786	0.14189
962.40918	0.14191
960.48050	0.14196
958.55183	0.14204
956.62315	0.14208
954.69448	0.14204
952.76580	0.14194
950.83713	0.14186
948.90845	0.14183
946.97977	0.14174
945.05110	0.14153
943.12242	0.14124
941.19375	0.14095
939.26507	0.14065
937.33640	0.14026
935.40772	0.13981
933.47904	0.13935
931.55037	0.13891
929.62169	0.13840
927.69302	0.13780
925.76434	0.13716
923.83567	0.13655
921.90699	0.13591
919.97831	0.13515
918.04964	0.13425
916.12096	0.13332
914.19229	0.13239
912.26361	0.13146
910.33494	0.13059
908.40626	0.12977
906.47758	0.12898
904.54891	0.12831
902.62023	0.12777
900.69156	0.12725
898.76288	0.12669
896.83421	0.12614
894.90553	0.12562
892.97685	0.12504
891.04818	0.12443
889.11950	0.12386
887.19083	0.12338
885.26215	0.12294
883.33348	0.12251
881.40480	0.12208
879.47612	0.12159
877.54745	0.12113
875.61877	0.12078
873.69010	0.12048
871.76142	0.12012
869.83275	0.11965
867.90407	0.11910
865.97539	0.11861
864.04672	0.11832
862.11804	0.11807
860.18937	0.11769
858.26069	0.11725
856.33202	0.11676
854.40334	0.11611
852.47466	0.11528
850.54599	0.11427
848.61731	0.11319
846.68864	0.11212
844.75996	0.11111
842.83129	0.11026
840.90261	0.10971
838.97394	0.10942
837.04526	0.10920
835.11658	0.10896
833.18791	0.10871
831.25923	0.10842
829.33056	0.10801
827.40188	0.10747
825.47321	0.10682
823.54453	0.10604
821.61585	0.10521
819.68718	0.10449
817.75850	0.10390
815.82983	0.10333
813.90115	0.10273
811.97248	0.10215
810.04380	0.10155
808.11512	0.10089
806.18645	0.10025
804.25777	0.09965
802.32910	0.09910
800.40042	0.09859
798.47175	0.09803
796.54307	0.09746
794.61439	0.09710
792.68572	0.09703
790.75704	0.09717
788.82837	0.09736
786.89969	0.09749
784.97102	0.09758
783.04234	0.09764
781.11366	0.09762
779.18499	0.09756
777.25631	0.09757
775.32764	0.09759
773.39896	0.09752
771.47029	0.09739
769.54161	0.09723
767.61293	0.09706
765.68426	0.09688
763.75558	0.09667
761.82691	0.09641
759.89823	0.09616
757.96956	0.09590
756.04088	0.09557
754.11220	0.09522
752.18353	0.09491
750.25485	0.09467
748.32618	0.09441
746.39750	0.09399
744.46883	0.09337
742.54015	0.09274
740.61147	0.09227
738.68280	0.09195
736.75412	0.09176
734.82545	0.09177
732.89677	0.09197
730.96810	0.09221
729.03942	0.09238
727.11074	0.09251
725.18207	0.09262
723.25339	0.09278
721.32472	0.09302
719.39604	0.09329
717.46737	0.09359
715.53869	0.09397
713.61001	0.09445
711.68134	0.09493
709.75266	0.09525
707.82399	0.09530
705.89531	0.09512
703.96664	0.09485
702.03796	0.09453
700.10928	0.09417
698.18061	0.09372
696.25193	0.09320
694.32326	0.09263
692.39458	0.09206
690.46591	0.09149
688.53723	0.09091
686.60855	0.09042
684.67988	0.09002
682.75120	0.08960
680.82253	0.08914
678.89385	0.08870
676.96518	0.08822
675.03650	0.08762
673.10782	0.08695
671.17915	0.08622
669.25047	0.08545
667.32180	0.08468
665.39312	0.08395
663.46445	0.08326
661.53577	0.08248
659.60709	0.08162
657.67842	0.08079
655.74974	0.08000
653.82107	0.07917
651.89239	0.07828
649.96372	0.07747
648.03504	0.07677
646.10636	0.07598
644.17769	0.07503
642.24901	0.07408
640.32034	0.07314
638.39166	0.07215
636.46299	0.07108
634.53431	0.06989
632.60563	0.06843
630.67696	0.06610
628.74828	0.06246
626.81961	0.05795
624.89093	0.05352
622.96226	0.05010
621.03358	0.04793
619.10490	0.04661
617.17623	0.04573
615.24755	0.04491
613.31888	0.04387
611.39020	0.04285
609.46153	0.04238
607.53285	0.04252
605.60417	0.04298
603.67550	0.04357
601.74682	0.04433
599.81815	0.04522
597.88947	0.04604
595.96080	0.04663
594.03212	0.04706
592.10344	0.04744
590.17477	0.04775
588.24609	0.04790
586.31742	0.04780
584.38874	0.04751
582.46007	0.04714
580.53139	0.04673
578.60271	0.04626
576.67404	0.04571
574.74536	0.04504
572.81669	0.04434
570.88801	0.04368
568.95934	0.04313
567.03066	0.04267
565.10198	0.04222
563.17331	0.04182
561.24463	0.04158
559.31596	0.04143
557.38728	0.04123
555.45861	0.04100
553.52993	0.04079
551.60125	0.04060
549.67258	0.04040
547.74390	0.04023
545.81523	0.04006
543.88655	0.03989
541.95788	0.03973
540.02920	0.03959
538.10052	0.03942
536.17185	0.03923
534.24317	0.03906
532.31450	0.03889
530.38582	0.03866
528.45715	0.03835
526.52847	0.03802
524.59979	0.03772
522.67112	0.03734
520.74244	0.03677
518.81377	0.03615
516.88509	0.03562
514.95642	0.03515
513.02774	0.03471
511.09906	0.03441
509.17039	0.03421
507.24171	0.03397
505.31304	0.03366
503.38436	0.03337
501.45569	0.03308
499.52701	0.03264
497.59833	0.03204
495.66966	0.03146
493.74098	0.03100
491.81231	0.03053
489.88363	0.02991
487.95496	0.02923
486.02628	0.02863
484.09760	0.02810
482.16893	0.02756
480.24025	0.02704
478.31158	0.02653
476.38290	0.02593
474.45423	0.02528
472.52555	0.02468
470.59687	0.02417
468.66820	0.02377
466.73952	0.02347
464.81085	0.02320
462.88217	0.02296
460.95350	0.02280
459.02482	0.02273
457.09614	0.02268
455.16747	0.02262
453.23879	0.02251
451.31012	0.02240
449.38144	0.02237
447.45277	0.02235
445.52409	0.02221
443.59541	0.02198
441.66674	0.02167
439.73806	0.02130
437.80939	0.02100
435.88071	0.02065
433.95204	0.02001
432.02336	0.01923
430.09468	0.01862
428.16601	0.01815
426.23733	0.01764
424.30866	0.01706
422.37998	0.01644
420.45131	0.01578
418.52263	0.01512
416.59395	0.01445
414.66528	0.01382
412.73660	0.01329
410.80793	0.01274
408.87925	0.01203
406.95058	0.01126
405.02190	0.01058
403.09322	0.00997
401.16455	0.00936
399.23587	0.00880
397.30720	0.00832
395.37852	0.00783
393.44985	0.00727
391.52117	0.00673
389.59249	0.00630
387.66382	0.00597
385.73514	0.00565
383.80647	0.00529
381.87779	0.00482
379.94912	0.00429
378.02044	0.00384
376.09176	0.00355
374.16309	0.00338
372.23441	0.00320
370.30574	0.00291
368.37706	0.00258
