7496.76250	0.00147
7494.83382	0.00146
7492.90514	0.00147
7490.97647	0.00147
7489.04779	0.00146
7487.11912	0.00145
7485.19044	0.00146
7483.26177	0.00147
7481.33309	0.00149
7479.40441	0.00149
7477.47574	0.00149
7475.54706	0.00149
7473.61839	0.00149
7471.68971	0.00149
7469.76104	0.00150
7467.83236	0.00151
7465.90368	0.00151
7463.97501	0.00151
7462.04633	0.00152
7460.11766	0.00151
7458.18898	0.00151
7456.26031	0.00151
7454.33163	0.00152
7452.40295	0.00152
7450.47428	0.00152
7448.54560	0.00154
7446.61693	0.00156
7444.68825	0.00157
7442.75958	0.00156
7440.83090	0.00156
7438.90222	0.00157
7436.97355	0.00158
7435.04487	0.00159
7433.11620	0.00159
7431.18752	0.00159
7429.25885	0.00159
7427.33017	0.00158
7425.40149	0.00159
7423.47282	0.00159
7421.54414	0.00160
7419.61547	0.00161
7417.68679	0.00162
7415.75812	0.00162
7413.82944	0.00164
7411.90076	0.00164
7409.97209	0.00162
7408.04341	0.00161
7406.11474	0.00162
7404.18606	0.00162
7402.25739	0.00163
7400.32871	0.00164
7398.40003	0.00166
7396.47136	0.00167
7394.54268	0.00169
7392.61401	0.00170
7390.68533	0.00171
7388.75666	0.00170
7386.82798	0.00169
7384.89930	0.00170
7382.97063	0.00170
7381.04195	0.00170
7379.11328	0.00170
7377.18460	0.00169
7375.25593	0.00170
7373.32725	0.00171
7371.39857	0.00173
7369.46990	0.00174
7367.54122	0.00174
7365.61255	0.00174
7363.68387	0.00175
7361.75520	0.00174
7359.82652	0.00173
7357.89784	0.00174
7355.96917	0.00175
7354.04049	0.00177
7352.11182	0.00178
7350.18314	0.00179
7348.25447	0.00179
7346.32579	0.00178
7344.39711	0.00177
7342.46844	0.00179
7340.53976	0.00181
7338.61109	0.00182
7336.68241	0.00181
7334.75374	0.00181
7332.82506	0.00181
7330.89638	0.00182
7328.96771	0.00184
7327.03903	0.00184
7325.11036	0.00183
7323.18168	0.00182
7321.25301	0.00182
7319.32433	0.00183
7317.39565	0.00185
7315.46698	0.00187
7313.53830	0.00189
7311.60963	0.00189
7309.68095	0.00189
7307.75228	0.00189
7305.82360	0.00188
7303.89492	0.00188
7301.96625	0.00188
7300.03757	0.00188
7298.10890	0.00189
7296.18022	0.00189
7294.25155	0.00188
7292.32287	0.00189
7290.39419	0.00189
7288.46552	0.00190
7286.53684	0.00191
7284.60817	0.00192
7282.67949	0.00193
7280.75082	0.00194
7278.82214	0.00195
7276.89346	0.00197
7274.96479	0.00197
7273.03611	0.00196
7271.10744	0.00195
7269.17876	0.00196
7267.25009	0.00196
7265.32141	0.00196
7263.39273	0.00197
7261.46406	0.00197
7259.53538	0.00200
7257.60671	0.00201
7255.67803	0.00202
7253.74936	0.00201
7251.82068	0.00201
7249.89200	0.00201
7247.96333	0.00201
7246.03465	0.00203
7244.10598	0.00204
7242.17730	0.00203
7240.24863	0.00202
7238.31995	0.00203
7236.39127	0.00204
7234.46260	0.00204
7232.53392	0.00204
7230.60525	0.00205
7228.67657	0.00204
7226.74790	0.00204
7224.81922	0.00206
7222.89054	0.00208
7220.96187	0.00209
7219.03319	0.00210
7217.10452	0.00210
7215.17584	0.00210
7213.24717	0.00210
7211.31849	0.00211
7209.38981	0.00212
7207.46114	0.00212
7205.53246	0.00212
7203.60379	0.00212
7201.67511	0.00213
7199.74644	0.00215
7197.81776	0.00215
7195.88908	0.00214
7193.96041	0.00213
7192.03173	0.00214
7190.10306	0.00214
7188.17438	0.00216
7186.24571	0.00218
7184.31703	0.00218
7182.38835	0.00218
7180.45968	0.00218
7178.53100	0.00219
7176.60233	0.00220
7174.67365	0.00220
7172.74498	0.00221
7170.81630	0.00221
7168.88762	0.00220
7166.95895	0.00220
7165.03027	0.00220
7163.10160	0.00221
7161.17292	0.00221
7159.24425	0.00222
7157.31557	0.00224
7155.38689	0.00225
7153.45822	0.00226
7151.52954	0.00226
7149.60087	0.00227
7147.67219	0.00227
7145.74352	0.00229
7143.81484	0.00232
7141.88616	0.00234
7139.95749	0.00233
7138.02881	0.00232
7136.10014	0.00231
7134.17146	0.00231
7132.24279	0.00232
7130.31411	0.00233
7128.38543	0.00235
7126.45676	0.00236
7124.52808	0.00235
7122.59941	0.00234
7120.67073	0.00235
7118.74206	0.00236
7116.81338	0.00237
7114.88470	0.00237
7112.95603	0.00237
7111.02735	0.00239
7109.09868	0.00241
7107.17000	0.00242
7105.24133	0.00241
7103.31265	0.00240
7101.38397	0.00239
7099.45530	0.00239
7097.52662	0.00238
7095.59795	0.00239
7093.66927	0.00242
7091.74060	0.00244
7089.81192	0.00244
7087.88324	0.00244
7085.95457	0.00244
7084.02589	0.00245
7082.09722	0.00247
7080.16854	0.00248
7078.23987	0.00249
7076.31119	0.00250
7074.38251	0.00250
7072.45384	0.00250
7070.52516	0.00250
7068.59649	0.00250
7066.66781	0.00251
7064.73914	0.00251
7062.81046	0.00252
7060.88178	0.00253
7058.95311	0.00254
7057.02443	0.00255
7055.09576	0.00255
7053.16708	0.00256
7051.23841	0.00256
7049.30973	0.00256
7047.38105	0.00257
7045.45238	0.00257
7043.52370	0.00258
7041.59503	0.00259
7039.66635	0.00258
7037.73768	0.00258
7035.80900	0.00259
7033.88032	0.00260
7031.95165	0.00260
7030.02297	0.00260
7028.09430	0.00261
7026.16562	0.00263
7024.23695	0.00264
7022.30827	0.00264
7020.37959	0.00263
7018.45092	0.00262
7016.52224	0.00263
7014.59357	0.00265
7012.66489	0.00267
7010.73622	0.00268
7008.80754	0.00268
7006.87886	0.00268
7004.95019	0.00269
7003.02151	0.00269
7001.09284	0.00269
6999.16416	0.00269
6997.23549	0.00270
6995.30681	0.00270
6993.37813	0.00270
6991.44946	0.00270
6989.52078	0.00271
6987.59211	0.00273
6985.66343	0.00274
6983.73476	0.00275
6981.80608	0.00277
6979.87740	0.00278
6977.94873	0.00279
6976.02005	0.00280
6974.09138	0.00280
6972.16270	0.00280
6970.23403	0.00279
6968.30535	0.00280
6966.37667	0.00282
6964.44800	0.00284
6962.51932	0.00284
6960.59065	0.00283
6958.66197	0.00284
6956.73330	0.00286
6954.80462	0.00287
6952.87594	0.00286
6950.94727	0.00285
6949.01859	0.00285
6947.08992	0.00286
6945.16124	0.00287
6943.23257	0.00288
6941.30389	0.00289
6939.37521	0.00290
6937.44654	0.00291
6935.51786	0.00291
6933.58919	0.00292
6931.66051	0.00293
6929.73184	0.00294
6927.80316	0.00294
6925.87448	0.00293
6923.94581	0.00292
6922.01713	0.00294
6920.08846	0.00296
6918.15978	0.00298
6916.23111	0.00299
6914.30243	0.00299
6912.37375	0.00299
6910.44508	0.00298
6908.51640	0.00298
6906.58773	0.00298
6904.65905	0.00298
6902.73038	0.00300
6900.80170	0.00302
6898.87302	0.00303
6896.94435	0.00304
6895.01567	0.00303
6893.08700	0.00303
6891.15832	0.00304
6889.22965	0.00305
6887.30097	0.00305
6885.37229	0.00306
6883.44362	0.00307
6881.51494	0.00307
6879.58627	0.00309
6877.65759	0.00310
6875.72892	0.00311
6873.80024	0.00310
6871.87156	0.00310
6869.94289	0.00311
6868.01421	0.00312
6866.08554	0.00314
6864.15686	0.00315
6862.22819	0.00317
6860.29951	0.00319
6858.37083	0.00320
6856.44216	0.00319
6854.51348	0.00319
6852.58481	0.00319
6850.65613	0.00319
6848.72746	0.00320
6846.79878	0.00320
6844.87010	0.00321
6842.94143	0.00322
6841.01275	0.00323
6839.08408	0.00324
6837.15540	0.00324
6835.22673	0.00325
6833.29805	0.00327
6831.36937	0.00329
6829.44070	0.00330
6827.51202	0.00331
6825.58335	0.00331
6823.65467	0.00331
6821.72600	0.00330
6819.79732	0.00331
6817.86864	0.00330
6815.93997	0.00329
6814.01129	0.00330
6812.08262	0.00332
6810.15394	0.00333
6808.22527	0.00335
6806.29659	0.00336
6804.36791	0.00336
6802.43924	0.00336
6800.51056	0.00337
6798.58189	0.00338
6796.65321	0.00339
6794.72454	0.00340
6792.79586	0.00339
6790.86718	0.00339
6788.93851	0.00341
6787.00983	0.00344
6785.08116	0.00344
6783.15248	0.00343
6781.22381	0.00342
6779.29513	0.00343
6777.36645	0.00344
6775.43778	0.00347
6773.50910	0.00351
6771.58043	0.00353
6769.65175	0.00355
6767.72308	0.00356
6765.79440	0.00355
6763.86572	0.00353
6761.93705	0.00352
6760.00837	0.00353
6758.07970	0.00355
6756.15102	0.00356
6754.22235	0.00356
6752.29367	0.00356
6750.36499	0.00356
6748.43632	0.00357
6746.50764	0.00358
6744.57897	0.00360
6742.65029	0.00362
6740.72162	0.00362
6738.79294	0.00361
6736.86426	0.00360
6734.93559	0.00360
6733.00691	0.00362
6731.07824	0.00363
6729.14956	0.00363
6727.22089	0.00363
6725.29221	0.00365
6723.36353	0.00367
6721.43486	0.00368
6719.50618	0.00369
6717.57751	0.00368
6715.64883	0.00369
6713.72016	0.00370
6711.79148	0.00372
6709.86280	0.00373
6707.93413	0.00374
6706.00545	0.00374
6704.07678	0.00375
6702.14810	0.00377
6700.21943	0.00377
6698.29075	0.00378
6696.36207	0.00378
6694.43340	0.00377
6692.50472	0.00379
6690.57605	0.00381
6688.64737	0.00383
6686.71870	0.00385
6684.79002	0.00385
6682.86134	0.00386
6680.93267	0.00387
6679.00399	0.00387
6677.07532	0.00387
6675.14664	0.00387
6673.21797	0.00387
6671.28929	0.00388
6669.36061	0.00390
6667.43194	0.00393
6665.50326	0.00394
6663.57459	0.00395
6661.64591	0.00396
6659.71724	0.00396
6657.78856	0.00397
6655.85988	0.00398
6653.93121	0.00398
6652.00253	0.00398
6650.07386	0.00398
6648.14518	0.00399
6646.21651	0.00399
6644.28783	0.00400
6642.35915	0.00401
6640.43048	0.00401
6638.50180	0.00402
6636.57313	0.00404
6634.64445	0.00405
6632.71578	0.00406
6630.78710	0.00407
6628.85842	0.00408
6626.92975	0.00411
6625.00107	0.00412
6623.07240	0.00412
6621.14372	0.00412
6619.21505	0.00413
6617.28637	0.00414
6615.35769	0.00415
6613.42902	0.00415
6611.50034	0.00416
6609.57167	0.00417
6607.64299	0.00417
6605.71432	0.00418
6603.78564	0.00418
6601.85696	0.00419
6599.92829	0.00418
6597.99961	0.00418
6596.07094	0.00419
6594.14226	0.00422
6592.21359	0.00425
6590.28491	0.00426
6588.35623	0.00425
6586.42756	0.00425
6584.49888	0.00427
6582.57021	0.00428
6580.64153	0.00430
6578.71286	0.00432
6576.78418	0.00434
6574.85550	0.00433
6572.92683	0.00432
6570.99815	0.00432
6569.06948	0.00433
6567.14080	0.00433
6565.21213	0.00434
6563.28345	0.00437
6561.35477	0.00439
6559.42610	0.00442
6557.49742	0.00443
6555.56875	0.00442
6553.64007	0.00441
6551.71140	0.00442
6549.78272	0.00445
6547.85404	0.00448
6545.92537	0.00449
6543.99669	0.00450
6542.06802	0.00449
6540.13934	0.00451
6538.21067	0.00452
6536.28199	0.00453
6534.35331	0.00453
6532.42464	0.00453
6530.49596	0.00453
6528.56729	0.00455
6526.63861	0.00456
6524.70994	0.00456
6522.78126	0.00458
6520.85258	0.00460
6518.92391	0.00461
6516.99523	0.00462
6515.06656	0.00462
6513.13788	0.00464
6511.20921	0.00465
6509.28053	0.00465
6507.35185	0.00465
6505.42318	0.00466
6503.49450	0.00467
6501.56583	0.00469
6499.63715	0.00469
6497.70848	0.00469
6495.77980	0.00470
6493.85112	0.00472
6491.92245	0.00475
6489.99377	0.00477
6488.06510	0.00477
6486.13642	0.00476
6484.20775	0.00475
6482.27907	0.00476
6480.35039	0.00478
6478.42172	0.00481
6476.49304	0.00482
6474.56437	0.00482
6472.63569	0.00482
6470.70702	0.00483
6468.77834	0.00484
6466.84966	0.00486
6464.92099	0.00487
6462.99231	0.00489
6461.06364	0.00492
6459.13496	0.00494
6457.20629	0.00494
6455.27761	0.00495
6453.34893	0.00497
6451.42026	0.00497
6449.49158	0.00498
6447.56291	0.00499
6445.63423	0.00499
6443.70556	0.00499
6441.77688	0.00499
6439.84820	0.00501
6437.91953	0.00502
6435.99085	0.00504
6434.06218	0.00505
6432.13350	0.00506
6430.20483	0.00507
6428.27615	0.00507
6426.34747	0.00508
6424.41880	0.00509
6422.49012	0.00511
6420.56145	0.00511
6418.63277	0.00512
6416.70410	0.00514
6414.77542	0.00515
6412.84674	0.00514
6410.91807	0.00515
6408.98939	0.00518
6407.06072	0.00520
6405.13204	0.00519
6403.20337	0.00519
6401.27469	0.00521
6399.34601	0.00525
6397.41734	0.00527
6395.48866	0.00527
6393.55999	0.00527
6391.63131	0.00528
6389.70264	0.00530
6387.77396	0.00533
6385.84528	0.00533
6383.91661	0.00531
6381.98793	0.00530
6380.05926	0.00532
6378.13058	0.00534
6376.20191	0.00538
6374.27323	0.00540
6372.34455	0.00540
6370.41588	0.00541
6368.48720	0.00543
6366.55853	0.00546
6364.62985	0.00547
6362.70118	0.00547
6360.77250	0.00548
6358.84382	0.00549
6356.91515	0.00551
6354.98647	0.00551
6353.05780	0.00551
6351.12912	0.00553
6349.20045	0.00556
6347.27177	0.00558
6345.34309	0.00558
6343.41442	0.00558
6341.48574	0.00558
6339.55707	0.00559
6337.62839	0.00559
6335.69972	0.00560
6333.77104	0.00564
6331.84236	0.00567
6329.91369	0.00567
6327.98501	0.00566
6326.05634	0.00566
6324.12766	0.00567
6322.19899	0.00569
6320.27031	0.00572
6318.34163	0.00573
6316.41296	0.00575
6314.48428	0.00579
6312.55561	0.00581
6310.62693	0.00581
6308.69826	0.00579
6306.76958	0.00578
6304.84090	0.00579
6302.91223	0.00582
6300.98355	0.00585
6299.05488	0.00587
6297.12620	0.00588
6295.19753	0.00588
6293.26885	0.00589
6291.34017	0.00590
6289.41150	0.00593
6287.48282	0.00595
6285.55415	0.00597
6283.62547	0.00599
6281.69680	0.00600
6279.76812	0.00599
6277.83944	0.00599
6275.91077	0.00601
6273.98209	0.00602
6272.05342	0.00602
6270.12474	0.00602
6268.19607	0.00603
6266.26739	0.00604
6264.33871	0.00605
6262.41004	0.00606
6260.48136	0.00609
6258.55269	0.00612
6256.62401	0.00614
6254.69534	0.00616
6252.76666	0.00616
6250.83798	0.00616
6248.90931	0.00616
6246.98063	0.00617
6245.05196	0.00620
6243.12328	0.00623
6241.19461	0.00625
6239.26593	0.00626
6237.33725	0.00628
6235.40858	0.00630
6233.47990	0.00630
6231.55123	0.00630
6229.62255	0.00630
6227.69388	0.00631
6225.76520	0.00632
6223.83652	0.00634
6221.90785	0.00635
6219.97917	0.00636
6218.05050	0.00637
6216.12182	0.00639
6214.19315	0.00641
6212.26447	0.00643
6210.33579	0.00646
6208.40712	0.00648
6206.47844	0.00647
6204.54977	0.00646
6202.62109	0.00647
6200.69242	0.00649
6198.76374	0.00652
6196.83506	0.00654
6194.90639	0.00657
6192.97771	0.00657
6191.04904	0.00656
6189.12036	0.00656
6187.19169	0.00658
6185.26301	0.00662
6183.33433	0.00665
6181.40566	0.00666
6179.47698	0.00665
6177.54831	0.00666
6175.61963	0.00669
6173.69096	0.00670
6171.76228	0.00670
6169.83360	0.00670
6167.90493	0.00672
6165.97625	0.00674
6164.04758	0.00677
6162.11890	0.00680
6160.19023	0.00682
6158.26155	0.00684
6156.33287	0.00685
6154.40420	0.00685
6152.47552	0.00687
6150.54685	0.00688
6148.61817	0.00688
6146.68950	0.00689
6144.76082	0.00692
6142.83214	0.00694
6140.90347	0.00696
6138.97479	0.00696
6137.04612	0.00697
6135.11744	0.00698
6133.18877	0.00699
6131.26009	0.00701
6129.33141	0.00703
6127.40274	0.00706
6125.47406	0.00708
6123.54539	0.00709
6121.61671	0.00712
6119.68804	0.00714
6117.75936	0.00715
6115.83068	0.00714
6113.90201	0.00715
6111.97333	0.00716
6110.04466	0.00717
6108.11598	0.00719
6106.18731	0.00722
6104.25863	0.00724
6102.32995	0.00725
6100.40128	0.00727
6098.47260	0.00730
6096.54393	0.00731
6094.61525	0.00732
6092.68658	0.00734
6090.75790	0.00736
6088.82922	0.00737
6086.90055	0.00737
6084.97187	0.00738
6083.04320	0.00739
6081.11452	0.00741
6079.18585	0.00742
6077.25717	0.00743
6075.32849	0.00745
6073.39982	0.00746
6071.47114	0.00747
6069.54247	0.00748
6067.61379	0.00750
6065.68512	0.00753
6063.75644	0.00756
6061.82776	0.00758
6059.89909	0.00759
6057.97041	0.00760
6056.04174	0.00762
6054.11306	0.00763
6052.18439	0.00764
6050.25571	0.00765
6048.32703	0.00766
6046.39836	0.00767
6044.46968	0.00769
6042.54101	0.00771
6040.61233	0.00774
6038.68366	0.00777
6036.75498	0.00779
6034.82630	0.00780
6032.89763	0.00780
6030.96895	0.00782
6029.04028	0.00784
6027.11160	0.00786
6025.18293	0.00787
6023.25425	0.00789
6021.32557	0.00791
6019.39690	0.00792
6017.46822	0.00794
6015.53955	0.00795
6013.61087	0.00794
6011.68220	0.00794
6009.75352	0.00796
6007.82484	0.00799
6005.89617	0.00801
6003.96749	0.00803
6002.03882	0.00806
6000.11014	0.00808
5998.18147	0.00810
5996.25279	0.00811
5994.32411	0.00814
5992.39544	0.00817
5990.46676	0.00820
5988.53809	0.00822
5986.60941	0.00822
5984.68074	0.00821
5982.75206	0.00823
5980.82338	0.00825
5978.89471	0.00828
5976.96603	0.00829
5975.03736	0.00830
5973.10868	0.00830
5971.18001	0.00831
5969.25133	0.00833
5967.32265	0.00835
5965.39398	0.00835
5963.46530	0.00837
5961.53663	0.00841
5959.60795	0.00846
5957.67928	0.00848
5955.75060	0.00848
5953.82192	0.00849
5951.89325	0.00850
5949.96457	0.00852
5948.03590	0.00854
5946.10722	0.00856
5944.17855	0.00857
5942.24987	0.00858
5940.32119	0.00860
5938.39252	0.00863
5936.46384	0.00866
5934.53517	0.00866
5932.60649	0.00867
5930.67782	0.00868
5928.74914	0.00870
5926.82046	0.00872
5924.89179	0.00874
5922.96311	0.00876
5921.03444	0.00878
5919.10576	0.00880
5917.17709	0.00881
5915.24841	0.00884
5913.31973	0.00888
5911.39106	0.00889
5909.46238	0.00890
5907.53371	0.00891
5905.60503	0.00894
5903.67636	0.00895
5901.74768	0.00896
5899.81900	0.00898
5897.89033	0.00901
5895.96165	0.00901
5894.03298	0.00900
5892.10430	0.00903
5890.17563	0.00907
5888.24695	0.00910
5886.31827	0.00913
5884.38960	0.00916
5882.46092	0.00917
5880.53225	0.00918
5878.60357	0.00920
5876.67490	0.00923
5874.74622	0.00925
5872.81755	0.00926
5870.88887	0.00928
5868.96019	0.00930
5867.03152	0.00932
5865.10284	0.00932
5863.17417	0.00933
5861.24549	0.00936
5859.31682	0.00939
5857.38814	0.00941
5855.45946	0.00942
5853.53079	0.00943
5851.60211	0.00946
5849.67344	0.00949
5847.74476	0.00950
5845.81609	0.00952
5843.88741	0.00955
5841.95873	0.00958
5840.03006	0.00959
5838.10138	0.00961
5836.17271	0.00964
5834.24403	0.00967
5832.31536	0.00968
5830.38668	0.00969
5828.45800	0.00970
5826.52933	0.00973
5824.60065	0.00976
5822.67198	0.00978
5820.74330	0.00980
5818.81463	0.00983
5816.88595	0.00984
5814.95727	0.00986
5813.02860	0.00987
5811.09992	0.00989
5809.17125	0.00991
5807.24257	0.00993
5805.31390	0.00994
5803.38522	0.00996
5801.45654	0.00998
5799.52787	0.01001
5797.59919	0.01004
5795.67052	0.01006
5793.74184	0.01006
5791.81317	0.01007
5789.88449	0.01009
5787.95581	0.01012
5786.02714	0.01015
5784.09846	0.01016
5782.16979	0.01016
5780.24111	0.01019
5778.31244	0.01022
5776.38376	0.01026
5774.45508	0.01027
5772.52641	0.01028
5770.59773	0.01030
5768.66906	0.01034
5766.74038	0.01035
5764.81171	0.01035
5762.88303	0.01036
5760.95435	0.01039
5759.02568	0.01042
5757.09700	0.01045
5755.16833	0.01048
5753.23965	0.01050
5751.31098	0.01051
5749.38230	0.01052
5747.45362	0.01054
5745.52495	0.01056
5743.59627	0.01058
5741.66760	0.01061
5739.73892	0.01063
5737.81025	0.01064
5735.88157	0.01066
5733.95289	0.01067
5732.02422	0.01068
5730.09554	0.01070
5728.16687	0.01072
5726.23819	0.01075
5724.30952	0.01077
5722.38084	0.01081
5720.45216	0.01085
5718.52349	0.01088
5716.59481	0.01090
5714.66614	0.01092
5712.73746	0.01095
5710.80879	0.01097
5708.88011	0.01098
5706.95143	0.01098
5705.02276	0.01100
5703.09408	0.01105
5701.16541	0.01109
5699.23673	0.01111
5697.30806	0.01112
5695.37938	0.01113
5693.45070	0.01115
5691.52203	0.01117
5689.59335	0.01119
5687.66468	0.01121
5685.73600	0.01124
5683.80733	0.01127
5681.87865	0.01129
5679.94997	0.01130
5678.02130	0.01131
5676.09262	0.01132
5674.16395	0.01135
5672.23527	0.01138
5670.30660	0.01141
5668.37792	0.01143
5666.44924	0.01144
5664.52057	0.01144
5662.59189	0.01146
5660.66322	0.01150
5658.73454	0.01155
5656.80587	0.01158
5654.87719	0.01160
5652.94851	0.01162
5651.01984	0.01164
5649.09116	0.01165
5647.16249	0.01165
5645.23381	0.01166
5643.30514	0.01170
5641.37646	0.01174
5639.44778	0.01179
5637.51911	0.01182
5635.59043	0.01183
5633.66176	0.01185
5631.73308	0.01186
5629.80441	0.01187
5627.87573	0.01189
5625.94705	0.01192
5624.01838	0.01195
5622.08970	0.01198
5620.16103	0.01201
5618.23235	0.01203
5616.30368	0.01203
5614.37500	0.01205
5612.44632	0.01209
5610.51765	0.01212
5608.58897	0.01213
5606.66030	0.01215
5604.73162	0.01218
5602.80295	0.01220
5600.87427	0.01222
5598.94559	0.01226
5597.01692	0.01230
5595.08824	0.01231
5593.15957	0.01231
5591.23089	0.01232
5589.30222	0.01236
5587.37354	0.01241
5585.44486	0.01246
5583.51619	0.01249
5581.58751	0.01249
5579.65884	0.01249
5577.73016	0.01250
5575.80149	0.01253
5573.87281	0.01255
5571.94413	0.01257
5570.01546	0.01260
5568.08678	0.01263
5566.15811	0.01265
5564.22943	0.01267
5562.30076	0.01271
5560.37208	0.01275
5558.44340	0.01278
5556.51473	0.01280
5554.58605	0.01281
5552.65738	0.01284
5550.72870	0.01287
5548.80003	0.01289
5546.87135	0.01290
5544.94267	0.01290
5543.01400	0.01293
5541.08532	0.01296
5539.15665	0.01299
5537.22797	0.01301
5535.29930	0.01303
5533.37062	0.01307
5531.44194	0.01310
5529.51327	0.01314
5527.58459	0.01317
5525.65592	0.01318
5523.72724	0.01319
5521.79857	0.01323
5519.86989	0.01327
5517.94121	0.01331
5516.01254	0.01333
5514.08386	0.01333
5512.15519	0.01333
5510.22651	0.01335
5508.29784	0.01337
5506.36916	0.01339
5504.44048	0.01342
5502.51181	0.01345
5500.58313	0.01347
5498.65446	0.01350
5496.72578	0.01354
5494.79711	0.01358
5492.86843	0.01361
5490.93975	0.01363
5489.01108	0.01364
5487.08240	0.01364
5485.15373	0.01366
5483.22505	0.01370
5481.29638	0.01374
5479.36770	0.01376
5477.43902	0.01377
5475.51035	0.01379
5473.58167	0.01381
5471.65300	0.01385
5469.72432	0.01389
5467.79565	0.01392
5465.86697	0.01394
5463.93829	0.01396
5462.00962	0.01398
5460.08094	0.01402
5458.15227	0.01405
5456.22359	0.01407
5454.29492	0.01409
5452.36624	0.01413
5450.43756	0.01415
5448.50889	0.01417
5446.58021	0.01418
5444.65154	0.01420
5442.72286	0.01422
5440.79419	0.01426
5438.86551	0.01430
5436.93683	0.01431
5435.00816	0.01432
5433.07948	0.01433
5431.15081	0.01436
5429.22213	0.01439
5427.29346	0.01442
5425.36478	0.01447
5423.43610	0.01453
5421.50743	0.01458
5419.57875	0.01461
5417.65008	0.01462
5415.72140	0.01463
5413.79273	0.01463
5411.86405	0.01465
5409.93537	0.01467
5408.00670	0.01470
5406.07802	0.01474
5404.14935	0.01477
5402.22067	0.01479
5400.29200	0.01483
5398.36332	0.01486
5396.43464	0.01489
5394.50597	0.01490
5392.57729	0.01492
5390.64862	0.01496
5388.71994	0.01500
5386.79127	0.01504
5384.86259	0.01506
5382.93391	0.01509
5381.00524	0.01513
5379.07656	0.01516
5377.14789	0.01517
5375.21921	0.01517
5373.29054	0.01519
5371.36186	0.01523
5369.43318	0.01528
5367.50451	0.01532
5365.57583	0.01535
5363.64716	0.01537
5361.71848	0.01539
5359.78981	0.01541
5357.86113	0.01543
5355.93245	0.01546
5354.00378	0.01548
5352.07510	0.01550
5350.14643	0.01551
5348.21775	0.01552
5346.28908	0.01556
5344.36040	0.01560
5342.43172	0.01564
5340.50305	0.01566
5338.57437	0.01568
5336.64570	0.01572
5334.71702	0.01575
5332.78835	0.01576
5330.85967	0.01578
5328.93099	0.01583
5327.00232	0.01588
5325.07364	0.01592
5323.14497	0.01596
5321.21629	0.01598
5319.28762	0.01600
5317.35894	0.01602
5315.43026	0.01603
5313.50159	0.01605
5311.57291	0.01608
5309.64424	0.01609
5307.71556	0.01610
5305.78689	0.01613
5303.85821	0.01619
5301.92953	0.01624
5300.00086	0.01627
5298.07218	0.01630
5296.14351	0.01633
5294.21483	0.01635
5292.28616	0.01636
5290.35748	0.01637
5288.42880	0.01638
5286.50013	0.01641
5284.57145	0.01645
5282.64278	0.01648
5280.71410	0.01650
5278.78543	0.01654
5276.85675	0.01659
5274.92807	0.01663
5272.99940	0.01667
5271.07072	0.01669
5269.14205	0.01670
5267.21337	0.01672
5265.28470	0.01675
5263.35602	0.01677
5261.42734	0.01680
5259.49867	0.01684
5257.56999	0.01687
5255.64132	0.01688
5253.71264	0.01690
5251.78397	0.01695
5249.85529	0.01700
5247.92661	0.01701
5245.99794	0.01702
5244.06926	0.01707
5242.14059	0.01712
5240.21191	0.01715
5238.28324	0.01717
5236.35456	0.01718
5234.42588	0.01720
5232.49721	0.01723
5230.56853	0.01728
5228.63986	0.01732
5226.71118	0.01736
5224.78251	0.01738
5222.85383	0.01740
5220.92515	0.01742
5218.99648	0.01744
5217.06780	0.01747
5215.13913	0.01751
5213.21045	0.01755
5211.28178	0.01755
5209.35310	0.01754
5207.42442	0.01758
5205.49575	0.01764
5203.56707	0.01770
5201.63840	0.01774
5199.70972	0.01778
5197.78105	0.01781
5195.85237	0.01782
5193.92369	0.01783
5191.99502	0.01786
5190.06634	0.01789
5188.13767	0.01793
5186.20899	0.01797
5184.28032	0.01799
5182.35164	0.01801
5180.42296	0.01804
5178.49429	0.01807
5176.56561	0.01809
5174.63694	0.01810
5172.70826	0.01812
5170.77959	0.01815
5168.85091	0.01819
5166.92223	0.01824
5164.99356	0.01827
5163.06488	0.01830
5161.13621	0.01832
5159.20753	0.01836
5157.27886	0.01840
5155.35018	0.01842
5153.42150	0.01843
5151.49283	0.01847
5149.56415	0.01853
5147.63548	0.01857
5145.70680	0.01859
5143.77813	0.01861
5141.84945	0.01865
5139.92077	0.01869
5137.99210	0.01871
5136.06342	0.01872
5134.13475	0.01875
5132.20607	0.01878
5130.27740	0.01882
5128.34872	0.01885
5126.42004	0.01889
5124.49137	0.01893
5122.56269	0.01896
5120.63402	0.01898
5118.70534	0.01899
5116.77667	0.01902
5114.84799	0.01906
5112.91931	0.01911
5110.99064	0.01914
5109.06196	0.01915
5107.13329	0.01917
5105.20461	0.01921
5103.27594	0.01924
5101.34726	0.01928
5099.41858	0.01932
5097.48991	0.01937
5095.56123	0.01940
5093.63256	0.01942
5091.70388	0.01945
5089.77521	0.01948
5087.84653	0.01951
5085.91785	0.01953
5083.98918	0.01956
5082.06050	0.01961
5080.13183	0.01965
5078.20315	0.01967
5076.27448	0.01967
5074.34580	0.01968
5072.41712	0.01972
5070.48845	0.01977
5068.55977	0.01981
5066.63110	0.01984
5064.70242	0.01989
5062.77375	0.01993
5060.84507	0.01996
5058.91639	0.01998
5056.98772	0.02000
5055.05904	0.02004
5053.13037	0.02006
5051.20169	0.02007
5049.27302	0.02009
5047.34434	0.02014
5045.41566	0.02018
5043.48699	0.02021
5041.55831	0.02024
5039.62964	0.02027
5037.70096	0.02029
5035.77229	0.02032
5033.84361	0.02035
5031.91493	0.02039
5029.98626	0.02042
5028.05758	0.02044
5026.12891	0.02048
5024.20023	0.02052
5022.27156	0.02057
5020.34288	0.02061
5018.41420	0.02065
5016.48553	0.02069
5014.55685	0.02072
5012.62818	0.02074
5010.69950	0.02077
5008.77083	0.02079
5006.84215	0.02081
5004.91347	0.02085
5002.98480	0.02089
5001.05612	0.02093
4999.12745	0.02097
4997.19877	0.02100
4995.27010	0.02103
4993.34142	0.02106
4991.41274	0.02107
4989.48407	0.02107
4987.55539	0.02111
4985.62672	0.02116
4983.69804	0.02120
4981.76937	0.02124
4979.84069	0.02128
4977.91201	0.02130
4975.98334	0.02133
4974.05466	0.02138
4972.12599	0.02142
4970.19731	0.02145
4968.26864	0.02147
4966.33996	0.02150
4964.41128	0.02152
4962.48261	0.02154
4960.55393	0.02159
4958.62526	0.02163
4956.69658	0.02167
4954.76791	0.02171
4952.83923	0.02175
4950.91055	0.02178
4948.98188	0.02181
4947.05320	0.02184
4945.12453	0.02187
4943.19585	0.02190
4941.26718	0.02193
4939.33850	0.02198
4937.40982	0.02203
4935.48115	0.02208
4933.55247	0.02212
4931.62380	0.02214
4929.69512	0.02215
4927.76645	0.02219
4925.83777	0.02223
4923.90909	0.02226
4921.98042	0.02229
4920.05174	0.02234
4918.12307	0.02237
4916.19439	0.02238
4914.26572	0.02239
4912.33704	0.02241
4910.40836	0.02245
4908.47969	0.02249
4906.55101	0.02253
4904.62234	0.02258
4902.69366	0.02260
4900.76499	0.02262
4898.83631	0.02267
4896.90763	0.02272
4894.97896	0.02275
4893.05028	0.02277
4891.12161	0.02280
4889.19293	0.02284
4887.26426	0.02288
4885.33558	0.02291
4883.40690	0.02294
4881.47823	0.02297
4879.54955	0.02303
4877.62088	0.02309
4875.69220	0.02312
4873.76353	0.02314
4871.83485	0.02317
4869.90617	0.02320
4867.97750	0.02322
4866.04882	0.02323
4864.12015	0.02326
4862.19147	0.02331
4860.26280	0.02336
4858.33412	0.02338
4856.40544	0.02341
4854.47677	0.02348
4852.54809	0.02355
4850.61942	0.02358
4848.69074	0.02359
4846.76207	0.02361
4844.83339	0.02366
4842.90471	0.02369
4840.97604	0.02373
4839.04736	0.02379
4837.11869	0.02384
4835.19001	0.02387
4833.26134	0.02390
4831.33266	0.02393
4829.40398	0.02394
4827.47531	0.02396
4825.54663	0.02401
4823.61796	0.02406
4821.68928	0.02410
4819.76061	0.02414
4817.83193	0.02417
4815.90325	0.02421
4813.97458	0.02424
4812.04590	0.02429
4810.11723	0.02433
4808.18855	0.02435
4806.25988	0.02437
4804.33120	0.02439
4802.40252	0.02444
4800.47385	0.02450
4798.54517	0.02456
4796.61650	0.02461
4794.68782	0.02464
4792.75915	0.02467
4790.83047	0.02471
4788.90179	0.02474
4786.97312	0.02476
4785.04444	0.02477
4783.11577	0.02481
4781.18709	0.02485
4779.25842	0.02488
4777.32974	0.02492
4775.40106	0.02495
4773.47239	0.02497
4771.54371	0.02500
4769.61504	0.02507
4767.68636	0.02513
4765.75769	0.02519
4763.82901	0.02525
4761.90033	0.02529
4759.97166	0.02530
4758.04298	0.02529
4756.11431	0.02532
4754.18563	0.02536
4752.25696	0.02540
4750.32828	0.02545
4748.39960	0.02551
4746.47093	0.02556
4744.54225	0.02560
4742.61358	0.02563
4740.68490	0.02567
4738.75623	0.02570
4736.82755	0.02573
4734.89887	0.02577
4732.97020	0.02583
4731.04152	0.02588
4729.11285	0.02590
4727.18417	0.02592
4725.25550	0.02595
4723.32682	0.02599
4721.39814	0.02603
4719.46947	0.02607
4717.54079	0.02611
4715.61212	0.02615
4713.68344	0.02619
4711.75477	0.02624
4709.82609	0.02629
4707.89741	0.02634
4705.96874	0.02638
4704.04006	0.02641
4702.11139	0.02643
4700.18271	0.02647
4698.25404	0.02652
4696.32536	0.02657
4694.39668	0.02661
4692.46801	0.02664
4690.53933	0.02667
4688.61066	0.02671
4686.68198	0.02674
4684.75331	0.02678
4682.82463	0.02683
4680.89595	0.02688
4678.96728	0.02692
4677.03860	0.02695
4675.10993	0.02699
4673.18125	0.02701
4671.25258	0.02704
4669.32390	0.02708
4667.39522	0.02713
4665.46655	0.02720
4663.53787	0.02725
4661.60920	0.02729
4659.68052	0.02732
4657.75185	0.02737
4655.82317	0.02742
4653.89449	0.02748
4651.96582	0.02753
4650.03714	0.02758
4648.10847	0.02759
4646.17979	0.02759
4644.25112	0.02763
4642.32244	0.02770
4640.39376	0.02775
4638.46509	0.02778
4636.53641	0.02780
4634.60774	0.02784
4632.67906	0.02790
4630.75039	0.02797
4628.82171	0.02802
4626.89303	0.02805
4624.96436	0.02807
4623.03568	0.02811
4621.10701	0.02816
4619.17833	0.02822
4617.24966	0.02827
4615.32098	0.02832
4613.39230	0.02837
4611.46363	0.02842
4609.53495	0.02846
4607.60628	0.02848
4605.67760	0.02851
4603.74893	0.02856
4601.82025	0.02861
4599.89157	0.02865
4597.96290	0.02867
4596.03422	0.02870
4594.10555	0.02876
4592.17687	0.02882
4590.24820	0.02887
4588.31952	0.02893
4586.39084	0.02899
4584.46217	0.02905
4582.53349	0.02911
4580.60482	0.02917
4578.67614	0.02919
4576.74747	0.02918
4574.81879	0.02922
4572.89011	0.02929
4570.96144	0.02934
4569.03276	0.02938
4567.10409	0.02944
4565.17541	0.02948
4563.24674	0.02951
4561.31806	0.02956
4559.38938	0.02960
4557.46071	0.02963
4555.53203	0.02967
4553.60336	0.02973
4551.67468	0.02979
4549.74601	0.02984
4547.81733	0.02987
4545.88865	0.02990
4543.95998	0.02995
4542.03130	0.03002
4540.10263	0.03009
4538.17395	0.03015
4536.24528	0.03019
4534.31660	0.03023
4532.38792	0.03026
4530.45925	0.03029
4528.53057	0.03036
4526.60190	0.03044
4524.67322	0.03050
4522.74455	0.03053
4520.81587	0.03055
4518.88719	0.03058
4516.95852	0.03063
4515.02984	0.03070
4513.10117	0.03076
4511.17249	0.03082
4509.24382	0.03087
4507.31514	0.03091
4505.38646	0.03095
4503.45779	0.03098
4501.52911	0.03101
4499.60044	0.03107
4497.67176	0.03115
4495.74309	0.03121
4493.81441	0.03124
4491.88573	0.03127
4489.95706	0.03132
4488.02838	0.03137
4486.09971	0.03143
4484.17103	0.03150
4482.24236	0.03156
4480.31368	0.03158
4478.38500	0.03160
4476.45633	0.03163
4474.52765	0.03169
4472.59898	0.03176
4470.67030	0.03183
4468.74163	0.03188
4466.81295	0.03192
4464.88427	0.03196
4462.95560	0.03201
4461.02692	0.03206
4459.09825	0.03211
4457.16957	0.03216
4455.24090	0.03222
4453.31222	0.03230
4451.38354	0.03235
4449.45487	0.03238
4447.52619	0.03241
4445.59752	0.03249
4443.66884	0.03257
4441.74017	0.03262
4439.81149	0.03266
4437.88281	0.03269
4435.95414	0.03274
4434.02546	0.03280
4432.09679	0.03286
4430.16811	0.03290
4428.23944	0.03294
4426.31076	0.03299
4424.38208	0.03305
4422.45341	0.03313
4420.52473	0.03319
4418.59606	0.03323
4416.66738	0.03329
4414.73871	0.03336
4412.81003	0.03342
4410.88135	0.03346
4408.95268	0.03350
4407.02400	0.03355
4405.09533	0.03362
4403.16665	0.03368
4401.23798	0.03375
4399.30930	0.03382
4397.38062	0.03388
4395.45195	0.03393
4393.52327	0.03398
4391.59460	0.03405
4389.66592	0.03412
4387.73725	0.03416
4385.80857	0.03419
4383.87989	0.03423
4381.95122	0.03429
4380.02254	0.03434
4378.09387	0.03437
4376.16519	0.03442
4374.23652	0.03450
4372.30784	0.03458
4370.37916	0.03464
4368.45049	0.03469
4366.52181	0.03474
4364.59314	0.03478
4362.66446	0.03482
4360.73579	0.03486
4358.80711	0.03493
4356.87843	0.03501
4354.94976	0.03508
4353.02108	0.03515
4351.09241	0.03522
4349.16373	0.03528
4347.23506	0.03532
4345.30638	0.03537
4343.37770	0.03543
4341.44903	0.03550
4339.52035	0.03559
4337.59168	0.03566
4335.66300	0.03569
4333.73433	0.03571
4331.80565	0.03576
4329.87697	0.03582
4327.94830	0.03587
4326.01962	0.03594
4324.09095	0.03602
4322.16227	0.03610
4320.23360	0.03618
4318.30492	0.03624
4316.37624	0.03631
4314.44757	0.03636
4312.51889	0.03642
4310.59022	0.03648
4308.66154	0.03654
4306.73287	0.03660
4304.80419	0.03667
4302.87551	0.03674
4300.94684	0.03680
4299.01816	0.03684
4297.08949	0.03689
4295.16081	0.03695
4293.23214	0.03702
4291.30346	0.03710
4289.37478	0.03719
4287.44611	0.03726
4285.51743	0.03732
4283.58876	0.03739
4281.66008	0.03746
4279.73141	0.03753
4277.80273	0.03760
4275.87405	0.03767
4273.94538	0.03773
4272.01670	0.03778
4270.08803	0.03782
4268.15935	0.03785
4266.23068	0.03791
4264.30200	0.03799
4262.37332	0.03807
4260.44465	0.03813
4258.51597	0.03818
4256.58730	0.03823
4254.65862	0.03829
4252.72995	0.03834
4250.80127	0.03841
4248.87259	0.03850
4246.94392	0.03859
4245.01524	0.03867
4243.08657	0.03873
4241.15789	0.03880
4239.22922	0.03887
4237.30054	0.03891
4235.37186	0.03896
4233.44319	0.03904
4231.51451	0.03913
4229.58584	0.03921
4227.65716	0.03926
4225.72849	0.03932
4223.79981	0.03937
4221.87113	0.03943
4219.94246	0.03951
4218.01378	0.03959
4216.08511	0.03966
4214.15643	0.03971
4212.22776	0.03975
4210.29908	0.03982
4208.37040	0.03991
4206.44173	0.03998
4204.51305	0.04004
4202.58438	0.04013
4200.65570	0.04023
4198.72703	0.04031
4196.79835	0.04035
4194.86968	0.04041
4192.94100	0.04049
4191.01232	0.04058
4189.08365	0.04066
4187.15497	0.04074
4185.22630	0.04082
4183.29762	0.04089
4181.36895	0.04096
4179.44027	0.04103
4177.51159	0.04109
4175.58292	0.04115
4173.65424	0.04123
4171.72557	0.04130
4169.79689	0.04137
4167.86822	0.04146
4165.93954	0.04155
4164.01086	0.04163
4162.08219	0.04168
4160.15351	0.04174
4158.22484	0.04182
4156.29616	0.04192
4154.36749	0.04199
4152.43881	0.04204
4150.51013	0.04210
4148.58146	0.04217
4146.65278	0.04226
4144.72411	0.04233
4142.79543	0.04242
4140.86676	0.04251
4138.93808	0.04258
4137.00940	0.04264
4135.08073	0.04271
4133.15205	0.04277
4131.22338	0.04284
4129.29470	0.04292
4127.36603	0.04300
4125.43735	0.04309
4123.50867	0.04319
4121.58000	0.04327
4119.65132	0.04332
4117.72265	0.04339
4115.79397	0.04348
4113.86530	0.04356
4111.93662	0.04361
4110.00794	0.04366
4108.07927	0.04374
4106.15059	0.04383
4104.22192	0.04389
4102.29324	0.04396
4100.36457	0.04405
4098.43589	0.04415
4096.50721	0.04424
4094.57854	0.04432
4092.64986	0.04439
4090.72119	0.04447
4088.79251	0.04454
4086.86384	0.04460
4084.93516	0.04467
4083.00648	0.04475
4081.07781	0.04483
4079.14913	0.04491
4077.22046	0.04500
4075.29178	0.04510
4073.36311	0.04520
4071.43443	0.04528
4069.50575	0.04535
4067.57708	0.04543
4065.64840	0.04551
4063.71973	0.04559
4061.79105	0.04567
4059.86238	0.04573
4057.93370	0.04580
4056.00502	0.04586
4054.07635	0.04593
4052.14767	0.04602
4050.21900	0.04613
4048.29032	0.04623
4046.36165	0.04632
4044.43297	0.04641
4042.50429	0.04646
4040.57562	0.04649
4038.64694	0.04657
4036.71827	0.04668
4034.78959	0.04677
4032.86092	0.04687
4030.93224	0.04698
4029.00356	0.04708
4027.07489	0.04715
4025.14621	0.04723
4023.21754	0.04732
4021.28886	0.04738
4019.36019	0.04742
4017.43151	0.04751
4015.50283	0.04762
4013.57416	0.04773
4011.64548	0.04782
4009.71681	0.04790
4007.78813	0.04797
4005.85946	0.04804
4003.93078	0.04812
4002.00210	0.04823
4000.07343	0.04833
3998.14475	0.04841
3996.21608	0.04849
3994.28740	0.04857
3992.35873	0.04865
3990.43005	0.04875
3988.50137	0.04886
3986.57270	0.04894
3984.64402	0.04901
3982.71535	0.04908
3980.78667	0.04916
3978.85800	0.04925
3976.92932	0.04933
3975.00064	0.04941
3973.07197	0.04950
3971.14329	0.04960
3969.21462	0.04968
3967.28594	0.04976
3965.35727	0.04982
3963.42859	0.04990
3961.49991	0.05001
3959.57124	0.05012
3957.64256	0.05021
3955.71389	0.05029
3953.78521	0.05038
3951.85654	0.05046
3949.92786	0.05053
3947.99918	0.05062
3946.07051	0.05072
3944.14183	0.05080
3942.21316	0.05089
3940.28448	0.05101
3938.35581	0.05113
3936.42713	0.05121
3934.49845	0.05125
3932.56978	0.05128
3930.64110	0.05136
3928.71243	0.05148
3926.78375	0.05156
3924.85508	0.05164
3922.92640	0.05174
3920.99772	0.05182
3919.06905	0.05187
3917.14037	0.05195
3915.21170	0.05210
3913.28302	0.05225
3911.35435	0.05235
3909.42567	0.05242
3907.49699	0.05244
3905.56832	0.05241
3903.63964	0.05239
3901.71097	0.05242
3899.78229	0.05255
3897.85362	0.05279
3895.92494	0.05298
3893.99626	0.05303
3892.06759	0.05305
3890.13891	0.05317
3888.21024	0.05329
3886.28156	0.05335
3884.35289	0.05343
3882.42421	0.05350
3880.49553	0.05357
3878.56686	0.05373
3876.63818	0.05387
3874.70951	0.05393
3872.78083	0.05396
3870.85216	0.05401
3868.92348	0.05411
3866.99480	0.05420
3865.06613	0.05426
3863.13745	0.05438
3861.20878	0.05457
3859.28010	0.05471
3857.35143	0.05463
3855.42275	0.05436
3853.49407	0.05434
3851.56540	0.05476
3849.63672	0.05521
3847.70805	0.05543
3845.77937	0.05550
3843.85070	0.05553
3841.92202	0.05556
3839.99334	0.05554
3838.06467	0.05555
3836.13599	0.05565
3834.20732	0.05581
3832.27864	0.05596
3830.34997	0.05613
3828.42129	0.05628
3826.49261	0.05639
3824.56394	0.05645
3822.63526	0.05643
3820.70659	0.05646
3818.77791	0.05658
3816.84924	0.05668
3814.92056	0.05685
3812.99188	0.05712
3811.06321	0.05729
3809.13453	0.05734
3807.20586	0.05740
3805.27718	0.05746
3803.34851	0.05742
3801.41983	0.05742
3799.49115	0.05758
3797.56248	0.05778
3795.63380	0.05795
3793.70513	0.05814
3791.77645	0.05828
3789.84778	0.05840
3787.91910	0.05850
3785.99042	0.05858
3784.06175	0.05864
3782.13307	0.05870
3780.20440	0.05877
3778.27572	0.05890
3776.34705	0.05908
3774.41837	0.05920
3772.48969	0.05922
3770.56102	0.05923
3768.63234	0.05932
3766.70367	0.05946
3764.77499	0.05958
3762.84632	0.05969
3760.91764	0.05973
3758.98896	0.05977
3757.06029	0.05987
3755.13161	0.05988
3753.20294	0.05976
3751.27426	0.05970
3749.34559	0.05983
3747.41691	0.05990
3745.48823	0.05979
3743.55956	0.05994
3741.63088	0.06039
3739.70221	0.06063
3737.77353	0.06058
3735.84486	0.06058
3733.91618	0.06079
3731.98750	0.06109
3730.05883	0.06132
3728.13015	0.06138
3726.20148	0.06140
3724.27280	0.06151
3722.34413	0.06166
3720.41545	0.06181
3718.48677	0.06195
3716.55810	0.06206
3714.62942	0.06209
3712.70075	0.06207
3710.77207	0.06215
3708.84340	0.06235
3706.91472	0.06257
3704.98604	0.06269
3703.05737	0.06273
3701.12869	0.06282
3699.20002	0.06297
3697.27134	0.06310
3695.34267	0.06315
3693.41399	0.06312
3691.48531	0.06304
3689.55664	0.06301
3687.62796	0.06320
3685.69929	0.06355
3683.77061	0.06380
3681.84194	0.06386
3679.91326	0.06381
3677.98458	0.06371
3676.05591	0.06370
3674.12723	0.06386
3672.19856	0.06400
3670.26988	0.06409
3668.34121	0.06430
3666.41253	0.06458
3664.48385	0.06476
3662.55518	0.06484
3660.62650	0.06491
3658.69783	0.06495
3656.76915	0.06501
3654.84048	0.06505
3652.91180	0.06495
3650.98312	0.06475
3649.05445	0.06467
3647.12577	0.06485
3645.19710	0.06519
3643.26842	0.06551
3641.33975	0.06571
3639.41107	0.06584
3637.48239	0.06593
3635.55372	0.06601
3633.62504	0.06606
3631.69637	0.06598
3629.76769	0.06584
3627.83902	0.06594
3625.91034	0.06624
3623.98166	0.06644
3622.05299	0.06646
3620.12431	0.06643
3618.19564	0.06648
3616.26696	0.06658
3614.33829	0.06667
3612.40961	0.06670
3610.48093	0.06670
3608.55226	0.06679
3606.62358	0.06701
3604.69491	0.06721
3602.76623	0.06733
3600.83756	0.06740
3598.90888	0.06743
3596.98020	0.06747
3595.05153	0.06753
3593.12285	0.06763
3591.19418	0.06766
3589.26550	0.06761
3587.33683	0.06764
3585.40815	0.06783
3583.47947	0.06804
3581.55080	0.06817
3579.62212	0.06829
3577.69345	0.06840
3575.76477	0.06847
3573.83610	0.06852
3571.90742	0.06854
3569.97874	0.06849
3568.05007	0.06846
3566.12139	0.06859
3564.19272	0.06880
3562.26404	0.06896
3560.33537	0.06905
3558.40669	0.06914
3556.47801	0.06922
3554.54934	0.06928
3552.62066	0.06934
3550.69199	0.06941
3548.76331	0.06946
3546.83464	0.06952
3544.90596	0.06962
3542.97728	0.06976
3541.04861	0.06984
3539.11993	0.06986
3537.19126	0.06989
3535.26258	0.06997
3533.33391	0.07004
3531.40523	0.07007
3529.47655	0.07009
3527.54788	0.07014
3525.61920	0.07018
3523.69053	0.07021
3521.76185	0.07025
3519.83318	0.07032
3517.90450	0.07038
3515.97582	0.07043
3514.04715	0.07045
3512.11847	0.07048
3510.18980	0.07052
3508.26112	0.07057
3506.33245	0.07060
3504.40377	0.07062
3502.47509	0.07065
3500.54642	0.07069
3498.61774	0.07071
3496.68907	0.07071
3494.76039	0.07072
3492.83172	0.07076
3490.90304	0.07082
3488.97436	0.07084
3487.04569	0.07084
3485.11701	0.07085
3483.18834	0.07088
3481.25966	0.07095
3479.33099	0.07104
3477.40231	0.07114
3475.47363	0.07123
3473.54496	0.07129
3471.61628	0.07134
3469.68761	0.07143
3467.75893	0.07156
3465.83026	0.07171
3463.90158	0.07183
3461.97290	0.07192
3460.04423	0.07201
3458.11555	0.07210
3456.18688	0.07219
3454.25820	0.07227
3452.32953	0.07236
3450.40085	0.07247
3448.47217	0.07256
3446.54350	0.07265
3444.61482	0.07279
3442.68615	0.07294
3440.75747	0.07306
3438.82880	0.07322
3436.90012	0.07340
3434.97144	0.07361
3433.04277	0.07380
3431.11409	0.07399
3429.18542	0.07420
3427.25674	0.07444
3425.32807	0.07467
3423.39939	0.07490
3421.47071	0.07512
3419.54204	0.07532
3417.61336	0.07549
3415.68469	0.07566
3413.75601	0.07584
3411.82734	0.07600
3409.89866	0.07614
3407.96998	0.07627
3406.04131	0.07641
3404.11263	0.07655
3402.18396	0.07669
3400.25528	0.07683
3398.32661	0.07696
3396.39793	0.07712
3394.46925	0.07730
3392.54058	0.07746
3390.61190	0.07760
3388.68323	0.07772
3386.75455	0.07786
3384.82588	0.07803
3382.89720	0.07819
3380.96852	0.07835
3379.03985	0.07850
3377.11117	0.07864
3375.18250	0.07877
3373.25382	0.07892
3371.32515	0.07905
3369.39647	0.07916
3367.46779	0.07927
3365.53912	0.07940
3363.61044	0.07953
3361.68177	0.07968
3359.75309	0.07982
3357.82442	0.07997
3355.89574	0.08009
3353.96706	0.08020
3352.03839	0.08031
3350.10971	0.08044
3348.18104	0.08058
3346.25236	0.08069
3344.32369	0.08081
3342.39501	0.08097
3340.46633	0.08114
3338.53766	0.08127
3336.60898	0.08138
3334.68031	0.08150
3332.75163	0.08165
3330.82296	0.08182
3328.89428	0.08198
3326.96560	0.08210
3325.03693	0.08224
3323.10825	0.08238
3321.17958	0.08253
3319.25090	0.08267
3317.32223	0.08279
3315.39355	0.08288
3313.46487	0.08296
3311.53620	0.08308
3309.60752	0.08322
3307.67885	0.08339
3305.75017	0.08355
3303.82150	0.08371
3301.89282	0.08386
3299.96414	0.08402
3298.03547	0.08416
3296.10679	0.08430
3294.17812	0.08443
3292.24944	0.08457
3290.32077	0.08472
3288.39209	0.08487
3286.46341	0.08502
3284.53474	0.08516
3282.60606	0.08529
3280.67739	0.08545
3278.74871	0.08561
3276.82004	0.08572
3274.89136	0.08584
3272.96268	0.08599
3271.03401	0.08617
3269.10533	0.08635
3267.17666	0.08651
3265.24798	0.08666
3263.31931	0.08680
3261.39063	0.08691
3259.46195	0.08702
3257.53328	0.08716
3255.60460	0.08732
3253.67593	0.08748
3251.74725	0.08763
3249.81858	0.08777
3247.88990	0.08791
3245.96122	0.08803
3244.03255	0.08814
3242.10387	0.08827
3240.17520	0.08845
3238.24652	0.08864
3236.31785	0.08880
3234.38917	0.08893
3232.46049	0.08907
3230.53182	0.08923
3228.60314	0.08938
3226.67447	0.08954
3224.74579	0.08970
3222.81712	0.08983
3220.88844	0.08995
3218.95976	0.09007
3217.03109	0.09019
3215.10241	0.09032
3213.17374	0.09046
3211.24506	0.09059
3209.31639	0.09073
3207.38771	0.09091
3205.45903	0.09108
3203.53036	0.09124
3201.60168	0.09139
3199.67301	0.09155
3197.74433	0.09172
3195.81566	0.09187
3193.88698	0.09200
3191.95830	0.09212
3190.02963	0.09228
3188.10095	0.09245
3186.17228	0.09262
3184.24360	0.09277
3182.31493	0.09291
3180.38625	0.09306
3178.45757	0.09322
3176.52890	0.09338
3174.60022	0.09355
3172.67155	0.09371
3170.74287	0.09384
3168.81420	0.09396
3166.88552	0.09410
3164.95684	0.09425
3163.02817	0.09440
3161.09949	0.09455
3159.17082	0.09474
3157.24214	0.09491
3155.31347	0.09506
3153.38479	0.09520
3151.45611	0.09532
3149.52744	0.09543
3147.59876	0.09557
3145.67009	0.09571
3143.74141	0.09587
3141.81274	0.09604
3139.88406	0.09620
3137.95538	0.09634
3136.02671	0.09646
3134.09803	0.09657
3132.16936	0.09672
3130.24068	0.09691
3128.31201	0.09708
3126.38333	0.09721
3124.45465	0.09732
3122.52598	0.09748
3120.59730	0.09765
3118.66863	0.09778
3116.73995	0.09790
3114.81128	0.09803
3112.88260	0.09816
3110.95392	0.09831
3109.02525	0.09850
3107.09657	0.09867
3105.16790	0.09881
3103.23922	0.09895
3101.31055	0.09910
3099.38187	0.09923
3097.45319	0.09934
3095.52452	0.09947
3093.59584	0.09964
3091.66717	0.09982
3089.73849	0.09995
3087.80982	0.10007
3085.88114	0.10022
3083.95246	0.10041
3082.02379	0.10058
3080.09511	0.10072
3078.16644	0.10086
3076.23776	0.10101
3074.30909	0.10116
3072.38041	0.10129
3070.45173	0.10142
3068.52306	0.10152
3066.59438	0.10161
3064.66571	0.10175
3062.73703	0.10195
3060.80836	0.10212
3058.87968	0.10224
3056.95100	0.10237
3055.02233	0.10251
3053.09365	0.10264
3051.16498	0.10277
3049.23630	0.10290
3047.30763	0.10302
3045.37895	0.10315
3043.45027	0.10331
3041.52160	0.10346
3039.59292	0.10361
3037.66425	0.10377
3035.73557	0.10392
3033.80690	0.10405
3031.87822	0.10417
3029.94954	0.10430
3028.02087	0.10444
3026.09219	0.10456
3024.16352	0.10468
3022.23484	0.10485
3020.30617	0.10503
3018.37749	0.10518
3016.44881	0.10528
3014.52014	0.10538
3012.59146	0.10551
3010.66279	0.10567
3008.73411	0.10581
3006.80544	0.10589
3004.87676	0.10596
3002.94808	0.10608
3001.01941	0.10619
2999.09073	0.10629
2997.16206	0.10634
2995.23338	0.10639
2993.30471	0.10644
2991.37603	0.10648
2989.44735	0.10649
2987.51868	0.10647
2985.59000	0.10641
2983.66133	0.10634
2981.73265	0.10626
2979.80398	0.10618
2977.87530	0.10606
2975.94662	0.10584
2974.01795	0.10554
2972.08927	0.10523
2970.16060	0.10492
2968.23192	0.10462
2966.30325	0.10434
2964.37457	0.10414
2962.44589	0.10405
2960.51722	0.10409
2958.58854	0.10428
2956.65987	0.10465
2954.73119	0.10518
2952.80252	0.10580
2950.87384	0.10644
2948.94516	0.10703
2947.01649	0.10752
2945.08781	0.10791
2943.15914	0.10819
2941.23046	0.10840
2939.30179	0.10851
2937.37311	0.10857
2935.44443	0.10861
2933.51576	0.10864
2931.58708	0.10864
2929.65841	0.10864
2927.72973	0.10860
2925.80106	0.10852
2923.87238	0.10845
2921.94370	0.10841
2920.01503	0.10843
2918.08635	0.10856
2916.15768	0.10882
2914.22900	0.10921
2912.30033	0.10967
2910.37165	0.11009
2908.44297	0.11043
2906.51430	0.11072
2904.58562	0.11099
2902.65695	0.11127
2900.72827	0.11154
2898.79960	0.11180
2896.87092	0.11204
2894.94224	0.11230
2893.01357	0.11258
2891.08489	0.11285
2889.15622	0.11310
2887.22754	0.11334
2885.29887	0.11355
2883.37019	0.11376
2881.44151	0.11397
2879.51284	0.11416
2877.58416	0.11431
2875.65549	0.11444
2873.72681	0.11461
2871.79814	0.11482
2869.86946	0.11503
2867.94078	0.11521
2866.01211	0.11536
2864.08343	0.11549
2862.15476	0.11557
2860.22608	0.11563
2858.29741	0.11567
2856.36873	0.11569
2854.44005	0.11566
2852.51138	0.11563
2850.58270	0.11572
2848.65403	0.11604
2846.72535	0.11654
2844.79668	0.11706
2842.86800	0.11750
2840.93932	0.11787
2839.01065	0.11818
2837.08197	0.11844
2835.15330	0.11869
2833.22462	0.11893
2831.29595	0.11915
2829.36727	0.11932
2827.43859	0.11946
2825.50992	0.11964
2823.58124	0.11983
2821.65257	0.12001
2819.72389	0.12018
2817.79522	0.12036
2815.86654	0.12050
2813.93786	0.12065
2812.00919	0.12082
2810.08051	0.12100
2808.15184	0.12117
2806.22316	0.12134
2804.29449	0.12149
2802.36581	0.12166
2800.43713	0.12181
2798.50846	0.12195
2796.57978	0.12208
2794.65111	0.12225
2792.72243	0.12245
2790.79376	0.12265
2788.86508	0.12284
2786.93640	0.12302
2785.00773	0.12318
2783.07905	0.12333
2781.15038	0.12352
2779.22170	0.12371
2777.29303	0.12386
2775.36435	0.12396
2773.43567	0.12409
2771.50700	0.12427
2769.57832	0.12446
2767.64965	0.12464
2765.72097	0.12478
2763.79230	0.12493
2761.86362	0.12510
2759.93494	0.12527
2758.00627	0.12542
2756.07759	0.12555
2754.14892	0.12571
2752.22024	0.12586
2750.29157	0.12600
2748.36289	0.12614
2746.43421	0.12630
2744.50554	0.12644
2742.57686	0.12658
2740.64819	0.12675
2738.71951	0.12693
2736.79084	0.12710
2734.86216	0.12724
2732.93348	0.12735
2731.00481	0.12745
2729.07613	0.12758
2727.14746	0.12775
2725.21878	0.12794
2723.29011	0.12813
2721.36143	0.12828
2719.43275	0.12841
2717.50408	0.12854
2715.57540	0.12865
2713.64673	0.12877
2711.71805	0.12893
2709.78938	0.12909
2707.86070	0.12924
2705.93202	0.12936
2704.00335	0.12952
2702.07467	0.12969
2700.14600	0.12983
2698.21732	0.12997
2696.28865	0.13012
2694.35997	0.13027
2692.43129	0.13040
2690.50262	0.13055
2688.57394	0.13070
2686.64527	0.13083
2684.71659	0.13097
2682.78792	0.13112
2680.85924	0.13124
2678.93056	0.13135
2677.00189	0.13149
2675.07321	0.13164
2673.14454	0.13181
2671.21586	0.13196
2669.28719	0.13210
2667.35851	0.13224
2665.42983	0.13239
2663.50116	0.13254
2661.57248	0.13267
2659.64381	0.13282
2657.71513	0.13298
2655.78646	0.13313
2653.85778	0.13326
2651.92910	0.13342
2650.00043	0.13360
2648.07175	0.13377
2646.14308	0.13391
2644.21440	0.13408
2642.28573	0.13424
2640.35705	0.13437
2638.42837	0.13451
2636.49970	0.13468
2634.57102	0.13484
2632.64235	0.13499
2630.71367	0.13516
2628.78500	0.13532
2626.85632	0.13548
2624.92764	0.13564
2622.99897	0.13580
2621.07029	0.13594
2619.14162	0.13610
2617.21294	0.13627
2615.28427	0.13645
2613.35559	0.13660
2611.42691	0.13677
2609.49824	0.13694
2607.56956	0.13711
2605.64089	0.13727
2603.71221	0.13743
2601.78354	0.13756
2599.85486	0.13768
2597.92618	0.13785
2595.99751	0.13804
2594.06883	0.13819
2592.14016	0.13833
2590.21148	0.13847
2588.28281	0.13862
2586.35413	0.13879
2584.42545	0.13897
2582.49678	0.13915
2580.56810	0.13929
2578.63943	0.13939
2576.71075	0.13951
2574.78208	0.13965
2572.85340	0.13978
2570.92472	0.13990
2568.99605	0.14005
2567.06737	0.14023
2565.13870	0.14041
2563.21002	0.14059
2561.28135	0.14075
2559.35267	0.14089
2557.42399	0.14100
2555.49532	0.14112
2553.56664	0.14128
2551.63797	0.14143
2549.70929	0.14158
2547.78062	0.14173
2545.85194	0.14186
2543.92326	0.14199
2541.99459	0.14213
2540.06591	0.14229
2538.13724	0.14247
2536.20856	0.14265
2534.27989	0.14278
2532.35121	0.14291
2530.42253	0.14306
2528.49386	0.14321
2526.56518	0.14334
2524.63651	0.14349
2522.70783	0.14364
2520.77916	0.14380
2518.85048	0.14396
2516.92181	0.14411
2514.99313	0.14425
2513.06445	0.14443
2511.13578	0.14461
2509.20710	0.14477
2507.27843	0.14494
2505.34975	0.14512
2503.42108	0.14527
2501.49240	0.14542
2499.56372	0.14558
2497.63505	0.14576
2495.70637	0.14595
2493.77770	0.14612
2491.84902	0.14627
2489.92035	0.14643
2487.99167	0.14661
2486.06299	0.14680
2484.13432	0.14696
2482.20564	0.14709
2480.27697	0.14723
2478.34829	0.14738
2476.41962	0.14756
2474.49094	0.14771
2472.56226	0.14785
2470.63359	0.14800
2468.70491	0.14816
2466.77624	0.14834
2464.84756	0.14853
2462.91889	0.14869
2460.99021	0.14883
2459.06153	0.14900
2457.13286	0.14919
2455.20418	0.14938
2453.27551	0.14956
2451.34683	0.14970
2449.41816	0.14981
2447.48948	0.14993
2445.56080	0.15010
2443.63213	0.15029
2441.70345	0.15046
2439.77478	0.15062
2437.84610	0.15078
2435.91743	0.15095
2433.98875	0.15112
2432.06007	0.15131
2430.13140	0.15148
2428.20272	0.15162
2426.27405	0.15177
2424.34537	0.15194
2422.41670	0.15211
2420.48802	0.15224
2418.55934	0.15235
2416.63067	0.15247
2414.70199	0.15262
2412.77332	0.15281
2410.84464	0.15300
2408.91597	0.15318
2406.98729	0.15335
2405.05861	0.15349
2403.12994	0.15361
2401.20126	0.15373
2399.27259	0.15386
2397.34391	0.15402
2395.41524	0.15420
2393.48656	0.15436
2391.55788	0.15452
2389.62921	0.15469
2387.70053	0.15486
2385.77186	0.15499
2383.84318	0.15509
2381.91451	0.15516
2379.98583	0.15523
2378.05715	0.15528
2376.12848	0.15529
2374.19980	0.15529
2372.27113	0.15533
2370.34245	0.15540
2368.41378	0.15544
2366.48510	0.15546
2364.55642	0.15553
2362.62775	0.15567
2360.69907	0.15583
2358.77040	0.15602
2356.84172	0.15624
2354.91305	0.15652
2352.98437	0.15690
2351.05569	0.15728
2349.12702	0.15750
2347.19834	0.15756
2345.26967	0.15752
2343.34099	0.15751
2341.41232	0.15762
2339.48364	0.15778
2337.55496	0.15794
2335.62629	0.15812
2333.69761	0.15831
2331.76894	0.15849
2329.84026	0.15869
2327.91159	0.15888
2325.98291	0.15906
2324.05423	0.15924
2322.12556	0.15943
2320.19688	0.15966
2318.26821	0.15989
2316.33953	0.16010
2314.41086	0.16031
2312.48218	0.16053
2310.55350	0.16074
2308.62483	0.16090
2306.69615	0.16107
2304.76748	0.16126
2302.83880	0.16148
2300.91013	0.16167
2298.98145	0.16183
2297.05277	0.16196
2295.12410	0.16212
2293.19542	0.16229
2291.26675	0.16244
2289.33807	0.16262
2287.40940	0.16278
2285.48072	0.16294
2283.55204	0.16311
2281.62337	0.16328
2279.69469	0.16344
2277.76602	0.16359
2275.83734	0.16373
2273.90867	0.16387
2271.97999	0.16399
2270.05131	0.16413
2268.12264	0.16427
2266.19396	0.16442
2264.26529	0.16457
2262.33661	0.16471
2260.40794	0.16483
2258.47926	0.16496
2256.55058	0.16513
2254.62191	0.16529
2252.69323	0.16546
2250.76456	0.16563
2248.83588	0.16576
2246.90721	0.16587
2244.97853	0.16597
2243.04985	0.16608
2241.12118	0.16623
2239.19250	0.16640
2237.26383	0.16656
2235.33515	0.16668
2233.40648	0.16683
2231.47780	0.16699
2229.54912	0.16715
2227.62045	0.16730
2225.69177	0.16744
2223.76310	0.16758
2221.83442	0.16773
2219.90575	0.16785
2217.97707	0.16794
2216.04839	0.16804
2214.11972	0.16816
2212.19104	0.16830
2210.26237	0.16843
2208.33369	0.16853
2206.40502	0.16867
2204.47634	0.16887
2202.54766	0.16900
2200.61899	0.16908
2198.69031	0.16920
2196.76164	0.16933
2194.83296	0.16943
2192.90429	0.16952
2190.97561	0.16961
2189.04693	0.16972
2187.11826	0.16986
2185.18958	0.16998
2183.26091	0.17007
2181.33223	0.17015
2179.40356	0.17025
2177.47488	0.17036
2175.54620	0.17050
2173.61753	0.17065
2171.68885	0.17077
2169.76018	0.17085
2167.83150	0.17095
2165.90283	0.17108
2163.97415	0.17123
2162.04547	0.17137
2160.11680	0.17148
2158.18812	0.17156
2156.25945	0.17166
2154.33077	0.17181
2152.40210	0.17195
2150.47342	0.17208
2148.54474	0.17220
2146.61607	0.17230
2144.68739	0.17243
2142.75872	0.17260
2140.83004	0.17278
2138.90137	0.17294
2136.97269	0.17309
2135.04401	0.17326
2133.11534	0.17340
2131.18666	0.17352
2129.25799	0.17365
2127.32931	0.17382
2125.40064	0.17401
2123.47196	0.17419
2121.54328	0.17435
2119.61461	0.17456
2117.68593	0.17481
2115.75726	0.17500
2113.82858	0.17515
2111.89991	0.17532
2109.97123	0.17553
2108.04255	0.17575
2106.11388	0.17596
2104.18520	0.17617
2102.25653	0.17637
2100.32785	0.17655
2098.39918	0.17675
2096.47050	0.17696
2094.54182	0.17721
2092.61315	0.17747
2090.68447	0.17770
2088.75580	0.17794
2086.82712	0.17819
2084.89845	0.17840
2082.96977	0.17861
2081.04109	0.17877
2079.11242	0.17891
2077.18374	0.17908
2075.25507	0.17932
2073.32639	0.17957
2071.39772	0.17977
2069.46904	0.17994
2067.54036	0.18013
2065.61169	0.18031
2063.68301	0.18050
2061.75434	0.18071
2059.82566	0.18093
2057.89699	0.18112
2055.96831	0.18127
2054.03963	0.18140
2052.11096	0.18153
2050.18228	0.18169
2048.25361	0.18187
2046.32493	0.18205
2044.39626	0.18223
2042.46758	0.18239
2040.53890	0.18252
2038.61023	0.18269
2036.68155	0.18290
2034.75288	0.18309
2032.82420	0.18325
2030.89553	0.18341
2028.96685	0.18354
2027.03817	0.18366
2025.10950	0.18380
2023.18082	0.18394
2021.25215	0.18407
2019.32347	0.18421
2017.39480	0.18439
2015.46612	0.18462
2013.53744	0.18482
2011.60877	0.18496
2009.68009	0.18507
2007.75142	0.18523
2005.82274	0.18542
2003.89407	0.18561
2001.96539	0.18576
2000.03671	0.18587
1998.10804	0.18598
1996.17936	0.18610
1994.25069	0.18621
1992.32201	0.18633
1990.39334	0.18650
1988.46466	0.18667
1986.53598	0.18683
1984.60731	0.18694
1982.67863	0.18703
1980.74996	0.18717
1978.82128	0.18737
1976.89261	0.18753
1974.96393	0.18762
1973.03525	0.18771
1971.10658	0.18783
1969.17790	0.18794
1967.24923	0.18802
1965.32055	0.18812
1963.39188	0.18825
1961.46320	0.18841
1959.53452	0.18859
1957.60585	0.18876
1955.67717	0.18892
1953.74850	0.18907
1951.81982	0.18923
1949.89115	0.18942
1947.96247	0.18958
1946.03379	0.18963
1944.10512	0.18962
1942.17644	0.18970
1940.24777	0.18996
1938.31909	0.19023
1936.39042	0.19040
1934.46174	0.19052
1932.53306	0.19066
1930.60439	0.19082
1928.67571	0.19098
1926.74704	0.19115
1924.81836	0.19130
1922.88969	0.19145
1920.96101	0.19155
1919.03233	0.19162
1917.10366	0.19180
1915.17498	0.19208
1913.24631	0.19225
1911.31763	0.19230
1909.38896	0.19239
1907.46028	0.19255
1905.53160	0.19271
1903.60293	0.19285
1901.67425	0.19301
1899.74558	0.19318
1897.81690	0.19332
1895.88823	0.19343
1893.95955	0.19352
1892.03087	0.19358
1890.10220	0.19367
1888.17352	0.19390
1886.24485	0.19420
1884.31617	0.19439
1882.38750	0.19447
1880.45882	0.19455
1878.53014	0.19469
1876.60147	0.19485
1874.67279	0.19502
1872.74412	0.19514
1870.81544	0.19515
1868.88677	0.19512
1866.95809	0.19529
1865.02941	0.19564
1863.10074	0.19596
1861.17206	0.19618
1859.24339	0.19633
1857.31471	0.19642
1855.38604	0.19652
1853.45736	0.19669
1851.52868	0.19689
1849.60001	0.19700
1847.67133	0.19689
1845.74266	0.19661
1843.81398	0.19669
1841.88531	0.19728
1839.95663	0.19775
1838.02795	0.19787
1836.09928	0.19799
1834.17060	0.19816
1832.24193	0.19813
1830.31325	0.19800
1828.38458	0.19805
1826.45590	0.19822
1824.52722	0.19851
1822.59855	0.19894
1820.66987	0.19926
1818.74120	0.19940
1816.81252	0.19953
1814.88385	0.19963
1812.95517	0.19962
1811.02649	0.19959
1809.09782	0.19972
1807.16914	0.19996
1805.24047	0.20008
1803.31179	0.20005
1801.38312	0.20003
1799.45444	0.20016
1797.52576	0.20037
1795.59709	0.20047
1793.66841	0.20046
1791.73974	0.20052
1789.81106	0.20081
1787.88239	0.20109
1785.95371	0.20116
1784.02503	0.20119
1782.09636	0.20129
1780.16768	0.20141
1778.23901	0.20153
1776.31033	0.20145
1774.38166	0.20112
1772.45298	0.20089
1770.52430	0.20097
1768.59563	0.20124
1766.66695	0.20172
1764.73828	0.20211
1762.80960	0.20213
1760.88093	0.20204
1758.95225	0.20200
1757.02357	0.20201
1755.09490	0.20216
1753.16622	0.20213
1751.23755	0.20179
1749.30887	0.20160
1747.38020	0.20175
1745.45152	0.20199
1743.52284	0.20210
1741.59417	0.20209
1739.66549	0.20204
1737.73682	0.20182
1735.80814	0.20124
1733.87947	0.20092
1731.95079	0.20130
1730.02211	0.20188
1728.09344	0.20234
1726.16476	0.20266
1724.23609	0.20280
1722.30741	0.20274
1720.37874	0.20236
1718.45006	0.20196
1716.52138	0.20199
1714.59271	0.20246
1712.66403	0.20305
1710.73536	0.20343
1708.80668	0.20349
1706.87801	0.20342
1704.94933	0.20335
1703.02065	0.20299
1701.09198	0.20235
1699.16330	0.20217
1697.23463	0.20245
1695.30595	0.20293
1693.37728	0.20365
1691.44860	0.20408
1689.51992	0.20400
1687.59125	0.20358
1685.66257	0.20300
1683.73390	0.20288
1681.80522	0.20343
1679.87655	0.20400
1677.94787	0.20422
1676.01919	0.20422
1674.09052	0.20421
1672.16184	0.20401
1670.23317	0.20366
1668.30449	0.20381
1666.37582	0.20438
1664.44714	0.20462
1662.51846	0.20459
1660.58979	0.20470
1658.66111	0.20479
1656.73244	0.20437
1654.80376	0.20359
1652.87509	0.20348
1650.94641	0.20414
1649.01773	0.20440
1647.08906	0.20419
1645.16038	0.20438
1643.23171	0.20491
1641.30303	0.20520
1639.37436	0.20504
1637.44568	0.20448
1635.51700	0.20415
1633.58833	0.20457
1631.65965	0.20516
1629.73098	0.20524
1627.80230	0.20500
1625.87363	0.20462
1623.94495	0.20419
1622.01627	0.20403
1620.08760	0.20413
1618.15892	0.20428
1616.23025	0.20478
1614.30157	0.20559
1612.37290	0.20621
1610.44422	0.20649
1608.51554	0.20672
1606.58687	0.20700
1604.65819	0.20718
1602.72952	0.20730
1600.80084	0.20750
1598.87217	0.20772
1596.94349	0.20786
1595.01481	0.20798
1593.08614	0.20815
1591.15746	0.20830
1589.22879	0.20847
1587.30011	0.20867
1585.37144	0.20887
1583.44276	0.20903
1581.51408	0.20911
1579.58541	0.20902
1577.65673	0.20888
1575.72806	0.20901
1573.79938	0.20929
1571.87071	0.20927
1569.94203	0.20916
1568.01335	0.20940
1566.08468	0.20979
1564.15600	0.20998
1562.22733	0.20970
1560.29865	0.20896
1558.36998	0.20868
1556.44130	0.20931
1554.51262	0.21007
1552.58395	0.21050
1550.65527	0.21073
1548.72660	0.21090
1546.79792	0.21090
1544.86925	0.21062
1542.94057	0.21016
1541.01189	0.20977
1539.08322	0.20994
1537.15454	0.21064
1535.22587	0.21108
1533.29719	0.21117
1531.36852	0.21129
1529.43984	0.21137
1527.51116	0.21132
1525.58249	0.21124
1523.65381	0.21091
1521.72514	0.21046
1519.79646	0.21041
1517.86779	0.21076
1515.93911	0.21120
1514.01043	0.21156
1512.08176	0.21159
1510.15308	0.21129
1508.22441	0.21093
1506.29573	0.21093
1504.36706	0.21147
1502.43838	0.21199
1500.50970	0.21203
1498.58103	0.21189
1496.65235	0.21193
1494.72368	0.21204
1492.79500	0.21184
1490.86633	0.21139
1488.93765	0.21121
1487.00897	0.21141
1485.08030	0.21161
1483.15162	0.21160
1481.22295	0.21143
1479.29427	0.21115
1477.36560	0.21072
1475.43692	0.21021
1473.50824	0.20972
1471.57957	0.20938
1469.65089	0.20918
1467.72222	0.20892
1465.79354	0.20856
1463.86487	0.20831
1461.93619	0.20802
1460.00751	0.20738
1458.07884	0.20664
1456.15016	0.20649
1454.22149	0.20691
1452.29281	0.20722
1450.36414	0.20719
1448.43546	0.20713
1446.50678	0.20733
1444.57811	0.20766
1442.64943	0.20786
1440.72076	0.20772
1438.79208	0.20710
1436.86341	0.20666
1434.93473	0.20709
1433.00605	0.20779
1431.07738	0.20808
1429.14870	0.20820
1427.22003	0.20833
1425.29135	0.20833
1423.36268	0.20818
1421.43400	0.20782
1419.50532	0.20737
1417.57665	0.20724
1415.64797	0.20746
1413.71930	0.20763
1411.79062	0.20763
1409.86195	0.20759
1407.93327	0.20755
1406.00459	0.20750
1404.07592	0.20750
1402.14724	0.20750
1400.21857	0.20738
1398.28989	0.20724
1396.36122	0.20714
1394.43254	0.20725
1392.50386	0.20760
1390.57519	0.20771
1388.64651	0.20733
1386.71784	0.20701
1384.78916	0.20702
1382.86049	0.20716
1380.93181	0.20730
1379.00313	0.20734
1377.07446	0.20721
1375.14578	0.20706
1373.21711	0.20706
1371.28843	0.20710
1369.35976	0.20710
1367.43108	0.20709
1365.50240	0.20697
1363.57373	0.20669
1361.64505	0.20655
1359.71638	0.20666
1357.78770	0.20677
1355.85903	0.20680
1353.93035	0.20684
1352.00167	0.20694
1350.07300	0.20710
1348.14432	0.20729
1346.21565	0.20743
1344.28697	0.20749
1342.35830	0.20745
1340.42962	0.20736
1338.50094	0.20730
1336.57227	0.20729
1334.64359	0.20722
1332.71492	0.20707
1330.78624	0.20688
1328.85757	0.20670
1326.92889	0.20651
1325.00021	0.20630
1323.07154	0.20605
1321.14286	0.20574
1319.21419	0.20549
1317.28551	0.20530
1315.35684	0.20512
1313.42816	0.20490
1311.49948	0.20471
1309.57081	0.20456
1307.64213	0.20432
1305.71346	0.20399
1303.78478	0.20366
1301.85611	0.20340
1299.92743	0.20316
1297.99875	0.20290
1296.07008	0.20264
1294.14140	0.20240
1292.21273	0.20213
1290.28405	0.20178
1288.35538	0.20144
1286.42670	0.20114
1284.49802	0.20083
1282.56935	0.20040
1280.64067	0.19980
1278.71200	0.19910
1276.78332	0.19824
1274.85465	0.19710
1272.92597	0.19565
1270.99729	0.19386
1269.06862	0.19159
1267.13994	0.18889
1265.21127	0.18612
1263.28259	0.18363
1261.35392	0.18180
1259.42524	0.18093
1257.49656	0.18093
1255.56789	0.18149
1253.63921	0.18238
1251.71054	0.18355
1249.78186	0.18503
1247.85319	0.18672
1245.92451	0.18833
1243.99583	0.18961
1242.06716	0.19050
1240.13848	0.19104
1238.20981	0.19127
1236.28113	0.19127
1234.35246	0.19104
1232.42378	0.19063
1230.49510	0.19010
1228.56643	0.18953
1226.63775	0.18896
1224.70908	0.18843
1222.78040	0.18797
1220.85173	0.18756
1218.92305	0.18708
1216.99437	0.18651
1215.06570	0.18588
1213.13702	0.18525
1211.20835	0.18464
1209.27967	0.18406
1207.35100	0.18347
1205.42232	0.18279
1203.49364	0.18205
1201.56497	0.18138
1199.63629	0.18078
1197.70762	0.18017
1195.77894	0.17947
1193.85027	0.17874
1191.92159	0.17802
1189.99291	0.17726
1188.06424	0.17641
1186.13556	0.17555
1184.20689	0.17472
1182.27821	0.17387
1180.34954	0.17296
1178.42086	0.17205
1176.49218	0.17116
1174.56351	0.17030
1172.63483	0.16939
1170.70616	0.16840
1168.77748	0.16741
1166.84881	0.16642
1164.92013	0.16543
1162.99145	0.16446
1161.06278	0.16347
1159.13410	0.16247
1157.20543	0.16152
1155.27675	0.16063
1153.34808	0.15969
1151.41940	0.15871
1149.49072	0.15773
1147.56205	0.15677
1145.63337	0.15569
1143.70470	0.15451
1141.77602	0.15337
1139.84735	0.15224
1137.91867	0.15096
1135.98999	0.14948
1134.06132	0.14785
1132.13264	0.14608
1130.20397	0.14410
1128.27529	0.14194
1126.34662	0.13957
1124.41794	0.13700
1122.48926	0.13439
1120.56059	0.13189
1118.63191	0.12951
1116.70324	0.12722
1114.77456	0.12506
1112.84589	0.12318
1110.91721	0.12160
1108.98853	0.12027
1107.05986	0.11917
1105.13118	0.11831
1103.20251	0.11773
1101.27383	0.11748
1099.34516	0.11745
1097.41648	0.11758
1095.48780	0.11785
1093.55913	0.11817
1091.63045	0.11848
1089.70178	0.11880
1087.77310	0.11906
1085.84443	0.11916
1083.91575	0.11915
1081.98707	0.11910
1080.05840	0.11903
1078.12972	0.11886
1076.20105	0.11857
1074.27237	0.11828
1072.34370	0.11803
1070.41502	0.11783
1068.48634	0.11764
1066.55767	0.11745
1064.62899	0.11727
1062.70032	0.11708
1060.77164	0.11694
1058.84297	0.11687
1056.91429	0.11686
1054.98561	0.11689
1053.05694	0.11690
1051.12826	0.11689
1049.19959	0.11691
1047.27091	0.11697
1045.34224	0.11707
1043.41356	0.11725
1041.48488	0.11750
1039.55621	0.11777
1037.62753	0.11804
1035.69886	0.11830
1033.77018	0.11856
1031.84151	0.11892
1029.91283	0.11938
1027.98415	0.11984
1026.05548	0.12025
1024.12680	0.12071
1022.19813	0.12134
1020.26945	0.12215
1018.34078	0.12307
1016.41210	0.12402
1014.48342	0.12501
1012.55475	0.12610
1010.62607	0.12726
1008.69740	0.12838
1006.76872	0.12944
1004.84005	0.13057
1002.91137	0.13174
1000.98269	0.13280
999.05402	0.13371
997.12534	0.13452
995.19667	0.13531
993.26799	0.13611
991.33932	0.13683
989.41064	0.13747
987.48196	0.13804
985.55329	0.13856
983.62461	0.13907
981.69594	0.13955
979.76726	0.13996
977.83859	0.14029
975.90991	0.14056
973.98123	0.14077
972.05256	0.14091
970.12388	0.14101
968.19521	0.14116
966.26653	0.14139
964.33786	0.14158
962.40918	0.14167
960.48050	0.14170
958.55183	0.14170
956.62315	0.14167
954.69448	0.14162
952.76580	0.14158
950.83713	0.14158
948.90845	0.14155
946.97977	0.14142
945.05110	0.14118
943.12242	0.14088
941.19375	0.14060
939.26507	0.14032
937.33640	0.13997
935.40772	0.13956
933.47904	0.13909
931.55037	0.13858
929.62169	0.13807
927.69302	0.13755
925.76434	0.13696
923.83567	0.13627
921.90699	0.13551
919.97831	0.13475
918.04964	0.13399
916.12096	0.13314
914.19229	0.13218
912.26361	0.13121
910.33494	0.13035
908.40626	0.12954
906.47758	0.12871
904.54891	0.12793
902.62023	0.12730
900.69156	0.12680
898.76288	0.12630
896.83421	0.12574
894.90553	0.12519
892.97685	0.12473
891.04818	0.12432
889.11950	0.12387
887.19083	0.12342
885.26215	0.12302
883.33348	0.12261
881.40480	0.12215
879.47612	0.12164
877.54745	0.12113
875.61877	0.12064
873.69010	0.12019
871.76142	0.11979
869.83275	0.11938
867.90407	0.11891
865.97539	0.11840
864.04672	0.11796
862.11804	0.11765
860.18937	0.11736
858.26069	0.11696
856.33202	0.11640
854.40334	0.11575
852.47466	0.11495
850.54599	0.11395
848.61731	0.11287
846.68864	0.11178
844.75996	0.11075
842.83129	0.10990
840.90261	0.10932
838.97394	0.10894
837.04526	0.10870
835.11658	0.10861
833.18791	0.10856
831.25923	0.10831
829.33056	0.10782
827.40188	0.10719
825.47321	0.10650
823.54453	0.10579
821.61585	0.10508
819.68718	0.10440
817.75850	0.10376
815.82983	0.10313
813.90115	0.10252
811.97248	0.10196
810.04380	0.10135
808.11512	0.10069
806.18645	0.10003
804.25777	0.09939
802.32910	0.09885
800.40042	0.09840
798.47175	0.09788
796.54307	0.09732
794.61439	0.09698
792.68572	0.09685
790.75704	0.09683
788.82837	0.09697
786.89969	0.09717
784.97102	0.09730
783.04234	0.09738
781.11366	0.09741
779.18499	0.09732
777.25631	0.09719
775.32764	0.09711
773.39896	0.09705
771.47029	0.09693
769.54161	0.09680
767.61293	0.09667
765.68426	0.09650
763.75558	0.09635
761.82691	0.09625
759.89823	0.09606
757.96956	0.09574
756.04088	0.09540
754.11220	0.09510
752.18353	0.09483
750.25485	0.09459
748.32618	0.09431
746.39750	0.09394
744.46883	0.09342
742.54015	0.09278
740.61147	0.09217
738.68280	0.09177
736.75412	0.09164
734.82545	0.09170
732.89677	0.09186
730.96810	0.09202
729.03942	0.09211
727.11074	0.09219
725.18207	0.09233
723.25339	0.09255
721.32472	0.09282
719.39604	0.09307
717.46737	0.09332
715.53869	0.09367
713.61001	0.09414
711.68134	0.09459
709.75266	0.09491
707.82399	0.09507
705.89531	0.09501
703.96664	0.09478
702.03796	0.09450
700.10928	0.09416
698.18061	0.09364
696.25193	0.09298
694.32326	0.09236
692.39458	0.09184
690.46591	0.09139
688.53723	0.09092
686.60855	0.09046
684.67988	0.09001
682.75120	0.08958
680.82253	0.08918
678.89385	0.08879
676.96518	0.08831
675.03650	0.08767
673.10782	0.08698
671.17915	0.08623
669.25047	0.08535
667.32180	0.08451
665.39312	0.08378
663.46445	0.08299
661.53577	0.08214
659.60709	0.08132
657.67842	0.08053
655.74974	0.07975
653.82107	0.07901
651.89239	0.07836
649.96372	0.07774
648.03504	0.07696
646.10636	0.07595
644.17769	0.07486
642.24901	0.07380
640.32034	0.07276
638.39166	0.07175
636.46299	0.07077
634.53431	0.06972
632.60563	0.06834
630.67696	0.06605
628.74828	0.06248
626.81961	0.05801
624.89093	0.05344
622.96226	0.04981
621.03358	0.04761
619.10490	0.04641
617.17623	0.04565
615.24755	0.04489
613.31888	0.04385
611.39020	0.04278
609.46153	0.04227
607.53285	0.04236
605.60417	0.04270
603.67550	0.04322
601.74682	0.04406
599.81815	0.04510
597.88947	0.04603
595.96080	0.04667
594.03212	0.04711
592.10344	0.04751
590.17477	0.04771
588.24609	0.04758
586.31742	0.04725
584.38874	0.04693
582.46007	0.04672
580.53139	0.04650
578.60271	0.04613
576.67404	0.04557
574.74536	0.04492
572.81669	0.04427
570.88801	0.04366
568.95934	0.04306
567.03066	0.04252
565.10198	0.04212
563.17331	0.04190
561.24463	0.04176
559.31596	0.04162
557.38728	0.04143
555.45861	0.04121
553.52993	0.04097
551.60125	0.04069
549.67258	0.04041
547.74390	0.04016
545.81523	0.03997
543.88655	0.03986
541.95788	0.03977
540.02920	0.03962
538.10052	0.03940
536.17185	0.03915
534.24317	0.03891
532.31450	0.03868
530.38582	0.03847
528.45715	0.03822
526.52847	0.03796
524.59979	0.03769
522.67112	0.03731
520.74244	0.03676
518.81377	0.03613
516.88509	0.03549
514.95642	0.03488
513.02774	0.03444
511.09906	0.03419
509.17039	0.03402
507.24171	0.03387
505.31304	0.03371
503.38436	0.03341
501.45569	0.03290
499.52701	0.03235
497.59833	0.03180
495.66966	0.03121
493.74098	0.03065
491.81231	0.03016
489.88363	0.02967
487.95496	0.02913
486.02628	0.02857
484.09760	0.02797
482.16893	0.02741
480.24025	0.02690
478.31158	0.02639
476.38290	0.02585
474.45423	0.02531
472.52555	0.02476
470.59687	0.02424
468.66820	0.02382
466.73952	0.02351
464.81085	0.02318
462.88217	0.02285
460.95350	0.02267
459.02482	0.02264
457.09614	0.02256
455.16747	0.02242
453.23879	0.02233
451.31012	0.02231
449.38144	0.02230
447.45277	0.02218
445.52409	0.02197
443.59541	0.02179
441.66674	0.02158
439.73806	0.02128
437.80939	0.02088
435.88071	0.02038
433.95204	0.01985
432.02336	0.01926
430.09468	0.01859
428.16601	0.01798
426.23733	0.01751
424.30866	0.01692
422.37998	0.01617
420.45131	0.01543
418.52263	0.01481
416.59395	0.01421
414.66528	0.01349
412.73660	0.01279
410.80793	0.01219
408.87925	0.01159
406.95058	0.01099
405.02190	0.01047
403.09322	0.00997
401.16455	0.00943
399.23587	0.00889
397.30720	0.00833
395.37852	0.00775
393.44985	0.00720
391.52117	0.00673
389.59249	0.00635
387.66382	0.00596
385.73514	0.00554
383.80647	0.00513
381.87779	0.00473
379.94912	0.00436
378.02044	0.00401
376.09176	0.00359
374.16309	0.00319
372.23441	0.00296
370.30574	0.00274
368.37706	0.00242
