7496.76250	0.00143
7494.83382	0.00145
7492.90514	0.00146
7490.97647	0.00145
7489.04779	0.00145
7487.11912	0.00145
7485.19044	0.00146
7483.26177	0.00148
7481.33309	0.00149
7479.40441	0.00149
7477.47574	0.00149
7475.54706	0.00150
7473.61839	0.00150
7471.68971	0.00149
7469.76104	0.00150
7467.83236	0.00150
7465.90368	0.00151
7463.97501	0.00151
7462.04633	0.00152
7460.11766	0.00153
7458.18898	0.00153
7456.26031	0.00153
7454.33163	0.00154
7452.40295	0.00153
7450.47428	0.00153
7448.54560	0.00155
7446.61693	0.00158
7444.68825	0.00158
7442.75958	0.00157
7440.83090	0.00156
7438.90222	0.00155
7436.97355	0.00154
7435.04487	0.00155
7433.11620	0.00156
7431.18752	0.00157
7429.25885	0.00158
7427.33017	0.00158
7425.40149	0.00159
7423.47282	0.00161
7421.54414	0.00161
7419.61547	0.00160
7417.68679	0.00159
7415.75812	0.00160
7413.82944	0.00162
7411.90076	0.00163
7409.97209	0.00164
7408.04341	0.00164
7406.11474	0.00165
7404.18606	0.00167
7402.25739	0.00167
7400.32871	0.00167
7398.40003	0.00166
7396.47136	0.00167
7394.54268	0.00168
7392.61401	0.00168
7390.68533	0.00169
7388.75666	0.00169
7386.82798	0.00169
7384.89930	0.00168
7382.97063	0.00168
7381.04195	0.00169
7379.11328	0.00169
7377.18460	0.00169
7375.25593	0.00170
7373.32725	0.00172
7371.39857	0.00174
7369.46990	0.00174
7367.54122	0.00174
7365.61255	0.00174
7363.68387	0.00173
7361.75520	0.00173
7359.82652	0.00174
7357.89784	0.00174
7355.96917	0.00175
7354.04049	0.00176
7352.11182	0.00178
7350.18314	0.00179
7348.25447	0.00180
7346.32579	0.00179
7344.39711	0.00179
7342.46844	0.00180
7340.53976	0.00180
7338.61109	0.00180
7336.68241	0.00179
7334.75374	0.00179
7332.82506	0.00179
7330.89638	0.00179
7328.96771	0.00180
7327.03903	0.00182
7325.11036	0.00184
7323.18168	0.00184
7321.25301	0.00184
7319.32433	0.00185
7317.39565	0.00187
7315.46698	0.00187
7313.53830	0.00187
7311.60963	0.00186
7309.68095	0.00184
7307.75228	0.00184
7305.82360	0.00185
7303.89492	0.00186
7301.96625	0.00189
7300.03757	0.00190
7298.10890	0.00191
7296.18022	0.00191
7294.25155	0.00191
7292.32287	0.00191
7290.39419	0.00191
7288.46552	0.00192
7286.53684	0.00194
7284.60817	0.00194
7282.67949	0.00194
7280.75082	0.00193
7278.82214	0.00194
7276.89346	0.00194
7274.96479	0.00193
7273.03611	0.00193
7271.10744	0.00195
7269.17876	0.00196
7267.25009	0.00196
7265.32141	0.00196
7263.39273	0.00197
7261.46406	0.00198
7259.53538	0.00200
7257.60671	0.00201
7255.67803	0.00202
7253.74936	0.00201
7251.82068	0.00201
7249.89200	0.00200
7247.96333	0.00200
7246.03465	0.00200
7244.10598	0.00200
7242.17730	0.00201
7240.24863	0.00202
7238.31995	0.00203
7236.39127	0.00204
7234.46260	0.00205
7232.53392	0.00206
7230.60525	0.00206
7228.67657	0.00205
7226.74790	0.00206
7224.81922	0.00207
7222.89054	0.00208
7220.96187	0.00208
7219.03319	0.00208
7217.10452	0.00209
7215.17584	0.00210
7213.24717	0.00210
7211.31849	0.00210
7209.38981	0.00210
7207.46114	0.00211
7205.53246	0.00211
7203.60379	0.00211
7201.67511	0.00212
7199.74644	0.00213
7197.81776	0.00215
7195.88908	0.00216
7193.96041	0.00217
7192.03173	0.00217
7190.10306	0.00215
7188.17438	0.00215
7186.24571	0.00217
7184.31703	0.00217
7182.38835	0.00217
7180.45968	0.00217
7178.53100	0.00217
7176.60233	0.00217
7174.67365	0.00218
7172.74498	0.00220
7170.81630	0.00221
7168.88762	0.00222
7166.95895	0.00224
7165.03027	0.00225
7163.10160	0.00224
7161.17292	0.00224
7159.24425	0.00226
7157.31557	0.00226
7155.38689	0.00225
7153.45822	0.00224
7151.52954	0.00225
7149.60087	0.00227
7147.67219	0.00227
7145.74352	0.00226
7143.81484	0.00227
7141.88616	0.00228
7139.95749	0.00229
7138.02881	0.00230
7136.10014	0.00232
7134.17146	0.00233
7132.24279	0.00233
7130.31411	0.00233
7128.38543	0.00233
7126.45676	0.00234
7124.52808	0.00233
7122.59941	0.00232
7120.67073	0.00234
7118.74206	0.00237
7116.81338	0.00238
7114.88470	0.00237
7112.95603	0.00236
7111.02735	0.00236
7109.09868	0.00237
7107.17000	0.00238
7105.24133	0.00240
7103.31265	0.00241
7101.38397	0.00240
7099.45530	0.00240
7097.52662	0.00241
7095.59795	0.00241
7093.66927	0.00242
7091.74060	0.00244
7089.81192	0.00246
7087.88324	0.00247
7085.95457	0.00247
7084.02589	0.00247
7082.09722	0.00246
7080.16854	0.00246
7078.23987	0.00245
7076.31119	0.00245
7074.38251	0.00247
7072.45384	0.00248
7070.52516	0.00249
7068.59649	0.00249
7066.66781	0.00249
7064.73914	0.00249
7062.81046	0.00250
7060.88178	0.00252
7058.95311	0.00254
7057.02443	0.00257
7055.09576	0.00257
7053.16708	0.00256
7051.23841	0.00254
7049.30973	0.00253
7047.38105	0.00251
7045.45238	0.00252
7043.52370	0.00253
7041.59503	0.00255
7039.66635	0.00258
7037.73768	0.00259
7035.80900	0.00260
7033.88032	0.00260
7031.95165	0.00262
7030.02297	0.00261
7028.09430	0.00260
7026.16562	0.00261
7024.23695	0.00263
7022.30827	0.00263
7020.37959	0.00261
7018.45092	0.00261
7016.52224	0.00263
7014.59357	0.00264
7012.66489	0.00265
7010.73622	0.00266
7008.80754	0.00268
7006.87886	0.00268
7004.95019	0.00268
7003.02151	0.00269
7001.09284	0.00270
6999.16416	0.00271
6997.23549	0.00271
6995.30681	0.00270
6993.37813	0.00270
6991.44946	0.00271
6989.52078	0.00273
6987.59211	0.00275
6985.66343	0.00274
6983.73476	0.00274
6981.80608	0.00276
6979.87740	0.00277
6977.94873	0.00278
6976.02005	0.00279
6974.09138	0.00280
6972.16270	0.00281
6970.23403	0.00279
6968.30535	0.00277
6966.37667	0.00279
6964.44800	0.00282
6962.51932	0.00283
6960.59065	0.00282
6958.66197	0.00283
6956.73330	0.00284
6954.80462	0.00284
6952.87594	0.00284
6950.94727	0.00284
6949.01859	0.00285
6947.08992	0.00285
6945.16124	0.00285
6943.23257	0.00285
6941.30389	0.00285
6939.37521	0.00287
6937.44654	0.00290
6935.51786	0.00291
6933.58919	0.00292
6931.66051	0.00293
6929.73184	0.00294
6927.80316	0.00294
6925.87448	0.00292
6923.94581	0.00291
6922.01713	0.00292
6920.08846	0.00294
6918.15978	0.00298
6916.23111	0.00299
6914.30243	0.00299
6912.37375	0.00298
6910.44508	0.00298
6908.51640	0.00300
6906.58773	0.00300
6904.65905	0.00299
6902.73038	0.00300
6900.80170	0.00302
6898.87302	0.00303
6896.94435	0.00304
6895.01567	0.00303
6893.08700	0.00303
6891.15832	0.00305
6889.22965	0.00307
6887.30097	0.00307
6885.37229	0.00306
6883.44362	0.00306
6881.51494	0.00307
6879.58627	0.00307
6877.65759	0.00307
6875.72892	0.00308
6873.80024	0.00310
6871.87156	0.00311
6869.94289	0.00311
6868.01421	0.00312
6866.08554	0.00314
6864.15686	0.00315
6862.22819	0.00315
6860.29951	0.00314
6858.37083	0.00314
6856.44216	0.00314
6854.51348	0.00315
6852.58481	0.00317
6850.65613	0.00319
6848.72746	0.00321
6846.79878	0.00322
6844.87010	0.00322
6842.94143	0.00322
6841.01275	0.00322
6839.08408	0.00321
6837.15540	0.00321
6835.22673	0.00323
6833.29805	0.00326
6831.36937	0.00327
6829.44070	0.00326
6827.51202	0.00325
6825.58335	0.00327
6823.65467	0.00328
6821.72600	0.00329
6819.79732	0.00330
6817.86864	0.00330
6815.93997	0.00330
6814.01129	0.00331
6812.08262	0.00331
6810.15394	0.00332
6808.22527	0.00334
6806.29659	0.00335
6804.36791	0.00335
6802.43924	0.00335
6800.51056	0.00335
6798.58189	0.00336
6796.65321	0.00338
6794.72454	0.00340
6792.79586	0.00341
6790.86718	0.00342
6788.93851	0.00343
6787.00983	0.00344
6785.08116	0.00344
6783.15248	0.00344
6781.22381	0.00345
6779.29513	0.00346
6777.36645	0.00346
6775.43778	0.00346
6773.50910	0.00345
6771.58043	0.00345
6769.65175	0.00348
6767.72308	0.00350
6765.79440	0.00352
6763.86572	0.00354
6761.93705	0.00355
6760.00837	0.00355
6758.07970	0.00355
6756.15102	0.00354
6754.22235	0.00354
6752.29367	0.00354
6750.36499	0.00354
6748.43632	0.00356
6746.50764	0.00360
6744.57897	0.00362
6742.65029	0.00362
6740.72162	0.00361
6738.79294	0.00361
6736.86426	0.00362
6734.93559	0.00362
6733.00691	0.00363
6731.07824	0.00364
6729.14956	0.00366
6727.22089	0.00367
6725.29221	0.00367
6723.36353	0.00366
6721.43486	0.00366
6719.50618	0.00366
6717.57751	0.00367
6715.64883	0.00369
6713.72016	0.00371
6711.79148	0.00371
6709.86280	0.00373
6707.93413	0.00376
6706.00545	0.00380
6704.07678	0.00380
6702.14810	0.00378
6700.21943	0.00378
6698.29075	0.00379
6696.36207	0.00380
6694.43340	0.00380
6692.50472	0.00381
6690.57605	0.00381
6688.64737	0.00381
6686.71870	0.00382
6684.79002	0.00382
6682.86134	0.00382
6680.93267	0.00384
6679.00399	0.00386
6677.07532	0.00386
6675.14664	0.00387
6673.21797	0.00388
6671.28929	0.00389
6669.36061	0.00389
6667.43194	0.00390
6665.50326	0.00391
6663.57459	0.00392
6661.64591	0.00391
6659.71724	0.00392
6657.78856	0.00394
6655.85988	0.00395
6653.93121	0.00397
6652.00253	0.00397
6650.07386	0.00399
6648.14518	0.00400
6646.21651	0.00400
6644.28783	0.00400
6642.35915	0.00402
6640.43048	0.00404
6638.50180	0.00406
6636.57313	0.00406
6634.64445	0.00407
6632.71578	0.00408
6630.78710	0.00409
6628.85842	0.00409
6626.92975	0.00409
6625.00107	0.00408
6623.07240	0.00408
6621.14372	0.00410
6619.21505	0.00412
6617.28637	0.00412
6615.35769	0.00410
6613.42902	0.00411
6611.50034	0.00413
6609.57167	0.00416
6607.64299	0.00419
6605.71432	0.00421
6603.78564	0.00420
6601.85696	0.00419
6599.92829	0.00418
6597.99961	0.00419
6596.07094	0.00420
6594.14226	0.00420
6592.21359	0.00420
6590.28491	0.00422
6588.35623	0.00425
6586.42756	0.00427
6584.49888	0.00428
6582.57021	0.00429
6580.64153	0.00429
6578.71286	0.00428
6576.78418	0.00428
6574.85550	0.00430
6572.92683	0.00432
6570.99815	0.00432
6569.06948	0.00432
6567.14080	0.00434
6565.21213	0.00436
6563.28345	0.00437
6561.35477	0.00439
6559.42610	0.00440
6557.49742	0.00440
6555.56875	0.00440
6553.64007	0.00442
6551.71140	0.00444
6549.78272	0.00446
6547.85404	0.00445
6545.92537	0.00444
6543.99669	0.00444
6542.06802	0.00446
6540.13934	0.00449
6538.21067	0.00450
6536.28199	0.00453
6534.35331	0.00455
6532.42464	0.00455
6530.49596	0.00455
6528.56729	0.00455
6526.63861	0.00456
6524.70994	0.00458
6522.78126	0.00459
6520.85258	0.00460
6518.92391	0.00461
6516.99523	0.00462
6515.06656	0.00463
6513.13788	0.00463
6511.20921	0.00463
6509.28053	0.00464
6507.35185	0.00465
6505.42318	0.00466
6503.49450	0.00467
6501.56583	0.00467
6499.63715	0.00465
6497.70848	0.00466
6495.77980	0.00468
6493.85112	0.00471
6491.92245	0.00473
6489.99377	0.00475
6488.06510	0.00476
6486.13642	0.00476
6484.20775	0.00477
6482.27907	0.00478
6480.35039	0.00478
6478.42172	0.00479
6476.49304	0.00481
6474.56437	0.00483
6472.63569	0.00485
6470.70702	0.00487
6468.77834	0.00487
6466.84966	0.00485
6464.92099	0.00484
6462.99231	0.00487
6461.06364	0.00490
6459.13496	0.00491
6457.20629	0.00491
6455.27761	0.00492
6453.34893	0.00493
6451.42026	0.00494
6449.49158	0.00494
6447.56291	0.00494
6445.63423	0.00495
6443.70556	0.00497
6441.77688	0.00499
6439.84820	0.00501
6437.91953	0.00501
6435.99085	0.00502
6434.06218	0.00503
6432.13350	0.00505
6430.20483	0.00505
6428.27615	0.00505
6426.34747	0.00506
6424.41880	0.00507
6422.49012	0.00509
6420.56145	0.00511
6418.63277	0.00511
6416.70410	0.00511
6414.77542	0.00514
6412.84674	0.00517
6410.91807	0.00518
6408.98939	0.00517
6407.06072	0.00518
6405.13204	0.00521
6403.20337	0.00523
6401.27469	0.00524
6399.34601	0.00525
6397.41734	0.00526
6395.48866	0.00526
6393.55999	0.00525
6391.63131	0.00527
6389.70264	0.00529
6387.77396	0.00530
6385.84528	0.00531
6383.91661	0.00532
6381.98793	0.00534
6380.05926	0.00535
6378.13058	0.00534
6376.20191	0.00534
6374.27323	0.00537
6372.34455	0.00541
6370.41588	0.00544
6368.48720	0.00545
6366.55853	0.00544
6364.62985	0.00542
6362.70118	0.00543
6360.77250	0.00546
6358.84382	0.00548
6356.91515	0.00549
6354.98647	0.00550
6353.05780	0.00550
6351.12912	0.00551
6349.20045	0.00551
6347.27177	0.00551
6345.34309	0.00553
6343.41442	0.00554
6341.48574	0.00555
6339.55707	0.00556
6337.62839	0.00557
6335.69972	0.00558
6333.77104	0.00559
6331.84236	0.00562
6329.91369	0.00563
6327.98501	0.00563
6326.05634	0.00564
6324.12766	0.00567
6322.19899	0.00570
6320.27031	0.00572
6318.34163	0.00575
6316.41296	0.00576
6314.48428	0.00575
6312.55561	0.00574
6310.62693	0.00576
6308.69826	0.00579
6306.76958	0.00581
6304.84090	0.00581
6302.91223	0.00581
6300.98355	0.00582
6299.05488	0.00583
6297.12620	0.00584
6295.19753	0.00585
6293.26885	0.00588
6291.34017	0.00590
6289.41150	0.00592
6287.48282	0.00592
6285.55415	0.00593
6283.62547	0.00594
6281.69680	0.00596
6279.76812	0.00597
6277.83944	0.00598
6275.91077	0.00600
6273.98209	0.00601
6272.05342	0.00603
6270.12474	0.00604
6268.19607	0.00605
6266.26739	0.00606
6264.33871	0.00607
6262.41004	0.00607
6260.48136	0.00607
6258.55269	0.00609
6256.62401	0.00612
6254.69534	0.00614
6252.76666	0.00617
6250.83798	0.00619
6248.90931	0.00619
6246.98063	0.00620
6245.05196	0.00622
6243.12328	0.00623
6241.19461	0.00623
6239.26593	0.00623
6237.33725	0.00625
6235.40858	0.00626
6233.47990	0.00627
6231.55123	0.00627
6229.62255	0.00629
6227.69388	0.00632
6225.76520	0.00633
6223.83652	0.00635
6221.90785	0.00636
6219.97917	0.00637
6218.05050	0.00638
6216.12182	0.00638
6214.19315	0.00640
6212.26447	0.00643
6210.33579	0.00647
6208.40712	0.00649
6206.47844	0.00649
6204.54977	0.00647
6202.62109	0.00647
6200.69242	0.00650
6198.76374	0.00653
6196.83506	0.00655
6194.90639	0.00657
6192.97771	0.00659
6191.04904	0.00657
6189.12036	0.00657
6187.19169	0.00660
6185.26301	0.00662
6183.33433	0.00662
6181.40566	0.00662
6179.47698	0.00664
6177.54831	0.00666
6175.61963	0.00668
6173.69096	0.00669
6171.76228	0.00670
6169.83360	0.00671
6167.90493	0.00674
6165.97625	0.00676
6164.04758	0.00678
6162.11890	0.00679
6160.19023	0.00680
6158.26155	0.00681
6156.33287	0.00681
6154.40420	0.00682
6152.47552	0.00683
6150.54685	0.00684
6148.61817	0.00686
6146.68950	0.00688
6144.76082	0.00691
6142.83214	0.00694
6140.90347	0.00697
6138.97479	0.00699
6137.04612	0.00698
6135.11744	0.00698
6133.18877	0.00700
6131.26009	0.00702
6129.33141	0.00703
6127.40274	0.00704
6125.47406	0.00704
6123.54539	0.00706
6121.61671	0.00707
6119.68804	0.00707
6117.75936	0.00708
6115.83068	0.00710
6113.90201	0.00713
6111.97333	0.00715
6110.04466	0.00717
6108.11598	0.00718
6106.18731	0.00721
6104.25863	0.00722
6102.32995	0.00722
6100.40128	0.00723
6098.47260	0.00726
6096.54393	0.00728
6094.61525	0.00729
6092.68658	0.00731
6090.75790	0.00733
6088.82922	0.00734
6086.90055	0.00734
6084.97187	0.00735
6083.04320	0.00738
6081.11452	0.00740
6079.18585	0.00741
6077.25717	0.00742
6075.32849	0.00744
6073.39982	0.00745
6071.47114	0.00748
6069.54247	0.00749
6067.61379	0.00749
6065.68512	0.00751
6063.75644	0.00755
6061.82776	0.00758
6059.89909	0.00758
6057.97041	0.00758
6056.04174	0.00759
6054.11306	0.00759
6052.18439	0.00761
6050.25571	0.00762
6048.32703	0.00764
6046.39836	0.00766
6044.46968	0.00768
6042.54101	0.00769
6040.61233	0.00771
6038.68366	0.00774
6036.75498	0.00776
6034.82630	0.00778
6032.89763	0.00780
6030.96895	0.00782
6029.04028	0.00784
6027.11160	0.00785
6025.18293	0.00786
6023.25425	0.00787
6021.32557	0.00788
6019.39690	0.00789
6017.46822	0.00790
6015.53955	0.00791
6013.61087	0.00793
6011.68220	0.00795
6009.75352	0.00798
6007.82484	0.00800
6005.89617	0.00803
6003.96749	0.00807
6002.03882	0.00809
6000.11014	0.00809
5998.18147	0.00808
5996.25279	0.00808
5994.32411	0.00810
5992.39544	0.00814
5990.46676	0.00817
5988.53809	0.00820
5986.60941	0.00821
5984.68074	0.00822
5982.75206	0.00822
5980.82338	0.00825
5978.89471	0.00827
5976.96603	0.00828
5975.03736	0.00830
5973.10868	0.00832
5971.18001	0.00833
5969.25133	0.00835
5967.32265	0.00836
5965.39398	0.00837
5963.46530	0.00838
5961.53663	0.00841
5959.60795	0.00844
5957.67928	0.00847
5955.75060	0.00850
5953.82192	0.00851
5951.89325	0.00853
5949.96457	0.00854
5948.03590	0.00855
5946.10722	0.00857
5944.17855	0.00858
5942.24987	0.00860
5940.32119	0.00861
5938.39252	0.00861
5936.46384	0.00861
5934.53517	0.00863
5932.60649	0.00865
5930.67782	0.00866
5928.74914	0.00868
5926.82046	0.00871
5924.89179	0.00873
5922.96311	0.00874
5921.03444	0.00875
5919.10576	0.00878
5917.17709	0.00880
5915.24841	0.00883
5913.31973	0.00886
5911.39106	0.00887
5909.46238	0.00888
5907.53371	0.00890
5905.60503	0.00894
5903.67636	0.00897
5901.74768	0.00898
5899.81900	0.00899
5897.89033	0.00900
5895.96165	0.00902
5894.03298	0.00902
5892.10430	0.00903
5890.17563	0.00906
5888.24695	0.00910
5886.31827	0.00913
5884.38960	0.00914
5882.46092	0.00915
5880.53225	0.00916
5878.60357	0.00918
5876.67490	0.00921
5874.74622	0.00922
5872.81755	0.00924
5870.88887	0.00926
5868.96019	0.00928
5867.03152	0.00929
5865.10284	0.00930
5863.17417	0.00932
5861.24549	0.00934
5859.31682	0.00936
5857.38814	0.00939
5855.45946	0.00941
5853.53079	0.00942
5851.60211	0.00945
5849.67344	0.00947
5847.74476	0.00948
5845.81609	0.00951
5843.88741	0.00953
5841.95873	0.00953
5840.03006	0.00953
5838.10138	0.00954
5836.17271	0.00957
5834.24403	0.00959
5832.31536	0.00962
5830.38668	0.00965
5828.45800	0.00967
5826.52933	0.00970
5824.60065	0.00974
5822.67198	0.00976
5820.74330	0.00976
5818.81463	0.00977
5816.88595	0.00978
5814.95727	0.00979
5813.02860	0.00981
5811.09992	0.00985
5809.17125	0.00989
5807.24257	0.00992
5805.31390	0.00993
5803.38522	0.00995
5801.45654	0.00997
5799.52787	0.00998
5797.59919	0.01000
5795.67052	0.01002
5793.74184	0.01003
5791.81317	0.01003
5789.88449	0.01004
5787.95581	0.01006
5786.02714	0.01010
5784.09846	0.01013
5782.16979	0.01016
5780.24111	0.01017
5778.31244	0.01018
5776.38376	0.01021
5774.45508	0.01023
5772.52641	0.01024
5770.59773	0.01027
5768.66906	0.01029
5766.74038	0.01030
5764.81171	0.01033
5762.88303	0.01037
5760.95435	0.01039
5759.02568	0.01040
5757.09700	0.01041
5755.16833	0.01043
5753.23965	0.01045
5751.31098	0.01048
5749.38230	0.01051
5747.45362	0.01052
5745.52495	0.01054
5743.59627	0.01056
5741.66760	0.01057
5739.73892	0.01059
5737.81025	0.01061
5735.88157	0.01064
5733.95289	0.01067
5732.02422	0.01071
5730.09554	0.01072
5728.16687	0.01073
5726.23819	0.01073
5724.30952	0.01073
5722.38084	0.01075
5720.45216	0.01079
5718.52349	0.01083
5716.59481	0.01086
5714.66614	0.01088
5712.73746	0.01090
5710.80879	0.01092
5708.88011	0.01095
5706.95143	0.01097
5705.02276	0.01101
5703.09408	0.01103
5701.16541	0.01104
5699.23673	0.01106
5697.30806	0.01110
5695.37938	0.01113
5693.45070	0.01115
5691.52203	0.01116
5689.59335	0.01118
5687.66468	0.01119
5685.73600	0.01120
5683.80733	0.01123
5681.87865	0.01126
5679.94997	0.01128
5678.02130	0.01131
5676.09262	0.01134
5674.16395	0.01136
5672.23527	0.01137
5670.30660	0.01138
5668.37792	0.01140
5666.44924	0.01142
5664.52057	0.01146
5662.59189	0.01150
5660.66322	0.01153
5658.73454	0.01154
5656.80587	0.01154
5654.87719	0.01155
5652.94851	0.01157
5651.01984	0.01161
5649.09116	0.01164
5647.16249	0.01164
5645.23381	0.01164
5643.30514	0.01166
5641.37646	0.01169
5639.44778	0.01172
5637.51911	0.01175
5635.59043	0.01177
5633.66176	0.01180
5631.73308	0.01183
5629.80441	0.01185
5627.87573	0.01186
5625.94705	0.01188
5624.01838	0.01193
5622.08970	0.01198
5620.16103	0.01201
5618.23235	0.01203
5616.30368	0.01204
5614.37500	0.01204
5612.44632	0.01206
5610.51765	0.01208
5608.58897	0.01211
5606.66030	0.01214
5604.73162	0.01217
5602.80295	0.01219
5600.87427	0.01221
5598.94559	0.01224
5597.01692	0.01227
5595.08824	0.01229
5593.15957	0.01230
5591.23089	0.01233
5589.30222	0.01235
5587.37354	0.01237
5585.44486	0.01239
5583.51619	0.01242
5581.58751	0.01243
5579.65884	0.01245
5577.73016	0.01248
5575.80149	0.01251
5573.87281	0.01253
5571.94413	0.01256
5570.01546	0.01258
5568.08678	0.01259
5566.15811	0.01261
5564.22943	0.01264
5562.30076	0.01268
5560.37208	0.01270
5558.44340	0.01273
5556.51473	0.01277
5554.58605	0.01281
5552.65738	0.01284
5550.72870	0.01285
5548.80003	0.01285
5546.87135	0.01287
5544.94267	0.01290
5543.01400	0.01292
5541.08532	0.01295
5539.15665	0.01297
5537.22797	0.01297
5535.29930	0.01299
5533.37062	0.01302
5531.44194	0.01307
5529.51327	0.01312
5527.58459	0.01314
5525.65592	0.01316
5523.72724	0.01317
5521.79857	0.01318
5519.86989	0.01321
5517.94121	0.01323
5516.01254	0.01326
5514.08386	0.01328
5512.15519	0.01331
5510.22651	0.01335
5508.29784	0.01338
5506.36916	0.01338
5504.44048	0.01339
5502.51181	0.01343
5500.58313	0.01346
5498.65446	0.01348
5496.72578	0.01350
5494.79711	0.01352
5492.86843	0.01355
5490.93975	0.01358
5489.01108	0.01361
5487.08240	0.01364
5485.15373	0.01366
5483.22505	0.01367
5481.29638	0.01369
5479.36770	0.01372
5477.43902	0.01374
5475.51035	0.01374
5473.58167	0.01377
5471.65300	0.01382
5469.72432	0.01385
5467.79565	0.01388
5465.86697	0.01392
5463.93829	0.01395
5462.00962	0.01398
5460.08094	0.01399
5458.15227	0.01401
5456.22359	0.01402
5454.29492	0.01404
5452.36624	0.01406
5450.43756	0.01408
5448.50889	0.01412
5446.58021	0.01416
5444.65154	0.01421
5442.72286	0.01424
5440.79419	0.01426
5438.86551	0.01427
5436.93683	0.01430
5435.00816	0.01433
5433.07948	0.01437
5431.15081	0.01438
5429.22213	0.01438
5427.29346	0.01440
5425.36478	0.01445
5423.43610	0.01450
5421.50743	0.01453
5419.57875	0.01456
5417.65008	0.01459
5415.72140	0.01459
5413.79273	0.01458
5411.86405	0.01458
5409.93537	0.01459
5408.00670	0.01463
5406.07802	0.01467
5404.14935	0.01471
5402.22067	0.01475
5400.29200	0.01478
5398.36332	0.01481
5396.43464	0.01483
5394.50597	0.01486
5392.57729	0.01490
5390.64862	0.01495
5388.71994	0.01500
5386.79127	0.01502
5384.86259	0.01503
5382.93391	0.01505
5381.00524	0.01507
5379.07656	0.01509
5377.14789	0.01510
5375.21921	0.01512
5373.29054	0.01516
5371.36186	0.01521
5369.43318	0.01526
5367.50451	0.01527
5365.57583	0.01528
5363.64716	0.01530
5361.71848	0.01532
5359.78981	0.01535
5357.86113	0.01538
5355.93245	0.01540
5354.00378	0.01542
5352.07510	0.01544
5350.14643	0.01546
5348.21775	0.01549
5346.28908	0.01550
5344.36040	0.01552
5342.43172	0.01557
5340.50305	0.01561
5338.57437	0.01564
5336.64570	0.01565
5334.71702	0.01567
5332.78835	0.01571
5330.85967	0.01575
5328.93099	0.01579
5327.00232	0.01584
5325.07364	0.01588
5323.14497	0.01591
5321.21629	0.01592
5319.28762	0.01594
5317.35894	0.01596
5315.43026	0.01598
5313.50159	0.01600
5311.57291	0.01603
5309.64424	0.01606
5307.71556	0.01609
5305.78689	0.01613
5303.85821	0.01616
5301.92953	0.01619
5300.00086	0.01623
5298.07218	0.01627
5296.14351	0.01631
5294.21483	0.01633
5292.28616	0.01633
5290.35748	0.01634
5288.42880	0.01637
5286.50013	0.01641
5284.57145	0.01645
5282.64278	0.01648
5280.71410	0.01651
5278.78543	0.01653
5276.85675	0.01655
5274.92807	0.01657
5272.99940	0.01660
5271.07072	0.01664
5269.14205	0.01667
5267.21337	0.01669
5265.28470	0.01671
5263.35602	0.01674
5261.42734	0.01677
5259.49867	0.01680
5257.56999	0.01685
5255.64132	0.01688
5253.71264	0.01690
5251.78397	0.01692
5249.85529	0.01693
5247.92661	0.01697
5245.99794	0.01699
5244.06926	0.01700
5242.14059	0.01702
5240.21191	0.01707
5238.28324	0.01712
5236.35456	0.01716
5234.42588	0.01718
5232.49721	0.01719
5230.56853	0.01720
5228.63986	0.01723
5226.71118	0.01725
5224.78251	0.01728
5222.85383	0.01730
5220.92515	0.01734
5218.99648	0.01739
5217.06780	0.01743
5215.13913	0.01746
5213.21045	0.01749
5211.28178	0.01751
5209.35310	0.01752
5207.42442	0.01753
5205.49575	0.01757
5203.56707	0.01762
5201.63840	0.01766
5199.70972	0.01767
5197.78105	0.01769
5195.85237	0.01772
5193.92369	0.01776
5191.99502	0.01780
5190.06634	0.01784
5188.13767	0.01788
5186.20899	0.01791
5184.28032	0.01793
5182.35164	0.01798
5180.42296	0.01801
5178.49429	0.01804
5176.56561	0.01807
5174.63694	0.01810
5172.70826	0.01813
5170.77959	0.01814
5168.85091	0.01817
5166.92223	0.01821
5164.99356	0.01825
5163.06488	0.01827
5161.13621	0.01828
5159.20753	0.01831
5157.27886	0.01834
5155.35018	0.01837
5153.42150	0.01839
5151.49283	0.01843
5149.56415	0.01846
5147.63548	0.01849
5145.70680	0.01851
5143.77813	0.01855
5141.84945	0.01859
5139.92077	0.01862
5137.99210	0.01866
5136.06342	0.01870
5134.13475	0.01872
5132.20607	0.01874
5130.27740	0.01876
5128.34872	0.01877
5126.42004	0.01878
5124.49137	0.01882
5122.56269	0.01887
5120.63402	0.01891
5118.70534	0.01894
5116.77667	0.01898
5114.84799	0.01902
5112.91931	0.01906
5110.99064	0.01908
5109.06196	0.01908
5107.13329	0.01909
5105.20461	0.01913
5103.27594	0.01918
5101.34726	0.01921
5099.41858	0.01924
5097.48991	0.01928
5095.56123	0.01932
5093.63256	0.01934
5091.70388	0.01937
5089.77521	0.01940
5087.84653	0.01943
5085.91785	0.01946
5083.98918	0.01950
5082.06050	0.01953
5080.13183	0.01957
5078.20315	0.01962
5076.27448	0.01967
5074.34580	0.01970
5072.41712	0.01970
5070.48845	0.01971
5068.55977	0.01974
5066.63110	0.01977
5064.70242	0.01979
5062.77375	0.01983
5060.84507	0.01988
5058.91639	0.01991
5056.98772	0.01993
5055.05904	0.01996
5053.13037	0.01999
5051.20169	0.02002
5049.27302	0.02003
5047.34434	0.02006
5045.41566	0.02012
5043.48699	0.02017
5041.55831	0.02019
5039.62964	0.02021
5037.70096	0.02024
5035.77229	0.02028
5033.84361	0.02032
5031.91493	0.02035
5029.98626	0.02037
5028.05758	0.02040
5026.12891	0.02044
5024.20023	0.02047
5022.27156	0.02050
5020.34288	0.02052
5018.41420	0.02055
5016.48553	0.02058
5014.55685	0.02061
5012.62818	0.02065
5010.69950	0.02070
5008.77083	0.02074
5006.84215	0.02078
5004.91347	0.02081
5002.98480	0.02085
5001.05612	0.02088
4999.12745	0.02091
4997.19877	0.02092
4995.27010	0.02093
4993.34142	0.02097
4991.41274	0.02102
4989.48407	0.02106
4987.55539	0.02110
4985.62672	0.02114
4983.69804	0.02118
4981.76937	0.02122
4979.84069	0.02125
4977.91201	0.02127
4975.98334	0.02128
4974.05466	0.02131
4972.12599	0.02135
4970.19731	0.02138
4968.26864	0.02140
4966.33996	0.02143
4964.41128	0.02146
4962.48261	0.02150
4960.55393	0.02154
4958.62526	0.02156
4956.69658	0.02160
4954.76791	0.02166
4952.83923	0.02169
4950.91055	0.02171
4948.98188	0.02173
4947.05320	0.02175
4945.12453	0.02178
4943.19585	0.02182
4941.26718	0.02186
4939.33850	0.02190
4937.40982	0.02194
4935.48115	0.02197
4933.55247	0.02200
4931.62380	0.02204
4929.69512	0.02208
4927.76645	0.02211
4925.83777	0.02214
4923.90909	0.02217
4921.98042	0.02222
4920.05174	0.02226
4918.12307	0.02229
4916.19439	0.02233
4914.26572	0.02236
4912.33704	0.02237
4910.40836	0.02240
4908.47969	0.02244
4906.55101	0.02248
4904.62234	0.02251
4902.69366	0.02255
4900.76499	0.02258
4898.83631	0.02260
4896.90763	0.02262
4894.97896	0.02266
4893.05028	0.02271
4891.12161	0.02275
4889.19293	0.02277
4887.26426	0.02279
4885.33558	0.02285
4883.40690	0.02291
4881.47823	0.02294
4879.54955	0.02298
4877.62088	0.02302
4875.69220	0.02303
4873.76353	0.02304
4871.83485	0.02306
4869.90617	0.02311
4867.97750	0.02318
4866.04882	0.02323
4864.12015	0.02326
4862.19147	0.02331
4860.26280	0.02336
4858.33412	0.02339
4856.40544	0.02341
4854.47677	0.02343
4852.54809	0.02346
4850.61942	0.02350
4848.69074	0.02353
4846.76207	0.02354
4844.83339	0.02355
4842.90471	0.02358
4840.97604	0.02363
4839.04736	0.02368
4837.11869	0.02371
4835.19001	0.02375
4833.26134	0.02379
4831.33266	0.02384
4829.40398	0.02389
4827.47531	0.02394
4825.54663	0.02398
4823.61796	0.02401
4821.68928	0.02402
4819.76061	0.02405
4817.83193	0.02408
4815.90325	0.02411
4813.97458	0.02414
4812.04590	0.02417
4810.11723	0.02421
4808.18855	0.02426
4806.25988	0.02431
4804.33120	0.02435
4802.40252	0.02438
4800.47385	0.02441
4798.54517	0.02446
4796.61650	0.02449
4794.68782	0.02451
4792.75915	0.02453
4790.83047	0.02455
4788.90179	0.02459
4786.97312	0.02464
4785.04444	0.02470
4783.11577	0.02474
4781.18709	0.02478
4779.25842	0.02482
4777.32974	0.02484
4775.40106	0.02487
4773.47239	0.02492
4771.54371	0.02497
4769.61504	0.02501
4767.68636	0.02504
4765.75769	0.02506
4763.82901	0.02510
4761.90033	0.02515
4759.97166	0.02521
4758.04298	0.02527
4756.11431	0.02532
4754.18563	0.02536
4752.25696	0.02538
4750.32828	0.02540
4748.39960	0.02544
4746.47093	0.02549
4744.54225	0.02552
4742.61358	0.02555
4740.68490	0.02558
4738.75623	0.02562
4736.82755	0.02567
4734.89887	0.02572
4732.97020	0.02575
4731.04152	0.02576
4729.11285	0.02579
4727.18417	0.02585
4725.25550	0.02591
4723.32682	0.02595
4721.39814	0.02597
4719.46947	0.02600
4717.54079	0.02607
4715.61212	0.02611
4713.68344	0.02613
4711.75477	0.02617
4709.82609	0.02623
4707.89741	0.02625
4705.96874	0.02626
4704.04006	0.02628
4702.11139	0.02631
4700.18271	0.02637
4698.25404	0.02644
4696.32536	0.02649
4694.39668	0.02652
4692.46801	0.02654
4690.53933	0.02656
4688.61066	0.02660
4686.68198	0.02665
4684.75331	0.02670
4682.82463	0.02675
4680.89595	0.02680
4678.96728	0.02685
4677.03860	0.02690
4675.10993	0.02692
4673.18125	0.02695
4671.25258	0.02700
4669.32390	0.02703
4667.39522	0.02706
4665.46655	0.02709
4663.53787	0.02714
4661.60920	0.02718
4659.68052	0.02724
4657.75185	0.02729
4655.82317	0.02732
4653.89449	0.02735
4651.96582	0.02739
4650.03714	0.02743
4648.10847	0.02748
4646.17979	0.02753
4644.25112	0.02759
4642.32244	0.02764
4640.39376	0.02769
4638.46509	0.02773
4636.53641	0.02777
4634.60774	0.02781
4632.67906	0.02784
4630.75039	0.02786
4628.82171	0.02790
4626.89303	0.02794
4624.96436	0.02797
4623.03568	0.02801
4621.10701	0.02807
4619.17833	0.02812
4617.24966	0.02817
4615.32098	0.02822
4613.39230	0.02827
4611.46363	0.02832
4609.53495	0.02836
4607.60628	0.02842
4605.67760	0.02846
4603.74893	0.02850
4601.82025	0.02854
4599.89157	0.02859
4597.96290	0.02863
4596.03422	0.02866
4594.10555	0.02870
4592.17687	0.02874
4590.24820	0.02880
4588.31952	0.02887
4586.39084	0.02892
4584.46217	0.02897
4582.53349	0.02900
4580.60482	0.02904
4578.67614	0.02907
4576.74747	0.02911
4574.81879	0.02915
4572.89011	0.02920
4570.96144	0.02925
4569.03276	0.02929
4567.10409	0.02933
4565.17541	0.02936
4563.24674	0.02940
4561.31806	0.02946
4559.38938	0.02952
4557.46071	0.02958
4555.53203	0.02963
4553.60336	0.02966
4551.67468	0.02968
4549.74601	0.02972
4547.81733	0.02977
4545.88865	0.02983
4543.95998	0.02991
4542.03130	0.02997
4540.10263	0.02999
4538.17395	0.03003
4536.24528	0.03008
4534.31660	0.03012
4532.38792	0.03015
4530.45925	0.03021
4528.53057	0.03027
4526.60190	0.03032
4524.67322	0.03036
4522.74455	0.03039
4520.81587	0.03045
4518.88719	0.03051
4516.95852	0.03056
4515.02984	0.03059
4513.10117	0.03063
4511.17249	0.03068
4509.24382	0.03075
4507.31514	0.03081
4505.38646	0.03087
4503.45779	0.03091
4501.52911	0.03096
4499.60044	0.03099
4497.67176	0.03102
4495.74309	0.03107
4493.81441	0.03113
4491.88573	0.03118
4489.95706	0.03123
4488.02838	0.03129
4486.09971	0.03132
4484.17103	0.03133
4482.24236	0.03138
4480.31368	0.03145
4478.38500	0.03153
4476.45633	0.03159
4474.52765	0.03165
4472.59898	0.03170
4470.67030	0.03175
4468.74163	0.03181
4466.81295	0.03187
4464.88427	0.03190
4462.95560	0.03192
4461.02692	0.03196
4459.09825	0.03200
4457.16957	0.03204
4455.24090	0.03210
4453.31222	0.03216
4451.38354	0.03223
4449.45487	0.03230
4447.52619	0.03235
4445.59752	0.03240
4443.66884	0.03245
4441.74017	0.03249
4439.81149	0.03253
4437.88281	0.03258
4435.95414	0.03266
4434.02546	0.03273
4432.09679	0.03278
4430.16811	0.03283
4428.23944	0.03288
4426.31076	0.03293
4424.38208	0.03299
4422.45341	0.03304
4420.52473	0.03308
4418.59606	0.03313
4416.66738	0.03320
4414.73871	0.03327
4412.81003	0.03332
4410.88135	0.03336
4408.95268	0.03341
4407.02400	0.03347
4405.09533	0.03353
4403.16665	0.03360
4401.23798	0.03365
4399.30930	0.03371
4397.38062	0.03374
4395.45195	0.03377
4393.52327	0.03383
4391.59460	0.03390
4389.66592	0.03396
4387.73725	0.03400
4385.80857	0.03405
4383.87989	0.03411
4381.95122	0.03419
4380.02254	0.03426
4378.09387	0.03432
4376.16519	0.03437
4374.23652	0.03441
4372.30784	0.03446
4370.37916	0.03453
4368.45049	0.03458
4366.52181	0.03463
4364.59314	0.03468
4362.66446	0.03474
4360.73579	0.03480
4358.80711	0.03486
4356.87843	0.03492
4354.94976	0.03498
4353.02108	0.03505
4351.09241	0.03511
4349.16373	0.03515
4347.23506	0.03520
4345.30638	0.03528
4343.37770	0.03534
4341.44903	0.03536
4339.52035	0.03541
4337.59168	0.03547
4335.66300	0.03555
4333.73433	0.03563
4331.80565	0.03572
4329.87697	0.03578
4327.94830	0.03583
4326.01962	0.03587
4324.09095	0.03591
4322.16227	0.03597
4320.23360	0.03602
4318.30492	0.03609
4316.37624	0.03616
4314.44757	0.03623
4312.51889	0.03628
4310.59022	0.03633
4308.66154	0.03641
4306.73287	0.03650
4304.80419	0.03657
4302.87551	0.03662
4300.94684	0.03667
4299.01816	0.03673
4297.08949	0.03679
4295.16081	0.03683
4293.23214	0.03690
4291.30346	0.03697
4289.37478	0.03705
4287.44611	0.03714
4285.51743	0.03721
4283.58876	0.03728
4281.66008	0.03733
4279.73141	0.03739
4277.80273	0.03746
4275.87405	0.03754
4273.94538	0.03762
4272.01670	0.03768
4270.08803	0.03774
4268.15935	0.03780
4266.23068	0.03785
4264.30200	0.03790
4262.37332	0.03797
4260.44465	0.03805
4258.51597	0.03813
4256.58730	0.03820
4254.65862	0.03826
4252.72995	0.03831
4250.80127	0.03835
4248.87259	0.03842
4246.94392	0.03850
4245.01524	0.03856
4243.08657	0.03861
4241.15789	0.03868
4239.22922	0.03879
4237.30054	0.03888
4235.37186	0.03895
4233.44319	0.03896
4231.51451	0.03898
4229.58584	0.03903
4227.65716	0.03910
4225.72849	0.03919
4223.79981	0.03928
4221.87113	0.03936
4219.94246	0.03942
4218.01378	0.03949
4216.08511	0.03955
4214.15643	0.03962
4212.22776	0.03969
4210.29908	0.03977
4208.37040	0.03985
4206.44173	0.03992
4204.51305	0.03997
4202.58438	0.04004
4200.65570	0.04012
4198.72703	0.04020
4196.79835	0.04027
4194.86968	0.04033
4192.94100	0.04040
4191.01232	0.04047
4189.08365	0.04055
4187.15497	0.04063
4185.22630	0.04069
4183.29762	0.04074
4181.36895	0.04081
4179.44027	0.04090
4177.51159	0.04099
4175.58292	0.04106
4173.65424	0.04113
4171.72557	0.04121
4169.79689	0.04128
4167.86822	0.04135
4165.93954	0.04141
4164.01086	0.04145
4162.08219	0.04152
4160.15351	0.04160
4158.22484	0.04170
4156.29616	0.04179
4154.36749	0.04187
4152.43881	0.04195
4150.51013	0.04201
4148.58146	0.04206
4146.65278	0.04211
4144.72411	0.04218
4142.79543	0.04225
4140.86676	0.04234
4138.93808	0.04243
4137.00940	0.04251
4135.08073	0.04258
4133.15205	0.04264
4131.22338	0.04270
4129.29470	0.04279
4127.36603	0.04289
4125.43735	0.04297
4123.50867	0.04303
4121.58000	0.04309
4119.65132	0.04317
4117.72265	0.04323
4115.79397	0.04331
4113.86530	0.04340
4111.93662	0.04346
4110.00794	0.04352
4108.07927	0.04359
4106.15059	0.04369
4104.22192	0.04378
4102.29324	0.04387
4100.36457	0.04397
4098.43589	0.04406
4096.50721	0.04413
4094.57854	0.04421
4092.64986	0.04429
4090.72119	0.04437
4088.79251	0.04444
4086.86384	0.04450
4084.93516	0.04455
4083.00648	0.04464
4081.07781	0.04473
4079.14913	0.04480
4077.22046	0.04487
4075.29178	0.04496
4073.36311	0.04506
4071.43443	0.04513
4069.50575	0.04520
4067.57708	0.04528
4065.64840	0.04536
4063.71973	0.04545
4061.79105	0.04554
4059.86238	0.04563
4057.93370	0.04571
4056.00502	0.04579
4054.07635	0.04587
4052.14767	0.04592
4050.21900	0.04597
4048.29032	0.04604
4046.36165	0.04614
4044.43297	0.04622
4042.50429	0.04628
4040.57562	0.04635
4038.64694	0.04645
4036.71827	0.04656
4034.78959	0.04665
4032.86092	0.04674
4030.93224	0.04685
4029.00356	0.04693
4027.07489	0.04700
4025.14621	0.04708
4023.21754	0.04716
4021.28886	0.04724
4019.36019	0.04732
4017.43151	0.04740
4015.50283	0.04747
4013.57416	0.04754
4011.64548	0.04761
4009.71681	0.04768
4007.78813	0.04776
4005.85946	0.04786
4003.93078	0.04797
4002.00210	0.04809
4000.07343	0.04819
3998.14475	0.04827
3996.21608	0.04832
3994.28740	0.04840
3992.35873	0.04852
3990.43005	0.04864
3988.50137	0.04873
3986.57270	0.04879
3984.64402	0.04884
3982.71535	0.04891
3980.78667	0.04900
3978.85800	0.04908
3976.92932	0.04916
3975.00064	0.04925
3973.07197	0.04936
3971.14329	0.04945
3969.21462	0.04953
3967.28594	0.04962
3965.35727	0.04973
3963.42859	0.04982
3961.49991	0.04990
3959.57124	0.04996
3957.64256	0.05004
3955.71389	0.05013
3953.78521	0.05022
3951.85654	0.05030
3949.92786	0.05036
3947.99918	0.05042
3946.07051	0.05049
3944.14183	0.05059
3942.21316	0.05072
3940.28448	0.05086
3938.35581	0.05097
3936.42713	0.05103
3934.49845	0.05105
3932.56978	0.05108
3930.64110	0.05118
3928.71243	0.05131
3926.78375	0.05143
3924.85508	0.05153
3922.92640	0.05163
3920.99772	0.05172
3919.06905	0.05176
3917.14037	0.05183
3915.21170	0.05197
3913.28302	0.05212
3911.35435	0.05223
3909.42567	0.05230
3907.49699	0.05230
3905.56832	0.05227
3903.63964	0.05228
3901.71097	0.05234
3899.78229	0.05246
3897.85362	0.05266
3895.92494	0.05286
3893.99626	0.05293
3892.06759	0.05297
3890.13891	0.05309
3888.21024	0.05318
3886.28156	0.05318
3884.35289	0.05324
3882.42421	0.05334
3880.49553	0.05344
3878.56686	0.05359
3876.63818	0.05372
3874.70951	0.05379
3872.78083	0.05382
3870.85216	0.05383
3868.92348	0.05393
3866.99480	0.05409
3865.06613	0.05418
3863.13745	0.05428
3861.20878	0.05446
3859.28010	0.05461
3857.35143	0.05452
3855.42275	0.05423
3853.49407	0.05421
3851.56540	0.05461
3849.63672	0.05505
3847.70805	0.05527
3845.77937	0.05533
3843.85070	0.05533
3841.92202	0.05536
3839.99334	0.05542
3838.06467	0.05550
3836.13599	0.05561
3834.20732	0.05574
3832.27864	0.05588
3830.34997	0.05603
3828.42129	0.05618
3826.49261	0.05628
3824.56394	0.05631
3822.63526	0.05624
3820.70659	0.05627
3818.77791	0.05646
3816.84924	0.05663
3814.92056	0.05678
3812.99188	0.05697
3811.06321	0.05712
3809.13453	0.05716
3807.20586	0.05719
3805.27718	0.05725
3803.34851	0.05725
3801.41983	0.05728
3799.49115	0.05745
3797.56248	0.05764
3795.63380	0.05781
3793.70513	0.05798
3791.77645	0.05811
3789.84778	0.05820
3787.91910	0.05828
3785.99042	0.05838
3784.06175	0.05849
3782.13307	0.05856
3780.20440	0.05858
3778.27572	0.05869
3776.34705	0.05888
3774.41837	0.05901
3772.48969	0.05907
3770.56102	0.05910
3768.63234	0.05918
3766.70367	0.05928
3764.77499	0.05940
3762.84632	0.05950
3760.91764	0.05954
3758.98896	0.05961
3757.06029	0.05973
3755.13161	0.05978
3753.20294	0.05970
3751.27426	0.05959
3749.34559	0.05967
3747.41691	0.05982
3745.48823	0.05988
3743.55956	0.06007
3741.63088	0.06041
3739.70221	0.06058
3737.77353	0.06053
3735.84486	0.06049
3733.91618	0.06063
3731.98750	0.06090
3730.05883	0.06113
3728.13015	0.06123
3726.20148	0.06130
3724.27280	0.06140
3722.34413	0.06153
3720.41545	0.06166
3718.48677	0.06180
3716.55810	0.06190
3714.62942	0.06188
3712.70075	0.06180
3710.77207	0.06187
3708.84340	0.06212
3706.91472	0.06237
3704.98604	0.06251
3703.05737	0.06256
3701.12869	0.06264
3699.20002	0.06277
3697.27134	0.06289
3695.34267	0.06297
3693.41399	0.06300
3691.48531	0.06297
3689.55664	0.06296
3687.62796	0.06312
3685.69929	0.06339
3683.77061	0.06358
3681.84194	0.06366
3679.91326	0.06369
3677.98458	0.06365
3676.05591	0.06358
3674.12723	0.06362
3672.19856	0.06373
3670.26988	0.06382
3668.34121	0.06404
3666.41253	0.06435
3664.48385	0.06456
3662.55518	0.06467
3660.62650	0.06474
3658.69783	0.06475
3656.76915	0.06475
3654.84048	0.06480
3652.91180	0.06478
3650.98312	0.06463
3649.05445	0.06455
3647.12577	0.06470
3645.19710	0.06503
3643.26842	0.06533
3641.33975	0.06552
3639.41107	0.06564
3637.48239	0.06574
3635.55372	0.06581
3633.62504	0.06582
3631.69637	0.06569
3629.76769	0.06556
3627.83902	0.06572
3625.91034	0.06611
3623.98166	0.06636
3622.05299	0.06637
3620.12431	0.06632
3618.19564	0.06634
3616.26696	0.06642
3614.33829	0.06649
3612.40961	0.06656
3610.48093	0.06660
3608.55226	0.06668
3606.62358	0.06684
3604.69491	0.06701
3602.76623	0.06711
3600.83756	0.06717
3598.90888	0.06725
3596.98020	0.06733
3595.05153	0.06740
3593.12285	0.06747
3591.19418	0.06750
3589.26550	0.06747
3587.33683	0.06752
3585.40815	0.06772
3583.47947	0.06792
3581.55080	0.06803
3579.62212	0.06812
3577.69345	0.06820
3575.76477	0.06829
3573.83610	0.06837
3571.90742	0.06841
3569.97874	0.06838
3568.05007	0.06836
3566.12139	0.06847
3564.19272	0.06866
3562.26404	0.06881
3560.33537	0.06892
3558.40669	0.06902
3556.47801	0.06909
3554.54934	0.06911
3552.62066	0.06915
3550.69199	0.06923
3548.76331	0.06929
3546.83464	0.06935
3544.90596	0.06944
3542.97728	0.06955
3541.04861	0.06964
3539.11993	0.06972
3537.19126	0.06976
3535.26258	0.06979
3533.33391	0.06985
3531.40523	0.06990
3529.47655	0.06991
3527.54788	0.06993
3525.61920	0.06996
3523.69053	0.06999
3521.76185	0.07005
3519.83318	0.07013
3517.90450	0.07020
3515.97582	0.07024
3514.04715	0.07027
3512.11847	0.07030
3510.18980	0.07035
3508.26112	0.07041
3506.33245	0.07046
3504.40377	0.07047
3502.47509	0.07049
3500.54642	0.07053
3498.61774	0.07055
3496.68907	0.07054
3494.76039	0.07057
3492.83172	0.07062
3490.90304	0.07065
3488.97436	0.07066
3487.04569	0.07067
3485.11701	0.07069
3483.18834	0.07073
3481.25966	0.07080
3479.33099	0.07091
3477.40231	0.07099
3475.47363	0.07106
3473.54496	0.07112
3471.61628	0.07117
3469.68761	0.07125
3467.75893	0.07137
3465.83026	0.07149
3463.90158	0.07159
3461.97290	0.07171
3460.04423	0.07183
3458.11555	0.07193
3456.18688	0.07200
3454.25820	0.07207
3452.32953	0.07217
3450.40085	0.07227
3448.47217	0.07237
3446.54350	0.07247
3444.61482	0.07259
3442.68615	0.07272
3440.75747	0.07286
3438.82880	0.07304
3436.90012	0.07324
3434.97144	0.07345
3433.04277	0.07364
3431.11409	0.07384
3429.18542	0.07407
3427.25674	0.07434
3425.32807	0.07458
3423.39939	0.07477
3421.47071	0.07492
3419.54204	0.07511
3417.61336	0.07531
3415.68469	0.07549
3413.75601	0.07565
3411.82734	0.07580
3409.89866	0.07594
3407.96998	0.07607
3406.04131	0.07620
3404.11263	0.07633
3402.18396	0.07648
3400.25528	0.07667
3398.32661	0.07684
3396.39793	0.07696
3394.46925	0.07708
3392.54058	0.07723
3390.61190	0.07740
3388.68323	0.07756
3386.75455	0.07772
3384.82588	0.07788
3382.89720	0.07804
3380.96852	0.07819
3379.03985	0.07832
3377.11117	0.07843
3375.18250	0.07854
3373.25382	0.07869
3371.32515	0.07884
3369.39647	0.07899
3367.46779	0.07912
3365.53912	0.07924
3363.61044	0.07937
3361.68177	0.07952
3359.75309	0.07966
3357.82442	0.07978
3355.89574	0.07992
3353.96706	0.08008
3352.03839	0.08022
3350.10971	0.08033
3348.18104	0.08044
3346.25236	0.08057
3344.32369	0.08071
3342.39501	0.08085
3340.46633	0.08097
3338.53766	0.08109
3336.60898	0.08120
3334.68031	0.08132
3332.75163	0.08146
3330.82296	0.08161
3328.89428	0.08176
3326.96560	0.08192
3325.03693	0.08205
3323.10825	0.08215
3321.17958	0.08227
3319.25090	0.08241
3317.32223	0.08255
3315.39355	0.08268
3313.46487	0.08282
3311.53620	0.08296
3309.60752	0.08310
3307.67885	0.08326
3305.75017	0.08341
3303.82150	0.08355
3301.89282	0.08367
3299.96414	0.08379
3298.03547	0.08392
3296.10679	0.08406
3294.17812	0.08422
3292.24944	0.08439
3290.32077	0.08453
3288.39209	0.08466
3286.46341	0.08480
3284.53474	0.08496
3282.60606	0.08513
3280.67739	0.08528
3278.74871	0.08540
3276.82004	0.08553
3274.89136	0.08568
3272.96268	0.08584
3271.03401	0.08596
3269.10533	0.08607
3267.17666	0.08622
3265.24798	0.08639
3263.31931	0.08653
3261.39063	0.08666
3259.46195	0.08680
3257.53328	0.08693
3255.60460	0.08706
3253.67593	0.08721
3251.74725	0.08739
3249.81858	0.08758
3247.88990	0.08774
3245.96122	0.08786
3244.03255	0.08797
3242.10387	0.08811
3240.17520	0.08828
3238.24652	0.08844
3236.31785	0.08859
3234.38917	0.08874
3232.46049	0.08889
3230.53182	0.08903
3228.60314	0.08916
3226.67447	0.08930
3224.74579	0.08946
3222.81712	0.08962
3220.88844	0.08975
3218.95976	0.08986
3217.03109	0.09001
3215.10241	0.09016
3213.17374	0.09028
3211.24506	0.09040
3209.31639	0.09055
3207.38771	0.09071
3205.45903	0.09086
3203.53036	0.09101
3201.60168	0.09118
3199.67301	0.09135
3197.74433	0.09148
3195.81566	0.09157
3193.88698	0.09169
3191.95830	0.09188
3190.02963	0.09209
3188.10095	0.09227
3186.17228	0.09242
3184.24360	0.09256
3182.31493	0.09268
3180.38625	0.09280
3178.45757	0.09294
3176.52890	0.09310
3174.60022	0.09327
3172.67155	0.09342
3170.74287	0.09356
3168.81420	0.09370
3166.88552	0.09388
3164.95684	0.09406
3163.02817	0.09423
3161.09949	0.09439
3159.17082	0.09454
3157.24214	0.09467
3155.31347	0.09480
3153.38479	0.09496
3151.45611	0.09511
3149.52744	0.09523
3147.59876	0.09532
3145.67009	0.09545
3143.74141	0.09560
3141.81274	0.09576
3139.88406	0.09593
3137.95538	0.09612
3136.02671	0.09628
3134.09803	0.09639
3132.16936	0.09651
3130.24068	0.09667
3128.31201	0.09685
3126.38333	0.09702
3124.45465	0.09715
3122.52598	0.09723
3120.59730	0.09731
3118.66863	0.09747
3116.73995	0.09768
3114.81128	0.09787
3112.88260	0.09801
3110.95392	0.09812
3109.02525	0.09825
3107.09657	0.09839
3105.16790	0.09854
3103.23922	0.09867
3101.31055	0.09879
3099.38187	0.09891
3097.45319	0.09905
3095.52452	0.09922
3093.59584	0.09940
3091.66717	0.09958
3089.73849	0.09973
3087.80982	0.09988
3085.88114	0.10002
3083.95246	0.10014
3082.02379	0.10023
3080.09511	0.10036
3078.16644	0.10053
3076.23776	0.10072
3074.30909	0.10087
3072.38041	0.10099
3070.45173	0.10112
3068.52306	0.10127
3066.59438	0.10141
3064.66571	0.10155
3062.73703	0.10169
3060.80836	0.10184
3058.87968	0.10199
3056.95100	0.10214
3055.02233	0.10230
3053.09365	0.10245
3051.16498	0.10258
3049.23630	0.10269
3047.30763	0.10283
3045.37895	0.10298
3043.45027	0.10313
3041.52160	0.10329
3039.59292	0.10343
3037.66425	0.10356
3035.73557	0.10367
3033.80690	0.10379
3031.87822	0.10394
3029.94954	0.10410
3028.02087	0.10426
3026.09219	0.10440
3024.16352	0.10454
3022.23484	0.10469
3020.30617	0.10480
3018.37749	0.10487
3016.44881	0.10494
3014.52014	0.10505
3012.59146	0.10517
3010.66279	0.10532
3008.73411	0.10550
3006.80544	0.10566
3004.87676	0.10576
3002.94808	0.10582
3001.01941	0.10589
2999.09073	0.10596
2997.16206	0.10603
2995.23338	0.10610
2993.30471	0.10619
2991.37603	0.10628
2989.44735	0.10633
2987.51868	0.10633
2985.59000	0.10629
2983.66133	0.10620
2981.73265	0.10610
2979.80398	0.10598
2977.87530	0.10584
2975.94662	0.10564
2974.01795	0.10537
2972.08927	0.10503
2970.16060	0.10467
2968.23192	0.10431
2966.30325	0.10403
2964.37457	0.10386
2962.44589	0.10380
2960.51722	0.10386
2958.58854	0.10406
2956.65987	0.10440
2954.73119	0.10487
2952.80252	0.10548
2950.87384	0.10615
2948.94516	0.10677
2947.01649	0.10728
2945.08781	0.10770
2943.15914	0.10802
2941.23046	0.10824
2939.30179	0.10838
2937.37311	0.10844
2935.44443	0.10845
2933.51576	0.10843
2931.58708	0.10840
2929.65841	0.10837
2927.72973	0.10834
2925.80106	0.10830
2923.87238	0.10825
2921.94370	0.10819
2920.01503	0.10820
2918.08635	0.10832
2916.15768	0.10857
2914.22900	0.10894
2912.30033	0.10938
2910.37165	0.10980
2908.44297	0.11016
2906.51430	0.11044
2904.58562	0.11069
2902.65695	0.11094
2900.72827	0.11117
2898.79960	0.11140
2896.87092	0.11168
2894.94224	0.11198
2893.01357	0.11229
2891.08489	0.11259
2889.15622	0.11287
2887.22754	0.11311
2885.29887	0.11333
2883.37019	0.11355
2881.44151	0.11374
2879.51284	0.11391
2877.58416	0.11407
2875.65549	0.11423
2873.72681	0.11440
2871.79814	0.11458
2869.86946	0.11479
2867.94078	0.11495
2866.01211	0.11507
2864.08343	0.11521
2862.15476	0.11533
2860.22608	0.11539
2858.29741	0.11541
2856.36873	0.11542
2854.44005	0.11541
2852.51138	0.11541
2850.58270	0.11553
2848.65403	0.11583
2846.72535	0.11631
2844.79668	0.11684
2842.86800	0.11729
2840.93932	0.11764
2839.01065	0.11795
2837.08197	0.11821
2835.15330	0.11844
2833.22462	0.11864
2831.29595	0.11883
2829.36727	0.11901
2827.43859	0.11922
2825.50992	0.11944
2823.58124	0.11964
2821.65257	0.11979
2819.72389	0.11994
2817.79522	0.12011
2815.86654	0.12028
2813.93786	0.12045
2812.00919	0.12064
2810.08051	0.12082
2808.15184	0.12097
2806.22316	0.12111
2804.29449	0.12127
2802.36581	0.12143
2800.43713	0.12156
2798.50846	0.12168
2796.57978	0.12185
2794.65111	0.12204
2792.72243	0.12223
2790.79376	0.12243
2788.86508	0.12263
2786.93640	0.12278
2785.00773	0.12290
2783.07905	0.12305
2781.15038	0.12324
2779.22170	0.12341
2777.29303	0.12359
2775.36435	0.12376
2773.43567	0.12392
2771.50700	0.12407
2769.57832	0.12421
2767.64965	0.12434
2765.72097	0.12448
2763.79230	0.12466
2761.86362	0.12486
2759.93494	0.12504
2758.00627	0.12519
2756.07759	0.12531
2754.14892	0.12541
2752.22024	0.12554
2750.29157	0.12572
2748.36289	0.12590
2746.43421	0.12604
2744.50554	0.12614
2742.57686	0.12627
2740.64819	0.12644
2738.71951	0.12661
2736.79084	0.12674
2734.86216	0.12688
2732.93348	0.12706
2731.00481	0.12724
2729.07613	0.12739
2727.14746	0.12750
2725.21878	0.12762
2723.29011	0.12777
2721.36143	0.12792
2719.43275	0.12808
2717.50408	0.12825
2715.57540	0.12842
2713.64673	0.12857
2711.71805	0.12871
2709.78938	0.12884
2707.86070	0.12895
2705.93202	0.12907
2704.00335	0.12923
2702.07467	0.12940
2700.14600	0.12955
2698.21732	0.12968
2696.28865	0.12982
2694.35997	0.12997
2692.43129	0.13010
2690.50262	0.13022
2688.57394	0.13036
2686.64527	0.13051
2684.71659	0.13064
2682.78792	0.13075
2680.85924	0.13087
2678.93056	0.13103
2677.00189	0.13121
2675.07321	0.13137
2673.14454	0.13151
2671.21586	0.13166
2669.28719	0.13180
2667.35851	0.13191
2665.42983	0.13204
2663.50116	0.13219
2661.57248	0.13234
2659.64381	0.13248
2657.71513	0.13267
2655.78646	0.13285
2653.85778	0.13299
2651.92910	0.13311
2650.00043	0.13324
2648.07175	0.13339
2646.14308	0.13354
2644.21440	0.13369
2642.28573	0.13385
2640.35705	0.13406
2638.42837	0.13429
2636.49970	0.13451
2634.57102	0.13468
2632.64235	0.13482
2630.71367	0.13496
2628.78500	0.13506
2626.85632	0.13517
2624.92764	0.13533
2622.99897	0.13551
2621.07029	0.13567
2619.14162	0.13583
2617.21294	0.13597
2615.28427	0.13610
2613.35559	0.13623
2611.42691	0.13637
2609.49824	0.13654
2607.56956	0.13673
2605.64089	0.13691
2603.71221	0.13709
2601.78354	0.13725
2599.85486	0.13741
2597.92618	0.13755
2595.99751	0.13770
2594.06883	0.13785
2592.14016	0.13800
2590.21148	0.13816
2588.28281	0.13830
2586.35413	0.13846
2584.42545	0.13862
2582.49678	0.13877
2580.56810	0.13891
2578.63943	0.13905
2576.71075	0.13919
2574.78208	0.13934
2572.85340	0.13952
2570.92472	0.13970
2568.99605	0.13983
2567.06737	0.13995
2565.13870	0.14011
2563.21002	0.14029
2561.28135	0.14044
2559.35267	0.14058
2557.42399	0.14072
2555.49532	0.14087
2553.56664	0.14101
2551.63797	0.14114
2549.70929	0.14128
2547.78062	0.14140
2545.85194	0.14154
2543.92326	0.14173
2541.99459	0.14192
2540.06591	0.14203
2538.13724	0.14213
2536.20856	0.14227
2534.27989	0.14243
2532.35121	0.14261
2530.42253	0.14279
2528.49386	0.14292
2526.56518	0.14303
2524.63651	0.14317
2522.70783	0.14333
2520.77916	0.14348
2518.85048	0.14364
2516.92181	0.14382
2514.99313	0.14401
2513.06445	0.14418
2511.13578	0.14434
2509.20710	0.14449
2507.27843	0.14464
2505.34975	0.14482
2503.42108	0.14503
2501.49240	0.14521
2499.56372	0.14535
2497.63505	0.14551
2495.70637	0.14567
2493.77770	0.14583
2491.84902	0.14599
2489.92035	0.14615
2487.99167	0.14629
2486.06299	0.14644
2484.13432	0.14664
2482.20564	0.14684
2480.27697	0.14701
2478.34829	0.14715
2476.41962	0.14731
2474.49094	0.14749
2472.56226	0.14769
2470.63359	0.14786
2468.70491	0.14802
2466.77624	0.14817
2464.84756	0.14832
2462.91889	0.14848
2460.99021	0.14861
2459.06153	0.14872
2457.13286	0.14888
2455.20418	0.14908
2453.27551	0.14923
2451.34683	0.14938
2449.41816	0.14953
2447.48948	0.14968
2445.56080	0.14983
2443.63213	0.15001
2441.70345	0.15023
2439.77478	0.15042
2437.84610	0.15058
2435.91743	0.15072
2433.98875	0.15082
2432.06007	0.15093
2430.13140	0.15110
2428.20272	0.15127
2426.27405	0.15142
2424.34537	0.15156
2422.41670	0.15173
2420.48802	0.15193
2418.55934	0.15211
2416.63067	0.15227
2414.70199	0.15240
2412.77332	0.15253
2410.84464	0.15265
2408.91597	0.15280
2406.98729	0.15300
2405.05861	0.15323
2403.12994	0.15341
2401.20126	0.15353
2399.27259	0.15365
2397.34391	0.15380
2395.41524	0.15398
2393.48656	0.15415
2391.55788	0.15431
2389.62921	0.15445
2387.70053	0.15460
2385.77186	0.15474
2383.84318	0.15486
2381.91451	0.15497
2379.98583	0.15507
2378.05715	0.15512
2376.12848	0.15511
2374.19980	0.15508
2372.27113	0.15509
2370.34245	0.15513
2368.41378	0.15518
2366.48510	0.15525
2364.55642	0.15534
2362.62775	0.15545
2360.69907	0.15559
2358.77040	0.15579
2356.84172	0.15605
2354.91305	0.15634
2352.98437	0.15668
2351.05569	0.15707
2349.12702	0.15735
2347.19834	0.15743
2345.26967	0.15739
2343.34099	0.15736
2341.41232	0.15739
2339.48364	0.15748
2337.55496	0.15764
2335.62629	0.15784
2333.69761	0.15802
2331.76894	0.15817
2329.84026	0.15831
2327.91159	0.15850
2325.98291	0.15873
2324.05423	0.15900
2322.12556	0.15924
2320.19688	0.15944
2318.26821	0.15962
2316.33953	0.15980
2314.41086	0.16000
2312.48218	0.16022
2310.55350	0.16044
2308.62483	0.16063
2306.69615	0.16080
2304.76748	0.16098
2302.83880	0.16119
2300.91013	0.16141
2298.98145	0.16157
2297.05277	0.16170
2295.12410	0.16185
2293.19542	0.16200
2291.26675	0.16215
2289.33807	0.16231
2287.40940	0.16248
2285.48072	0.16267
2283.55204	0.16282
2281.62337	0.16294
2279.69469	0.16306
2277.76602	0.16322
2275.83734	0.16340
2273.90867	0.16353
2271.97999	0.16364
2270.05131	0.16378
2268.12264	0.16395
2266.19396	0.16411
2264.26529	0.16426
2262.33661	0.16439
2260.40794	0.16452
2258.47926	0.16467
2256.55058	0.16483
2254.62191	0.16499
2252.69323	0.16516
2250.76456	0.16533
2248.83588	0.16550
2246.90721	0.16564
2244.97853	0.16578
2243.04985	0.16590
2241.12118	0.16598
2239.19250	0.16608
2237.26383	0.16623
2235.33515	0.16638
2233.40648	0.16651
2231.47780	0.16665
2229.54912	0.16679
2227.62045	0.16692
2225.69177	0.16706
2223.76310	0.16721
2221.83442	0.16735
2219.90575	0.16749
2217.97707	0.16765
2216.04839	0.16779
2214.11972	0.16790
2212.19104	0.16801
2210.26237	0.16816
2208.33369	0.16833
2206.40502	0.16847
2204.47634	0.16859
2202.54766	0.16868
2200.61899	0.16877
2198.69031	0.16889
2196.76164	0.16902
2194.83296	0.16915
2192.90429	0.16926
2190.97561	0.16934
2189.04693	0.16944
2187.11826	0.16955
2185.18958	0.16968
2183.26091	0.16980
2181.33223	0.16992
2179.40356	0.17004
2177.47488	0.17014
2175.54620	0.17025
2173.61753	0.17037
2171.68885	0.17047
2169.76018	0.17059
2167.83150	0.17074
2165.90283	0.17089
2163.97415	0.17102
2162.04547	0.17111
2160.11680	0.17117
2158.18812	0.17127
2156.25945	0.17140
2154.33077	0.17154
2152.40210	0.17166
2150.47342	0.17180
2148.54474	0.17198
2146.61607	0.17214
2144.68739	0.17225
2142.75872	0.17234
2140.83004	0.17246
2138.90137	0.17261
2136.97269	0.17273
2135.04401	0.17284
2133.11534	0.17301
2131.18666	0.17323
2129.25799	0.17342
2127.32931	0.17357
2125.40064	0.17372
2123.47196	0.17391
2121.54328	0.17412
2119.61461	0.17432
2117.68593	0.17450
2115.75726	0.17470
2113.82858	0.17493
2111.89991	0.17515
2109.97123	0.17534
2108.04255	0.17554
2106.11388	0.17575
2104.18520	0.17594
2102.25653	0.17614
2100.32785	0.17636
2098.39918	0.17660
2096.47050	0.17684
2094.54182	0.17706
2092.61315	0.17726
2090.68447	0.17748
2088.75580	0.17771
2086.82712	0.17791
2084.89845	0.17809
2082.96977	0.17827
2081.04109	0.17847
2079.11242	0.17869
2077.18374	0.17889
2075.25507	0.17907
2073.32639	0.17924
2071.39772	0.17943
2069.46904	0.17964
2067.54036	0.17984
2065.61169	0.18002
2063.68301	0.18020
2061.75434	0.18041
2059.82566	0.18062
2057.89699	0.18080
2055.96831	0.18094
2054.03963	0.18105
2052.11096	0.18119
2050.18228	0.18140
2048.25361	0.18162
2046.32493	0.18183
2044.39626	0.18200
2042.46758	0.18213
2040.53890	0.18228
2038.61023	0.18247
2036.68155	0.18266
2034.75288	0.18285
2032.82420	0.18302
2030.89553	0.18318
2028.96685	0.18331
2027.03817	0.18345
2025.10950	0.18362
2023.18082	0.18380
2021.25215	0.18394
2019.32347	0.18405
2017.39480	0.18416
2015.46612	0.18433
2013.53744	0.18453
2011.60877	0.18468
2009.68009	0.18481
2007.75142	0.18498
2005.82274	0.18518
2003.89407	0.18538
2001.96539	0.18554
2000.03671	0.18566
1998.10804	0.18575
1996.17936	0.18587
1994.25069	0.18600
1992.32201	0.18608
1990.39334	0.18620
1988.46466	0.18642
1986.53598	0.18662
1984.60731	0.18674
1982.67863	0.18683
1980.74996	0.18694
1978.82128	0.18705
1976.89261	0.18718
1974.96393	0.18731
1973.03525	0.18745
1971.10658	0.18758
1969.17790	0.18767
1967.24923	0.18773
1965.32055	0.18786
1963.39188	0.18806
1961.46320	0.18827
1959.53452	0.18843
1957.60585	0.18855
1955.67717	0.18868
1953.74850	0.18882
1951.81982	0.18898
1949.89115	0.18913
1947.96247	0.18925
1946.03379	0.18933
1944.10512	0.18938
1942.17644	0.18950
1940.24777	0.18972
1938.31909	0.18995
1936.39042	0.19012
1934.46174	0.19027
1932.53306	0.19043
1930.60439	0.19057
1928.67571	0.19072
1926.74704	0.19089
1924.81836	0.19102
1922.88969	0.19113
1920.96101	0.19121
1919.03233	0.19124
1917.10366	0.19138
1915.17498	0.19169
1913.24631	0.19194
1911.31763	0.19205
1909.38896	0.19218
1907.46028	0.19237
1905.53160	0.19255
1903.60293	0.19269
1901.67425	0.19285
1899.74558	0.19300
1897.81690	0.19310
1895.88823	0.19318
1893.95955	0.19329
1892.03087	0.19342
1890.10220	0.19353
1888.17352	0.19371
1886.24485	0.19392
1884.31617	0.19406
1882.38750	0.19422
1880.45882	0.19442
1878.53014	0.19459
1876.60147	0.19473
1874.67279	0.19485
1872.74412	0.19490
1870.81544	0.19482
1868.88677	0.19481
1866.95809	0.19508
1865.02941	0.19546
1863.10074	0.19573
1861.17206	0.19589
1859.24339	0.19600
1857.31471	0.19614
1855.38604	0.19632
1853.45736	0.19651
1851.52868	0.19664
1849.60001	0.19671
1847.67133	0.19668
1845.74266	0.19655
1843.81398	0.19664
1841.88531	0.19712
1839.95663	0.19755
1838.02795	0.19770
1836.09928	0.19779
1834.17060	0.19788
1832.24193	0.19779
1830.31325	0.19770
1828.38458	0.19787
1826.45590	0.19813
1824.52722	0.19837
1822.59855	0.19868
1820.66987	0.19894
1818.74120	0.19907
1816.81252	0.19919
1814.88385	0.19931
1812.95517	0.19935
1811.02649	0.19936
1809.09782	0.19952
1807.16914	0.19975
1805.24047	0.19986
1803.31179	0.19982
1801.38312	0.19976
1799.45444	0.19987
1797.52576	0.20010
1795.59709	0.20018
1793.66841	0.20006
1791.73974	0.20011
1789.81106	0.20047
1787.88239	0.20079
1785.95371	0.20088
1784.02503	0.20090
1782.09636	0.20094
1780.16768	0.20104
1778.23901	0.20121
1776.31033	0.20118
1774.38166	0.20087
1772.45298	0.20072
1770.52430	0.20091
1768.59563	0.20119
1766.66695	0.20154
1764.73828	0.20180
1762.80960	0.20179
1760.88093	0.20180
1758.95225	0.20190
1757.02357	0.20195
1755.09490	0.20201
1753.16622	0.20193
1751.23755	0.20168
1749.30887	0.20158
1747.38020	0.20166
1745.45152	0.20172
1743.52284	0.20176
1741.59417	0.20185
1739.66549	0.20186
1737.73682	0.20153
1735.80814	0.20082
1733.87947	0.20057
1731.95079	0.20115
1730.02211	0.20184
1728.09344	0.20227
1726.16476	0.20253
1724.23609	0.20263
1722.30741	0.20259
1720.37874	0.20232
1718.45006	0.20196
1716.52138	0.20194
1714.59271	0.20238
1712.66403	0.20300
1710.73536	0.20341
1708.80668	0.20348
1706.87801	0.20333
1704.94933	0.20308
1703.02065	0.20256
1701.09198	0.20195
1699.16330	0.20196
1697.23463	0.20242
1695.30595	0.20288
1693.37728	0.20348
1691.44860	0.20387
1689.51992	0.20381
1687.59125	0.20341
1685.66257	0.20286
1683.73390	0.20285
1681.80522	0.20346
1679.87655	0.20396
1677.94787	0.20403
1676.01919	0.20393
1674.09052	0.20390
1672.16184	0.20379
1670.23317	0.20359
1668.30449	0.20378
1666.37582	0.20424
1664.44714	0.20437
1662.51846	0.20435
1660.58979	0.20454
1658.66111	0.20467
1656.73244	0.20424
1654.80376	0.20347
1652.87509	0.20333
1650.94641	0.20390
1649.01773	0.20417
1647.08906	0.20407
1645.16038	0.20433
1643.23171	0.20481
1641.30303	0.20504
1639.37436	0.20484
1637.44568	0.20429
1635.51700	0.20401
1633.58833	0.20446
1631.65965	0.20498
1629.73098	0.20497
1627.80230	0.20476
1625.87363	0.20453
1623.94495	0.20417
1622.01627	0.20389
1620.08760	0.20382
1618.15892	0.20390
1616.23025	0.20438
1614.30157	0.20524
1612.37290	0.20591
1610.44422	0.20624
1608.51554	0.20652
1606.58687	0.20684
1604.65819	0.20709
1602.72952	0.20727
1600.80084	0.20744
1598.87217	0.20762
1596.94349	0.20778
1595.01481	0.20793
1593.08614	0.20807
1591.15746	0.20817
1589.22879	0.20825
1587.30011	0.20838
1585.37144	0.20853
1583.44276	0.20869
1581.51408	0.20886
1579.58541	0.20895
1577.65673	0.20891
1575.72806	0.20898
1573.79938	0.20920
1571.87071	0.20922
1569.94203	0.20910
1568.01335	0.20925
1566.08468	0.20956
1564.15600	0.20969
1562.22733	0.20932
1560.29865	0.20863
1558.36998	0.20854
1556.44130	0.20924
1554.51262	0.20997
1552.58395	0.21037
1550.65527	0.21060
1548.72660	0.21077
1546.79792	0.21078
1544.86925	0.21054
1542.94057	0.21009
1541.01189	0.20974
1539.08322	0.21002
1537.15454	0.21072
1535.22587	0.21107
1533.29719	0.21108
1531.36852	0.21117
1529.43984	0.21123
1527.51116	0.21113
1525.58249	0.21099
1523.65381	0.21062
1521.72514	0.21018
1519.79646	0.21021
1517.86779	0.21063
1515.93911	0.21113
1514.01043	0.21155
1512.08176	0.21155
1510.15308	0.21113
1508.22441	0.21067
1506.29573	0.21063
1504.36706	0.21121
1502.43838	0.21183
1500.50970	0.21189
1498.58103	0.21170
1496.65235	0.21176
1494.72368	0.21195
1492.79500	0.21175
1490.86633	0.21123
1488.93765	0.21102
1487.00897	0.21125
1485.08030	0.21150
1483.15162	0.21156
1481.22295	0.21144
1479.29427	0.21113
1477.36560	0.21061
1475.43692	0.20999
1473.50824	0.20937
1471.57957	0.20901
1469.65089	0.20895
1467.72222	0.20876
1465.79354	0.20835
1463.86487	0.20807
1461.93619	0.20785
1460.00751	0.20727
1458.07884	0.20647
1456.15016	0.20628
1454.22149	0.20677
1452.29281	0.20713
1450.36414	0.20712
1448.43546	0.20703
1446.50678	0.20715
1444.57811	0.20740
1442.64943	0.20756
1440.72076	0.20747
1438.79208	0.20699
1436.86341	0.20664
1434.93473	0.20704
1433.00605	0.20763
1431.07738	0.20782
1429.14870	0.20793
1427.22003	0.20808
1425.29135	0.20810
1423.36268	0.20800
1421.43400	0.20770
1419.50532	0.20726
1417.57665	0.20712
1415.64797	0.20732
1413.71930	0.20746
1411.79062	0.20745
1409.86195	0.20743
1407.93327	0.20741
1406.00459	0.20735
1404.07592	0.20735
1402.14724	0.20734
1400.21857	0.20722
1398.28989	0.20712
1396.36122	0.20709
1394.43254	0.20722
1392.50386	0.20753
1390.57519	0.20757
1388.64651	0.20715
1386.71784	0.20683
1384.78916	0.20689
1382.86049	0.20708
1380.93181	0.20721
1379.00313	0.20722
1377.07446	0.20713
1375.14578	0.20700
1373.21711	0.20697
1371.28843	0.20701
1369.35976	0.20699
1367.43108	0.20691
1365.50240	0.20678
1363.57373	0.20656
1361.64505	0.20644
1359.71638	0.20654
1357.78770	0.20666
1355.85903	0.20668
1353.93035	0.20669
1352.00167	0.20678
1350.07300	0.20693
1348.14432	0.20708
1346.21565	0.20719
1344.28697	0.20723
1342.35830	0.20719
1340.42962	0.20709
1338.50094	0.20703
1336.57227	0.20707
1334.64359	0.20708
1332.71492	0.20696
1330.78624	0.20675
1328.85757	0.20653
1326.92889	0.20632
1325.00021	0.20612
1323.07154	0.20593
1321.14286	0.20571
1319.21419	0.20547
1317.28551	0.20526
1315.35684	0.20509
1313.42816	0.20490
1311.49948	0.20468
1309.57081	0.20442
1307.64213	0.20410
1305.71346	0.20380
1303.78478	0.20354
1301.85611	0.20329
1299.92743	0.20299
1297.99875	0.20265
1296.07008	0.20234
1294.14140	0.20208
1292.21273	0.20185
1290.28405	0.20162
1288.35538	0.20132
1286.42670	0.20095
1284.49802	0.20057
1282.56935	0.20015
1280.64067	0.19960
1278.71200	0.19890
1276.78332	0.19805
1274.85465	0.19697
1272.92597	0.19550
1270.99729	0.19362
1269.06862	0.19135
1267.13994	0.18874
1265.21127	0.18602
1263.28259	0.18354
1261.35392	0.18173
1259.42524	0.18090
1257.49656	0.18096
1255.56789	0.18155
1253.63921	0.18238
1251.71054	0.18349
1249.78186	0.18497
1247.85319	0.18668
1245.92451	0.18828
1243.99583	0.18954
1242.06716	0.19042
1240.13848	0.19094
1238.20981	0.19113
1236.28113	0.19106
1234.35246	0.19082
1232.42378	0.19045
1230.49510	0.19000
1228.56643	0.18952
1226.63775	0.18900
1224.70908	0.18846
1222.78040	0.18792
1220.85173	0.18741
1218.92305	0.18689
1216.99437	0.18633
1215.06570	0.18573
1213.13702	0.18509
1211.20835	0.18446
1209.27967	0.18379
1207.35100	0.18309
1205.42232	0.18242
1203.49364	0.18179
1201.56497	0.18117
1199.63629	0.18059
1197.70762	0.17999
1195.77894	0.17933
1193.85027	0.17864
1191.92159	0.17796
1189.99291	0.17720
1188.06424	0.17637
1186.13556	0.17556
1184.20689	0.17477
1182.27821	0.17392
1180.34954	0.17299
1178.42086	0.17203
1176.49218	0.17109
1174.56351	0.17014
1172.63483	0.16917
1170.70616	0.16827
1168.77748	0.16739
1166.84881	0.16642
1164.92013	0.16541
1162.99145	0.16442
1161.06278	0.16344
1159.13410	0.16244
1157.20543	0.16148
1155.27675	0.16053
1153.34808	0.15955
1151.41940	0.15855
1149.49072	0.15759
1147.56205	0.15665
1145.63337	0.15561
1143.70470	0.15447
1141.77602	0.15332
1139.84735	0.15214
1137.91867	0.15081
1135.98999	0.14938
1134.06132	0.14784
1132.13264	0.14609
1130.20397	0.14410
1128.27529	0.14188
1126.34662	0.13945
1124.41794	0.13687
1122.48926	0.13429
1120.56059	0.13182
1118.63191	0.12944
1116.70324	0.12714
1114.77456	0.12499
1112.84589	0.12307
1110.91721	0.12145
1108.98853	0.12014
1107.05986	0.11910
1105.13118	0.11828
1103.20251	0.11767
1101.27383	0.11733
1099.34516	0.11729
1097.41648	0.11749
1095.48780	0.11779
1093.55913	0.11812
1091.63045	0.11846
1089.70178	0.11878
1087.77310	0.11902
1085.84443	0.11913
1083.91575	0.11918
1081.98707	0.11915
1080.05840	0.11904
1078.12972	0.11885
1076.20105	0.11858
1074.27237	0.11826
1072.34370	0.11802
1070.41502	0.11785
1068.48634	0.11769
1066.55767	0.11750
1064.62899	0.11732
1062.70032	0.11717
1060.77164	0.11704
1058.84297	0.11692
1056.91429	0.11686
1054.98561	0.11686
1053.05694	0.11688
1051.12826	0.11694
1049.19959	0.11704
1047.27091	0.11715
1045.34224	0.11725
1043.41356	0.11735
1041.48488	0.11749
1039.55621	0.11773
1037.62753	0.11807
1035.69886	0.11840
1033.77018	0.11866
1031.84151	0.11895
1029.91283	0.11935
1027.98415	0.11983
1026.05548	0.12035
1024.12680	0.12089
1022.19813	0.12149
1020.26945	0.12220
1018.34078	0.12308
1016.41210	0.12410
1014.48342	0.12517
1012.55475	0.12624
1010.62607	0.12738
1008.69740	0.12856
1006.76872	0.12972
1004.84005	0.13084
1002.91137	0.13189
1000.98269	0.13290
999.05402	0.13389
997.12534	0.13479
995.19667	0.13552
993.26799	0.13614
991.33932	0.13677
989.41064	0.13739
987.48196	0.13799
985.55329	0.13856
983.62461	0.13909
981.69594	0.13957
979.76726	0.13998
977.83859	0.14033
975.90991	0.14057
973.98123	0.14071
972.05256	0.14082
970.12388	0.14096
968.19521	0.14112
966.26653	0.14130
964.33786	0.14146
962.40918	0.14157
960.48050	0.14162
958.55183	0.14162
956.62315	0.14163
954.69448	0.14169
952.76580	0.14173
950.83713	0.14169
948.90845	0.14163
946.97977	0.14157
945.05110	0.14148
943.12242	0.14126
941.19375	0.14086
939.26507	0.14041
937.33640	0.13999
935.40772	0.13955
933.47904	0.13899
931.55037	0.13846
929.62169	0.13799
927.69302	0.13749
925.76434	0.13694
923.83567	0.13633
921.90699	0.13567
919.97831	0.13497
918.04964	0.13414
916.12096	0.13322
914.19229	0.13230
912.26361	0.13139
910.33494	0.13047
908.40626	0.12963
906.47758	0.12892
904.54891	0.12827
902.62023	0.12764
900.69156	0.12704
898.76288	0.12651
896.83421	0.12601
894.90553	0.12553
892.97685	0.12506
891.04818	0.12452
889.11950	0.12394
887.19083	0.12341
885.26215	0.12293
883.33348	0.12246
881.40480	0.12200
879.47612	0.12155
877.54745	0.12115
875.61877	0.12078
873.69010	0.12039
871.76142	0.11997
869.83275	0.11950
867.90407	0.11899
865.97539	0.11850
864.04672	0.11807
862.11804	0.11769
860.18937	0.11735
858.26069	0.11702
856.33202	0.11651
854.40334	0.11580
852.47466	0.11494
850.54599	0.11393
848.61731	0.11286
846.68864	0.11183
844.75996	0.11085
842.83129	0.10998
840.90261	0.10937
838.97394	0.10902
837.04526	0.10885
835.11658	0.10875
833.18791	0.10857
831.25923	0.10827
829.33056	0.10785
827.40188	0.10727
825.47321	0.10662
823.54453	0.10600
821.61585	0.10536
819.68718	0.10463
817.75850	0.10390
815.82983	0.10322
813.90115	0.10258
811.97248	0.10199
810.04380	0.10143
808.11512	0.10084
806.18645	0.10024
804.25777	0.09969
802.32910	0.09916
800.40042	0.09858
798.47175	0.09789
796.54307	0.09724
794.61439	0.09689
792.68572	0.09688
790.75704	0.09702
788.82837	0.09720
786.89969	0.09733
784.97102	0.09744
783.04234	0.09756
781.11366	0.09759
779.18499	0.09753
777.25631	0.09744
775.32764	0.09732
773.39896	0.09721
771.47029	0.09715
769.54161	0.09704
767.61293	0.09683
765.68426	0.09657
763.75558	0.09633
761.82691	0.09614
759.89823	0.09593
757.96956	0.09564
756.04088	0.09529
754.11220	0.09501
752.18353	0.09483
750.25485	0.09468
748.32618	0.09441
746.39750	0.09401
744.46883	0.09351
742.54015	0.09290
740.61147	0.09222
738.68280	0.09172
736.75412	0.09158
734.82545	0.09171
732.89677	0.09186
730.96810	0.09198
729.03942	0.09215
727.11074	0.09237
725.18207	0.09257
723.25339	0.09272
721.32472	0.09286
719.39604	0.09303
717.46737	0.09331
715.53869	0.09370
713.61001	0.09418
711.68134	0.09465
709.75266	0.09497
707.82399	0.09507
705.89531	0.09498
703.96664	0.09476
702.03796	0.09444
700.10928	0.09404
698.18061	0.09352
696.25193	0.09291
694.32326	0.09236
692.39458	0.09194
690.46591	0.09158
688.53723	0.09114
686.60855	0.09061
684.67988	0.09010
682.75120	0.08962
680.82253	0.08907
678.89385	0.08846
676.96518	0.08788
675.03650	0.08732
673.10782	0.08673
671.17915	0.08607
669.25047	0.08533
667.32180	0.08463
665.39312	0.08397
663.46445	0.08316
661.53577	0.08220
659.60709	0.08129
657.67842	0.08051
655.74974	0.07976
653.82107	0.07897
651.89239	0.07819
649.96372	0.07744
648.03504	0.07659
646.10636	0.07569
644.17769	0.07482
642.24901	0.07392
640.32034	0.07287
638.39166	0.07177
636.46299	0.07070
634.53431	0.06958
632.60563	0.06813
630.67696	0.06590
628.74828	0.06252
626.81961	0.05817
624.89093	0.05361
622.96226	0.04996
621.03358	0.04776
619.10490	0.04654
617.17623	0.04569
615.24755	0.04484
613.31888	0.04381
611.39020	0.04283
609.46153	0.04233
607.53285	0.04240
605.60417	0.04277
603.67550	0.04328
601.74682	0.04405
599.81815	0.04505
597.88947	0.04600
595.96080	0.04665
594.03212	0.04702
592.10344	0.04729
590.17477	0.04749
588.24609	0.04751
586.31742	0.04737
584.38874	0.04709
582.46007	0.04671
580.53139	0.04635
578.60271	0.04597
576.67404	0.04556
574.74536	0.04508
572.81669	0.04445
570.88801	0.04373
568.95934	0.04301
567.03066	0.04247
565.10198	0.04215
563.17331	0.04191
561.24463	0.04171
559.31596	0.04150
557.38728	0.04122
555.45861	0.04095
553.52993	0.04074
551.60125	0.04055
549.67258	0.04035
547.74390	0.04016
545.81523	0.03998
543.88655	0.03982
541.95788	0.03969
540.02920	0.03956
538.10052	0.03945
536.17185	0.03938
534.24317	0.03926
532.31450	0.03903
530.38582	0.03872
528.45715	0.03834
526.52847	0.03793
524.59979	0.03753
522.67112	0.03714
520.74244	0.03670
518.81377	0.03617
516.88509	0.03555
514.95642	0.03494
513.02774	0.03447
511.09906	0.03419
509.17039	0.03408
507.24171	0.03400
505.31304	0.03379
503.38436	0.03345
501.45569	0.03304
499.52701	0.03253
497.59833	0.03190
495.66966	0.03131
493.74098	0.03075
491.81231	0.03014
489.88363	0.02957
487.95496	0.02908
486.02628	0.02859
484.09760	0.02809
482.16893	0.02757
480.24025	0.02697
478.31158	0.02635
476.38290	0.02576
474.45423	0.02521
472.52555	0.02470
470.59687	0.02422
468.66820	0.02377
466.73952	0.02334
464.81085	0.02300
462.88217	0.02280
460.95350	0.02268
459.02482	0.02258
457.09614	0.02259
455.16747	0.02267
453.23879	0.02268
451.31012	0.02257
449.38144	0.02235
447.45277	0.02212
445.52409	0.02199
443.59541	0.02192
441.66674	0.02173
439.73806	0.02135
437.80939	0.02085
435.88071	0.02030
433.95204	0.01973
432.02336	0.01917
430.09468	0.01862
428.16601	0.01802
426.23733	0.01730
424.30866	0.01657
422.37998	0.01601
420.45131	0.01560
418.52263	0.01512
416.59395	0.01442
414.66528	0.01355
412.73660	0.01279
410.80793	0.01228
408.87925	0.01173
406.95058	0.01098
405.02190	0.01026
403.09322	0.00970
401.16455	0.00919
399.23587	0.00867
397.30720	0.00815
395.37852	0.00766
393.44985	0.00721
391.52117	0.00678
389.59249	0.00630
387.66382	0.00585
385.73514	0.00546
383.80647	0.00506
381.87779	0.00468
379.94912	0.00434
378.02044	0.00395
376.09176	0.00361
374.16309	0.00343
372.23441	0.00322
370.30574	0.00285
368.37706	0.00247
