7496.76250	0.00216
7494.83382	0.00218
7492.90514	0.00220
7490.97647	0.00221
7489.04779	0.00223
7487.11912	0.00223
7485.19044	0.00222
7483.26177	0.00222
7481.33309	0.00222
7479.40441	0.00223
7477.47574	0.00224
7475.54706	0.00224
7473.61839	0.00225
7471.68971	0.00226
7469.76104	0.00228
7467.83236	0.00229
7465.90368	0.00228
7463.97501	0.00227
7462.04633	0.00226
7460.11766	0.00226
7458.18898	0.00227
7456.26031	0.00229
7454.33163	0.00233
7452.40295	0.00235
7450.47428	0.00234
7448.54560	0.00233
7446.61693	0.00233
7444.68825	0.00235
7442.75958	0.00237
7440.83090	0.00237
7438.90222	0.00236
7436.97355	0.00235
7435.04487	0.00235
7433.11620	0.00236
7431.18752	0.00238
7429.25885	0.00239
7427.33017	0.00240
7425.40149	0.00240
7423.47282	0.00239
7421.54414	0.00239
7419.61547	0.00240
7417.68679	0.00241
7415.75812	0.00243
7413.82944	0.00243
7411.90076	0.00243
7409.97209	0.00243
7408.04341	0.00244
7406.11474	0.00245
7404.18606	0.00247
7402.25739	0.00248
7400.32871	0.00249
7398.40003	0.00249
7396.47136	0.00248
7394.54268	0.00248
7392.61401	0.00249
7390.68533	0.00250
7388.75666	0.00252
7386.82798	0.00253
7384.89930	0.00253
7382.97063	0.00254
7381.04195	0.00254
7379.11328	0.00255
7377.18460	0.00256
7375.25593	0.00256
7373.32725	0.00256
7371.39857	0.00256
7369.46990	0.00257
7367.54122	0.00257
7365.61255	0.00258
7363.68387	0.00259
7361.75520	0.00260
7359.82652	0.00260
7357.89784	0.00262
7355.96917	0.00263
7354.04049	0.00265
7352.11182	0.00265
7350.18314	0.00265
7348.25447	0.00265
7346.32579	0.00265
7344.39711	0.00266
7342.46844	0.00267
7340.53976	0.00268
7338.61109	0.00266
7336.68241	0.00266
7334.75374	0.00268
7332.82506	0.00271
7330.89638	0.00272
7328.96771	0.00271
7327.03903	0.00271
7325.11036	0.00272
7323.18168	0.00274
7321.25301	0.00275
7319.32433	0.00276
7317.39565	0.00276
7315.46698	0.00276
7313.53830	0.00276
7311.60963	0.00276
7309.68095	0.00277
7307.75228	0.00279
7305.82360	0.00279
7303.89492	0.00280
7301.96625	0.00280
7300.03757	0.00281
7298.10890	0.00282
7296.18022	0.00283
7294.25155	0.00284
7292.32287	0.00285
7290.39419	0.00284
7288.46552	0.00283
7286.53684	0.00283
7284.60817	0.00284
7282.67949	0.00285
7280.75082	0.00286
7278.82214	0.00287
7276.89346	0.00287
7274.96479	0.00288
7273.03611	0.00289
7271.10744	0.00291
7269.17876	0.00292
7267.25009	0.00293
7265.32141	0.00294
7263.39273	0.00295
7261.46406	0.00294
7259.53538	0.00293
7257.60671	0.00295
7255.67803	0.00296
7253.74936	0.00297
7251.82068	0.00297
7249.89200	0.00297
7247.96333	0.00298
7246.03465	0.00299
7244.10598	0.00300
7242.17730	0.00301
7240.24863	0.00302
7238.31995	0.00303
7236.39127	0.00303
7234.46260	0.00303
7232.53392	0.00303
7230.60525	0.00303
7228.67657	0.00304
7226.74790	0.00306
7224.81922	0.00305
7222.89054	0.00305
7220.96187	0.00306
7219.03319	0.00309
7217.10452	0.00311
7215.17584	0.00311
7213.24717	0.00312
7211.31849	0.00313
7209.38981	0.00314
7207.46114	0.00313
7205.53246	0.00311
7203.60379	0.00312
7201.67511	0.00314
7199.74644	0.00317
7197.81776	0.00318
7195.88908	0.00318
7193.96041	0.00317
7192.03173	0.00317
7190.10306	0.00319
7188.17438	0.00319
7186.24571	0.00320
7184.31703	0.00322
7182.38835	0.00324
7180.45968	0.00325
7178.53100	0.00325
7176.60233	0.00324
7174.67365	0.00323
7172.74498	0.00324
7170.81630	0.00325
7168.88762	0.00326
7166.95895	0.00326
7165.03027	0.00327
7163.10160	0.00328
7161.17292	0.00330
7159.24425	0.00331
7157.31557	0.00332
7155.38689	0.00332
7153.45822	0.00334
7151.52954	0.00335
7149.60087	0.00336
7147.67219	0.00336
7145.74352	0.00335
7143.81484	0.00335
7141.88616	0.00337
7139.95749	0.00338
7138.02881	0.00339
7136.10014	0.00340
7134.17146	0.00343
7132.24279	0.00344
7130.31411	0.00345
7128.38543	0.00346
7126.45676	0.00346
7124.52808	0.00345
7122.59941	0.00347
7120.67073	0.00348
7118.74206	0.00349
7116.81338	0.00348
7114.88470	0.00347
7112.95603	0.00348
7111.02735	0.00349
7109.09868	0.00350
7107.17000	0.00350
7105.24133	0.00350
7103.31265	0.00351
7101.38397	0.00351
7099.45530	0.00352
7097.52662	0.00354
7095.59795	0.00356
7093.66927	0.00357
7091.74060	0.00357
7089.81192	0.00358
7087.88324	0.00358
7085.95457	0.00359
7084.02589	0.00361
7082.09722	0.00364
7080.16854	0.00365
7078.23987	0.00365
7076.31119	0.00364
7074.38251	0.00363
7072.45384	0.00364
7070.52516	0.00364
7068.59649	0.00365
7066.66781	0.00366
7064.73914	0.00367
7062.81046	0.00367
7060.88178	0.00368
7058.95311	0.00370
7057.02443	0.00372
7055.09576	0.00373
7053.16708	0.00372
7051.23841	0.00373
7049.30973	0.00374
7047.38105	0.00375
7045.45238	0.00374
7043.52370	0.00374
7041.59503	0.00374
7039.66635	0.00376
7037.73768	0.00378
7035.80900	0.00379
7033.88032	0.00380
7031.95165	0.00381
7030.02297	0.00381
7028.09430	0.00381
7026.16562	0.00382
7024.23695	0.00383
7022.30827	0.00386
7020.37959	0.00388
7018.45092	0.00387
7016.52224	0.00387
7014.59357	0.00387
7012.66489	0.00386
7010.73622	0.00387
7008.80754	0.00389
7006.87886	0.00391
7004.95019	0.00391
7003.02151	0.00392
7001.09284	0.00392
6999.16416	0.00394
6997.23549	0.00396
6995.30681	0.00396
6993.37813	0.00397
6991.44946	0.00398
6989.52078	0.00399
6987.59211	0.00400
6985.66343	0.00402
6983.73476	0.00403
6981.80608	0.00403
6979.87740	0.00404
6977.94873	0.00406
6976.02005	0.00407
6974.09138	0.00407
6972.16270	0.00408
6970.23403	0.00408
6968.30535	0.00408
6966.37667	0.00408
6964.44800	0.00410
6962.51932	0.00411
6960.59065	0.00413
6958.66197	0.00415
6956.73330	0.00416
6954.80462	0.00415
6952.87594	0.00415
6950.94727	0.00415
6949.01859	0.00416
6947.08992	0.00417
6945.16124	0.00418
6943.23257	0.00419
6941.30389	0.00420
6939.37521	0.00421
6937.44654	0.00422
6935.51786	0.00423
6933.58919	0.00424
6931.66051	0.00426
6929.73184	0.00427
6927.80316	0.00428
6925.87448	0.00428
6923.94581	0.00429
6922.01713	0.00430
6920.08846	0.00430
6918.15978	0.00430
6916.23111	0.00430
6914.30243	0.00432
6912.37375	0.00433
6910.44508	0.00434
6908.51640	0.00434
6906.58773	0.00435
6904.65905	0.00436
6902.73038	0.00437
6900.80170	0.00438
6898.87302	0.00438
6896.94435	0.00439
6895.01567	0.00440
6893.08700	0.00441
6891.15832	0.00442
6889.22965	0.00444
6887.30097	0.00445
6885.37229	0.00445
6883.44362	0.00447
6881.51494	0.00449
6879.58627	0.00449
6877.65759	0.00450
6875.72892	0.00453
6873.80024	0.00454
6871.87156	0.00454
6869.94289	0.00452
6868.01421	0.00453
6866.08554	0.00454
6864.15686	0.00456
6862.22819	0.00457
6860.29951	0.00458
6858.37083	0.00459
6856.44216	0.00460
6854.51348	0.00461
6852.58481	0.00462
6850.65613	0.00464
6848.72746	0.00466
6846.79878	0.00466
6844.87010	0.00467
6842.94143	0.00467
6841.01275	0.00466
6839.08408	0.00467
6837.15540	0.00468
6835.22673	0.00470
6833.29805	0.00473
6831.36937	0.00475
6829.44070	0.00475
6827.51202	0.00474
6825.58335	0.00475
6823.65467	0.00478
6821.72600	0.00480
6819.79732	0.00481
6817.86864	0.00481
6815.93997	0.00481
6814.01129	0.00481
6812.08262	0.00481
6810.15394	0.00483
6808.22527	0.00484
6806.29659	0.00484
6804.36791	0.00485
6802.43924	0.00485
6800.51056	0.00486
6798.58189	0.00488
6796.65321	0.00490
6794.72454	0.00491
6792.79586	0.00493
6790.86718	0.00494
6788.93851	0.00495
6787.00983	0.00496
6785.08116	0.00498
6783.15248	0.00501
6781.22381	0.00502
6779.29513	0.00502
6777.36645	0.00501
6775.43778	0.00502
6773.50910	0.00503
6771.58043	0.00503
6769.65175	0.00504
6767.72308	0.00505
6765.79440	0.00506
6763.86572	0.00508
6761.93705	0.00509
6760.00837	0.00509
6758.07970	0.00510
6756.15102	0.00512
6754.22235	0.00513
6752.29367	0.00513
6750.36499	0.00513
6748.43632	0.00512
6746.50764	0.00513
6744.57897	0.00516
6742.65029	0.00518
6740.72162	0.00520
6738.79294	0.00522
6736.86426	0.00524
6734.93559	0.00526
6733.00691	0.00527
6731.07824	0.00526
6729.14956	0.00525
6727.22089	0.00526
6725.29221	0.00528
6723.36353	0.00531
6721.43486	0.00532
6719.50618	0.00532
6717.57751	0.00532
6715.64883	0.00533
6713.72016	0.00536
6711.79148	0.00538
6709.86280	0.00539
6707.93413	0.00539
6706.00545	0.00540
6704.07678	0.00541
6702.14810	0.00542
6700.21943	0.00542
6698.29075	0.00544
6696.36207	0.00548
6694.43340	0.00550
6692.50472	0.00550
6690.57605	0.00550
6688.64737	0.00551
6686.71870	0.00553
6684.79002	0.00554
6682.86134	0.00554
6680.93267	0.00554
6679.00399	0.00555
6677.07532	0.00557
6675.14664	0.00558
6673.21797	0.00558
6671.28929	0.00557
6669.36061	0.00558
6667.43194	0.00561
6665.50326	0.00565
6663.57459	0.00566
6661.64591	0.00566
6659.71724	0.00566
6657.78856	0.00568
6655.85988	0.00570
6653.93121	0.00570
6652.00253	0.00569
6650.07386	0.00570
6648.14518	0.00572
6646.21651	0.00575
6644.28783	0.00577
6642.35915	0.00579
6640.43048	0.00580
6638.50180	0.00582
6636.57313	0.00585
6634.64445	0.00586
6632.71578	0.00586
6630.78710	0.00586
6628.85842	0.00587
6626.92975	0.00588
6625.00107	0.00589
6623.07240	0.00590
6621.14372	0.00591
6619.21505	0.00592
6617.28637	0.00593
6615.35769	0.00593
6613.42902	0.00595
6611.50034	0.00597
6609.57167	0.00598
6607.64299	0.00598
6605.71432	0.00599
6603.78564	0.00603
6601.85696	0.00606
6599.92829	0.00607
6597.99961	0.00607
6596.07094	0.00608
6594.14226	0.00610
6592.21359	0.00610
6590.28491	0.00610
6588.35623	0.00611
6586.42756	0.00613
6584.49888	0.00614
6582.57021	0.00615
6580.64153	0.00617
6578.71286	0.00618
6576.78418	0.00618
6574.85550	0.00619
6572.92683	0.00622
6570.99815	0.00624
6569.06948	0.00625
6567.14080	0.00625
6565.21213	0.00626
6563.28345	0.00630
6561.35477	0.00634
6559.42610	0.00637
6557.49742	0.00636
6555.56875	0.00637
6553.64007	0.00638
6551.71140	0.00638
6549.78272	0.00637
6547.85404	0.00638
6545.92537	0.00641
6543.99669	0.00645
6542.06802	0.00648
6540.13934	0.00648
6538.21067	0.00647
6536.28199	0.00648
6534.35331	0.00650
6532.42464	0.00651
6530.49596	0.00652
6528.56729	0.00652
6526.63861	0.00653
6524.70994	0.00655
6522.78126	0.00656
6520.85258	0.00659
6518.92391	0.00662
6516.99523	0.00663
6515.06656	0.00663
6513.13788	0.00663
6511.20921	0.00664
6509.28053	0.00666
6507.35185	0.00669
6505.42318	0.00669
6503.49450	0.00670
6501.56583	0.00670
6499.63715	0.00671
6497.70848	0.00674
6495.77980	0.00676
6493.85112	0.00677
6491.92245	0.00678
6489.99377	0.00681
6488.06510	0.00682
6486.13642	0.00684
6484.20775	0.00685
6482.27907	0.00685
6480.35039	0.00686
6478.42172	0.00687
6476.49304	0.00688
6474.56437	0.00691
6472.63569	0.00694
6470.70702	0.00696
6468.77834	0.00697
6466.84966	0.00698
6464.92099	0.00699
6462.99231	0.00700
6461.06364	0.00702
6459.13496	0.00703
6457.20629	0.00704
6455.27761	0.00705
6453.34893	0.00706
6451.42026	0.00708
6449.49158	0.00710
6447.56291	0.00711
6445.63423	0.00712
6443.70556	0.00715
6441.77688	0.00717
6439.84820	0.00718
6437.91953	0.00721
6435.99085	0.00724
6434.06218	0.00725
6432.13350	0.00725
6430.20483	0.00726
6428.27615	0.00726
6426.34747	0.00728
6424.41880	0.00729
6422.49012	0.00732
6420.56145	0.00736
6418.63277	0.00739
6416.70410	0.00740
6414.77542	0.00740
6412.84674	0.00739
6410.91807	0.00741
6408.98939	0.00744
6407.06072	0.00747
6405.13204	0.00748
6403.20337	0.00748
6401.27469	0.00749
6399.34601	0.00750
6397.41734	0.00752
6395.48866	0.00753
6393.55999	0.00754
6391.63131	0.00756
6389.70264	0.00759
6387.77396	0.00760
6385.84528	0.00760
6383.91661	0.00761
6381.98793	0.00764
6380.05926	0.00767
6378.13058	0.00770
6376.20191	0.00773
6374.27323	0.00774
6372.34455	0.00774
6370.41588	0.00775
6368.48720	0.00776
6366.55853	0.00776
6364.62985	0.00776
6362.70118	0.00777
6360.77250	0.00780
6358.84382	0.00782
6356.91515	0.00784
6354.98647	0.00785
6353.05780	0.00787
6351.12912	0.00790
6349.20045	0.00793
6347.27177	0.00794
6345.34309	0.00795
6343.41442	0.00795
6341.48574	0.00796
6339.55707	0.00798
6337.62839	0.00801
6335.69972	0.00803
6333.77104	0.00804
6331.84236	0.00806
6329.91369	0.00809
6327.98501	0.00810
6326.05634	0.00812
6324.12766	0.00813
6322.19899	0.00815
6320.27031	0.00816
6318.34163	0.00817
6316.41296	0.00818
6314.48428	0.00821
6312.55561	0.00822
6310.62693	0.00823
6308.69826	0.00826
6306.76958	0.00829
6304.84090	0.00831
6302.91223	0.00832
6300.98355	0.00832
6299.05488	0.00834
6297.12620	0.00836
6295.19753	0.00839
6293.26885	0.00840
6291.34017	0.00841
6289.41150	0.00844
6287.48282	0.00846
6285.55415	0.00846
6283.62547	0.00848
6281.69680	0.00851
6279.76812	0.00853
6277.83944	0.00853
6275.91077	0.00855
6273.98209	0.00859
6272.05342	0.00860
6270.12474	0.00860
6268.19607	0.00860
6266.26739	0.00863
6264.33871	0.00867
6262.41004	0.00870
6260.48136	0.00871
6258.55269	0.00872
6256.62401	0.00873
6254.69534	0.00874
6252.76666	0.00876
6250.83798	0.00880
6248.90931	0.00882
6246.98063	0.00884
6245.05196	0.00886
6243.12328	0.00888
6241.19461	0.00892
6239.26593	0.00894
6237.33725	0.00893
6235.40858	0.00892
6233.47990	0.00894
6231.55123	0.00898
6229.62255	0.00899
6227.69388	0.00899
6225.76520	0.00900
6223.83652	0.00901
6221.90785	0.00905
6219.97917	0.00908
6218.05050	0.00912
6216.12182	0.00914
6214.19315	0.00915
6212.26447	0.00917
6210.33579	0.00919
6208.40712	0.00920
6206.47844	0.00921
6204.54977	0.00924
6202.62109	0.00927
6200.69242	0.00929
6198.76374	0.00929
6196.83506	0.00931
6194.90639	0.00933
6192.97771	0.00933
6191.04904	0.00933
6189.12036	0.00936
6187.19169	0.00939
6185.26301	0.00941
6183.33433	0.00943
6181.40566	0.00946
6179.47698	0.00949
6177.54831	0.00952
6175.61963	0.00952
6173.69096	0.00953
6171.76228	0.00956
6169.83360	0.00958
6167.90493	0.00959
6165.97625	0.00961
6164.04758	0.00963
6162.11890	0.00965
6160.19023	0.00967
6158.26155	0.00969
6156.33287	0.00970
6154.40420	0.00972
6152.47552	0.00973
6150.54685	0.00976
6148.61817	0.00979
6146.68950	0.00983
6144.76082	0.00986
6142.83214	0.00988
6140.90347	0.00990
6138.97479	0.00993
6137.04612	0.00996
6135.11744	0.00996
6133.18877	0.00995
6131.26009	0.00997
6129.33141	0.01002
6127.40274	0.01005
6125.47406	0.01007
6123.54539	0.01007
6121.61671	0.01007
6119.68804	0.01009
6117.75936	0.01012
6115.83068	0.01014
6113.90201	0.01016
6111.97333	0.01018
6110.04466	0.01019
6108.11598	0.01022
6106.18731	0.01025
6104.25863	0.01028
6102.32995	0.01031
6100.40128	0.01035
6098.47260	0.01038
6096.54393	0.01039
6094.61525	0.01040
6092.68658	0.01041
6090.75790	0.01043
6088.82922	0.01046
6086.90055	0.01049
6084.97187	0.01050
6083.04320	0.01049
6081.11452	0.01049
6079.18585	0.01052
6077.25717	0.01057
6075.32849	0.01062
6073.39982	0.01064
6071.47114	0.01065
6069.54247	0.01068
6067.61379	0.01069
6065.68512	0.01070
6063.75644	0.01073
6061.82776	0.01077
6059.89909	0.01080
6057.97041	0.01082
6056.04174	0.01083
6054.11306	0.01085
6052.18439	0.01087
6050.25571	0.01090
6048.32703	0.01092
6046.39836	0.01092
6044.46968	0.01093
6042.54101	0.01097
6040.61233	0.01100
6038.68366	0.01101
6036.75498	0.01101
6034.82630	0.01104
6032.89763	0.01108
6030.96895	0.01111
6029.04028	0.01113
6027.11160	0.01116
6025.18293	0.01117
6023.25425	0.01118
6021.32557	0.01121
6019.39690	0.01125
6017.46822	0.01130
6015.53955	0.01134
6013.61087	0.01136
6011.68220	0.01137
6009.75352	0.01138
6007.82484	0.01141
6005.89617	0.01143
6003.96749	0.01144
6002.03882	0.01145
6000.11014	0.01147
5998.18147	0.01150
5996.25279	0.01153
5994.32411	0.01157
5992.39544	0.01160
5990.46676	0.01161
5988.53809	0.01163
5986.60941	0.01164
5984.68074	0.01166
5982.75206	0.01168
5980.82338	0.01171
5978.89471	0.01175
5976.96603	0.01178
5975.03736	0.01180
5973.10868	0.01181
5971.18001	0.01183
5969.25133	0.01186
5967.32265	0.01190
5965.39398	0.01192
5963.46530	0.01194
5961.53663	0.01196
5959.60795	0.01198
5957.67928	0.01202
5955.75060	0.01205
5953.82192	0.01207
5951.89325	0.01209
5949.96457	0.01210
5948.03590	0.01212
5946.10722	0.01215
5944.17855	0.01218
5942.24987	0.01219
5940.32119	0.01221
5938.39252	0.01223
5936.46384	0.01225
5934.53517	0.01228
5932.60649	0.01233
5930.67782	0.01236
5928.74914	0.01239
5926.82046	0.01242
5924.89179	0.01245
5922.96311	0.01248
5921.03444	0.01249
5919.10576	0.01249
5917.17709	0.01251
5915.24841	0.01254
5913.31973	0.01258
5911.39106	0.01262
5909.46238	0.01265
5907.53371	0.01267
5905.60503	0.01269
5903.67636	0.01271
5901.74768	0.01273
5899.81900	0.01277
5897.89033	0.01280
5895.96165	0.01282
5894.03298	0.01283
5892.10430	0.01286
5890.17563	0.01288
5888.24695	0.01290
5886.31827	0.01292
5884.38960	0.01293
5882.46092	0.01294
5880.53225	0.01296
5878.60357	0.01300
5876.67490	0.01304
5874.74622	0.01308
5872.81755	0.01311
5870.88887	0.01313
5868.96019	0.01315
5867.03152	0.01316
5865.10284	0.01320
5863.17417	0.01324
5861.24549	0.01328
5859.31682	0.01329
5857.38814	0.01331
5855.45946	0.01334
5853.53079	0.01337
5851.60211	0.01340
5849.67344	0.01343
5847.74476	0.01346
5845.81609	0.01350
5843.88741	0.01354
5841.95873	0.01357
5840.03006	0.01358
5838.10138	0.01361
5836.17271	0.01363
5834.24403	0.01365
5832.31536	0.01368
5830.38668	0.01371
5828.45800	0.01375
5826.52933	0.01377
5824.60065	0.01380
5822.67198	0.01383
5820.74330	0.01386
5818.81463	0.01389
5816.88595	0.01392
5814.95727	0.01394
5813.02860	0.01395
5811.09992	0.01397
5809.17125	0.01401
5807.24257	0.01404
5805.31390	0.01408
5803.38522	0.01411
5801.45654	0.01415
5799.52787	0.01418
5797.59919	0.01420
5795.67052	0.01422
5793.74184	0.01424
5791.81317	0.01426
5789.88449	0.01428
5787.95581	0.01431
5786.02714	0.01436
5784.09846	0.01438
5782.16979	0.01438
5780.24111	0.01441
5778.31244	0.01446
5776.38376	0.01451
5774.45508	0.01454
5772.52641	0.01456
5770.59773	0.01458
5768.66906	0.01461
5766.74038	0.01465
5764.81171	0.01467
5762.88303	0.01469
5760.95435	0.01472
5759.02568	0.01474
5757.09700	0.01480
5755.16833	0.01485
5753.23965	0.01488
5751.31098	0.01490
5749.38230	0.01494
5747.45362	0.01496
5745.52495	0.01497
5743.59627	0.01500
5741.66760	0.01504
5739.73892	0.01508
5737.81025	0.01510
5735.88157	0.01512
5733.95289	0.01515
5732.02422	0.01518
5730.09554	0.01520
5728.16687	0.01521
5726.23819	0.01523
5724.30952	0.01526
5722.38084	0.01530
5720.45216	0.01535
5718.52349	0.01538
5716.59481	0.01539
5714.66614	0.01542
5712.73746	0.01545
5710.80879	0.01550
5708.88011	0.01555
5706.95143	0.01559
5705.02276	0.01563
5703.09408	0.01565
5701.16541	0.01567
5699.23673	0.01569
5697.30806	0.01572
5695.37938	0.01574
5693.45070	0.01578
5691.52203	0.01582
5689.59335	0.01585
5687.66468	0.01587
5685.73600	0.01589
5683.80733	0.01592
5681.87865	0.01594
5679.94997	0.01597
5678.02130	0.01602
5676.09262	0.01607
5674.16395	0.01611
5672.23527	0.01614
5670.30660	0.01615
5668.37792	0.01617
5666.44924	0.01620
5664.52057	0.01625
5662.59189	0.01628
5660.66322	0.01629
5658.73454	0.01630
5656.80587	0.01634
5654.87719	0.01638
5652.94851	0.01643
5651.01984	0.01647
5649.09116	0.01650
5647.16249	0.01651
5645.23381	0.01653
5643.30514	0.01657
5641.37646	0.01662
5639.44778	0.01667
5637.51911	0.01671
5635.59043	0.01673
5633.66176	0.01676
5631.73308	0.01678
5629.80441	0.01680
5627.87573	0.01684
5625.94705	0.01690
5624.01838	0.01695
5622.08970	0.01697
5620.16103	0.01700
5618.23235	0.01704
5616.30368	0.01708
5614.37500	0.01710
5612.44632	0.01710
5610.51765	0.01711
5608.58897	0.01715
5606.66030	0.01720
5604.73162	0.01724
5602.80295	0.01729
5600.87427	0.01733
5598.94559	0.01735
5597.01692	0.01736
5595.08824	0.01739
5593.15957	0.01744
5591.23089	0.01748
5589.30222	0.01752
5587.37354	0.01755
5585.44486	0.01757
5583.51619	0.01762
5581.58751	0.01766
5579.65884	0.01769
5577.73016	0.01770
5575.80149	0.01771
5573.87281	0.01774
5571.94413	0.01777
5570.01546	0.01782
5568.08678	0.01787
5566.15811	0.01792
5564.22943	0.01795
5562.30076	0.01798
5560.37208	0.01800
5558.44340	0.01802
5556.51473	0.01805
5554.58605	0.01808
5552.65738	0.01812
5550.72870	0.01817
5548.80003	0.01823
5546.87135	0.01828
5544.94267	0.01832
5543.01400	0.01833
5541.08532	0.01833
5539.15665	0.01836
5537.22797	0.01841
5535.29930	0.01848
5533.37062	0.01853
5531.44194	0.01856
5529.51327	0.01857
5527.58459	0.01860
5525.65592	0.01863
5523.72724	0.01867
5521.79857	0.01871
5519.86989	0.01873
5517.94121	0.01877
5516.01254	0.01882
5514.08386	0.01885
5512.15519	0.01888
5510.22651	0.01890
5508.29784	0.01893
5506.36916	0.01897
5504.44048	0.01904
5502.51181	0.01909
5500.58313	0.01912
5498.65446	0.01914
5496.72578	0.01917
5494.79711	0.01920
5492.86843	0.01924
5490.93975	0.01927
5489.01108	0.01930
5487.08240	0.01933
5485.15373	0.01937
5483.22505	0.01941
5481.29638	0.01944
5479.36770	0.01946
5477.43902	0.01948
5475.51035	0.01951
5473.58167	0.01956
5471.65300	0.01961
5469.72432	0.01965
5467.79565	0.01968
5465.86697	0.01971
5463.93829	0.01973
5462.00962	0.01976
5460.08094	0.01980
5458.15227	0.01986
5456.22359	0.01991
5454.29492	0.01994
5452.36624	0.01996
5450.43756	0.01999
5448.50889	0.02004
5446.58021	0.02010
5444.65154	0.02015
5442.72286	0.02018
5440.79419	0.02021
5438.86551	0.02025
5436.93683	0.02028
5435.00816	0.02031
5433.07948	0.02033
5431.15081	0.02035
5429.22213	0.02036
5427.29346	0.02041
5425.36478	0.02047
5423.43610	0.02053
5421.50743	0.02057
5419.57875	0.02061
5417.65008	0.02064
5415.72140	0.02066
5413.79273	0.02067
5411.86405	0.02071
5409.93537	0.02077
5408.00670	0.02084
5406.07802	0.02090
5404.14935	0.02095
5402.22067	0.02098
5400.29200	0.02100
5398.36332	0.02102
5396.43464	0.02105
5394.50597	0.02109
5392.57729	0.02115
5390.64862	0.02120
5388.71994	0.02123
5386.79127	0.02126
5384.86259	0.02129
5382.93391	0.02133
5381.00524	0.02137
5379.07656	0.02139
5377.14789	0.02143
5375.21921	0.02148
5373.29054	0.02154
5371.36186	0.02158
5369.43318	0.02160
5367.50451	0.02164
5365.57583	0.02168
5363.64716	0.02172
5361.71848	0.02176
5359.78981	0.02180
5357.86113	0.02183
5355.93245	0.02184
5354.00378	0.02186
5352.07510	0.02191
5350.14643	0.02196
5348.21775	0.02200
5346.28908	0.02203
5344.36040	0.02208
5342.43172	0.02213
5340.50305	0.02216
5338.57437	0.02219
5336.64570	0.02224
5334.71702	0.02229
5332.78835	0.02232
5330.85967	0.02235
5328.93099	0.02238
5327.00232	0.02241
5325.07364	0.02247
5323.14497	0.02253
5321.21629	0.02259
5319.28762	0.02263
5317.35894	0.02267
5315.43026	0.02271
5313.50159	0.02275
5311.57291	0.02278
5309.64424	0.02282
5307.71556	0.02286
5305.78689	0.02289
5303.85821	0.02293
5301.92953	0.02296
5300.00086	0.02299
5298.07218	0.02302
5296.14351	0.02305
5294.21483	0.02310
5292.28616	0.02314
5290.35748	0.02319
5288.42880	0.02324
5286.50013	0.02329
5284.57145	0.02333
5282.64278	0.02337
5280.71410	0.02340
5278.78543	0.02344
5276.85675	0.02350
5274.92807	0.02355
5272.99940	0.02357
5271.07072	0.02361
5269.14205	0.02366
5267.21337	0.02370
5265.28470	0.02372
5263.35602	0.02375
5261.42734	0.02380
5259.49867	0.02384
5257.56999	0.02387
5255.64132	0.02392
5253.71264	0.02399
5251.78397	0.02405
5249.85529	0.02407
5247.92661	0.02406
5245.99794	0.02408
5244.06926	0.02413
5242.14059	0.02419
5240.21191	0.02423
5238.28324	0.02427
5236.35456	0.02433
5234.42588	0.02437
5232.49721	0.02442
5230.56853	0.02447
5228.63986	0.02450
5226.71118	0.02452
5224.78251	0.02456
5222.85383	0.02462
5220.92515	0.02466
5218.99648	0.02470
5217.06780	0.02473
5215.13913	0.02478
5213.21045	0.02483
5211.28178	0.02487
5209.35310	0.02489
5207.42442	0.02492
5205.49575	0.02498
5203.56707	0.02505
5201.63840	0.02510
5199.70972	0.02515
5197.78105	0.02519
5195.85237	0.02522
5193.92369	0.02524
5191.99502	0.02528
5190.06634	0.02533
5188.13767	0.02538
5186.20899	0.02542
5184.28032	0.02548
5182.35164	0.02553
5180.42296	0.02556
5178.49429	0.02559
5176.56561	0.02565
5174.63694	0.02570
5172.70826	0.02574
5170.77959	0.02578
5168.85091	0.02584
5166.92223	0.02590
5164.99356	0.02593
5163.06488	0.02595
5161.13621	0.02599
5159.20753	0.02604
5157.27886	0.02608
5155.35018	0.02612
5153.42150	0.02614
5151.49283	0.02618
5149.56415	0.02622
5147.63548	0.02627
5145.70680	0.02631
5143.77813	0.02636
5141.84945	0.02642
5139.92077	0.02647
5137.99210	0.02650
5136.06342	0.02653
5134.13475	0.02658
5132.20607	0.02664
5130.27740	0.02668
5128.34872	0.02673
5126.42004	0.02679
5124.49137	0.02684
5122.56269	0.02689
5120.63402	0.02693
5118.70534	0.02696
5116.77667	0.02700
5114.84799	0.02704
5112.91931	0.02708
5110.99064	0.02712
5109.06196	0.02718
5107.13329	0.02724
5105.20461	0.02728
5103.27594	0.02732
5101.34726	0.02735
5099.41858	0.02737
5097.48991	0.02740
5095.56123	0.02745
5093.63256	0.02751
5091.70388	0.02757
5089.77521	0.02762
5087.84653	0.02767
5085.91785	0.02771
5083.98918	0.02774
5082.06050	0.02778
5080.13183	0.02782
5078.20315	0.02787
5076.27448	0.02794
5074.34580	0.02801
5072.41712	0.02805
5070.48845	0.02808
5068.55977	0.02811
5066.63110	0.02814
5064.70242	0.02817
5062.77375	0.02824
5060.84507	0.02830
5058.91639	0.02835
5056.98772	0.02838
5055.05904	0.02841
5053.13037	0.02846
5051.20169	0.02853
5049.27302	0.02860
5047.34434	0.02865
5045.41566	0.02868
5043.48699	0.02872
5041.55831	0.02875
5039.62964	0.02880
5037.70096	0.02883
5035.77229	0.02886
5033.84361	0.02890
5031.91493	0.02895
5029.98626	0.02900
5028.05758	0.02905
5026.12891	0.02910
5024.20023	0.02915
5022.27156	0.02919
5020.34288	0.02924
5018.41420	0.02931
5016.48553	0.02937
5014.55685	0.02943
5012.62818	0.02948
5010.69950	0.02953
5008.77083	0.02956
5006.84215	0.02958
5004.91347	0.02960
5002.98480	0.02965
5001.05612	0.02971
4999.12745	0.02976
4997.19877	0.02980
4995.27010	0.02985
4993.34142	0.02991
4991.41274	0.02998
4989.48407	0.03002
4987.55539	0.03006
4985.62672	0.03011
4983.69804	0.03018
4981.76937	0.03023
4979.84069	0.03027
4977.91201	0.03031
4975.98334	0.03035
4974.05466	0.03038
4972.12599	0.03042
4970.19731	0.03047
4968.26864	0.03053
4966.33996	0.03059
4964.41128	0.03065
4962.48261	0.03069
4960.55393	0.03071
4958.62526	0.03075
4956.69658	0.03081
4954.76791	0.03088
4952.83923	0.03094
4950.91055	0.03101
4948.98188	0.03109
4947.05320	0.03115
4945.12453	0.03119
4943.19585	0.03121
4941.26718	0.03127
4939.33850	0.03133
4937.40982	0.03136
4935.48115	0.03140
4933.55247	0.03144
4931.62380	0.03149
4929.69512	0.03155
4927.76645	0.03161
4925.83777	0.03164
4923.90909	0.03168
4921.98042	0.03174
4920.05174	0.03182
4918.12307	0.03188
4916.19439	0.03190
4914.26572	0.03192
4912.33704	0.03196
4910.40836	0.03202
4908.47969	0.03208
4906.55101	0.03213
4904.62234	0.03218
4902.69366	0.03222
4900.76499	0.03224
4898.83631	0.03229
4896.90763	0.03234
4894.97896	0.03240
4893.05028	0.03245
4891.12161	0.03250
4889.19293	0.03257
4887.26426	0.03262
4885.33558	0.03266
4883.40690	0.03271
4881.47823	0.03277
4879.54955	0.03282
4877.62088	0.03287
4875.69220	0.03293
4873.76353	0.03299
4871.83485	0.03305
4869.90617	0.03311
4867.97750	0.03316
4866.04882	0.03319
4864.12015	0.03324
4862.19147	0.03330
4860.26280	0.03337
4858.33412	0.03341
4856.40544	0.03346
4854.47677	0.03353
4852.54809	0.03358
4850.61942	0.03361
4848.69074	0.03366
4846.76207	0.03373
4844.83339	0.03379
4842.90471	0.03385
4840.97604	0.03389
4839.04736	0.03392
4837.11869	0.03396
4835.19001	0.03402
4833.26134	0.03409
4831.33266	0.03415
4829.40398	0.03421
4827.47531	0.03427
4825.54663	0.03433
4823.61796	0.03438
4821.68928	0.03441
4819.76061	0.03444
4817.83193	0.03447
4815.90325	0.03452
4813.97458	0.03458
4812.04590	0.03465
4810.11723	0.03472
4808.18855	0.03480
4806.25988	0.03486
4804.33120	0.03491
4802.40252	0.03496
4800.47385	0.03501
4798.54517	0.03507
4796.61650	0.03511
4794.68782	0.03517
4792.75915	0.03524
4790.83047	0.03531
4788.90179	0.03537
4786.97312	0.03542
4785.04444	0.03545
4783.11577	0.03549
4781.18709	0.03554
4779.25842	0.03559
4777.32974	0.03564
4775.40106	0.03570
4773.47239	0.03578
4771.54371	0.03586
4769.61504	0.03592
4767.68636	0.03597
4765.75769	0.03602
4763.82901	0.03609
4761.90033	0.03613
4759.97166	0.03617
4758.04298	0.03623
4756.11431	0.03629
4754.18563	0.03635
4752.25696	0.03641
4750.32828	0.03647
4748.39960	0.03654
4746.47093	0.03660
4744.54225	0.03665
4742.61358	0.03671
4740.68490	0.03678
4738.75623	0.03683
4736.82755	0.03687
4734.89887	0.03692
4732.97020	0.03697
4731.04152	0.03701
4729.11285	0.03707
4727.18417	0.03716
4725.25550	0.03725
4723.32682	0.03732
4721.39814	0.03736
4719.46947	0.03742
4717.54079	0.03749
4715.61212	0.03757
4713.68344	0.03763
4711.75477	0.03768
4709.82609	0.03773
4707.89741	0.03777
4705.96874	0.03781
4704.04006	0.03788
4702.11139	0.03794
4700.18271	0.03797
4698.25404	0.03801
4696.32536	0.03808
4694.39668	0.03816
4692.46801	0.03824
4690.53933	0.03830
4688.61066	0.03835
4686.68198	0.03840
4684.75331	0.03847
4682.82463	0.03855
4680.89595	0.03862
4678.96728	0.03868
4677.03860	0.03874
4675.10993	0.03880
4673.18125	0.03885
4671.25258	0.03889
4669.32390	0.03896
4667.39522	0.03904
4665.46655	0.03911
4663.53787	0.03916
4661.60920	0.03920
4659.68052	0.03923
4657.75185	0.03929
4655.82317	0.03937
4653.89449	0.03946
4651.96582	0.03953
4650.03714	0.03958
4648.10847	0.03966
4646.17979	0.03974
4644.25112	0.03981
4642.32244	0.03988
4640.39376	0.03995
4638.46509	0.04004
4636.53641	0.04011
4634.60774	0.04015
4632.67906	0.04019
4630.75039	0.04025
4628.82171	0.04033
4626.89303	0.04040
4624.96436	0.04046
4623.03568	0.04053
4621.10701	0.04060
4619.17833	0.04066
4617.24966	0.04072
4615.32098	0.04078
4613.39230	0.04085
4611.46363	0.04091
4609.53495	0.04096
4607.60628	0.04102
4605.67760	0.04111
4603.74893	0.04120
4601.82025	0.04126
4599.89157	0.04130
4597.96290	0.04135
4596.03422	0.04142
4594.10555	0.04150
4592.17687	0.04158
4590.24820	0.04165
4588.31952	0.04172
4586.39084	0.04179
4584.46217	0.04186
4582.53349	0.04192
4580.60482	0.04197
4578.67614	0.04203
4576.74747	0.04209
4574.81879	0.04217
4572.89011	0.04226
4570.96144	0.04236
4569.03276	0.04245
4567.10409	0.04252
4565.17541	0.04258
4563.24674	0.04263
4561.31806	0.04268
4559.38938	0.04274
4557.46071	0.04282
4555.53203	0.04292
4553.60336	0.04300
4551.67468	0.04307
4549.74601	0.04315
4547.81733	0.04323
4545.88865	0.04330
4543.95998	0.04336
4542.03130	0.04342
4540.10263	0.04349
4538.17395	0.04358
4536.24528	0.04364
4534.31660	0.04369
4532.38792	0.04375
4530.45925	0.04385
4528.53057	0.04395
4526.60190	0.04402
4524.67322	0.04407
4522.74455	0.04414
4520.81587	0.04422
4518.88719	0.04427
4516.95852	0.04434
4515.02984	0.04442
4513.10117	0.04450
4511.17249	0.04459
4509.24382	0.04468
4507.31514	0.04476
4505.38646	0.04484
4503.45779	0.04491
4501.52911	0.04498
4499.60044	0.04506
4497.67176	0.04514
4495.74309	0.04520
4493.81441	0.04527
4491.88573	0.04534
4489.95706	0.04542
4488.02838	0.04549
4486.09971	0.04556
4484.17103	0.04563
4482.24236	0.04572
4480.31368	0.04581
4478.38500	0.04590
4476.45633	0.04597
4474.52765	0.04603
4472.59898	0.04610
4470.67030	0.04619
4468.74163	0.04626
4466.81295	0.04633
4464.88427	0.04640
4462.95560	0.04648
4461.02692	0.04658
4459.09825	0.04668
4457.16957	0.04678
4455.24090	0.04685
4453.31222	0.04690
4451.38354	0.04697
4449.45487	0.04708
4447.52619	0.04719
4445.59752	0.04727
4443.66884	0.04732
4441.74017	0.04739
4439.81149	0.04747
4437.88281	0.04756
4435.95414	0.04764
4434.02546	0.04775
4432.09679	0.04784
4430.16811	0.04791
4428.23944	0.04798
4426.31076	0.04806
4424.38208	0.04813
4422.45341	0.04822
4420.52473	0.04831
4418.59606	0.04838
4416.66738	0.04843
4414.73871	0.04851
4412.81003	0.04862
4410.88135	0.04874
4408.95268	0.04884
4407.02400	0.04893
4405.09533	0.04902
4403.16665	0.04908
4401.23798	0.04915
4399.30930	0.04925
4397.38062	0.04935
4395.45195	0.04945
4393.52327	0.04953
4391.59460	0.04960
4389.66592	0.04969
4387.73725	0.04980
4385.80857	0.04991
4383.87989	0.04999
4381.95122	0.05006
4380.02254	0.05013
4378.09387	0.05022
4376.16519	0.05031
4374.23652	0.05040
4372.30784	0.05050
4370.37916	0.05061
4368.45049	0.05070
4366.52181	0.05079
4364.59314	0.05085
4362.66446	0.05090
4360.73579	0.05097
4358.80711	0.05107
4356.87843	0.05117
4354.94976	0.05128
4353.02108	0.05138
4351.09241	0.05148
4349.16373	0.05156
4347.23506	0.05165
4345.30638	0.05173
4343.37770	0.05181
4341.44903	0.05193
4339.52035	0.05207
4337.59168	0.05216
4335.66300	0.05223
4333.73433	0.05230
4331.80565	0.05237
4329.87697	0.05246
4327.94830	0.05256
4326.01962	0.05267
4324.09095	0.05277
4322.16227	0.05287
4320.23360	0.05298
4318.30492	0.05308
4316.37624	0.05317
4314.44757	0.05327
4312.51889	0.05339
4310.59022	0.05350
4308.66154	0.05359
4306.73287	0.05367
4304.80419	0.05376
4302.87551	0.05386
4300.94684	0.05395
4299.01816	0.05405
4297.08949	0.05414
4295.16081	0.05423
4293.23214	0.05433
4291.30346	0.05444
4289.37478	0.05454
4287.44611	0.05463
4285.51743	0.05473
4283.58876	0.05485
4281.66008	0.05497
4279.73141	0.05505
4277.80273	0.05513
4275.87405	0.05524
4273.94538	0.05536
4272.01670	0.05548
4270.08803	0.05558
4268.15935	0.05567
4266.23068	0.05574
4264.30200	0.05582
4262.37332	0.05592
4260.44465	0.05603
4258.51597	0.05614
4256.58730	0.05625
4254.65862	0.05635
4252.72995	0.05644
4250.80127	0.05654
4248.87259	0.05667
4246.94392	0.05678
4245.01524	0.05689
4243.08657	0.05699
4241.15789	0.05708
4239.22922	0.05717
4237.30054	0.05726
4235.37186	0.05735
4233.44319	0.05746
4231.51451	0.05759
4229.58584	0.05770
4227.65716	0.05780
4225.72849	0.05791
4223.79981	0.05803
4221.87113	0.05815
4219.94246	0.05823
4218.01378	0.05831
4216.08511	0.05841
4214.15643	0.05852
4212.22776	0.05863
4210.29908	0.05873
4208.37040	0.05886
4206.44173	0.05901
4204.51305	0.05913
4202.58438	0.05924
4200.65570	0.05933
4198.72703	0.05944
4196.79835	0.05956
4194.86968	0.05967
4192.94100	0.05977
4191.01232	0.05986
4189.08365	0.05997
4187.15497	0.06009
4185.22630	0.06021
4183.29762	0.06032
4181.36895	0.06043
4179.44027	0.06055
4177.51159	0.06067
4175.58292	0.06079
4173.65424	0.06090
4171.72557	0.06101
4169.79689	0.06110
4167.86822	0.06120
4165.93954	0.06131
4164.01086	0.06144
4162.08219	0.06158
4160.15351	0.06170
4158.22484	0.06182
4156.29616	0.06195
4154.36749	0.06208
4152.43881	0.06219
4150.51013	0.06228
4148.58146	0.06239
4146.65278	0.06251
4144.72411	0.06262
4142.79543	0.06274
4140.86676	0.06284
4138.93808	0.06295
4137.00940	0.06308
4135.08073	0.06321
4133.15205	0.06334
4131.22338	0.06346
4129.29470	0.06358
4127.36603	0.06370
4125.43735	0.06381
4123.50867	0.06391
4121.58000	0.06402
4119.65132	0.06415
4117.72265	0.06427
4115.79397	0.06437
4113.86530	0.06449
4111.93662	0.06462
4110.00794	0.06475
4108.07927	0.06488
4106.15059	0.06502
4104.22192	0.06515
4102.29324	0.06526
4100.36457	0.06538
4098.43589	0.06551
4096.50721	0.06563
4094.57854	0.06576
4092.64986	0.06589
4090.72119	0.06600
4088.79251	0.06607
4086.86384	0.06618
4084.93516	0.06632
4083.00648	0.06646
4081.07781	0.06659
4079.14913	0.06670
4077.22046	0.06682
4075.29178	0.06696
4073.36311	0.06709
4071.43443	0.06721
4069.50575	0.06734
4067.57708	0.06748
4065.64840	0.06760
4063.71973	0.06773
4061.79105	0.06787
4059.86238	0.06801
4057.93370	0.06815
4056.00502	0.06829
4054.07635	0.06843
4052.14767	0.06857
4050.21900	0.06870
4048.29032	0.06881
4046.36165	0.06892
4044.43297	0.06905
4042.50429	0.06918
4040.57562	0.06930
4038.64694	0.06943
4036.71827	0.06956
4034.78959	0.06969
4032.86092	0.06982
4030.93224	0.06994
4029.00356	0.07006
4027.07489	0.07020
4025.14621	0.07035
4023.21754	0.07050
4021.28886	0.07065
4019.36019	0.07078
4017.43151	0.07090
4015.50283	0.07102
4013.57416	0.07114
4011.64548	0.07127
4009.71681	0.07140
4007.78813	0.07152
4005.85946	0.07166
4003.93078	0.07182
4002.00210	0.07196
4000.07343	0.07208
3998.14475	0.07221
3996.21608	0.07233
3994.28740	0.07247
3992.35873	0.07260
3990.43005	0.07273
3988.50137	0.07287
3986.57270	0.07303
3984.64402	0.07317
3982.71535	0.07328
3980.78667	0.07341
3978.85800	0.07358
3976.92932	0.07373
3975.00064	0.07385
3973.07197	0.07397
3971.14329	0.07412
3969.21462	0.07426
3967.28594	0.07439
3965.35727	0.07453
3963.42859	0.07467
3961.49991	0.07481
3959.57124	0.07495
3957.64256	0.07510
3955.71389	0.07526
3953.78521	0.07540
3951.85654	0.07551
3949.92786	0.07561
3947.99918	0.07576
3946.07051	0.07591
3944.14183	0.07603
3942.21316	0.07617
3940.28448	0.07636
3938.35581	0.07654
3936.42713	0.07665
3934.49845	0.07670
3932.56978	0.07676
3930.64110	0.07691
3928.71243	0.07713
3926.78375	0.07731
3924.85508	0.07743
3922.92640	0.07755
3920.99772	0.07766
3919.06905	0.07774
3917.14037	0.07789
3915.21170	0.07813
3913.28302	0.07836
3911.35435	0.07855
3909.42567	0.07868
3907.49699	0.07873
3905.56832	0.07867
3903.63964	0.07864
3901.71097	0.07876
3899.78229	0.07899
3897.85362	0.07931
3895.92494	0.07960
3893.99626	0.07971
3892.06759	0.07976
3890.13891	0.07991
3888.21024	0.08006
3886.28156	0.08013
3884.35289	0.08027
3882.42421	0.08045
3880.49553	0.08062
3878.56686	0.08085
3876.63818	0.08104
3874.70951	0.08113
3872.78083	0.08117
3870.85216	0.08119
3868.92348	0.08138
3866.99480	0.08166
3865.06613	0.08183
3863.13745	0.08200
3861.20878	0.08225
3859.28010	0.08244
3857.35143	0.08232
3855.42275	0.08194
3853.49407	0.08186
3851.56540	0.08239
3849.63672	0.08304
3847.70805	0.08339
3845.77937	0.08349
3843.85070	0.08353
3841.92202	0.08358
3839.99334	0.08362
3838.06467	0.08373
3836.13599	0.08398
3834.20732	0.08425
3832.27864	0.08448
3830.34997	0.08470
3828.42129	0.08489
3826.49261	0.08504
3824.56394	0.08511
3822.63526	0.08509
3820.70659	0.08516
3818.77791	0.08538
3816.84924	0.08559
3814.92056	0.08586
3812.99188	0.08619
3811.06321	0.08638
3809.13453	0.08640
3807.20586	0.08645
3805.27718	0.08662
3803.34851	0.08672
3801.41983	0.08681
3799.49115	0.08706
3797.56248	0.08735
3795.63380	0.08759
3793.70513	0.08787
3791.77645	0.08810
3789.84778	0.08825
3787.91910	0.08838
3785.99042	0.08851
3784.06175	0.08866
3782.13307	0.08878
3780.20440	0.08889
3778.27572	0.08907
3776.34705	0.08932
3774.41837	0.08951
3772.48969	0.08957
3770.56102	0.08960
3768.63234	0.08973
3766.70367	0.08993
3764.77499	0.09015
3762.84632	0.09034
3760.91764	0.09042
3758.98896	0.09052
3757.06029	0.09071
3755.13161	0.09079
3753.20294	0.09066
3751.27426	0.09056
3749.34559	0.09073
3747.41691	0.09088
3745.48823	0.09082
3743.55956	0.09106
3741.63088	0.09167
3739.70221	0.09199
3737.77353	0.09188
3735.84486	0.09181
3733.91618	0.09207
3731.98750	0.09253
3730.05883	0.09297
3728.13015	0.09320
3726.20148	0.09330
3724.27280	0.09344
3722.34413	0.09364
3720.41545	0.09386
3718.48677	0.09409
3716.55810	0.09425
3714.62942	0.09426
3712.70075	0.09421
3710.77207	0.09437
3708.84340	0.09475
3706.91472	0.09513
3704.98604	0.09533
3703.05737	0.09538
3701.12869	0.09551
3699.20002	0.09577
3697.27134	0.09603
3695.34267	0.09618
3693.41399	0.09617
3691.48531	0.09607
3689.55664	0.09609
3687.62796	0.09640
3685.69929	0.09684
3683.77061	0.09713
3681.84194	0.09728
3679.91326	0.09732
3677.98458	0.09720
3676.05591	0.09709
3674.12723	0.09729
3672.19856	0.09759
3670.26988	0.09779
3668.34121	0.09811
3666.41253	0.09852
3664.48385	0.09879
3662.55518	0.09895
3660.62650	0.09907
3658.69783	0.09911
3656.76915	0.09912
3654.84048	0.09921
3652.91180	0.09917
3650.98312	0.09889
3649.05445	0.09875
3647.12577	0.09904
3645.19710	0.09960
3643.26842	0.10009
3641.33975	0.10038
3639.41107	0.10059
3637.48239	0.10074
3635.55372	0.10084
3633.62504	0.10089
3631.69637	0.10078
3629.76769	0.10063
3627.83902	0.10083
3625.91034	0.10130
3623.98166	0.10162
3622.05299	0.10166
3620.12431	0.10162
3618.19564	0.10173
3616.26696	0.10192
3614.33829	0.10203
3612.40961	0.10208
3610.48093	0.10214
3608.55226	0.10229
3606.62358	0.10259
3604.69491	0.10290
3602.76623	0.10307
3600.83756	0.10318
3598.90888	0.10331
3596.98020	0.10342
3595.05153	0.10349
3593.12285	0.10362
3591.19418	0.10371
3589.26550	0.10367
3587.33683	0.10374
3585.40815	0.10405
3583.47947	0.10440
3581.55080	0.10459
3579.62212	0.10470
3577.69345	0.10482
3575.76477	0.10498
3573.83610	0.10513
3571.90742	0.10523
3569.97874	0.10520
3568.05007	0.10513
3566.12139	0.10526
3564.19272	0.10557
3562.26404	0.10586
3560.33537	0.10607
3558.40669	0.10625
3556.47801	0.10637
3554.54934	0.10647
3552.62066	0.10657
3550.69199	0.10670
3548.76331	0.10681
3546.83464	0.10689
3544.90596	0.10701
3542.97728	0.10719
3541.04861	0.10738
3539.11993	0.10753
3537.19126	0.10763
3535.26258	0.10772
3533.33391	0.10781
3531.40523	0.10786
3529.47655	0.10787
3527.54788	0.10789
3525.61920	0.10797
3523.69053	0.10807
3521.76185	0.10820
3519.83318	0.10832
3517.90450	0.10843
3515.97582	0.10854
3514.04715	0.10861
3512.11847	0.10864
3510.18980	0.10867
3508.26112	0.10874
3506.33245	0.10883
3504.40377	0.10889
3502.47509	0.10896
3500.54642	0.10902
3498.61774	0.10908
3496.68907	0.10914
3494.76039	0.10921
3492.83172	0.10926
3490.90304	0.10929
3488.97436	0.10932
3487.04569	0.10938
3485.11701	0.10945
3483.18834	0.10952
3481.25966	0.10961
3479.33099	0.10973
3477.40231	0.10985
3475.47363	0.10998
3473.54496	0.11012
3471.61628	0.11026
3469.68761	0.11041
3467.75893	0.11058
3465.83026	0.11076
3463.90158	0.11096
3461.97290	0.11113
3460.04423	0.11130
3458.11555	0.11147
3456.18688	0.11167
3454.25820	0.11186
3452.32953	0.11203
3450.40085	0.11216
3448.47217	0.11229
3446.54350	0.11248
3444.61482	0.11269
3442.68615	0.11287
3440.75747	0.11306
3438.82880	0.11330
3436.90012	0.11360
3434.97144	0.11392
3433.04277	0.11427
3431.11409	0.11462
3429.18542	0.11497
3427.25674	0.11533
3425.32807	0.11567
3423.39939	0.11598
3421.47071	0.11627
3419.54204	0.11658
3417.61336	0.11688
3415.68469	0.11717
3413.75601	0.11744
3411.82734	0.11771
3409.89866	0.11795
3407.96998	0.11817
3406.04131	0.11840
3404.11263	0.11865
3402.18396	0.11888
3400.25528	0.11911
3398.32661	0.11933
3396.39793	0.11957
3394.46925	0.11981
3392.54058	0.12008
3390.61190	0.12036
3388.68323	0.12062
3386.75455	0.12085
3384.82588	0.12108
3382.89720	0.12134
3380.96852	0.12159
3379.03985	0.12182
3377.11117	0.12200
3375.18250	0.12218
3373.25382	0.12240
3371.32515	0.12261
3369.39647	0.12282
3367.46779	0.12305
3365.53912	0.12331
3363.61044	0.12355
3361.68177	0.12377
3359.75309	0.12397
3357.82442	0.12416
3355.89574	0.12436
3353.96706	0.12458
3352.03839	0.12481
3350.10971	0.12505
3348.18104	0.12530
3346.25236	0.12554
3344.32369	0.12575
3342.39501	0.12594
3340.46633	0.12614
3338.53766	0.12636
3336.60898	0.12661
3334.68031	0.12684
3332.75163	0.12706
3330.82296	0.12725
3328.89428	0.12743
3326.96560	0.12765
3325.03693	0.12790
3323.10825	0.12817
3321.17958	0.12840
3319.25090	0.12860
3317.32223	0.12879
3315.39355	0.12900
3313.46487	0.12924
3311.53620	0.12947
3309.60752	0.12969
3307.67885	0.12992
3305.75017	0.13017
3303.82150	0.13043
3301.89282	0.13069
3299.96414	0.13090
3298.03547	0.13110
3296.10679	0.13134
3294.17812	0.13161
3292.24944	0.13186
3290.32077	0.13208
3288.39209	0.13230
3286.46341	0.13255
3284.53474	0.13281
3282.60606	0.13305
3280.67739	0.13328
3278.74871	0.13349
3276.82004	0.13369
3274.89136	0.13389
3272.96268	0.13413
3271.03401	0.13441
3269.10533	0.13468
3267.17666	0.13494
3265.24798	0.13516
3263.31931	0.13539
3261.39063	0.13565
3259.46195	0.13592
3257.53328	0.13616
3255.60460	0.13638
3253.67593	0.13661
3251.74725	0.13685
3249.81858	0.13709
3247.88990	0.13732
3245.96122	0.13757
3244.03255	0.13783
3242.10387	0.13807
3240.17520	0.13831
3238.24652	0.13856
3236.31785	0.13883
3234.38917	0.13910
3232.46049	0.13932
3230.53182	0.13952
3228.60314	0.13975
3226.67447	0.14002
3224.74579	0.14028
3222.81712	0.14050
3220.88844	0.14070
3218.95976	0.14093
3217.03109	0.14117
3215.10241	0.14140
3213.17374	0.14162
3211.24506	0.14186
3209.31639	0.14211
3207.38771	0.14237
3205.45903	0.14262
3203.53036	0.14286
3201.60168	0.14311
3199.67301	0.14337
3197.74433	0.14364
3195.81566	0.14392
3193.88698	0.14418
3191.95830	0.14443
3190.02963	0.14470
3188.10095	0.14498
3186.17228	0.14525
3184.24360	0.14552
3182.31493	0.14578
3180.38625	0.14601
3178.45757	0.14624
3176.52890	0.14648
3174.60022	0.14673
3172.67155	0.14698
3170.74287	0.14724
3168.81420	0.14751
3166.88552	0.14775
3164.95684	0.14797
3163.02817	0.14822
3161.09949	0.14849
3159.17082	0.14875
3157.24214	0.14898
3155.31347	0.14921
3153.38479	0.14946
3151.45611	0.14973
3149.52744	0.15001
3147.59876	0.15028
3145.67009	0.15056
3143.74141	0.15081
3141.81274	0.15105
3139.88406	0.15128
3137.95538	0.15151
3136.02671	0.15176
3134.09803	0.15201
3132.16936	0.15225
3130.24068	0.15249
3128.31201	0.15274
3126.38333	0.15297
3124.45465	0.15319
3122.52598	0.15344
3120.59730	0.15370
3118.66863	0.15396
3116.73995	0.15422
3114.81128	0.15447
3112.88260	0.15473
3110.95392	0.15499
3109.02525	0.15523
3107.09657	0.15544
3105.16790	0.15569
3103.23922	0.15596
3101.31055	0.15622
3099.38187	0.15648
3097.45319	0.15673
3095.52452	0.15695
3093.59584	0.15718
3091.66717	0.15744
3089.73849	0.15773
3087.80982	0.15800
3085.88114	0.15825
3083.95246	0.15847
3082.02379	0.15869
3080.09511	0.15892
3078.16644	0.15919
3076.23776	0.15948
3074.30909	0.15974
3072.38041	0.15997
3070.45173	0.16018
3068.52306	0.16039
3066.59438	0.16065
3064.66571	0.16091
3062.73703	0.16116
3060.80836	0.16140
3058.87968	0.16166
3056.95100	0.16193
3055.02233	0.16219
3053.09365	0.16245
3051.16498	0.16270
3049.23630	0.16295
3047.30763	0.16319
3045.37895	0.16342
3043.45027	0.16365
3041.52160	0.16387
3039.59292	0.16411
3037.66425	0.16435
3035.73557	0.16463
3033.80690	0.16488
3031.87822	0.16511
3029.94954	0.16535
3028.02087	0.16562
3026.09219	0.16588
3024.16352	0.16611
3022.23484	0.16634
3020.30617	0.16657
3018.37749	0.16678
3016.44881	0.16701
3014.52014	0.16728
3012.59146	0.16758
3010.66279	0.16784
3008.73411	0.16808
3006.80544	0.16833
3004.87676	0.16859
3002.94808	0.16884
3001.01941	0.16907
2999.09073	0.16930
2997.16206	0.16954
2995.23338	0.16978
2993.30471	0.17000
2991.37603	0.17021
2989.44735	0.17042
2987.51868	0.17062
2985.59000	0.17082
2983.66133	0.17098
2981.73265	0.17112
2979.80398	0.17124
2977.87530	0.17135
2975.94662	0.17143
2974.01795	0.17146
2972.08927	0.17144
2970.16060	0.17142
2968.23192	0.17140
2966.30325	0.17144
2964.37457	0.17152
2962.44589	0.17164
2960.51722	0.17183
2958.58854	0.17208
2956.65987	0.17239
2954.73119	0.17274
2952.80252	0.17308
2950.87384	0.17335
2948.94516	0.17360
2947.01649	0.17386
2945.08781	0.17408
2943.15914	0.17420
2941.23046	0.17424
2939.30179	0.17423
2937.37311	0.17418
2935.44443	0.17413
2933.51576	0.17408
2931.58708	0.17400
2929.65841	0.17389
2927.72973	0.17379
2925.80106	0.17375
2923.87238	0.17379
2921.94370	0.17386
2920.01503	0.17395
2918.08635	0.17418
2916.15768	0.17468
2914.22900	0.17549
2912.30033	0.17638
2910.37165	0.17718
2908.44297	0.17784
2906.51430	0.17839
2904.58562	0.17884
2902.65695	0.17924
2900.72827	0.17961
2898.79960	0.17996
2896.87092	0.18032
2894.94224	0.18071
2893.01357	0.18110
2891.08489	0.18144
2889.15622	0.18176
2887.22754	0.18207
2885.29887	0.18239
2883.37019	0.18270
2881.44151	0.18298
2879.51284	0.18321
2877.58416	0.18346
2875.65549	0.18373
2873.72681	0.18400
2871.79814	0.18423
2869.86946	0.18445
2867.94078	0.18467
2866.01211	0.18488
2864.08343	0.18503
2862.15476	0.18511
2860.22608	0.18515
2858.29741	0.18515
2856.36873	0.18511
2854.44005	0.18503
2852.51138	0.18499
2850.58270	0.18515
2848.65403	0.18564
2846.72535	0.18643
2844.79668	0.18730
2842.86800	0.18810
2840.93932	0.18876
2839.01065	0.18928
2837.08197	0.18969
2835.15330	0.19007
2833.22462	0.19042
2831.29595	0.19077
2829.36727	0.19111
2827.43859	0.19144
2825.50992	0.19173
2823.58124	0.19200
2821.65257	0.19228
2819.72389	0.19259
2817.79522	0.19290
2815.86654	0.19320
2813.93786	0.19349
2812.00919	0.19376
2810.08051	0.19404
2808.15184	0.19434
2806.22316	0.19461
2804.29449	0.19487
2802.36581	0.19514
2800.43713	0.19542
2798.50846	0.19570
2796.57978	0.19600
2794.65111	0.19632
2792.72243	0.19662
2790.79376	0.19689
2788.86508	0.19714
2786.93640	0.19739
2785.00773	0.19764
2783.07905	0.19792
2781.15038	0.19820
2779.22170	0.19847
2777.29303	0.19875
2775.36435	0.19903
2773.43567	0.19932
2771.50700	0.19961
2769.57832	0.19987
2767.64965	0.20011
2765.72097	0.20037
2763.79230	0.20065
2761.86362	0.20091
2759.93494	0.20118
2758.00627	0.20145
2756.07759	0.20171
2754.14892	0.20197
2752.22024	0.20224
2750.29157	0.20248
2748.36289	0.20273
2746.43421	0.20299
2744.50554	0.20325
2742.57686	0.20352
2740.64819	0.20381
2738.71951	0.20410
2736.79084	0.20437
2734.86216	0.20458
2732.93348	0.20478
2731.00481	0.20504
2729.07613	0.20532
2727.14746	0.20559
2725.21878	0.20584
2723.29011	0.20607
2721.36143	0.20631
2719.43275	0.20660
2717.50408	0.20691
2715.57540	0.20716
2713.64673	0.20739
2711.71805	0.20764
2709.78938	0.20791
2707.86070	0.20815
2705.93202	0.20839
2704.00335	0.20865
2702.07467	0.20889
2700.14600	0.20916
2698.21732	0.20945
2696.28865	0.20973
2694.35997	0.20998
2692.43129	0.21021
2690.50262	0.21044
2688.57394	0.21070
2686.64527	0.21097
2684.71659	0.21123
2682.78792	0.21147
2680.85924	0.21171
2678.93056	0.21198
2677.00189	0.21226
2675.07321	0.21253
2673.14454	0.21277
2671.21586	0.21302
2669.28719	0.21328
2667.35851	0.21356
2665.42983	0.21384
2663.50116	0.21411
2661.57248	0.21437
2659.64381	0.21463
2657.71513	0.21489
2655.78646	0.21514
2653.85778	0.21539
2651.92910	0.21565
2650.00043	0.21592
2648.07175	0.21621
2646.14308	0.21651
2644.21440	0.21679
2642.28573	0.21706
2640.35705	0.21734
2638.42837	0.21762
2636.49970	0.21793
2634.57102	0.21824
2632.64235	0.21854
2630.71367	0.21884
2628.78500	0.21912
2626.85632	0.21940
2624.92764	0.21967
2622.99897	0.21995
2621.07029	0.22023
2619.14162	0.22050
2617.21294	0.22079
2615.28427	0.22108
2613.35559	0.22136
2611.42691	0.22164
2609.49824	0.22193
2607.56956	0.22219
2605.64089	0.22243
2603.71221	0.22269
2601.78354	0.22296
2599.85486	0.22322
2597.92618	0.22351
2595.99751	0.22384
2594.06883	0.22414
2592.14016	0.22439
2590.21148	0.22467
2588.28281	0.22497
2586.35413	0.22526
2584.42545	0.22550
2582.49678	0.22575
2580.56810	0.22603
2578.63943	0.22631
2576.71075	0.22658
2574.78208	0.22684
2572.85340	0.22709
2570.92472	0.22733
2568.99605	0.22760
2567.06737	0.22789
2565.13870	0.22815
2563.21002	0.22837
2561.28135	0.22861
2559.35267	0.22891
2557.42399	0.22922
2555.49532	0.22948
2553.56664	0.22972
2551.63797	0.22998
2549.70929	0.23023
2547.78062	0.23050
2545.85194	0.23076
2543.92326	0.23101
2541.99459	0.23126
2540.06591	0.23152
2538.13724	0.23181
2536.20856	0.23210
2534.27989	0.23238
2532.35121	0.23264
2530.42253	0.23292
2528.49386	0.23325
2526.56518	0.23356
2524.63651	0.23383
2522.70783	0.23410
2520.77916	0.23437
2518.85048	0.23465
2516.92181	0.23495
2514.99313	0.23526
2513.06445	0.23556
2511.13578	0.23586
2509.20710	0.23615
2507.27843	0.23644
2505.34975	0.23673
2503.42108	0.23705
2501.49240	0.23738
2499.56372	0.23771
2497.63505	0.23802
2495.70637	0.23834
2493.77770	0.23865
2491.84902	0.23895
2489.92035	0.23925
2487.99167	0.23954
2486.06299	0.23983
2484.13432	0.24012
2482.20564	0.24041
2480.27697	0.24072
2478.34829	0.24101
2476.41962	0.24125
2474.49094	0.24149
2472.56226	0.24180
2470.63359	0.24213
2468.70491	0.24240
2466.77624	0.24266
2464.84756	0.24295
2462.91889	0.24325
2460.99021	0.24356
2459.06153	0.24385
2457.13286	0.24411
2455.20418	0.24436
2453.27551	0.24465
2451.34683	0.24498
2449.41816	0.24533
2447.48948	0.24566
2445.56080	0.24595
2443.63213	0.24622
2441.70345	0.24648
2439.77478	0.24674
2437.84610	0.24703
2435.91743	0.24734
2433.98875	0.24762
2432.06007	0.24790
2430.13140	0.24818
2428.20272	0.24846
2426.27405	0.24873
2424.34537	0.24904
2422.41670	0.24937
2420.48802	0.24970
2418.55934	0.25000
2416.63067	0.25025
2414.70199	0.25050
2412.77332	0.25080
2410.84464	0.25110
2408.91597	0.25136
2406.98729	0.25161
2405.05861	0.25190
2403.12994	0.25222
2401.20126	0.25253
2399.27259	0.25280
2397.34391	0.25305
2395.41524	0.25333
2393.48656	0.25362
2391.55788	0.25388
2389.62921	0.25414
2387.70053	0.25440
2385.77186	0.25468
2383.84318	0.25494
2381.91451	0.25516
2379.98583	0.25532
2378.05715	0.25546
2376.12848	0.25556
2374.19980	0.25563
2372.27113	0.25567
2370.34245	0.25569
2368.41378	0.25574
2366.48510	0.25586
2364.55642	0.25604
2362.62775	0.25628
2360.69907	0.25656
2358.77040	0.25692
2356.84172	0.25735
2354.91305	0.25785
2352.98437	0.25843
2351.05569	0.25904
2349.12702	0.25946
2347.19834	0.25960
2345.26967	0.25963
2343.34099	0.25975
2341.41232	0.25995
2339.48364	0.26018
2337.55496	0.26043
2335.62629	0.26070
2333.69761	0.26102
2331.76894	0.26135
2329.84026	0.26166
2327.91159	0.26199
2325.98291	0.26237
2324.05423	0.26275
2322.12556	0.26312
2320.19688	0.26351
2318.26821	0.26391
2316.33953	0.26427
2314.41086	0.26463
2312.48218	0.26503
2310.55350	0.26543
2308.62483	0.26580
2306.69615	0.26613
2304.76748	0.26644
2302.83880	0.26677
2300.91013	0.26708
2298.98145	0.26737
2297.05277	0.26767
2295.12410	0.26796
2293.19542	0.26828
2291.26675	0.26861
2289.33807	0.26892
2287.40940	0.26924
2285.48072	0.26956
2283.55204	0.26986
2281.62337	0.27014
2279.69469	0.27041
2277.76602	0.27068
2275.83734	0.27100
2273.90867	0.27130
2271.97999	0.27157
2270.05131	0.27181
2268.12264	0.27208
2266.19396	0.27238
2264.26529	0.27268
2262.33661	0.27293
2260.40794	0.27318
2258.47926	0.27347
2256.55058	0.27375
2254.62191	0.27400
2252.69323	0.27431
2250.76456	0.27469
2248.83588	0.27506
2246.90721	0.27534
2244.97853	0.27560
2243.04985	0.27591
2241.12118	0.27624
2239.19250	0.27654
2237.26383	0.27678
2235.33515	0.27699
2233.40648	0.27724
2231.47780	0.27752
2229.54912	0.27781
2227.62045	0.27807
2225.69177	0.27834
2223.76310	0.27861
2221.83442	0.27889
2219.90575	0.27922
2217.97707	0.27956
2216.04839	0.27987
2214.11972	0.28012
2212.19104	0.28037
2210.26237	0.28065
2208.33369	0.28095
2206.40502	0.28122
2204.47634	0.28150
2202.54766	0.28181
2200.61899	0.28208
2198.69031	0.28233
2196.76164	0.28260
2194.83296	0.28289
2192.90429	0.28318
2190.97561	0.28346
2189.04693	0.28370
2187.11826	0.28393
2185.18958	0.28419
2183.26091	0.28446
2181.33223	0.28473
2179.40356	0.28504
2177.47488	0.28536
2175.54620	0.28564
2173.61753	0.28590
2171.68885	0.28617
2169.76018	0.28649
2167.83150	0.28684
2165.90283	0.28717
2163.97415	0.28748
2162.04547	0.28778
2160.11680	0.28806
2158.18812	0.28833
2156.25945	0.28861
2154.33077	0.28892
2152.40210	0.28923
2150.47342	0.28951
2148.54474	0.28980
2146.61607	0.29012
2144.68739	0.29045
2142.75872	0.29073
2140.83004	0.29099
2138.90137	0.29129
2136.97269	0.29159
2135.04401	0.29186
2133.11534	0.29210
2131.18666	0.29233
2129.25799	0.29261
2127.32931	0.29292
2125.40064	0.29324
2123.47196	0.29357
2121.54328	0.29390
2119.61461	0.29422
2117.68593	0.29452
2115.75726	0.29479
2113.82858	0.29506
2111.89991	0.29536
2109.97123	0.29566
2108.04255	0.29594
2106.11388	0.29624
2104.18520	0.29657
2102.25653	0.29690
2100.32785	0.29720
2098.39918	0.29748
2096.47050	0.29772
2094.54182	0.29795
2092.61315	0.29818
2090.68447	0.29845
2088.75580	0.29875
2086.82712	0.29907
2084.89845	0.29937
2082.96977	0.29963
2081.04109	0.29989
2079.11242	0.30019
2077.18374	0.30053
2075.25507	0.30087
2073.32639	0.30120
2071.39772	0.30150
2069.46904	0.30179
2067.54036	0.30204
2065.61169	0.30229
2063.68301	0.30258
2061.75434	0.30291
2059.82566	0.30320
2057.89699	0.30348
2055.96831	0.30377
2054.03963	0.30404
2052.11096	0.30432
2050.18228	0.30465
2048.25361	0.30495
2046.32493	0.30519
2044.39626	0.30545
2042.46758	0.30577
2040.53890	0.30613
2038.61023	0.30646
2036.68155	0.30673
2034.75288	0.30699
2032.82420	0.30729
2030.89553	0.30757
2028.96685	0.30785
2027.03817	0.30815
2025.10950	0.30846
2023.18082	0.30878
2021.25215	0.30905
2019.32347	0.30929
2017.39480	0.30955
2015.46612	0.30991
2013.53744	0.31030
2011.60877	0.31064
2009.68009	0.31092
2007.75142	0.31117
2005.82274	0.31142
2003.89407	0.31170
2001.96539	0.31199
2000.03671	0.31225
1998.10804	0.31250
1996.17936	0.31275
1994.25069	0.31294
1992.32201	0.31315
1990.39334	0.31347
1988.46466	0.31382
1986.53598	0.31411
1984.60731	0.31437
1982.67863	0.31461
1980.74996	0.31486
1978.82128	0.31510
1976.89261	0.31536
1974.96393	0.31563
1973.03525	0.31589
1971.10658	0.31613
1969.17790	0.31631
1967.24923	0.31649
1965.32055	0.31676
1963.39188	0.31709
1961.46320	0.31740
1959.53452	0.31768
1957.60585	0.31793
1955.67717	0.31820
1953.74850	0.31853
1951.81982	0.31885
1949.89115	0.31911
1947.96247	0.31936
1946.03379	0.31958
1944.10512	0.31972
1942.17644	0.31993
1940.24777	0.32031
1938.31909	0.32071
1936.39042	0.32106
1934.46174	0.32137
1932.53306	0.32161
1930.60439	0.32181
1928.67571	0.32205
1926.74704	0.32235
1924.81836	0.32261
1922.88969	0.32286
1920.96101	0.32306
1919.03233	0.32318
1917.10366	0.32346
1915.17498	0.32399
1913.24631	0.32440
1911.31763	0.32462
1909.38896	0.32482
1907.46028	0.32512
1905.53160	0.32548
1903.60293	0.32584
1901.67425	0.32617
1899.74558	0.32644
1897.81690	0.32664
1895.88823	0.32683
1893.95955	0.32708
1892.03087	0.32725
1890.10220	0.32739
1888.17352	0.32774
1886.24485	0.32820
1884.31617	0.32856
1882.38750	0.32882
1880.45882	0.32908
1878.53014	0.32937
1876.60147	0.32969
1874.67279	0.32996
1872.74412	0.33007
1870.81544	0.32994
1868.88677	0.32996
1866.95809	0.33045
1865.02941	0.33115
1863.10074	0.33165
1861.17206	0.33196
1859.24339	0.33224
1857.31471	0.33255
1855.38604	0.33286
1853.45736	0.33317
1851.52868	0.33342
1849.60001	0.33359
1847.67133	0.33354
1845.74266	0.33332
1843.81398	0.33350
1841.88531	0.33426
1839.95663	0.33499
1838.02795	0.33536
1836.09928	0.33564
1834.17060	0.33584
1832.24193	0.33581
1830.31325	0.33577
1828.38458	0.33604
1826.45590	0.33644
1824.52722	0.33686
1822.59855	0.33738
1820.66987	0.33780
1818.74120	0.33807
1816.81252	0.33837
1814.88385	0.33864
1812.95517	0.33877
1811.02649	0.33891
1809.09782	0.33921
1807.16914	0.33958
1805.24047	0.33980
1803.31179	0.33978
1801.38312	0.33976
1799.45444	0.34003
1797.52576	0.34044
1795.59709	0.34057
1793.66841	0.34038
1791.73974	0.34048
1789.81106	0.34114
1787.88239	0.34172
1785.95371	0.34186
1784.02503	0.34196
1782.09636	0.34218
1780.16768	0.34245
1778.23901	0.34274
1776.31033	0.34280
1774.38166	0.34249
1772.45298	0.34227
1770.52430	0.34250
1768.59563	0.34300
1766.66695	0.34363
1764.73828	0.34406
1762.80960	0.34410
1760.88093	0.34417
1758.95225	0.34436
1757.02357	0.34448
1755.09490	0.34455
1753.16622	0.34426
1751.23755	0.34375
1749.30887	0.34370
1747.38020	0.34409
1745.45152	0.34443
1743.52284	0.34453
1741.59417	0.34453
1739.66549	0.34463
1737.73682	0.34464
1735.80814	0.34412
1733.87947	0.34386
1731.95079	0.34465
1730.02211	0.34576
1728.09344	0.34658
1726.16476	0.34705
1724.23609	0.34728
1722.30741	0.34737
1720.37874	0.34701
1718.45006	0.34645
1716.52138	0.34653
1714.59271	0.34734
1712.66403	0.34823
1710.73536	0.34872
1708.80668	0.34872
1706.87801	0.34849
1704.94933	0.34835
1703.02065	0.34788
1701.09198	0.34710
1699.16330	0.34701
1697.23463	0.34751
1695.30595	0.34813
1693.37728	0.34894
1691.44860	0.34937
1689.51992	0.34927
1687.59125	0.34886
1685.66257	0.34815
1683.73390	0.34796
1681.80522	0.34873
1679.87655	0.34952
1677.94787	0.34958
1676.01919	0.34924
1674.09052	0.34917
1672.16184	0.34915
1670.23317	0.34905
1668.30449	0.34950
1666.37582	0.35027
1664.44714	0.35044
1662.51846	0.35036
1660.58979	0.35067
1658.66111	0.35096
1656.73244	0.35037
1654.80376	0.34899
1652.87509	0.34847
1650.94641	0.34939
1649.01773	0.35002
1647.08906	0.34999
1645.16038	0.35049
1643.23171	0.35137
1641.30303	0.35180
1639.37436	0.35154
1637.44568	0.35089
1635.51700	0.35071
1633.58833	0.35149
1631.65965	0.35228
1629.73098	0.35232
1627.80230	0.35202
1625.87363	0.35160
1623.94495	0.35100
1622.01627	0.35057
1620.08760	0.35048
1618.15892	0.35069
1616.23025	0.35161
1614.30157	0.35310
1612.37290	0.35423
1610.44422	0.35477
1608.51554	0.35514
1606.58687	0.35557
1604.65819	0.35601
1602.72952	0.35639
1600.80084	0.35675
1598.87217	0.35708
1596.94349	0.35730
1595.01481	0.35749
1593.08614	0.35776
1591.15746	0.35805
1589.22879	0.35840
1587.30011	0.35878
1585.37144	0.35908
1583.44276	0.35930
1581.51408	0.35954
1579.58541	0.35954
1577.65673	0.35923
1575.72806	0.35930
1573.79938	0.35989
1571.87071	0.36012
1569.94203	0.35999
1568.01335	0.36028
1566.08468	0.36083
1564.15600	0.36110
1562.22733	0.36060
1560.29865	0.35941
1558.36998	0.35905
1556.44130	0.36016
1554.51262	0.36151
1552.58395	0.36228
1550.65527	0.36270
1548.72660	0.36296
1546.79792	0.36288
1544.86925	0.36229
1542.94057	0.36154
1541.01189	0.36123
1539.08322	0.36188
1537.15454	0.36302
1535.22587	0.36350
1533.29719	0.36357
1531.36852	0.36398
1529.43984	0.36428
1527.51116	0.36418
1525.58249	0.36399
1523.65381	0.36354
1521.72514	0.36306
1519.79646	0.36326
1517.86779	0.36386
1515.93911	0.36447
1514.01043	0.36501
1512.08176	0.36514
1510.15308	0.36464
1508.22441	0.36397
1506.29573	0.36423
1504.36706	0.36556
1502.43838	0.36658
1500.50970	0.36656
1498.58103	0.36622
1496.65235	0.36634
1494.72368	0.36685
1492.79500	0.36696
1490.86633	0.36654
1488.93765	0.36643
1487.00897	0.36694
1485.08030	0.36752
1483.15162	0.36775
1481.22295	0.36774
1479.29427	0.36756
1477.36560	0.36702
1475.43692	0.36624
1473.50824	0.36569
1471.57957	0.36575
1469.65089	0.36615
1467.72222	0.36614
1465.79354	0.36579
1463.86487	0.36584
1461.93619	0.36598
1460.00751	0.36529
1458.07884	0.36424
1456.15016	0.36435
1454.22149	0.36557
1452.29281	0.36657
1450.36414	0.36686
1448.43546	0.36688
1446.50678	0.36713
1444.57811	0.36760
1442.64943	0.36792
1440.72076	0.36781
1438.79208	0.36711
1436.86341	0.36652
1434.93473	0.36685
1433.00605	0.36750
1431.07738	0.36770
1429.14870	0.36774
1427.22003	0.36779
1425.29135	0.36767
1423.36268	0.36741
1421.43400	0.36682
1419.50532	0.36613
1417.57665	0.36623
1415.64797	0.36693
1413.71930	0.36734
1411.79062	0.36738
1409.86195	0.36732
1407.93327	0.36714
1406.00459	0.36686
1404.07592	0.36673
1402.14724	0.36666
1400.21857	0.36637
1398.28989	0.36603
1396.36122	0.36584
1394.43254	0.36592
1392.50386	0.36626
1390.57519	0.36623
1388.64651	0.36556
1386.71784	0.36492
1384.78916	0.36475
1382.86049	0.36491
1380.93181	0.36509
1379.00313	0.36511
1377.07446	0.36490
1375.14578	0.36465
1373.21711	0.36464
1371.28843	0.36480
1369.35976	0.36485
1367.43108	0.36475
1365.50240	0.36447
1363.57373	0.36406
1361.64505	0.36397
1359.71638	0.36428
1357.78770	0.36457
1355.85903	0.36462
1353.93035	0.36464
1352.00167	0.36470
1350.07300	0.36476
1348.14432	0.36488
1346.21565	0.36506
1344.28697	0.36516
1342.35830	0.36501
1340.42962	0.36472
1338.50094	0.36462
1336.57227	0.36478
1334.64359	0.36494
1332.71492	0.36500
1330.78624	0.36495
1328.85757	0.36483
1326.92889	0.36469
1325.00021	0.36456
1323.07154	0.36439
1321.14286	0.36414
1319.21419	0.36388
1317.28551	0.36372
1315.35684	0.36363
1313.42816	0.36350
1311.49948	0.36331
1309.57081	0.36306
1307.64213	0.36276
1305.71346	0.36244
1303.78478	0.36208
1301.85611	0.36169
1299.92743	0.36132
1297.99875	0.36099
1296.07008	0.36066
1294.14140	0.36028
1292.21273	0.35983
1290.28405	0.35930
1288.35538	0.35871
1286.42670	0.35816
1284.49802	0.35765
1282.56935	0.35711
1280.64067	0.35650
1278.71200	0.35585
1276.78332	0.35510
1274.85465	0.35416
1272.92597	0.35298
1270.99729	0.35157
1269.06862	0.34993
1267.13994	0.34817
1265.21127	0.34656
1263.28259	0.34536
1261.35392	0.34475
1259.42524	0.34468
1257.49656	0.34486
1255.56789	0.34495
1253.63921	0.34476
1251.71054	0.34429
1249.78186	0.34368
1247.85319	0.34299
1245.92451	0.34225
1243.99583	0.34147
1242.06716	0.34063
1240.13848	0.33976
1238.20981	0.33887
1236.28113	0.33786
1234.35246	0.33674
1232.42378	0.33565
1230.49510	0.33462
1228.56643	0.33361
1226.63775	0.33264
1224.70908	0.33172
1222.78040	0.33086
1220.85173	0.32999
1218.92305	0.32907
1216.99437	0.32815
1215.06570	0.32731
1213.13702	0.32645
1211.20835	0.32553
1209.27967	0.32463
1207.35100	0.32374
1205.42232	0.32288
1203.49364	0.32203
1201.56497	0.32117
1199.63629	0.32032
1197.70762	0.31950
1195.77894	0.31868
1193.85027	0.31778
1191.92159	0.31685
1189.99291	0.31591
1188.06424	0.31491
1186.13556	0.31380
1184.20689	0.31261
1182.27821	0.31135
1180.34954	0.31004
1178.42086	0.30876
1176.49218	0.30752
1174.56351	0.30625
1172.63483	0.30494
1170.70616	0.30356
1168.77748	0.30216
1166.84881	0.30075
1164.92013	0.29938
1162.99145	0.29810
1161.06278	0.29685
1159.13410	0.29562
1157.20543	0.29443
1155.27675	0.29327
1153.34808	0.29213
1151.41940	0.29099
1149.49072	0.28987
1147.56205	0.28878
1145.63337	0.28770
1143.70470	0.28657
1141.77602	0.28546
1139.84735	0.28438
1137.91867	0.28332
1135.98999	0.28220
1134.06132	0.28102
1132.13264	0.27981
1130.20397	0.27853
1128.27529	0.27717
1126.34662	0.27585
1124.41794	0.27459
1122.48926	0.27322
1120.56059	0.27174
1118.63191	0.27030
1116.70324	0.26893
1114.77456	0.26750
1112.84589	0.26599
1110.91721	0.26444
1108.98853	0.26296
1107.05986	0.26159
1105.13118	0.26025
1103.20251	0.25890
1101.27383	0.25755
1099.34516	0.25621
1097.41648	0.25492
1095.48780	0.25373
1093.55913	0.25264
1091.63045	0.25163
1089.70178	0.25063
1087.77310	0.24960
1085.84443	0.24856
1083.91575	0.24757
1081.98707	0.24666
1080.05840	0.24578
1078.12972	0.24485
1076.20105	0.24400
1074.27237	0.24332
1072.34370	0.24279
1070.41502	0.24236
1068.48634	0.24207
1066.55767	0.24192
1064.62899	0.24185
1062.70032	0.24185
1060.77164	0.24193
1058.84297	0.24211
1056.91429	0.24243
1054.98561	0.24282
1053.05694	0.24322
1051.12826	0.24365
1049.19959	0.24410
1047.27091	0.24464
1045.34224	0.24530
1043.41356	0.24601
1041.48488	0.24669
1039.55621	0.24736
1037.62753	0.24806
1035.69886	0.24879
1033.77018	0.24956
1031.84151	0.25033
1029.91283	0.25110
1027.98415	0.25190
1026.05548	0.25263
1024.12680	0.25332
1022.19813	0.25408
1020.26945	0.25493
1018.34078	0.25586
1016.41210	0.25690
1014.48342	0.25801
1012.55475	0.25917
1010.62607	0.26041
1008.69740	0.26177
1006.76872	0.26315
1004.84005	0.26442
1002.91137	0.26551
1000.98269	0.26647
999.05402	0.26730
997.12534	0.26800
995.19667	0.26862
993.26799	0.26923
991.33932	0.26983
989.41064	0.27043
987.48196	0.27100
985.55329	0.27154
983.62461	0.27207
981.69594	0.27253
979.76726	0.27283
977.83859	0.27293
975.90991	0.27292
973.98123	0.27286
972.05256	0.27280
970.12388	0.27275
968.19521	0.27272
966.26653	0.27268
964.33786	0.27255
962.40918	0.27232
960.48050	0.27201
958.55183	0.27168
956.62315	0.27139
954.69448	0.27108
952.76580	0.27068
950.83713	0.27023
948.90845	0.26976
946.97977	0.26928
945.05110	0.26884
943.12242	0.26833
941.19375	0.26769
939.26507	0.26702
937.33640	0.26638
935.40772	0.26581
933.47904	0.26528
931.55037	0.26473
929.62169	0.26415
927.69302	0.26356
925.76434	0.26291
923.83567	0.26223
921.90699	0.26157
919.97831	0.26092
918.04964	0.26020
916.12096	0.25949
914.19229	0.25884
912.26361	0.25814
910.33494	0.25735
908.40626	0.25650
906.47758	0.25565
904.54891	0.25483
902.62023	0.25403
900.69156	0.25322
898.76288	0.25241
896.83421	0.25160
894.90553	0.25079
892.97685	0.24994
891.04818	0.24907
889.11950	0.24825
887.19083	0.24745
885.26215	0.24663
883.33348	0.24579
881.40480	0.24497
879.47612	0.24418
877.54745	0.24343
875.61877	0.24271
873.69010	0.24200
871.76142	0.24132
869.83275	0.24064
867.90407	0.23985
865.97539	0.23898
864.04672	0.23810
862.11804	0.23727
860.18937	0.23641
858.26069	0.23549
856.33202	0.23463
854.40334	0.23388
852.47466	0.23311
850.54599	0.23218
848.61731	0.23122
846.68864	0.23035
844.75996	0.22950
842.83129	0.22864
840.90261	0.22783
838.97394	0.22705
837.04526	0.22619
835.11658	0.22523
833.18791	0.22426
831.25923	0.22329
829.33056	0.22227
827.40188	0.22119
825.47321	0.22010
823.54453	0.21903
821.61585	0.21803
819.68718	0.21710
817.75850	0.21621
815.82983	0.21537
813.90115	0.21455
811.97248	0.21364
810.04380	0.21269
808.11512	0.21176
806.18645	0.21092
804.25777	0.21014
802.32910	0.20944
800.40042	0.20886
798.47175	0.20836
796.54307	0.20789
794.61439	0.20747
792.68572	0.20717
790.75704	0.20694
788.82837	0.20666
786.89969	0.20632
784.97102	0.20590
783.04234	0.20541
781.11366	0.20494
779.18499	0.20451
777.25631	0.20406
775.32764	0.20363
773.39896	0.20320
771.47029	0.20269
769.54161	0.20211
767.61293	0.20153
765.68426	0.20095
763.75558	0.20031
761.82691	0.19958
759.89823	0.19878
757.96956	0.19794
756.04088	0.19712
754.11220	0.19635
752.18353	0.19550
750.25485	0.19454
748.32618	0.19361
746.39750	0.19279
744.46883	0.19196
742.54015	0.19109
740.61147	0.19028
738.68280	0.18955
736.75412	0.18883
734.82545	0.18809
732.89677	0.18737
730.96810	0.18673
729.03942	0.18618
727.11074	0.18557
725.18207	0.18482
723.25339	0.18399
721.32472	0.18321
719.39604	0.18253
717.46737	0.18188
715.53869	0.18117
713.61001	0.18040
711.68134	0.17962
709.75266	0.17886
707.82399	0.17810
705.89531	0.17734
703.96664	0.17662
702.03796	0.17593
700.10928	0.17522
698.18061	0.17446
696.25193	0.17367
694.32326	0.17284
692.39458	0.17198
690.46591	0.17117
688.53723	0.17038
686.60855	0.16955
684.67988	0.16863
682.75120	0.16761
680.82253	0.16653
678.89385	0.16541
676.96518	0.16423
675.03650	0.16302
673.10782	0.16180
671.17915	0.16039
669.25047	0.15874
667.32180	0.15722
665.39312	0.15603
663.46445	0.15477
661.53577	0.15329
659.60709	0.15180
657.67842	0.15033
655.74974	0.14887
653.82107	0.14745
651.89239	0.14609
649.96372	0.14471
648.03504	0.14327
646.10636	0.14176
644.17769	0.14017
642.24901	0.13855
640.32034	0.13697
638.39166	0.13539
636.46299	0.13373
634.53431	0.13198
632.60563	0.13018
630.67696	0.12845
628.74828	0.12686
626.81961	0.12527
624.89093	0.12356
622.96226	0.12184
621.03358	0.12025
619.10490	0.11877
617.17623	0.11724
615.24755	0.11556
613.31888	0.11376
611.39020	0.11201
609.46153	0.11040
607.53285	0.10887
605.60417	0.10739
603.67550	0.10602
601.74682	0.10469
599.81815	0.10327
597.88947	0.10184
595.96080	0.10053
594.03212	0.09941
592.10344	0.09840
590.17477	0.09740
588.24609	0.09637
586.31742	0.09528
584.38874	0.09417
582.46007	0.09316
580.53139	0.09227
578.60271	0.09132
576.67404	0.09027
574.74536	0.08922
572.81669	0.08822
570.88801	0.08731
568.95934	0.08647
567.03066	0.08571
565.10198	0.08501
563.17331	0.08434
561.24463	0.08368
559.31596	0.08298
557.38728	0.08224
555.45861	0.08157
553.52993	0.08093
551.60125	0.08026
549.67258	0.07965
547.74390	0.07917
545.81523	0.07876
543.88655	0.07834
541.95788	0.07792
540.02920	0.07749
538.10052	0.07701
536.17185	0.07648
534.24317	0.07591
532.31450	0.07538
530.38582	0.07486
528.45715	0.07424
526.52847	0.07349
524.59979	0.07278
522.67112	0.07212
520.74244	0.07143
518.81377	0.07071
516.88509	0.06990
514.95642	0.06905
513.02774	0.06827
511.09906	0.06756
509.17039	0.06689
507.24171	0.06615
505.31304	0.06530
503.38436	0.06440
501.45569	0.06343
499.52701	0.06232
497.59833	0.06109
495.66966	0.05984
493.74098	0.05864
491.81231	0.05755
489.88363	0.05649
487.95496	0.05539
486.02628	0.05429
484.09760	0.05325
482.16893	0.05211
480.24025	0.05079
478.31158	0.04951
476.38290	0.04835
474.45423	0.04726
472.52555	0.04625
470.59687	0.04536
468.66820	0.04454
466.73952	0.04380
464.81085	0.04327
462.88217	0.04291
460.95350	0.04265
459.02482	0.04244
457.09614	0.04226
455.16747	0.04212
453.23879	0.04196
451.31012	0.04173
449.38144	0.04152
447.45277	0.04137
445.52409	0.04109
443.59541	0.04063
441.66674	0.04015
439.73806	0.03959
437.80939	0.03882
435.88071	0.03795
433.95204	0.03695
432.02336	0.03576
430.09468	0.03457
428.16601	0.03341
426.23733	0.03216
424.30866	0.03086
422.37998	0.02960
420.45131	0.02837
418.52263	0.02719
416.59395	0.02598
414.66528	0.02468
412.73660	0.02338
410.80793	0.02218
408.87925	0.02113
406.95058	0.02020
405.02190	0.01928
403.09322	0.01820
401.16455	0.01694
399.23587	0.01574
397.30720	0.01481
395.37852	0.01404
393.44985	0.01321
391.52117	0.01231
389.59249	0.01144
387.66382	0.01067
385.73514	0.00998
383.80647	0.00932
381.87779	0.00868
379.94912	0.00799
378.02044	0.00724
376.09176	0.00651
374.16309	0.00591
372.23441	0.00545
370.30574	0.00495
368.37706	0.00432
