7496.76250	0.00227
7494.83382	0.00226
7492.90514	0.00226
7490.97647	0.00227
7489.04779	0.00228
7487.11912	0.00229
7485.19044	0.00230
7483.26177	0.00230
7481.33309	0.00231
7479.40441	0.00232
7477.47574	0.00233
7475.54706	0.00235
7473.61839	0.00236
7471.68971	0.00236
7469.76104	0.00236
7467.83236	0.00236
7465.90368	0.00236
7463.97501	0.00237
7462.04633	0.00238
7460.11766	0.00240
7458.18898	0.00241
7456.26031	0.00241
7454.33163	0.00241
7452.40295	0.00241
7450.47428	0.00240
7448.54560	0.00241
7446.61693	0.00243
7444.68825	0.00244
7442.75958	0.00243
7440.83090	0.00244
7438.90222	0.00245
7436.97355	0.00245
7435.04487	0.00246
7433.11620	0.00246
7431.18752	0.00247
7429.25885	0.00249
7427.33017	0.00251
7425.40149	0.00251
7423.47282	0.00251
7421.54414	0.00252
7419.61547	0.00252
7417.68679	0.00252
7415.75812	0.00253
7413.82944	0.00253
7411.90076	0.00254
7409.97209	0.00254
7408.04341	0.00256
7406.11474	0.00258
7404.18606	0.00259
7402.25739	0.00258
7400.32871	0.00256
7398.40003	0.00255
7396.47136	0.00256
7394.54268	0.00257
7392.61401	0.00258
7390.68533	0.00260
7388.75666	0.00261
7386.82798	0.00263
7384.89930	0.00264
7382.97063	0.00264
7381.04195	0.00263
7379.11328	0.00264
7377.18460	0.00265
7375.25593	0.00267
7373.32725	0.00268
7371.39857	0.00269
7369.46990	0.00269
7367.54122	0.00270
7365.61255	0.00271
7363.68387	0.00271
7361.75520	0.00271
7359.82652	0.00272
7357.89784	0.00273
7355.96917	0.00272
7354.04049	0.00273
7352.11182	0.00275
7350.18314	0.00274
7348.25447	0.00274
7346.32579	0.00275
7344.39711	0.00277
7342.46844	0.00276
7340.53976	0.00275
7338.61109	0.00276
7336.68241	0.00279
7334.75374	0.00281
7332.82506	0.00282
7330.89638	0.00282
7328.96771	0.00283
7327.03903	0.00285
7325.11036	0.00286
7323.18168	0.00286
7321.25301	0.00286
7319.32433	0.00287
7317.39565	0.00287
7315.46698	0.00288
7313.53830	0.00288
7311.60963	0.00287
7309.68095	0.00287
7307.75228	0.00289
7305.82360	0.00291
7303.89492	0.00292
7301.96625	0.00293
7300.03757	0.00293
7298.10890	0.00293
7296.18022	0.00292
7294.25155	0.00293
7292.32287	0.00294
7290.39419	0.00296
7288.46552	0.00298
7286.53684	0.00299
7284.60817	0.00298
7282.67949	0.00297
7280.75082	0.00299
7278.82214	0.00301
7276.89346	0.00301
7274.96479	0.00301
7273.03611	0.00301
7271.10744	0.00302
7269.17876	0.00303
7267.25009	0.00304
7265.32141	0.00305
7263.39273	0.00305
7261.46406	0.00305
7259.53538	0.00307
7257.60671	0.00310
7255.67803	0.00311
7253.74936	0.00311
7251.82068	0.00310
7249.89200	0.00310
7247.96333	0.00311
7246.03465	0.00311
7244.10598	0.00311
7242.17730	0.00312
7240.24863	0.00313
7238.31995	0.00316
7236.39127	0.00316
7234.46260	0.00315
7232.53392	0.00314
7230.60525	0.00316
7228.67657	0.00319
7226.74790	0.00320
7224.81922	0.00321
7222.89054	0.00321
7220.96187	0.00321
7219.03319	0.00322
7217.10452	0.00321
7215.17584	0.00321
7213.24717	0.00321
7211.31849	0.00323
7209.38981	0.00325
7207.46114	0.00327
7205.53246	0.00327
7203.60379	0.00328
7201.67511	0.00329
7199.74644	0.00331
7197.81776	0.00331
7195.88908	0.00332
7193.96041	0.00333
7192.03173	0.00334
7190.10306	0.00334
7188.17438	0.00334
7186.24571	0.00335
7184.31703	0.00336
7182.38835	0.00336
7180.45968	0.00337
7178.53100	0.00339
7176.60233	0.00339
7174.67365	0.00340
7172.74498	0.00340
7170.81630	0.00341
7168.88762	0.00342
7166.95895	0.00342
7165.03027	0.00343
7163.10160	0.00344
7161.17292	0.00345
7159.24425	0.00347
7157.31557	0.00349
7155.38689	0.00350
7153.45822	0.00351
7151.52954	0.00351
7149.60087	0.00351
7147.67219	0.00351
7145.74352	0.00352
7143.81484	0.00352
7141.88616	0.00352
7139.95749	0.00353
7138.02881	0.00355
7136.10014	0.00355
7134.17146	0.00355
7132.24279	0.00356
7130.31411	0.00356
7128.38543	0.00358
7126.45676	0.00359
7124.52808	0.00360
7122.59941	0.00360
7120.67073	0.00360
7118.74206	0.00361
7116.81338	0.00363
7114.88470	0.00364
7112.95603	0.00364
7111.02735	0.00365
7109.09868	0.00365
7107.17000	0.00364
7105.24133	0.00365
7103.31265	0.00367
7101.38397	0.00369
7099.45530	0.00369
7097.52662	0.00370
7095.59795	0.00371
7093.66927	0.00372
7091.74060	0.00374
7089.81192	0.00375
7087.88324	0.00374
7085.95457	0.00373
7084.02589	0.00374
7082.09722	0.00376
7080.16854	0.00378
7078.23987	0.00379
7076.31119	0.00378
7074.38251	0.00378
7072.45384	0.00378
7070.52516	0.00379
7068.59649	0.00380
7066.66781	0.00381
7064.73914	0.00381
7062.81046	0.00382
7060.88178	0.00383
7058.95311	0.00385
7057.02443	0.00387
7055.09576	0.00387
7053.16708	0.00388
7051.23841	0.00389
7049.30973	0.00390
7047.38105	0.00391
7045.45238	0.00393
7043.52370	0.00393
7041.59503	0.00393
7039.66635	0.00393
7037.73768	0.00396
7035.80900	0.00398
7033.88032	0.00399
7031.95165	0.00400
7030.02297	0.00402
7028.09430	0.00403
7026.16562	0.00403
7024.23695	0.00403
7022.30827	0.00403
7020.37959	0.00403
7018.45092	0.00403
7016.52224	0.00403
7014.59357	0.00404
7012.66489	0.00406
7010.73622	0.00408
7008.80754	0.00409
7006.87886	0.00410
7004.95019	0.00410
7003.02151	0.00410
7001.09284	0.00410
6999.16416	0.00413
6997.23549	0.00415
6995.30681	0.00415
6993.37813	0.00415
6991.44946	0.00416
6989.52078	0.00417
6987.59211	0.00417
6985.66343	0.00418
6983.73476	0.00420
6981.80608	0.00421
6979.87740	0.00420
6977.94873	0.00421
6976.02005	0.00423
6974.09138	0.00426
6972.16270	0.00428
6970.23403	0.00430
6968.30535	0.00431
6966.37667	0.00430
6964.44800	0.00430
6962.51932	0.00429
6960.59065	0.00429
6958.66197	0.00431
6956.73330	0.00433
6954.80462	0.00435
6952.87594	0.00436
6950.94727	0.00436
6949.01859	0.00435
6947.08992	0.00435
6945.16124	0.00436
6943.23257	0.00439
6941.30389	0.00441
6939.37521	0.00443
6937.44654	0.00443
6935.51786	0.00443
6933.58919	0.00443
6931.66051	0.00444
6929.73184	0.00444
6927.80316	0.00444
6925.87448	0.00445
6923.94581	0.00447
6922.01713	0.00448
6920.08846	0.00449
6918.15978	0.00450
6916.23111	0.00452
6914.30243	0.00454
6912.37375	0.00455
6910.44508	0.00455
6908.51640	0.00454
6906.58773	0.00453
6904.65905	0.00453
6902.73038	0.00454
6900.80170	0.00457
6898.87302	0.00460
6896.94435	0.00461
6895.01567	0.00461
6893.08700	0.00462
6891.15832	0.00464
6889.22965	0.00467
6887.30097	0.00468
6885.37229	0.00468
6883.44362	0.00468
6881.51494	0.00469
6879.58627	0.00471
6877.65759	0.00472
6875.72892	0.00473
6873.80024	0.00474
6871.87156	0.00475
6869.94289	0.00476
6868.01421	0.00476
6866.08554	0.00475
6864.15686	0.00476
6862.22819	0.00478
6860.29951	0.00480
6858.37083	0.00481
6856.44216	0.00481
6854.51348	0.00482
6852.58481	0.00483
6850.65613	0.00485
6848.72746	0.00486
6846.79878	0.00485
6844.87010	0.00486
6842.94143	0.00489
6841.01275	0.00492
6839.08408	0.00493
6837.15540	0.00492
6835.22673	0.00491
6833.29805	0.00491
6831.36937	0.00494
6829.44070	0.00495
6827.51202	0.00496
6825.58335	0.00497
6823.65467	0.00498
6821.72600	0.00499
6819.79732	0.00501
6817.86864	0.00502
6815.93997	0.00502
6814.01129	0.00503
6812.08262	0.00504
6810.15394	0.00505
6808.22527	0.00506
6806.29659	0.00508
6804.36791	0.00509
6802.43924	0.00510
6800.51056	0.00511
6798.58189	0.00512
6796.65321	0.00513
6794.72454	0.00514
6792.79586	0.00516
6790.86718	0.00518
6788.93851	0.00520
6787.00983	0.00522
6785.08116	0.00524
6783.15248	0.00524
6781.22381	0.00523
6779.29513	0.00523
6777.36645	0.00525
6775.43778	0.00526
6773.50910	0.00527
6771.58043	0.00527
6769.65175	0.00527
6767.72308	0.00528
6765.79440	0.00531
6763.86572	0.00532
6761.93705	0.00533
6760.00837	0.00534
6758.07970	0.00535
6756.15102	0.00538
6754.22235	0.00540
6752.29367	0.00540
6750.36499	0.00540
6748.43632	0.00540
6746.50764	0.00541
6744.57897	0.00544
6742.65029	0.00546
6740.72162	0.00548
6738.79294	0.00549
6736.86426	0.00549
6734.93559	0.00549
6733.00691	0.00551
6731.07824	0.00552
6729.14956	0.00554
6727.22089	0.00555
6725.29221	0.00555
6723.36353	0.00555
6721.43486	0.00556
6719.50618	0.00557
6717.57751	0.00559
6715.64883	0.00560
6713.72016	0.00561
6711.79148	0.00564
6709.86280	0.00565
6707.93413	0.00565
6706.00545	0.00566
6704.07678	0.00567
6702.14810	0.00567
6700.21943	0.00568
6698.29075	0.00569
6696.36207	0.00571
6694.43340	0.00571
6692.50472	0.00573
6690.57605	0.00575
6688.64737	0.00576
6686.71870	0.00578
6684.79002	0.00579
6682.86134	0.00581
6680.93267	0.00581
6679.00399	0.00581
6677.07532	0.00583
6675.14664	0.00585
6673.21797	0.00588
6671.28929	0.00589
6669.36061	0.00589
6667.43194	0.00590
6665.50326	0.00590
6663.57459	0.00590
6661.64591	0.00591
6659.71724	0.00592
6657.78856	0.00594
6655.85988	0.00596
6653.93121	0.00599
6652.00253	0.00602
6650.07386	0.00602
6648.14518	0.00601
6646.21651	0.00600
6644.28783	0.00601
6642.35915	0.00603
6640.43048	0.00604
6638.50180	0.00606
6636.57313	0.00608
6634.64445	0.00609
6632.71578	0.00610
6630.78710	0.00613
6628.85842	0.00615
6626.92975	0.00617
6625.00107	0.00617
6623.07240	0.00618
6621.14372	0.00620
6619.21505	0.00620
6617.28637	0.00620
6615.35769	0.00623
6613.42902	0.00626
6611.50034	0.00629
6609.57167	0.00630
6607.64299	0.00629
6605.71432	0.00629
6603.78564	0.00629
6601.85696	0.00631
6599.92829	0.00633
6597.99961	0.00635
6596.07094	0.00637
6594.14226	0.00638
6592.21359	0.00637
6590.28491	0.00637
6588.35623	0.00638
6586.42756	0.00640
6584.49888	0.00641
6582.57021	0.00642
6580.64153	0.00644
6578.71286	0.00646
6576.78418	0.00648
6574.85550	0.00650
6572.92683	0.00651
6570.99815	0.00651
6569.06948	0.00652
6567.14080	0.00653
6565.21213	0.00655
6563.28345	0.00657
6561.35477	0.00659
6559.42610	0.00661
6557.49742	0.00662
6555.56875	0.00662
6553.64007	0.00662
6551.71140	0.00663
6549.78272	0.00666
6547.85404	0.00670
6545.92537	0.00674
6543.99669	0.00674
6542.06802	0.00672
6540.13934	0.00671
6538.21067	0.00674
6536.28199	0.00677
6534.35331	0.00678
6532.42464	0.00679
6530.49596	0.00681
6528.56729	0.00683
6526.63861	0.00685
6524.70994	0.00686
6522.78126	0.00687
6520.85258	0.00687
6518.92391	0.00689
6516.99523	0.00691
6515.06656	0.00693
6513.13788	0.00696
6511.20921	0.00698
6509.28053	0.00698
6507.35185	0.00698
6505.42318	0.00699
6503.49450	0.00700
6501.56583	0.00701
6499.63715	0.00703
6497.70848	0.00707
6495.77980	0.00709
6493.85112	0.00710
6491.92245	0.00711
6489.99377	0.00714
6488.06510	0.00716
6486.13642	0.00717
6484.20775	0.00716
6482.27907	0.00717
6480.35039	0.00718
6478.42172	0.00719
6476.49304	0.00720
6474.56437	0.00721
6472.63569	0.00724
6470.70702	0.00728
6468.77834	0.00730
6466.84966	0.00731
6464.92099	0.00733
6462.99231	0.00735
6461.06364	0.00736
6459.13496	0.00737
6457.20629	0.00738
6455.27761	0.00739
6453.34893	0.00740
6451.42026	0.00741
6449.49158	0.00741
6447.56291	0.00743
6445.63423	0.00746
6443.70556	0.00749
6441.77688	0.00752
6439.84820	0.00753
6437.91953	0.00752
6435.99085	0.00752
6434.06218	0.00753
6432.13350	0.00755
6430.20483	0.00757
6428.27615	0.00759
6426.34747	0.00760
6424.41880	0.00761
6422.49012	0.00762
6420.56145	0.00765
6418.63277	0.00768
6416.70410	0.00771
6414.77542	0.00773
6412.84674	0.00774
6410.91807	0.00776
6408.98939	0.00777
6407.06072	0.00779
6405.13204	0.00780
6403.20337	0.00782
6401.27469	0.00784
6399.34601	0.00786
6397.41734	0.00785
6395.48866	0.00786
6393.55999	0.00787
6391.63131	0.00790
6389.70264	0.00792
6387.77396	0.00794
6385.84528	0.00797
6383.91661	0.00798
6381.98793	0.00799
6380.05926	0.00801
6378.13058	0.00802
6376.20191	0.00803
6374.27323	0.00805
6372.34455	0.00807
6370.41588	0.00808
6368.48720	0.00809
6366.55853	0.00811
6364.62985	0.00814
6362.70118	0.00817
6360.77250	0.00818
6358.84382	0.00819
6356.91515	0.00819
6354.98647	0.00821
6353.05780	0.00824
6351.12912	0.00827
6349.20045	0.00829
6347.27177	0.00831
6345.34309	0.00833
6343.41442	0.00835
6341.48574	0.00836
6339.55707	0.00836
6337.62839	0.00836
6335.69972	0.00838
6333.77104	0.00841
6331.84236	0.00845
6329.91369	0.00848
6327.98501	0.00849
6326.05634	0.00849
6324.12766	0.00850
6322.19899	0.00851
6320.27031	0.00853
6318.34163	0.00855
6316.41296	0.00857
6314.48428	0.00859
6312.55561	0.00862
6310.62693	0.00865
6308.69826	0.00867
6306.76958	0.00868
6304.84090	0.00869
6302.91223	0.00871
6300.98355	0.00873
6299.05488	0.00875
6297.12620	0.00876
6295.19753	0.00876
6293.26885	0.00876
6291.34017	0.00878
6289.41150	0.00880
6287.48282	0.00884
6285.55415	0.00888
6283.62547	0.00891
6281.69680	0.00892
6279.76812	0.00892
6277.83944	0.00892
6275.91077	0.00894
6273.98209	0.00896
6272.05342	0.00898
6270.12474	0.00901
6268.19607	0.00903
6266.26739	0.00905
6264.33871	0.00907
6262.41004	0.00908
6260.48136	0.00909
6258.55269	0.00910
6256.62401	0.00913
6254.69534	0.00916
6252.76666	0.00918
6250.83798	0.00921
6248.90931	0.00923
6246.98063	0.00925
6245.05196	0.00926
6243.12328	0.00928
6241.19461	0.00929
6239.26593	0.00931
6237.33725	0.00933
6235.40858	0.00936
6233.47990	0.00939
6231.55123	0.00941
6229.62255	0.00943
6227.69388	0.00945
6225.76520	0.00946
6223.83652	0.00946
6221.90785	0.00947
6219.97917	0.00949
6218.05050	0.00952
6216.12182	0.00955
6214.19315	0.00957
6212.26447	0.00960
6210.33579	0.00964
6208.40712	0.00967
6206.47844	0.00969
6204.54977	0.00970
6202.62109	0.00973
6200.69242	0.00975
6198.76374	0.00975
6196.83506	0.00976
6194.90639	0.00977
6192.97771	0.00977
6191.04904	0.00979
6189.12036	0.00982
6187.19169	0.00985
6185.26301	0.00988
6183.33433	0.00989
6181.40566	0.00991
6179.47698	0.00993
6177.54831	0.00995
6175.61963	0.00996
6173.69096	0.00998
6171.76228	0.01001
6169.83360	0.01005
6167.90493	0.01008
6165.97625	0.01009
6164.04758	0.01009
6162.11890	0.01009
6160.19023	0.01010
6158.26155	0.01012
6156.33287	0.01013
6154.40420	0.01015
6152.47552	0.01019
6150.54685	0.01023
6148.61817	0.01026
6146.68950	0.01027
6144.76082	0.01028
6142.83214	0.01031
6140.90347	0.01035
6138.97479	0.01037
6137.04612	0.01039
6135.11744	0.01040
6133.18877	0.01042
6131.26009	0.01044
6129.33141	0.01047
6127.40274	0.01050
6125.47406	0.01052
6123.54539	0.01052
6121.61671	0.01054
6119.68804	0.01056
6117.75936	0.01060
6115.83068	0.01063
6113.90201	0.01065
6111.97333	0.01068
6110.04466	0.01070
6108.11598	0.01072
6106.18731	0.01075
6104.25863	0.01077
6102.32995	0.01077
6100.40128	0.01078
6098.47260	0.01080
6096.54393	0.01082
6094.61525	0.01084
6092.68658	0.01086
6090.75790	0.01089
6088.82922	0.01093
6086.90055	0.01097
6084.97187	0.01099
6083.04320	0.01100
6081.11452	0.01102
6079.18585	0.01106
6077.25717	0.01108
6075.32849	0.01110
6073.39982	0.01111
6071.47114	0.01113
6069.54247	0.01115
6067.61379	0.01117
6065.68512	0.01120
6063.75644	0.01123
6061.82776	0.01126
6059.89909	0.01127
6057.97041	0.01129
6056.04174	0.01131
6054.11306	0.01132
6052.18439	0.01134
6050.25571	0.01136
6048.32703	0.01141
6046.39836	0.01144
6044.46968	0.01145
6042.54101	0.01148
6040.61233	0.01151
6038.68366	0.01154
6036.75498	0.01156
6034.82630	0.01159
6032.89763	0.01163
6030.96895	0.01165
6029.04028	0.01168
6027.11160	0.01169
6025.18293	0.01168
6023.25425	0.01168
6021.32557	0.01171
6019.39690	0.01176
6017.46822	0.01181
6015.53955	0.01184
6013.61087	0.01184
6011.68220	0.01185
6009.75352	0.01188
6007.82484	0.01191
6005.89617	0.01193
6003.96749	0.01196
6002.03882	0.01199
6000.11014	0.01201
5998.18147	0.01203
5996.25279	0.01205
5994.32411	0.01208
5992.39544	0.01212
5990.46676	0.01215
5988.53809	0.01216
5986.60941	0.01218
5984.68074	0.01222
5982.75206	0.01225
5980.82338	0.01229
5978.89471	0.01232
5976.96603	0.01235
5975.03736	0.01236
5973.10868	0.01238
5971.18001	0.01240
5969.25133	0.01241
5967.32265	0.01244
5965.39398	0.01247
5963.46530	0.01250
5961.53663	0.01253
5959.60795	0.01255
5957.67928	0.01258
5955.75060	0.01260
5953.82192	0.01263
5951.89325	0.01265
5949.96457	0.01268
5948.03590	0.01270
5946.10722	0.01271
5944.17855	0.01273
5942.24987	0.01274
5940.32119	0.01277
5938.39252	0.01281
5936.46384	0.01286
5934.53517	0.01292
5932.60649	0.01295
5930.67782	0.01297
5928.74914	0.01299
5926.82046	0.01300
5924.89179	0.01301
5922.96311	0.01303
5921.03444	0.01305
5919.10576	0.01308
5917.17709	0.01311
5915.24841	0.01314
5913.31973	0.01316
5911.39106	0.01318
5909.46238	0.01321
5907.53371	0.01326
5905.60503	0.01330
5903.67636	0.01334
5901.74768	0.01337
5899.81900	0.01339
5897.89033	0.01340
5895.96165	0.01342
5894.03298	0.01345
5892.10430	0.01348
5890.17563	0.01351
5888.24695	0.01353
5886.31827	0.01355
5884.38960	0.01357
5882.46092	0.01360
5880.53225	0.01363
5878.60357	0.01364
5876.67490	0.01366
5874.74622	0.01370
5872.81755	0.01374
5870.88887	0.01377
5868.96019	0.01379
5867.03152	0.01383
5865.10284	0.01389
5863.17417	0.01391
5861.24549	0.01392
5859.31682	0.01396
5857.38814	0.01400
5855.45946	0.01403
5853.53079	0.01403
5851.60211	0.01404
5849.67344	0.01406
5847.74476	0.01409
5845.81609	0.01412
5843.88741	0.01415
5841.95873	0.01419
5840.03006	0.01423
5838.10138	0.01426
5836.17271	0.01430
5834.24403	0.01434
5832.31536	0.01437
5830.38668	0.01439
5828.45800	0.01439
5826.52933	0.01441
5824.60065	0.01446
5822.67198	0.01449
5820.74330	0.01451
5818.81463	0.01454
5816.88595	0.01457
5814.95727	0.01461
5813.02860	0.01464
5811.09992	0.01467
5809.17125	0.01471
5807.24257	0.01473
5805.31390	0.01475
5803.38522	0.01478
5801.45654	0.01480
5799.52787	0.01483
5797.59919	0.01487
5795.67052	0.01492
5793.74184	0.01495
5791.81317	0.01497
5789.88449	0.01500
5787.95581	0.01504
5786.02714	0.01509
5784.09846	0.01511
5782.16979	0.01513
5780.24111	0.01515
5778.31244	0.01517
5776.38376	0.01519
5774.45508	0.01523
5772.52641	0.01527
5770.59773	0.01531
5768.66906	0.01534
5766.74038	0.01534
5764.81171	0.01537
5762.88303	0.01542
5760.95435	0.01547
5759.02568	0.01550
5757.09700	0.01553
5755.16833	0.01557
5753.23965	0.01560
5751.31098	0.01562
5749.38230	0.01563
5747.45362	0.01565
5745.52495	0.01568
5743.59627	0.01572
5741.66760	0.01573
5739.73892	0.01575
5737.81025	0.01578
5735.88157	0.01583
5733.95289	0.01588
5732.02422	0.01591
5730.09554	0.01593
5728.16687	0.01597
5726.23819	0.01599
5724.30952	0.01601
5722.38084	0.01605
5720.45216	0.01609
5718.52349	0.01613
5716.59481	0.01616
5714.66614	0.01618
5712.73746	0.01620
5710.80879	0.01624
5708.88011	0.01629
5706.95143	0.01633
5705.02276	0.01636
5703.09408	0.01640
5701.16541	0.01644
5699.23673	0.01647
5697.30806	0.01650
5695.37938	0.01654
5693.45070	0.01656
5691.52203	0.01658
5689.59335	0.01661
5687.66468	0.01664
5685.73600	0.01668
5683.80733	0.01672
5681.87865	0.01674
5679.94997	0.01677
5678.02130	0.01681
5676.09262	0.01684
5674.16395	0.01687
5672.23527	0.01691
5670.30660	0.01695
5668.37792	0.01698
5666.44924	0.01700
5664.52057	0.01703
5662.59189	0.01708
5660.66322	0.01713
5658.73454	0.01716
5656.80587	0.01720
5654.87719	0.01723
5652.94851	0.01726
5651.01984	0.01728
5649.09116	0.01731
5647.16249	0.01735
5645.23381	0.01739
5643.30514	0.01743
5641.37646	0.01745
5639.44778	0.01747
5637.51911	0.01749
5635.59043	0.01754
5633.66176	0.01759
5631.73308	0.01763
5629.80441	0.01765
5627.87573	0.01768
5625.94705	0.01773
5624.01838	0.01777
5622.08970	0.01780
5620.16103	0.01783
5618.23235	0.01786
5616.30368	0.01788
5614.37500	0.01790
5612.44632	0.01792
5610.51765	0.01796
5608.58897	0.01800
5606.66030	0.01805
5604.73162	0.01810
5602.80295	0.01814
5600.87427	0.01819
5598.94559	0.01823
5597.01692	0.01826
5595.08824	0.01829
5593.15957	0.01833
5591.23089	0.01836
5589.30222	0.01838
5587.37354	0.01841
5585.44486	0.01843
5583.51619	0.01847
5581.58751	0.01852
5579.65884	0.01857
5577.73016	0.01861
5575.80149	0.01864
5573.87281	0.01867
5571.94413	0.01871
5570.01546	0.01876
5568.08678	0.01880
5566.15811	0.01882
5564.22943	0.01884
5562.30076	0.01887
5560.37208	0.01891
5558.44340	0.01894
5556.51473	0.01897
5554.58605	0.01901
5552.65738	0.01906
5550.72870	0.01911
5548.80003	0.01915
5546.87135	0.01919
5544.94267	0.01923
5543.01400	0.01926
5541.08532	0.01929
5539.15665	0.01933
5537.22797	0.01939
5535.29930	0.01942
5533.37062	0.01945
5531.44194	0.01949
5529.51327	0.01953
5527.58459	0.01957
5525.65592	0.01959
5523.72724	0.01962
5521.79857	0.01965
5519.86989	0.01970
5517.94121	0.01975
5516.01254	0.01977
5514.08386	0.01979
5512.15519	0.01983
5510.22651	0.01989
5508.29784	0.01994
5506.36916	0.01998
5504.44048	0.02001
5502.51181	0.02004
5500.58313	0.02007
5498.65446	0.02011
5496.72578	0.02015
5494.79711	0.02017
5492.86843	0.02018
5490.93975	0.02021
5489.01108	0.02026
5487.08240	0.02032
5485.15373	0.02037
5483.22505	0.02042
5481.29638	0.02045
5479.36770	0.02048
5477.43902	0.02050
5475.51035	0.02052
5473.58167	0.02055
5471.65300	0.02060
5469.72432	0.02065
5467.79565	0.02070
5465.86697	0.02076
5463.93829	0.02080
5462.00962	0.02082
5460.08094	0.02085
5458.15227	0.02089
5456.22359	0.02093
5454.29492	0.02096
5452.36624	0.02099
5450.43756	0.02104
5448.50889	0.02109
5446.58021	0.02112
5444.65154	0.02114
5442.72286	0.02117
5440.79419	0.02123
5438.86551	0.02130
5436.93683	0.02134
5435.00816	0.02136
5433.07948	0.02140
5431.15081	0.02146
5429.22213	0.02150
5427.29346	0.02152
5425.36478	0.02155
5423.43610	0.02160
5421.50743	0.02166
5419.57875	0.02170
5417.65008	0.02173
5415.72140	0.02175
5413.79273	0.02178
5411.86405	0.02182
5409.93537	0.02188
5408.00670	0.02193
5406.07802	0.02198
5404.14935	0.02202
5402.22067	0.02205
5400.29200	0.02209
5398.36332	0.02212
5396.43464	0.02215
5394.50597	0.02218
5392.57729	0.02223
5390.64862	0.02230
5388.71994	0.02233
5386.79127	0.02235
5384.86259	0.02238
5382.93391	0.02242
5381.00524	0.02247
5379.07656	0.02252
5377.14789	0.02258
5375.21921	0.02263
5373.29054	0.02268
5371.36186	0.02274
5369.43318	0.02277
5367.50451	0.02280
5365.57583	0.02283
5363.64716	0.02285
5361.71848	0.02289
5359.78981	0.02294
5357.86113	0.02299
5355.93245	0.02302
5354.00378	0.02303
5352.07510	0.02306
5350.14643	0.02310
5348.21775	0.02315
5346.28908	0.02319
5344.36040	0.02324
5342.43172	0.02329
5340.50305	0.02334
5338.57437	0.02338
5336.64570	0.02344
5334.71702	0.02351
5332.78835	0.02354
5330.85967	0.02357
5328.93099	0.02360
5327.00232	0.02366
5325.07364	0.02372
5323.14497	0.02377
5321.21629	0.02379
5319.28762	0.02382
5317.35894	0.02386
5315.43026	0.02390
5313.50159	0.02393
5311.57291	0.02396
5309.64424	0.02401
5307.71556	0.02406
5305.78689	0.02411
5303.85821	0.02415
5301.92953	0.02419
5300.00086	0.02422
5298.07218	0.02427
5296.14351	0.02434
5294.21483	0.02439
5292.28616	0.02441
5290.35748	0.02444
5288.42880	0.02449
5286.50013	0.02454
5284.57145	0.02457
5282.64278	0.02461
5280.71410	0.02466
5278.78543	0.02472
5276.85675	0.02478
5274.92807	0.02482
5272.99940	0.02485
5271.07072	0.02488
5269.14205	0.02492
5267.21337	0.02496
5265.28470	0.02500
5263.35602	0.02505
5261.42734	0.02510
5259.49867	0.02513
5257.56999	0.02517
5255.64132	0.02521
5253.71264	0.02526
5251.78397	0.02530
5249.85529	0.02533
5247.92661	0.02537
5245.99794	0.02543
5244.06926	0.02549
5242.14059	0.02554
5240.21191	0.02558
5238.28324	0.02562
5236.35456	0.02566
5234.42588	0.02570
5232.49721	0.02575
5230.56853	0.02581
5228.63986	0.02587
5226.71118	0.02591
5224.78251	0.02594
5222.85383	0.02596
5220.92515	0.02600
5218.99648	0.02605
5217.06780	0.02610
5215.13913	0.02615
5213.21045	0.02619
5211.28178	0.02623
5209.35310	0.02627
5207.42442	0.02631
5205.49575	0.02636
5203.56707	0.02642
5201.63840	0.02646
5199.70972	0.02649
5197.78105	0.02653
5195.85237	0.02659
5193.92369	0.02666
5191.99502	0.02671
5190.06634	0.02676
5188.13767	0.02679
5186.20899	0.02683
5184.28032	0.02689
5182.35164	0.02693
5180.42296	0.02697
5178.49429	0.02703
5176.56561	0.02709
5174.63694	0.02713
5172.70826	0.02716
5170.77959	0.02719
5168.85091	0.02723
5166.92223	0.02728
5164.99356	0.02732
5163.06488	0.02738
5161.13621	0.02744
5159.20753	0.02748
5157.27886	0.02752
5155.35018	0.02757
5153.42150	0.02763
5151.49283	0.02768
5149.56415	0.02773
5147.63548	0.02778
5145.70680	0.02780
5143.77813	0.02783
5141.84945	0.02787
5139.92077	0.02791
5137.99210	0.02796
5136.06342	0.02803
5134.13475	0.02809
5132.20607	0.02814
5130.27740	0.02818
5128.34872	0.02822
5126.42004	0.02828
5124.49137	0.02832
5122.56269	0.02835
5120.63402	0.02839
5118.70534	0.02845
5116.77667	0.02851
5114.84799	0.02857
5112.91931	0.02861
5110.99064	0.02863
5109.06196	0.02867
5107.13329	0.02872
5105.20461	0.02878
5103.27594	0.02884
5101.34726	0.02890
5099.41858	0.02894
5097.48991	0.02898
5095.56123	0.02901
5093.63256	0.02907
5091.70388	0.02912
5089.77521	0.02917
5087.84653	0.02920
5085.91785	0.02924
5083.98918	0.02929
5082.06050	0.02933
5080.13183	0.02938
5078.20315	0.02944
5076.27448	0.02949
5074.34580	0.02955
5072.41712	0.02961
5070.48845	0.02964
5068.55977	0.02968
5066.63110	0.02975
5064.70242	0.02981
5062.77375	0.02984
5060.84507	0.02987
5058.91639	0.02991
5056.98772	0.02998
5055.05904	0.03004
5053.13037	0.03010
5051.20169	0.03016
5049.27302	0.03021
5047.34434	0.03026
5045.41566	0.03031
5043.48699	0.03034
5041.55831	0.03037
5039.62964	0.03040
5037.70096	0.03046
5035.77229	0.03052
5033.84361	0.03058
5031.91493	0.03063
5029.98626	0.03068
5028.05758	0.03074
5026.12891	0.03078
5024.20023	0.03081
5022.27156	0.03085
5020.34288	0.03089
5018.41420	0.03096
5016.48553	0.03104
5014.55685	0.03109
5012.62818	0.03114
5010.69950	0.03119
5008.77083	0.03122
5006.84215	0.03126
5004.91347	0.03133
5002.98480	0.03140
5001.05612	0.03147
4999.12745	0.03153
4997.19877	0.03157
4995.27010	0.03161
4993.34142	0.03165
4991.41274	0.03170
4989.48407	0.03173
4987.55539	0.03175
4985.62672	0.03180
4983.69804	0.03187
4981.76937	0.03192
4979.84069	0.03197
4977.91201	0.03203
4975.98334	0.03208
4974.05466	0.03212
4972.12599	0.03217
4970.19731	0.03222
4968.26864	0.03229
4966.33996	0.03236
4964.41128	0.03242
4962.48261	0.03246
4960.55393	0.03250
4958.62526	0.03256
4956.69658	0.03261
4954.76791	0.03265
4952.83923	0.03269
4950.91055	0.03275
4948.98188	0.03281
4947.05320	0.03287
4945.12453	0.03292
4943.19585	0.03297
4941.26718	0.03300
4939.33850	0.03304
4937.40982	0.03310
4935.48115	0.03319
4933.55247	0.03325
4931.62380	0.03329
4929.69512	0.03333
4927.76645	0.03339
4925.83777	0.03345
4923.90909	0.03350
4921.98042	0.03355
4920.05174	0.03358
4918.12307	0.03364
4916.19439	0.03371
4914.26572	0.03377
4912.33704	0.03381
4910.40836	0.03385
4908.47969	0.03391
4906.55101	0.03397
4904.62234	0.03403
4902.69366	0.03408
4900.76499	0.03415
4898.83631	0.03421
4896.90763	0.03427
4894.97896	0.03431
4893.05028	0.03435
4891.12161	0.03440
4889.19293	0.03446
4887.26426	0.03452
4885.33558	0.03458
4883.40690	0.03463
4881.47823	0.03467
4879.54955	0.03472
4877.62088	0.03479
4875.69220	0.03486
4873.76353	0.03490
4871.83485	0.03493
4869.90617	0.03498
4867.97750	0.03504
4866.04882	0.03510
4864.12015	0.03516
4862.19147	0.03521
4860.26280	0.03525
4858.33412	0.03529
4856.40544	0.03532
4854.47677	0.03537
4852.54809	0.03544
4850.61942	0.03553
4848.69074	0.03562
4846.76207	0.03569
4844.83339	0.03573
4842.90471	0.03577
4840.97604	0.03583
4839.04736	0.03589
4837.11869	0.03595
4835.19001	0.03599
4833.26134	0.03605
4831.33266	0.03612
4829.40398	0.03619
4827.47531	0.03623
4825.54663	0.03627
4823.61796	0.03633
4821.68928	0.03640
4819.76061	0.03646
4817.83193	0.03651
4815.90325	0.03655
4813.97458	0.03660
4812.04590	0.03667
4810.11723	0.03674
4808.18855	0.03679
4806.25988	0.03684
4804.33120	0.03691
4802.40252	0.03701
4800.47385	0.03708
4798.54517	0.03711
4796.61650	0.03714
4794.68782	0.03719
4792.75915	0.03725
4790.83047	0.03731
4788.90179	0.03737
4786.97312	0.03743
4785.04444	0.03750
4783.11577	0.03756
4781.18709	0.03762
4779.25842	0.03767
4777.32974	0.03771
4775.40106	0.03776
4773.47239	0.03783
4771.54371	0.03791
4769.61504	0.03799
4767.68636	0.03806
4765.75769	0.03812
4763.82901	0.03817
4761.90033	0.03823
4759.97166	0.03829
4758.04298	0.03835
4756.11431	0.03839
4754.18563	0.03844
4752.25696	0.03849
4750.32828	0.03854
4748.39960	0.03860
4746.47093	0.03867
4744.54225	0.03874
4742.61358	0.03879
4740.68490	0.03885
4738.75623	0.03893
4736.82755	0.03900
4734.89887	0.03905
4732.97020	0.03910
4731.04152	0.03917
4729.11285	0.03923
4727.18417	0.03929
4725.25550	0.03937
4723.32682	0.03946
4721.39814	0.03953
4719.46947	0.03957
4717.54079	0.03962
4715.61212	0.03966
4713.68344	0.03970
4711.75477	0.03975
4709.82609	0.03981
4707.89741	0.03988
4705.96874	0.03995
4704.04006	0.04002
4702.11139	0.04010
4700.18271	0.04018
4698.25404	0.04024
4696.32536	0.04030
4694.39668	0.04038
4692.46801	0.04044
4690.53933	0.04051
4688.61066	0.04058
4686.68198	0.04065
4684.75331	0.04071
4682.82463	0.04076
4680.89595	0.04081
4678.96728	0.04084
4677.03860	0.04089
4675.10993	0.04097
4673.18125	0.04105
4671.25258	0.04110
4669.32390	0.04116
4667.39522	0.04124
4665.46655	0.04131
4663.53787	0.04138
4661.60920	0.04144
4659.68052	0.04152
4657.75185	0.04158
4655.82317	0.04164
4653.89449	0.04171
4651.96582	0.04179
4650.03714	0.04186
4648.10847	0.04193
4646.17979	0.04199
4644.25112	0.04206
4642.32244	0.04213
4640.39376	0.04221
4638.46509	0.04230
4636.53641	0.04236
4634.60774	0.04242
4632.67906	0.04248
4630.75039	0.04254
4628.82171	0.04259
4626.89303	0.04265
4624.96436	0.04272
4623.03568	0.04280
4621.10701	0.04287
4619.17833	0.04295
4617.24966	0.04305
4615.32098	0.04314
4613.39230	0.04320
4611.46363	0.04326
4609.53495	0.04333
4607.60628	0.04341
4605.67760	0.04349
4603.74893	0.04357
4601.82025	0.04362
4599.89157	0.04368
4597.96290	0.04375
4596.03422	0.04380
4594.10555	0.04385
4592.17687	0.04392
4590.24820	0.04399
4588.31952	0.04407
4586.39084	0.04416
4584.46217	0.04424
4582.53349	0.04431
4580.60482	0.04437
4578.67614	0.04444
4576.74747	0.04451
4574.81879	0.04458
4572.89011	0.04466
4570.96144	0.04475
4569.03276	0.04483
4567.10409	0.04488
4565.17541	0.04492
4563.24674	0.04499
4561.31806	0.04508
4559.38938	0.04516
4557.46071	0.04523
4555.53203	0.04531
4553.60336	0.04540
4551.67468	0.04548
4549.74601	0.04555
4547.81733	0.04561
4545.88865	0.04567
4543.95998	0.04575
4542.03130	0.04584
4540.10263	0.04593
4538.17395	0.04600
4536.24528	0.04607
4534.31660	0.04616
4532.38792	0.04625
4530.45925	0.04633
4528.53057	0.04640
4526.60190	0.04647
4524.67322	0.04654
4522.74455	0.04661
4520.81587	0.04669
4518.88719	0.04677
4516.95852	0.04685
4515.02984	0.04693
4513.10117	0.04700
4511.17249	0.04708
4509.24382	0.04716
4507.31514	0.04724
4505.38646	0.04731
4503.45779	0.04739
4501.52911	0.04746
4499.60044	0.04754
4497.67176	0.04762
4495.74309	0.04771
4493.81441	0.04780
4491.88573	0.04787
4489.95706	0.04795
4488.02838	0.04802
4486.09971	0.04809
4484.17103	0.04815
4482.24236	0.04823
4480.31368	0.04834
4478.38500	0.04846
4476.45633	0.04855
4474.52765	0.04861
4472.59898	0.04867
4470.67030	0.04875
4468.74163	0.04883
4466.81295	0.04891
4464.88427	0.04900
4462.95560	0.04909
4461.02692	0.04916
4459.09825	0.04922
4457.16957	0.04929
4455.24090	0.04938
4453.31222	0.04948
4451.38354	0.04957
4449.45487	0.04967
4447.52619	0.04976
4445.59752	0.04985
4443.66884	0.04993
4441.74017	0.05003
4439.81149	0.05013
4437.88281	0.05021
4435.95414	0.05028
4434.02546	0.05036
4432.09679	0.05044
4430.16811	0.05053
4428.23944	0.05063
4426.31076	0.05072
4424.38208	0.05079
4422.45341	0.05088
4420.52473	0.05099
4418.59606	0.05107
4416.66738	0.05112
4414.73871	0.05120
4412.81003	0.05129
4410.88135	0.05138
4408.95268	0.05147
4407.02400	0.05157
4405.09533	0.05167
4403.16665	0.05176
4401.23798	0.05185
4399.30930	0.05196
4397.38062	0.05204
4395.45195	0.05210
4393.52327	0.05219
4391.59460	0.05231
4389.66592	0.05242
4387.73725	0.05250
4385.80857	0.05256
4383.87989	0.05265
4381.95122	0.05277
4380.02254	0.05289
4378.09387	0.05299
4376.16519	0.05307
4374.23652	0.05314
4372.30784	0.05321
4370.37916	0.05328
4368.45049	0.05336
4366.52181	0.05346
4364.59314	0.05357
4362.66446	0.05368
4360.73579	0.05378
4358.80711	0.05385
4356.87843	0.05395
4354.94976	0.05407
4353.02108	0.05417
4351.09241	0.05425
4349.16373	0.05433
4347.23506	0.05441
4345.30638	0.05449
4343.37770	0.05460
4341.44903	0.05472
4339.52035	0.05485
4337.59168	0.05496
4335.66300	0.05505
4333.73433	0.05513
4331.80565	0.05521
4329.87697	0.05531
4327.94830	0.05539
4326.01962	0.05549
4324.09095	0.05561
4322.16227	0.05573
4320.23360	0.05581
4318.30492	0.05589
4316.37624	0.05599
4314.44757	0.05610
4312.51889	0.05619
4310.59022	0.05629
4308.66154	0.05641
4306.73287	0.05653
4304.80419	0.05663
4302.87551	0.05674
4300.94684	0.05685
4299.01816	0.05694
4297.08949	0.05702
4295.16081	0.05711
4293.23214	0.05722
4291.30346	0.05735
4289.37478	0.05747
4287.44611	0.05757
4285.51743	0.05767
4283.58876	0.05779
4281.66008	0.05789
4279.73141	0.05797
4277.80273	0.05806
4275.87405	0.05815
4273.94538	0.05826
4272.01670	0.05837
4270.08803	0.05848
4268.15935	0.05859
4266.23068	0.05869
4264.30200	0.05877
4262.37332	0.05885
4260.44465	0.05896
4258.51597	0.05910
4256.58730	0.05923
4254.65862	0.05932
4252.72995	0.05941
4250.80127	0.05952
4248.87259	0.05963
4246.94392	0.05974
4245.01524	0.05986
4243.08657	0.05997
4241.15789	0.06008
4239.22922	0.06019
4237.30054	0.06030
4235.37186	0.06041
4233.44319	0.06052
4231.51451	0.06064
4229.58584	0.06076
4227.65716	0.06087
4225.72849	0.06097
4223.79981	0.06108
4221.87113	0.06118
4219.94246	0.06128
4218.01378	0.06139
4216.08511	0.06151
4214.15643	0.06163
4212.22776	0.06174
4210.29908	0.06186
4208.37040	0.06200
4206.44173	0.06213
4204.51305	0.06224
4202.58438	0.06233
4200.65570	0.06242
4198.72703	0.06254
4196.79835	0.06266
4194.86968	0.06277
4192.94100	0.06289
4191.01232	0.06301
4189.08365	0.06313
4187.15497	0.06324
4185.22630	0.06337
4183.29762	0.06351
4181.36895	0.06362
4179.44027	0.06372
4177.51159	0.06382
4175.58292	0.06394
4173.65424	0.06406
4171.72557	0.06417
4169.79689	0.06427
4167.86822	0.06437
4165.93954	0.06449
4164.01086	0.06464
4162.08219	0.06479
4160.15351	0.06492
4158.22484	0.06502
4156.29616	0.06513
4154.36749	0.06526
4152.43881	0.06541
4150.51013	0.06553
4148.58146	0.06564
4146.65278	0.06575
4144.72411	0.06586
4142.79543	0.06597
4140.86676	0.06608
4138.93808	0.06619
4137.00940	0.06632
4135.08073	0.06646
4133.15205	0.06660
4131.22338	0.06673
4129.29470	0.06685
4127.36603	0.06696
4125.43735	0.06707
4123.50867	0.06720
4121.58000	0.06733
4119.65132	0.06745
4117.72265	0.06756
4115.79397	0.06768
4113.86530	0.06784
4111.93662	0.06797
4110.00794	0.06808
4108.07927	0.06821
4106.15059	0.06835
4104.22192	0.06847
4102.29324	0.06859
4100.36457	0.06872
4098.43589	0.06885
4096.50721	0.06898
4094.57854	0.06910
4092.64986	0.06922
4090.72119	0.06934
4088.79251	0.06948
4086.86384	0.06962
4084.93516	0.06975
4083.00648	0.06987
4081.07781	0.06999
4079.14913	0.07013
4077.22046	0.07027
4075.29178	0.07040
4073.36311	0.07053
4071.43443	0.07068
4069.50575	0.07082
4067.57708	0.07094
4065.64840	0.07106
4063.71973	0.07121
4061.79105	0.07137
4059.86238	0.07152
4057.93370	0.07166
4056.00502	0.07178
4054.07635	0.07192
4052.14767	0.07205
4050.21900	0.07216
4048.29032	0.07228
4046.36165	0.07240
4044.43297	0.07255
4042.50429	0.07272
4040.57562	0.07288
4038.64694	0.07301
4036.71827	0.07312
4034.78959	0.07324
4032.86092	0.07337
4030.93224	0.07352
4029.00356	0.07366
4027.07489	0.07377
4025.14621	0.07390
4023.21754	0.07407
4021.28886	0.07423
4019.36019	0.07436
4017.43151	0.07450
4015.50283	0.07465
4013.57416	0.07479
4011.64548	0.07492
4009.71681	0.07504
4007.78813	0.07520
4005.85946	0.07537
4003.93078	0.07551
4002.00210	0.07563
4000.07343	0.07574
3998.14475	0.07586
3996.21608	0.07601
3994.28740	0.07617
3992.35873	0.07632
3990.43005	0.07646
3988.50137	0.07662
3986.57270	0.07676
3984.64402	0.07687
3982.71535	0.07700
3980.78667	0.07716
3978.85800	0.07734
3976.92932	0.07751
3975.00064	0.07765
3973.07197	0.07777
3971.14329	0.07790
3969.21462	0.07805
3967.28594	0.07820
3965.35727	0.07835
3963.42859	0.07849
3961.49991	0.07864
3959.57124	0.07879
3957.64256	0.07894
3955.71389	0.07909
3953.78521	0.07924
3951.85654	0.07936
3949.92786	0.07946
3947.99918	0.07960
3946.07051	0.07973
3944.14183	0.07983
3942.21316	0.07998
3940.28448	0.08019
3938.35581	0.08038
3936.42713	0.08052
3934.49845	0.08062
3932.56978	0.08073
3930.64110	0.08091
3928.71243	0.08110
3926.78375	0.08123
3924.85508	0.08133
3922.92640	0.08147
3920.99772	0.08157
3919.06905	0.08165
3917.14037	0.08183
3915.21170	0.08211
3913.28302	0.08238
3911.35435	0.08255
3909.42567	0.08264
3907.49699	0.08266
3905.56832	0.08259
3903.63964	0.08257
3901.71097	0.08271
3899.78229	0.08297
3897.85362	0.08332
3895.92494	0.08365
3893.99626	0.08378
3892.06759	0.08383
3890.13891	0.08398
3888.21024	0.08409
3886.28156	0.08410
3884.35289	0.08424
3882.42421	0.08445
3880.49553	0.08462
3878.56686	0.08489
3876.63818	0.08510
3874.70951	0.08517
3872.78083	0.08520
3870.85216	0.08524
3868.92348	0.08543
3866.99480	0.08570
3865.06613	0.08589
3863.13745	0.08608
3861.20878	0.08635
3859.28010	0.08655
3857.35143	0.08645
3855.42275	0.08607
3853.49407	0.08600
3851.56540	0.08655
3849.63672	0.08724
3847.70805	0.08763
3845.77937	0.08776
3843.85070	0.08779
3841.92202	0.08781
3839.99334	0.08783
3838.06467	0.08793
3836.13599	0.08819
3834.20732	0.08849
3832.27864	0.08875
3830.34997	0.08901
3828.42129	0.08923
3826.49261	0.08938
3824.56394	0.08942
3822.63526	0.08936
3820.70659	0.08943
3818.77791	0.08968
3816.84924	0.08990
3814.92056	0.09018
3812.99188	0.09056
3811.06321	0.09080
3809.13453	0.09083
3807.20586	0.09086
3805.27718	0.09100
3803.34851	0.09108
3801.41983	0.09119
3799.49115	0.09147
3797.56248	0.09175
3795.63380	0.09201
3793.70513	0.09229
3791.77645	0.09252
3789.84778	0.09269
3787.91910	0.09283
3785.99042	0.09299
3784.06175	0.09317
3782.13307	0.09331
3780.20440	0.09342
3778.27572	0.09361
3776.34705	0.09385
3774.41837	0.09404
3772.48969	0.09412
3770.56102	0.09418
3768.63234	0.09434
3766.70367	0.09455
3764.77499	0.09478
3762.84632	0.09495
3760.91764	0.09500
3758.98896	0.09508
3757.06029	0.09528
3755.13161	0.09536
3753.20294	0.09521
3751.27426	0.09510
3749.34559	0.09526
3747.41691	0.09540
3745.48823	0.09539
3743.55956	0.09572
3741.63088	0.09638
3739.70221	0.09671
3737.77353	0.09657
3735.84486	0.09648
3733.91618	0.09674
3731.98750	0.09721
3730.05883	0.09763
3728.13015	0.09786
3726.20148	0.09797
3724.27280	0.09816
3722.34413	0.09840
3720.41545	0.09864
3718.48677	0.09888
3716.55810	0.09906
3714.62942	0.09908
3712.70075	0.09902
3710.77207	0.09913
3708.84340	0.09947
3706.91472	0.09984
3704.98604	0.10006
3703.05737	0.10014
3701.12869	0.10031
3699.20002	0.10061
3697.27134	0.10089
3695.34267	0.10104
3693.41399	0.10104
3691.48531	0.10094
3689.55664	0.10097
3687.62796	0.10129
3685.69929	0.10175
3683.77061	0.10208
3681.84194	0.10221
3679.91326	0.10220
3677.98458	0.10206
3676.05591	0.10197
3674.12723	0.10220
3672.19856	0.10250
3670.26988	0.10271
3668.34121	0.10307
3666.41253	0.10353
3664.48385	0.10386
3662.55518	0.10406
3660.62650	0.10417
3658.69783	0.10415
3656.76915	0.10413
3654.84048	0.10428
3652.91180	0.10429
3650.98312	0.10395
3649.05445	0.10373
3647.12577	0.10400
3645.19710	0.10461
3643.26842	0.10517
3641.33975	0.10552
3639.41107	0.10573
3637.48239	0.10585
3635.55372	0.10594
3633.62504	0.10597
3631.69637	0.10584
3629.76769	0.10568
3627.83902	0.10593
3625.91034	0.10650
3623.98166	0.10684
3622.05299	0.10683
3620.12431	0.10674
3618.19564	0.10686
3616.26696	0.10710
3614.33829	0.10725
3612.40961	0.10733
3610.48093	0.10739
3608.55226	0.10752
3606.62358	0.10782
3604.69491	0.10816
3602.76623	0.10834
3600.83756	0.10844
3598.90888	0.10855
3596.98020	0.10865
3595.05153	0.10878
3593.12285	0.10893
3591.19418	0.10898
3589.26550	0.10892
3587.33683	0.10902
3585.40815	0.10936
3583.47947	0.10968
3581.55080	0.10988
3579.62212	0.11003
3577.69345	0.11020
3575.76477	0.11037
3573.83610	0.11049
3571.90742	0.11055
3569.97874	0.11048
3568.05007	0.11039
3566.12139	0.11056
3564.19272	0.11095
3562.26404	0.11129
3560.33537	0.11151
3558.40669	0.11169
3556.47801	0.11184
3554.54934	0.11193
3552.62066	0.11200
3550.69199	0.11210
3548.76331	0.11219
3546.83464	0.11226
3544.90596	0.11242
3542.97728	0.11266
3541.04861	0.11287
3539.11993	0.11300
3537.19126	0.11306
3535.26258	0.11314
3533.33391	0.11324
3531.40523	0.11331
3529.47655	0.11334
3527.54788	0.11340
3525.61920	0.11348
3523.69053	0.11357
3521.76185	0.11367
3519.83318	0.11378
3517.90450	0.11388
3515.97582	0.11399
3514.04715	0.11409
3512.11847	0.11415
3510.18980	0.11419
3508.26112	0.11428
3506.33245	0.11436
3504.40377	0.11439
3502.47509	0.11442
3500.54642	0.11451
3498.61774	0.11459
3496.68907	0.11465
3494.76039	0.11471
3492.83172	0.11477
3490.90304	0.11482
3488.97436	0.11487
3487.04569	0.11491
3485.11701	0.11495
3483.18834	0.11501
3481.25966	0.11513
3479.33099	0.11529
3477.40231	0.11544
3475.47363	0.11559
3473.54496	0.11574
3471.61628	0.11591
3469.68761	0.11607
3467.75893	0.11623
3465.83026	0.11640
3463.90158	0.11659
3461.97290	0.11679
3460.04423	0.11698
3458.11555	0.11717
3456.18688	0.11735
3454.25820	0.11754
3452.32953	0.11772
3450.40085	0.11786
3448.47217	0.11798
3446.54350	0.11814
3444.61482	0.11835
3442.68615	0.11857
3440.75747	0.11879
3438.82880	0.11905
3436.90012	0.11935
3434.97144	0.11968
3433.04277	0.12005
3431.11409	0.12042
3429.18542	0.12080
3427.25674	0.12120
3425.32807	0.12158
3423.39939	0.12195
3421.47071	0.12227
3419.54204	0.12257
3417.61336	0.12286
3415.68469	0.12315
3413.75601	0.12343
3411.82734	0.12371
3409.89866	0.12400
3407.96998	0.12428
3406.04131	0.12454
3404.11263	0.12477
3402.18396	0.12501
3400.25528	0.12525
3398.32661	0.12550
3396.39793	0.12577
3394.46925	0.12605
3392.54058	0.12632
3390.61190	0.12657
3388.68323	0.12680
3386.75455	0.12704
3384.82588	0.12729
3382.89720	0.12754
3380.96852	0.12779
3379.03985	0.12805
3377.11117	0.12830
3375.18250	0.12854
3373.25382	0.12878
3371.32515	0.12900
3369.39647	0.12922
3367.46779	0.12945
3365.53912	0.12970
3363.61044	0.12992
3361.68177	0.13012
3359.75309	0.13034
3357.82442	0.13055
3355.89574	0.13077
3353.96706	0.13102
3352.03839	0.13127
3350.10971	0.13153
3348.18104	0.13178
3346.25236	0.13202
3344.32369	0.13223
3342.39501	0.13245
3340.46633	0.13267
3338.53766	0.13289
3336.60898	0.13312
3334.68031	0.13337
3332.75163	0.13361
3330.82296	0.13384
3328.89428	0.13407
3326.96560	0.13429
3325.03693	0.13452
3323.10825	0.13476
3321.17958	0.13499
3319.25090	0.13521
3317.32223	0.13545
3315.39355	0.13570
3313.46487	0.13597
3311.53620	0.13623
3309.60752	0.13646
3307.67885	0.13667
3305.75017	0.13689
3303.82150	0.13713
3301.89282	0.13737
3299.96414	0.13764
3298.03547	0.13791
3296.10679	0.13816
3294.17812	0.13842
3292.24944	0.13867
3290.32077	0.13891
3288.39209	0.13914
3286.46341	0.13937
3284.53474	0.13960
3282.60606	0.13986
3280.67739	0.14015
3278.74871	0.14042
3276.82004	0.14066
3274.89136	0.14089
3272.96268	0.14114
3271.03401	0.14139
3269.10533	0.14164
3267.17666	0.14190
3265.24798	0.14220
3263.31931	0.14249
3261.39063	0.14271
3259.46195	0.14292
3257.53328	0.14316
3255.60460	0.14338
3253.67593	0.14363
3251.74725	0.14392
3249.81858	0.14421
3247.88990	0.14447
3245.96122	0.14470
3244.03255	0.14494
3242.10387	0.14520
3240.17520	0.14547
3238.24652	0.14573
3236.31785	0.14597
3234.38917	0.14620
3232.46049	0.14643
3230.53182	0.14669
3228.60314	0.14697
3226.67447	0.14725
3224.74579	0.14749
3222.81712	0.14773
3220.88844	0.14796
3218.95976	0.14820
3217.03109	0.14843
3215.10241	0.14869
3213.17374	0.14898
3211.24506	0.14925
3209.31639	0.14948
3207.38771	0.14970
3205.45903	0.14996
3203.53036	0.15025
3201.60168	0.15053
3199.67301	0.15080
3197.74433	0.15109
3195.81566	0.15137
3193.88698	0.15163
3191.95830	0.15190
3190.02963	0.15220
3188.10095	0.15248
3186.17228	0.15275
3184.24360	0.15302
3182.31493	0.15328
3180.38625	0.15352
3178.45757	0.15377
3176.52890	0.15403
3174.60022	0.15431
3172.67155	0.15459
3170.74287	0.15487
3168.81420	0.15516
3166.88552	0.15545
3164.95684	0.15572
3163.02817	0.15596
3161.09949	0.15619
3159.17082	0.15643
3157.24214	0.15671
3155.31347	0.15703
3153.38479	0.15731
3151.45611	0.15756
3149.52744	0.15779
3147.59876	0.15800
3145.67009	0.15822
3143.74141	0.15848
3141.81274	0.15878
3139.88406	0.15909
3137.95538	0.15939
3136.02671	0.15964
3134.09803	0.15988
3132.16936	0.16011
3130.24068	0.16035
3128.31201	0.16061
3126.38333	0.16090
3124.45465	0.16118
3122.52598	0.16145
3120.59730	0.16170
3118.66863	0.16195
3116.73995	0.16218
3114.81128	0.16244
3112.88260	0.16272
3110.95392	0.16298
3109.02525	0.16323
3107.09657	0.16347
3105.16790	0.16372
3103.23922	0.16398
3101.31055	0.16424
3099.38187	0.16454
3097.45319	0.16484
3095.52452	0.16510
3093.59584	0.16534
3091.66717	0.16559
3089.73849	0.16586
3087.80982	0.16616
3085.88114	0.16645
3083.95246	0.16671
3082.02379	0.16693
3080.09511	0.16717
3078.16644	0.16746
3076.23776	0.16775
3074.30909	0.16802
3072.38041	0.16825
3070.45173	0.16846
3068.52306	0.16868
3066.59438	0.16893
3064.66571	0.16922
3062.73703	0.16954
3060.80836	0.16984
3058.87968	0.17009
3056.95100	0.17031
3055.02233	0.17055
3053.09365	0.17081
3051.16498	0.17110
3049.23630	0.17138
3047.30763	0.17162
3045.37895	0.17186
3043.45027	0.17213
3041.52160	0.17240
3039.59292	0.17266
3037.66425	0.17291
3035.73557	0.17315
3033.80690	0.17339
3031.87822	0.17364
3029.94954	0.17393
3028.02087	0.17423
3026.09219	0.17452
3024.16352	0.17477
3022.23484	0.17500
3020.30617	0.17526
3018.37749	0.17551
3016.44881	0.17575
3014.52014	0.17601
3012.59146	0.17629
3010.66279	0.17656
3008.73411	0.17682
3006.80544	0.17709
3004.87676	0.17735
3002.94808	0.17760
3001.01941	0.17785
2999.09073	0.17812
2997.16206	0.17836
2995.23338	0.17859
2993.30471	0.17884
2991.37603	0.17911
2989.44735	0.17934
2987.51868	0.17953
2985.59000	0.17970
2983.66133	0.17988
2981.73265	0.18002
2979.80398	0.18013
2977.87530	0.18024
2975.94662	0.18033
2974.01795	0.18038
2972.08927	0.18038
2970.16060	0.18035
2968.23192	0.18033
2966.30325	0.18034
2964.37457	0.18041
2962.44589	0.18055
2960.51722	0.18077
2958.58854	0.18106
2956.65987	0.18136
2954.73119	0.18169
2952.80252	0.18202
2950.87384	0.18234
2948.94516	0.18265
2947.01649	0.18292
2945.08781	0.18311
2943.15914	0.18324
2941.23046	0.18331
2939.30179	0.18334
2937.37311	0.18333
2935.44443	0.18327
2933.51576	0.18317
2931.58708	0.18311
2929.65841	0.18306
2927.72973	0.18301
2925.80106	0.18297
2923.87238	0.18297
2921.94370	0.18300
2920.01503	0.18313
2918.08635	0.18345
2916.15768	0.18404
2914.22900	0.18484
2912.30033	0.18570
2910.37165	0.18650
2908.44297	0.18719
2906.51430	0.18775
2904.58562	0.18821
2902.65695	0.18862
2900.72827	0.18902
2898.79960	0.18945
2896.87092	0.18986
2894.94224	0.19025
2893.01357	0.19062
2891.08489	0.19100
2889.15622	0.19136
2887.22754	0.19168
2885.29887	0.19197
2883.37019	0.19228
2881.44151	0.19259
2879.51284	0.19288
2877.58416	0.19314
2875.65549	0.19338
2873.72681	0.19361
2871.79814	0.19383
2869.86946	0.19404
2867.94078	0.19425
2866.01211	0.19446
2864.08343	0.19465
2862.15476	0.19480
2860.22608	0.19486
2858.29741	0.19486
2856.36873	0.19483
2854.44005	0.19480
2852.51138	0.19479
2850.58270	0.19493
2848.65403	0.19539
2846.72535	0.19620
2844.79668	0.19713
2842.86800	0.19796
2840.93932	0.19863
2839.01065	0.19916
2837.08197	0.19962
2835.15330	0.20002
2833.22462	0.20039
2831.29595	0.20072
2829.36727	0.20104
2827.43859	0.20136
2825.50992	0.20169
2823.58124	0.20197
2821.65257	0.20225
2819.72389	0.20257
2817.79522	0.20293
2815.86654	0.20326
2813.93786	0.20356
2812.00919	0.20384
2810.08051	0.20410
2808.15184	0.20438
2806.22316	0.20469
2804.29449	0.20499
2802.36581	0.20526
2800.43713	0.20552
2798.50846	0.20581
2796.57978	0.20610
2794.65111	0.20638
2792.72243	0.20666
2790.79376	0.20698
2788.86508	0.20731
2786.93640	0.20762
2785.00773	0.20790
2783.07905	0.20817
2781.15038	0.20845
2779.22170	0.20873
2777.29303	0.20904
2775.36435	0.20934
2773.43567	0.20963
2771.50700	0.20991
2769.57832	0.21019
2767.64965	0.21044
2765.72097	0.21069
2763.79230	0.21096
2761.86362	0.21127
2759.93494	0.21161
2758.00627	0.21189
2756.07759	0.21213
2754.14892	0.21239
2752.22024	0.21269
2750.29157	0.21298
2748.36289	0.21325
2746.43421	0.21352
2744.50554	0.21378
2742.57686	0.21405
2740.64819	0.21434
2738.71951	0.21464
2736.79084	0.21494
2734.86216	0.21524
2732.93348	0.21551
2731.00481	0.21575
2729.07613	0.21600
2727.14746	0.21627
2725.21878	0.21655
2723.29011	0.21683
2721.36143	0.21711
2719.43275	0.21739
2717.50408	0.21765
2715.57540	0.21791
2713.64673	0.21819
2711.71805	0.21846
2709.78938	0.21870
2707.86070	0.21896
2705.93202	0.21922
2704.00335	0.21948
2702.07467	0.21975
2700.14600	0.22004
2698.21732	0.22034
2696.28865	0.22062
2694.35997	0.22089
2692.43129	0.22116
2690.50262	0.22140
2688.57394	0.22165
2686.64527	0.22192
2684.71659	0.22221
2682.78792	0.22251
2680.85924	0.22281
2678.93056	0.22307
2677.00189	0.22331
2675.07321	0.22356
2673.14454	0.22383
2671.21586	0.22411
2669.28719	0.22441
2667.35851	0.22469
2665.42983	0.22497
2663.50116	0.22526
2661.57248	0.22555
2659.64381	0.22580
2657.71513	0.22605
2655.78646	0.22633
2653.85778	0.22663
2651.92910	0.22693
2650.00043	0.22722
2648.07175	0.22750
2646.14308	0.22779
2644.21440	0.22807
2642.28573	0.22834
2640.35705	0.22862
2638.42837	0.22892
2636.49970	0.22923
2634.57102	0.22952
2632.64235	0.22977
2630.71367	0.23003
2628.78500	0.23033
2626.85632	0.23063
2624.92764	0.23092
2622.99897	0.23122
2621.07029	0.23154
2619.14162	0.23187
2617.21294	0.23217
2615.28427	0.23243
2613.35559	0.23273
2611.42691	0.23303
2609.49824	0.23332
2607.56956	0.23362
2605.64089	0.23393
2603.71221	0.23422
2601.78354	0.23450
2599.85486	0.23479
2597.92618	0.23511
2595.99751	0.23540
2594.06883	0.23567
2592.14016	0.23595
2590.21148	0.23624
2588.28281	0.23652
2586.35413	0.23681
2584.42545	0.23711
2582.49678	0.23740
2580.56810	0.23769
2578.63943	0.23799
2576.71075	0.23831
2574.78208	0.23862
2572.85340	0.23890
2570.92472	0.23917
2568.99605	0.23944
2567.06737	0.23971
2565.13870	0.23999
2563.21002	0.24026
2561.28135	0.24053
2559.35267	0.24080
2557.42399	0.24111
2555.49532	0.24142
2553.56664	0.24171
2551.63797	0.24199
2549.70929	0.24226
2547.78062	0.24250
2545.85194	0.24276
2543.92326	0.24304
2541.99459	0.24334
2540.06591	0.24363
2538.13724	0.24391
2536.20856	0.24418
2534.27989	0.24445
2532.35121	0.24474
2530.42253	0.24505
2528.49386	0.24535
2526.56518	0.24565
2524.63651	0.24596
2522.70783	0.24627
2520.77916	0.24657
2518.85048	0.24685
2516.92181	0.24711
2514.99313	0.24739
2513.06445	0.24767
2511.13578	0.24795
2509.20710	0.24826
2507.27843	0.24864
2505.34975	0.24903
2503.42108	0.24935
2501.49240	0.24962
2499.56372	0.24990
2497.63505	0.25022
2495.70637	0.25055
2493.77770	0.25085
2491.84902	0.25112
2489.92035	0.25141
2487.99167	0.25174
2486.06299	0.25209
2484.13432	0.25242
2482.20564	0.25273
2480.27697	0.25305
2478.34829	0.25339
2476.41962	0.25370
2474.49094	0.25398
2472.56226	0.25428
2470.63359	0.25459
2468.70491	0.25487
2466.77624	0.25518
2464.84756	0.25552
2462.91889	0.25582
2460.99021	0.25609
2459.06153	0.25641
2457.13286	0.25673
2455.20418	0.25703
2453.27551	0.25731
2451.34683	0.25760
2449.41816	0.25792
2447.48948	0.25826
2445.56080	0.25858
2443.63213	0.25890
2441.70345	0.25918
2439.77478	0.25944
2437.84610	0.25973
2435.91743	0.26006
2433.98875	0.26041
2432.06007	0.26074
2430.13140	0.26105
2428.20272	0.26134
2426.27405	0.26165
2424.34537	0.26192
2422.41670	0.26216
2420.48802	0.26240
2418.55934	0.26270
2416.63067	0.26303
2414.70199	0.26338
2412.77332	0.26372
2410.84464	0.26403
2408.91597	0.26429
2406.98729	0.26454
2405.05861	0.26484
2403.12994	0.26515
2401.20126	0.26547
2399.27259	0.26580
2397.34391	0.26611
2395.41524	0.26640
2393.48656	0.26671
2391.55788	0.26701
2389.62921	0.26728
2387.70053	0.26755
2385.77186	0.26781
2383.84318	0.26805
2381.91451	0.26825
2379.98583	0.26841
2378.05715	0.26855
2376.12848	0.26865
2374.19980	0.26872
2372.27113	0.26873
2370.34245	0.26875
2368.41378	0.26883
2366.48510	0.26897
2364.55642	0.26915
2362.62775	0.26940
2360.69907	0.26974
2358.77040	0.27012
2356.84172	0.27055
2354.91305	0.27104
2352.98437	0.27162
2351.05569	0.27225
2349.12702	0.27273
2347.19834	0.27290
2345.26967	0.27294
2343.34099	0.27306
2341.41232	0.27326
2339.48364	0.27348
2337.55496	0.27372
2335.62629	0.27400
2333.69761	0.27433
2331.76894	0.27467
2329.84026	0.27502
2327.91159	0.27536
2325.98291	0.27575
2324.05423	0.27617
2322.12556	0.27660
2320.19688	0.27701
2318.26821	0.27742
2316.33953	0.27785
2314.41086	0.27830
2312.48218	0.27873
2310.55350	0.27911
2308.62483	0.27945
2306.69615	0.27978
2304.76748	0.28013
2302.83880	0.28048
2300.91013	0.28080
2298.98145	0.28111
2297.05277	0.28145
2295.12410	0.28182
2293.19542	0.28218
2291.26675	0.28247
2289.33807	0.28274
2287.40940	0.28304
2285.48072	0.28336
2283.55204	0.28367
2281.62337	0.28399
2279.69469	0.28431
2277.76602	0.28462
2275.83734	0.28490
2273.90867	0.28520
2271.97999	0.28550
2270.05131	0.28578
2268.12264	0.28606
2266.19396	0.28638
2264.26529	0.28672
2262.33661	0.28705
2260.40794	0.28735
2258.47926	0.28764
2256.55058	0.28793
2254.62191	0.28824
2252.69323	0.28856
2250.76456	0.28889
2248.83588	0.28920
2246.90721	0.28945
2244.97853	0.28967
2243.04985	0.28995
2241.12118	0.29029
2239.19250	0.29061
2237.26383	0.29091
2235.33515	0.29121
2233.40648	0.29153
2231.47780	0.29184
2229.54912	0.29209
2227.62045	0.29236
2225.69177	0.29268
2223.76310	0.29302
2221.83442	0.29333
2219.90575	0.29362
2217.97707	0.29392
2216.04839	0.29421
2214.11972	0.29446
2212.19104	0.29472
2210.26237	0.29503
2208.33369	0.29537
2206.40502	0.29570
2204.47634	0.29599
2202.54766	0.29628
2200.61899	0.29661
2198.69031	0.29694
2196.76164	0.29721
2194.83296	0.29745
2192.90429	0.29769
2190.97561	0.29795
2189.04693	0.29820
2187.11826	0.29848
2185.18958	0.29881
2183.26091	0.29917
2181.33223	0.29950
2179.40356	0.29981
2177.47488	0.30014
2175.54620	0.30047
2173.61753	0.30081
2171.68885	0.30114
2169.76018	0.30144
2167.83150	0.30173
2165.90283	0.30204
2163.97415	0.30234
2162.04547	0.30263
2160.11680	0.30291
2158.18812	0.30319
2156.25945	0.30348
2154.33077	0.30378
2152.40210	0.30409
2150.47342	0.30439
2148.54474	0.30471
2146.61607	0.30505
2144.68739	0.30538
2142.75872	0.30566
2140.83004	0.30592
2138.90137	0.30620
2136.97269	0.30651
2135.04401	0.30684
2133.11534	0.30715
2131.18666	0.30744
2129.25799	0.30776
2127.32931	0.30810
2125.40064	0.30840
2123.47196	0.30866
2121.54328	0.30891
2119.61461	0.30919
2117.68593	0.30950
2115.75726	0.30982
2113.82858	0.31017
2111.89991	0.31050
2109.97123	0.31080
2108.04255	0.31113
2106.11388	0.31148
2104.18520	0.31181
2102.25653	0.31208
2100.32785	0.31237
2098.39918	0.31272
2096.47050	0.31305
2094.54182	0.31333
2092.61315	0.31361
2090.68447	0.31390
2088.75580	0.31422
2086.82712	0.31451
2084.89845	0.31480
2082.96977	0.31513
2081.04109	0.31547
2079.11242	0.31578
2077.18374	0.31607
2075.25507	0.31635
2073.32639	0.31662
2071.39772	0.31692
2069.46904	0.31726
2067.54036	0.31757
2065.61169	0.31786
2063.68301	0.31815
2061.75434	0.31846
2059.82566	0.31878
2057.89699	0.31909
2055.96831	0.31941
2054.03963	0.31972
2052.11096	0.32002
2050.18228	0.32034
2048.25361	0.32066
2046.32493	0.32092
2044.39626	0.32117
2042.46758	0.32149
2040.53890	0.32185
2038.61023	0.32221
2036.68155	0.32253
2034.75288	0.32284
2032.82420	0.32317
2030.89553	0.32351
2028.96685	0.32383
2027.03817	0.32412
2025.10950	0.32442
2023.18082	0.32470
2021.25215	0.32497
2019.32347	0.32522
2017.39480	0.32551
2015.46612	0.32587
2013.53744	0.32623
2011.60877	0.32653
2009.68009	0.32686
2007.75142	0.32720
2005.82274	0.32749
2003.89407	0.32777
2001.96539	0.32806
2000.03671	0.32835
1998.10804	0.32866
1996.17936	0.32894
1994.25069	0.32914
1992.32201	0.32932
1990.39334	0.32961
1988.46466	0.32996
1986.53598	0.33030
1984.60731	0.33061
1982.67863	0.33091
1980.74996	0.33116
1978.82128	0.33139
1976.89261	0.33162
1974.96393	0.33188
1973.03525	0.33218
1971.10658	0.33245
1969.17790	0.33264
1967.24923	0.33284
1965.32055	0.33313
1963.39188	0.33346
1961.46320	0.33377
1959.53452	0.33409
1957.60585	0.33441
1955.67717	0.33470
1953.74850	0.33497
1951.81982	0.33524
1949.89115	0.33553
1947.96247	0.33581
1946.03379	0.33602
1944.10512	0.33614
1942.17644	0.33639
1940.24777	0.33690
1938.31909	0.33742
1936.39042	0.33779
1934.46174	0.33807
1932.53306	0.33833
1930.60439	0.33857
1928.67571	0.33883
1926.74704	0.33910
1924.81836	0.33929
1922.88969	0.33946
1920.96101	0.33964
1919.03233	0.33980
1917.10366	0.34020
1915.17498	0.34085
1913.24631	0.34132
1911.31763	0.34155
1909.38896	0.34177
1907.46028	0.34206
1905.53160	0.34237
1903.60293	0.34269
1901.67425	0.34302
1899.74558	0.34333
1897.81690	0.34355
1895.88823	0.34372
1893.95955	0.34400
1892.03087	0.34425
1890.10220	0.34443
1888.17352	0.34477
1886.24485	0.34520
1884.31617	0.34556
1882.38750	0.34590
1880.45882	0.34625
1878.53014	0.34654
1876.60147	0.34683
1874.67279	0.34713
1872.74412	0.34729
1870.81544	0.34717
1868.88677	0.34711
1866.95809	0.34757
1865.02941	0.34832
1863.10074	0.34890
1861.17206	0.34925
1859.24339	0.34952
1857.31471	0.34981
1855.38604	0.35014
1853.45736	0.35048
1851.52868	0.35077
1849.60001	0.35092
1847.67133	0.35085
1845.74266	0.35065
1843.81398	0.35089
1841.88531	0.35174
1839.95663	0.35253
1838.02795	0.35290
1836.09928	0.35313
1834.17060	0.35334
1832.24193	0.35334
1830.31325	0.35330
1828.38458	0.35355
1826.45590	0.35393
1824.52722	0.35440
1822.59855	0.35505
1820.66987	0.35559
1818.74120	0.35588
1816.81252	0.35610
1814.88385	0.35634
1812.95517	0.35648
1811.02649	0.35662
1809.09782	0.35695
1807.16914	0.35736
1805.24047	0.35754
1803.31179	0.35745
1801.38312	0.35745
1799.45444	0.35776
1797.52576	0.35816
1795.59709	0.35829
1793.66841	0.35815
1791.73974	0.35831
1789.81106	0.35899
1787.88239	0.35957
1785.95371	0.35973
1784.02503	0.35985
1782.09636	0.36010
1780.16768	0.36041
1778.23901	0.36076
1776.31033	0.36083
1774.38166	0.36048
1772.45298	0.36023
1770.52430	0.36049
1768.59563	0.36105
1766.66695	0.36170
1764.73828	0.36209
1762.80960	0.36207
1760.88093	0.36214
1758.95225	0.36241
1757.02357	0.36261
1755.09490	0.36273
1753.16622	0.36243
1751.23755	0.36185
1749.30887	0.36173
1747.38020	0.36212
1745.45152	0.36249
1743.52284	0.36261
1741.59417	0.36253
1739.66549	0.36258
1737.73682	0.36263
1735.80814	0.36218
1733.87947	0.36198
1731.95079	0.36279
1730.02211	0.36388
1728.09344	0.36466
1726.16476	0.36517
1724.23609	0.36547
1722.30741	0.36555
1720.37874	0.36512
1718.45006	0.36448
1716.52138	0.36458
1714.59271	0.36548
1712.66403	0.36644
1710.73536	0.36695
1708.80668	0.36690
1706.87801	0.36658
1704.94933	0.36637
1703.02065	0.36585
1701.09198	0.36505
1699.16330	0.36500
1697.23463	0.36556
1695.30595	0.36624
1693.37728	0.36716
1691.44860	0.36769
1689.51992	0.36762
1687.59125	0.36715
1685.66257	0.36634
1683.73390	0.36610
1681.80522	0.36685
1679.87655	0.36764
1677.94787	0.36772
1676.01919	0.36745
1674.09052	0.36745
1672.16184	0.36747
1670.23317	0.36737
1668.30449	0.36782
1666.37582	0.36857
1664.44714	0.36875
1662.51846	0.36874
1660.58979	0.36912
1658.66111	0.36939
1656.73244	0.36869
1654.80376	0.36716
1652.87509	0.36660
1650.94641	0.36761
1649.01773	0.36833
1647.08906	0.36834
1645.16038	0.36890
1643.23171	0.36983
1641.30303	0.37025
1639.37436	0.37000
1637.44568	0.36930
1635.51700	0.36906
1633.58833	0.36985
1631.65965	0.37072
1629.73098	0.37079
1627.80230	0.37046
1625.87363	0.37000
1623.94495	0.36937
1622.01627	0.36896
1620.08760	0.36892
1618.15892	0.36919
1616.23025	0.37020
1614.30157	0.37175
1612.37290	0.37290
1610.44422	0.37342
1608.51554	0.37380
1606.58687	0.37424
1604.65819	0.37465
1602.72952	0.37507
1600.80084	0.37552
1598.87217	0.37588
1596.94349	0.37610
1595.01481	0.37632
1593.08614	0.37666
1591.15746	0.37706
1589.22879	0.37740
1587.30011	0.37768
1585.37144	0.37797
1583.44276	0.37831
1581.51408	0.37863
1579.58541	0.37860
1577.65673	0.37821
1575.72806	0.37823
1573.79938	0.37885
1571.87071	0.37911
1569.94203	0.37902
1568.01335	0.37939
1566.08468	0.38001
1564.15600	0.38029
1562.22733	0.37971
1560.29865	0.37842
1558.36998	0.37803
1556.44130	0.37923
1554.51262	0.38066
1552.58395	0.38147
1550.65527	0.38184
1548.72660	0.38210
1546.79792	0.38211
1544.86925	0.38156
1542.94057	0.38078
1541.01189	0.38042
1539.08322	0.38106
1537.15454	0.38224
1535.22587	0.38274
1533.29719	0.38282
1531.36852	0.38327
1529.43984	0.38359
1527.51116	0.38345
1525.58249	0.38321
1523.65381	0.38276
1521.72514	0.38233
1519.79646	0.38261
1517.86779	0.38328
1515.93911	0.38387
1514.01043	0.38437
1512.08176	0.38446
1510.15308	0.38392
1508.22441	0.38326
1506.29573	0.38359
1504.36706	0.38508
1502.43838	0.38621
1500.50970	0.38614
1498.58103	0.38571
1496.65235	0.38585
1494.72368	0.38645
1492.79500	0.38659
1490.86633	0.38610
1488.93765	0.38592
1487.00897	0.38646
1485.08030	0.38717
1483.15162	0.38751
1481.22295	0.38754
1479.29427	0.38732
1477.36560	0.38673
1475.43692	0.38592
1473.50824	0.38532
1471.57957	0.38533
1469.65089	0.38577
1467.72222	0.38585
1465.79354	0.38559
1463.86487	0.38566
1461.93619	0.38578
1460.00751	0.38502
1458.07884	0.38389
1456.15016	0.38402
1454.22149	0.38537
1452.29281	0.38645
1450.36414	0.38674
1448.43546	0.38680
1446.50678	0.38707
1444.57811	0.38748
1442.64943	0.38774
1440.72076	0.38761
1438.79208	0.38689
1436.86341	0.38632
1434.93473	0.38673
1433.00605	0.38744
1431.07738	0.38767
1429.14870	0.38774
1427.22003	0.38781
1425.29135	0.38765
1423.36268	0.38730
1421.43400	0.38662
1419.50532	0.38593
1417.57665	0.38610
1415.64797	0.38683
1413.71930	0.38717
1411.79062	0.38712
1409.86195	0.38709
1407.93327	0.38705
1406.00459	0.38690
1404.07592	0.38684
1402.14724	0.38680
1400.21857	0.38647
1398.28989	0.38601
1396.36122	0.38573
1394.43254	0.38580
1392.50386	0.38619
1390.57519	0.38624
1388.64651	0.38559
1386.71784	0.38494
1384.78916	0.38481
1382.86049	0.38499
1380.93181	0.38518
1379.00313	0.38519
1377.07446	0.38494
1375.14578	0.38462
1373.21711	0.38460
1371.28843	0.38479
1369.35976	0.38485
1367.43108	0.38475
1365.50240	0.38447
1363.57373	0.38408
1361.64505	0.38400
1359.71638	0.38432
1357.78770	0.38459
1355.85903	0.38468
1353.93035	0.38475
1352.00167	0.38485
1350.07300	0.38497
1348.14432	0.38513
1346.21565	0.38530
1344.28697	0.38535
1342.35830	0.38517
1340.42962	0.38487
1338.50094	0.38479
1336.57227	0.38501
1334.64359	0.38527
1332.71492	0.38533
1330.78624	0.38517
1328.85757	0.38494
1326.92889	0.38475
1325.00021	0.38463
1323.07154	0.38450
1321.14286	0.38430
1319.21419	0.38414
1317.28551	0.38409
1315.35684	0.38403
1313.42816	0.38388
1311.49948	0.38369
1309.57081	0.38346
1307.64213	0.38312
1305.71346	0.38276
1303.78478	0.38244
1301.85611	0.38209
1299.92743	0.38169
1297.99875	0.38127
1296.07008	0.38088
1294.14140	0.38051
1292.21273	0.38012
1290.28405	0.37966
1288.35538	0.37917
1286.42670	0.37871
1284.49802	0.37819
1282.56935	0.37761
1280.64067	0.37697
1278.71200	0.37625
1276.78332	0.37542
1274.85465	0.37446
1272.92597	0.37335
1270.99729	0.37196
1269.06862	0.37029
1267.13994	0.36844
1265.21127	0.36669
1263.28259	0.36537
1261.35392	0.36476
1259.42524	0.36477
1257.49656	0.36505
1255.56789	0.36527
1253.63921	0.36526
1251.71054	0.36499
1249.78186	0.36446
1247.85319	0.36376
1245.92451	0.36302
1243.99583	0.36226
1242.06716	0.36143
1240.13848	0.36053
1238.20981	0.35961
1236.28113	0.35865
1234.35246	0.35763
1232.42378	0.35655
1230.49510	0.35547
1228.56643	0.35446
1226.63775	0.35347
1224.70908	0.35249
1222.78040	0.35152
1220.85173	0.35060
1218.92305	0.34967
1216.99437	0.34867
1215.06570	0.34765
1213.13702	0.34664
1211.20835	0.34566
1209.27967	0.34474
1207.35100	0.34391
1205.42232	0.34305
1203.49364	0.34213
1201.56497	0.34120
1199.63629	0.34028
1197.70762	0.33938
1195.77894	0.33850
1193.85027	0.33758
1191.92159	0.33659
1189.99291	0.33554
1188.06424	0.33444
1186.13556	0.33327
1184.20689	0.33197
1182.27821	0.33060
1180.34954	0.32926
1178.42086	0.32796
1176.49218	0.32667
1174.56351	0.32532
1172.63483	0.32392
1170.70616	0.32246
1168.77748	0.32099
1166.84881	0.31954
1164.92013	0.31804
1162.99145	0.31653
1161.06278	0.31512
1159.13410	0.31387
1157.20543	0.31268
1155.27675	0.31151
1153.34808	0.31031
1151.41940	0.30907
1149.49072	0.30782
1147.56205	0.30662
1145.63337	0.30544
1143.70470	0.30429
1141.77602	0.30316
1139.84735	0.30201
1137.91867	0.30083
1135.98999	0.29963
1134.06132	0.29841
1132.13264	0.29718
1130.20397	0.29588
1128.27529	0.29446
1126.34662	0.29298
1124.41794	0.29150
1122.48926	0.29001
1120.56059	0.28844
1118.63191	0.28683
1116.70324	0.28528
1114.77456	0.28375
1112.84589	0.28220
1110.91721	0.28065
1108.98853	0.27913
1107.05986	0.27763
1105.13118	0.27621
1103.20251	0.27483
1101.27383	0.27339
1099.34516	0.27196
1097.41648	0.27060
1095.48780	0.26931
1093.55913	0.26804
1091.63045	0.26684
1089.70178	0.26571
1087.77310	0.26460
1085.84443	0.26349
1083.91575	0.26244
1081.98707	0.26145
1080.05840	0.26045
1078.12972	0.25951
1076.20105	0.25868
1074.27237	0.25792
1072.34370	0.25726
1070.41502	0.25681
1068.48634	0.25656
1066.55767	0.25642
1064.62899	0.25637
1062.70032	0.25640
1060.77164	0.25652
1058.84297	0.25674
1056.91429	0.25706
1054.98561	0.25743
1053.05694	0.25778
1051.12826	0.25815
1049.19959	0.25859
1047.27091	0.25915
1045.34224	0.25984
1043.41356	0.26065
1041.48488	0.26146
1039.55621	0.26217
1037.62753	0.26287
1035.69886	0.26365
1033.77018	0.26446
1031.84151	0.26525
1029.91283	0.26606
1027.98415	0.26690
1026.05548	0.26769
1024.12680	0.26844
1022.19813	0.26924
1020.26945	0.27017
1018.34078	0.27121
1016.41210	0.27231
1014.48342	0.27347
1012.55475	0.27475
1010.62607	0.27613
1008.69740	0.27755
1006.76872	0.27893
1004.84005	0.28023
1002.91137	0.28140
1000.98269	0.28240
999.05402	0.28331
997.12534	0.28416
995.19667	0.28494
993.26799	0.28568
991.33932	0.28637
989.41064	0.28696
987.48196	0.28747
985.55329	0.28796
983.62461	0.28843
981.69594	0.28884
979.76726	0.28916
977.83859	0.28940
975.90991	0.28960
973.98123	0.28968
972.05256	0.28964
970.12388	0.28955
968.19521	0.28943
966.26653	0.28927
964.33786	0.28905
962.40918	0.28877
960.48050	0.28848
958.55183	0.28820
956.62315	0.28791
954.69448	0.28757
952.76580	0.28713
950.83713	0.28661
948.90845	0.28609
946.97977	0.28560
945.05110	0.28507
943.12242	0.28454
941.19375	0.28401
939.26507	0.28342
937.33640	0.28273
935.40772	0.28201
933.47904	0.28132
931.55037	0.28063
929.62169	0.27997
927.69302	0.27937
925.76434	0.27876
923.83567	0.27810
921.90699	0.27739
919.97831	0.27672
918.04964	0.27607
916.12096	0.27536
914.19229	0.27458
912.26361	0.27379
910.33494	0.27299
908.40626	0.27217
906.47758	0.27133
904.54891	0.27049
902.62023	0.26963
900.69156	0.26874
898.76288	0.26781
896.83421	0.26689
894.90553	0.26601
892.97685	0.26513
891.04818	0.26424
889.11950	0.26339
887.19083	0.26252
885.26215	0.26160
883.33348	0.26070
881.40480	0.25986
879.47612	0.25902
877.54745	0.25817
875.61877	0.25737
873.69010	0.25668
871.76142	0.25605
869.83275	0.25534
867.90407	0.25448
865.97539	0.25358
864.04672	0.25273
862.11804	0.25191
860.18937	0.25105
858.26069	0.25011
856.33202	0.24910
854.40334	0.24815
852.47466	0.24731
850.54599	0.24641
848.61731	0.24536
846.68864	0.24431
844.75996	0.24338
842.83129	0.24252
840.90261	0.24166
838.97394	0.24079
837.04526	0.23988
835.11658	0.23887
833.18791	0.23787
831.25923	0.23693
829.33056	0.23592
827.40188	0.23476
825.47321	0.23354
823.54453	0.23235
821.61585	0.23123
819.68718	0.23018
817.75850	0.22921
815.82983	0.22827
813.90115	0.22732
811.97248	0.22633
810.04380	0.22530
808.11512	0.22428
806.18645	0.22339
804.25777	0.22262
802.32910	0.22193
800.40042	0.22130
798.47175	0.22071
796.54307	0.22016
794.61439	0.21975
792.68572	0.21944
790.75704	0.21912
788.82837	0.21878
786.89969	0.21844
784.97102	0.21808
783.04234	0.21771
781.11366	0.21732
779.18499	0.21682
777.25631	0.21626
775.32764	0.21576
773.39896	0.21534
771.47029	0.21487
769.54161	0.21430
767.61293	0.21365
765.68426	0.21297
763.75558	0.21229
761.82691	0.21160
759.89823	0.21085
757.96956	0.21005
756.04088	0.20919
754.11220	0.20828
752.18353	0.20739
750.25485	0.20651
748.32618	0.20557
746.39750	0.20456
744.46883	0.20354
742.54015	0.20256
740.61147	0.20169
738.68280	0.20089
736.75412	0.20013
734.82545	0.19944
732.89677	0.19882
730.96810	0.19816
729.03942	0.19745
727.11074	0.19673
725.18207	0.19600
723.25339	0.19524
721.32472	0.19444
719.39604	0.19360
717.46737	0.19275
715.53869	0.19186
713.61001	0.19101
711.68134	0.19027
709.75266	0.18954
707.82399	0.18874
705.89531	0.18798
703.96664	0.18724
702.03796	0.18647
700.10928	0.18564
698.18061	0.18481
696.25193	0.18397
694.32326	0.18316
692.39458	0.18238
690.46591	0.18154
688.53723	0.18066
686.60855	0.17976
684.67988	0.17880
682.75120	0.17775
680.82253	0.17666
678.89385	0.17559
676.96518	0.17446
675.03650	0.17318
673.10782	0.17178
671.17915	0.17026
669.25047	0.16857
667.32180	0.16703
665.39312	0.16579
663.46445	0.16449
661.53577	0.16296
659.60709	0.16137
657.67842	0.15982
655.74974	0.15836
653.82107	0.15696
651.89239	0.15552
649.96372	0.15403
648.03504	0.15251
646.10636	0.15090
644.17769	0.14918
642.24901	0.14743
640.32034	0.14571
638.39166	0.14393
636.46299	0.14209
634.53431	0.14033
632.60563	0.13862
630.67696	0.13682
628.74828	0.13493
626.81961	0.13310
624.89093	0.13136
622.96226	0.12964
621.03358	0.12796
619.10490	0.12636
617.17623	0.12477
615.24755	0.12303
613.31888	0.12116
611.39020	0.11932
609.46153	0.11764
607.53285	0.11602
605.60417	0.11441
603.67550	0.11286
601.74682	0.11131
599.81815	0.10982
597.88947	0.10842
595.96080	0.10706
594.03212	0.10583
592.10344	0.10473
590.17477	0.10363
588.24609	0.10252
586.31742	0.10143
584.38874	0.10033
582.46007	0.09918
580.53139	0.09806
578.60271	0.09700
576.67404	0.09598
574.74536	0.09500
572.81669	0.09401
570.88801	0.09306
568.95934	0.09217
567.03066	0.09131
565.10198	0.09050
563.17331	0.08978
561.24463	0.08907
559.31596	0.08830
557.38728	0.08751
555.45861	0.08676
553.52993	0.08609
551.60125	0.08543
549.67258	0.08477
547.74390	0.08419
545.81523	0.08371
543.88655	0.08326
541.95788	0.08277
540.02920	0.08218
538.10052	0.08158
536.17185	0.08110
534.24317	0.08066
532.31450	0.08010
530.38582	0.07945
528.45715	0.07875
526.52847	0.07806
524.59979	0.07738
522.67112	0.07663
520.74244	0.07575
518.81377	0.07489
516.88509	0.07411
514.95642	0.07337
513.02774	0.07260
511.09906	0.07176
509.17039	0.07087
507.24171	0.07004
505.31304	0.06922
503.38436	0.06827
501.45569	0.06719
499.52701	0.06606
497.59833	0.06484
495.66966	0.06358
493.74098	0.06239
491.81231	0.06124
489.88363	0.05999
487.95496	0.05870
486.02628	0.05745
484.09760	0.05621
482.16893	0.05495
480.24025	0.05370
478.31158	0.05242
476.38290	0.05115
474.45423	0.04998
472.52555	0.04894
470.59687	0.04796
468.66820	0.04702
466.73952	0.04619
464.81085	0.04555
462.88217	0.04511
460.95350	0.04478
459.02482	0.04444
457.09614	0.04417
455.16747	0.04412
453.23879	0.04415
451.31012	0.04413
449.38144	0.04399
447.45277	0.04369
445.52409	0.04324
443.59541	0.04267
441.66674	0.04201
439.73806	0.04130
437.80939	0.04056
435.88071	0.03973
433.95204	0.03869
432.02336	0.03749
430.09468	0.03632
428.16601	0.03516
426.23733	0.03389
424.30866	0.03258
422.37998	0.03135
420.45131	0.03012
418.52263	0.02884
416.59395	0.02748
414.66528	0.02610
412.73660	0.02487
410.80793	0.02379
408.87925	0.02266
406.95058	0.02144
405.02190	0.02024
403.09322	0.01911
401.16455	0.01800
399.23587	0.01692
397.30720	0.01585
395.37852	0.01486
393.44985	0.01396
391.52117	0.01301
389.59249	0.01203
387.66382	0.01120
385.73514	0.01047
383.80647	0.00967
381.87779	0.00884
379.94912	0.00809
378.02044	0.00745
376.09176	0.00683
374.16309	0.00617
372.23441	0.00555
370.30574	0.00500
368.37706	0.00447
