7496.76250	0.002020
7494.83382	0.002011
7492.90514	0.002017
7490.97647	0.002017
7489.04779	0.001993
7487.11912	0.001983
7485.19044	0.002012
7483.26177	0.002033
7481.33309	0.002011
7479.40441	0.002002
7477.47574	0.002038
7475.54706	0.002058
7473.61839	0.002036
7471.68971	0.002037
7469.76104	0.002078
7467.83236	0.002095
7465.90368	0.002071
7463.97501	0.002063
7462.04633	0.002087
7460.11766	0.002094
7458.18898	0.002073
7456.26031	0.002082
7454.33163	0.002122
7452.40295	0.002133
7450.47428	0.002113
7448.54560	0.002118
7446.61693	0.002144
7444.68825	0.002144
7442.75958	0.002125
7440.83090	0.002129
7438.90222	0.002154
7436.97355	0.002160
7435.04487	0.002147
7433.11620	0.002154
7431.18752	0.002165
7429.25885	0.002138
7427.33017	0.002105
7425.40149	0.002124
7423.47282	0.002159
7421.54414	0.002155
7419.61547	0.002156
7417.68679	0.002188
7415.75812	0.002198
7413.82944	0.002178
7411.90076	0.002179
7409.97209	0.002214
7408.04341	0.002222
7406.11474	0.002183
7404.18606	0.002171
7402.25739	0.002210
7400.32871	0.002230
7398.40003	0.002214
7396.47136	0.002223
7394.54268	0.002272
7392.61401	0.002302
7390.68533	0.002285
7388.75666	0.002268
7386.82798	0.002279
7384.89930	0.002279
7382.97063	0.002259
7381.04195	0.002268
7379.11328	0.002300
7377.18460	0.002298
7375.25593	0.002274
7373.32725	0.002280
7371.39857	0.002302
7369.46990	0.002310
7367.54122	0.002334
7365.61255	0.002382
7363.68387	0.002409
7361.75520	0.002385
7359.82652	0.002350
7357.89784	0.002355
7355.96917	0.002375
7354.04049	0.002360
7352.11182	0.002340
7350.18314	0.002363
7348.25447	0.002381
7346.32579	0.002357
7344.39711	0.002354
7342.46844	0.002405
7340.53976	0.002440
7338.61109	0.002419
7336.68241	0.002400
7334.75374	0.002411
7332.82506	0.002400
7330.89638	0.002361
7328.96771	0.002359
7327.03903	0.002399
7325.11036	0.002421
7323.18168	0.002411
7321.25301	0.002425
7319.32433	0.002470
7317.39565	0.002477
7315.46698	0.002442
7313.53830	0.002438
7311.60963	0.002472
7309.68095	0.002470
7307.75228	0.002439
7305.82360	0.002452
7303.89492	0.002499
7301.96625	0.002516
7300.03757	0.002510
7298.10890	0.002529
7296.18022	0.002564
7294.25155	0.002567
7292.32287	0.002551
7290.39419	0.002565
7288.46552	0.002591
7286.53684	0.002576
7284.60817	0.002552
7282.67949	0.002572
7280.75082	0.002594
7278.82214	0.002571
7276.89346	0.002561
7274.96479	0.002609
7273.03611	0.002653
7271.10744	0.002649
7269.17876	0.002638
7267.25009	0.002649
7265.32141	0.002653
7263.39273	0.002637
7261.46406	0.002633
7259.53538	0.002652
7257.60671	0.002651
7255.67803	0.002623
7253.74936	0.002623
7251.82068	0.002658
7249.89200	0.002669
7247.96333	0.002647
7246.03465	0.002652
7244.10598	0.002683
7242.17730	0.002690
7240.24863	0.002685
7238.31995	0.002709
7236.39127	0.002732
7234.46260	0.002708
7232.53392	0.002674
7230.60525	0.002694
7228.67657	0.002732
7226.74790	0.002721
7224.81922	0.002701
7222.89054	0.002727
7220.96187	0.002757
7219.03319	0.002742
7217.10452	0.002721
7215.17584	0.002746
7213.24717	0.002782
7211.31849	0.002781
7209.38981	0.002777
7207.46114	0.002809
7205.53246	0.002825
7203.60379	0.002790
7201.67511	0.002771
7199.74644	0.002801
7197.81776	0.002812
7195.88908	0.002791
7193.96041	0.002805
7192.03173	0.002852
7190.10306	0.002864
7188.17438	0.002833
7186.24571	0.002823
7184.31703	0.002853
7182.38835	0.002864
7180.45968	0.002843
7178.53100	0.002856
7176.60233	0.002898
7174.67365	0.002895
7172.74498	0.002865
7170.81630	0.002883
7168.88762	0.002921
7166.95895	0.002913
7165.03027	0.002896
7163.10160	0.002931
7161.17292	0.002970
7159.24425	0.002951
7157.31557	0.002918
7155.38689	0.002929
7153.45822	0.002952
7151.52954	0.002938
7149.60087	0.002914
7147.67219	0.002937
7145.74352	0.002973
7143.81484	0.002960
7141.88616	0.002943
7139.95749	0.002976
7138.02881	0.003005
7136.10014	0.002988
7134.17146	0.002975
7132.24279	0.003004
7130.31411	0.003026
7128.38543	0.003008
7126.45676	0.002999
7124.52808	0.003038
7122.59941	0.003056
7120.67073	0.003021
7118.74206	0.003016
7116.81338	0.003065
7114.88470	0.003084
7112.95603	0.003059
7111.02735	0.003060
7109.09868	0.003097
7107.17000	0.003114
7105.24133	0.003097
7103.31265	0.003101
7101.38397	0.003132
7099.45530	0.003124
7097.52662	0.003091
7095.59795	0.003111
7093.66927	0.003164
7091.74060	0.003161
7089.81192	0.003130
7087.88324	0.003147
7085.95457	0.003179
7084.02589	0.003160
7082.09722	0.003128
7080.16854	0.003151
7078.23987	0.003203
7076.31119	0.003216
7074.38251	0.003207
7072.45384	0.003231
7070.52516	0.003260
7068.59649	0.003242
7066.66781	0.003217
7064.73914	0.003228
7062.81046	0.003242
7060.88178	0.003230
7058.95311	0.003236
7057.02443	0.003290
7055.09576	0.003324
7053.16708	0.003286
7051.23841	0.003248
7049.30973	0.003272
7047.38105	0.003299
7045.45238	0.003291
7043.52370	0.003297
7041.59503	0.003322
7039.66635	0.003312
7037.73768	0.003287
7035.80900	0.003303
7033.88032	0.003347
7031.95165	0.003354
7030.02297	0.003323
7028.09430	0.003328
7026.16562	0.003371
7024.23695	0.003368
7022.30827	0.003330
7020.37959	0.003345
7018.45092	0.003402
7016.52224	0.003414
7014.59357	0.003387
7012.66489	0.003395
7010.73622	0.003429
7008.80754	0.003430
7006.87886	0.003411
7004.95019	0.003422
7003.02151	0.003444
7001.09284	0.003435
6999.16416	0.003423
6997.23549	0.003457
6995.30681	0.003494
6993.37813	0.003479
6991.44946	0.003462
6989.52078	0.003494
6987.59211	0.003512
6985.66343	0.003470
6983.73476	0.003448
6981.80608	0.003498
6979.87740	0.003541
6977.94873	0.003530
6976.02005	0.003531
6974.09138	0.003567
6972.16270	0.003577
6970.23403	0.003544
6968.30535	0.003531
6966.37667	0.003564
6964.44800	0.003577
6962.51932	0.003547
6960.59065	0.003545
6958.66197	0.003588
6956.73330	0.003606
6954.80462	0.003582
6952.87594	0.003576
6950.94727	0.003612
6949.01859	0.003640
6947.08992	0.003642
6945.16124	0.003663
6943.23257	0.003691
6941.30389	0.003662
6939.37521	0.003612
6937.44654	0.003621
6935.51786	0.003670
6933.58919	0.003683
6931.66051	0.003672
6929.73184	0.003692
6927.80316	0.003730
6925.87448	0.003736
6923.94581	0.003727
6922.01713	0.003745
6920.08846	0.003765
6918.15978	0.003757
6916.23111	0.003758
6914.30243	0.003786
6912.37375	0.003802
6910.44508	0.003792
6908.51640	0.003790
6906.58773	0.003807
6904.65905	0.003807
6902.73038	0.003785
6900.80170	0.003791
6898.87302	0.003840
6896.94435	0.003874
6895.01567	0.003872
6893.08700	0.003872
6891.15832	0.003892
6889.22965	0.003884
6887.30097	0.003855
6885.37229	0.003879
6883.44362	0.003941
6881.51494	0.003941
6879.58627	0.003892
6877.65759	0.003899
6875.72892	0.003949
6873.80024	0.003943
6871.87156	0.003909
6869.94289	0.003932
6868.01421	0.003977
6866.08554	0.003974
6864.15686	0.003961
6862.22819	0.004000
6860.29951	0.004054
6858.37083	0.004055
6856.44216	0.004026
6854.51348	0.004025
6852.58481	0.004030
6850.65613	0.004009
6848.72746	0.004006
6846.79878	0.004053
6844.87010	0.004088
6842.94143	0.004077
6841.01275	0.004079
6839.08408	0.004115
6837.15540	0.004133
6835.22673	0.004113
6833.29805	0.004113
6831.36937	0.004161
6829.44070	0.004189
6827.51202	0.004167
6825.58335	0.004158
6823.65467	0.004187
6821.72600	0.004191
6819.79732	0.004161
6817.86864	0.004170
6815.93997	0.004224
6814.01129	0.004250
6812.08262	0.004229
6810.15394	0.004221
6808.22527	0.004247
6806.29659	0.004257
6804.36791	0.004242
6802.43924	0.004261
6800.51056	0.004317
6798.58189	0.004330
6796.65321	0.004303
6794.72454	0.004318
6792.79586	0.004353
6790.86718	0.004331
6788.93851	0.004286
6787.00983	0.004294
6785.08116	0.004334
6783.15248	0.004335
6781.22381	0.004325
6779.29513	0.004371
6777.36645	0.004423
6775.43778	0.004417
6773.50910	0.004400
6771.58043	0.004430
6769.65175	0.004456
6767.72308	0.004432
6765.79440	0.004418
6763.86572	0.004464
6761.93705	0.004509
6760.00837	0.004485
6758.07970	0.004446
6756.15102	0.004477
6754.22235	0.004522
6752.29367	0.004509
6750.36499	0.004514
6748.43632	0.004578
6746.50764	0.004602
6744.57897	0.004552
6742.65029	0.004525
6740.72162	0.004568
6738.79294	0.004605
6736.86426	0.004594
6734.93559	0.004608
6733.00691	0.004649
6731.07824	0.004628
6729.14956	0.004568
6727.22089	0.004578
6725.29221	0.004640
6723.36353	0.004654
6721.43486	0.004619
6719.50618	0.004628
6717.57751	0.004690
6715.64883	0.004721
6713.72016	0.004707
6711.79148	0.004714
6709.86280	0.004747
6707.93413	0.004745
6706.00545	0.004711
6704.07678	0.004716
6702.14810	0.004769
6700.21943	0.004797
6698.29075	0.004791
6696.36207	0.004816
6694.43340	0.004848
6692.50472	0.004811
6690.57605	0.004761
6688.64737	0.004792
6686.71870	0.004841
6684.79002	0.004822
6682.86134	0.004800
6680.93267	0.004844
6679.00399	0.004875
6677.07532	0.004852
6675.14664	0.004850
6673.21797	0.004901
6671.28929	0.004939
6669.36061	0.004925
6667.43194	0.004925
6665.50326	0.004978
6663.57459	0.005012
6661.64591	0.004988
6659.71724	0.004986
6657.78856	0.005038
6655.85988	0.005057
6653.93121	0.005020
6652.00253	0.005015
6650.07386	0.005053
6648.14518	0.005047
6646.21651	0.005017
6644.28783	0.005048
6642.35915	0.005101
6640.43048	0.005096
6638.50180	0.005073
6636.57313	0.005107
6634.64445	0.005162
6632.71578	0.005160
6630.78710	0.005137
6628.85842	0.005162
6626.92975	0.005202
6625.00107	0.005182
6623.07240	0.005142
6621.14372	0.005173
6619.21505	0.005239
6617.28637	0.005245
6615.35769	0.005224
6613.42902	0.005253
6611.50034	0.005278
6609.57167	0.005245
6607.64299	0.005223
6605.71432	0.005263
6603.78564	0.005293
6601.85696	0.005272
6599.92829	0.005264
6597.99961	0.005309
6596.07094	0.005337
6594.14226	0.005311
6592.21359	0.005316
6590.28491	0.005401
6588.35623	0.005456
6586.42756	0.005414
6584.49888	0.005373
6582.57021	0.005397
6580.64153	0.005423
6578.71286	0.005421
6576.78418	0.005442
6574.85550	0.005492
6572.92683	0.005503
6570.99815	0.005462
6569.06948	0.005460
6567.14080	0.005518
6565.21213	0.005541
6563.28345	0.005523
6561.35477	0.005545
6559.42610	0.005602
6557.49742	0.005614
6555.56875	0.005591
6553.64007	0.005601
6551.71140	0.005618
6549.78272	0.005586
6547.85404	0.005551
6545.92537	0.005589
6543.99669	0.005659
6542.06802	0.005677
6540.13934	0.005673
6538.21067	0.005707
6536.28199	0.005731
6534.35331	0.005695
6532.42464	0.005681
6530.49596	0.005745
6528.56729	0.005795
6526.63861	0.005776
6524.70994	0.005769
6522.78126	0.005817
6520.85258	0.005843
6518.92391	0.005812
6516.99523	0.005807
6515.06656	0.005862
6513.13788	0.005890
6511.20921	0.005849
6509.28053	0.005836
6507.35185	0.005904
6505.42318	0.005960
6503.49450	0.005939
6501.56583	0.005938
6499.63715	0.006004
6497.70848	0.006024
6495.77980	0.005957
6493.85112	0.005922
6491.92245	0.005969
6489.99377	0.006001
6488.06510	0.005984
6486.13642	0.006000
6484.20775	0.006060
6482.27907	0.006069
6480.35039	0.006032
6478.42172	0.006052
6476.49304	0.006107
6474.56437	0.006094
6472.63569	0.006046
6470.70702	0.006077
6468.77834	0.006158
6466.84966	0.006169
6464.92099	0.006142
6462.99231	0.006182
6461.06364	0.006234
6459.13496	0.006207
6457.20629	0.006170
6455.27761	0.006200
6453.34893	0.006239
6451.42026	0.006234
6449.49158	0.006233
6447.56291	0.006278
6445.63423	0.006318
6443.70556	0.006306
6441.77688	0.006312
6439.84820	0.006378
6437.91953	0.006408
6435.99085	0.006350
6434.06218	0.006317
6432.13350	0.006373
6430.20483	0.006418
6428.27615	0.006387
6426.34747	0.006366
6424.41880	0.006407
6422.49012	0.006435
6420.56145	0.006415
6418.63277	0.006438
6416.70410	0.006533
6414.77542	0.006585
6412.84674	0.006543
6410.91807	0.006514
6408.98939	0.006553
6407.06072	0.006583
6405.13204	0.006567
6403.20337	0.006581
6401.27469	0.006632
6399.34601	0.006629
6397.41734	0.006582
6395.48866	0.006604
6393.55999	0.006690
6391.63131	0.006718
6389.70264	0.006693
6387.77396	0.006710
6385.84528	0.006752
6383.91661	0.006741
6381.98793	0.006722
6380.05926	0.006779
6378.13058	0.006844
6376.20191	0.006819
6374.27323	0.006773
6372.34455	0.006811
6370.41588	0.006876
6368.48720	0.006860
6366.55853	0.006818
6364.62985	0.006872
6362.70118	0.006952
6360.77250	0.006937
6358.84382	0.006895
6356.91515	0.006929
6354.98647	0.006976
6353.05780	0.006954
6351.12912	0.006936
6349.20045	0.006988
6347.27177	0.007027
6345.34309	0.007000
6343.41442	0.007003
6341.48574	0.007080
6339.55707	0.007120
6337.62839	0.007067
6335.69972	0.007033
6333.77104	0.007085
6331.84236	0.007134
6329.91369	0.007131
6327.98501	0.007157
6326.05634	0.007233
6324.12766	0.007261
6322.19899	0.007221
6320.27031	0.007217
6318.34163	0.007267
6316.41296	0.007273
6314.48428	0.007238
6312.55561	0.007262
6310.62693	0.007326
6308.69826	0.007333
6306.76958	0.007314
6304.84090	0.007351
6302.91223	0.007404
6300.98355	0.007378
6299.05488	0.007312
6297.12620	0.007321
6295.19753	0.007378
6293.26885	0.007384
6291.34017	0.007375
6289.41150	0.007422
6287.48282	0.007481
6285.55415	0.007481
6283.62547	0.007462
6281.69680	0.007502
6279.76812	0.007559
6277.83944	0.007548
6275.91077	0.007530
6273.98209	0.007587
6272.05342	0.007630
6270.12474	0.007583
6268.19607	0.007549
6266.26739	0.007606
6264.33871	0.007668
6262.41004	0.007667
6260.48136	0.007677
6258.55269	0.007741
6256.62401	0.007768
6254.69534	0.007722
6252.76666	0.007714
6250.83798	0.007779
6248.90931	0.007812
6246.98063	0.007778
6245.05196	0.007772
6243.12328	0.007831
6241.19461	0.007867
6239.26593	0.007849
6237.33725	0.007863
6235.40858	0.007928
6233.47990	0.007949
6231.55123	0.007915
6229.62255	0.007925
6227.69388	0.007983
6225.76520	0.007986
6223.83652	0.007945
6221.90785	0.007967
6219.97917	0.008039
6218.05050	0.008043
6216.12182	0.007998
6214.19315	0.008032
6212.26447	0.008112
6210.33579	0.008116
6208.40712	0.008093
6206.47844	0.008145
6204.54977	0.008217
6202.62109	0.008209
6200.69242	0.008175
6198.76374	0.008210
6196.83506	0.008259
6194.90639	0.008243
6192.97771	0.008228
6191.04904	0.008296
6189.12036	0.008363
6187.19169	0.008331
6185.26301	0.008297
6183.33433	0.008364
6181.40566	0.008430
6179.47698	0.008401
6177.54831	0.008376
6175.61963	0.008437
6173.69096	0.008497
6171.76228	0.008490
6169.83360	0.008495
6167.90493	0.008545
6165.97625	0.008541
6164.04758	0.008474
6162.11890	0.008470
6160.19023	0.008548
6158.26155	0.008595
6156.33287	0.008582
6154.40420	0.008606
6152.47552	0.008681
6150.54685	0.008704
6148.61817	0.008672
6146.68950	0.008689
6144.76082	0.008750
6142.83214	0.008764
6140.90347	0.008735
6138.97479	0.008757
6137.04612	0.008828
6135.11744	0.008849
6133.18877	0.008831
6131.26009	0.008871
6129.33141	0.008941
6127.40274	0.008941
6125.47406	0.008899
6123.54539	0.008921
6121.61671	0.008994
6119.68804	0.009003
6117.75936	0.008976
6115.83068	0.009023
6113.90201	0.009089
6111.97333	0.009068
6110.04466	0.009029
6108.11598	0.009081
6106.18731	0.009156
6104.25863	0.009141
6102.32995	0.009108
6100.40128	0.009144
6098.47260	0.009172
6096.54393	0.009141
6094.61525	0.009143
6092.68658	0.009223
6090.75790	0.009271
6088.82922	0.009219
6086.90055	0.009192
6084.97187	0.009271
6083.04320	0.009325
6081.11452	0.009287
6079.18585	0.009291
6077.25717	0.009382
6075.32849	0.009422
6073.39982	0.009380
6071.47114	0.009378
6069.54247	0.009439
6067.61379	0.009460
6065.68512	0.009439
6063.75644	0.009478
6061.82776	0.009564
6059.89909	0.009585
6057.97041	0.009545
6056.04174	0.009556
6054.11306	0.009628
6052.18439	0.009656
6050.25571	0.009628
6048.32703	0.009641
6046.39836	0.009695
6044.46968	0.009692
6042.54101	0.009665
6040.61233	0.009720
6038.68366	0.009808
6036.75498	0.009804
6034.82630	0.009757
6032.89763	0.009794
6030.96895	0.009878
6029.04028	0.009889
6027.11160	0.009868
6025.18293	0.009920
6023.25425	0.009978
6021.32557	0.009947
6019.39690	0.009922
6017.46822	0.009991
6015.53955	0.010042
6013.61087	0.010000
6011.68220	0.009982
6009.75352	0.010072
6007.82484	0.010157
6005.89617	0.010134
6003.96749	0.010101
6002.03882	0.010162
6000.11014	0.010228
5998.18147	0.010217
5996.25279	0.010217
5994.32411	0.010283
5992.39544	0.010305
5990.46676	0.010252
5988.53809	0.010271
5986.60941	0.010378
5984.68074	0.010411
5982.75206	0.010345
5980.82338	0.010318
5978.89471	0.010370
5976.96603	0.010403
5975.03736	0.010386
5973.10868	0.010421
5971.18001	0.010522
5969.25133	0.010551
5967.32265	0.010483
5965.39398	0.010482
5963.46530	0.010577
5961.53663	0.010614
5959.60795	0.010574
5957.67928	0.010593
5955.75060	0.010675
5953.82192	0.010703
5951.89325	0.010682
5949.96457	0.010714
5948.03590	0.010776
5946.10722	0.010760
5944.17855	0.010724
5942.24987	0.010801
5940.32119	0.010908
5938.39252	0.010894
5936.46384	0.010848
5934.53517	0.010905
5932.60649	0.010980
5930.67782	0.010961
5928.74914	0.010923
5926.82046	0.010963
5924.89179	0.011004
5922.96311	0.010976
5921.03444	0.010976
5919.10576	0.011057
5917.17709	0.011123
5915.24841	0.011123
5913.31973	0.011135
5911.39106	0.011197
5909.46238	0.011225
5907.53371	0.011192
5905.60503	0.011217
5903.67636	0.011314
5901.74768	0.011341
5899.81900	0.011287
5897.89033	0.011287
5895.96165	0.011372
5894.03298	0.011416
5892.10430	0.011378
5890.17563	0.011377
5888.24695	0.011459
5886.31827	0.011507
5884.38960	0.011486
5882.46092	0.011511
5880.53225	0.011591
5878.60357	0.011593
5876.67490	0.011537
5874.74622	0.011577
5872.81755	0.011684
5870.88887	0.011698
5868.96019	0.011647
5867.03152	0.011671
5865.10284	0.011743
5863.17417	0.011729
5861.24549	0.011671
5859.31682	0.011718
5857.38814	0.011826
5855.45946	0.011851
5853.53079	0.011824
5851.60211	0.011861
5849.67344	0.011922
5847.74476	0.011917
5845.81609	0.011896
5843.88741	0.011959
5841.95873	0.012050
5840.03006	0.012054
5838.10138	0.012025
5836.17271	0.012078
5834.24403	0.012138
5832.31536	0.012101
5830.38668	0.012052
5828.45800	0.012098
5826.52933	0.012179
5824.60065	0.012197
5822.67198	0.012214
5820.74330	0.012298
5818.81463	0.012355
5816.88595	0.012328
5814.95727	0.012323
5813.02860	0.012390
5811.09992	0.012419
5809.17125	0.012371
5807.24257	0.012365
5805.31390	0.012440
5803.38522	0.012491
5801.45654	0.012477
5799.52787	0.012497
5797.59919	0.012591
5795.67052	0.012630
5793.74184	0.012573
5791.81317	0.012571
5789.88449	0.012658
5787.95581	0.012697
5786.02714	0.012677
5784.09846	0.012722
5782.16979	0.012824
5780.24111	0.012855
5778.31244	0.012835
5776.38376	0.012893
5774.45508	0.012975
5772.52641	0.012944
5770.59773	0.012876
5768.66906	0.012924
5766.74038	0.013034
5764.81171	0.013052
5762.88303	0.013004
5760.95435	0.013042
5759.02568	0.013139
5757.09700	0.013149
5755.16833	0.013117
5753.23965	0.013166
5751.31098	0.013231
5749.38230	0.013218
5747.45362	0.013217
5745.52495	0.013309
5743.59627	0.013376
5741.66760	0.013324
5739.73892	0.013280
5737.81025	0.013358
5735.88157	0.013446
5733.95289	0.013429
5732.02422	0.013407
5730.09554	0.013484
5728.16687	0.013556
5726.23819	0.013536
5724.30952	0.013537
5722.38084	0.013631
5720.45216	0.013696
5718.52349	0.013652
5716.59481	0.013633
5714.66614	0.013718
5712.73746	0.013773
5710.80879	0.013742
5708.88011	0.013745
5706.95143	0.013818
5705.02276	0.013844
5703.09408	0.013808
5701.16541	0.013840
5699.23673	0.013959
5697.30806	0.014011
5695.37938	0.013954
5693.45070	0.013952
5691.52203	0.014053
5689.59335	0.014097
5687.66468	0.014053
5685.73600	0.014079
5683.80733	0.014192
5681.87865	0.014222
5679.94997	0.014168
5678.02130	0.014195
5676.09262	0.014287
5674.16395	0.014293
5672.23527	0.014260
5670.30660	0.014339
5668.37792	0.014461
5666.44924	0.014455
5664.52057	0.014401
5662.59189	0.014466
5660.66322	0.014561
5658.73454	0.014536
5656.80587	0.014494
5654.87719	0.014565
5652.94851	0.014662
5651.01984	0.014663
5649.09116	0.014635
5647.16249	0.014687
5645.23381	0.014734
5643.30514	0.014688
5641.37646	0.014682
5639.44778	0.014802
5637.51911	0.014892
5635.59043	0.014850
5633.66176	0.014819
5631.73308	0.014903
5629.80441	0.014978
5627.87573	0.014950
5625.94705	0.014947
5624.01838	0.015047
5622.08970	0.015112
5620.16103	0.015075
5618.23235	0.015078
5616.30368	0.015184
5614.37500	0.015249
5612.44632	0.015205
5610.51765	0.015212
5608.58897	0.015325
5606.66030	0.015370
5604.73162	0.015319
5602.80295	0.015343
5600.87427	0.015449
5598.94559	0.015456
5597.01692	0.015371
5595.08824	0.015386
5593.15957	0.015512
5591.23089	0.015574
5589.30222	0.015548
5587.37354	0.015585
5585.44486	0.015678
5583.51619	0.015679
5581.58751	0.015639
5579.65884	0.015700
5577.73016	0.015805
5575.80149	0.015811
5573.87281	0.015768
5571.94413	0.015825
5570.01546	0.015926
5568.08678	0.015920
5566.15811	0.015877
5564.22943	0.015951
5562.30076	0.016060
5560.37208	0.016050
5558.44340	0.015992
5556.51473	0.016028
5554.58605	0.016105
5552.65738	0.016122
5550.72870	0.016146
5548.80003	0.016247
5546.87135	0.016314
5544.94267	0.016254
5543.01400	0.016211
5541.08532	0.016315
5539.15665	0.016420
5537.22797	0.016385
5535.29930	0.016346
5533.37062	0.016448
5531.44194	0.016554
5529.51327	0.016533
5527.58459	0.016522
5525.65592	0.016606
5523.72724	0.016624
5521.79857	0.016548
5519.86989	0.016570
5517.94121	0.016714
5516.01254	0.016784
5514.08386	0.016738
5512.15519	0.016748
5510.22651	0.016853
5508.29784	0.016896
5506.36916	0.016844
5504.44048	0.016857
5502.51181	0.016963
5500.58313	0.016987
5498.65446	0.016916
5496.72578	0.016940
5494.79711	0.017066
5492.86843	0.017119
5490.93975	0.017091
5489.01108	0.017128
5487.08240	0.017219
5485.15373	0.017230
5483.22505	0.017202
5481.29638	0.017290
5479.36770	0.017420
5477.43902	0.017414
5475.51035	0.017342
5473.58167	0.017391
5471.65300	0.017504
5469.72432	0.017511
5467.79565	0.017474
5465.86697	0.017543
5463.93829	0.017637
5462.00962	0.017622
5460.08094	0.017586
5458.15227	0.017657
5456.22359	0.017748
5454.29492	0.017741
5452.36624	0.017722
5450.43756	0.017800
5448.50889	0.017878
5446.58021	0.017839
5444.65154	0.017807
5442.72286	0.017893
5440.79419	0.017967
5438.86551	0.017945
5436.93683	0.017942
5435.00816	0.018048
5433.07948	0.018142
5431.15081	0.018113
5429.22213	0.018097
5427.29346	0.018201
5425.36478	0.018278
5423.43610	0.018249
5421.50743	0.018254
5419.57875	0.018343
5417.65008	0.018373
5415.72140	0.018321
5413.79273	0.018343
5411.86405	0.018453
5409.93537	0.018495
5408.00670	0.018457
5406.07802	0.018490
5404.14935	0.018596
5402.22067	0.018625
5400.29200	0.018567
5398.36332	0.018585
5396.43464	0.018703
5394.50597	0.018755
5392.57729	0.018716
5390.64862	0.018748
5388.71994	0.018852
5386.79127	0.018869
5384.86259	0.018827
5382.93391	0.018894
5381.00524	0.019015
5379.07656	0.019018
5377.14789	0.018967
5375.21921	0.019036
5373.29054	0.019151
5371.36186	0.019148
5369.43318	0.019114
5367.50451	0.019214
5365.57583	0.019353
5363.64716	0.019356
5361.71848	0.019303
5359.78981	0.019352
5357.86113	0.019427
5355.93245	0.019391
5354.00378	0.019350
5352.07510	0.019449
5350.14643	0.019564
5348.21775	0.019553
5346.28908	0.019525
5344.36040	0.019610
5342.43172	0.019705
5340.50305	0.019683
5338.57437	0.019665
5336.64570	0.019779
5334.71702	0.019880
5332.78835	0.019839
5330.85967	0.019814
5328.93099	0.019930
5327.00232	0.020028
5325.07364	0.019991
5323.14497	0.019981
5321.21629	0.020096
5319.28762	0.020165
5317.35894	0.020113
5315.43026	0.020126
5313.50159	0.020262
5311.57291	0.020324
5309.64424	0.020260
5307.71556	0.020280
5305.78689	0.020425
5303.85821	0.020472
5301.92953	0.020381
5300.00086	0.020377
5298.07218	0.020512
5296.14351	0.020567
5294.21483	0.020514
5292.28616	0.020562
5290.35748	0.020703
5288.42880	0.020732
5286.50013	0.020672
5284.57145	0.020703
5282.64278	0.020797
5280.71410	0.020800
5278.78543	0.020753
5276.85675	0.020808
5274.92807	0.020927
5272.99940	0.020953
5271.07072	0.020941
5269.14205	0.021038
5267.21337	0.021148
5265.28470	0.021109
5263.35602	0.021039
5261.42734	0.021119
5259.49867	0.021239
5257.56999	0.021231
5255.64132	0.021208
5253.71264	0.021317
5251.78397	0.021418
5249.85529	0.021363
5247.92661	0.021312
5245.99794	0.021432
5244.06926	0.021558
5242.14059	0.021526
5240.21191	0.021501
5238.28324	0.021637
5236.35456	0.021761
5234.42588	0.021725
5232.49721	0.021707
5230.56853	0.021840
5228.63986	0.021918
5226.71118	0.021832
5224.78251	0.021806
5222.85383	0.021952
5220.92515	0.022066
5218.99648	0.022025
5217.06780	0.022002
5215.13913	0.022107
5213.21045	0.022164
5211.28178	0.022091
5209.35310	0.022075
5207.42442	0.022188
5205.49575	0.022250
5203.56707	0.022198
5201.63840	0.022211
5199.70972	0.022347
5197.78105	0.022426
5195.85237	0.022390
5193.92369	0.022416
5191.99502	0.022540
5190.06634	0.022581
5188.13767	0.022527
5186.20899	0.022570
5184.28032	0.022710
5182.35164	0.022755
5180.42296	0.022708
5178.49429	0.022750
5176.56561	0.022870
5174.63694	0.022893
5172.70826	0.022841
5170.77959	0.022896
5168.85091	0.023022
5166.92223	0.023018
5164.99356	0.022939
5163.06488	0.023001
5161.13621	0.023139
5159.20753	0.023165
5157.27886	0.023161
5155.35018	0.023264
5153.42150	0.023365
5151.49283	0.023341
5149.56415	0.023311
5147.63548	0.023428
5145.70680	0.023568
5143.77813	0.023546
5141.84945	0.023471
5139.92077	0.023526
5137.99210	0.023629
5136.06342	0.023647
5134.13475	0.023669
5132.20607	0.023779
5130.27740	0.023836
5128.34872	0.023752
5126.42004	0.023704
5124.49137	0.023810
5122.56269	0.023922
5120.63402	0.023923
5118.70534	0.023939
5116.77667	0.024058
5114.84799	0.024138
5112.91931	0.024090
5110.99064	0.024070
5109.06196	0.024167
5107.13329	0.024220
5105.20461	0.024169
5103.27594	0.024203
5101.34726	0.024368
5099.41858	0.024440
5097.48991	0.024373
5095.56123	0.024401
5093.63256	0.024568
5091.70388	0.024644
5089.77521	0.024597
5087.84653	0.024625
5085.91785	0.024736
5083.98918	0.024752
5082.06050	0.024691
5080.13183	0.024756
5078.20315	0.024923
5076.27448	0.024958
5074.34580	0.024879
5072.41712	0.024918
5070.48845	0.025046
5068.55977	0.025059
5066.63110	0.025011
5064.70242	0.025106
5062.77375	0.025267
5060.84507	0.025270
5058.91639	0.025187
5056.98772	0.025243
5055.05904	0.025369
5053.13037	0.025374
5051.20169	0.025349
5049.27302	0.025455
5047.34434	0.025562
5045.41566	0.025522
5043.48699	0.025482
5041.55831	0.025590
5039.62964	0.025706
5037.70096	0.025693
5035.77229	0.025688
5033.84361	0.025823
5031.91493	0.025943
5029.98626	0.025906
5028.05758	0.025876
5026.12891	0.025988
5024.20023	0.026076
5022.27156	0.026018
5020.34288	0.025989
5018.41420	0.026109
5016.48553	0.026206
5014.55685	0.026181
5012.62818	0.026209
5010.69950	0.026353
5008.77083	0.026407
5006.84215	0.026312
5004.91347	0.026300
5002.98480	0.026453
5001.05612	0.026543
4999.12745	0.026489
4997.19877	0.026511
4995.27010	0.026670
4993.34142	0.026753
4991.41274	0.026701
4989.48407	0.026703
4987.55539	0.026810
4985.62672	0.026851
4983.69804	0.026782
4981.76937	0.026810
4979.84069	0.026981
4977.91201	0.027063
4975.98334	0.027004
4974.05466	0.027030
4972.12599	0.027170
4970.19731	0.027217
4968.26864	0.027176
4966.33996	0.027237
4964.41128	0.027373
4962.48261	0.027390
4960.55393	0.027328
4958.62526	0.027385
4956.69658	0.027526
4954.76791	0.027557
4952.83923	0.027521
4950.91055	0.027590
4948.98188	0.027714
4947.05320	0.027718
4945.12453	0.027670
4943.19585	0.027773
4941.26718	0.027935
4939.33850	0.027933
4937.40982	0.027875
4935.48115	0.027991
4933.55247	0.028143
4931.62380	0.028114
4929.69512	0.028066
4927.76645	0.028190
4925.83777	0.028320
4923.90909	0.028300
4921.98042	0.028279
4920.05174	0.028387
4918.12307	0.028471
4916.19439	0.028411
4914.26572	0.028376
4912.33704	0.028499
4910.40836	0.028631
4908.47969	0.028634
4906.55101	0.028623
4904.62234	0.028714
4902.69366	0.028791
4900.76499	0.028760
4898.83631	0.028784
4896.90763	0.028945
4894.97896	0.029038
4893.05028	0.028972
4891.12161	0.028960
4889.19293	0.029082
4887.26426	0.029134
4885.33558	0.029072
4883.40690	0.029117
4881.47823	0.029302
4879.54955	0.029382
4877.62088	0.029298
4875.69220	0.029296
4873.76353	0.029454
4871.83485	0.029555
4869.90617	0.029520
4867.97750	0.029544
4866.04882	0.029684
4864.12015	0.029733
4862.19147	0.029674
4860.26280	0.029730
4858.33412	0.029895
4856.40544	0.029950
4854.47677	0.029905
4852.54809	0.029949
4850.61942	0.030052
4848.69074	0.030060
4846.76207	0.030036
4844.83339	0.030143
4842.90471	0.030299
4840.97604	0.030299
4839.04736	0.030229
4837.11869	0.030314
4835.19001	0.030465
4833.26134	0.030459
4831.33266	0.030399
4829.40398	0.030503
4827.47531	0.030667
4825.54663	0.030691
4823.61796	0.030652
4821.68928	0.030722
4819.76061	0.030831
4817.83193	0.030825
4815.90325	0.030793
4813.97458	0.030885
4812.04590	0.030985
4810.11723	0.030950
4808.18855	0.030927
4806.25988	0.031064
4804.33120	0.031197
4802.40252	0.031184
4800.47385	0.031176
4798.54517	0.031295
4796.61650	0.031396
4794.68782	0.031378
4792.75915	0.031390
4790.83047	0.031525
4788.90179	0.031619
4786.97312	0.031579
4785.04444	0.031577
4783.11577	0.031707
4781.18709	0.031805
4779.25842	0.031781
4777.32974	0.031801
4775.40106	0.031944
4773.47239	0.032033
4771.54371	0.031999
4769.61504	0.032013
4767.68636	0.032132
4765.75769	0.032194
4763.82901	0.032147
4761.90033	0.032185
4759.97166	0.032355
4758.04298	0.032435
4756.11431	0.032381
4754.18563	0.032421
4752.25696	0.032584
4750.32828	0.032655
4748.39960	0.032618
4746.47093	0.032667
4744.54225	0.032809
4742.61358	0.032851
4740.68490	0.032787
4738.75623	0.032829
4736.82755	0.032992
4734.89887	0.033060
4732.97020	0.033028
4731.04152	0.033081
4729.11285	0.033197
4727.18417	0.033218
4725.25550	0.033198
4723.32682	0.033292
4721.39814	0.033421
4719.46947	0.033426
4717.54079	0.033406
4715.61212	0.033521
4713.68344	0.033667
4711.75477	0.033666
4709.82609	0.033622
4707.89741	0.033718
4705.96874	0.033836
4704.04006	0.033815
4702.11139	0.033793
4700.18271	0.033913
4698.25404	0.034035
4696.32536	0.034033
4694.39668	0.034040
4692.46801	0.034182
4690.53933	0.034326
4688.61066	0.034318
4686.68198	0.034281
4684.75331	0.034373
4682.82463	0.034470
4680.89595	0.034469
4678.96728	0.034513
4677.03860	0.034660
4675.10993	0.034749
4673.18125	0.034733
4671.25258	0.034768
4669.32390	0.034913
4667.39522	0.035003
4665.46655	0.034965
4663.53787	0.034977
4661.60920	0.035130
4659.68052	0.035254
4657.75185	0.035247
4655.82317	0.035262
4653.89449	0.035372
4651.96582	0.035429
4650.03714	0.035393
4648.10847	0.035443
4646.17979	0.035615
4644.25112	0.035703
4642.32244	0.035653
4640.39376	0.035659
4638.46509	0.035770
4636.53641	0.035811
4634.60774	0.035780
4632.67906	0.035857
4630.75039	0.036031
4628.82171	0.036107
4626.89303	0.036096
4624.96436	0.036198
4623.03568	0.036372
4621.10701	0.036400
4619.17833	0.036335
4617.24966	0.036393
4615.32098	0.036538
4613.39230	0.036589
4611.46363	0.036574
4609.53495	0.036647
4607.60628	0.036781
4605.67760	0.036819
4603.74893	0.036791
4601.82025	0.036866
4599.89157	0.037009
4597.96290	0.037063
4596.03422	0.037092
4594.10555	0.037221
4592.17687	0.037338
4590.24820	0.037301
4588.31952	0.037243
4586.39084	0.037334
4584.46217	0.037471
4582.53349	0.037505
4580.60482	0.037525
4578.67614	0.037653
4576.74747	0.037782
4574.81879	0.037792
4572.89011	0.037802
4570.96144	0.037926
4569.03276	0.038022
4567.10409	0.037992
4565.17541	0.038008
4563.24674	0.038152
4561.31806	0.038258
4559.38938	0.038268
4557.46071	0.038336
4555.53203	0.038497
4553.60336	0.038574
4551.67468	0.038531
4549.74601	0.038561
4547.81733	0.038702
4545.88865	0.038771
4543.95998	0.038735
4542.03130	0.038773
4540.10263	0.038926
4538.17395	0.039018
4536.24528	0.039013
4534.31660	0.039078
4532.38792	0.039223
4530.45925	0.039272
4528.53057	0.039234
4526.60190	0.039302
4524.67322	0.039472
4522.74455	0.039547
4520.81587	0.039523
4518.88719	0.039577
4516.95852	0.039707
4515.02984	0.039766
4513.10117	0.039791
4511.17249	0.039932
4509.24382	0.040102
4507.31514	0.040112
4505.38646	0.040052
4503.45779	0.040131
4501.52911	0.040286
4499.60044	0.040329
4497.67176	0.040321
4495.74309	0.040437
4493.81441	0.040600
4491.88573	0.040620
4489.95706	0.040580
4488.02838	0.040666
4486.09971	0.040793
4484.17103	0.040818
4482.24236	0.040842
4480.31368	0.040997
4478.38500	0.041174
4476.45633	0.041222
4474.52765	0.041228
4472.59898	0.041333
4470.67030	0.041443
4468.74163	0.041431
4466.81295	0.041423
4464.88427	0.041547
4462.95560	0.041681
4461.02692	0.041688
4459.09825	0.041670
4457.16957	0.041782
4455.24090	0.041949
4453.31222	0.042019
4451.38354	0.042053
4449.45487	0.042151
4447.52619	0.042233
4445.59752	0.042248
4443.66884	0.042294
4441.74017	0.042422
4439.81149	0.042520
4437.88281	0.042523
4435.95414	0.042552
4434.02546	0.042688
4432.09679	0.042829
4430.16811	0.042897
4428.23944	0.042979
4426.31076	0.043126
4424.38208	0.043213
4422.45341	0.043205
4420.52473	0.043260
4418.59606	0.043407
4416.66738	0.043467
4414.73871	0.043419
4412.81003	0.043461
4410.88135	0.043618
4408.95268	0.043701
4407.02400	0.043685
4405.09533	0.043745
4403.16665	0.043915
4401.23798	0.044040
4399.30930	0.044089
4397.38062	0.044190
4395.45195	0.044318
4393.52327	0.044332
4391.59460	0.044289
4389.66592	0.044369
4387.73725	0.044538
4385.80857	0.044616
4383.87989	0.044616
4381.95122	0.044706
4380.02254	0.044889
4378.09387	0.044993
4376.16519	0.045011
4374.23652	0.045093
4372.30784	0.045216
4370.37916	0.045287
4368.45049	0.045362
4366.52181	0.045486
4364.59314	0.045573
4362.66446	0.045572
4360.73579	0.045586
4358.80711	0.045705
4356.87843	0.045849
4354.94976	0.045908
4353.02108	0.045943
4351.09241	0.046054
4349.16373	0.046174
4347.23506	0.046220
4345.30638	0.046255
4343.37770	0.046360
4341.44903	0.046492
4339.52035	0.046573
4337.59168	0.046635
4335.66300	0.046755
4333.73433	0.046876
4331.80565	0.046913
4329.87697	0.046951
4327.94830	0.047080
4326.01962	0.047200
4324.09095	0.047221
4322.16227	0.047263
4320.23360	0.047401
4318.30492	0.047506
4316.37624	0.047537
4314.44757	0.047636
4312.51889	0.047810
4310.59022	0.047912
4308.66154	0.047921
4306.73287	0.047975
4304.80419	0.048121
4302.87551	0.048229
4300.94684	0.048252
4299.01816	0.048320
4297.08949	0.048477
4295.16081	0.048598
4293.23214	0.048651
4291.30346	0.048733
4289.37478	0.048842
4287.44611	0.048895
4285.51743	0.048927
4283.58876	0.049022
4281.66008	0.049149
4279.73141	0.049233
4277.80273	0.049284
4275.87405	0.049379
4273.94538	0.049509
4272.01670	0.049579
4270.08803	0.049618
4268.15935	0.049735
4266.23068	0.049897
4264.30200	0.050000
4262.37332	0.050054
4260.44465	0.050151
4258.51597	0.050274
4256.58730	0.050331
4254.65862	0.050357
4252.72995	0.050457
4250.80127	0.050604
4248.87259	0.050688
4246.94392	0.050738
4245.01524	0.050858
4243.08657	0.051006
4241.15789	0.051079
4239.22922	0.051115
4237.30054	0.051230
4235.37186	0.051379
4233.44319	0.051430
4231.51451	0.051460
4229.58584	0.051589
4227.65716	0.051734
4225.72849	0.051806
4223.79981	0.051867
4221.87113	0.051982
4219.94246	0.052114
4218.01378	0.052197
4216.08511	0.052258
4214.15643	0.052351
4212.22776	0.052447
4210.29908	0.052509
4208.37040	0.052583
4206.44173	0.052722
4204.51305	0.052875
4202.58438	0.052964
4200.65570	0.053030
4198.72703	0.053139
4196.79835	0.053245
4194.86968	0.053281
4192.94100	0.053325
4191.01232	0.053487
4189.08365	0.053666
4187.15497	0.053738
4185.22630	0.053790
4183.29762	0.053902
4181.36895	0.054007
4179.44027	0.054063
4177.51159	0.054128
4175.58292	0.054246
4173.65424	0.054375
4171.72557	0.054470
4169.79689	0.054571
4167.86822	0.054702
4165.93954	0.054816
4164.01086	0.054915
4162.08219	0.055043
4160.15351	0.055174
4158.22484	0.055255
4156.29616	0.055306
4154.36749	0.055403
4152.43881	0.055550
4150.51013	0.055661
4148.58146	0.055724
4146.65278	0.055809
4144.72411	0.055932
4142.79543	0.056024
4140.86676	0.056069
4138.93808	0.056149
4137.00940	0.056297
4135.08073	0.056441
4133.15205	0.056543
4131.22338	0.056657
4129.29470	0.056792
4127.36603	0.056883
4125.43735	0.056943
4123.50867	0.057039
4121.58000	0.057158
4119.65132	0.057253
4117.72265	0.057345
4115.79397	0.057473
4113.86530	0.057618
4111.93662	0.057729
4110.00794	0.057802
4108.07927	0.057892
4106.15059	0.058031
4104.22192	0.058164
4102.29324	0.058257
4100.36457	0.058346
4098.43589	0.058439
4096.50721	0.058507
4094.57854	0.058574
4092.64986	0.058693
4090.72119	0.058847
4088.79251	0.058975
4086.86384	0.059082
4084.93516	0.059213
4083.00648	0.059349
4081.07781	0.059442
4079.14913	0.059526
4077.22046	0.059657
4075.29178	0.059792
4073.36311	0.059877
4071.43443	0.059958
4069.50575	0.060064
4067.57708	0.060173
4065.64840	0.060287
4063.71973	0.060424
4061.79105	0.060563
4059.86238	0.060671
4057.93370	0.060755
4056.00502	0.060859
4054.07635	0.061000
4052.14767	0.061149
4050.21900	0.061276
4048.29032	0.061385
4046.36165	0.061475
4044.43297	0.061553
4042.50429	0.061653
4040.57562	0.061781
4038.64694	0.061914
4036.71827	0.062033
4034.78959	0.062152
4032.86092	0.062276
4030.93224	0.062374
4029.00356	0.062453
4027.07489	0.062534
4025.14621	0.062622
4023.21754	0.062753
4021.28886	0.062918
4019.36019	0.063039
4017.43151	0.063128
4015.50283	0.063264
4013.57416	0.063429
4011.64548	0.063553
4009.71681	0.063648
4007.78813	0.063755
4005.85946	0.063870
4003.93078	0.063983
4002.00210	0.064097
4000.07343	0.064223
3998.14475	0.064365
3996.21608	0.064501
3994.28740	0.064608
3992.35873	0.064700
3990.43005	0.064801
3988.50137	0.064920
3986.57270	0.065041
3984.64402	0.065151
3982.71535	0.065247
3980.78667	0.065331
3978.85800	0.065432
3976.92932	0.065565
3975.00064	0.065699
3973.07197	0.065822
3971.14329	0.065950
3969.21462	0.066086
3967.28594	0.066223
3965.35727	0.066359
3963.42859	0.066476
3961.49991	0.066585
3959.57124	0.066702
3957.64256	0.066816
3955.71389	0.066946
3953.78521	0.067098
3951.85654	0.067231
3949.92786	0.067337
3947.99918	0.067448
3946.07051	0.067546
3944.14183	0.067614
3942.21316	0.067741
3940.28448	0.067949
3938.35581	0.068128
3936.42713	0.068218
3934.49845	0.068239
3932.56978	0.068285
3930.64110	0.068442
3928.71243	0.068638
3926.78375	0.068761
3924.85508	0.068851
3922.92640	0.068954
3920.99772	0.069034
3919.06905	0.069119
3917.14037	0.069283
3915.21170	0.069524
3913.28302	0.069755
3911.35435	0.069896
3909.42567	0.069964
3907.49699	0.069969
3905.56832	0.069888
3903.63964	0.069829
3901.71097	0.069948
3899.78229	0.070220
3897.85362	0.070505
3895.92494	0.070725
3893.99626	0.070847
3892.06759	0.070943
3890.13891	0.071078
3888.21024	0.071113
3886.28156	0.071089
3884.35289	0.071241
3882.42421	0.071474
3880.49553	0.071655
3878.56686	0.071860
3876.63818	0.072005
3874.70951	0.072032
3872.78083	0.072042
3870.85216	0.072102
3868.92348	0.072282
3866.99480	0.072482
3865.06613	0.072584
3863.13745	0.072746
3861.20878	0.073034
3859.28010	0.073250
3857.35143	0.073195
3855.42275	0.072926
3853.49407	0.072871
3851.56540	0.073271
3849.63672	0.073784
3847.70805	0.074093
3845.77937	0.074218
3843.85070	0.074245
3841.92202	0.074216
3839.99334	0.074175
3838.06467	0.074258
3836.13599	0.074527
3834.20732	0.074832
3832.27864	0.075079
3830.34997	0.075278
3828.42129	0.075400
3826.49261	0.075490
3824.56394	0.075558
3822.63526	0.075555
3820.70659	0.075620
3818.77791	0.075795
3816.84924	0.075978
3814.92056	0.076252
3812.99188	0.076589
3811.06321	0.076768
3809.13453	0.076757
3807.20586	0.076770
3805.27718	0.076899
3803.34851	0.077000
3801.41983	0.077132
3799.49115	0.077354
3797.56248	0.077513
3795.63380	0.077675
3793.70513	0.077961
3791.77645	0.078229
3789.84778	0.078350
3787.91910	0.078382
3785.99042	0.078452
3784.06175	0.078599
3782.13307	0.078749
3780.20440	0.078891
3778.27572	0.079089
3776.34705	0.079309
3774.41837	0.079436
3772.48969	0.079442
3770.56102	0.079453
3768.63234	0.079583
3766.70367	0.079758
3764.77499	0.079927
3762.84632	0.080093
3760.91764	0.080197
3758.98896	0.080299
3757.06029	0.080457
3755.13161	0.080536
3753.20294	0.080453
3751.27426	0.080402
3749.34559	0.080533
3747.41691	0.080575
3745.48823	0.080459
3743.55956	0.080670
3741.63088	0.081204
3739.70221	0.081461
3737.77353	0.081353
3735.84486	0.081309
3733.91618	0.081528
3731.98750	0.081945
3730.05883	0.082372
3728.13015	0.082562
3726.20148	0.082579
3724.27280	0.082696
3722.34413	0.082911
3720.41545	0.083113
3718.48677	0.083330
3716.55810	0.083538
3714.62942	0.083602
3712.70075	0.083538
3710.77207	0.083579
3708.84340	0.083840
3706.91472	0.084154
3704.98604	0.084325
3703.05737	0.084416
3701.12869	0.084617
3699.20002	0.084865
3697.27134	0.084991
3695.34267	0.085021
3693.41399	0.084988
3691.48531	0.084898
3689.55664	0.084943
3687.62796	0.085281
3685.69929	0.085733
3683.77061	0.085990
3681.84194	0.086017
3679.91326	0.085988
3677.98458	0.085943
3676.05591	0.085959
3674.12723	0.086180
3672.19856	0.086422
3670.26988	0.086558
3668.34121	0.086794
3666.41253	0.087133
3664.48385	0.087402
3662.55518	0.087593
3660.62650	0.087718
3658.69783	0.087743
3656.76915	0.087781
3654.84048	0.087891
3652.91180	0.087807
3650.98312	0.087490
3649.05445	0.087382
3647.12577	0.087695
3645.19710	0.088180
3643.26842	0.088584
3641.33975	0.088880
3639.41107	0.089104
3637.48239	0.089221
3635.55372	0.089261
3633.62504	0.089309
3631.69637	0.089278
3629.76769	0.089164
3627.83902	0.089282
3625.91034	0.089673
3623.98166	0.089952
3622.05299	0.089924
3620.12431	0.089854
3618.19564	0.090042
3616.26696	0.090266
3614.33829	0.090221
3612.40961	0.090113
3610.48093	0.090226
3608.55226	0.090523
3606.62358	0.090815
3604.69491	0.091013
3602.76623	0.091167
3600.83756	0.091291
3598.90888	0.091353
3596.98020	0.091408
3595.05153	0.091532
3593.12285	0.091683
3591.19418	0.091703
3589.26550	0.091601
3587.33683	0.091666
3585.40815	0.091983
3583.47947	0.092256
3581.55080	0.092382
3579.62212	0.092521
3577.69345	0.092655
3575.76477	0.092708
3573.83610	0.092814
3571.90742	0.092981
3569.97874	0.092964
3568.05007	0.092834
3566.12139	0.092969
3564.19272	0.093335
3562.26404	0.093584
3560.33537	0.093667
3558.40669	0.093773
3556.47801	0.093937
3554.54934	0.094000
3552.62066	0.093964
3550.69199	0.094032
3548.76331	0.094205
3546.83464	0.094320
3544.90596	0.094397
3542.97728	0.094550
3541.04861	0.094723
3539.11993	0.094794
3537.19126	0.094807
3535.26258	0.094890
3533.33391	0.095008
3531.40523	0.095042
3529.47655	0.095028
3527.54788	0.095102
3525.61920	0.095242
3523.69053	0.095298
3521.76185	0.095301
3519.83318	0.095402
3517.90450	0.095568
3515.97582	0.095633
3514.04715	0.095575
3512.11847	0.095550
3510.18980	0.095644
3508.26112	0.095748
3506.33245	0.095766
3504.40377	0.095789
3502.47509	0.095875
3500.54642	0.095899
3498.61774	0.095841
3496.68907	0.095844
3494.76039	0.095916
3492.83172	0.095935
3490.90304	0.095916
3488.97436	0.095976
3487.04569	0.096086
3485.11701	0.096115
3483.18834	0.096114
3481.25966	0.096237
3479.33099	0.096419
3477.40231	0.096490
3475.47363	0.096502
3473.54496	0.096618
3471.61628	0.096808
3469.68761	0.096936
3467.75893	0.097047
3465.83026	0.097254
3463.90158	0.097467
3461.97290	0.097598
3460.04423	0.097767
3458.11555	0.098024
3456.18688	0.098229
3454.25820	0.098309
3452.32953	0.098394
3450.40085	0.098559
3448.47217	0.098666
3446.54350	0.098681
3444.61482	0.098811
3442.68615	0.099148
3440.75747	0.099495
3438.82880	0.099693
3436.90012	0.099873
3434.97144	0.100192
3433.04277	0.100555
3431.11409	0.100843
3429.18542	0.101146
3427.25674	0.101542
3425.32807	0.101890
3423.39939	0.102110
3421.47071	0.102386
3419.54204	0.102786
3417.61336	0.103091
3415.68469	0.103240
3413.75601	0.103469
3411.82734	0.103827
3409.89866	0.104086
3407.96998	0.104200
3406.04131	0.104379
3404.11263	0.104669
3402.18396	0.104902
3400.25528	0.105048
3398.32661	0.105259
3396.39793	0.105555
3394.46925	0.105776
3392.54058	0.105925
3390.61190	0.106160
3388.68323	0.106464
3386.75455	0.106680
3384.82588	0.106824
3382.89720	0.107053
3380.96852	0.107362
3379.03985	0.107571
3377.11117	0.107641
3375.18250	0.107764
3373.25382	0.108030
3371.32515	0.108273
3369.39647	0.108428
3367.46779	0.108644
3365.53912	0.108915
3363.61044	0.109089
3361.68177	0.109212
3359.75309	0.109438
3357.82442	0.109710
3355.89574	0.109872
3353.96706	0.109968
3352.03839	0.110163
3350.10971	0.110426
3348.18104	0.110597
3346.25236	0.110734
3344.32369	0.110988
3342.39501	0.111274
3340.46633	0.111413
3338.53766	0.111489
3336.60898	0.111703
3334.68031	0.111981
3332.75163	0.112127
3330.82296	0.112229
3328.89428	0.112464
3326.96560	0.112737
3325.03693	0.112911
3323.10825	0.113072
3321.17958	0.113336
3319.25090	0.113604
3317.32223	0.113757
3315.39355	0.113912
3313.46487	0.114178
3311.53620	0.114429
3309.60752	0.114593
3307.67885	0.114805
3305.75017	0.115125
3303.82150	0.115400
3301.89282	0.115528
3299.96414	0.115641
3298.03547	0.115883
3296.10679	0.116159
3294.17812	0.116323
3292.24944	0.116475
3290.32077	0.116722
3288.39209	0.116932
3286.46341	0.117066
3284.53474	0.117303
3282.60606	0.117666
3280.67739	0.117962
3278.74871	0.118118
3276.82004	0.118297
3274.89136	0.118569
3272.96268	0.118781
3271.03401	0.118889
3269.10533	0.119055
3267.17666	0.119320
3265.24798	0.119538
3263.31931	0.119687
3261.39063	0.119910
3259.46195	0.120217
3257.53328	0.120438
3255.60460	0.120572
3253.67593	0.120792
3251.74725	0.121094
3249.81858	0.121304
3247.88990	0.121406
3245.96122	0.121614
3244.03255	0.121975
3242.10387	0.122245
3240.17520	0.122382
3238.24652	0.122590
3236.31785	0.122875
3234.38917	0.123067
3232.46049	0.123175
3230.53182	0.123381
3228.60314	0.123694
3226.67447	0.123940
3224.74579	0.124104
3222.81712	0.124341
3220.88844	0.124634
3218.95976	0.124790
3217.03109	0.124843
3215.10241	0.125037
3213.17374	0.125363
3211.24506	0.125609
3209.31639	0.125759
3207.38771	0.125967
3205.45903	0.126238
3203.53036	0.126432
3201.60168	0.126598
3199.67301	0.126904
3197.74433	0.127268
3195.81566	0.127474
3193.88698	0.127572
3191.95830	0.127804
3190.02963	0.128135
3188.10095	0.128361
3186.17228	0.128552
3184.24360	0.128865
3182.31493	0.129173
3180.38625	0.129318
3178.45757	0.129445
3176.52890	0.129727
3174.60022	0.130022
3172.67155	0.130167
3170.74287	0.130314
3168.81420	0.130634
3166.88552	0.130965
3164.95684	0.131139
3163.02817	0.131306
3161.09949	0.131591
3159.17082	0.131845
3157.24214	0.131976
3155.31347	0.132158
3153.38479	0.132487
3151.45611	0.132779
3149.52744	0.132925
3147.59876	0.133083
3145.67009	0.133346
3143.74141	0.133578
3141.81274	0.133738
3139.88406	0.133986
3137.95538	0.134360
3136.02671	0.134653
3134.09803	0.134764
3132.16936	0.134912
3130.24068	0.135215
3128.31201	0.135476
3126.38333	0.135622
3124.45465	0.135830
3122.52598	0.136152
3120.59730	0.136403
3118.66863	0.136523
3116.73995	0.136739
3114.81128	0.137105
3112.88260	0.137347
3110.95392	0.137432
3109.02525	0.137634
3107.09657	0.137984
3105.16790	0.138238
3103.23922	0.138349
3101.31055	0.138532
3099.38187	0.138856
3097.45319	0.139139
3095.52452	0.139324
3093.59584	0.139564
3091.66717	0.139868
3089.73849	0.140062
3087.80982	0.140166
3085.88114	0.140399
3083.95246	0.140753
3082.02379	0.141002
3080.09511	0.141139
3078.16644	0.141373
3076.23776	0.141704
3074.30909	0.141925
3072.38041	0.142032
3070.45173	0.142240
3068.52306	0.142555
3066.59438	0.142754
3064.66571	0.142860
3062.73703	0.143120
3060.80836	0.143513
3058.87968	0.143787
3056.95100	0.143956
3055.02233	0.144219
3053.09365	0.144525
3051.16498	0.144681
3049.23630	0.144776
3047.30763	0.145025
3045.37895	0.145340
3043.45027	0.145533
3041.52160	0.145680
3039.59292	0.145949
3037.66425	0.146259
3035.73557	0.146428
3033.80690	0.146536
3031.87822	0.146786
3029.94954	0.147114
3028.02087	0.147336
3026.09219	0.147498
3024.16352	0.147766
3022.23484	0.148067
3020.30617	0.148216
3018.37749	0.148351
3016.44881	0.148681
3014.52014	0.149030
3012.59146	0.149164
3010.66279	0.149242
3008.73411	0.149489
3006.80544	0.149766
3004.87676	0.149898
3002.94808	0.150040
3001.01941	0.150338
2999.09073	0.150627
2997.16206	0.150758
2995.23338	0.150899
2993.30471	0.151204
2991.37603	0.151476
2989.44735	0.151515
2987.51868	0.151497
2985.59000	0.151609
2983.66133	0.151705
2981.73265	0.151663
2979.80398	0.151631
2977.87530	0.151666
2975.94662	0.151571
2974.01795	0.151278
2972.08927	0.150990
2970.16060	0.150789
2968.23192	0.150536
2966.30325	0.150238
2964.37457	0.150148
2962.44589	0.150357
2960.51722	0.150685
2958.58854	0.151041
2956.65987	0.151536
2954.73119	0.152175
2952.80252	0.152752
2950.87384	0.153199
2948.94516	0.153686
2947.01649	0.154204
2945.08781	0.154514
2943.15914	0.154588
2941.23046	0.154696
2939.30179	0.154879
2937.37311	0.154870
2935.44443	0.154682
2933.51576	0.154606
2931.58708	0.154641
2929.65841	0.154560
2927.72973	0.154385
2925.80106	0.154328
2923.87238	0.154379
2921.94370	0.154341
2920.01503	0.154310
2918.08635	0.154588
2916.15768	0.155176
2914.22900	0.155881
2912.30033	0.156645
2910.37165	0.157461
2908.44297	0.158195
2906.51430	0.158688
2904.58562	0.159034
2902.65695	0.159450
2900.72827	0.159913
2898.79960	0.160268
2896.87092	0.160585
2894.94224	0.161045
2893.01357	0.161558
2891.08489	0.161910
2889.15622	0.162160
2887.22754	0.162503
2885.29887	0.162897
2883.37019	0.163154
2881.44151	0.163323
2879.51284	0.163621
2877.58416	0.163980
2875.65549	0.164171
2873.72681	0.164279
2871.79814	0.164513
2869.86946	0.164782
2867.94078	0.164914
2866.01211	0.165015
2864.08343	0.165244
2862.15476	0.165435
2860.22608	0.165378
2858.29741	0.165248
2856.36873	0.165273
2854.44005	0.165265
2852.51138	0.165079
2850.58270	0.165138
2848.65403	0.165802
2846.72535	0.166783
2844.79668	0.167623
2842.86800	0.168280
2840.93932	0.168941
2839.01065	0.169510
2837.08197	0.169853
2835.15330	0.170193
2833.22462	0.170658
2831.29595	0.171018
2829.36727	0.171193
2827.43859	0.171451
2825.50992	0.171889
2823.58124	0.172251
2821.65257	0.172428
2819.72389	0.172627
2817.79522	0.172949
2815.86654	0.173223
2813.93786	0.173404
2812.00919	0.173698
2810.08051	0.174109
2808.15184	0.174404
2806.22316	0.174565
2804.29449	0.174786
2802.36581	0.175124
2800.43713	0.175421
2798.50846	0.175623
2796.57978	0.175897
2794.65111	0.176274
2792.72243	0.176549
2790.79376	0.176701
2788.86508	0.176981
2786.93640	0.177416
2785.00773	0.177721
2783.07905	0.177872
2781.15038	0.178123
2779.22170	0.178480
2777.29303	0.178719
2775.36435	0.178862
2773.43567	0.179140
2771.50700	0.179502
2769.57832	0.179710
2767.64965	0.179845
2765.72097	0.180156
2763.79230	0.180560
2761.86362	0.180800
2759.93494	0.180937
2758.00627	0.181193
2756.07759	0.181518
2754.14892	0.181736
2752.22024	0.181895
2750.29157	0.182172
2748.36289	0.182527
2746.43421	0.182765
2744.50554	0.182933
2742.57686	0.183238
2740.64819	0.183608
2738.71951	0.183819
2736.79084	0.183960
2734.86216	0.184235
2732.93348	0.184539
2731.00481	0.184694
2729.07613	0.184831
2727.14746	0.185139
2725.21878	0.185475
2723.29011	0.185655
2721.36143	0.185834
2719.43275	0.186184
2717.50408	0.186522
2715.57540	0.186687
2713.64673	0.186877
2711.71805	0.187236
2709.78938	0.187547
2707.86070	0.187650
2705.93202	0.187765
2704.00335	0.188083
2702.07467	0.188429
2700.14600	0.188630
2698.21732	0.188819
2696.28865	0.189121
2694.35997	0.189399
2692.43129	0.189529
2690.50262	0.189659
2688.57394	0.189968
2686.64527	0.190321
2684.71659	0.190522
2682.78792	0.190693
2680.85924	0.190982
2678.93056	0.191248
2677.00189	0.191400
2675.07321	0.191640
2673.14454	0.192053
2671.21586	0.192372
2669.28719	0.192466
2667.35851	0.192600
2665.42983	0.192920
2663.50116	0.193192
2661.57248	0.193334
2659.64381	0.193588
2657.71513	0.194000
2655.78646	0.194300
2653.85778	0.194410
2651.92910	0.194596
2650.00043	0.194965
2648.07175	0.195287
2646.14308	0.195465
2644.21440	0.195694
2642.28573	0.196040
2640.35705	0.196284
2638.42837	0.196392
2636.49970	0.196638
2634.57102	0.197064
2632.64235	0.197402
2630.71367	0.197602
2628.78500	0.197889
2626.85632	0.198281
2624.92764	0.198535
2622.99897	0.198637
2621.07029	0.198868
2619.14162	0.199271
2617.21294	0.199575
2615.28427	0.199736
2613.35559	0.199983
2611.42691	0.200355
2609.49824	0.200658
2607.56956	0.200871
2605.64089	0.201179
2603.71221	0.201552
2601.78354	0.201775
2599.85486	0.201913
2597.92618	0.202214
2595.99751	0.202608
2594.06883	0.202853
2592.14016	0.203015
2590.21148	0.203290
2588.28281	0.203601
2586.35413	0.203791
2584.42545	0.203981
2582.49678	0.204341
2580.56810	0.204716
2578.63943	0.204901
2576.71075	0.205034
2574.78208	0.205334
2572.85340	0.205689
2570.92472	0.205877
2568.99605	0.206030
2567.06737	0.206368
2565.13870	0.206742
2563.21002	0.206956
2561.28135	0.207134
2559.35267	0.207430
2557.42399	0.207730
2555.49532	0.207892
2553.56664	0.208062
2551.63797	0.208394
2549.70929	0.208700
2547.78062	0.208846
2545.85194	0.209059
2543.92326	0.209460
2541.99459	0.209805
2540.06591	0.209942
2538.13724	0.210117
2536.20856	0.210493
2534.27989	0.210814
2532.35121	0.210936
2530.42253	0.211108
2528.49386	0.211466
2526.56518	0.211780
2524.63651	0.211920
2522.70783	0.212126
2520.77916	0.212517
2518.85048	0.212855
2516.92181	0.213019
2514.99313	0.213221
2513.06445	0.213559
2511.13578	0.213862
2509.20710	0.214100
2507.27843	0.214451
2505.34975	0.214879
2503.42108	0.215141
2501.49240	0.215250
2499.56372	0.215490
2497.63505	0.215916
2495.70637	0.216265
2493.77770	0.216459
2491.84902	0.216717
2489.92035	0.217081
2487.99167	0.217359
2486.06299	0.217563
2484.13432	0.217908
2482.20564	0.218347
2480.27697	0.218602
2478.34829	0.218718
2476.41962	0.219014
2474.49094	0.219463
2472.56226	0.219738
2470.63359	0.219844
2468.70491	0.220094
2466.77624	0.220531
2464.84756	0.220893
2462.91889	0.221103
2460.99021	0.221362
2459.06153	0.221718
2457.13286	0.221986
2455.20418	0.222163
2453.27551	0.222465
2451.34683	0.222873
2449.41816	0.223136
2447.48948	0.223289
2445.56080	0.223579
2443.63213	0.223915
2441.70345	0.224089
2439.77478	0.224242
2437.84610	0.224574
2435.91743	0.224974
2433.98875	0.225262
2432.06007	0.225496
2430.13140	0.225817
2428.20272	0.226153
2426.27405	0.226361
2424.34537	0.226531
2422.41670	0.226850
2420.48802	0.227246
2418.55934	0.227508
2416.63067	0.227697
2414.70199	0.228020
2412.77332	0.228385
2410.84464	0.228580
2408.91597	0.228714
2406.98729	0.229008
2405.05861	0.229377
2403.12994	0.229638
2401.20126	0.229865
2399.27259	0.230193
2397.34391	0.230514
2395.41524	0.230691
2393.48656	0.230867
2391.55788	0.231217
2389.62921	0.231583
2387.70053	0.231789
2385.77186	0.231969
2383.84318	0.232226
2381.91451	0.232405
2379.98583	0.232414
2378.05715	0.232380
2376.12848	0.232408
2374.19980	0.232421
2372.27113	0.232371
2370.34245	0.232407
2368.41378	0.232618
2366.48510	0.232824
2364.55642	0.232901
2362.62775	0.233029
2360.69907	0.233357
2358.77040	0.233756
2356.84172	0.234071
2354.91305	0.234421
2352.98437	0.234984
2351.05569	0.235597
2349.12702	0.235926
2347.19834	0.236004
2345.26967	0.236115
2343.34099	0.236281
2341.41232	0.236421
2339.48364	0.236649
2337.55496	0.236998
2335.62629	0.237281
2333.69761	0.237433
2331.76894	0.237644
2329.84026	0.238027
2327.91159	0.238402
2325.98291	0.238658
2324.05423	0.238964
2322.12556	0.239387
2320.19688	0.239758
2318.26821	0.240083
2316.33953	0.240549
2314.41086	0.241091
2312.48218	0.241478
2310.55350	0.241748
2308.62483	0.242092
2306.69615	0.242521
2304.76748	0.242888
2302.83880	0.243197
2300.91013	0.243577
2298.98145	0.243975
2297.05277	0.244248
2295.12410	0.244457
2293.19542	0.244779
2291.26675	0.245164
2289.33807	0.245396
2287.40940	0.245534
2285.48072	0.245833
2283.55204	0.246255
2281.62337	0.246559
2279.69469	0.246762
2277.76602	0.247043
2275.83734	0.247360
2273.90867	0.247566
2271.97999	0.247708
2270.05131	0.247953
2268.12264	0.248291
2266.19396	0.248564
2264.26529	0.248787
2262.33661	0.249067
2260.40794	0.249377
2258.47926	0.249639
2256.55058	0.249863
2254.62191	0.250139
2252.69323	0.250447
2250.76456	0.250679
2248.83588	0.250916
2246.90721	0.251283
2244.97853	0.251660
2243.04985	0.251888
2241.12118	0.252072
2239.19250	0.252382
2237.26383	0.252725
2235.33515	0.252917
2233.40648	0.253079
2231.47780	0.253410
2229.54912	0.253786
2227.62045	0.254011
2225.69177	0.254170
2223.76310	0.254400
2221.83442	0.254642
2219.90575	0.254824
2217.97707	0.255039
2216.04839	0.255344
2214.11972	0.255623
2212.19104	0.255805
2210.26237	0.256028
2208.33369	0.256382
2206.40502	0.256718
2204.47634	0.256926
2202.54766	0.257128
2200.61899	0.257400
2198.69031	0.257661
2196.76164	0.257896
2194.83296	0.258167
2192.90429	0.258494
2190.97561	0.258780
2189.04693	0.258948
2187.11826	0.259124
2185.18958	0.259412
2183.26091	0.259697
2181.33223	0.259874
2179.40356	0.260046
2177.47488	0.260352
2175.54620	0.260695
2173.61753	0.260913
2171.68885	0.261078
2169.76018	0.261331
2167.83150	0.261619
2165.90283	0.261849
2163.97415	0.262107
2162.04547	0.262457
2160.11680	0.262766
2158.18812	0.262959
2156.25945	0.263192
2154.33077	0.263535
2152.40210	0.263862
2150.47342	0.264132
2148.54474	0.264421
2146.61607	0.264714
2144.68739	0.264926
2142.75872	0.265091
2140.83004	0.265350
2138.90137	0.265703
2136.97269	0.265988
2135.04401	0.266185
2133.11534	0.266441
2131.18666	0.266770
2129.25799	0.267020
2127.32931	0.267204
2125.40064	0.267521
2123.47196	0.267920
2121.54328	0.268151
2119.61461	0.268287
2117.68593	0.268526
2115.75726	0.268819
2113.82858	0.269080
2111.89991	0.269336
2109.97123	0.269606
2108.04255	0.269877
2106.11388	0.270136
2104.18520	0.270400
2102.25653	0.270696
2100.32785	0.270982
2098.39918	0.271202
2096.47050	0.271396
2094.54182	0.271659
2092.61315	0.271956
2090.68447	0.272161
2088.75580	0.272351
2086.82712	0.272660
2084.89845	0.273011
2082.96977	0.273289
2081.04109	0.273506
2079.11242	0.273737
2077.18374	0.273997
2075.25507	0.274244
2073.32639	0.274473
2071.39772	0.274743
2069.46904	0.275050
2067.54036	0.275290
2065.61169	0.275496
2063.68301	0.275776
2061.75434	0.276021
2059.82566	0.276147
2057.89699	0.276316
2055.96831	0.276645
2054.03963	0.277018
2052.11096	0.277303
2050.18228	0.277542
2048.25361	0.277810
2046.32493	0.278032
2044.39626	0.278171
2042.46758	0.278358
2040.53890	0.278664
2038.61023	0.278974
2036.68155	0.279192
2034.75288	0.279406
2032.82420	0.279699
2030.89553	0.279977
2028.96685	0.280173
2027.03817	0.280399
2025.10950	0.280728
2023.18082	0.281039
2021.25215	0.281244
2019.32347	0.281431
2017.39480	0.281709
2015.46612	0.282048
2013.53744	0.282305
2011.60877	0.282482
2009.68009	0.282733
2007.75142	0.283056
2005.82274	0.283313
2003.89407	0.283517
2001.96539	0.283770
2000.03671	0.284032
1998.10804	0.284227
1996.17936	0.284445
1994.25069	0.284711
1992.32201	0.284902
1990.39334	0.285058
1988.46466	0.285339
1986.53598	0.285738
1984.60731	0.286034
1982.67863	0.286142
1980.74996	0.286279
1978.82128	0.286520
1976.89261	0.286714
1974.96393	0.286874
1973.03525	0.287135
1971.10658	0.287415
1969.17790	0.287539
1967.24923	0.287642
1965.32055	0.287931
1963.39188	0.288279
1961.46320	0.288489
1959.53452	0.288624
1957.60585	0.288846
1955.67717	0.289164
1953.74850	0.289462
1951.81982	0.289706
1949.89115	0.289957
1947.96247	0.290190
1946.03379	0.290320
1944.10512	0.290394
1942.17644	0.290599
1940.24777	0.290973
1938.31909	0.291325
1936.39042	0.291585
1934.46174	0.291842
1932.53306	0.292077
1930.60439	0.292216
1928.67571	0.292370
1926.74704	0.292678
1924.81836	0.292988
1922.88969	0.293111
1920.96101	0.293035
1919.03233	0.292985
1917.10366	0.293357
1915.17498	0.293990
1913.24631	0.294394
1911.31763	0.294623
1909.38896	0.294878
1907.46028	0.295133
1905.53160	0.295379
1903.60293	0.295654
1901.67425	0.295920
1899.74558	0.296080
1897.81690	0.296141
1895.88823	0.296286
1893.95955	0.296580
1892.03087	0.296818
1890.10220	0.296998
1888.17352	0.297332
1886.24485	0.297718
1884.31617	0.297979
1882.38750	0.298206
1880.45882	0.298491
1878.53014	0.298796
1876.60147	0.299036
1874.67279	0.299214
1872.74412	0.299269
1870.81544	0.299075
1868.88677	0.299006
1866.95809	0.299497
1865.02941	0.300192
1863.10074	0.300653
1861.17206	0.300921
1859.24339	0.301159
1857.31471	0.301471
1855.38604	0.301775
1853.45736	0.301992
1851.52868	0.302238
1849.60001	0.302465
1847.67133	0.302453
1845.74266	0.302306
1843.81398	0.302480
1841.88531	0.303079
1839.95663	0.303666
1838.02795	0.303963
1836.09928	0.304171
1834.17060	0.304397
1832.24193	0.304429
1830.31325	0.304412
1828.38458	0.304711
1826.45590	0.305120
1824.52722	0.305393
1822.59855	0.305677
1820.66987	0.306028
1818.74120	0.306379
1816.81252	0.306666
1814.88385	0.306826
1812.95517	0.306882
1811.02649	0.306955
1809.09782	0.307107
1807.16914	0.307313
1805.24047	0.307545
1803.31179	0.307652
1801.38312	0.307598
1799.45444	0.307663
1797.52576	0.307925
1795.59709	0.308003
1793.66841	0.307800
1791.73974	0.307967
1789.81106	0.308659
1787.88239	0.309072
1785.95371	0.308994
1784.02503	0.309026
1782.09636	0.309378
1780.16768	0.309843
1778.23901	0.310208
1776.31033	0.310215
1774.38166	0.309914
1772.45298	0.309803
1770.52430	0.310094
1768.59563	0.310507
1766.66695	0.310894
1764.73828	0.311089
1762.80960	0.310979
1760.88093	0.311010
1758.95225	0.311309
1757.02357	0.311549
1755.09490	0.311452
1753.16622	0.310765
1751.23755	0.310077
1749.30887	0.310168
1747.38020	0.310612
1745.45152	0.310767
1743.52284	0.310607
1741.59417	0.310359
1739.66549	0.310421
1737.73682	0.310708
1735.80814	0.310657
1733.87947	0.310610
1731.95079	0.311093
1730.02211	0.311708
1728.09344	0.312175
1726.16476	0.312509
1724.23609	0.312709
1722.30741	0.312786
1720.37874	0.312531
1718.45006	0.312141
1716.52138	0.312259
1714.59271	0.312902
1712.66403	0.313562
1710.73536	0.314002
1708.80668	0.314136
1706.87801	0.314045
1704.94933	0.313912
1703.02065	0.313451
1701.09198	0.312842
1699.16330	0.312989
1697.23463	0.313750
1695.30595	0.314421
1693.37728	0.314815
1691.44860	0.314836
1689.51992	0.314772
1687.59125	0.314694
1685.66257	0.314255
1683.73390	0.313978
1681.80522	0.314402
1679.87655	0.314893
1677.94787	0.314658
1676.01919	0.314120
1674.09052	0.314121
1672.16184	0.314383
1670.23317	0.314580
1668.30449	0.315060
1666.37582	0.315521
1664.44714	0.315412
1662.51846	0.315252
1660.58979	0.315574
1658.66111	0.315880
1656.73244	0.315411
1654.80376	0.314195
1652.87509	0.313574
1650.94641	0.314144
1649.01773	0.314638
1647.08906	0.314828
1645.16038	0.315491
1643.23171	0.316242
1641.30303	0.316472
1639.37436	0.316188
1637.44568	0.315752
1635.51700	0.315778
1633.58833	0.316351
1631.65965	0.316783
1629.73098	0.316738
1627.80230	0.316535
1625.87363	0.316226
1623.94495	0.315608
1622.01627	0.315023
1620.08760	0.314837
1618.15892	0.315022
1616.23025	0.315848
1614.30157	0.317186
1612.37290	0.318201
1610.44422	0.318676
1608.51554	0.319012
1606.58687	0.319414
1604.65819	0.319846
1602.72952	0.320290
1600.80084	0.320738
1598.87217	0.321059
1596.94349	0.321220
1595.01481	0.321371
1593.08614	0.321628
1591.15746	0.321943
1589.22879	0.322226
1587.30011	0.322485
1585.37144	0.322748
1583.44276	0.323032
1581.51408	0.323263
1579.58541	0.323098
1577.65673	0.322541
1575.72806	0.322544
1573.79938	0.323332
1571.87071	0.323800
1569.94203	0.323844
1568.01335	0.324138
1566.08468	0.324486
1564.15600	0.324465
1562.22733	0.323809
1560.29865	0.322883
1558.36998	0.322904
1556.44130	0.324035
1554.51262	0.325151
1552.58395	0.325682
1550.65527	0.325866
1548.72660	0.325880
1546.79792	0.325553
1544.86925	0.324950
1542.94057	0.324541
1541.01189	0.324709
1539.08322	0.325514
1537.15454	0.326267
1535.22587	0.326296
1533.29719	0.326317
1531.36852	0.326971
1529.43984	0.327531
1527.51116	0.327519
1525.58249	0.327207
1523.65381	0.326758
1521.72514	0.326633
1519.79646	0.327099
1517.86779	0.327505
1515.93911	0.327643
1514.01043	0.327921
1512.08176	0.328099
1510.15308	0.327517
1508.22441	0.326586
1506.29573	0.326811
1504.36706	0.328208
1502.43838	0.329102
1500.50970	0.328925
1498.58103	0.328383
1496.65235	0.328212
1494.72368	0.328574
1492.79500	0.328791
1490.86633	0.328511
1488.93765	0.328237
1487.00897	0.328326
1485.08030	0.328563
1483.15162	0.328592
1481.22295	0.328320
1479.29427	0.327775
1477.36560	0.326956
1475.43692	0.326015
1473.50824	0.325268
1471.57957	0.324977
1469.65089	0.324955
1467.72222	0.324638
1465.79354	0.324088
1463.86487	0.323938
1461.93619	0.323887
1460.00751	0.323020
1458.07884	0.321822
1456.15016	0.321736
1454.22149	0.322692
1452.29281	0.323434
1450.36414	0.323556
1448.43546	0.323508
1446.50678	0.323717
1444.57811	0.324156
1442.64943	0.324533
1440.72076	0.324670
1438.79208	0.324520
1436.86341	0.324454
1434.93473	0.324850
1433.00605	0.325372
1431.07738	0.325696
1429.14870	0.325991
1427.22003	0.326173
1425.29135	0.326084
1423.36268	0.325814
1421.43400	0.325166
1419.50532	0.324541
1417.57665	0.324853
1415.64797	0.325667
1413.71930	0.326082
1411.79062	0.326187
1409.86195	0.326302
1407.93327	0.326338
1406.00459	0.326262
1404.07592	0.326329
1402.14724	0.326503
1400.21857	0.326540
1398.28989	0.326430
1396.36122	0.326306
1394.43254	0.326415
1392.50386	0.326758
1390.57519	0.326823
1388.64651	0.326330
1386.71784	0.325734
1384.78916	0.325533
1382.86049	0.325681
1380.93181	0.325863
1379.00313	0.325881
1377.07446	0.325703
1375.14578	0.325483
1373.21711	0.325574
1371.28843	0.325941
1369.35976	0.326163
1367.43108	0.326150
1365.50240	0.325881
1363.57373	0.325506
1361.64505	0.325526
1359.71638	0.325892
1357.78770	0.326143
1355.85903	0.326276
1353.93035	0.326514
1352.00167	0.326857
1350.07300	0.327208
1348.14432	0.327484
1346.21565	0.327650
1344.28697	0.327723
1342.35830	0.327616
1340.42962	0.327383
1338.50094	0.327316
1336.57227	0.327439
1334.64359	0.327519
1332.71492	0.327466
1330.78624	0.327316
1328.85757	0.327124
1326.92889	0.326913
1325.00021	0.326622
1323.07154	0.326234
1321.14286	0.325826
1319.21419	0.325494
1317.28551	0.325276
1315.35684	0.325054
1313.42816	0.324729
1311.49948	0.324371
1309.57081	0.324034
1307.64213	0.323667
1305.71346	0.323244
1303.78478	0.322849
1301.85611	0.322512
1299.92743	0.322162
1297.99875	0.321790
1296.07008	0.321432
1294.14140	0.321062
1292.21273	0.320625
1290.28405	0.320162
1288.35538	0.319734
1286.42670	0.319319
1284.49802	0.318825
1282.56935	0.318166
1280.64067	0.317359
1278.71200	0.316393
1276.78332	0.315108
1274.85465	0.313346
1272.92597	0.311199
1270.99729	0.308816
1269.06862	0.306194
1267.13994	0.303451
1265.21127	0.300863
1263.28259	0.298745
1261.35392	0.297446
1259.42524	0.297189
1257.49656	0.297826
1255.56789	0.298811
1253.63921	0.299736
1251.71054	0.300670
1249.78186	0.301721
1247.85319	0.302677
1245.92451	0.303248
1243.99583	0.303328
1242.06716	0.302959
1240.13848	0.302306
1238.20981	0.301534
1236.28113	0.300688
1234.35246	0.299749
1232.42378	0.298742
1230.49510	0.297744
1228.56643	0.296758
1226.63775	0.295768
1224.70908	0.294844
1222.78040	0.293994
1220.85173	0.293144
1218.92305	0.292274
1216.99437	0.291406
1215.06570	0.290513
1213.13702	0.289526
1211.20835	0.288449
1209.27967	0.287395
1207.35100	0.286448
1205.42232	0.285521
1203.49364	0.284473
1201.56497	0.283341
1199.63629	0.282282
1197.70762	0.281268
1195.77894	0.280130
1193.85027	0.278880
1191.92159	0.277635
1189.99291	0.276411
1188.06424	0.275173
1186.13556	0.273872
1184.20689	0.272429
1182.27821	0.270890
1180.34954	0.269404
1178.42086	0.267972
1176.49218	0.266473
1174.56351	0.264880
1172.63483	0.263273
1170.70616	0.261687
1168.77748	0.260053
1166.84881	0.258355
1164.92013	0.256740
1162.99145	0.255240
1161.06278	0.253705
1159.13410	0.252130
1157.20543	0.250602
1155.27675	0.249070
1153.34808	0.247480
1151.41940	0.245877
1149.49072	0.244312
1147.56205	0.242802
1145.63337	0.241309
1143.70470	0.239722
1141.77602	0.237991
1139.84735	0.236154
1137.91867	0.234209
1135.98999	0.232059
1134.06132	0.229610
1132.13264	0.226847
1130.20397	0.223766
1128.27529	0.220354
1126.34662	0.216701
1124.41794	0.212913
1122.48926	0.209019
1120.56059	0.205107
1118.63191	0.201327
1116.70324	0.197830
1114.77456	0.194758
1112.84589	0.192176
1110.91721	0.190038
1108.98853	0.188300
1107.05986	0.187011
1105.13118	0.186206
1103.20251	0.185850
1101.27383	0.185929
1099.34516	0.186383
1097.41648	0.187081
1095.48780	0.187947
1093.55913	0.188923
1091.63045	0.189911
1089.70178	0.190860
1087.77310	0.191714
1085.84443	0.192404
1083.91575	0.192925
1081.98707	0.193284
1080.05840	0.193515
1078.12972	0.193646
1076.20105	0.193661
1074.27237	0.193580
1072.34370	0.193495
1070.41502	0.193470
1068.48634	0.193444
1066.55767	0.193356
1064.62899	0.193259
1062.70032	0.193256
1060.77164	0.193394
1058.84297	0.193623
1056.91429	0.193866
1054.98561	0.194049
1053.05694	0.194070
1051.12826	0.194004
1049.19959	0.194134
1047.27091	0.194516
1045.34224	0.194893
1043.41356	0.195141
1041.48488	0.195360
1039.55621	0.195637
1037.62753	0.195974
1035.69886	0.196350
1033.77018	0.196762
1031.84151	0.197278
1029.91283	0.197929
1027.98415	0.198614
1026.05548	0.199337
1024.12680	0.200278
1022.19813	0.201526
1020.26945	0.202981
1018.34078	0.204544
1016.41210	0.206248
1014.48342	0.208139
1012.55475	0.210177
1010.62607	0.212272
1008.69740	0.214452
1006.76872	0.216720
1004.84005	0.218819
1002.91137	0.220614
1000.98269	0.222248
999.05402	0.223757
997.12534	0.225101
995.19667	0.226297
993.26799	0.227337
991.33932	0.228219
989.41064	0.228970
987.48196	0.229641
985.55329	0.230291
983.62461	0.230916
981.69594	0.231427
979.76726	0.231741
977.83859	0.231909
975.90991	0.232041
973.98123	0.232151
972.05256	0.232125
970.12388	0.231959
968.19521	0.231857
966.26653	0.231813
964.33786	0.231646
962.40918	0.231424
960.48050	0.231257
958.55183	0.231075
956.62315	0.230838
954.69448	0.230589
952.76580	0.230321
950.83713	0.229993
948.90845	0.229593
946.97977	0.229150
945.05110	0.228741
943.12242	0.228353
941.19375	0.227790
939.26507	0.226958
937.33640	0.225966
935.40772	0.224890
933.47904	0.223871
931.55037	0.223034
929.62169	0.222172
927.69302	0.221080
925.76434	0.219851
923.83567	0.218613
921.90699	0.217410
919.97831	0.216229
918.04964	0.214989
916.12096	0.213631
914.19229	0.212222
912.26361	0.210811
910.33494	0.209355
908.40626	0.207941
906.47758	0.206703
904.54891	0.205559
902.62023	0.204396
900.69156	0.203281
898.76288	0.202263
896.83421	0.201270
894.90553	0.200361
892.97685	0.199564
891.04818	0.198698
889.11950	0.197806
887.19083	0.197049
885.26215	0.196339
883.33348	0.195584
881.40480	0.194854
879.47612	0.194181
877.54745	0.193506
875.61877	0.192803
873.69010	0.192097
871.76142	0.191393
869.83275	0.190709
867.90407	0.190129
865.97539	0.189624
864.04672	0.189071
862.11804	0.188573
860.18937	0.188263
858.26069	0.187944
856.33202	0.187359
854.40334	0.186577
852.47466	0.185768
850.54599	0.184855
848.61731	0.183773
846.68864	0.182690
844.75996	0.181793
842.83129	0.181163
840.90261	0.180799
838.97394	0.180668
837.04526	0.180604
835.11658	0.180382
833.18791	0.179884
831.25923	0.179062
829.33056	0.177901
827.40188	0.176455
825.47321	0.174960
823.54453	0.173619
821.61585	0.172443
819.68718	0.171451
817.75850	0.170553
815.82983	0.169605
813.90115	0.168683
811.97248	0.167906
810.04380	0.167167
808.11512	0.166310
806.18645	0.165404
804.25777	0.164599
802.32910	0.163916
800.40042	0.163240
798.47175	0.162467
796.54307	0.161699
794.61439	0.161233
792.68572	0.161238
790.75704	0.161526
788.82837	0.161864
786.89969	0.162207
784.97102	0.162540
783.04234	0.162816
781.11366	0.162967
779.18499	0.163019
777.25631	0.163077
775.32764	0.163085
773.39896	0.162910
771.47029	0.162625
769.54161	0.162357
767.61293	0.162030
765.68426	0.161631
763.75558	0.161249
761.82691	0.160750
759.89823	0.160007
757.96956	0.159124
756.04088	0.158212
754.11220	0.157406
752.18353	0.156817
750.25485	0.156301
748.32618	0.155654
746.39750	0.154827
744.46883	0.153831
742.54015	0.152712
740.61147	0.151611
738.68280	0.150766
736.75412	0.150443
734.82545	0.150572
732.89677	0.150748
730.96810	0.150892
729.03942	0.151142
727.11074	0.151440
725.18207	0.151744
723.25339	0.152073
721.32472	0.152442
719.39604	0.152851
717.46737	0.153357
715.53869	0.154055
713.61001	0.154883
711.68134	0.155675
709.75266	0.156250
707.82399	0.156482
705.89531	0.156402
703.96664	0.156223
702.03796	0.156030
700.10928	0.155595
698.18061	0.154798
696.25193	0.153849
694.32326	0.152981
692.39458	0.152243
690.46591	0.151658
688.53723	0.151172
686.60855	0.150583
684.67988	0.149817
682.75120	0.148992
680.82253	0.148219
678.89385	0.147468
676.96518	0.146635
675.03650	0.145723
673.10782	0.144722
671.17915	0.143394
669.25047	0.141801
667.32180	0.140575
665.39312	0.139727
663.46445	0.138705
661.53577	0.137514
659.60709	0.136351
657.67842	0.135212
655.74974	0.134061
653.82107	0.132862
651.89239	0.131563
649.96372	0.130208
648.03504	0.128958
646.10636	0.127762
644.17769	0.126310
642.24901	0.124635
640.32034	0.123128
638.39166	0.121749
636.46299	0.120165
634.53431	0.118180
632.60563	0.115530
630.67696	0.111487
628.74828	0.105250
626.81961	0.097436
624.89093	0.089752
622.96226	0.083727
621.03358	0.080135
619.10490	0.078264
617.17623	0.076962
615.24755	0.075529
613.31888	0.073570
611.39020	0.071679
609.46153	0.070782
607.53285	0.070887
605.60417	0.071489
603.67550	0.072437
601.74682	0.073881
599.81815	0.075680
597.88947	0.077357
595.96080	0.078522
594.03212	0.079220
592.10344	0.079684
590.17477	0.079897
588.24609	0.079758
586.31742	0.079402
584.38874	0.079048
582.46007	0.078671
580.53139	0.078102
578.60271	0.077305
576.67404	0.076491
574.74536	0.075718
572.81669	0.074696
570.88801	0.073405
568.95934	0.072235
567.03066	0.071434
565.10198	0.070856
563.17331	0.070299
561.24463	0.069793
559.31596	0.069327
557.38728	0.068830
555.45861	0.068281
553.52993	0.067699
551.60125	0.067185
549.67258	0.066753
547.74390	0.066408
545.81523	0.066147
543.88655	0.065834
541.95788	0.065512
540.02920	0.065309
538.10052	0.065068
536.17185	0.064618
534.24317	0.064103
532.31450	0.063695
530.38582	0.063276
528.45715	0.062723
526.52847	0.062101
524.59979	0.061423
522.67112	0.060663
520.74244	0.059879
518.81377	0.058975
516.88509	0.057873
514.95642	0.056898
513.02774	0.056248
511.09906	0.055770
509.17039	0.055391
507.24171	0.055060
505.31304	0.054627
503.38436	0.053988
501.45569	0.053245
499.52701	0.052528
497.59833	0.051687
495.66966	0.050681
493.74098	0.049751
491.81231	0.048904
489.88363	0.047983
487.95496	0.047112
486.02628	0.046357
484.09760	0.045436
482.16893	0.044264
480.24025	0.043128
478.31158	0.042225
476.38290	0.041475
474.45423	0.040697
472.52555	0.039855
470.59687	0.039080
468.66820	0.038456
466.73952	0.037984
464.81085	0.037590
462.88217	0.037180
460.95350	0.036862
459.02482	0.036727
457.09614	0.036623
455.16747	0.036500
453.23879	0.036467
451.31012	0.036525
449.38144	0.036479
447.45277	0.036182
445.52409	0.035811
443.59541	0.035506
441.66674	0.035160
439.73806	0.034706
437.80939	0.034066
435.88071	0.033219
433.95204	0.032330
432.02336	0.031389
430.09468	0.030341
428.16601	0.029318
426.23733	0.028315
424.30866	0.027279
422.37998	0.026274
420.45131	0.025347
418.52263	0.024409
416.59395	0.023315
414.66528	0.022146
412.73660	0.021067
410.80793	0.020114
408.87925	0.019253
406.95058	0.018310
405.02190	0.017189
403.09322	0.016130
401.16455	0.015307
399.23587	0.014538
397.30720	0.013650
395.37852	0.012696
393.44985	0.011765
391.52117	0.010877
389.59249	0.010102
387.66382	0.009541
385.73514	0.009119
383.80647	0.008555
381.87779	0.007799
379.94912	0.007142
378.02044	0.006638
376.09176	0.006074
374.16309	0.005491
372.23441	0.004942
370.30574	0.004270
368.37706	0.003615
