7496.76250	0.001954
7494.83382	0.001951
7492.90514	0.001963
7490.97647	0.001965
7489.04779	0.001954
7487.11912	0.001975
7485.19044	0.002029
7483.26177	0.002055
7481.33309	0.002036
7479.40441	0.002029
7477.47574	0.002053
7475.54706	0.002043
7473.61839	0.001989
7471.68971	0.001972
7469.76104	0.002006
7467.83236	0.002023
7465.90368	0.002009
7463.97501	0.002009
7462.04633	0.002035
7460.11766	0.002041
7458.18898	0.002026
7456.26031	0.002041
7454.33163	0.002080
7452.40295	0.002089
7450.47428	0.002077
7448.54560	0.002088
7446.61693	0.002107
7444.68825	0.002098
7442.75958	0.002087
7440.83090	0.002098
7438.90222	0.002100
7436.97355	0.002076
7435.04487	0.002068
7433.11620	0.002103
7431.18752	0.002138
7429.25885	0.002146
7427.33017	0.002157
7425.40149	0.002182
7423.47282	0.002187
7421.54414	0.002167
7419.61547	0.002161
7417.68679	0.002181
7415.75812	0.002183
7413.82944	0.002155
7411.90076	0.002148
7409.97209	0.002172
7408.04341	0.002171
7406.11474	0.002139
7404.18606	0.002134
7402.25739	0.002166
7400.32871	0.002186
7398.40003	0.002181
7396.47136	0.002190
7394.54268	0.002213
7392.61401	0.002206
7390.68533	0.002196
7388.75666	0.002233
7386.82798	0.002274
7384.89930	0.002263
7382.97063	0.002244
7381.04195	0.002273
7379.11328	0.002303
7377.18460	0.002286
7375.25593	0.002269
7373.32725	0.002286
7371.39857	0.002293
7369.46990	0.002270
7367.54122	0.002271
7365.61255	0.002317
7363.68387	0.002341
7361.75520	0.002304
7359.82652	0.002276
7357.89784	0.002308
7355.96917	0.002340
7354.04049	0.002333
7352.11182	0.002339
7350.18314	0.002382
7348.25447	0.002403
7346.32579	0.002376
7344.39711	0.002358
7342.46844	0.002381
7340.53976	0.002391
7338.61109	0.002360
7336.68241	0.002335
7334.75374	0.002339
7332.82506	0.002346
7330.89638	0.002352
7328.96771	0.002380
7327.03903	0.002415
7325.11036	0.002415
7323.18168	0.002396
7321.25301	0.002411
7319.32433	0.002441
7317.39565	0.002428
7315.46698	0.002392
7313.53830	0.002401
7311.60963	0.002434
7309.68095	0.002420
7307.75228	0.002398
7305.82360	0.002432
7303.89492	0.002470
7301.96625	0.002456
7300.03757	0.002441
7298.10890	0.002467
7296.18022	0.002479
7294.25155	0.002457
7292.32287	0.002457
7290.39419	0.002484
7288.46552	0.002495
7286.53684	0.002498
7284.60817	0.002525
7282.67949	0.002563
7280.75082	0.002566
7278.82214	0.002523
7276.89346	0.002502
7274.96479	0.002545
7273.03611	0.002587
7271.10744	0.002580
7269.17876	0.002579
7267.25009	0.002604
7265.32141	0.002594
7263.39273	0.002550
7261.46406	0.002548
7259.53538	0.002581
7257.60671	0.002583
7255.67803	0.002566
7253.74936	0.002588
7251.82068	0.002630
7249.89200	0.002625
7247.96333	0.002592
7246.03465	0.002599
7244.10598	0.002628
7242.17730	0.002617
7240.24863	0.002596
7238.31995	0.002616
7236.39127	0.002643
7234.46260	0.002634
7232.53392	0.002626
7230.60525	0.002658
7228.67657	0.002685
7226.74790	0.002677
7224.81922	0.002670
7222.89054	0.002679
7220.96187	0.002671
7219.03319	0.002650
7217.10452	0.002669
7215.17584	0.002723
7213.24717	0.002745
7211.31849	0.002729
7209.38981	0.002734
7207.46114	0.002762
7205.53246	0.002759
7203.60379	0.002731
7201.67511	0.002739
7199.74644	0.002777
7197.81776	0.002786
7195.88908	0.002774
7193.96041	0.002788
7192.03173	0.002812
7190.10306	0.002805
7188.17438	0.002786
7186.24571	0.002807
7184.31703	0.002852
7182.38835	0.002858
7180.45968	0.002841
7178.53100	0.002854
7176.60233	0.002876
7174.67365	0.002859
7172.74498	0.002834
7170.81630	0.002856
7168.88762	0.002893
7166.95895	0.002889
7165.03027	0.002867
7163.10160	0.002880
7161.17292	0.002897
7159.24425	0.002878
7157.31557	0.002878
7155.38689	0.002926
7153.45822	0.002949
7151.52954	0.002914
7149.60087	0.002890
7147.67219	0.002909
7145.74352	0.002933
7143.81484	0.002937
7141.88616	0.002942
7139.95749	0.002956
7138.02881	0.002957
7136.10014	0.002958
7134.17146	0.002982
7132.24279	0.003012
7130.31411	0.003006
7128.38543	0.002962
7126.45676	0.002938
7124.52808	0.002968
7122.59941	0.002998
7120.67073	0.002988
7118.74206	0.002978
7116.81338	0.002995
7114.88470	0.003013
7112.95603	0.003023
7111.02735	0.003055
7109.09868	0.003086
7107.17000	0.003072
7105.24133	0.003036
7103.31265	0.003036
7101.38397	0.003060
7099.45530	0.003062
7097.52662	0.003058
7095.59795	0.003087
7093.66927	0.003115
7091.74060	0.003100
7089.81192	0.003092
7087.88324	0.003128
7085.95457	0.003156
7084.02589	0.003143
7082.09722	0.003130
7080.16854	0.003144
7078.23987	0.003147
7076.31119	0.003126
7074.38251	0.003135
7072.45384	0.003175
7070.52516	0.003185
7068.59649	0.003164
7066.66781	0.003167
7064.73914	0.003209
7062.81046	0.003242
7060.88178	0.003234
7058.95311	0.003222
7057.02443	0.003238
7055.09576	0.003244
7053.16708	0.003224
7051.23841	0.003222
7049.30973	0.003238
7047.38105	0.003232
7045.45238	0.003220
7043.52370	0.003241
7041.59503	0.003271
7039.66635	0.003256
7037.73768	0.003229
7035.80900	0.003247
7033.88032	0.003281
7031.95165	0.003287
7030.02297	0.003283
7028.09430	0.003303
7026.16562	0.003322
7024.23695	0.003308
7022.30827	0.003298
7020.37959	0.003322
7018.45092	0.003331
7016.52224	0.003304
7014.59357	0.003308
7012.66489	0.003372
7010.73622	0.003416
7008.80754	0.003387
7006.87886	0.003353
7004.95019	0.003369
7003.02151	0.003385
7001.09284	0.003356
6999.16416	0.003344
6997.23549	0.003392
6995.30681	0.003416
6993.37813	0.003377
6991.44946	0.003365
6989.52078	0.003417
6987.59211	0.003458
6985.66343	0.003458
6983.73476	0.003478
6981.80608	0.003525
6979.87740	0.003525
6977.94873	0.003480
6976.02005	0.003472
6974.09138	0.003503
6972.16270	0.003512
6970.23403	0.003499
6968.30535	0.003509
6966.37667	0.003528
6964.44800	0.003510
6962.51932	0.003483
6960.59065	0.003511
6958.66197	0.003573
6956.73330	0.003587
6954.80462	0.003567
6952.87594	0.003588
6950.94727	0.003620
6949.01859	0.003586
6947.08992	0.003539
6945.16124	0.003557
6943.23257	0.003593
6941.30389	0.003596
6939.37521	0.003603
6937.44654	0.003642
6935.51786	0.003677
6933.58919	0.003674
6931.66051	0.003661
6929.73184	0.003678
6927.80316	0.003687
6925.87448	0.003651
6923.94581	0.003627
6922.01713	0.003663
6920.08846	0.003706
6918.15978	0.003714
6916.23111	0.003726
6914.30243	0.003757
6912.37375	0.003755
6910.44508	0.003711
6908.51640	0.003693
6906.58773	0.003727
6904.65905	0.003755
6902.73038	0.003772
6900.80170	0.003810
6898.87302	0.003837
6896.94435	0.003813
6895.01567	0.003786
6893.08700	0.003806
6891.15832	0.003841
6889.22965	0.003836
6887.30097	0.003811
6885.37229	0.003819
6883.44362	0.003858
6881.51494	0.003875
6879.58627	0.003873
6877.65759	0.003897
6875.72892	0.003921
6873.80024	0.003893
6871.87156	0.003856
6869.94289	0.003877
6868.01421	0.003920
6866.08554	0.003923
6864.15686	0.003905
6862.22819	0.003928
6860.29951	0.003965
6858.37083	0.003959
6856.44216	0.003948
6854.51348	0.003986
6852.58481	0.004012
6850.65613	0.003971
6848.72746	0.003940
6846.79878	0.003978
6844.87010	0.004028
6842.94143	0.004045
6841.01275	0.004053
6839.08408	0.004076
6837.15540	0.004089
6835.22673	0.004074
6833.29805	0.004073
6831.36937	0.004107
6829.44070	0.004123
6827.51202	0.004109
6825.58335	0.004120
6823.65467	0.004152
6821.72600	0.004147
6819.79732	0.004117
6817.86864	0.004122
6815.93997	0.004155
6814.01129	0.004159
6812.08262	0.004155
6810.15394	0.004198
6808.22527	0.004250
6806.29659	0.004244
6804.36791	0.004212
6802.43924	0.004226
6800.51056	0.004273
6798.58189	0.004283
6796.65321	0.004258
6794.72454	0.004256
6792.79586	0.004277
6790.86718	0.004276
6788.93851	0.004273
6787.00983	0.004312
6785.08116	0.004349
6783.15248	0.004326
6781.22381	0.004293
6779.29513	0.004325
6777.36645	0.004373
6775.43778	0.004364
6773.50910	0.004347
6771.58043	0.004378
6769.65175	0.004408
6767.72308	0.004389
6765.79440	0.004374
6763.86572	0.004395
6761.93705	0.004409
6760.00837	0.004414
6758.07970	0.004454
6756.15102	0.004502
6754.22235	0.004503
6752.29367	0.004477
6750.36499	0.004480
6748.43632	0.004516
6746.50764	0.004516
6744.57897	0.004464
6742.65029	0.004447
6740.72162	0.004485
6738.79294	0.004501
6736.86426	0.004487
6734.93559	0.004513
6733.00691	0.004559
6731.07824	0.004545
6729.14956	0.004508
6727.22089	0.004539
6725.29221	0.004602
6723.36353	0.004607
6721.43486	0.004589
6719.50618	0.004624
6717.57751	0.004665
6715.64883	0.004643
6713.72016	0.004619
6711.79148	0.004648
6709.86280	0.004678
6707.93413	0.004665
6706.00545	0.004659
6704.07678	0.004698
6702.14810	0.004724
6700.21943	0.004696
6698.29075	0.004691
6696.36207	0.004748
6694.43340	0.004784
6692.50472	0.004765
6690.57605	0.004765
6688.64737	0.004809
6686.71870	0.004828
6684.79002	0.004791
6682.86134	0.004766
6680.93267	0.004793
6679.00399	0.004817
6677.07532	0.004805
6675.14664	0.004813
6673.21797	0.004854
6671.28929	0.004860
6669.36061	0.004833
6667.43194	0.004857
6665.50326	0.004922
6663.57459	0.004927
6661.64591	0.004887
6659.71724	0.004899
6657.78856	0.004953
6655.85988	0.004977
6653.93121	0.004968
6652.00253	0.004970
6650.07386	0.004982
6648.14518	0.004966
6646.21651	0.004943
6644.28783	0.004962
6642.35915	0.004999
6640.43048	0.005012
6638.50180	0.005017
6636.57313	0.005049
6634.64445	0.005078
6632.71578	0.005063
6630.78710	0.005051
6628.85842	0.005092
6626.92975	0.005136
6625.00107	0.005139
6623.07240	0.005147
6621.14372	0.005178
6619.21505	0.005188
6617.28637	0.005168
6615.35769	0.005162
6613.42902	0.005185
6611.50034	0.005198
6609.57167	0.005178
6607.64299	0.005180
6605.71432	0.005225
6603.78564	0.005247
6601.85696	0.005242
6599.92829	0.005266
6597.99961	0.005309
6596.07094	0.005312
6594.14226	0.005285
6592.21359	0.005305
6590.28491	0.005359
6588.35623	0.005361
6586.42756	0.005322
6584.49888	0.005334
6582.57021	0.005384
6580.64153	0.005387
6578.71286	0.005365
6576.78418	0.005405
6574.85550	0.005471
6572.92683	0.005476
6570.99815	0.005456
6569.06948	0.005486
6567.14080	0.005528
6565.21213	0.005504
6563.28345	0.005453
6561.35477	0.005457
6559.42610	0.005488
6557.49742	0.005487
6555.56875	0.005501
6553.64007	0.005571
6551.71140	0.005619
6549.78272	0.005587
6547.85404	0.005567
6545.92537	0.005628
6543.99669	0.005666
6542.06802	0.005605
6540.13934	0.005552
6538.21067	0.005596
6536.28199	0.005659
6534.35331	0.005666
6532.42464	0.005660
6530.49596	0.005688
6528.56729	0.005709
6526.63861	0.005697
6524.70994	0.005695
6522.78126	0.005723
6520.85258	0.005727
6518.92391	0.005695
6516.99523	0.005702
6515.06656	0.005764
6513.13788	0.005788
6511.20921	0.005755
6509.28053	0.005755
6507.35185	0.005798
6505.42318	0.005803
6503.49450	0.005774
6501.56583	0.005793
6499.63715	0.005851
6497.70848	0.005869
6495.77980	0.005850
6493.85112	0.005865
6491.92245	0.005915
6489.99377	0.005935
6488.06510	0.005930
6486.13642	0.005964
6484.20775	0.006008
6482.27907	0.006004
6480.35039	0.005989
6478.42172	0.006020
6476.49304	0.006062
6474.56437	0.006051
6472.63569	0.006033
6470.70702	0.006067
6468.77834	0.006091
6466.84966	0.006067
6464.92099	0.006071
6462.99231	0.006132
6461.06364	0.006170
6459.13496	0.006152
6457.20629	0.006137
6455.27761	0.006153
6453.34893	0.006164
6451.42026	0.006159
6449.49158	0.006176
6447.56291	0.006224
6445.63423	0.006251
6443.70556	0.006234
6441.77688	0.006232
6439.84820	0.006275
6437.91953	0.006304
6435.99085	0.006287
6434.06218	0.006294
6432.13350	0.006351
6430.20483	0.006374
6428.27615	0.006342
6426.34747	0.006347
6424.41880	0.006404
6422.49012	0.006413
6420.56145	0.006369
6418.63277	0.006383
6416.70410	0.006457
6414.77542	0.006485
6412.84674	0.006470
6410.91807	0.006495
6408.98939	0.006533
6407.06072	0.006511
6405.13204	0.006467
6403.20337	0.006488
6401.27469	0.006545
6399.34601	0.006547
6397.41734	0.006513
6395.48866	0.006532
6393.55999	0.006601
6391.63131	0.006638
6389.70264	0.006640
6387.77396	0.006661
6385.84528	0.006673
6383.91661	0.006647
6381.98793	0.006647
6380.05926	0.006713
6378.13058	0.006764
6376.20191	0.006735
6374.27323	0.006697
6372.34455	0.006726
6370.41588	0.006772
6368.48720	0.006778
6366.55853	0.006797
6364.62985	0.006869
6362.70118	0.006898
6360.77250	0.006837
6358.84382	0.006812
6356.91515	0.006873
6354.98647	0.006903
6353.05780	0.006872
6351.12912	0.006877
6349.20045	0.006932
6347.27177	0.006956
6345.34309	0.006943
6343.41442	0.006967
6341.48574	0.007021
6339.55707	0.007017
6337.62839	0.006970
6335.69972	0.006986
6333.77104	0.007061
6331.84236	0.007085
6329.91369	0.007053
6327.98501	0.007073
6326.05634	0.007139
6324.12766	0.007147
6322.19899	0.007116
6320.27031	0.007144
6318.34163	0.007202
6316.41296	0.007205
6314.48428	0.007185
6312.55561	0.007216
6310.62693	0.007257
6308.69826	0.007245
6306.76958	0.007232
6304.84090	0.007280
6302.91223	0.007334
6300.98355	0.007323
6299.05488	0.007295
6297.12620	0.007329
6295.19753	0.007369
6293.26885	0.007359
6291.34017	0.007358
6289.41150	0.007411
6287.48282	0.007450
6285.55415	0.007428
6283.62547	0.007419
6281.69680	0.007474
6279.76812	0.007512
6277.83944	0.007479
6275.91077	0.007452
6273.98209	0.007491
6272.05342	0.007525
6270.12474	0.007516
6268.19607	0.007529
6266.26739	0.007595
6264.33871	0.007634
6262.41004	0.007610
6260.48136	0.007618
6258.55269	0.007681
6256.62401	0.007704
6254.69534	0.007675
6252.76666	0.007692
6250.83798	0.007752
6248.90931	0.007748
6246.98063	0.007700
6245.05196	0.007721
6243.12328	0.007790
6241.19461	0.007802
6239.26593	0.007779
6237.33725	0.007812
6235.40858	0.007875
6233.47990	0.007875
6231.55123	0.007844
6229.62255	0.007864
6227.69388	0.007913
6225.76520	0.007923
6223.83652	0.007933
6221.90785	0.008004
6219.97917	0.008059
6218.05050	0.008020
6216.12182	0.007980
6214.19315	0.008025
6212.26447	0.008066
6210.33579	0.008034
6208.40712	0.008012
6206.47844	0.008065
6204.54977	0.008119
6202.62109	0.008107
6200.69242	0.008088
6198.76374	0.008134
6196.83506	0.008189
6194.90639	0.008181
6192.97771	0.008172
6191.04904	0.008228
6189.12036	0.008281
6187.19169	0.008268
6185.26301	0.008264
6183.33433	0.008317
6181.40566	0.008338
6179.47698	0.008302
6177.54831	0.008304
6175.61963	0.008367
6173.69096	0.008407
6171.76228	0.008397
6169.83360	0.008398
6167.90493	0.008435
6165.97625	0.008453
6164.04758	0.008449
6162.11890	0.008497
6160.19023	0.008577
6158.26155	0.008588
6156.33287	0.008552
6154.40420	0.008573
6152.47552	0.008628
6150.54685	0.008624
6148.61817	0.008575
6146.68950	0.008576
6144.76082	0.008625
6142.83214	0.008633
6140.90347	0.008622
6138.97479	0.008680
6137.04612	0.008764
6135.11744	0.008773
6133.18877	0.008752
6131.26009	0.008795
6129.33141	0.008853
6127.40274	0.008837
6125.47406	0.008800
6123.54539	0.008838
6121.61671	0.008901
6119.68804	0.008902
6117.75936	0.008906
6115.83068	0.008984
6113.90201	0.009036
6111.97333	0.008993
6110.04466	0.008957
6108.11598	0.008994
6106.18731	0.009024
6104.25863	0.008991
6102.32995	0.008979
6100.40128	0.009046
6098.47260	0.009104
6096.54393	0.009095
6094.61525	0.009108
6092.68658	0.009180
6090.75790	0.009210
6088.82922	0.009181
6086.90055	0.009196
6084.97187	0.009254
6083.04320	0.009256
6081.11452	0.009223
6079.18585	0.009262
6077.25717	0.009335
6075.32849	0.009335
6073.39982	0.009289
6071.47114	0.009308
6069.54247	0.009368
6067.61379	0.009364
6065.68512	0.009336
6063.75644	0.009399
6061.82776	0.009500
6059.89909	0.009515
6057.97041	0.009488
6056.04174	0.009536
6054.11306	0.009614
6052.18439	0.009605
6050.25571	0.009574
6048.32703	0.009631
6046.39836	0.009704
6044.46968	0.009691
6042.54101	0.009667
6040.61233	0.009717
6038.68366	0.009766
6036.75498	0.009743
6034.82630	0.009714
6032.89763	0.009751
6030.96895	0.009801
6029.04028	0.009796
6027.11160	0.009792
6025.18293	0.009853
6023.25425	0.009898
6021.32557	0.009865
6019.39690	0.009848
6017.46822	0.009918
6015.53955	0.009978
6013.61087	0.009960
6011.68220	0.009960
6009.75352	0.010034
6007.82484	0.010082
6005.89617	0.010063
6003.96749	0.010080
6002.03882	0.010148
6000.11014	0.010154
5998.18147	0.010108
5996.25279	0.010134
5994.32411	0.010206
5992.39544	0.010210
5990.46676	0.010178
5988.53809	0.010217
5986.60941	0.010301
5984.68074	0.010316
5982.75206	0.010275
5980.82338	0.010296
5978.89471	0.010379
5976.96603	0.010409
5975.03736	0.010373
5973.10868	0.010367
5971.18001	0.010410
5969.25133	0.010427
5967.32265	0.010434
5965.39398	0.010502
5963.46530	0.010578
5961.53663	0.010568
5959.60795	0.010529
5957.67928	0.010568
5955.75060	0.010633
5953.82192	0.010617
5951.89325	0.010580
5949.96457	0.010623
5948.03590	0.010677
5946.10722	0.010659
5944.17855	0.010651
5942.24987	0.010727
5940.32119	0.010797
5938.39252	0.010791
5936.46384	0.010780
5934.53517	0.010833
5932.60649	0.010888
5930.67782	0.010872
5928.74914	0.010861
5926.82046	0.010919
5924.89179	0.010963
5922.96311	0.010944
5921.03444	0.010945
5919.10576	0.011005
5917.17709	0.011054
5915.24841	0.011045
5913.31973	0.011048
5911.39106	0.011112
5909.46238	0.011153
5907.53371	0.011128
5905.60503	0.011132
5903.67636	0.011194
5901.74768	0.011213
5899.81900	0.011189
5897.89033	0.011235
5895.96165	0.011334
5894.03298	0.011354
5892.10430	0.011319
5890.17563	0.011358
5888.24695	0.011440
5886.31827	0.011436
5884.38960	0.011383
5882.46092	0.011417
5880.53225	0.011497
5878.60357	0.011492
5876.67490	0.011447
5874.74622	0.011490
5872.81755	0.011571
5870.88887	0.011583
5868.96019	0.011576
5867.03152	0.011638
5865.10284	0.011707
5863.17417	0.011689
5861.24549	0.011656
5859.31682	0.011712
5857.38814	0.011781
5855.45946	0.011765
5853.53079	0.011751
5851.60211	0.011839
5849.67344	0.011920
5847.74476	0.011887
5845.81609	0.011834
5843.88741	0.011859
5841.95873	0.011904
5840.03006	0.011912
5838.10138	0.011936
5836.17271	0.012001
5834.24403	0.012029
5832.31536	0.011984
5830.38668	0.011971
5828.45800	0.012056
5826.52933	0.012135
5824.60065	0.012125
5822.67198	0.012113
5820.74330	0.012170
5818.81463	0.012226
5816.88595	0.012236
5814.95727	0.012261
5813.02860	0.012324
5811.09992	0.012351
5809.17125	0.012325
5807.24257	0.012350
5805.31390	0.012446
5803.38522	0.012478
5801.45654	0.012431
5799.52787	0.012436
5797.59919	0.012499
5795.67052	0.012505
5793.74184	0.012462
5791.81317	0.012493
5789.88449	0.012594
5787.95581	0.012631
5786.02714	0.012608
5784.09846	0.012642
5782.16979	0.012721
5780.24111	0.012736
5778.31244	0.012713
5776.38376	0.012758
5774.45508	0.012825
5772.52641	0.012812
5770.59773	0.012801
5768.66906	0.012899
5766.74038	0.013001
5764.81171	0.012988
5762.88303	0.012951
5760.95435	0.012994
5759.02568	0.013034
5757.09700	0.012989
5755.16833	0.012961
5753.23965	0.013043
5751.31098	0.013130
5749.38230	0.013129
5747.45362	0.013136
5745.52495	0.013220
5743.59627	0.013285
5741.66760	0.013268
5739.73892	0.013273
5737.81025	0.013355
5735.88157	0.013402
5733.95289	0.013365
5732.02422	0.013363
5730.09554	0.013450
5728.16687	0.013501
5726.23819	0.013467
5724.30952	0.013475
5722.38084	0.013561
5720.45216	0.013596
5718.52349	0.013549
5716.59481	0.013547
5714.66614	0.013620
5712.73746	0.013655
5710.80879	0.013631
5708.88011	0.013652
5706.95143	0.013733
5705.02276	0.013753
5703.09408	0.013708
5701.16541	0.013736
5699.23673	0.013834
5697.30806	0.013857
5695.37938	0.013814
5693.45070	0.013844
5691.52203	0.013939
5689.59335	0.013968
5687.66468	0.013957
5685.73600	0.014024
5683.80733	0.014119
5681.87865	0.014120
5679.94997	0.014092
5678.02130	0.014158
5676.09262	0.014251
5674.16395	0.014237
5672.23527	0.014175
5670.30660	0.014213
5668.37792	0.014305
5666.44924	0.014330
5664.52057	0.014340
5662.59189	0.014414
5660.66322	0.014479
5658.73454	0.014468
5656.80587	0.014467
5654.87719	0.014546
5652.94851	0.014593
5651.01984	0.014536
5649.09116	0.014516
5647.16249	0.014616
5645.23381	0.014690
5643.30514	0.014657
5641.37646	0.014647
5639.44778	0.014735
5637.51911	0.014805
5635.59043	0.014797
5633.66176	0.014829
5631.73308	0.014922
5629.80441	0.014936
5627.87573	0.014873
5625.94705	0.014886
5624.01838	0.014965
5622.08970	0.014974
5620.16103	0.014928
5618.23235	0.014960
5616.30368	0.015060
5614.37500	0.015095
5612.44632	0.015060
5610.51765	0.015105
5608.58897	0.015233
5606.66030	0.015287
5604.73162	0.015263
5602.80295	0.015303
5600.87427	0.015387
5598.94559	0.015378
5597.01692	0.015314
5595.08824	0.015347
5593.15957	0.015441
5591.23089	0.015446
5589.30222	0.015413
5587.37354	0.015484
5585.44486	0.015596
5583.51619	0.015604
5581.58751	0.015570
5579.65884	0.015627
5577.73016	0.015719
5575.80149	0.015729
5573.87281	0.015713
5571.94413	0.015765
5570.01546	0.015811
5568.08678	0.015778
5566.15811	0.015761
5564.22943	0.015838
5562.30076	0.015906
5560.37208	0.015884
5558.44340	0.015878
5556.51473	0.015979
5554.58605	0.016074
5552.65738	0.016050
5550.72870	0.016011
5548.80003	0.016073
5546.87135	0.016135
5544.94267	0.016104
5543.01400	0.016108
5541.08532	0.016215
5539.15665	0.016287
5537.22797	0.016272
5535.29930	0.016299
5533.37062	0.016397
5531.44194	0.016430
5529.51327	0.016377
5527.58459	0.016387
5525.65592	0.016499
5523.72724	0.016564
5521.79857	0.016535
5519.86989	0.016552
5517.94121	0.016645
5516.01254	0.016679
5514.08386	0.016640
5512.15519	0.016669
5510.22651	0.016761
5508.29784	0.016771
5506.36916	0.016732
5504.44048	0.016794
5502.51181	0.016901
5500.58313	0.016906
5498.65446	0.016863
5496.72578	0.016914
5494.79711	0.017012
5492.86843	0.017018
5490.93975	0.016979
5489.01108	0.017035
5487.08240	0.017137
5485.15373	0.017142
5483.22505	0.017106
5481.29638	0.017167
5479.36770	0.017262
5477.43902	0.017256
5475.51035	0.017226
5473.58167	0.017311
5471.65300	0.017416
5469.72432	0.017401
5467.79565	0.017367
5465.86697	0.017434
5463.93829	0.017494
5462.00962	0.017456
5460.08094	0.017453
5458.15227	0.017573
5456.22359	0.017660
5454.29492	0.017627
5452.36624	0.017628
5450.43756	0.017736
5448.50889	0.017790
5446.58021	0.017729
5444.65154	0.017736
5442.72286	0.017871
5440.79419	0.017949
5438.86551	0.017906
5436.93683	0.017896
5435.00816	0.017985
5433.07948	0.018037
5431.15081	0.017990
5429.22213	0.017988
5427.29346	0.018093
5425.36478	0.018160
5423.43610	0.018152
5421.50743	0.018197
5419.57875	0.018289
5417.65008	0.018294
5415.72140	0.018234
5413.79273	0.018255
5411.86405	0.018351
5409.93537	0.018393
5408.00670	0.018390
5406.07802	0.018453
5404.14935	0.018567
5402.22067	0.018601
5400.29200	0.018553
5398.36332	0.018556
5396.43464	0.018609
5394.50597	0.018598
5392.57729	0.018577
5390.64862	0.018671
5388.71994	0.018808
5386.79127	0.018842
5384.86259	0.018815
5382.93391	0.018874
5381.00524	0.018971
5379.07656	0.018950
5377.14789	0.018889
5375.21921	0.018951
5373.29054	0.019062
5371.36186	0.019092
5369.43318	0.019115
5367.50451	0.019215
5365.57583	0.019285
5363.64716	0.019237
5361.71848	0.019206
5359.78981	0.019304
5357.86113	0.019395
5355.93245	0.019355
5354.00378	0.019330
5352.07510	0.019446
5350.14643	0.019541
5348.21775	0.019499
5346.28908	0.019479
5344.36040	0.019583
5342.43172	0.019670
5340.50305	0.019644
5338.57437	0.019626
5336.64570	0.019696
5334.71702	0.019731
5332.78835	0.019680
5330.85967	0.019697
5328.93099	0.019832
5327.00232	0.019908
5325.07364	0.019866
5323.14497	0.019889
5321.21629	0.020011
5319.28762	0.020037
5317.35894	0.019963
5315.43026	0.019990
5313.50159	0.020117
5311.57291	0.020149
5309.64424	0.020080
5307.71556	0.020101
5305.78689	0.020237
5303.85821	0.020321
5301.92953	0.020323
5300.00086	0.020387
5298.07218	0.020501
5296.14351	0.020503
5294.21483	0.020431
5292.28616	0.020466
5290.35748	0.020572
5288.42880	0.020593
5286.50013	0.020565
5284.57145	0.020624
5282.64278	0.020719
5280.71410	0.020728
5278.78543	0.020710
5276.85675	0.020786
5274.92807	0.020874
5272.99940	0.020844
5271.07072	0.020804
5269.14205	0.020893
5267.21337	0.020996
5265.28470	0.020984
5263.35602	0.020970
5261.42734	0.021074
5259.49867	0.021176
5257.56999	0.021159
5255.64132	0.021153
5253.71264	0.021266
5251.78397	0.021364
5249.85529	0.021341
5247.92661	0.021317
5245.99794	0.021392
5244.06926	0.021461
5242.14059	0.021446
5240.21191	0.021468
5238.28324	0.021585
5236.35456	0.021635
5234.42588	0.021559
5232.49721	0.021538
5230.56853	0.021647
5228.63986	0.021716
5226.71118	0.021681
5224.78251	0.021712
5222.85383	0.021844
5220.92515	0.021888
5218.99648	0.021823
5217.06780	0.021837
5215.13913	0.021956
5213.21045	0.022013
5211.28178	0.021993
5209.35310	0.022047
5207.42442	0.022166
5205.49575	0.022193
5203.56707	0.022147
5201.63840	0.022186
5199.70972	0.022290
5197.78105	0.022303
5195.85237	0.022260
5193.92369	0.022323
5191.99502	0.022440
5190.06634	0.022442
5188.13767	0.022396
5186.20899	0.022478
5184.28032	0.022623
5182.35164	0.022656
5180.42296	0.022630
5178.49429	0.022689
5176.56561	0.022762
5174.63694	0.022725
5172.70826	0.022689
5170.77959	0.022782
5168.85091	0.022893
5166.92223	0.022910
5164.99356	0.022936
5163.06488	0.023055
5161.13621	0.023135
5159.20753	0.023089
5157.27886	0.023061
5155.35018	0.023156
5153.42150	0.023245
5151.49283	0.023222
5149.56415	0.023221
5147.63548	0.023353
5145.70680	0.023457
5143.77813	0.023407
5141.84945	0.023368
5139.92077	0.023458
5137.99210	0.023539
5136.06342	0.023520
5134.13475	0.023519
5132.20607	0.023604
5130.27740	0.023663
5128.34872	0.023633
5126.42004	0.023649
5124.49137	0.023766
5122.56269	0.023820
5120.63402	0.023762
5118.70534	0.023789
5116.77667	0.023944
5114.84799	0.024012
5112.91931	0.023972
5110.99064	0.024025
5109.06196	0.024165
5107.13329	0.024208
5105.20461	0.024160
5103.27594	0.024186
5101.34726	0.024285
5099.41858	0.024312
5097.48991	0.024271
5095.56123	0.024316
5093.63256	0.024431
5091.70388	0.024459
5089.77521	0.024445
5087.84653	0.024532
5085.91785	0.024646
5083.98918	0.024638
5082.06050	0.024591
5080.13183	0.024676
5078.20315	0.024797
5076.27448	0.024776
5074.34580	0.024717
5072.41712	0.024817
5070.48845	0.024973
5068.55977	0.024979
5066.63110	0.024932
5064.70242	0.025025
5062.77375	0.025163
5060.84507	0.025159
5058.91639	0.025107
5056.98772	0.025174
5055.05904	0.025268
5053.13037	0.025253
5051.20169	0.025241
5049.27302	0.025356
5047.34434	0.025458
5045.41566	0.025417
5043.48699	0.025393
5041.55831	0.025507
5039.62964	0.025596
5037.70096	0.025553
5035.77229	0.025537
5033.84361	0.025663
5031.91493	0.025787
5029.98626	0.025786
5028.05758	0.025788
5026.12891	0.025887
5024.20023	0.025955
5022.27156	0.025929
5020.34288	0.025955
5018.41420	0.026091
5016.48553	0.026168
5014.55685	0.026111
5012.62818	0.026100
5010.69950	0.026210
5008.77083	0.026266
5006.84215	0.026221
5004.91347	0.026254
5002.98480	0.026375
5001.05612	0.026406
4999.12745	0.026362
4997.19877	0.026420
4995.27010	0.026569
4993.34142	0.026634
4991.41274	0.026610
4989.48407	0.026658
4987.55539	0.026780
4985.62672	0.026812
4983.69804	0.026770
4981.76937	0.026817
4979.84069	0.026921
4977.91201	0.026929
4975.98334	0.026893
4974.05466	0.026970
4972.12599	0.027100
4970.19731	0.027118
4968.26864	0.027078
4966.33996	0.027138
4964.41128	0.027240
4962.48261	0.027243
4960.55393	0.027218
4958.62526	0.027307
4956.69658	0.027427
4954.76791	0.027417
4952.83923	0.027370
4950.91055	0.027454
4948.98188	0.027576
4947.05320	0.027589
4945.12453	0.027585
4943.19585	0.027693
4941.26718	0.027805
4939.33850	0.027805
4937.40982	0.027807
4935.48115	0.027925
4933.55247	0.028031
4931.62380	0.027998
4929.69512	0.027964
4927.76645	0.028062
4925.83777	0.028143
4923.90909	0.028092
4921.98042	0.028062
4920.05174	0.028172
4918.12307	0.028282
4916.19439	0.028283
4914.26572	0.028303
4912.33704	0.028412
4910.40836	0.028472
4908.47969	0.028444
4906.55101	0.028479
4904.62234	0.028619
4902.69366	0.028698
4900.76499	0.028660
4898.83631	0.028679
4896.90763	0.028825
4894.97896	0.028918
4893.05028	0.028874
4891.12161	0.028869
4889.19293	0.028975
4887.26426	0.029029
4885.33558	0.029004
4883.40690	0.029067
4881.47823	0.029196
4879.54955	0.029222
4877.62088	0.029200
4875.69220	0.029302
4873.76353	0.029451
4871.83485	0.029454
4869.90617	0.029384
4867.97750	0.029454
4866.04882	0.029605
4864.12015	0.029638
4862.19147	0.029606
4860.26280	0.029677
4858.33412	0.029792
4856.40544	0.029794
4854.47677	0.029760
4852.54809	0.029862
4850.61942	0.029996
4848.69074	0.029986
4846.76207	0.029964
4844.83339	0.030091
4842.90471	0.030211
4840.97604	0.030177
4839.04736	0.030144
4837.11869	0.030257
4835.19001	0.030381
4833.26134	0.030378
4831.33266	0.030364
4829.40398	0.030460
4827.47531	0.030553
4825.54663	0.030529
4823.61796	0.030505
4821.68928	0.030603
4819.76061	0.030709
4817.83193	0.030705
4815.90325	0.030714
4813.97458	0.030855
4812.04590	0.030974
4810.11723	0.030947
4808.18855	0.030938
4806.25988	0.031046
4804.33120	0.031111
4802.40252	0.031064
4800.47385	0.031084
4798.54517	0.031239
4796.61650	0.031345
4794.68782	0.031310
4792.75915	0.031303
4790.83047	0.031432
4788.90179	0.031536
4786.97312	0.031510
4785.04444	0.031514
4783.11577	0.031617
4781.18709	0.031666
4779.25842	0.031630
4777.32974	0.031675
4775.40106	0.031835
4773.47239	0.031917
4771.54371	0.031868
4769.61504	0.031903
4767.68636	0.032065
4765.75769	0.032127
4763.82901	0.032070
4761.90033	0.032124
4759.97166	0.032291
4758.04298	0.032356
4756.11431	0.032316
4754.18563	0.032358
4752.25696	0.032471
4750.32828	0.032486
4748.39960	0.032444
4746.47093	0.032530
4744.54225	0.032693
4742.61358	0.032750
4740.68490	0.032741
4738.75623	0.032821
4736.82755	0.032924
4734.89887	0.032911
4732.97020	0.032882
4731.04152	0.032999
4729.11285	0.033148
4727.18417	0.033156
4725.25550	0.033117
4723.32682	0.033200
4721.39814	0.033320
4719.46947	0.033335
4717.54079	0.033347
4715.61212	0.033482
4713.68344	0.033608
4711.75477	0.033604
4709.82609	0.033602
4707.89741	0.033705
4705.96874	0.033788
4704.04006	0.033761
4702.11139	0.033749
4700.18271	0.033859
4698.25404	0.033968
4696.32536	0.033971
4694.39668	0.033996
4692.46801	0.034124
4690.53933	0.034205
4688.61066	0.034167
4686.68198	0.034173
4684.75331	0.034302
4682.82463	0.034391
4680.89595	0.034366
4678.96728	0.034395
4677.03860	0.034538
4675.10993	0.034619
4673.18125	0.034597
4671.25258	0.034649
4669.32390	0.034805
4667.39522	0.034899
4665.46655	0.034888
4663.53787	0.034905
4661.60920	0.035004
4659.68052	0.035071
4657.75185	0.035072
4655.82317	0.035133
4653.89449	0.035263
4651.96582	0.035320
4650.03714	0.035306
4648.10847	0.035388
4646.17979	0.035549
4644.25112	0.035599
4642.32244	0.035540
4640.39376	0.035567
4638.46509	0.035701
4636.53641	0.035768
4634.60774	0.035755
4632.67906	0.035821
4630.75039	0.035950
4628.82171	0.035990
4626.89303	0.035984
4624.96436	0.036078
4623.03568	0.036209
4621.10701	0.036221
4619.17833	0.036188
4617.24966	0.036277
4615.32098	0.036423
4613.39230	0.036457
4611.46363	0.036434
4609.53495	0.036526
4607.60628	0.036663
4605.67760	0.036687
4603.74893	0.036692
4601.82025	0.036814
4599.89157	0.036940
4597.96290	0.036956
4596.03422	0.036973
4594.10555	0.037094
4592.17687	0.037199
4590.24820	0.037186
4588.31952	0.037181
4586.39084	0.037297
4584.46217	0.037409
4582.53349	0.037416
4580.60482	0.037462
4578.67614	0.037618
4576.74747	0.037705
4574.81879	0.037672
4572.89011	0.037700
4570.96144	0.037850
4569.03276	0.037958
4567.10409	0.037943
4565.17541	0.037954
4563.24674	0.038068
4561.31806	0.038143
4559.38938	0.038137
4557.46071	0.038206
4555.53203	0.038363
4553.60336	0.038447
4551.67468	0.038443
4549.74601	0.038498
4547.81733	0.038630
4545.88865	0.038706
4543.95998	0.038703
4542.03130	0.038756
4540.10263	0.038881
4538.17395	0.038931
4536.24528	0.038895
4534.31660	0.038948
4532.38792	0.039107
4530.45925	0.039187
4528.53057	0.039192
4526.60190	0.039293
4524.67322	0.039454
4522.74455	0.039509
4520.81587	0.039490
4518.88719	0.039540
4516.95852	0.039649
4515.02984	0.039696
4513.10117	0.039703
4511.17249	0.039801
4509.24382	0.039945
4507.31514	0.039982
4505.38646	0.039980
4503.45779	0.040083
4501.52911	0.040209
4499.60044	0.040236
4497.67176	0.040257
4495.74309	0.040387
4493.81441	0.040514
4491.88573	0.040515
4489.95706	0.040508
4488.02838	0.040623
4486.09971	0.040762
4484.17103	0.040801
4482.24236	0.040816
4480.31368	0.040920
4478.38500	0.041043
4476.45633	0.041079
4474.52765	0.041106
4472.59898	0.041218
4470.67030	0.041330
4468.74163	0.041370
4466.81295	0.041425
4464.88427	0.041553
4462.95560	0.041653
4461.02692	0.041647
4459.09825	0.041658
4457.16957	0.041780
4455.24090	0.041890
4453.31222	0.041903
4451.38354	0.041944
4449.45487	0.042078
4447.52619	0.042189
4445.59752	0.042233
4443.66884	0.042318
4441.74017	0.042455
4439.81149	0.042507
4437.88281	0.042456
4435.95414	0.042471
4434.02546	0.042592
4432.09679	0.042679
4430.16811	0.042715
4428.23944	0.042827
4426.31076	0.043011
4424.38208	0.043120
4422.45341	0.043138
4420.52473	0.043195
4418.59606	0.043310
4416.66738	0.043376
4414.73871	0.043392
4412.81003	0.043475
4410.88135	0.043619
4408.95268	0.043684
4407.02400	0.043673
4405.09533	0.043724
4403.16665	0.043842
4401.23798	0.043911
4399.30930	0.043941
4397.38062	0.044037
4395.45195	0.044183
4393.52327	0.044266
4391.59460	0.044284
4389.66592	0.044346
4387.73725	0.044477
4385.80857	0.044568
4383.87989	0.044607
4381.95122	0.044701
4380.02254	0.044819
4378.09387	0.044852
4376.16519	0.044871
4374.23652	0.044986
4372.30784	0.045118
4370.37916	0.045162
4368.45049	0.045194
4366.52181	0.045311
4364.59314	0.045441
4362.66446	0.045478
4360.73579	0.045508
4358.80711	0.045634
4356.87843	0.045767
4354.94976	0.045834
4353.02108	0.045907
4351.09241	0.046026
4349.16373	0.046131
4347.23506	0.046171
4345.30638	0.046206
4343.37770	0.046310
4341.44903	0.046422
4339.52035	0.046468
4337.59168	0.046517
4335.66300	0.046643
4333.73433	0.046761
4331.80565	0.046811
4329.87697	0.046886
4327.94830	0.047012
4326.01962	0.047094
4324.09095	0.047126
4322.16227	0.047206
4320.23360	0.047365
4318.30492	0.047507
4316.37624	0.047552
4314.44757	0.047576
4312.51889	0.047663
4310.59022	0.047749
4308.66154	0.047796
4306.73287	0.047888
4304.80419	0.048035
4302.87551	0.048127
4300.94684	0.048161
4299.01816	0.048254
4297.08949	0.048410
4295.16081	0.048531
4293.23214	0.048618
4291.30346	0.048720
4289.37478	0.048818
4287.44611	0.048870
4285.51743	0.048903
4283.58876	0.048980
4281.66008	0.049105
4279.73141	0.049212
4277.80273	0.049279
4275.87405	0.049374
4273.94538	0.049494
4272.01670	0.049563
4270.08803	0.049598
4268.15935	0.049695
4266.23068	0.049841
4264.30200	0.049924
4262.37332	0.049956
4260.44465	0.050045
4258.51597	0.050166
4256.58730	0.050222
4254.65862	0.050250
4252.72995	0.050353
4250.80127	0.050506
4248.87259	0.050613
4246.94392	0.050684
4245.01524	0.050803
4243.08657	0.050941
4241.15789	0.051010
4239.22922	0.051060
4237.30054	0.051174
4235.37186	0.051300
4233.44319	0.051363
4231.51451	0.051423
4229.58584	0.051532
4227.65716	0.051626
4225.72849	0.051671
4223.79981	0.051742
4221.87113	0.051874
4219.94246	0.051993
4218.01378	0.052051
4216.08511	0.052120
4214.15643	0.052266
4212.22776	0.052417
4210.29908	0.052488
4208.37040	0.052537
4206.44173	0.052649
4204.51305	0.052780
4202.58438	0.052871
4200.65570	0.052953
4198.72703	0.053067
4196.79835	0.053173
4194.86968	0.053234
4192.94100	0.053307
4191.01232	0.053436
4189.08365	0.053566
4187.15497	0.053647
4185.22630	0.053716
4183.29762	0.053823
4181.36895	0.053939
4179.44027	0.054027
4177.51159	0.054127
4175.58292	0.054257
4173.65424	0.054377
4171.72557	0.054473
4169.79689	0.054573
4167.86822	0.054678
4165.93954	0.054756
4164.01086	0.054819
4162.08219	0.054931
4160.15351	0.055092
4158.22484	0.055237
4156.29616	0.055332
4154.36749	0.055409
4152.43881	0.055492
4150.51013	0.055556
4148.58146	0.055634
4146.65278	0.055792
4144.72411	0.055962
4142.79543	0.056046
4140.86676	0.056089
4138.93808	0.056177
4137.00940	0.056296
4135.08073	0.056384
4133.15205	0.056446
4131.22338	0.056557
4129.29470	0.056714
4127.36603	0.056833
4125.43735	0.056914
4123.50867	0.057011
4121.58000	0.057120
4119.65132	0.057239
4117.72265	0.057366
4115.79397	0.057488
4113.86530	0.057599
4111.93662	0.057688
4110.00794	0.057766
4108.07927	0.057867
4106.15059	0.057987
4104.22192	0.058091
4102.29324	0.058178
4100.36457	0.058291
4098.43589	0.058435
4096.50721	0.058548
4094.57854	0.058617
4092.64986	0.058720
4090.72119	0.058857
4088.79251	0.058949
4086.86384	0.059017
4084.93516	0.059138
4083.00648	0.059284
4081.07781	0.059387
4079.14913	0.059482
4077.22046	0.059621
4075.29178	0.059774
4073.36311	0.059902
4071.43443	0.060018
4069.50575	0.060139
4067.57708	0.060246
4065.64840	0.060323
4063.71973	0.060407
4061.79105	0.060528
4059.86238	0.060653
4057.93370	0.060746
4056.00502	0.060831
4054.07635	0.060949
4052.14767	0.061075
4050.21900	0.061184
4048.29032	0.061304
4046.36165	0.061436
4044.43297	0.061540
4042.50429	0.061634
4040.57562	0.061765
4038.64694	0.061914
4036.71827	0.062022
4034.78959	0.062094
4032.86092	0.062201
4030.93224	0.062374
4029.00356	0.062534
4027.07489	0.062611
4025.14621	0.062674
4023.21754	0.062786
4021.28886	0.062900
4019.36019	0.063002
4017.43151	0.063139
4015.50283	0.063299
4013.57416	0.063430
4011.64548	0.063528
4009.71681	0.063628
4007.78813	0.063755
4005.85946	0.063893
4003.93078	0.064009
4002.00210	0.064121
4000.07343	0.064256
3998.14475	0.064374
3996.21608	0.064466
3994.28740	0.064580
3992.35873	0.064719
3990.43005	0.064859
3988.50137	0.065001
3986.57270	0.065132
3984.64402	0.065232
3982.71535	0.065311
3980.78667	0.065405
3978.85800	0.065522
3976.92932	0.065649
3975.00064	0.065786
3973.07197	0.065923
3971.14329	0.066047
3969.21462	0.066150
3967.28594	0.066233
3965.35727	0.066320
3963.42859	0.066428
3961.49991	0.066545
3959.57124	0.066654
3957.64256	0.066776
3955.71389	0.066930
3953.78521	0.067066
3951.85654	0.067160
3949.92786	0.067267
3947.99918	0.067397
3946.07051	0.067500
3944.14183	0.067581
3942.21316	0.067713
3940.28448	0.067905
3938.35581	0.068081
3936.42713	0.068189
3934.49845	0.068255
3932.56978	0.068354
3930.64110	0.068517
3928.71243	0.068683
3926.78375	0.068783
3924.85508	0.068840
3922.92640	0.068896
3920.99772	0.068938
3919.06905	0.069001
3917.14037	0.069173
3915.21170	0.069441
3913.28302	0.069678
3911.35435	0.069809
3909.42567	0.069883
3907.49699	0.069907
3905.56832	0.069859
3903.63964	0.069835
3901.71097	0.069952
3899.78229	0.070224
3897.85362	0.070538
3895.92494	0.070746
3893.99626	0.070821
3892.06759	0.070906
3890.13891	0.071055
3888.21024	0.071092
3886.28156	0.071079
3884.35289	0.071272
3882.42421	0.071514
3880.49553	0.071636
3878.56686	0.071776
3876.63818	0.071919
3874.70951	0.072007
3872.78083	0.072076
3870.85216	0.072163
3868.92348	0.072368
3866.99480	0.072605
3865.06613	0.072735
3863.13745	0.072891
3861.20878	0.073116
3859.28010	0.073240
3857.35143	0.073162
3855.42275	0.072954
3853.49407	0.072932
3851.56540	0.073315
3849.63672	0.073840
3847.70805	0.074173
3845.77937	0.074284
3843.85070	0.074272
3841.92202	0.074209
3839.99334	0.074170
3838.06467	0.074286
3836.13599	0.074575
3834.20732	0.074874
3832.27864	0.075110
3830.34997	0.075279
3828.42129	0.075352
3826.49261	0.075428
3824.56394	0.075530
3822.63526	0.075567
3820.70659	0.075660
3818.77791	0.075828
3816.84924	0.075972
3814.92056	0.076227
3812.99188	0.076567
3811.06321	0.076762
3809.13453	0.076789
3807.20586	0.076836
3805.27718	0.076958
3803.34851	0.077033
3801.41983	0.077129
3799.49115	0.077322
3797.56248	0.077486
3795.63380	0.077672
3793.70513	0.077970
3791.77645	0.078234
3789.84778	0.078362
3787.91910	0.078417
3785.99042	0.078512
3784.06175	0.078679
3782.13307	0.078821
3780.20440	0.078925
3778.27572	0.079105
3776.34705	0.079318
3774.41837	0.079421
3772.48969	0.079404
3770.56102	0.079416
3768.63234	0.079549
3766.70367	0.079683
3764.77499	0.079815
3762.84632	0.080024
3760.91764	0.080200
3758.98896	0.080320
3757.06029	0.080473
3755.13161	0.080545
3753.20294	0.080444
3751.27426	0.080395
3749.34559	0.080577
3747.41691	0.080652
3745.48823	0.080495
3743.55956	0.080667
3741.63088	0.081228
3739.70221	0.081514
3737.77353	0.081388
3735.84486	0.081329
3733.91618	0.081583
3731.98750	0.082028
3730.05883	0.082424
3728.13015	0.082585
3726.20148	0.082645
3724.27280	0.082823
3722.34413	0.083052
3720.41545	0.083240
3718.48677	0.083448
3716.55810	0.083649
3714.62942	0.083682
3712.70075	0.083567
3710.77207	0.083581
3708.84340	0.083845
3706.91472	0.084170
3704.98604	0.084333
3703.05737	0.084398
3701.12869	0.084588
3699.20002	0.084852
3697.27134	0.085030
3695.34267	0.085136
3693.41399	0.085132
3691.48531	0.085012
3689.55664	0.085037
3687.62796	0.085376
3685.69929	0.085814
3683.77061	0.086061
3681.84194	0.086091
3679.91326	0.086030
3677.98458	0.085905
3676.05591	0.085886
3674.12723	0.086186
3672.19856	0.086520
3670.26988	0.086651
3668.34121	0.086842
3666.41253	0.087179
3664.48385	0.087474
3662.55518	0.087662
3660.62650	0.087749
3658.69783	0.087742
3656.76915	0.087781
3654.84048	0.087903
3652.91180	0.087816
3650.98312	0.087503
3649.05445	0.087431
3647.12577	0.087798
3645.19710	0.088308
3643.26842	0.088690
3641.33975	0.088927
3639.41107	0.089082
3637.48239	0.089164
3635.55372	0.089217
3633.62504	0.089292
3631.69637	0.089294
3629.76769	0.089238
3627.83902	0.089408
3625.91034	0.089799
3623.98166	0.090034
3622.05299	0.089974
3620.12431	0.089900
3618.19564	0.090060
3616.26696	0.090244
3614.33829	0.090223
3612.40961	0.090157
3610.48093	0.090223
3608.55226	0.090435
3606.62358	0.090711
3604.69491	0.090937
3602.76623	0.091096
3600.83756	0.091221
3598.90888	0.091325
3596.98020	0.091440
3595.05153	0.091598
3593.12285	0.091728
3591.19418	0.091690
3589.26550	0.091571
3587.33683	0.091678
3585.40815	0.091999
3583.47947	0.092227
3581.55080	0.092346
3579.62212	0.092524
3577.69345	0.092692
3575.76477	0.092763
3573.83610	0.092853
3571.90742	0.092959
3569.97874	0.092922
3568.05007	0.092843
3566.12139	0.093007
3564.19272	0.093353
3562.26404	0.093580
3560.33537	0.093672
3558.40669	0.093821
3556.47801	0.094010
3554.54934	0.094070
3552.62066	0.094056
3550.69199	0.094153
3548.76331	0.094309
3546.83464	0.094368
3544.90596	0.094392
3542.97728	0.094538
3541.04861	0.094756
3539.11993	0.094864
3537.19126	0.094865
3535.26258	0.094942
3533.33391	0.095096
3531.40523	0.095160
3529.47655	0.095145
3527.54788	0.095200
3525.61920	0.095300
3523.69053	0.095328
3521.76185	0.095344
3519.83318	0.095468
3517.90450	0.095626
3515.97582	0.095664
3514.04715	0.095611
3512.11847	0.095611
3510.18980	0.095675
3508.26112	0.095705
3506.33245	0.095691
3504.40377	0.095725
3502.47509	0.095824
3500.54642	0.095882
3498.61774	0.095885
3496.68907	0.095944
3494.76039	0.096019
3492.83172	0.096007
3490.90304	0.095973
3488.97436	0.096027
3487.04569	0.096123
3485.11701	0.096160
3483.18834	0.096196
3481.25966	0.096332
3479.33099	0.096475
3477.40231	0.096512
3475.47363	0.096553
3473.54496	0.096718
3471.61628	0.096910
3469.68761	0.097018
3467.75893	0.097125
3465.83026	0.097331
3463.90158	0.097543
3461.97290	0.097677
3460.04423	0.097828
3458.11555	0.098050
3456.18688	0.098214
3454.25820	0.098273
3452.32953	0.098384
3450.40085	0.098576
3448.47217	0.098694
3446.54350	0.098735
3444.61482	0.098878
3442.68615	0.099159
3440.75747	0.099426
3438.82880	0.099631
3436.90012	0.099890
3434.97144	0.100227
3433.04277	0.100531
3431.11409	0.100795
3429.18542	0.101133
3427.25674	0.101540
3425.32807	0.101896
3423.39939	0.102172
3421.47071	0.102460
3419.54204	0.102799
3417.61336	0.103078
3415.68469	0.103261
3413.75601	0.103521
3411.82734	0.103891
3409.89866	0.104143
3407.96998	0.104264
3406.04131	0.104486
3404.11263	0.104803
3402.18396	0.104986
3400.25528	0.105054
3398.32661	0.105222
3396.39793	0.105504
3394.46925	0.105752
3392.54058	0.105946
3390.61190	0.106183
3388.68323	0.106459
3386.75455	0.106644
3384.82588	0.106767
3382.89720	0.107007
3380.96852	0.107325
3379.03985	0.107522
3377.11117	0.107659
3375.18250	0.107933
3373.25382	0.108261
3371.32515	0.108433
3369.39647	0.108520
3367.46779	0.108714
3365.53912	0.108959
3363.61044	0.109097
3361.68177	0.109207
3359.75309	0.109441
3357.82442	0.109708
3355.89574	0.109860
3353.96706	0.109981
3352.03839	0.110200
3350.10971	0.110445
3348.18104	0.110610
3346.25236	0.110764
3344.32369	0.111009
3342.39501	0.111274
3340.46633	0.111433
3338.53766	0.111546
3336.60898	0.111753
3334.68031	0.112011
3332.75163	0.112195
3330.82296	0.112355
3328.89428	0.112587
3326.96560	0.112819
3325.03693	0.112965
3323.10825	0.113126
3321.17958	0.113386
3319.25090	0.113617
3317.32223	0.113739
3315.39355	0.113892
3313.46487	0.114155
3311.53620	0.114398
3309.60752	0.114550
3307.67885	0.114756
3305.75017	0.115075
3303.82150	0.115346
3301.89282	0.115494
3299.96414	0.115661
3298.03547	0.115946
3296.10679	0.116211
3294.17812	0.116354
3292.24944	0.116550
3290.32077	0.116867
3288.39209	0.117111
3286.46341	0.117223
3284.53474	0.117367
3282.60606	0.117630
3280.67739	0.117888
3278.74871	0.118034
3276.82004	0.118201
3274.89136	0.118493
3272.96268	0.118761
3271.03401	0.118922
3269.10533	0.119133
3267.17666	0.119433
3265.24798	0.119658
3263.31931	0.119792
3261.39063	0.120002
3259.46195	0.120303
3257.53328	0.120537
3255.60460	0.120696
3253.67593	0.120932
3251.74725	0.121221
3249.81858	0.121397
3247.88990	0.121502
3245.96122	0.121744
3244.03255	0.122092
3242.10387	0.122317
3240.17520	0.122425
3238.24652	0.122623
3236.31785	0.122898
3234.38917	0.123088
3232.46049	0.123248
3230.53182	0.123514
3228.60314	0.123811
3226.67447	0.124009
3224.74579	0.124174
3222.81712	0.124444
3220.88844	0.124747
3218.95976	0.124918
3217.03109	0.125019
3215.10241	0.125224
3213.17374	0.125485
3211.24506	0.125634
3209.31639	0.125775
3207.38771	0.126109
3205.45903	0.126480
3203.53036	0.126641
3201.60168	0.126712
3199.67301	0.126944
3197.74433	0.127273
3195.81566	0.127501
3193.88698	0.127693
3191.95830	0.128003
3190.02963	0.128320
3188.10095	0.128502
3186.17228	0.128687
3184.24360	0.128979
3182.31493	0.129218
3180.38625	0.129341
3178.45757	0.129519
3176.52890	0.129834
3174.60022	0.130112
3172.67155	0.130245
3170.74287	0.130417
3168.81420	0.130740
3166.88552	0.131040
3164.95684	0.131211
3163.02817	0.131391
3161.09949	0.131680
3159.17082	0.131945
3157.24214	0.132112
3155.31347	0.132325
3153.38479	0.132634
3151.45611	0.132890
3149.52744	0.133045
3147.59876	0.133222
3145.67009	0.133492
3143.74141	0.133749
3141.81274	0.133946
3139.88406	0.134197
3137.95538	0.134509
3136.02671	0.134745
3134.09803	0.134874
3132.16936	0.135051
3130.24068	0.135349
3128.31201	0.135582
3126.38333	0.135686
3124.45465	0.135896
3122.52598	0.136258
3120.59730	0.136519
3118.66863	0.136639
3116.73995	0.136850
3114.81128	0.137179
3112.88260	0.137405
3110.95392	0.137521
3109.02525	0.137741
3107.09657	0.138070
3105.16790	0.138294
3103.23922	0.138406
3101.31055	0.138636
3099.38187	0.138999
3097.45319	0.139261
3095.52452	0.139403
3093.59584	0.139632
3091.66717	0.139939
3089.73849	0.140130
3087.80982	0.140252
3085.88114	0.140499
3083.95246	0.140804
3082.02379	0.140982
3080.09511	0.141132
3078.16644	0.141453
3076.23776	0.141826
3074.30909	0.142031
3072.38041	0.142152
3070.45173	0.142386
3068.52306	0.142659
3066.59438	0.142814
3064.66571	0.142958
3062.73703	0.143243
3060.80836	0.143556
3058.87968	0.143745
3056.95100	0.143935
3055.02233	0.144262
3053.09365	0.144579
3051.16498	0.144733
3049.23630	0.144851
3047.30763	0.145112
3045.37895	0.145403
3043.45027	0.145542
3041.52160	0.145661
3039.59292	0.145937
3037.66425	0.146248
3035.73557	0.146427
3033.80690	0.146564
3031.87822	0.146819
3029.94954	0.147082
3028.02087	0.147224
3026.09219	0.147424
3024.16352	0.147795
3022.23484	0.148119
3020.30617	0.148277
3018.37749	0.148452
3016.44881	0.148746
3014.52014	0.148988
3012.59146	0.149087
3010.66279	0.149245
3008.73411	0.149573
3006.80544	0.149859
3004.87676	0.149990
3002.94808	0.150135
3001.01941	0.150378
2999.09073	0.150580
2997.16206	0.150692
2995.23338	0.150876
2993.30471	0.151174
2991.37603	0.151380
2989.44735	0.151419
2987.51868	0.151501
2985.59000	0.151706
2983.66133	0.151791
2981.73265	0.151700
2979.80398	0.151675
2977.87530	0.151726
2975.94662	0.151622
2974.01795	0.151341
2972.08927	0.151080
2970.16060	0.150877
2968.23192	0.150611
2966.30325	0.150340
2964.37457	0.150269
2962.44589	0.150426
2960.51722	0.150681
2958.58854	0.151017
2956.65987	0.151530
2954.73119	0.152169
2952.80252	0.152726
2950.87384	0.153195
2948.94516	0.153733
2947.01649	0.154250
2945.08781	0.154519
2943.15914	0.154607
2941.23046	0.154742
2939.30179	0.154877
2937.37311	0.154831
2935.44443	0.154690
2933.51576	0.154668
2931.58708	0.154714
2929.65841	0.154608
2927.72973	0.154409
2925.80106	0.154370
2923.87238	0.154429
2921.94370	0.154348
2920.01503	0.154286
2918.08635	0.154605
2916.15768	0.155262
2914.22900	0.156002
2912.30033	0.156785
2910.37165	0.157620
2908.44297	0.158321
2906.51430	0.158726
2904.58562	0.159040
2902.65695	0.159518
2900.72827	0.160020
2898.79960	0.160352
2896.87092	0.160657
2894.94224	0.161098
2893.01357	0.161551
2891.08489	0.161870
2889.15622	0.162143
2887.22754	0.162513
2885.29887	0.162889
2883.37019	0.163127
2881.44151	0.163342
2879.51284	0.163639
2877.58416	0.163900
2875.65549	0.164052
2873.72681	0.164252
2871.79814	0.164589
2869.86946	0.164878
2867.94078	0.165010
2866.01211	0.165133
2864.08343	0.165335
2862.15476	0.165467
2860.22608	0.165455
2858.29741	0.165440
2856.36873	0.165458
2854.44005	0.165349
2852.51138	0.165161
2850.58270	0.165284
2848.65403	0.165935
2846.72535	0.166849
2844.79668	0.167689
2842.86800	0.168416
2840.93932	0.169091
2839.01065	0.169610
2837.08197	0.169941
2835.15330	0.170286
2833.22462	0.170715
2831.29595	0.171047
2829.36727	0.171237
2827.43859	0.171493
2825.50992	0.171885
2823.58124	0.172213
2821.65257	0.172413
2819.72389	0.172697
2817.79522	0.173099
2815.86654	0.173386
2813.93786	0.173545
2812.00919	0.173813
2810.08051	0.174209
2808.15184	0.174504
2806.22316	0.174679
2804.29449	0.174936
2802.36581	0.175273
2800.43713	0.175504
2798.50846	0.175650
2796.57978	0.175915
2794.65111	0.176297
2792.72243	0.176582
2790.79376	0.176761
2788.86508	0.177025
2786.93640	0.177366
2785.00773	0.177599
2783.07905	0.177776
2781.15038	0.178121
2779.22170	0.178545
2777.29303	0.178790
2775.36435	0.178920
2773.43567	0.179154
2771.50700	0.179463
2769.57832	0.179700
2767.64965	0.179902
2765.72097	0.180212
2763.79230	0.180580
2761.86362	0.180814
2759.93494	0.180960
2758.00627	0.181234
2756.07759	0.181576
2754.14892	0.181781
2752.22024	0.181948
2750.29157	0.182253
2748.36289	0.182573
2746.43421	0.182776
2744.50554	0.182977
2742.57686	0.183277
2740.64819	0.183560
2738.71951	0.183720
2736.79084	0.183905
2734.86216	0.184248
2732.93348	0.184596
2731.00481	0.184772
2729.07613	0.184889
2727.14746	0.185146
2725.21878	0.185465
2723.29011	0.185665
2721.36143	0.185839
2719.43275	0.186154
2717.50408	0.186478
2715.57540	0.186647
2713.64673	0.186808
2711.71805	0.187128
2709.78938	0.187470
2707.86070	0.187668
2705.93202	0.187846
2704.00335	0.188154
2702.07467	0.188460
2700.14600	0.188630
2698.21732	0.188826
2696.28865	0.189177
2694.35997	0.189485
2692.43129	0.189616
2690.50262	0.189761
2688.57394	0.190054
2686.64527	0.190337
2684.71659	0.190499
2682.78792	0.190698
2680.85924	0.191017
2678.93056	0.191266
2677.00189	0.191382
2675.07321	0.191604
2673.14454	0.191998
2671.21586	0.192299
2669.28719	0.192427
2667.35851	0.192644
2665.42983	0.193013
2663.50116	0.193268
2661.57248	0.193360
2659.64381	0.193575
2657.71513	0.193981
2655.78646	0.194302
2653.85778	0.194463
2651.92910	0.194719
2650.00043	0.195099
2648.07175	0.195335
2646.14308	0.195440
2644.21440	0.195697
2642.28573	0.196096
2640.35705	0.196370
2638.42837	0.196522
2636.49970	0.196782
2634.57102	0.197125
2632.64235	0.197351
2630.71367	0.197518
2628.78500	0.197838
2626.85632	0.198239
2624.92764	0.198482
2622.99897	0.198631
2621.07029	0.198913
2619.14162	0.199294
2617.21294	0.199570
2615.28427	0.199760
2613.35559	0.200064
2611.42691	0.200460
2609.49824	0.200745
2607.56956	0.200949
2605.64089	0.201242
2603.71221	0.201581
2601.78354	0.201819
2599.85486	0.202018
2597.92618	0.202324
2595.99751	0.202658
2594.06883	0.202862
2592.14016	0.203033
2590.21148	0.203349
2588.28281	0.203724
2586.35413	0.203962
2584.42545	0.204133
2582.49678	0.204421
2580.56810	0.204738
2578.63943	0.204939
2576.71075	0.205149
2574.78208	0.205471
2572.85340	0.205775
2570.92472	0.205968
2568.99605	0.206178
2567.06737	0.206505
2565.13870	0.206819
2563.21002	0.207002
2561.28135	0.207201
2559.35267	0.207556
2557.42399	0.207893
2555.49532	0.208045
2553.56664	0.208194
2551.63797	0.208505
2549.70929	0.208826
2547.78062	0.209020
2545.85194	0.209197
2543.92326	0.209456
2541.99459	0.209708
2540.06591	0.209876
2538.13724	0.210097
2536.20856	0.210472
2534.27989	0.210825
2532.35121	0.211045
2530.42253	0.211290
2528.49386	0.211611
2526.56518	0.211845
2524.63651	0.211985
2522.70783	0.212229
2520.77916	0.212608
2518.85048	0.212918
2516.92181	0.213089
2514.99313	0.213315
2513.06445	0.213684
2511.13578	0.213999
2509.20710	0.214182
2507.27843	0.214437
2505.34975	0.214820
2503.42108	0.215116
2501.49240	0.215267
2499.56372	0.215482
2497.63505	0.215839
2495.70637	0.216174
2493.77770	0.216421
2491.84902	0.216741
2489.92035	0.217168
2487.99167	0.217472
2486.06299	0.217624
2484.13432	0.217905
2482.20564	0.218345
2480.27697	0.218683
2478.34829	0.218910
2476.41962	0.219234
2474.49094	0.219622
2472.56226	0.219862
2470.63359	0.219991
2468.70491	0.220245
2466.77624	0.220608
2464.84756	0.220851
2462.91889	0.220977
2460.99021	0.221202
2459.06153	0.221549
2457.13286	0.221857
2455.20418	0.222115
2453.27551	0.222451
2451.34683	0.222829
2449.41816	0.223101
2447.48948	0.223295
2445.56080	0.223570
2443.63213	0.223918
2441.70345	0.224197
2439.77478	0.224421
2437.84610	0.224711
2435.91743	0.225015
2433.98875	0.225221
2432.06007	0.225427
2430.13140	0.225771
2428.20272	0.226142
2426.27405	0.226387
2424.34537	0.226587
2422.41670	0.226890
2420.48802	0.227222
2418.55934	0.227449
2416.63067	0.227677
2414.70199	0.228040
2412.77332	0.228416
2410.84464	0.228658
2408.91597	0.228854
2406.98729	0.229140
2405.05861	0.229445
2403.12994	0.229638
2401.20126	0.229822
2399.27259	0.230172
2397.34391	0.230552
2395.41524	0.230749
2393.48656	0.230904
2391.55788	0.231228
2389.62921	0.231580
2387.70053	0.231770
2385.77186	0.231927
2383.84318	0.232169
2381.91451	0.232329
2379.98583	0.232305
2378.05715	0.232285
2376.12848	0.232399
2374.19980	0.232481
2372.27113	0.232426
2370.34245	0.232415
2368.41378	0.232585
2366.48510	0.232763
2364.55642	0.232832
2362.62775	0.232994
2360.69907	0.233345
2358.77040	0.233715
2356.84172	0.234017
2354.91305	0.234380
2352.98437	0.234952
2351.05569	0.235601
2349.12702	0.236023
2347.19834	0.236166
2345.26967	0.236217
2343.34099	0.236285
2341.41232	0.236394
2339.48364	0.236638
2337.55496	0.237034
2335.62629	0.237392
2333.69761	0.237630
2331.76894	0.237913
2329.84026	0.238262
2327.91159	0.238499
2325.98291	0.238661
2324.05423	0.238956
2322.12556	0.239393
2320.19688	0.239812
2318.26821	0.240175
2316.33953	0.240581
2314.41086	0.241054
2312.48218	0.241467
2310.55350	0.241778
2308.62483	0.242149
2306.69615	0.242587
2304.76748	0.242881
2302.83880	0.243092
2300.91013	0.243459
2298.98145	0.243908
2297.05277	0.244224
2295.12410	0.244467
2293.19542	0.244819
2291.26675	0.245228
2289.33807	0.245529
2287.40940	0.245744
2285.48072	0.246014
2283.55204	0.246337
2281.62337	0.246580
2279.69469	0.246768
2277.76602	0.247043
2275.83734	0.247357
2273.90867	0.247593
2271.97999	0.247816
2270.05131	0.248110
2268.12264	0.248392
2266.19396	0.248596
2264.26529	0.248837
2262.33661	0.249175
2260.40794	0.249467
2258.47926	0.249647
2256.55058	0.249844
2254.62191	0.250156
2252.69323	0.250502
2250.76456	0.250751
2248.83588	0.250964
2246.90721	0.251287
2244.97853	0.251611
2243.04985	0.251780
2241.12118	0.251946
2239.19250	0.252263
2237.26383	0.252596
2235.33515	0.252826
2233.40648	0.253057
2231.47780	0.253373
2229.54912	0.253657
2227.62045	0.253831
2225.69177	0.254042
2223.76310	0.254393
2221.83442	0.254727
2219.90575	0.254917
2217.97707	0.255098
2216.04839	0.255392
2214.11972	0.255704
2212.19104	0.255931
2210.26237	0.256158
2208.33369	0.256463
2206.40502	0.256744
2204.47634	0.256930
2202.54766	0.257135
2200.61899	0.257468
2198.69031	0.257810
2196.76164	0.257990
2194.83296	0.258118
2192.90429	0.258407
2190.97561	0.258782
2189.04693	0.259070
2187.11826	0.259282
2185.18958	0.259479
2183.26091	0.259652
2181.33223	0.259834
2179.40356	0.260106
2177.47488	0.260425
2175.54620	0.260654
2173.61753	0.260821
2171.68885	0.261072
2169.76018	0.261395
2167.83150	0.261665
2165.90283	0.261869
2163.97415	0.262127
2162.04547	0.262479
2160.11680	0.262806
2158.18812	0.263053
2156.25945	0.263314
2154.33077	0.263611
2152.40210	0.263857
2150.47342	0.264070
2148.54474	0.264367
2146.61607	0.264715
2144.68739	0.264968
2142.75872	0.265135
2140.83004	0.265355
2138.90137	0.265673
2136.97269	0.265996
2135.04401	0.266280
2133.11534	0.266596
2131.18666	0.266906
2129.25799	0.267119
2127.32931	0.267317
2125.40064	0.267588
2123.47196	0.267850
2121.54328	0.268033
2119.61461	0.268210
2117.68593	0.268497
2115.75726	0.268861
2113.82858	0.269149
2111.89991	0.269358
2109.97123	0.269631
2108.04255	0.269950
2106.11388	0.270192
2104.18520	0.270400
2102.25653	0.270680
2100.32785	0.270988
2098.39918	0.271223
2096.47050	0.271423
2094.54182	0.271689
2092.61315	0.271949
2090.68447	0.272114
2088.75580	0.272315
2086.82712	0.272651
2084.89845	0.272991
2082.96977	0.273231
2081.04109	0.273488
2079.11242	0.273824
2077.18374	0.274111
2075.25507	0.274312
2073.32639	0.274550
2071.39772	0.274870
2069.46904	0.275136
2067.54036	0.275255
2065.61169	0.275384
2063.68301	0.275685
2061.75434	0.276071
2059.82566	0.276368
2057.89699	0.276591
2055.96831	0.276837
2054.03963	0.277068
2052.11096	0.277222
2050.18228	0.277402
2048.25361	0.277723
2046.32493	0.278071
2044.39626	0.278290
2042.46758	0.278454
2040.53890	0.278730
2038.61023	0.279080
2036.68155	0.279327
2034.75288	0.279490
2032.82420	0.279737
2030.89553	0.280045
2028.96685	0.280273
2027.03817	0.280459
2025.10950	0.280728
2023.18082	0.281033
2021.25215	0.281255
2019.32347	0.281420
2017.39480	0.281657
2015.46612	0.281951
2013.53744	0.282189
2011.60877	0.282439
2009.68009	0.282773
2007.75142	0.283065
2005.82274	0.283253
2003.89407	0.283482
2001.96539	0.283827
2000.03671	0.284158
1998.10804	0.284413
1996.17936	0.284656
1994.25069	0.284855
1992.32201	0.284982
1990.39334	0.285142
1988.46466	0.285381
1986.53598	0.285644
1984.60731	0.285892
1982.67863	0.286129
1980.74996	0.286380
1978.82128	0.286629
1976.89261	0.286815
1974.96393	0.286966
1973.03525	0.287197
1971.10658	0.287470
1969.17790	0.287631
1967.24923	0.287769
1965.32055	0.288074
1963.39188	0.288445
1961.46320	0.288676
1959.53452	0.288779
1957.60585	0.288939
1955.67717	0.289203
1953.74850	0.289442
1951.81982	0.289663
1949.89115	0.289955
1947.96247	0.290230
1946.03379	0.290364
1944.10512	0.290443
1942.17644	0.290694
1940.24777	0.291109
1938.31909	0.291440
1936.39042	0.291669
1934.46174	0.291921
1932.53306	0.292186
1930.60439	0.292421
1928.67571	0.292630
1926.74704	0.292843
1924.81836	0.293011
1922.88969	0.293085
1920.96101	0.293041
1919.03233	0.293060
1917.10366	0.293531
1915.17498	0.294250
1913.24631	0.294684
1911.31763	0.294893
1909.38896	0.295113
1907.46028	0.295330
1905.53160	0.295539
1903.60293	0.295790
1901.67425	0.296055
1899.74558	0.296216
1897.81690	0.296275
1895.88823	0.296445
1893.95955	0.296799
1892.03087	0.297095
1890.10220	0.297280
1888.17352	0.297549
1886.24485	0.297868
1884.31617	0.298110
1882.38750	0.298333
1880.45882	0.298604
1878.53014	0.298861
1876.60147	0.299048
1874.67279	0.299233
1872.74412	0.299337
1870.81544	0.299194
1868.88677	0.299143
1866.95809	0.299591
1865.02941	0.300245
1863.10074	0.300692
1861.17206	0.300944
1859.24339	0.301179
1857.31471	0.301490
1855.38604	0.301772
1853.45736	0.301977
1851.52868	0.302224
1849.60001	0.302465
1847.67133	0.302500
1845.74266	0.302440
1843.81398	0.302729
1841.88531	0.303371
1839.95663	0.303840
1838.02795	0.303987
1836.09928	0.304161
1834.17060	0.304421
1832.24193	0.304434
1830.31325	0.304331
1828.38458	0.304574
1826.45590	0.305014
1824.52722	0.305365
1822.59855	0.305741
1820.66987	0.306172
1818.74120	0.306505
1816.81252	0.306686
1814.88385	0.306766
1812.95517	0.306826
1811.02649	0.306969
1809.09782	0.307205
1807.16914	0.307464
1805.24047	0.307703
1803.31179	0.307804
1801.38312	0.307773
1799.45444	0.307853
1797.52576	0.308067
1795.59709	0.308047
1793.66841	0.307811
1791.73974	0.308058
1789.81106	0.308849
1787.88239	0.309281
1785.95371	0.309128
1784.02503	0.309059
1782.09636	0.309310
1780.16768	0.309678
1778.23901	0.310046
1776.31033	0.310217
1774.38166	0.310115
1772.45298	0.310040
1770.52430	0.310226
1768.59563	0.310611
1766.66695	0.311057
1764.73828	0.311207
1762.80960	0.310990
1760.88093	0.311001
1758.95225	0.311320
1757.02357	0.311571
1755.09490	0.311510
1753.16622	0.310851
1751.23755	0.310151
1749.30887	0.310206
1747.38020	0.310573
1745.45152	0.310661
1743.52284	0.310584
1741.59417	0.310501
1739.66549	0.310596
1737.73682	0.310779
1735.80814	0.310611
1733.87947	0.310529
1731.95079	0.311090
1730.02211	0.311800
1728.09344	0.312261
1726.16476	0.312483
1724.23609	0.312599
1722.30741	0.312710
1720.37874	0.312506
1718.45006	0.312093
1716.52138	0.312196
1714.59271	0.312896
1712.66403	0.313633
1710.73536	0.314097
1708.80668	0.314123
1706.87801	0.313825
1704.94933	0.313602
1703.02065	0.313231
1701.09198	0.312749
1699.16330	0.312935
1697.23463	0.313623
1695.30595	0.314230
1693.37728	0.314666
1691.44860	0.314767
1689.51992	0.314721
1687.59125	0.314565
1685.66257	0.314068
1683.73390	0.313883
1681.80522	0.314458
1679.87655	0.315036
1677.94787	0.314834
1676.01919	0.314273
1674.09052	0.314204
1672.16184	0.314413
1670.23317	0.314586
1668.30449	0.315062
1666.37582	0.315527
1664.44714	0.315400
1662.51846	0.315170
1660.58979	0.315431
1658.66111	0.315791
1656.73244	0.315441
1654.80376	0.314274
1652.87509	0.313618
1650.94641	0.314126
1649.01773	0.314573
1647.08906	0.314756
1645.16038	0.315417
1643.23171	0.316122
1641.30303	0.316302
1639.37436	0.316034
1637.44568	0.315673
1635.51700	0.315788
1633.58833	0.316422
1631.65965	0.316885
1629.73098	0.316851
1627.80230	0.316611
1625.87363	0.316207
1623.94495	0.315510
1622.01627	0.314910
1620.08760	0.314782
1618.15892	0.315115
1616.23025	0.316064
1614.30157	0.317392
1612.37290	0.318353
1610.44422	0.318821
1608.51554	0.319172
1606.58687	0.319584
1604.65819	0.319975
1602.72952	0.320306
1600.80084	0.320680
1598.87217	0.321074
1596.94349	0.321362
1595.01481	0.321547
1593.08614	0.321745
1591.15746	0.321999
1589.22879	0.322283
1587.30011	0.322547
1585.37144	0.322751
1583.44276	0.322963
1581.51408	0.323169
1579.58541	0.323020
1577.65673	0.322496
1575.72806	0.322547
1573.79938	0.323416
1571.87071	0.323968
1569.94203	0.324010
1568.01335	0.324232
1566.08468	0.324555
1564.15600	0.324582
1562.22733	0.323953
1560.29865	0.322997
1558.36998	0.323036
1556.44130	0.324265
1554.51262	0.325445
1552.58395	0.325956
1550.65527	0.326083
1548.72660	0.326079
1546.79792	0.325786
1544.86925	0.325189
1542.94057	0.324719
1541.01189	0.324806
1539.08322	0.325546
1537.15454	0.326304
1535.22587	0.326419
1533.29719	0.326488
1531.36852	0.327120
1529.43984	0.327643
1527.51116	0.327578
1525.58249	0.327235
1523.65381	0.326834
1521.72514	0.326773
1519.79646	0.327239
1517.86779	0.327644
1515.93911	0.327813
1514.01043	0.328043
1512.08176	0.328096
1510.15308	0.327448
1508.22441	0.326510
1506.29573	0.326725
1504.36706	0.328134
1502.43838	0.329043
1500.50970	0.328832
1498.58103	0.328300
1496.65235	0.328198
1494.72368	0.328561
1492.79500	0.328713
1490.86633	0.328397
1488.93765	0.328178
1487.00897	0.328344
1485.08030	0.328585
1483.15162	0.328605
1481.22295	0.328385
1479.29427	0.327880
1477.36560	0.327003
1475.43692	0.325966
1473.50824	0.325220
1471.57957	0.325026
1469.65089	0.325042
1467.72222	0.324674
1465.79354	0.324079
1463.86487	0.323882
1461.93619	0.323777
1460.00751	0.322918
1458.07884	0.321821
1456.15016	0.321826
1454.22149	0.322785
1452.29281	0.323526
1450.36414	0.323673
1448.43546	0.323613
1446.50678	0.323789
1444.57811	0.324214
1442.64943	0.324589
1440.72076	0.324704
1438.79208	0.324514
1436.86341	0.324427
1434.93473	0.324830
1433.00605	0.325354
1431.07738	0.325647
1429.14870	0.325895
1427.22003	0.326056
1425.29135	0.325983
1423.36268	0.325758
1421.43400	0.325187
1419.50532	0.324651
1417.57665	0.325020
1415.64797	0.325832
1413.71930	0.326247
1411.79062	0.326353
1409.86195	0.326371
1407.93327	0.326303
1406.00459	0.326209
1404.07592	0.326248
1402.14724	0.326367
1400.21857	0.326369
1398.28989	0.326264
1396.36122	0.326176
1394.43254	0.326290
1392.50386	0.326604
1390.57519	0.326690
1388.64651	0.326269
1386.71784	0.325704
1384.78916	0.325524
1382.86049	0.325712
1380.93181	0.325915
1379.00313	0.325971
1377.07446	0.325825
1375.14578	0.325554
1373.21711	0.325525
1371.28843	0.325788
1369.35976	0.325969
1367.43108	0.325965
1365.50240	0.325773
1363.57373	0.325510
1361.64505	0.325554
1359.71638	0.325881
1357.78770	0.326176
1355.85903	0.326357
1353.93035	0.326510
1352.00167	0.326706
1350.07300	0.326939
1348.14432	0.327212
1346.21565	0.327496
1344.28697	0.327621
1342.35830	0.327463
1340.42962	0.327216
1338.50094	0.327207
1336.57227	0.327398
1334.64359	0.327499
1332.71492	0.327427
1330.78624	0.327266
1328.85757	0.327042
1326.92889	0.326788
1325.00021	0.326566
1323.07154	0.326343
1321.14286	0.326017
1319.21419	0.325624
1317.28551	0.325293
1315.35684	0.325002
1313.42816	0.324681
1311.49948	0.324360
1309.57081	0.324043
1307.64213	0.323681
1305.71346	0.323259
1303.78478	0.322801
1301.85611	0.322322
1299.92743	0.321877
1297.99875	0.321554
1296.07008	0.321312
1294.14140	0.321017
1292.21273	0.320619
1290.28405	0.320204
1288.35538	0.319831
1286.42670	0.319427
1284.49802	0.318884
1282.56935	0.318191
1280.64067	0.317402
1278.71200	0.316424
1276.78332	0.315070
1274.85465	0.313278
1272.92597	0.311139
1270.99729	0.308765
1269.06862	0.306211
1267.13994	0.303548
1265.21127	0.300989
1263.28259	0.298889
1261.35392	0.297586
1259.42524	0.297323
1257.49656	0.297964
1255.56789	0.298855
1253.63921	0.299640
1251.71054	0.300570
1249.78186	0.301751
1247.85319	0.302806
1245.92451	0.303331
1243.99583	0.303311
1242.06716	0.302965
1240.13848	0.302405
1238.20981	0.301638
1236.28113	0.300760
1234.35246	0.299854
1232.42378	0.298866
1230.49510	0.297771
1228.56643	0.296720
1226.63775	0.295873
1224.70908	0.295117
1222.78040	0.294266
1220.85173	0.293328
1218.92305	0.292391
1216.99437	0.291485
1215.06570	0.290554
1213.13702	0.289581
1211.20835	0.288610
1209.27967	0.287620
1207.35100	0.286581
1205.42232	0.285522
1203.49364	0.284463
1201.56497	0.283375
1199.63629	0.282255
1197.70762	0.281116
1195.77894	0.280002
1193.85027	0.278929
1191.92159	0.277800
1189.99291	0.276570
1188.06424	0.275287
1186.13556	0.273958
1184.20689	0.272561
1182.27821	0.271108
1180.34954	0.269613
1178.42086	0.268068
1176.49218	0.266520
1174.56351	0.265024
1172.63483	0.263537
1170.70616	0.261968
1168.77748	0.260259
1166.84881	0.258466
1164.92013	0.256764
1162.99145	0.255219
1161.06278	0.253709
1159.13410	0.252156
1157.20543	0.250551
1155.27675	0.248940
1153.34808	0.247415
1151.41940	0.245976
1149.49072	0.244541
1147.56205	0.242999
1145.63337	0.241336
1143.70470	0.239690
1141.77602	0.238076
1139.84735	0.236323
1137.91867	0.234334
1135.98999	0.232139
1134.06132	0.229741
1132.13264	0.227059
1130.20397	0.223991
1128.27529	0.220513
1126.34662	0.216738
1124.41794	0.212814
1122.48926	0.208857
1120.56059	0.204993
1118.63191	0.201337
1116.70324	0.197989
1114.77456	0.195034
1112.84589	0.192492
1110.91721	0.190329
1108.98853	0.188517
1107.05986	0.187127
1105.13118	0.186237
1103.20251	0.185838
1101.27383	0.185881
1099.34516	0.186273
1097.41648	0.186942
1095.48780	0.187830
1093.55913	0.188829
1091.63045	0.189847
1089.70178	0.190826
1087.77310	0.191704
1085.84443	0.192417
1083.91575	0.192915
1081.98707	0.193220
1080.05840	0.193432
1078.12972	0.193562
1076.20105	0.193539
1074.27237	0.193463
1072.34370	0.193449
1070.41502	0.193441
1068.48634	0.193403
1066.55767	0.193384
1064.62899	0.193399
1062.70032	0.193391
1060.77164	0.193347
1058.84297	0.193357
1056.91429	0.193467
1054.98561	0.193644
1053.05694	0.193875
1051.12826	0.194114
1049.19959	0.194250
1047.27091	0.194363
1045.34224	0.194657
1043.41356	0.195052
1041.48488	0.195358
1039.55621	0.195621
1037.62753	0.195955
1035.69886	0.196357
1033.77018	0.196808
1031.84151	0.197316
1029.91283	0.197901
1027.98415	0.198555
1026.05548	0.199270
1024.12680	0.200130
1022.19813	0.201215
1020.26945	0.202517
1018.34078	0.204041
1016.41210	0.205831
1014.48342	0.207820
1012.55475	0.209879
1010.62607	0.212041
1008.69740	0.214351
1006.76872	0.216614
1004.84005	0.218634
1002.91137	0.220429
1000.98269	0.222069
999.05402	0.223602
997.12534	0.225026
995.19667	0.226210
993.26799	0.227100
991.33932	0.227857
989.41064	0.228613
987.48196	0.229331
985.55329	0.229983
983.62461	0.230570
981.69594	0.231016
979.76726	0.231337
977.83859	0.231595
975.90991	0.231743
973.98123	0.231816
972.05256	0.231861
970.12388	0.231799
968.19521	0.231620
966.26653	0.231475
964.33786	0.231446
962.40918	0.231394
960.48050	0.231212
958.55183	0.230957
956.62315	0.230680
954.69448	0.230402
952.76580	0.230148
950.83713	0.229883
948.90845	0.229536
946.97977	0.229090
945.05110	0.228549
943.12242	0.227916
941.19375	0.227215
939.26507	0.226458
937.33640	0.225598
935.40772	0.224621
933.47904	0.223643
931.55037	0.222689
929.62169	0.221662
927.69302	0.220574
925.76434	0.219464
923.83567	0.218324
921.90699	0.217181
919.97831	0.216013
918.04964	0.214735
916.12096	0.213351
914.19229	0.211875
912.26361	0.210317
910.33494	0.208816
908.40626	0.207463
906.47758	0.206211
904.54891	0.205012
902.62023	0.203871
900.69156	0.202816
898.76288	0.201845
896.83421	0.200917
894.90553	0.200033
892.97685	0.199219
891.04818	0.198423
889.11950	0.197652
887.19083	0.196941
885.26215	0.196188
883.33348	0.195343
881.40480	0.194516
879.47612	0.193773
877.54745	0.193035
875.61877	0.192271
873.69010	0.191604
871.76142	0.191036
869.83275	0.190434
867.90407	0.189807
865.97539	0.189252
864.04672	0.188783
862.11804	0.188404
860.18937	0.188095
858.26069	0.187709
856.33202	0.187080
854.40334	0.186236
852.47466	0.185343
850.54599	0.184438
848.61731	0.183450
846.68864	0.182425
844.75996	0.181517
842.83129	0.180885
840.90261	0.180559
838.97394	0.180431
837.04526	0.180318
835.11658	0.180058
833.18791	0.179574
831.25923	0.178812
829.33056	0.177787
827.40188	0.176571
825.47321	0.175247
823.54453	0.173898
821.61585	0.172629
819.68718	0.171584
817.75850	0.170669
815.82983	0.169706
813.90115	0.168771
811.97248	0.167956
810.04380	0.167159
808.11512	0.166285
806.18645	0.165460
804.25777	0.164755
802.32910	0.163992
800.40042	0.163090
798.47175	0.162161
796.54307	0.161406
794.61439	0.161047
792.68572	0.161082
790.75704	0.161310
788.82837	0.161616
786.89969	0.161962
784.97102	0.162295
783.04234	0.162603
781.11366	0.162813
779.18499	0.162853
777.25631	0.162823
775.32764	0.162860
773.39896	0.162891
771.47029	0.162681
769.54161	0.162252
767.61293	0.161796
765.68426	0.161309
763.75558	0.160725
761.82691	0.160095
759.89823	0.159459
757.96956	0.158780
756.04088	0.158114
754.11220	0.157564
752.18353	0.157042
750.25485	0.156415
748.32618	0.155640
746.39750	0.154701
744.46883	0.153595
742.54015	0.152385
740.61147	0.151340
738.68280	0.150724
736.75412	0.150550
734.82545	0.150636
732.89677	0.150761
730.96810	0.150883
729.03942	0.151033
727.11074	0.151228
725.18207	0.151542
723.25339	0.151953
721.32472	0.152379
719.39604	0.152790
717.46737	0.153237
715.53869	0.153838
713.61001	0.154631
711.68134	0.155445
709.75266	0.155994
707.82399	0.156161
705.89531	0.156028
703.96664	0.155786
702.03796	0.155519
700.10928	0.155045
698.18061	0.154216
696.25193	0.153251
694.32326	0.152508
692.39458	0.151969
690.46591	0.151362
688.53723	0.150665
686.60855	0.150023
684.67988	0.149407
682.75120	0.148764
680.82253	0.148118
678.89385	0.147357
676.96518	0.146414
675.03650	0.145396
673.10782	0.144368
671.17915	0.143122
669.25047	0.141569
667.32180	0.140263
665.39312	0.139434
663.46445	0.138558
661.53577	0.137402
659.60709	0.136146
657.67842	0.134952
655.74974	0.133842
653.82107	0.132691
651.89239	0.131440
649.96372	0.130187
648.03504	0.128955
646.10636	0.127626
644.17769	0.126125
642.24901	0.124482
640.32034	0.122791
638.39166	0.121094
636.46299	0.119397
634.53431	0.117531
632.60563	0.114997
630.67696	0.110972
628.74828	0.104786
626.81961	0.097071
624.89093	0.089423
622.96226	0.083360
621.03358	0.079775
619.10490	0.078001
617.17623	0.076739
615.24755	0.075369
613.31888	0.073641
611.39020	0.071899
609.46153	0.070947
607.53285	0.071017
605.60417	0.071666
603.67550	0.072575
601.74682	0.073851
599.81815	0.075460
597.88947	0.077069
595.96080	0.078372
594.03212	0.079193
592.10344	0.079533
590.17477	0.079554
588.24609	0.079377
586.31742	0.079093
584.38874	0.078815
582.46007	0.078517
580.53139	0.077994
578.60271	0.077090
576.67404	0.075945
574.74536	0.074825
572.81669	0.073739
570.88801	0.072673
568.95934	0.071817
567.03066	0.071149
565.10198	0.070474
563.17331	0.069826
561.24463	0.069271
559.31596	0.068767
557.38728	0.068290
555.45861	0.067867
553.52993	0.067583
551.60125	0.067368
549.67258	0.067041
547.74390	0.066672
545.81523	0.066443
543.88655	0.066273
541.95788	0.065929
540.02920	0.065383
538.10052	0.064827
536.17185	0.064395
534.24317	0.064013
532.31450	0.063569
530.38582	0.063070
528.45715	0.062608
526.52847	0.062200
524.59979	0.061676
522.67112	0.060947
520.74244	0.060125
518.81377	0.059199
516.88509	0.058164
514.95642	0.057180
513.02774	0.056415
511.09906	0.055992
509.17039	0.055737
507.24171	0.055346
505.31304	0.054830
503.38436	0.054289
501.45569	0.053652
499.52701	0.052744
497.59833	0.051615
495.66966	0.050538
493.74098	0.049565
491.81231	0.048619
489.88363	0.047713
487.95496	0.046814
486.02628	0.045857
484.09760	0.044911
482.16893	0.044118
480.24025	0.043471
478.31158	0.042712
476.38290	0.041618
474.45423	0.040437
472.52555	0.039544
470.59687	0.038890
468.66820	0.038348
466.73952	0.037939
464.81085	0.037626
462.88217	0.037266
460.95350	0.036813
459.02482	0.036463
457.09614	0.036346
455.16747	0.036402
453.23879	0.036518
451.31012	0.036613
449.38144	0.036581
447.45277	0.036254
445.52409	0.035769
443.59541	0.035471
441.66674	0.035235
439.73806	0.034709
437.80939	0.033923
435.88071	0.033121
433.95204	0.032374
432.02336	0.031644
430.09468	0.030857
428.16601	0.029905
426.23733	0.028806
424.30866	0.027697
422.37998	0.026524
420.45131	0.025132
418.52263	0.023763
416.59395	0.022749
414.66528	0.021931
412.73660	0.021052
410.80793	0.020159
408.87925	0.019323
406.95058	0.018433
405.02190	0.017381
403.09322	0.016243
401.16455	0.015162
399.23587	0.014210
397.30720	0.013372
395.37852	0.012604
393.44985	0.011875
391.52117	0.011147
389.59249	0.010423
387.66382	0.009677
385.73514	0.008910
383.80647	0.008257
381.87779	0.007697
379.94912	0.007143
378.02044	0.006630
376.09176	0.006072
374.16309	0.005430
372.23441	0.004873
370.30574	0.004472
368.37706	0.004151
