PE UV                   SPECTRUM    ASCII       PEDS        1.60        
  -1
S19_08.SP
12/04/05
07:52:35.00
12/04/05
07:54:04.00


190.000000
1









4444

SCAN
1
1


0.0
1920.0
2.00
MANUAL



UV/VIS




































#HDR
-1
-1
#GR
NM
%R
0.00002384185791015625
0.0
1000.000000
1.000000
811
8
143.041000
25.776000
#DATA
1000.000000	49.707000  
999.000000	 49.070000  
998.000000	 48.532000  
997.000000	 48.866000  
996.000000	 48.727000  
995.000000	 48.812000  
994.000000	 48.569000  
993.000000	 48.890000  
992.000000	 48.603000  
991.000000	 48.002000  
990.000000	 48.204000  
989.000000	 48.442000  
988.000000	 48.161000  
987.000000	 48.014000  
986.000000	 47.982000  
985.000000	 47.937000  
984.000000	 47.690000  
983.000000	 47.402000  
982.000000	 47.353000  
981.000000	 47.500000  
980.000000	 47.519000  
979.000000	 47.593000  
978.000000	 47.256000  
977.000000	 47.129000  
976.000000	 46.753000  
975.000000	 47.089000  
974.000000	 46.703000  
973.000000	 46.937000  
972.000000	 46.770000  
971.000000	 46.883000  
970.000000	 46.483000  
969.000000	 46.474000  
968.000000	 46.555000  
967.000000	 46.047000  
966.000000	 46.016000  
965.000000	 46.078000  
964.000000	 45.980000  
963.000000	 45.744000  
962.000000	 46.372000  
961.000000	 45.984000  
960.000000	 45.972000  
959.000000	 45.638000  
958.000000	 45.770000  
957.000000	 45.621000  
956.000000	 45.418000  
955.000000	 45.436000  
954.000000	 45.425000  
953.000000	 45.249000  
952.000000	 45.190000  
951.000000	 44.974000  
950.000000	 44.883000  
949.000000	 44.787000  
948.000000	 44.583000  
947.000000	 44.606000  
946.000000	 44.649000  
945.000000	 44.692000  
944.000000	 44.663000  
943.000000	 44.608000  
942.000000	 44.491000  
941.000000	 44.371000  
940.000000	 44.101000  
939.000000	 44.025000  
938.000000	 43.968000  
937.000000	 43.832000  
936.000000	 43.892000  
935.000000	 43.780000  
934.000000	 43.671000  
933.000000	 43.633000  
932.000000	 43.502000  
931.000000	 43.120000  
930.000000	 43.104000  
929.000000	 43.152000  
928.000000	 43.325000  
927.000000	 43.146000  
926.000000	 42.938000  
925.000000	 42.790000  
924.000000	 42.775000  
923.000000	 42.583000  
922.000000	 42.507000  
921.000000	 42.544000  
920.000000	 42.560000  
919.000000	 42.331000  
918.000000	 42.254000  
917.000000	 42.218000  
916.000000	 42.083000  
915.000000	 41.997000  
914.000000	 41.875000  
913.000000	 41.784000  
912.000000	 41.665000  
911.000000	 41.780000  
910.000000	 41.139000  
909.000000	 40.999000  
908.000000	 41.002000  
907.000000	 41.006000  
906.000000	 40.918000  
905.000000	 40.853000  
904.000000	 40.987000  
903.000000	 41.015000  
902.000000	 41.001000  
901.000000	 41.246000  
900.000000	 41.043000  
899.000000	 40.713000  
898.000000	 40.460000  
897.000000	 40.274000  
896.000000	 40.215000  
895.000000	 40.139000  
894.000000	 39.981000  
893.000000	 39.906000  
892.000000	 39.967000  
891.000000	 39.945000  
890.000000	 40.006000  
889.000000	 39.911000  
888.000000	 40.099000  
887.000000	 39.674000  
886.000000	 39.491000  
885.000000	 39.622000  
884.000000	 39.334000  
883.000000	 39.851000  
882.000000	 39.643000  
881.000000	 39.422000  
880.000000	 39.832000  
879.000000	 39.478000  
878.000000	 38.589000  
877.000000	 38.585000  
876.000000	 38.686000  
875.000000	 38.700000  
874.000000	 38.327000  
873.000000	 38.296000  
872.000000	 38.524000  
871.000000	 38.137000  
870.000000	 38.071000  
869.000000	 37.846000  
868.000000	 37.703000  
867.000000	 37.528000  
866.000000	 37.961000  
865.000000	 38.014000  
864.000000	 37.093000  
863.000000	 37.152000  
862.000000	 37.072000  
861.000000	 37.033000  
860.000000	 36.909000  
859.000000	 37.114999  
858.000000	 37.166000  
857.000000	 37.312000  
856.000000	 37.371000  
855.000000	 37.211000  
854.000000	 36.752000  
853.000000	 36.724000  
852.000000	 36.197000  
851.000000	 36.483000  
850.000000	 36.517000  
849.000000	 36.222000  
848.000000	 36.120000  
847.000000	 36.354000  
846.000000	 36.136000  
845.000000	 36.045000  
844.000000	 35.674000  
843.000000	 35.819000  
842.000000	 36.017000  
841.000000	 35.636000  
840.000000	 35.815000  
839.000000	 35.799000  
838.000000	 35.350000  
837.000000	 35.072000  
836.000000	 34.953000  
835.000000	 35.280000  
834.000000	 34.862000  
833.000000	 35.046000  
832.000000	 34.565000  
831.000000	 35.130000  
830.000000	 34.790000  
829.000000	 34.622000  
828.000000	 34.800000  
827.000000	 34.669000  
826.000000	 34.788000  
825.000000	 34.472000  
824.000000	 34.057000  
823.000000	 33.894000  
822.000000	 34.328000  
821.000000	 34.168000  
820.000000	 34.278000  
819.000000	 33.975000  
818.000000	 33.826000  
817.000000	 33.582000  
816.000000	 33.330000  
815.000000	 33.403000  
814.000000	 33.349000  
813.000000	 33.344000  
812.000000	 33.396000  
811.000000	 33.289000  
810.000000	 33.214000  
809.000000	 33.002000  
808.000000	 32.736000  
807.000000	 32.762000  
806.000000	 32.815000  
805.000000	 32.944000  
804.000000	 32.811000  
803.000000	 32.657000  
802.000000	 32.453000  
801.000000	 32.093000  
800.000000	 32.092000  
799.000000	 32.161000  
798.000000	 32.199000  
797.000000	 32.236000  
796.000000	 32.157000  
795.000000	 31.951000  
794.000000	 32.034000  
793.000000	 31.971000  
792.000000	 31.589000  
791.000000	 31.619000  
790.000000	 31.278000  
789.000000	 31.165000  
788.000000	 31.352000  
787.000000	 31.490000  
786.000000	 31.216000  
785.000000	 31.281000  
784.000000	 31.151000  
783.000000	 31.088000  
782.000000	 30.739000  
781.000000	 30.664000  
780.000000	 30.768000  
779.000000	 30.793000  
778.000000	 30.678000  
777.000000	 30.529000  
776.000000	 30.591000  
775.000000	 30.565000  
774.000000	 30.370000  
773.000000	 30.450000  
772.000000	 30.485000  
771.000000	 30.139000  
770.000000	 30.043000  
769.000000	 29.997000  
768.000000	 29.954000  
767.000000	 29.855000  
766.000000	 29.756000  
765.000000	 29.679000  
764.000000	 29.379000  
763.000000	 29.271000  
762.000000	 29.360000  
761.000000	 29.503000  
760.000000	 29.493000  
759.000000	 29.364000  
758.000000	 29.201000  
757.000000	 29.056000  
756.000000	 29.036000  
755.000000	 29.053000  
754.000000	 29.066000  
753.000000	 28.976000  
752.000000	 28.866000  
751.000000	 28.875000  
750.000000	 28.690000  
749.000000	 28.641000  
748.000000	 28.496000  
747.000000	 28.508000  
746.000000	 28.223000  
745.000000	 28.294000  
744.000000	 28.326000  
743.000000	 28.365000  
742.000000	 28.393000  
741.000000	 28.330000  
740.000000	 28.275000  
739.000000	 28.012000  
738.000000	 27.937000  
737.000000	 27.987000  
736.000000	 27.776000  
735.000000	 27.860000  
734.000000	 27.868000  
733.000000	 27.818000  
732.000000	 27.650000  
731.000000	 27.577000  
730.000000	 27.616000  
729.000000	 27.452000  
728.000000	 27.326000  
727.000000	 27.367000  
726.000000	 27.391000  
725.000000	 27.347000  
724.000000	 27.313000  
723.000000	 27.298000  
722.000000	 27.213000  
721.000000	 27.092000  
720.000000	 27.093000  
719.000000	 26.973000  
718.000000	 26.935000  
717.000000	 26.995000  
716.000000	 27.040000  
715.000000	 26.882000  
714.000000	 26.790000  
713.000000	 26.801000  
712.000000	 26.719000  
711.000000	 26.635000  
710.000000	 26.605000  
709.000000	 26.594000  
708.000000	 26.775000  
707.000000	 26.801000  
706.000000	 26.687000  
705.000000	 26.603000  
704.000000	 26.354000  
703.000000	 26.413000  
702.000000	 26.442000  
701.000000	 26.370000  
700.000000	 26.470000  
699.000000	 26.344000  
698.000000	 26.331000  
697.000000	 26.304000  
696.000000	 26.251000  
695.000000	 26.192000  
694.000000	 26.043000  
693.000000	 26.108000  
692.000000	 26.205000  
691.000000	 26.082000  
690.000000	 26.091000  
689.000000	 26.203000  
688.000000	 26.133000  
687.000000	 26.069000  
686.000000	 26.124000  
685.000000	 26.070000  
684.000000	 25.898000  
683.000000	 25.974000  
682.000000	 26.010000  
681.000000	 25.979000  
680.000000	 25.963000  
679.000000	 25.884000  
678.000000	 25.790000  
677.000000	 25.783000  
676.000000	 25.776000  
675.000000	 25.784000  
674.000000	 25.878000  
673.000000	 25.968000  
672.000000	 25.945000  
671.000000	 25.881000  
670.000000	 25.878000  
669.000000	 26.060000  
668.000000	 25.930000  
667.000000	 25.953000  
666.000000	 25.841000  
665.000000	 25.809000  
664.000000	 25.974000  
663.000000	 25.790000  
662.000000	 25.796000  
661.000000	 25.916000  
660.000000	 26.024000  
659.000000	 26.114000  
658.000000	 25.990000  
657.000000	 26.004000  
656.000000	 25.960000  
655.000000	 25.899000  
654.000000	 26.043000  
653.000000	 25.937000  
652.000000	 26.081000  
651.000000	 26.200000  
650.000000	 26.271000  
649.000000	 26.221000  
648.000000	 26.175000  
647.000000	 26.262000  
646.000000	 26.224000  
645.000000	 26.282000  
644.000000	 26.374000  
643.000000	 26.440000  
642.000000	 26.455000  
641.000000	 26.471000  
640.000000	 26.654000  
639.000000	 26.602000  
638.000000	 26.521000  
637.000000	 26.590000  
636.000000	 26.696000  
635.000000	 26.758000  
634.000000	 26.864000  
633.000000	 26.944000  
632.000000	 27.037000  
631.000000	 26.947000  
630.000000	 26.922000  
629.000000	 27.123000  
628.000000	 27.088000  
627.000000	 27.210000  
626.000000	 27.327000  
625.000000	 27.370000  
624.000000	 27.478000  
623.000000	 27.600000  
622.000000	 27.612000  
621.000000	 27.539000  
620.000000	 27.477000  
619.000000	 27.712000  
618.000000	 27.799000  
617.000000	 27.989000  
616.000000	 28.100000  
615.000000	 28.248000  
614.000000	 28.234000  
613.000000	 28.228000  
612.000000	 28.389000  
611.000000	 28.454000  
610.000000	 28.471000  
609.000000	 28.681000  
608.000000	 28.861000  
607.000000	 28.851000  
606.000000	 29.080000  
605.000000	 29.098000  
604.000000	 29.211000  
603.000000	 29.215000  
602.000000	 29.357000  
601.000000	 29.473000  
600.000000	 29.546000  
599.000000	 29.700000  
598.000000	 29.899000  
597.000000	 30.001000  
596.000000	 30.096000  
595.000000	 30.177000  
594.000000	 30.235000  
593.000000	 30.347000  
592.000000	 30.460000  
591.000000	 30.740000  
590.000000	 30.849000  
589.000000	 30.963000  
588.000000	 31.150000  
587.000000	 31.265000  
586.000000	 31.427000  
585.000000	 31.624000  
584.000000	 31.724000  
583.000000	 31.855000  
582.000000	 32.101000  
581.000000	 32.267000  
580.000000	 32.331000  
579.000000	 32.539000  
578.000000	 32.640000  
577.000000	 32.746000  
576.000000	 32.961000  
575.000000	 33.098000  
574.000000	 33.311000  
573.000000	 33.520000  
572.000000	 33.704000  
571.000000	 33.869000  
570.000000	 34.070000  
569.000000	 34.296000  
568.000000	 34.364000  
567.000000	 34.556000  
566.000000	 34.708000  
565.000000	 34.962000  
564.000000	 35.187000  
563.000000	 35.448000  
562.000000	 35.624000  
561.000000	 35.785000  
560.000000	 36.027000  
559.000000	 36.181000  
558.000000	 36.401000  
557.000000	 36.660000  
556.000000	 36.990000  
555.000000	 37.186000  
554.000000	 37.382000  
553.000000	 37.629000  
552.000000	 37.872000  
551.000000	 38.071000  
550.000000	 38.321000  
549.000000	 38.629000  
548.000000	 38.882000  
547.000000	 39.070000  
546.000000	 39.289000  
545.000000	 39.489999  
544.000000	 39.631000  
543.000000	 39.850000  
542.000000	 40.191000  
541.000000	 40.489000  
540.000000	 40.733999  
539.000000	 41.060000  
538.000000	 41.364000  
537.000000	 41.582000  
536.000000	 41.828000  
535.000000	 42.040000  
534.000000	 42.323000  
533.000000	 42.613000  
532.000000	 42.812000  
531.000000	 43.146000  
530.000000	 43.511000  
529.000000	 43.746000  
528.000000	 44.054000  
527.000000	 44.359000  
526.000000	 44.641000  
525.000000	 44.982000  
524.000000	 45.336000  
523.000000	 45.554000  
522.000000	 45.926000  
521.000000	 46.316000  
520.000000	 46.591000  
519.000000	 46.864000  
518.000000	 47.162000  
517.000000	 47.519000  
516.000000	 47.792000  
515.000000	 47.979000  
514.000000	 48.369000  
513.000000	 48.718000  
512.000000	 49.046000  
511.000000	 49.301000  
510.000000	 49.678000  
509.000000	 50.001000  
508.000000	 50.363000  
507.000000	 50.605999  
506.000000	 50.907000  
505.000000	 51.341000  
504.000000	 51.827000  
503.000000	 52.041000  
502.000000	 52.434000  
501.000000	 52.886999  
500.000000	 53.059000  
499.000000	 53.361999  
498.000000	 53.788000  
497.000000	 54.237000  
496.000000	 54.587000  
495.000000	 54.910000  
494.000000	 55.301999  
493.000000	 55.725000  
492.000000	 56.141000  
491.000000	 56.481000  
490.000000	 56.782999  
489.000000	 57.048000  
488.000000	 57.426999  
487.000000	 57.981000  
486.000000	 58.357000  
485.000000	 58.762000  
484.000000	 59.350000  
483.000000	 59.687000  
482.000000	 59.726000  
481.000000	 60.124999  
480.000000	 60.526000  
479.000000	 61.097000  
478.000000	 61.551999  
477.000000	 61.883999  
476.000000	 62.426000  
475.000000	 62.771000  
474.000000	 63.040000  
473.000000	 63.361000  
472.000000	 63.720000  
471.000000	 64.188000  
470.000000	 64.764000  
469.000000	 65.081000  
468.000000	 65.512000  
467.000000	 65.881999  
466.000000	 66.297000  
465.000000	 66.649999  
464.000000	 67.042999  
463.000000	 67.482000  
462.000000	 67.934000  
461.000000	 68.455000  
460.000000	 68.958000  
459.000000	 69.503000  
458.000000	 69.738999  
457.000000	 69.955000  
456.000000	 70.480000  
455.000000	 70.986999  
454.000000	 71.348000  
453.000000	 71.750000  
452.000000	 72.158999  
451.000000	 72.700000  
450.000000	 73.078000  
449.000000	 73.512999  
448.000000	 73.941999  
447.000000	 74.231000  
446.000000	 74.644000  
445.000000	 75.270000  
444.000000	 75.508000  
443.000000	 76.102000  
442.000000	 76.474000  
441.000000	 77.084000  
440.000000	 77.307000  
439.000000	 77.851000  
438.000000	 78.351000  
437.000000	 78.648000  
436.000000	 79.053000  
435.000000	 79.762999  
434.000000	 80.223000  
433.000000	 80.905000  
432.000000	 80.810000  
431.000000	 81.247000  
430.000000	 81.646000  
429.000000	 82.150000  
428.000000	 82.564000  
427.000000	 82.891000  
426.000000	 83.489000  
425.000000	 83.650000  
424.000000	 84.033000  
423.000000	 84.111000  
422.000000	 84.898000  
421.000000	 85.485000  
420.000000	 85.700000  
419.000000	 85.934999  
418.000000	 86.605000  
417.000000	 87.496000  
416.000000	 87.575999  
415.000000	 87.843999  
414.000000	 88.294000  
413.000000	 88.578000  
412.000000	 88.901000  
411.000000	 89.449000  
410.000000	 89.712000  
409.000000	 89.806000  
408.000000	 90.319000  
407.000000	 90.964999  
406.000000	 91.378000  
405.000000	 91.822000  
404.000000	 92.140000  
403.000000	 92.322999  
402.000000	 92.995000  
401.000000	 93.203000  
400.000000	 93.322000  
399.000000	 93.542000  
398.000000	 94.193000  
397.000000	 94.777000  
396.000000	 95.402000  
395.000000	 95.579000  
394.000000	 95.828999  
393.000000	 95.998000  
392.000000	 96.197000  
391.000000	 96.521000  
390.000000	 96.970000  
389.000000	 97.190000  
388.000000	 97.704000  
387.000000	 98.295000  
386.000000	 98.197000  
385.000000	 98.544000  
384.000000	 99.205000  
383.000000	 99.236999  
382.000000	 98.575000  
381.000000	 98.928000  
380.000000	 99.955000  
379.000000	 98.931000  
378.000000	 99.526000  
377.000000	 100.864000 
376.000000	 100.530000 
375.000000	 100.311000 
374.000000	 100.298000 
373.000000	 100.285000 
372.000000	 100.296000 
371.000000	 101.029000 
370.000000	 100.609000 
369.000000	 100.328000 
368.000000	 99.932000  
367.000000	 100.261000 
366.000000	 100.790000 
365.000000	 100.733000 
364.000000	 100.139000 
363.000000	 100.632000 
362.000000	 101.243000 
361.000000	 101.087000 
360.000000	 100.151000 
359.000000	 101.043000 
358.000000	 100.382000 
357.000000	 100.129000 
356.000000	 100.523000 
355.000000	 100.974000 
354.000000	 100.567000 
353.000000	 101.581000 
352.000000	 101.770000 
351.000000	 100.627000 
350.000000	 100.639000 
349.000000	 101.110000 
348.000000	 101.325000 
347.000000	 101.175000 
346.000000	 101.970000 
345.000000	 101.579000 
344.000000	 101.059000 
343.000000	 101.300000 
342.000000	 101.614000 
341.000000	 101.686000 
340.000000	 101.214000 
339.000000	 101.973000 
338.000000	 102.540000 
337.000000	 102.642000 
336.000000	 102.309000 
335.000000	 101.388000 
334.000000	 101.483000 
333.000000	 101.372000 
332.000000	 101.011000 
331.000000	 101.950000 
330.000000	 101.859000 
329.000000	 101.447000 
328.000000	 100.469000 
327.000000	 101.359000 
326.000000	 102.335000 
325.000000	 101.729000 
324.000000	 101.458000 
323.000000	 101.087000 
322.000000	 100.683000 
321.000000	 100.574000 
320.000000	 100.777000 
319.000000	 100.447000 
318.000000	 100.362000 
317.000000	 99.951000  
316.000000	 99.871000  
315.000000	 99.465000  
314.000000	 99.114000  
313.000000	 99.262000  
312.000000	 98.925000  
311.000000	 98.428000  
310.000000	 97.765000  
309.000000	 97.985999  
308.000000	 97.780000  
307.000000	 96.950999  
306.000000	 97.043000  
305.000000	 96.847000  
304.000000	 97.060999  
303.000000	 95.994000  
302.000000	 95.529000  
301.000000	 95.486999  
300.000000	 94.798000  
299.000000	 94.391000  
298.000000	 93.837999  
297.000000	 93.839000  
296.000000	 93.617999  
295.000000	 93.430000  
294.000000	 92.970000  
293.000000	 92.343000  
292.000000	 91.779000  
291.000000	 91.341000  
290.000000	 90.999000  
289.000000	 90.792000  
288.000000	 90.048000  
287.000000	 89.188000  
286.000000	 88.818000  
285.000000	 88.217999  
284.000000	 87.424000  
283.000000	 87.048000  
282.000000	 87.048999  
281.000000	 86.535000  
280.000000	 85.753999  
279.000000	 85.257000  
278.000000	 84.693000  
277.000000	 83.848999  
276.000000	 82.998000  
275.000000	 82.336000  
274.000000	 82.028000  
273.000000	 81.376000  
272.000000	 80.250999  
271.000000	 79.964000  
270.000000	 78.967000  
269.000000	 78.048000  
268.000000	 76.887000  
267.000000	 76.241000  
266.000000	 75.232000  
265.000000	 73.977999  
264.000000	 73.197999  
263.000000	 72.517000  
262.000000	 71.425000  
261.000000	 70.662000  
260.000000	 70.340999  
259.000000	 68.586000  
258.000000	 67.788000  
257.000000	 67.024000  
256.000000	 66.212000  
255.000000	 65.703999  
254.000000	 64.889000  
253.000000	 64.386000  
252.000000	 63.781000  
251.000000	 62.305000  
250.000000	 62.302000  
249.000000	 62.100000  
248.000000	 62.025000  
247.000000	 61.748000  
246.000000	 61.544000  
245.000000	 61.324000  
244.000000	 61.280000  
243.000000	 61.767000  
242.000000	 61.948000  
241.000000	 61.855000  
240.000000	 62.500000  
239.000000	 63.183000  
238.000000	 63.828000  
237.000000	 65.062000  
236.000000	 65.997000  
235.000000	 66.577000  
234.000000	 67.493000  
233.000000	 69.191000  
232.000000	 70.426999  
231.000000	 71.858000  
230.000000	 73.869000  
229.000000	 75.110000  
228.000000	 76.169000  
227.000000	 78.173999  
226.000000	 79.840999  
225.000000	 80.789000  
224.000000	 82.170000  
223.000000	 83.989000  
222.000000	 85.485999  
221.000000	 86.382000  
220.000000	 88.254000  
219.000000	 90.444999  
218.000000	 92.313000  
217.000000	 92.739999  
216.000000	 94.732000  
215.000000	 96.902000  
214.000000	 97.384000  
213.000000	 100.288000 
212.000000	 101.924000 
211.000000	 101.634000 
210.000000	 100.887000 
209.000000	 102.419000 
208.000000	 98.488000  
207.000000	 100.388000 
206.000000	 105.175000 
205.000000	 105.521000 
204.000000	 106.568000 
203.000000	 106.153000 
202.000000	 104.268000 
201.000000	 105.507000 
200.000000	 102.260000 
199.000000	 107.615000 
198.000000	 117.670000 
197.000000	 111.512000 
196.000000	 100.642000 
195.000000	 109.476000 
194.000000	 105.230000 
193.000000	 98.334000  
192.000000	 88.369000  
191.000000	 143.041000 
190.000000	 75.773000  

