PE UV                   SPECTRUM    ASCII       PEDS        1.60        
  -1
S19_07.SP
12/04/05
07:50:27.00
12/04/05
07:54:04.00


190.000000
1









4444

SCAN
1
1


0.0
1920.0
2.00
MANUAL



UV/VIS




































#HDR
-1
-1
#GR
NM
%R
0.00002384185791015625
0.0
1000.000000
1.000000
811
8
113.719000
26.006000
#DATA
1000.000000	49.088000  
999.000000	 48.848000  
998.000000	 48.675000  
997.000000	 49.283000  
996.000000	 48.644000  
995.000000	 48.233000  
994.000000	 48.532000  
993.000000	 48.800000  
992.000000	 48.519000  
991.000000	 48.324000  
990.000000	 47.928000  
989.000000	 47.905000  
988.000000	 48.423000  
987.000000	 48.105000  
986.000000	 48.079000  
985.000000	 48.115000  
984.000000	 47.758000  
983.000000	 47.888000  
982.000000	 47.694000  
981.000000	 47.480000  
980.000000	 47.358000  
979.000000	 47.277000  
978.000000	 47.599999  
977.000000	 47.553000  
976.000000	 47.010000  
975.000000	 47.186000  
974.000000	 47.060000  
973.000000	 47.032000  
972.000000	 46.583000  
971.000000	 46.354000  
970.000000	 46.405000  
969.000000	 46.701000  
968.000000	 46.520000  
967.000000	 46.424000  
966.000000	 46.160000  
965.000000	 46.299000  
964.000000	 46.358000  
963.000000	 46.337000  
962.000000	 46.170000  
961.000000	 46.258000  
960.000000	 45.758000  
959.000000	 45.809000  
958.000000	 45.473000  
957.000000	 45.325000  
956.000000	 45.360000  
955.000000	 45.365000  
954.000000	 45.210000  
953.000000	 45.254000  
952.000000	 45.238000  
951.000000	 45.093000  
950.000000	 44.827000  
949.000000	 44.714000  
948.000000	 44.549000  
947.000000	 44.499000  
946.000000	 44.579000  
945.000000	 44.573000  
944.000000	 44.355000  
943.000000	 44.227000  
942.000000	 44.061000  
941.000000	 44.020000  
940.000000	 44.139000  
939.000000	 44.090000  
938.000000	 43.897000  
937.000000	 43.742999  
936.000000	 43.686000  
935.000000	 43.787000  
934.000000	 43.833000  
933.000000	 43.589000  
932.000000	 43.509000  
931.000000	 43.399000  
930.000000	 43.268000  
929.000000	 43.133000  
928.000000	 43.225000  
927.000000	 43.144000  
926.000000	 42.973000  
925.000000	 42.890000  
924.000000	 42.698000  
923.000000	 42.616000  
922.000000	 42.602000  
921.000000	 42.387000  
920.000000	 42.413000  
919.000000	 42.479000  
918.000000	 42.312000  
917.000000	 42.230000  
916.000000	 42.334000  
915.000000	 42.139000  
914.000000	 41.869000  
913.000000	 41.735000  
912.000000	 41.764000  
911.000000	 41.866000  
910.000000	 41.669000  
909.000000	 41.109000  
908.000000	 41.099000  
907.000000	 41.063000  
906.000000	 41.174000  
905.000000	 40.887000  
904.000000	 40.760000  
903.000000	 40.767000  
902.000000	 40.793000  
901.000000	 40.876000  
900.000000	 41.042000  
899.000000	 40.867000  
898.000000	 40.533000  
897.000000	 40.515000  
896.000000	 40.153000  
895.000000	 40.109000  
894.000000	 40.038000  
893.000000	 40.061000  
892.000000	 40.128000  
891.000000	 39.971000  
890.000000	 39.792000  
889.000000	 39.715000  
888.000000	 40.105000  
887.000000	 40.162000  
886.000000	 39.778000  
885.000000	 39.996000  
884.000000	 39.853000  
883.000000	 40.113000  
882.000000	 39.421000  
881.000000	 39.177000  
880.000000	 39.648000  
879.000000	 39.076000  
878.000000	 39.224000  
877.000000	 38.543000  
876.000000	 38.022000  
875.000000	 37.961000  
874.000000	 38.745000  
873.000000	 38.622000  
872.000000	 38.299000  
871.000000	 38.332000  
870.000000	 38.171000  
869.000000	 37.564000  
868.000000	 37.506000  
867.000000	 38.155000  
866.000000	 37.834000  
865.000000	 37.699000  
864.000000	 37.774000  
863.000000	 37.740000  
862.000000	 37.395000  
861.000000	 37.327000  
860.000000	 37.378000  
859.000000	 36.856000  
858.000000	 36.841000  
857.000000	 37.215000  
856.000000	 36.914000  
855.000000	 36.802000  
854.000000	 36.651000  
853.000000	 36.999000  
852.000000	 36.791000  
851.000000	 36.213000  
850.000000	 36.237000  
849.000000	 36.383000  
848.000000	 36.245000  
847.000000	 36.337000  
846.000000	 36.298000  
845.000000	 36.193000  
844.000000	 36.081000  
843.000000	 35.587000  
842.000000	 35.670000  
841.000000	 35.813000  
840.000000	 35.568000  
839.000000	 35.713000  
838.000000	 35.682000  
837.000000	 35.494000  
836.000000	 35.153000  
835.000000	 35.106000  
834.000000	 35.071000  
833.000000	 35.309000  
832.000000	 34.412000  
831.000000	 34.520000  
830.000000	 34.437000  
829.000000	 34.689000  
828.000000	 34.575000  
827.000000	 34.361999  
826.000000	 34.171000  
825.000000	 34.178000  
824.000000	 34.092000  
823.000000	 33.952000  
822.000000	 33.977000  
821.000000	 34.064000  
820.000000	 34.168000  
819.000000	 34.022000  
818.000000	 33.832000  
817.000000	 33.727000  
816.000000	 33.599000  
815.000000	 33.463000  
814.000000	 33.663000  
813.000000	 33.339000  
812.000000	 33.453000  
811.000000	 33.509000  
810.000000	 33.185000  
809.000000	 33.184000  
808.000000	 33.212000  
807.000000	 33.105000  
806.000000	 32.993000  
805.000000	 32.970000  
804.000000	 33.102000  
803.000000	 32.742000  
802.000000	 32.595000  
801.000000	 32.531000  
800.000000	 32.297000  
799.000000	 32.572000  
798.000000	 32.407000  
797.000000	 32.334000  
796.000000	 31.949000  
795.000000	 32.119000  
794.000000	 32.270000  
793.000000	 32.296000  
792.000000	 31.822000  
791.000000	 31.601000  
790.000000	 31.635000  
789.000000	 31.485000  
788.000000	 31.684000  
787.000000	 31.492000  
786.000000	 31.577000  
785.000000	 31.734000  
784.000000	 31.300000  
783.000000	 31.217000  
782.000000	 31.166000  
781.000000	 31.007000  
780.000000	 31.075000  
779.000000	 30.882000  
778.000000	 30.761000  
777.000000	 30.697000  
776.000000	 30.602000  
775.000000	 30.666000  
774.000000	 30.485000  
773.000000	 30.246000  
772.000000	 30.223000  
771.000000	 30.140000  
770.000000	 30.083000  
769.000000	 29.989000  
768.000000	 29.920000  
767.000000	 29.899000  
766.000000	 29.740000  
765.000000	 29.650000  
764.000000	 29.535000  
763.000000	 29.504000  
762.000000	 29.554000  
761.000000	 29.559000  
760.000000	 29.490000  
759.000000	 29.436000  
758.000000	 29.341000  
757.000000	 29.238000  
756.000000	 29.161000  
755.000000	 29.008000  
754.000000	 28.984000  
753.000000	 29.018000  
752.000000	 29.241000  
751.000000	 29.023000  
750.000000	 28.934000  
749.000000	 28.810000  
748.000000	 28.679000  
747.000000	 28.484000  
746.000000	 28.588000  
745.000000	 28.353000  
744.000000	 28.312000  
743.000000	 28.479000  
742.000000	 28.418000  
741.000000	 28.404000  
740.000000	 28.208000  
739.000000	 28.166000  
738.000000	 28.149000  
737.000000	 27.987000  
736.000000	 27.907000  
735.000000	 27.947000  
734.000000	 28.015000  
733.000000	 27.870000  
732.000000	 27.814000  
731.000000	 27.764000  
730.000000	 27.562000  
729.000000	 27.483000  
728.000000	 27.379000  
727.000000	 27.444000  
726.000000	 27.563000  
725.000000	 27.516000  
724.000000	 27.369000  
723.000000	 27.355000  
722.000000	 27.298000  
721.000000	 27.181000  
720.000000	 27.131000  
719.000000	 27.152000  
718.000000	 27.237000  
717.000000	 27.153000  
716.000000	 27.047000  
715.000000	 27.042000  
714.000000	 26.965000  
713.000000	 26.874000  
712.000000	 26.775000  
711.000000	 26.788000  
710.000000	 26.817000  
709.000000	 26.823000  
708.000000	 26.753000  
707.000000	 26.642000  
706.000000	 26.616000  
705.000000	 26.533000  
704.000000	 26.457000  
703.000000	 26.565000  
702.000000	 26.514000  
701.000000	 26.390000  
700.000000	 26.489000  
699.000000	 26.516000  
698.000000	 26.528000  
697.000000	 26.399000  
696.000000	 26.428000  
695.000000	 26.307000  
694.000000	 26.208000  
693.000000	 26.142000  
692.000000	 26.191000  
691.000000	 26.312000  
690.000000	 26.338000  
689.000000	 26.211000  
688.000000	 26.098000  
687.000000	 26.134000  
686.000000	 26.126000  
685.000000	 26.112000  
684.000000	 26.006000  
683.000000	 26.064000  
682.000000	 26.145000  
681.000000	 26.057000  
680.000000	 26.067000  
679.000000	 26.018000  
678.000000	 26.029000  
677.000000	 26.031000  
676.000000	 26.141000  
675.000000	 26.131000  
674.000000	 26.090000  
673.000000	 26.063000  
672.000000	 26.085000  
671.000000	 26.054000  
670.000000	 26.145000  
669.000000	 26.102000  
668.000000	 26.007000  
667.000000	 26.171000  
666.000000	 26.143000  
665.000000	 26.088000  
664.000000	 26.039000  
663.000000	 26.015000  
662.000000	 26.083000  
661.000000	 26.147000  
660.000000	 26.363000  
659.000000	 26.377000  
658.000000	 26.450000  
657.000000	 26.427000  
656.000000	 26.120000  
655.000000	 26.115000  
654.000000	 26.280000  
653.000000	 26.282000  
652.000000	 26.290000  
651.000000	 26.322000  
650.000000	 26.301000  
649.000000	 26.406000  
648.000000	 26.324000  
647.000000	 26.466000  
646.000000	 26.566000  
645.000000	 26.342000  
644.000000	 26.471000  
643.000000	 26.700000  
642.000000	 26.686000  
641.000000	 26.683000  
640.000000	 26.696000  
639.000000	 26.634000  
638.000000	 26.669000  
637.000000	 26.821000  
636.000000	 26.854000  
635.000000	 26.956000  
634.000000	 27.044000  
633.000000	 27.080000  
632.000000	 27.107000  
631.000000	 27.178000  
630.000000	 27.249000  
629.000000	 27.344000  
628.000000	 27.286000  
627.000000	 27.282000  
626.000000	 27.387000  
625.000000	 27.630000  
624.000000	 27.723000  
623.000000	 27.656000  
622.000000	 27.784000  
621.000000	 27.883000  
620.000000	 27.875000  
619.000000	 27.913000  
618.000000	 28.007000  
617.000000	 28.120000  
616.000000	 28.336000  
615.000000	 28.331000  
614.000000	 28.439000  
613.000000	 28.465000  
612.000000	 28.548000  
611.000000	 28.649000  
610.000000	 28.770000  
609.000000	 28.845000  
608.000000	 29.047000  
607.000000	 29.076000  
606.000000	 29.181000  
605.000000	 29.306000  
604.000000	 29.361000  
603.000000	 29.458000  
602.000000	 29.583000  
601.000000	 29.782000  
600.000000	 29.808000  
599.000000	 29.967000  
598.000000	 30.123000  
597.000000	 30.226000  
596.000000	 30.295000  
595.000000	 30.417000  
594.000000	 30.623000  
593.000000	 30.719000  
592.000000	 30.843000  
591.000000	 31.004000  
590.000000	 31.161000  
589.000000	 31.351000  
588.000000	 31.417000  
587.000000	 31.502000  
586.000000	 31.736000  
585.000000	 31.935000  
584.000000	 32.034000  
583.000000	 32.115000  
582.000000	 32.340999  
581.000000	 32.516000  
580.000000	 32.635000  
579.000000	 32.760000  
578.000000	 32.916000  
577.000000	 33.054000  
576.000000	 33.265000  
575.000000	 33.401000  
574.000000	 33.633000  
573.000000	 33.809000  
572.000000	 33.904000  
571.000000	 34.267000  
570.000000	 34.387000  
569.000000	 34.453000  
568.000000	 34.692000  
567.000000	 34.882000  
566.000000	 35.040000  
565.000000	 35.303000  
564.000000	 35.437000  
563.000000	 35.613000  
562.000000	 35.781000  
561.000000	 35.965000  
560.000000	 36.213000  
559.000000	 36.479000  
558.000000	 36.735000  
557.000000	 37.030000  
556.000000	 37.257000  
555.000000	 37.503000  
554.000000	 37.817000  
553.000000	 38.055000  
552.000000	 38.230000  
551.000000	 38.454000  
550.000000	 38.685000  
549.000000	 38.968000  
548.000000	 39.253000  
547.000000	 39.406000  
546.000000	 39.611000  
545.000000	 39.858000  
544.000000	 40.092000  
543.000000	 40.288000  
542.000000	 40.516000  
541.000000	 40.742000  
540.000000	 41.075000  
539.000000	 41.380000  
538.000000	 41.676000  
537.000000	 41.931000  
536.000000	 42.207000  
535.000000	 42.410000  
534.000000	 42.681000  
533.000000	 42.901000  
532.000000	 43.211000  
531.000000	 43.483000  
530.000000	 43.818000  
529.000000	 44.098000  
528.000000	 44.529999  
527.000000	 44.862000  
526.000000	 44.961000  
525.000000	 45.255000  
524.000000	 45.672000  
523.000000	 45.775000  
522.000000	 46.178000  
521.000000	 46.594000  
520.000000	 46.916999  
519.000000	 47.250000  
518.000000	 47.540000  
517.000000	 47.751000  
516.000000	 47.915000  
515.000000	 48.320000  
514.000000	 48.602000  
513.000000	 49.004000  
512.000000	 49.400000  
511.000000	 49.819000  
510.000000	 50.104000  
509.000000	 50.248000  
508.000000	 50.558000  
507.000000	 51.026000  
506.000000	 51.467000  
505.000000	 51.733000  
504.000000	 51.981000  
503.000000	 52.412000  
502.000000	 52.672000  
501.000000	 52.986000  
500.000000	 53.290000  
499.000000	 53.698000  
498.000000	 54.012000  
497.000000	 54.403000  
496.000000	 54.897000  
495.000000	 55.327000  
494.000000	 55.522000  
493.000000	 55.942000  
492.000000	 56.226000  
491.000000	 56.812000  
490.000000	 57.092000  
489.000000	 57.348000  
488.000000	 57.813000  
487.000000	 58.263000  
486.000000	 58.708000  
485.000000	 58.987000  
484.000000	 59.251000  
483.000000	 59.945000  
482.000000	 60.156000  
481.000000	 60.414000  
480.000000	 60.903000  
479.000000	 61.312000  
478.000000	 61.742000  
477.000000	 62.123000  
476.000000	 62.705000  
475.000000	 63.056000  
474.000000	 63.222000  
473.000000	 63.586000  
472.000000	 64.289000  
471.000000	 64.502000  
470.000000	 65.034000  
469.000000	 65.419000  
468.000000	 65.929000  
467.000000	 66.402000  
466.000000	 66.742999  
465.000000	 67.042000  
464.000000	 67.459999  
463.000000	 67.753000  
462.000000	 68.176999  
461.000000	 68.640000  
460.000000	 69.248000  
459.000000	 69.733999  
458.000000	 69.971999  
457.000000	 70.346000  
456.000000	 70.729000  
455.000000	 70.982999  
454.000000	 71.267000  
453.000000	 71.938000  
452.000000	 72.540000  
451.000000	 72.909000  
450.000000	 73.349000  
449.000000	 73.812999  
448.000000	 74.047000  
447.000000	 74.480000  
446.000000	 75.090000  
445.000000	 75.761000  
444.000000	 75.947000  
443.000000	 76.496000  
442.000000	 76.958000  
441.000000	 77.227000  
440.000000	 77.700999  
439.000000	 78.008000  
438.000000	 78.595000  
437.000000	 79.144000  
436.000000	 79.499000  
435.000000	 79.771000  
434.000000	 80.403000  
433.000000	 80.721000  
432.000000	 80.825999  
431.000000	 81.670000  
430.000000	 82.059000  
429.000000	 82.631000  
428.000000	 82.869000  
427.000000	 83.147000  
426.000000	 83.437000  
425.000000	 83.958999  
424.000000	 84.355000  
423.000000	 84.816000  
422.000000	 85.031000  
421.000000	 85.407000  
420.000000	 85.926999  
419.000000	 86.246000  
418.000000	 86.802000  
417.000000	 87.423000  
416.000000	 87.768000  
415.000000	 88.127000  
414.000000	 88.582000  
413.000000	 89.140000  
412.000000	 89.593000  
411.000000	 89.690000  
410.000000	 89.723000  
409.000000	 90.019000  
408.000000	 90.551000  
407.000000	 91.129000  
406.000000	 91.533000  
405.000000	 92.422000  
404.000000	 92.637000  
403.000000	 92.795000  
402.000000	 93.171000  
401.000000	 93.355999  
400.000000	 94.559000  
399.000000	 94.261000  
398.000000	 94.798000  
397.000000	 94.952000  
396.000000	 94.749000  
395.000000	 95.068000  
394.000000	 95.723000  
393.000000	 96.334000  
392.000000	 96.393000  
391.000000	 96.661000  
390.000000	 97.180000  
389.000000	 97.343000  
388.000000	 96.933000  
387.000000	 97.807000  
386.000000	 98.119000  
385.000000	 98.845000  
384.000000	 98.268999  
383.000000	 98.899000  
382.000000	 99.393000  
381.000000	 99.194000  
380.000000	 100.082000 
379.000000	 100.410000 
378.000000	 100.064000 
377.000000	 99.987000  
376.000000	 100.693000 
375.000000	 100.572000 
374.000000	 100.379000 
373.000000	 100.833000 
372.000000	 100.667000 
371.000000	 100.235000 
370.000000	 101.267000 
369.000000	 101.525000 
368.000000	 101.805000 
367.000000	 101.761000 
366.000000	 101.712000 
365.000000	 101.376000 
364.000000	 100.943000 
363.000000	 101.135000 
362.000000	 101.240000 
361.000000	 101.690000 
360.000000	 101.316000 
359.000000	 101.339000 
358.000000	 101.415000 
357.000000	 101.040000 
356.000000	 101.409000 
355.000000	 102.424000 
354.000000	 102.106000 
353.000000	 101.607000 
352.000000	 102.337000 
351.000000	 102.395000 
350.000000	 102.264000 
349.000000	 101.972000 
348.000000	 103.134000 
347.000000	 102.226000 
346.000000	 102.601000 
345.000000	 103.367000 
344.000000	 103.162000 
343.000000	 102.085000 
342.000000	 102.358000 
341.000000	 102.753000 
340.000000	 101.483000 
339.000000	 101.597000 
338.000000	 102.833000 
337.000000	 102.152000 
336.000000	 101.954000 
335.000000	 103.123000 
334.000000	 104.209000 
333.000000	 103.660000 
332.000000	 102.984000 
331.000000	 104.051000 
330.000000	 102.885000 
329.000000	 102.135000 
328.000000	 102.761000 
327.000000	 102.103000 
326.000000	 101.523000 
325.000000	 101.460000 
324.000000	 100.995000 
323.000000	 101.363000 
322.000000	 101.363000 
321.000000	 100.999000 
320.000000	 100.770000 
319.000000	 100.741000 
318.000000	 100.277000 
317.000000	 99.959000  
316.000000	 100.394000 
315.000000	 99.666000  
314.000000	 99.346999  
313.000000	 99.068000  
312.000000	 98.712999  
311.000000	 98.438999  
310.000000	 98.624000  
309.000000	 98.554000  
308.000000	 98.255000  
307.000000	 97.164000  
306.000000	 97.334000  
305.000000	 97.772000  
304.000000	 96.867000  
303.000000	 96.355000  
302.000000	 95.806000  
301.000000	 95.435000  
300.000000	 95.124000  
299.000000	 94.647000  
298.000000	 94.863000  
297.000000	 94.286999  
296.000000	 93.875000  
295.000000	 93.328999  
294.000000	 92.812000  
293.000000	 92.112000  
292.000000	 91.803000  
291.000000	 91.869000  
290.000000	 91.367000  
289.000000	 90.443000  
288.000000	 90.420000  
287.000000	 89.825999  
286.000000	 89.160000  
285.000000	 88.680000  
284.000000	 87.898000  
283.000000	 87.848000  
282.000000	 87.351000  
281.000000	 86.692000  
280.000000	 86.328000  
279.000000	 85.579000  
278.000000	 84.885000  
277.000000	 84.216000  
276.000000	 83.391000  
275.000000	 82.696000  
274.000000	 81.715000  
273.000000	 81.143000  
272.000000	 80.423000  
271.000000	 79.577000  
270.000000	 78.849999  
269.000000	 77.602000  
268.000000	 76.724999  
267.000000	 76.054000  
266.000000	 75.432999  
265.000000	 74.298000  
264.000000	 73.645000  
263.000000	 72.501000  
262.000000	 71.673000  
261.000000	 70.835000  
260.000000	 69.835000  
259.000000	 68.964000  
258.000000	 67.797000  
257.000000	 66.910000  
256.000000	 66.101000  
255.000000	 65.474000  
254.000000	 64.869000  
253.000000	 64.464999  
252.000000	 63.710000  
251.000000	 62.808000  
250.000000	 62.637000  
249.000000	 62.049000  
248.000000	 61.620000  
247.000000	 61.852000  
246.000000	 61.934000  
245.000000	 61.972000  
244.000000	 61.490999  
243.000000	 61.771000  
242.000000	 62.111000  
241.000000	 62.183000  
240.000000	 62.771999  
239.000000	 63.544999  
238.000000	 64.171000  
237.000000	 65.010000  
236.000000	 66.066000  
235.000000	 67.159000  
234.000000	 68.316000  
233.000000	 69.559000  
232.000000	 70.486000  
231.000000	 72.363999  
230.000000	 73.831999  
229.000000	 75.767000  
228.000000	 77.454000  
227.000000	 78.512000  
226.000000	 80.364000  
225.000000	 81.852999  
224.000000	 82.164999  
223.000000	 84.807000  
222.000000	 87.117999  
221.000000	 87.071000  
220.000000	 90.069999  
219.000000	 90.819000  
218.000000	 91.639000  
217.000000	 93.245000  
216.000000	 93.918000  
215.000000	 95.945000  
214.000000	 96.512000  
213.000000	 98.271000  
212.000000	 97.701000  
211.000000	 98.621000  
210.000000	 100.046000 
209.000000	 100.929000 
208.000000	 105.402000 
207.000000	 105.602000 
206.000000	 105.660000 
205.000000	 105.163000 
204.000000	 99.897000  
203.000000	 96.759000  
202.000000	 100.550000 
201.000000	 103.736000 
200.000000	 105.595000 
199.000000	 104.799000 
198.000000	 102.864000 
197.000000	 98.589000  
196.000000	 101.233000 
195.000000	 110.377000 
194.000000	 113.719000 
193.000000	 95.467000  
192.000000	 88.804000  
191.000000	 78.596000  
190.000000	 54.061000  

